
 $NMID
 id='ANONYMOUS ', fmtdat='(2E16.6)'
 volume=1.0
 tramp=1.0
 $END
  -3.817866e+03  -9.116627e+01
  -2.376496e+03  -2.247424e+03
   2.639932e+02  -2.511440e+03
   1.956140e+03  -8.655515e+02
   8.875054e+02   4.962076e+02
  -4.780268e+02   6.453796e+02
  -7.247173e+02  -2.235461e+02
  -7.348778e+00  -9.422084e+02
   7.126007e+02  -7.386606e+02
   7.864153e+02  -9.833611e+00
   5.106315e+02   6.808633e+02
  -1.013478e+02   7.755519e+02
  -5.528039e+02   1.763688e+02
  -4.181750e+02  -5.639710e+02
   1.853604e+02  -6.881744e+02
   5.564778e+02  -6.809166e+01
   3.313632e+02   6.189677e+02
  -2.268978e+02   6.187316e+02
  -5.137414e+02   1.784323e+02
  -4.227500e+02  -2.613526e+02
  -6.147953e+01  -3.949959e+02
   1.855101e+02  -2.670732e+02
   1.561287e+02  -8.418826e+01
  -8.030114e+01   5.121505e+01
  -3.089590e+02  -1.392601e+02
  -1.236800e+02  -3.500985e+02
   3.804725e+02  -3.034542e+02
   7.269648e+02   1.200669e+02
   3.334784e+02   4.498236e+02
  -3.026639e+02   3.736933e+02
  -6.329901e+02  -3.258810e+01
  -2.972735e+02  -4.079341e+02
   2.127262e+02  -4.416688e+02
   5.255773e+02  -2.175245e+02
   3.789063e+02   1.204352e+02
   1.329804e+02   3.734478e+02
  -9.205246e+01   3.205925e+02
  -1.042228e+02  -9.796462e+01
   1.148234e+02  -3.592464e+02
   3.387339e+02   1.428454e+01
   1.978920e+02   6.212431e+02
  -2.563348e+02   6.174518e+02
  -4.740822e+02   6.152036e+01
  -2.136456e+02  -3.989393e+02
   1.973630e+02  -2.594199e+02
   2.581208e+02   2.419816e+02
  -9.484571e+01   4.533373e+02
  -4.743050e+02   1.371514e+02
  -5.311806e+02  -3.216330e+02
  -1.846622e+02  -4.996427e+02
   3.156273e+02  -3.160196e+02
   5.785946e+02   3.715084e+00
   3.843010e+02   2.962665e+02
  -4.567851e+01   3.079435e+02
  -3.731256e+02   9.643065e+01
  -2.522540e+02  -1.093952e+02
   6.827151e+00  -1.072121e+02
   1.098892e+02   8.354887e+01
  -9.445235e+01   1.484303e+02
  -2.605086e+02  -1.185941e+01
  -1.617384e+02  -2.369071e+02
   1.625778e+02  -2.285403e+02
   3.183598e+02  -1.265774e+02
   2.103765e+02   7.261832e+01
  -6.961152e+00   2.393575e+02
  -2.178220e+02   3.512089e+02
  -3.324903e+02   1.966722e+02
  -3.011064e+02  -1.573940e+02
  -9.370374e+01  -4.170357e+02
   6.343588e+01  -3.856770e+02
   9.587796e+01  -1.071483e+02
   6.323632e+01   1.754353e+00
   4.775457e+01  -7.248657e+01
   1.701953e+02  -9.144315e+01
   2.528592e+02   5.499800e+01
   1.303706e+02   2.358506e+02
  -7.104861e+01   2.390043e+02
  -1.911945e+02   1.877013e+01
  -1.974264e+02  -2.123734e+02
   6.065866e+00  -2.360255e+02
   2.290961e+02  -1.037557e+02
   3.237796e+02   1.313480e+02
   1.959676e+02   2.841549e+02
  -7.370932e+01   3.043235e+02
  -1.968304e+02   1.626970e+02
  -1.384959e+02   5.281714e+01
  -1.523490e+02   1.573600e+01
  -2.325756e+02   3.940022e+00
  -3.700916e+02  -6.563471e+01
  -3.006232e+02  -2.868429e+02
   2.616229e+01  -4.291744e+02
   3.361835e+02  -3.775269e+02
   4.717123e+02  -1.740957e+02
   3.127446e+02   7.323925e+01
   3.949419e+01   2.661640e+02
  -9.969638e+01   2.444975e+02
  -8.726733e+01   4.352749e+01
   8.022195e+01  -5.471375e+01
   1.542443e+02   2.252364e+01
   2.532050e+01   1.920976e+02
  -1.590830e+02   1.455956e+02
  -1.353466e+02  -4.567438e+01
   4.857594e+01  -1.723897e+02
   1.342286e+02  -3.837224e+00
   1.286039e+02   2.514776e+02
  -2.951449e+01   3.424962e+02
  -2.397958e+02   1.689967e+02
  -3.161121e+02  -4.967660e+01
  -2.536837e+02  -2.347873e+02
  -8.153229e+01  -2.383381e+02
   1.151491e+02  -1.550009e+02
   1.654762e+02  -1.483237e+01
   3.708892e+01   1.955669e+01
  -4.728949e+01  -3.843526e+01
  -1.544655e+01  -1.014610e+02
   8.151220e+01  -8.892816e+01
   1.644891e+02  -3.466077e+00
   3.821213e+01   6.227418e+01
  -7.914928e+01  -5.285839e-01
  -5.282201e+01  -7.736512e+01
   1.269586e+02  -8.877172e+01
   2.591773e+02   2.273839e+01
   2.379596e+02   1.363270e+02
   6.299972e+01   2.496192e+02
  -1.928873e+02   2.392640e+02
  -2.403705e+02   1.029861e+02
  -1.304158e+02  -5.107684e+01
   2.254108e+01  -1.129907e+02
   9.779725e+01  -2.095859e+01
  -3.808117e+01   8.361833e+01
  -1.894657e+02   4.270245e+01
  -2.160654e+02  -7.740296e+01
  -6.677546e+01  -1.851608e+02
   7.357700e+01  -1.377322e+02
   1.207781e+02  -4.488663e+01
   6.758978e+01   4.928067e+01
  -1.272624e+01   1.455089e+01
  -2.734912e+01  -6.421016e+01
   6.345338e+01  -9.903809e+01
   1.778263e+02  -3.009717e+00
   1.502446e+02   1.074123e+02
   2.767332e+01   2.185527e+02
  -1.343403e+02   1.517660e+02
  -1.842313e+02   2.273405e+01
  -4.610210e+01  -9.886466e+01
   5.794528e+01  -7.496440e+01
   6.495350e+01  -3.239709e+01
   6.195501e+00   2.539551e+00
  -2.770786e+01   7.835775e+00
   2.873642e+01  -2.238093e+01
   8.081193e+01   2.215710e+01
   7.397730e+01   9.139099e+01
   1.734813e+00   1.505754e+02
  -1.308025e+02   1.516412e+02
  -2.179066e+02   4.389953e+01
  -2.098151e+02  -1.406735e+02
  -2.890856e+01  -2.391766e+02
   1.056486e+02  -1.872040e+02
   1.349067e+02  -5.317751e+01
   7.140421e+01   4.494868e+01
   3.294727e+01   3.365140e+01
   9.118466e+01  -3.351752e+00
   5.169708e+01  -1.764447e+01
   1.468623e+01   6.295878e+01
  -1.957548e+01   9.165824e+01
  -9.405901e+01   2.552287e+01
  -7.124365e+01  -6.062434e+01
  -6.484364e+00  -1.060706e+02
   1.138974e+02  -6.701393e+01
   1.718973e+02   7.376250e+01
   7.647625e+01   1.877539e+02
  -1.276776e+02   2.137150e+02
  -2.446677e+02   1.076447e+02
  -2.368234e+02  -6.293243e+01
  -9.373307e+01  -1.575543e+02
   1.555054e+01  -1.248580e+02
   6.824908e+01  -7.517827e+01
   7.519001e+01  -5.120653e+01
   6.207734e+01  -8.533851e+01
   1.086345e+02  -7.213828e+01
   1.225272e+02   2.141166e+01
   1.059391e+02   1.414116e+02
   4.104569e+01   2.300627e+02
  -1.038600e+02   1.655315e+02
  -1.557329e+02   3.932741e+01
  -1.123198e+02  -1.000797e+02
  -2.390592e+01  -1.512408e+02
   6.543750e+01  -6.232133e+01
   3.553722e+01   1.377299e+01
   2.482631e+01   2.371798e+01
   3.525948e+00   2.052804e+01
   3.782999e+01   1.753346e+01
   6.414516e+01   3.027929e+01
   5.846725e+01   2.912393e+01
  -6.911816e+01   4.800069e+01
  -1.582451e+02   9.635586e+00
  -1.358533e+02  -5.059244e+01
   7.699391e+00  -6.080089e+01
   9.249247e+01  -5.595049e+01
   1.267175e+02  -1.683704e-01
   3.131335e+01   5.382228e+01
  -2.613844e+01   1.669041e+01
  -4.700999e+01  -3.149716e+01
  -1.988763e+01  -7.852238e+01
   6.781950e+01  -3.547713e+01
   8.066695e+01  -3.492235e-01
   3.618169e+01   3.685849e+01
   5.266456e+01   2.095649e+01
   6.908184e+01  -1.322945e+00
   5.082578e+01  -2.229613e+01
   2.411338e+01   4.135422e+01
  -2.490780e+01   1.355711e+02
  -1.043257e+02   9.493413e+01
  -1.598218e+02   2.336993e+01
  -1.228264e+02  -7.352991e+01
  -8.812386e+00  -1.295525e+02
   9.014106e+01  -4.281919e+01
   4.047331e+01   3.655855e+01
  -5.757213e+01   1.942677e+01
  -1.361837e+02  -2.917296e+01
  -7.800735e+01  -1.272870e+02
   8.770501e+01  -1.376781e+02
   1.805410e+02  -6.150206e+01
   1.386719e+02   3.894366e+01
   4.359788e+01   9.324553e+01
  -8.530092e+01   2.884226e+01
  -3.797680e+01   6.375206e+00
   5.979422e+01  -2.265278e+01
   1.046325e+02   6.921956e+00
   2.856064e+01   1.065527e+02
  -9.034038e+01   1.388720e+02
  -1.653007e+02   2.876647e+01
  -1.259182e+02  -1.157773e+02
  -3.517379e+01  -1.978537e+02
   6.525541e+01  -1.437977e+02
   1.111521e+02  -8.129734e+00
   5.398441e+01   9.090789e+01
  -4.495913e+00   9.505986e+01
  -3.824587e+01  -6.620271e+00
  -4.558175e+01  -2.070127e+01
  -2.375570e+01  -3.503828e+01
   1.772978e+01   2.587622e+01
  -1.755321e+01  -3.516762e+01
  -6.319797e+01  -6.829560e+01
  -3.092163e+01  -6.770340e+01
   3.606704e+01  -1.281756e+01
   1.268309e+02   1.698055e+01
   1.348883e+02   6.413549e+01
   1.116932e+01   3.430699e+01
  -8.815626e+01   2.855560e+01
  -9.064654e+01   3.132581e+01
   1.014016e+00  -1.968555e-01
   8.376677e+00  -4.541610e+01
   3.235099e+01  -1.499329e+01
   7.419491e+00  -1.112108e+01
   2.936573e+01  -1.985835e+01
   7.288765e+01   1.671569e+01
   9.793069e+01   3.737657e+01
  -5.798346e+00   8.409958e+01
  -1.060650e+02   8.324499e+01
  -1.810275e+02   4.179653e+01
  -1.346905e+02  -6.452721e+01
  -5.068439e+00  -1.537694e+02
   8.898035e+01  -1.307727e+02
   1.179145e+02  -3.941061e+01
   7.905346e+01   2.991185e+01
   1.462885e+01   2.229662e+01
  -2.102422e+00   1.697399e+01
   1.873601e+01   2.368367e+01
   3.576244e+01   2.828897e+01
   2.879341e+01   8.093589e+01
  -2.997549e+01   1.047871e+02
  -5.324927e+01  -2.419166e+01
  -8.350750e+01  -9.730965e+01
   1.176589e+01  -9.724565e+01
   7.251059e+01  -1.261848e+01
   1.029857e+02   7.896328e+01
   2.170530e+01   9.904836e+01
  -4.963772e+01   4.113915e+01
  -9.807378e+01  -2.440725e+01
  -2.358109e+01  -5.146501e+01
   2.196950e+01  -7.049474e+01
   2.658600e+01  -2.260751e+01
  -3.704635e+01  -2.211336e+01
  -6.078066e+01  -3.723412e+00
   5.231661e+00  -2.662792e+01
   6.796242e+01  -6.792306e+01
   1.220888e+02  -3.506924e+01
   7.459356e+01   3.132850e+01
  -2.903834e+01   9.484488e+01
  -6.358036e+01   8.186438e+01
  -8.219371e+00  -8.989032e+00
  -1.178308e+01  -4.803214e+01
   6.933313e+00  -4.021783e+01
   5.218367e+01  -2.763056e+00
   1.905473e+01   4.693919e+01
  -2.300834e+01   4.636515e+01
  -3.968687e+01  -1.591039e+01
  -1.909303e+01  -2.343022e+01
  -2.452989e+01  -6.516413e+00
  -5.761902e+00  -5.888337e+00
  -9.607788e-01  -1.953226e+01
   2.141627e+01  -3.151170e+01
   2.231879e+01  -6.842922e+01
   4.194844e+01  -5.646339e+00
   3.683632e+01   3.924294e+01
  -1.311993e+01   8.529766e+01
  -3.769443e+01  -8.297655e-01
  -5.630997e+01  -5.187652e+01
  -7.140020e-01  -8.740451e+01
   4.222171e+01  -3.791628e+01
   6.749189e+01   2.178524e+00
   4.555016e+01   3.248130e+01
  -1.952960e+01   2.377909e+01
  -5.697997e+01  -3.705341e+00
  -3.105658e+01  -1.178387e+01
   7.786445e+00  -1.199350e+01
   2.872513e+01   1.226368e+01
  -1.925728e+01  -8.232010e+00
  -7.604643e+01   4.652451e+01
