
 $NMID
 id='ANONYMOUS ', fmtdat='(2E16.6)'
 volume=1.0
 tramp=1.0
 $END
  -4.359565e+03   7.468569e+00
  -2.634571e+03  -2.705004e+03
   6.742708e+02  -2.852438e+03
   2.285262e+03  -9.157834e+02
   8.993012e+02   9.067244e+02
  -6.959629e+02   6.980098e+02
  -9.528722e+02  -4.556774e+02
  -2.762671e+01  -1.162621e+03
   8.433480e+02  -8.451358e+02
   9.955145e+02   9.962632e+01
   4.543844e+02   9.240614e+02
  -2.698814e+02   9.573124e+02
  -6.932156e+02   1.010923e+02
  -3.669677e+02  -7.050824e+02
   2.967802e+02  -7.819934e+02
   6.357752e+02   1.801985e+01
   2.637259e+02   7.002671e+02
  -3.174841e+02   7.039019e+02
  -6.448106e+02   1.145459e+02
  -4.409091e+02  -3.818285e+02
  -1.823203e+01  -4.775931e+02
   2.784153e+02  -2.375053e+02
   2.121423e+02  -7.421498e+00
  -1.009519e+02   1.392584e+02
  -4.507070e+02  -1.094039e+02
  -2.459552e+02  -4.163619e+02
   4.393776e+02  -4.724566e+02
   8.781061e+02   3.440515e+01
   4.647934e+02   5.253592e+02
  -3.598076e+02   5.532010e+02
  -7.595251e+02  -1.226269e+01
  -3.936536e+02  -4.876799e+02
   2.703333e+02  -5.669149e+02
   6.024598e+02  -2.175120e+02
   4.276667e+02   2.327518e+02
   4.336769e+01   5.188502e+02
  -1.966517e+02   2.516915e+02
  -1.366788e+02  -2.186828e+02
   1.723269e+02  -4.677476e+02
   4.422325e+02   2.531802e+01
   2.782260e+02   6.534221e+02
  -2.391011e+02   7.411953e+02
  -6.044074e+02   4.442916e+01
  -3.279109e+02  -5.498815e+02
   2.752401e+02  -3.566599e+02
   4.022579e+02   2.583451e+02
  -4.310108e+01   5.772543e+02
  -5.211875e+02   1.345206e+02
  -6.319367e+02  -3.761922e+02
  -1.987674e+02  -5.741103e+02
   3.274693e+02  -3.724886e+02
   6.393037e+02   1.002135e+02
   3.345848e+02   3.851793e+02
  -1.253070e+02   4.144435e+02
  -4.664589e+02   1.011825e+02
  -2.618719e+02  -1.835833e+02
   1.252961e+02  -1.262496e+02
   1.739847e+02   1.161312e+02
  -1.371076e+02   2.194763e+02
  -3.467200e+02  -3.876219e+01
  -1.375055e+02  -3.057516e+02
   2.038999e+02  -3.110358e+02
   3.409850e+02  -8.069921e+01
   2.423451e+02   9.539566e+01
  -6.907908e+00   2.194155e+02
  -2.199540e+02   3.500064e+02
  -3.689089e+02   2.173586e+02
  -2.893640e+02  -1.263444e+02
  -1.211539e+02  -4.372619e+02
   1.574925e+02  -3.259298e+02
   1.537365e+02  -9.736185e+01
   2.262006e+01  -7.351525e+00
   8.592415e+01  -1.123584e+02
   2.210524e+02  -1.376108e+02
   2.856221e+02   7.502586e+01
   1.590611e+02   2.786404e+02
  -3.364937e+01   2.609809e+02
  -2.052230e+02   2.668664e+01
  -2.009934e+02  -2.299849e+02
  -1.521351e+01  -3.178142e+02
   2.482157e+02  -1.264187e+02
   3.598169e+02   1.590454e+02
   1.868359e+02   3.505629e+02
  -1.030040e+02   2.917127e+02
  -2.345308e+02   1.475749e+02
  -1.715352e+02   8.914459e+00
  -1.215538e+02   2.304542e+01
  -2.253944e+02   4.966725e+01
  -3.730292e+02  -7.621348e+01
  -3.485003e+02  -2.416316e+02
  -1.479046e+01  -4.245867e+02
   3.404417e+02  -4.053299e+02
   4.439988e+02  -2.162722e+02
   3.256286e+02   9.483522e+01
   4.977885e+01   3.225046e+02
  -1.258544e+02   2.636907e+02
  -1.070939e+02   7.063699e+01
   1.066502e+02  -1.223491e+02
   2.030925e+02  -1.873892e+01
   7.451639e+01   1.980655e+02
  -1.055313e+02   1.977570e+02
  -1.925919e+02  -4.259748e+01
   2.339650e+01  -2.021974e+02
   1.939844e+02  -4.936674e+01
   1.581526e+02   2.242782e+02
  -1.113774e+01   3.282326e+02
  -2.190746e+02   2.007371e+02
  -3.220125e+02  -6.878014e+01
  -2.621323e+02  -2.291953e+02
  -1.134444e+02  -2.668962e+02
   1.394351e+02  -1.548768e+02
   1.794215e+02  -1.384678e+01
   2.885355e+01   4.615014e+01
  -9.234998e+01  -1.915524e+01
  -3.192530e+01  -1.044458e+02
   1.381317e+02  -9.359682e+01
   1.902138e+02   3.741914e+01
   4.671651e+01   8.977561e+01
  -7.233022e+01   7.199492e+00
  -4.382289e+01  -6.060516e+01
   1.189561e+02  -9.122441e+01
   2.623651e+02  -8.356309e+00
   2.730240e+02   9.199330e+01
   3.642325e+01   2.374965e+02
  -2.020675e+02   2.765598e+02
  -2.632239e+02   1.324979e+02
  -1.776027e+02  -2.712229e+01
   2.121225e+01  -1.056776e+02
   9.721184e+01  -6.023418e+00
  -4.428410e+01   8.019700e+01
  -2.224050e+02   6.750402e+01
  -2.111607e+02  -7.942820e+01
  -8.561306e+01  -2.329631e+02
   9.685165e+01  -1.832855e+02
   1.583602e+02  -3.280345e+01
   9.867499e+01   4.697107e+01
  -1.535584e+01   1.105597e+01
  -4.494087e+01  -9.492755e+01
   6.966887e+01  -1.225701e+02
   2.087156e+02  -6.393580e+01
   1.924226e+02   1.382869e+02
   5.039004e+01   2.331934e+02
  -1.704784e+02   1.489430e+02
  -2.084907e+02   5.192314e+00
  -5.862480e+01  -1.283836e+02
   7.344118e+01  -1.067276e+02
   8.082962e+01  -3.229931e+01
   1.566599e+01   2.575092e+01
  -2.235218e+01   3.695344e+01
   6.187174e-01  -7.600990e+00
   6.553275e+01  -2.086677e+00
   6.522064e+01   8.455101e+01
   2.335344e+01   1.756077e+02
  -1.068481e+02   1.598099e+02
  -2.288871e+02   2.801864e+01
  -1.866668e+02  -1.283943e+02
  -4.736978e+01  -2.415777e+02
   1.003632e+02  -1.717661e+02
   1.443363e+02  -3.359389e+01
   6.477543e+01   7.009955e+01
   2.613409e+01   2.934008e+01
   7.694021e+01  -4.833932e+00
   8.923610e+01  -3.383714e+01
   3.394926e+01   5.157047e+01
  -4.518497e+01   9.256427e+01
  -1.085329e+02   4.838008e+01
  -7.131044e+01  -2.775028e+01
   1.204496e+01  -9.237541e+01
   1.398817e+02  -7.904332e+01
   1.990704e+02   4.390060e+01
   9.426949e+01   2.130969e+02
  -1.193689e+02   2.128685e+02
  -2.500303e+02   6.735818e+01
  -2.646364e+02  -6.919630e+01
  -1.102729e+02  -2.006602e+02
   5.004301e+01  -1.621662e+02
   1.027346e+02  -9.798011e+01
   6.571378e+01  -6.455995e+01
   7.223465e+01  -8.601311e+01
   7.231687e+01  -5.633723e+01
   1.098129e+02   3.096862e+01
   1.068036e+02   1.369463e+02
   3.374386e+01   2.041372e+02
  -9.586331e+01   1.814693e+02
  -1.827832e+02   3.802266e+01
  -1.264565e+02  -1.017727e+02
  -8.080846e+00  -1.508654e+02
   7.107256e+01  -1.221853e+02
   5.553326e+01   7.260973e+00
   3.783638e+00   5.185697e+01
  -8.027842e+00   4.396474e+01
   1.882039e+01   4.717151e+01
   7.118753e+01   1.144548e+01
   2.689037e+01   5.264226e+01
  -6.779631e+01   3.651313e+01
  -1.494573e+02   3.926777e+00
  -1.048588e+02  -5.800202e+01
  -2.077001e+01  -9.009731e+01
   9.510963e+01  -7.350331e+01
   1.129521e+02  -3.303650e-01
   4.753972e+01   4.177497e+01
  -6.923898e+01   1.176197e+01
  -5.854592e+01  -1.363217e+00
  -2.020950e+01  -5.682302e+01
   4.295331e+01  -3.739272e+01
   6.526989e+01   1.959860e+01
   4.654533e+01   7.342130e+01
   4.231307e+01   3.896183e+01
   5.938788e+01  -7.933979e+00
   9.125337e+01  -1.324829e+01
   4.700175e+01   5.565453e+01
  -3.030852e+01   1.283376e+02
  -9.637821e+01   1.530764e+02
  -1.999644e+02   2.536406e+01
  -8.983455e+01  -8.806611e+01
   1.134034e+00  -1.106542e+02
   1.053019e+02  -6.085611e+01
   5.148608e+01   2.001221e+01
  -4.769447e+01   1.327108e+00
  -1.463301e+02  -2.449555e+01
  -6.191668e+01  -9.577508e+01
   6.683843e+01  -1.151937e+02
   1.858074e+02  -7.068939e+01
   1.466583e+02   1.817996e+01
   7.108143e+01   8.729055e+01
  -6.048633e+01   7.798588e+01
  -5.163802e+01   7.435690e+00
   6.461238e+01  -4.358455e+01
   1.062988e+02   2.021952e+01
   3.780521e+01   1.023057e+02
  -8.855055e+01   1.330514e+02
  -1.740105e+02   4.602823e+01
  -1.436837e+02  -1.210245e+02
  -7.554950e+00  -1.485217e+02
   7.276903e+01  -1.443340e+02
   9.501047e+01   3.327631e+01
   8.319585e+01   1.320072e+02
  -8.123205e+00   1.249370e+02
  -5.275991e+01   4.026414e+01
  -6.056727e+01  -3.950258e+01
  -1.943231e+01  -1.122921e+00
   3.650519e+00  -9.474943e+00
  -1.804069e+01   7.282600e+00
  -5.987690e+01  -1.080620e+02
  -2.586503e+01  -1.314102e+02
   3.924149e+01  -2.575741e+01
   1.117677e+02   2.013314e+01
   9.608019e+01   8.437320e+01
   9.029639e+00   4.793519e+01
  -6.474616e+01  -4.956309e-01
  -7.400847e+01   2.785520e+01
  -3.135346e+01   9.305637e+00
   3.404091e+01  -1.175636e+01
   7.332375e+00  -1.692413e+01
  -2.423613e+01  -2.534840e+01
   2.303631e+01   1.562833e+01
   4.906155e+01  -5.155104e+00
   7.054693e+01   2.120222e+01
  -1.020832e+01   8.265926e+01
  -1.150380e+02   1.119864e+02
  -1.933150e+02   5.330846e+01
  -1.297368e+02  -6.753046e+01
  -2.742867e+01  -1.297346e+02
   5.802799e+01  -1.546566e+02
   1.131425e+02  -5.534049e+01
   7.705621e+01   1.294726e+01
   2.717145e+01   6.674563e+01
   4.461613e+00  -1.763626e+00
   6.477716e+00  -4.363620e-01
   5.290556e+01   5.827672e+01
   5.223412e+00   8.111836e+01
  -3.757056e+01   8.062464e+01
  -6.923216e+01  -6.127692e+00
  -8.453162e+01  -1.107115e+02
  -1.217634e+01  -1.185983e+02
   7.819588e+01  -1.887553e+01
   1.127293e+02   6.570958e+01
   2.099015e+01   1.119072e+02
  -6.380017e+01   7.250925e+01
  -1.005639e+02  -2.122669e+01
  -5.136345e+01  -4.095044e+01
   3.782832e+01  -5.141134e+01
   4.266514e+01  -1.938409e+01
  -2.056549e+01   2.194448e+01
  -6.529919e+01   4.852006e+00
  -8.834660e+00  -3.943722e+01
   7.817885e+01  -6.749564e+01
   1.236104e+02  -7.568908e+01
   3.825181e+01   9.425038e+00
  -7.753980e+00   9.811887e+01
  -5.840735e+01   8.856776e+01
  -4.046730e+01   5.581506e+00
   2.144952e+01  -4.871394e+01
   6.050107e+01  -3.350223e+01
   5.012107e+01   2.164231e+01
   1.489304e+01   4.593191e+01
  -2.712295e+01   1.834237e+01
  -4.866458e+01  -9.558497e+00
  -4.026976e+01  -1.731745e+01
  -2.223272e+01  -2.257649e+00
   1.079679e+01   7.387263e+00
   1.736698e+01  -4.293617e-01
   2.033429e+01  -2.160368e+01
   6.145842e+00  -3.447250e+01
   3.886416e+01  -2.302261e+01
   4.075524e+01   4.313922e+01
  -9.339369e+00   6.340130e+01
  -4.195876e+01   4.107792e+01
  -6.918532e+01  -3.228285e+01
  -2.209179e+01  -7.089821e+01
   4.644397e+01  -3.692374e+01
   8.868159e+01   2.999303e+01
   7.215850e+01   3.259105e+01
  -4.223518e+01   4.807132e+01
  -7.468444e+01   8.044065e+00
  -2.960844e+01   2.396399e+01
   5.591710e+01  -1.581159e+01
   2.998662e+01   3.514411e+00
  -3.572855e+01   1.555249e+01
  -8.321260e+01   2.518778e+01
