
 $NMID
 id='ANONYMOUS ', fmtdat='(2E16.6)'
 volume=1.0
 tramp=1.0
 $END
  -4.282468e+03  -2.685030e+02
  -2.558992e+03  -2.435091e+03
   5.418696e+02  -2.779663e+03
   2.074544e+03  -9.621415e+02
   1.167939e+03   4.253219e+02
  -5.832927e+02   5.722327e+02
  -8.235232e+02  -3.656342e+02
  -2.987242e+01  -1.000514e+03
   8.779959e+02  -7.950718e+02
   9.337195e+02   1.644016e+02
   4.821596e+02   9.333833e+02
  -2.540799e+02   8.992485e+02
  -6.433979e+02   6.856174e+01
  -3.067849e+02  -7.550128e+02
   3.092655e+02  -7.555955e+02
   6.437386e+02   4.521468e+01
   2.864745e+02   7.202961e+02
  -3.248178e+02   6.870252e+02
  -6.017995e+02   1.292811e+02
  -4.284108e+02  -3.176869e+02
   1.035076e+01  -4.463936e+02
   2.491470e+02  -2.306442e+02
   1.637043e+02   2.077977e+00
  -1.640841e+02   9.155907e+01
  -4.043422e+02  -1.946282e+02
  -1.930477e+02  -4.662456e+02
   4.838866e+02  -3.877934e+02
   8.426793e+02   1.029411e+02
   3.652248e+02   5.398466e+02
  -3.791758e+02   4.376603e+02
  -7.369342e+02  -3.960391e+01
  -3.088795e+02  -5.262691e+02
   2.879119e+02  -5.453704e+02
   5.855515e+02  -1.342228e+02
   4.111578e+02   2.798538e+02
   4.471105e+01   4.402128e+02
  -1.909002e+02   2.632262e+02
  -8.396342e+01  -2.133330e+02
   1.814142e+02  -4.000506e+02
   4.303520e+02   6.805486e+01
   1.613760e+02   6.481818e+02
  -2.882540e+02   6.101904e+02
  -5.549620e+02  -2.844509e+01
  -1.972407e+02  -5.305412e+02
   3.105939e+02  -2.614201e+02
   3.754796e+02   3.068984e+02
  -1.040243e+02   5.136387e+02
  -5.558956e+02   1.479728e+02
  -6.013064e+02  -4.156967e+02
  -1.707931e+02  -5.960665e+02
   4.005851e+02  -3.132120e+02
   6.009234e+02   9.606992e+01
   4.064629e+02   4.024217e+02
  -1.400814e+02   3.526639e+02
  -3.870017e+02   6.420681e+01
  -2.552674e+02  -1.605902e+02
   1.180470e+02  -5.297448e+01
   1.565281e+02   1.482063e+02
  -1.397424e+02   1.946980e+02
  -3.656865e+02  -5.484006e+01
  -1.775689e+02  -2.851868e+02
   1.780578e+02  -2.644665e+02
   3.779290e+02  -8.019629e+01
   2.429061e+02   9.744667e+01
  -1.274049e+01   2.916136e+02
  -2.705476e+02   3.553297e+02
  -3.768208e+02   1.822328e+02
  -2.695506e+02  -1.546137e+02
  -8.100701e+01  -3.784104e+02
   1.358682e+02  -3.188428e+02
   5.875842e+01  -9.667932e+01
   7.926038e+00   1.261897e+01
   4.042714e+01  -9.131749e+01
   1.998244e+02  -1.215838e+02
   2.829364e+02   9.360027e+01
   1.339525e+02   2.662136e+02
  -8.791361e+01   2.350041e+02
  -2.309342e+02   1.170844e+01
  -2.209638e+02  -2.508539e+02
  -7.592024e-01  -2.879479e+02
   2.710868e+02  -1.146960e+02
   3.392336e+02   1.569780e+02
   1.781421e+02   3.513390e+02
  -8.433679e+01   3.243364e+02
  -2.437343e+02   1.034820e+02
  -1.478368e+02   2.910988e+01
  -8.735240e+01   2.354737e+01
  -2.497124e+02   8.499247e+01
  -4.101655e+02  -5.758293e+01
  -3.281643e+02  -2.705227e+02
  -1.796798e+01  -4.601430e+02
   3.528354e+02  -4.210973e+02
   4.826813e+02  -2.006235e+02
   3.405647e+02   9.153496e+01
   6.745358e+01   3.165589e+02
  -1.259651e+02   2.351670e+02
  -9.142181e+01   2.974705e+01
   9.590038e+01  -5.874005e+01
   1.752430e+02   2.521646e+01
   7.422360e+01   1.934673e+02
  -1.276947e+02   1.339025e+02
  -1.665175e+02  -3.682967e+01
   1.107513e+01  -1.728974e+02
   2.116214e+02  -2.615153e+01
   1.754220e+02   2.388945e+02
  -3.180365e+01   3.647945e+02
  -2.418123e+02   2.220754e+02
  -3.178191e+02  -5.974826e+01
  -2.785091e+02  -2.434720e+02
  -7.468147e+01  -2.890296e+02
   1.329652e+02  -1.686536e+02
   1.635028e+02  -3.610143e+01
   3.019017e+01   1.812159e+01
  -5.662190e+01  -2.618705e+01
  -4.316043e+01  -1.287430e+02
   9.084426e+01  -9.446633e+01
   1.721886e+02   4.483276e+01
   3.577045e+01   9.214217e+01
  -8.899024e+01   2.683792e+01
  -5.956572e+01  -7.428292e+01
   1.466917e+02  -9.755434e+01
   2.760187e+02  -7.547916e+00
   2.471841e+02   1.406915e+02
   4.979389e+01   2.678098e+02
  -1.792318e+02   2.364860e+02
  -2.850123e+02   1.203893e+02
  -1.899264e+02  -4.739326e+01
   7.081504e+00  -1.147744e+02
   1.150681e+02   5.653941e+00
   1.463844e-01   1.084547e+02
  -1.853881e+02   3.024173e+01
  -2.092277e+02  -1.004943e+02
  -7.881461e+01  -2.048617e+02
   6.839999e+01  -1.708947e+02
   1.364241e+02  -4.677177e+01
   2.440286e+01   4.860795e+01
  -6.270141e+01   2.554914e+00
  -3.254389e+01  -8.695372e+01
   1.045138e+02  -1.279260e+02
   2.174993e+02  -5.439030e+01
   1.944541e+02   1.377265e+02
   2.339848e+01   2.088732e+02
  -1.379129e+02   1.980631e+02
  -1.878746e+02   3.150766e+01
  -4.251416e+01  -1.079156e+02
   7.443010e+01  -1.062067e+02
   8.326964e+01  -1.227321e+01
   1.516098e+01   3.093262e+01
  -1.053978e+01   1.672726e+01
   1.483392e+01   7.738045e-01
   7.476345e+01   2.744891e+01
   8.136634e+01   9.583770e+01
   7.538222e+00   1.738145e+02
  -1.112261e+02   1.452397e+02
  -2.297266e+02   1.660861e+01
  -2.063145e+02  -1.467714e+02
  -3.386772e+01  -2.427937e+02
   1.380911e+02  -1.638633e+02
   1.687171e+02  -3.654660e+01
   6.659346e+01   5.429657e+01
   3.833415e+01   4.022938e+01
   7.814117e+01  -6.878104e+00
   5.510404e+01   2.196400e+01
   2.229382e+01   4.640751e+01
  -4.452643e+01   1.084021e+02
  -1.179390e+02   6.527618e+01
  -6.833723e+01  -1.813131e+01
   2.405512e+01  -1.381255e+02
   1.470697e+02  -6.418520e+01
   1.695756e+02   4.433778e+01
   6.740508e+01   2.214524e+02
  -1.052556e+02   2.087005e+02
  -2.528312e+02   9.801300e+01
  -2.600068e+02  -6.709791e+01
  -1.123306e+02  -1.561061e+02
   5.328439e+01  -1.631061e+02
   8.187102e+01  -1.041307e+02
   7.717615e+01  -7.239991e+01
   8.310500e+01  -6.084548e+01
   9.940866e+01  -8.151140e+01
   1.229625e+02   3.162147e+01
   1.396298e+02   1.557276e+02
   4.598275e+01   2.347365e+02
  -8.146769e+01   1.681178e+02
  -1.847564e+02   3.511746e+01
  -1.343908e+02  -1.209907e+02
  -1.024641e+01  -1.679695e+02
   7.149101e+01  -1.091305e+02
   4.167019e+01  -1.835156e+00
   1.419271e+01   3.386063e+01
  -5.424432e+00   2.460676e+01
   4.740590e+01   6.845748e+00
   7.924704e+01   3.860262e+01
   5.417476e+01   4.508664e+01
  -7.468317e+01   4.476950e+01
  -1.571011e+02   1.025272e+01
  -1.455942e+02  -5.310204e+01
  -1.763480e+01  -7.865999e+01
   1.307228e+02  -5.585460e+01
   1.477118e+02  -2.331890e+00
   2.736535e+01   4.915913e+01
  -7.631682e+01   3.282128e+01
  -6.647782e+01  -5.226480e+00
   1.138513e+01  -5.133802e+01
   7.218954e+01  -3.611414e+01
   6.089248e+01   4.094321e-01
   3.986279e+01   4.576575e+01
   3.417759e+01   3.634917e+01
   6.201490e+01   1.543567e+00
   5.454244e+01   2.261018e+01
   3.054466e+01   7.822813e+01
  -2.823015e+01   1.354554e+02
  -1.159177e+02   1.029213e+02
  -1.629852e+02   4.733488e+01
  -1.322257e+02  -1.071157e+02
   3.020058e+01  -1.431901e+02
   9.161826e+01  -7.759400e+01
   6.126716e+01   3.562337e+01
  -6.291452e+01   3.955659e+01
  -1.471499e+02  -4.651233e+01
  -7.946821e+01  -1.183958e+02
   6.215352e+01  -1.039993e+02
   2.089391e+02  -4.247655e+01
   1.565412e+02   2.323489e+01
   3.895329e+01   8.759867e+01
  -7.506850e+01   3.463909e+01
  -7.637081e+01  -1.187579e+01
   6.470387e+01  -3.914967e+01
   7.415222e+01   3.677245e+01
   4.789804e+01   1.374742e+02
  -7.655728e+01   1.643965e+02
  -1.491327e+02   7.450814e+01
  -1.168157e+02  -1.285781e+02
  -7.728158e+00  -2.075563e+02
   8.897541e+01  -1.235451e+02
   1.016241e+02  -4.711604e+00
   8.726874e+01   1.331191e+02
  -1.463676e+01   1.022724e+02
  -2.090920e+01   1.326086e+01
  -5.583596e+01  -3.103651e+01
  -2.410152e+01  -8.490222e+00
  -2.358319e+01   2.092315e+01
  -4.671858e+01  -1.185110e+01
  -4.576392e+01  -8.580893e+01
  -5.250867e+01  -1.115777e+02
   5.476937e+01  -4.030604e+01
   1.434207e+02   5.147770e+01
   1.316173e+02   6.729324e+01
   5.410243e+00   2.708487e+01
  -5.868304e+01   1.282935e+01
  -6.898164e+01   9.410581e+00
   8.559820e+00  -4.039309e+00
   4.707828e+01  -2.935935e+01
  -5.796354e+00  -3.505510e+01
   3.445667e-01   6.445526e-01
   9.026928e+00  -2.251612e+01
   7.723528e+01  -3.635490e+00
   9.443200e+01   2.678123e+01
   1.138354e-01   9.008835e+01
  -1.219830e+02   1.225937e+02
  -1.860082e+02   4.375811e+01
  -1.533058e+02  -6.574916e+01
  -1.893452e+01  -1.888325e+02
   8.614871e+01  -1.673654e+02
   1.163441e+02  -6.172184e+01
   8.631413e+01   2.180258e+01
   1.372371e+01   5.393715e+01
   2.299124e+00  -1.494258e+01
   7.295672e+00  -1.228410e+01
   4.412300e+01   6.666192e+01
   2.715044e+01   1.153298e+02
  -3.924102e+01   5.588851e+01
  -9.536535e+01  -2.554528e+01
  -7.883647e+01  -8.583412e+01
  -2.787881e+00  -1.099483e+02
   7.943960e+01  -3.003772e+01
   9.748545e+01   6.423698e+01
   4.161966e+01   1.019518e+02
  -7.637963e+01   3.295744e+01
  -1.152163e+02   1.028046e+01
  -3.249495e+01  -4.862139e+01
   4.208354e+01  -5.582655e+01
   3.351976e+01  -6.348381e+00
  -3.597944e+01   4.172357e+01
  -6.271964e+01   1.456725e+01
   5.303613e-01  -2.044861e+01
   8.073854e+01  -3.561842e+01
   7.482550e+01  -4.884991e+01
   5.374441e+01   3.436511e+01
  -3.136618e+01   6.628423e+01
  -7.991828e+01   1.120893e+02
  -5.666981e+01  -1.588697e+00
  -2.556455e+01  -2.941650e+01
   2.546461e+01  -3.992894e+01
   1.838493e+01  -1.132285e+01
   4.720869e+01   4.092502e+01
  -4.092294e+01   2.777668e+01
  -4.523606e+01   1.679360e+01
  -4.368964e+01  -3.970590e+01
  -3.478525e+01  -1.592194e+01
   1.996633e+01   3.910905e+01
  -2.846440e+00  -7.155995e-01
  -7.684194e+00  -6.978913e+01
   2.585804e+01  -4.703462e+01
   3.627776e+01  -2.975624e+01
   1.125136e+01   1.764482e+01
  -1.841438e+00   3.592121e+01
  -2.189596e+01   6.240921e+01
  -4.918752e+01  -3.753260e+01
  -2.219203e+00  -6.415750e+01
   5.167525e+01  -2.968504e+01
   8.666061e+01   3.118455e+00
   7.936046e+01   2.679449e+01
   1.597347e-01   5.908490e+01
  -7.753572e+01   1.601235e+01
  -2.033931e+01   1.255645e+01
   3.805410e+01  -1.345015e+01
   2.074870e+01   1.571770e+01
  -1.590318e+01   2.964869e+01
  -9.809427e+01   1.977742e+01
