
 $NMID
 id='ANONYMOUS ', fmtdat='(2E16.6)'
 volume=1.0
 tramp=1.0
 $END
   4.405378e+03  -5.449507e+01
   2.461822e+03   2.882998e+03
  -9.640979e+02   2.864329e+03
  -2.200119e+03   7.952653e+02
  -9.642798e+02  -7.309438e+02
   7.145193e+02  -4.075171e+02
   8.871818e+02   5.957477e+02
  -1.359527e+02   1.100152e+03
  -9.169071e+02   7.543311e+02
  -9.802306e+02  -1.913724e+02
  -4.028549e+02  -9.456287e+02
   3.950402e+02  -8.614364e+02
   7.101837e+02  -7.305942e+01
   3.058690e+02   8.169780e+02
  -3.973309e+02   7.170205e+02
  -5.890819e+02  -7.713845e+01
  -2.453866e+02  -7.402027e+02
   3.230876e+02  -6.032587e+02
   5.530881e+02  -5.453740e+01
   3.947142e+02   3.783305e+02
  -4.240571e+01   4.329750e+02
  -2.918628e+02   2.220227e+02
  -1.991874e+02  -4.915112e+01
   1.480132e+02  -1.216395e+02
   4.432785e+02   1.720191e+02
   2.055961e+02   5.147783e+02
  -5.166256e+02   4.096922e+02
  -8.578844e+02  -1.375983e+02
  -3.968453e+02  -6.252915e+02
   4.821694e+02  -4.901649e+02
   7.876645e+02   1.548170e+02
   3.095868e+02   5.159135e+02
  -3.893154e+02   5.424901e+02
  -6.315041e+02   1.877602e+02
  -4.448954e+02  -3.141601e+02
  -2.644980e+01  -4.689740e+02
   2.521154e+02  -2.136558e+02
   1.735445e+02   2.998765e+02
  -2.423950e+02   4.623159e+02
  -4.955786e+02  -3.598324e+01
  -1.636109e+02  -7.586350e+02
   4.175941e+02  -6.814470e+02
   6.354755e+02   8.568132e+01
   1.897214e+02   5.902121e+02
  -3.706712e+02   3.026419e+02
  -3.831262e+02  -3.642804e+02
   9.211331e+01  -6.025268e+02
   5.925979e+02  -1.010706e+02
   5.761771e+02   4.533884e+02
   1.171281e+02   6.345688e+02
  -4.499878e+02   3.393715e+02
  -6.640161e+02  -1.508524e+02
  -3.820591e+02  -4.582857e+02
   2.137017e+02  -3.333328e+02
   4.495673e+02  -2.129818e+01
   1.955100e+02   2.198652e+02
  -1.500715e+02   8.104940e+01
  -1.398889e+02  -1.727123e+02
   1.720421e+02  -1.919708e+02
   3.430768e+02   1.000022e+02
   1.062060e+02   2.818014e+02
  -2.258045e+02   2.527186e+02
  -2.956684e+02   9.828844e+01
  -2.369816e+02  -1.232645e+02
   4.436312e+01  -2.610120e+02
   2.509201e+02  -3.411068e+02
   3.612801e+02  -2.186511e+02
   2.935618e+02   2.020058e+02
   8.130673e+01   4.959738e+02
  -1.535024e+02   3.642181e+02
  -9.396478e+01   9.312038e+01
   3.960378e+01  -2.558801e+01
  -4.245359e+01   1.049590e+02
  -2.076501e+02   1.667284e+02
  -2.970314e+02  -5.768637e+01
  -1.811449e+02  -2.525358e+02
   9.684163e+01  -2.724186e+02
   2.317837e+02   1.004415e+01
   1.869460e+02   2.747482e+02
  -4.167282e+01   2.928082e+02
  -3.136564e+02   1.394253e+02
  -3.702693e+02  -2.124359e+02
  -1.667829e+02  -4.078009e+02
   1.213585e+02  -3.181190e+02
   2.379753e+02  -9.003022e+01
   1.210151e+02  -1.023932e+01
   8.896621e+01  -4.096172e+01
   2.423081e+02  -7.063056e+01
   3.932304e+02   5.088462e+01
   3.574606e+02   2.730724e+02
   9.589944e+00   4.653000e+02
  -3.887436e+02   3.946251e+02
  -4.765940e+02   2.055203e+02
  -3.724123e+02  -1.040319e+02
  -6.810192e+01  -2.974138e+02
   1.669109e+02  -2.537565e+02
   1.128167e+02  -2.222474e+01
  -1.220384e+02   1.265312e+02
  -1.980115e+02   1.841551e+00
  -2.191470e+01  -2.050013e+02
   1.806865e+02  -1.344600e+02
   1.759113e+02   5.780582e+01
  -3.184730e+01   2.160409e+02
  -2.031416e+02   1.396891e+01
  -1.505598e+02  -2.622097e+02
   5.015022e+01  -3.452920e+02
   2.534485e+02  -1.891898e+02
   3.219095e+02   2.936577e+01
   2.514948e+02   2.727589e+02
   1.045938e+02   2.824892e+02
  -1.165256e+02   2.003737e+02
  -1.807409e+02   1.564546e+01
  -4.337033e+01  -5.298068e+01
   9.249450e+01   4.293200e+01
   1.012254e+01   1.190677e+02
  -1.308339e+02   8.535396e+01
  -1.658839e+02  -3.507467e+00
  -6.013025e+01  -7.618613e+01
   1.089092e+02  -2.451717e+01
   5.902831e+01   8.568065e+01
  -1.181866e+02   9.644183e+01
  -2.784686e+02  -1.973291e+01
  -2.879922e+02  -1.456433e+02
  -5.494767e+01  -2.805983e+02
   2.012656e+02  -2.776553e+02
   2.907192e+02  -1.243633e+02
   1.673141e+02   7.841824e+01
  -6.528100e+01   7.525963e+01
  -1.051329e+02   1.214044e+01
   3.515619e+01  -1.132983e+02
   2.003725e+02  -6.300668e+01
   2.177033e+02   1.281310e+02
   7.985892e+01   2.278875e+02
  -8.957055e+01   1.445693e+02
  -1.513115e+02  -1.303544e+01
  -7.328340e+01  -5.631918e+01
   3.036030e+01   1.241036e+01
   4.390200e+01   1.059755e+02
  -8.187936e+01   1.329914e+02
  -2.077455e+02   2.589063e+01
  -2.088102e+02  -1.260453e+02
  -2.077207e+01  -2.032795e+02
   1.473868e+02  -1.626636e+02
   1.643424e+02  -4.265625e+00
   2.042705e+01   1.060748e+02
  -9.255978e+01   1.182872e+02
  -6.824552e+01   7.427043e+00
  -2.407124e+01  -2.116664e+01
   3.613918e+01  -2.000421e+01
  -2.546530e+01   1.033243e+01
  -7.789522e+01  -1.522224e+01
  -1.064046e+02  -5.742983e+01
  -1.855515e+01  -1.703195e+02
   1.252800e+02  -1.562101e+02
   2.440874e+02  -2.003789e+01
   1.922955e+02   1.464481e+02
   3.046293e+01   2.322222e+02
  -9.226892e+01   1.482045e+02
  -1.190994e+02   2.939012e+01
  -6.852766e+01  -5.172300e+01
  -3.829638e+01  -3.935280e+01
  -2.131216e+01   3.002875e+01
  -8.026556e+01   1.554094e+01
  -3.819374e+01  -5.921803e+01
   3.866112e+01  -6.643136e+01
   9.722647e+01  -3.477798e+01
   7.813357e+01   4.588301e+01
  -3.360791e+01   1.148925e+02
  -1.610014e+02   7.688083e+01
  -2.198568e+02  -3.125889e+01
  -9.439786e+01  -2.184686e+02
   8.765047e+01  -2.284781e+02
   2.806452e+02  -9.589369e+01
   2.467400e+02   1.011487e+02
   1.207476e+02   2.098094e+02
  -5.926558e+01   1.482812e+02
  -7.171061e+01   1.122005e+02
  -6.169888e+01   6.188449e+01
  -5.767968e+01   1.190801e+02
  -8.556927e+01   6.240829e+01
  -1.474355e+02  -3.464527e+01
  -1.238768e+02  -1.312650e+02
  -2.760147e+01  -2.173044e+02
   9.492599e+01  -1.396647e+02
   1.746200e+02  -7.266435e+00
   1.233189e+02   1.343453e+02
  -4.018760e+00   1.691760e+02
  -8.027976e+01   6.957987e+01
  -3.837332e+01  -1.697590e+01
  -1.749696e+01  -2.552553e+01
  -1.123714e+01  -3.256129e+01
  -3.848679e+01  -1.756875e+01
  -7.743845e+01  -2.396221e+01
  -5.367451e+01  -4.054657e+01
   2.412695e+01  -3.685118e+01
   1.211644e+02  -1.914099e+01
   1.418646e+02   3.562714e+01
   8.347278e+00   1.120351e+02
  -1.213080e+02   5.667009e+01
  -1.335046e+02   1.875386e+01
  -5.019317e+01  -5.964198e+01
   7.519742e+01  -4.491847e+01
   6.837225e+01   2.625578e+01
  -1.176035e+01   1.005009e+02
  -6.594056e+01   5.777591e+01
  -6.055836e+01  -7.917509e+00
  -1.521617e+01  -5.610922e+01
  -3.311102e+01  -2.743551e+01
  -5.311667e+01  -6.029165e+00
  -6.832094e+01   4.980998e+00
  -5.352482e+01  -7.631870e+01
   6.436843e+00  -1.401021e+02
   9.563174e+01  -1.287765e+02
   1.778487e+02  -2.510590e+01
   1.214646e+02   8.468822e+01
   1.713857e+01   1.214879e+02
  -7.467854e+01   7.178622e+01
  -3.525366e+01  -2.174618e+01
   7.032059e+01  -1.571182e+01
   1.334271e+02   4.037355e+01
   9.936007e+01   1.076456e+02
  -6.546248e+01   1.203696e+02
  -2.035184e+02   4.837682e+01
  -1.569584e+02  -3.592610e+01
  -1.667402e+01  -1.021348e+02
   6.520805e+01  -5.559709e+01
   1.109275e+01  -1.728123e+01
  -1.945357e+01   1.676703e+01
  -5.517676e+01  -2.751508e+01
  -2.309764e+01  -9.695403e+01
   8.050127e+01  -1.407370e+02
   1.419089e+02  -3.491417e+01
   1.371715e+02   9.336286e+01
   2.385833e+00   2.104777e+02
  -7.912634e+01   1.728727e+02
  -1.047541e+02  -3.086874e+01
  -7.614230e+01  -8.091117e+01
  -6.118725e+00  -1.046527e+02
   3.659224e+01  -2.717059e+01
   5.593955e+01   2.304366e+01
   1.221747e+01   3.188248e+00
  -6.151274e+00  -9.349679e+00
   2.314119e+01   3.083837e+01
   6.571405e+01   1.048120e+02
   4.896486e+01   1.178141e+02
  -5.159255e+01   3.194867e+01
  -1.447029e+02  -2.587723e+01
  -1.349657e+02  -6.534174e+01
  -8.764752e+00  -3.992007e+01
   1.183728e+02  -1.017263e+01
   7.302078e+01   1.903803e+01
  -1.128419e+01  -3.229493e+00
  -3.253697e+01   2.455181e+01
  -2.366037e+01   8.679515e+00
  -6.136693e+00  -6.270396e+00
  -6.136009e-01   1.997515e+01
  -8.362688e+01  -3.179227e+01
  -1.023544e+02  -3.272111e+01
  -4.143721e+00  -6.969263e+01
   1.231229e+02  -1.137329e+02
   2.082451e+02  -6.484415e+01
   1.225354e+02   6.832822e+01
   2.596699e+01   1.538752e+02
  -9.845491e+01   1.641290e+02
  -7.117388e+01   5.718896e+01
  -7.059228e+01  -4.929146e+01
  -2.658075e+01  -3.129368e+01
  -1.637055e+01   7.201564e+00
  -4.532780e+00  -1.812858e+01
  -1.901729e+01  -4.582405e+01
  -1.590477e+01  -9.328902e+01
   1.890309e+01  -8.293831e+01
   6.402952e+01   3.365814e+01
   7.418914e+01   1.201148e+02
   5.020126e+00   8.373574e+01
  -5.891896e+01   3.639111e+01
  -1.090810e+02  -9.441553e+01
  -2.726898e+01  -1.051445e+02
   6.919527e+01  -1.819559e+01
   1.056488e+02   2.305514e+01
   2.060394e+01   5.632891e+01
  -5.348142e+01   5.735456e+01
  -2.217182e+01   1.912129e+01
   3.930954e+01   8.478624e+00
   3.412766e+01   1.454483e+01
   9.470501e+00   4.613172e+01
  -4.619221e+01   5.327112e+01
  -1.313949e+02   8.804584e+01
  -6.110008e+01  -2.386002e+01
   1.784366e+01  -7.906200e+01
   4.192470e+01  -7.309914e+01
   5.797169e+01   9.447512e+00
   1.297595e+01   5.413597e+01
  -5.002874e+01   7.274370e+01
  -6.776533e+01  -1.355185e+01
  -1.345507e+01  -5.658283e+01
   1.662405e+01  -1.390607e+01
   3.027814e+01   2.130600e+01
   2.526273e+01   3.892405e+01
   1.425185e+01   1.203224e+01
   2.122200e+00  -2.581370e+01
  -3.110951e+01  -1.224610e+01
  -1.319875e+01   1.410295e+01
  -2.010782e+01   6.893838e+01
  -1.431664e+01   8.400681e-01
  -3.758517e+01  -5.260100e+01
   1.050504e+01  -5.391242e+01
   6.883386e+01  -2.313116e+01
   5.498058e+01   5.808624e+01
   2.803329e+00   6.130337e+01
  -5.267040e+01   3.843690e+01
  -6.184813e+01  -1.582256e+01
  -4.799944e+01  -2.135218e+01
   2.081480e+01  -3.775035e+01
   7.522385e+01   7.150439e+00
   2.653699e+01  -3.276009e+01
  -3.856636e+01   8.092677e-01
  -3.708167e+01  -1.603182e+01
  -3.149968e+00  -3.321945e+01
   9.620711e+01  -1.663790e+01
