
 $NMID
 id='ANONYMOUS ', fmtdat='(2E16.6)'
 volume=1.0
 tramp=1.0
 $END
  -3.930636e+03   1.747978e+02
  -2.478202e+03  -2.029132e+03
   2.040331e+02  -2.397016e+03
   1.664250e+03  -1.131540e+03
   1.068636e+03   9.027774e+01
  -2.515569e+02   4.147264e+02
  -5.991950e+02  -2.414532e+02
  -4.075490e+01  -7.801338e+02
   5.991468e+02  -7.062785e+02
   7.260197e+02  -8.298306e+01
   5.128640e+02   5.815980e+02
  -4.745779e+01   7.428924e+02
  -4.664584e+02   2.077255e+02
  -3.865155e+02  -5.142580e+02
   1.360212e+02  -6.135763e+02
   4.736647e+02  -7.793245e+01
   3.064778e+02   5.020072e+02
  -1.763429e+02   6.133398e+02
  -4.951145e+02   1.875136e+02
  -4.417001e+02  -2.344074e+02
  -1.377401e+02  -3.505835e+02
   1.513904e+02  -2.687928e+02
   1.440640e+02  -6.662117e+01
  -6.642654e+01  -4.234302e+01
  -3.022573e+02  -1.616030e+02
  -9.634030e+01  -3.670689e+02
   4.071226e+02  -2.243186e+02
   6.604580e+02   5.547148e+01
   3.741705e+02   3.918290e+02
  -2.968459e+02   3.008121e+02
  -5.568829e+02  -1.199420e+01
  -2.569879e+02  -3.507616e+02
   1.993716e+02  -4.198856e+02
   4.531120e+02  -2.005102e+02
   3.507835e+02   1.538898e+02
   9.378076e+01   3.468601e+02
  -3.489407e+01   2.687583e+02
  -6.223511e+01  -1.064966e+02
   9.427186e+01  -2.376806e+02
   3.137021e+02   3.715154e+01
   1.796236e+02   5.343056e+02
  -2.477582e+02   5.596500e+02
  -4.729897e+02   2.298548e+00
  -2.553472e+02  -3.860870e+02
   1.620356e+02  -2.739673e+02
   2.831656e+02   2.707324e+02
  -7.476419e+01   4.316024e+02
  -4.712070e+02   1.577487e+02
  -4.715836e+02  -3.750766e+02
  -1.777221e+02  -5.273629e+02
   2.942334e+02  -3.130752e+02
   4.853502e+02   3.957792e+01
   3.491670e+02   2.512900e+02
  -9.257138e+01   2.992278e+02
  -3.514674e+02   9.361778e+01
  -2.388450e+02  -8.006922e+01
   4.902896e+01  -4.888027e+01
   1.028641e+02   6.211998e+01
  -1.279579e+02   9.533829e+01
  -2.896782e+02  -4.310850e+01
  -9.729750e+01  -2.303346e+02
   1.622473e+02  -2.452007e+02
   2.908648e+02  -7.418839e+01
   2.124867e+02   1.225993e+02
  -4.014837e+01   2.627954e+02
  -2.336666e+02   3.183228e+02
  -3.108329e+02   1.757440e+02
  -2.617480e+02  -1.364836e+02
  -7.179330e+01  -4.095522e+02
   1.845270e+01  -3.782368e+02
   8.480098e+01  -1.571240e+02
   6.595404e+01  -4.384396e+01
   9.810226e+01  -7.337556e+01
   1.743674e+02  -1.072720e+02
   2.434602e+02   4.017355e+01
   1.017447e+02   2.643011e+02
  -3.200965e+01   2.144377e+02
  -1.951865e+02  -1.218548e+01
  -1.680100e+02  -2.297217e+02
   3.451367e+01  -2.624888e+02
   2.315205e+02  -9.337822e+01
   3.167758e+02   1.598126e+02
   1.881810e+02   2.926426e+02
  -8.402144e+01   2.549787e+02
  -2.195221e+02   1.591029e+02
  -1.702827e+02   3.280481e+01
  -1.339661e+02   5.602587e+01
  -2.489477e+02   7.380409e+01
  -3.739046e+02  -4.199964e+01
  -3.461317e+02  -2.909911e+02
  -4.233886e+00  -4.288122e+02
   3.598122e+02  -4.029739e+02
   4.586868e+02  -1.778846e+02
   2.548269e+02   1.047170e+02
   2.033015e+01   2.636986e+02
  -8.426580e+01   2.348583e+02
  -4.097792e+01   6.517212e+01
   1.023634e+02  -7.371552e+01
   1.537382e+02   1.025121e+01
   4.962861e+01   1.806437e+02
  -1.223095e+02   1.116292e+02
  -1.418922e+02  -5.702396e+01
   2.130983e+01  -1.467022e+02
   1.819138e+02  -4.378053e+01
   1.590505e+02   2.301865e+02
  -1.844082e+01   3.410466e+02
  -2.480598e+02   1.698323e+02
  -3.638464e+02  -5.502828e+01
  -2.770316e+02  -2.285809e+02
  -9.347603e+01  -2.211617e+02
   8.556056e+01  -1.280475e+02
   1.441692e+02  -6.213223e+01
   3.795595e+01   1.530116e+00
  -2.855062e+01  -6.826369e+01
   4.078201e-01  -9.279867e+01
   1.382364e+02  -6.920294e+01
   1.529142e+02   1.312936e+01
   2.067643e+01   3.742905e+01
  -8.750189e+01   1.339075e+01
  -3.340019e+01  -7.356927e+01
   1.391481e+02  -8.772518e+01
   2.839019e+02   7.362995e+00
   2.470649e+02   1.475144e+02
   5.485203e+01   2.294839e+02
  -1.824719e+02   2.334190e+02
  -2.538624e+02   1.262893e+02
  -1.297197e+02  -2.797528e+01
   1.099068e+01  -8.164087e+01
   6.510560e+01  -1.802813e+00
  -3.169985e+01   1.026837e+02
  -1.972756e+02   6.533580e+01
  -1.757547e+02  -7.161333e+01
  -6.205903e+01  -1.765091e+02
   5.559898e+01  -1.391256e+02
   9.792887e+01   6.367328e-01
   9.178900e+01   1.428598e+01
  -3.510898e+00  -8.044175e+00
  -2.915066e+01  -8.482975e+01
   7.847649e+01  -1.112282e+02
   1.714147e+02  -2.137466e+00
   1.878108e+02   1.232549e+02
   1.922553e+01   1.760264e+02
  -1.337906e+02   1.351163e+02
  -1.444134e+02  -1.064085e+01
  -7.077646e+01  -8.640123e+01
   6.812933e+01  -1.136885e+02
   8.099914e+01  -3.463887e+01
   1.093157e+01   2.481108e+01
  -5.605243e+01   1.946305e+01
   8.280256e-01  -3.092655e+01
   8.572333e+01  -1.113863e+01
   7.859125e+01   9.543838e+01
   2.701213e+01   1.632450e+02
  -1.580929e+02   1.596053e+02
  -2.317012e+02   1.646152e+01
  -2.140520e+02  -1.421961e+02
  -5.428328e+01  -2.427550e+02
   9.769685e+01  -1.834908e+02
   1.437067e+02  -2.189513e+01
   7.699315e+01   3.943817e+01
   2.596603e+01   5.309756e+01
   4.777448e+01  -1.876122e+01
   1.006723e+02  -2.757809e+01
   4.816436e+01   5.055235e+01
  -4.535903e+01   8.249165e+01
  -1.076148e+02   7.208096e+01
  -8.617962e+01  -4.948845e+01
   2.093373e+01  -9.748578e+01
   1.387742e+02  -9.629541e+01
   1.968883e+02   6.112498e+01
   9.832821e+01   2.050831e+02
  -1.004992e+02   2.477907e+02
  -2.714877e+02   7.735433e+01
  -2.631139e+02  -8.602205e+01
  -9.481725e+01  -1.718939e+02
   5.757108e+01  -1.458360e+02
   6.139896e+01  -7.640908e+01
   6.819215e+01  -5.455367e+01
   4.474888e+01  -9.293730e+01
   1.044332e+02  -7.949537e+01
   1.318115e+02   1.321926e+01
   1.295646e+02   1.510399e+02
   5.882783e+01   2.199244e+02
  -9.579487e+01   1.725615e+02
  -2.032623e+02  -4.831705e+00
  -1.427370e+02  -1.194872e+02
   1.378387e+01  -1.686634e+02
   8.778418e+01  -6.788766e+01
   5.600847e+01   8.034008e+00
  -9.801428e+00   5.604223e+01
  -3.370383e+01   8.151951e+00
   2.832648e+01   1.443601e+01
   8.460643e+01   1.628966e+01
   4.463131e+01   5.666966e+01
  -6.716820e+01   5.708658e+01
  -1.270170e+02   4.270752e+00
  -1.500357e+02  -4.954930e+01
  -1.060723e+01  -1.047648e+02
   1.208747e+02  -6.300495e+01
   1.285682e+02  -2.249558e+01
   3.418769e+01   3.546199e+01
  -3.950447e+01   3.256778e+01
  -7.659410e+01  -2.136739e+01
  -1.120480e+00  -5.947552e+01
   6.026442e+01  -5.174241e+01
   7.012699e+01  -8.974025e+00
   4.764728e+01   3.615310e+01
   6.041426e+01   4.113518e+01
   5.378572e+01   1.739783e+00
   6.283031e+01   5.744454e+00
   1.657056e+01   5.425043e+01
   1.774923e+01   1.339016e+02
  -1.209388e+02   1.468027e+02
  -1.512699e+02   4.346635e+01
  -1.175723e+02  -9.066315e+01
   4.064077e+00  -1.157116e+02
   8.293073e+01  -3.184213e+01
   9.305200e+01   1.498892e+01
  -5.733671e+01   7.007792e+00
  -1.166049e+02  -3.155662e+01
  -7.279927e+01  -8.246261e+01
   7.310738e+01  -8.726004e+01
   1.694559e+02  -4.789011e+01
   1.382573e+02   1.085241e+01
   4.499533e+01   6.842188e+01
  -4.110724e+01   8.235245e+01
  -1.750562e+01  -3.819075e+00
   3.807549e+01   7.400650e+00
   7.949845e+01   2.150040e+00
   2.543509e+01   9.893791e+01
  -7.254934e+01   1.505387e+02
  -1.729128e+02   6.750898e+01
  -1.442962e+02  -1.133003e+02
  -2.577383e+00  -1.653832e+02
   8.638550e+01  -1.598268e+02
   1.031046e+02  -1.052339e+00
   4.917941e+01   1.268943e+02
   4.141509e+00   9.383189e+01
  -3.277046e+01   2.514173e+01
  -4.961706e+01  -1.751719e+01
  -2.012846e+01  -2.309945e+00
  -6.024186e+00  -1.370226e+00
  -5.565496e+01  -2.084581e+01
  -7.883697e+01  -8.188697e+01
  -2.696307e+01  -9.636085e+01
   4.719157e+01  -3.215281e+01
   1.135632e+02   5.293572e+01
   1.012410e+02   7.180190e+01
   3.377149e+01   6.864975e+01
  -7.741430e+01   5.200418e+01
  -8.804115e+01   2.409384e+01
  -1.492737e+01  -1.072345e+01
   3.090341e+01  -6.145180e+00
   1.423863e+01  -1.083199e+01
   1.329584e+01   1.343245e+01
  -3.127743e+00  -1.540964e+01
   7.593650e+01   3.184438e+00
   7.758768e+01   1.993438e+01
   3.527863e+01   1.045568e+02
  -8.762699e+01   1.215611e+02
  -1.714698e+02   6.264935e+01
  -1.389365e+02  -5.707618e+01
  -4.876457e+01  -1.331800e+02
   7.983389e+01  -1.473186e+02
   1.115765e+02  -5.759757e+01
   9.237311e+01   2.973100e+01
   1.688670e+01   6.101650e+01
   2.172262e+00   1.353086e+00
   1.347461e+01   6.866513e+00
   2.203211e+01   4.869922e+01
   2.987564e+01   8.692450e+01
  -4.645647e+01   7.135056e+01
  -8.806396e+01  -2.524243e+01
  -6.845360e+01  -1.025634e+02
  -1.232180e+01  -9.659323e+01
   7.154680e+01  -2.905642e+01
   1.094290e+02   6.726147e+01
   4.352021e+01   9.283788e+01
  -5.110569e+01   5.739480e+01
  -7.330523e+01   1.437111e+01
  -2.908240e+01  -6.105082e+01
   4.697451e+01  -5.318022e+01
   3.647693e+01  -2.906522e+01
  -2.239375e+00  -2.373524e+01
  -3.792150e+01   5.622256e+00
  -2.685581e+01  -4.274031e+01
   9.019526e+01  -7.652978e+01
   9.785377e+01  -5.829229e+01
   6.506884e+01   1.860798e+01
  -2.789691e+01   7.569963e+01
  -5.953202e+01   6.190117e+01
  -6.770971e+01   4.809826e+01
  -4.377347e+00  -6.504305e+01
   2.320668e+01  -3.703814e+01
   6.449831e+01  -2.514067e+01
   5.381697e+01   3.983093e+01
  -2.167341e+01   3.799759e+01
  -3.608953e+01  -2.135460e+01
  -3.931148e+01  -3.084161e+01
  -3.401041e+01  -2.608220e+01
   1.704575e+01   2.066995e+01
  -2.217328e+00   3.483565e+01
  -1.010430e+01  -4.998158e+01
   4.698139e+00  -5.970084e+01
   3.198313e+01  -5.003949e+01
   5.234159e+01   2.458715e+01
  -4.746835e+00   6.597672e+01
  -6.052380e+01   1.041027e+01
  -5.254447e+01  -2.339779e+01
  -2.924132e+01  -6.899011e+01
   6.633273e+01  -3.302736e+01
   9.675429e+01  -5.275680e+00
   4.350778e+01   3.002064e+01
  -2.738391e+01   3.153121e+01
  -5.501287e+01   1.910239e+01
  -2.249179e+01  -1.081655e+01
   1.343906e+01  -1.820266e+01
   4.125775e+01   3.547095e+01
  -5.689707e+01   1.874437e+01
  -8.479655e+01   4.667722e+00
