
 $NMID
 id='ANONYMOUS ', fmtdat='(2E16.6)'
 volume=1.0
 tramp=1.0
 $END
  -4.312349e+03   1.757312e+02
  -2.602334e+03  -2.256997e+03
   5.162590e+02  -2.599239e+03
   1.946035e+03  -9.799177e+02
   9.233246e+02   3.989129e+02
  -4.982727e+02   6.124495e+02
  -7.971219e+02  -4.045338e+02
  -3.425243e+01  -1.035449e+03
   7.703148e+02  -8.107214e+02
   9.577050e+02   5.222965e+01
   4.691698e+02   7.866405e+02
  -2.294060e+02   8.886606e+02
  -6.115766e+02   9.071562e+01
  -3.916972e+02  -7.389737e+02
   2.686659e+02  -7.768023e+02
   6.631638e+02  -2.464714e+01
   3.315781e+02   7.190785e+02
  -2.941652e+02   7.099562e+02
  -6.136218e+02   1.360451e+02
  -4.470098e+02  -3.546943e+02
  -4.828852e+00  -4.543577e+02
   2.371160e+02  -2.321033e+02
   1.651280e+02   2.991424e-02
  -1.546285e+02   9.244131e+01
  -4.110117e+02  -1.756392e+02
  -1.679063e+02  -4.425988e+02
   4.926210e+02  -4.332330e+02
   8.329100e+02   2.067221e+01
   4.111690e+02   5.377356e+02
  -3.936919e+02   4.610464e+02
  -7.195821e+02  -6.409311e+01
  -3.431722e+02  -5.126036e+02
   2.693464e+02  -5.272722e+02
   5.560392e+02  -1.278979e+02
   4.331921e+02   2.322120e+02
   4.496280e+01   4.580244e+02
  -1.530666e+02   2.614845e+02
  -1.256934e+02  -1.831969e+02
   1.935863e+02  -3.935584e+02
   4.289036e+02   1.463162e+01
   2.439068e+02   5.817732e+02
  -2.985995e+02   7.436870e+02
  -5.604860e+02   5.188854e+01
  -2.625022e+02  -4.807093e+02
   3.118232e+02  -3.044636e+02
   3.470506e+02   3.002719e+02
  -7.286162e+01   5.422641e+02
  -5.434859e+02   1.601281e+02
  -5.981278e+02  -3.693865e+02
  -2.194997e+02  -5.476991e+02
   3.657305e+02  -3.376077e+02
   6.321362e+02   7.565237e+01
   4.041183e+02   3.841459e+02
  -1.544140e+02   3.327192e+02
  -4.168804e+02   7.732336e+01
  -2.708950e+02  -1.304951e+02
   6.890078e+01  -8.068869e+01
   1.128873e+02   1.294312e+02
  -1.266967e+02   1.686170e+02
  -3.322250e+02  -3.230732e+01
  -1.672213e+02  -2.446411e+02
   1.778971e+02  -2.749044e+02
   3.591120e+02  -1.202249e+02
   2.206634e+02   1.257190e+02
  -1.702341e+01   2.827144e+02
  -2.665353e+02   3.560949e+02
  -3.418354e+02   1.896399e+02
  -2.994695e+02  -1.419531e+02
  -9.232201e+01  -4.242917e+02
   6.344308e+01  -3.661238e+02
   6.201250e+01  -1.098423e+02
  -8.033161e-02   1.047189e+01
   5.882026e+01  -7.967996e+01
   2.013425e+02  -1.343478e+02
   2.579370e+02   4.383624e+01
   1.329755e+02   2.210685e+02
  -4.626677e+01   2.405324e+02
  -2.095308e+02  -2.853874e-01
  -1.612885e+02  -2.186471e+02
   8.108065e+00  -2.709111e+02
   2.561515e+02  -1.187696e+02
   3.841423e+02   1.632057e+02
   2.151000e+02   3.173491e+02
  -6.143970e+01   3.133170e+02
  -2.266077e+02   1.686702e+02
  -1.741163e+02   3.580768e+01
  -1.005770e+02   4.142928e+01
  -2.336558e+02   5.677964e+01
  -4.297618e+02  -3.712273e+01
  -3.427790e+02  -2.761676e+02
  -2.497288e+01  -4.727218e+02
   3.195590e+02  -4.395622e+02
   4.867685e+02  -2.170676e+02
   3.315541e+02   7.151810e+01
   4.834927e+01   2.419966e+02
  -1.128884e+02   2.355083e+02
  -8.259209e+01   1.688313e+01
   1.242313e+02  -1.089301e+02
   1.792183e+02  -3.034008e+01
   2.526704e+01   1.747801e+02
  -1.604249e+02   1.586796e+02
  -1.781661e+02  -5.030233e+01
  -3.286647e+00  -1.929389e+02
   1.895844e+02  -2.086077e+01
   1.799165e+02   2.198064e+02
  -5.556274e+00   3.703439e+02
  -2.395677e+02   2.154529e+02
  -3.334442e+02  -5.799346e+01
  -2.837736e+02  -2.756543e+02
  -5.055099e+01  -2.704052e+02
   1.339486e+02  -1.391722e+02
   1.557268e+02  -1.935997e+01
   7.599134e+01   3.604094e+01
  -9.349533e+01  -4.646895e+01
   1.091659e+01  -1.247249e+02
   1.171526e+02  -8.837001e+01
   1.657309e+02   2.194958e+01
   6.236582e+01   7.617120e+01
  -7.267665e+01   4.911321e+00
  -4.576327e+01  -6.218633e+01
   1.273748e+02  -6.819327e+01
   2.938718e+02  -4.817709e+00
   2.736128e+02   1.165601e+02
   3.955372e+01   2.260680e+02
  -1.817250e+02   2.497517e+02
  -2.620279e+02   1.225999e+02
  -1.710452e+02  -4.201648e+01
   3.390403e+01  -1.021433e+02
   1.323265e+02  -1.120609e+01
  -3.484702e+01   1.003528e+02
  -2.215354e+02   6.531181e+01
  -2.170463e+02  -8.538375e+01
  -6.854581e+01  -1.870076e+02
   7.310558e+01  -1.318711e+02
   1.442359e+02  -8.654781e+00
   4.687002e+01   3.464267e+01
  -1.374293e+01   3.773505e+00
  -3.402737e+01  -9.999203e+01
   8.079242e+01  -1.253620e+02
   2.012275e+02  -3.523225e+01
   1.729028e+02   1.280204e+02
   1.190855e+01   2.242172e+02
  -1.494578e+02   1.805710e+02
  -1.990305e+02   1.033363e+01
  -4.866942e+01  -1.359312e+02
   5.842308e+01  -1.285135e+02
   7.881781e+01  -2.909637e+01
  -9.621833e+00   4.403470e+01
  -1.786891e+01  -4.804219e+00
   1.519317e+01  -9.961286e+00
   8.220480e+01  -4.281381e+00
   8.710403e+01   7.582444e+01
   9.774894e+00   1.783063e+02
  -1.326888e+02   1.391060e+02
  -2.305915e+02   4.298720e+01
  -2.046451e+02  -1.525782e+02
  -5.737757e+01  -2.150494e+02
   1.042588e+02  -1.559507e+02
   1.277151e+02  -1.934471e+01
   8.514664e+01   2.828493e+01
   4.397681e+01   1.918552e+01
   3.066297e+01  -5.909547e+00
   1.007023e+02   1.336711e+01
   4.692210e+01   5.109863e+01
  -4.788918e+01   8.033083e+01
  -1.071154e+02   6.739076e+01
  -5.702889e+01  -1.671891e+01
   8.209051e+00  -1.308807e+02
   1.413230e+02  -9.169640e+01
   1.849040e+02   5.767302e+01
   1.031797e+02   2.346069e+02
  -1.209587e+02   2.411473e+02
  -2.554092e+02   9.779543e+01
  -2.642777e+02  -6.341253e+01
  -1.298692e+02  -1.862122e+02
   4.574000e+01  -1.387689e+02
   7.898819e+01  -8.708982e+01
   7.979390e+01  -7.587369e+01
   5.624711e+01  -8.388819e+01
   9.520638e+01  -9.256744e+01
   1.259704e+02   3.012411e+01
   1.299427e+02   1.462502e+02
   3.776260e+01   2.160398e+02
  -9.099896e+01   1.825861e+02
  -1.818373e+02   2.597695e+01
  -1.626530e+02  -1.155903e+02
  -7.793057e+00  -1.507119e+02
   6.603065e+01  -1.023511e+02
   6.816698e+01  -8.118914e+00
  -1.927048e+01   3.471546e+01
   2.302996e+01   1.567561e+01
   3.582305e+01  -6.597452e+00
   7.963024e+01   1.453194e+01
   5.638494e+01   4.659676e+01
  -6.373712e+01   3.677241e+01
  -1.655706e+02   2.762571e+01
  -1.498329e+02  -4.884732e+01
  -3.571050e+01  -9.692530e+01
   1.140123e+02  -1.051634e+02
   1.791314e+02  -3.790742e+01
   3.607306e+01   4.047020e+01
  -5.823804e+01   5.774970e+01
  -6.607914e+01  -2.782045e+01
   3.945650e+00  -8.694847e+01
   6.717405e+01  -4.222626e+01
   8.799708e+01   1.944828e+01
   4.973204e+01   8.326803e+01
   3.737992e+01   2.014600e+01
   4.862226e+01  -1.837588e+01
   4.671354e+01   1.639782e+01
   3.468699e+01   7.466228e+01
  -9.651115e-01   1.419841e+02
  -9.822919e+01   1.327514e+02
  -1.599102e+02   2.510621e+01
  -1.647366e+02  -9.012606e+01
   1.648498e+01  -1.481758e+02
   7.409413e+01  -7.933741e+01
   3.517724e+01   2.060491e+01
  -6.844602e+01   4.848214e+01
  -1.327683e+02  -2.980380e+01
  -8.900448e+01  -7.476118e+01
   7.352981e+01  -1.160779e+02
   2.126886e+02  -6.315748e+01
   1.691718e+02   3.166537e+01
   5.722881e+01   1.120675e+02
  -2.252227e+01   5.969547e+01
  -3.754566e+01  -1.297239e+01
   6.035338e+01  -3.819676e+01
   8.513664e+01  -1.420879e+00
   2.748832e+01   1.095301e+02
  -8.465682e+01   1.892320e+02
  -1.623280e+02   7.376441e+01
  -1.387012e+02  -9.636316e+01
  -2.678597e+01  -2.154477e+02
   9.164387e+01  -1.430284e+02
   8.394552e+01   2.663423e+00
   6.687576e+01   1.201810e+02
  -2.673697e+01   1.292378e+02
  -7.398982e+01   3.153054e+01
  -4.293736e+01  -4.411307e+01
   1.147509e+01  -1.328121e+01
   2.712735e+00   3.023430e+01
  -1.352388e+01  -6.439102e-01
  -6.698659e+01  -7.340105e+01
  -2.616176e+01  -1.174673e+02
   7.516921e+01  -5.505089e+01
   1.773760e+02   5.719754e+01
   1.244855e+02   7.382372e+01
  -1.128583e+01   2.494352e+01
  -8.511396e+01  -1.357296e+01
  -7.525935e+01   2.762082e+00
  -6.373805e+00   4.908884e+00
   3.353257e+01  -1.777770e+01
   2.447307e+01  -1.900405e+01
  -2.546047e+01   2.464492e+01
   1.793514e+01   9.653226e+00
   8.438927e+01   9.423609e+00
   9.551578e+01  -1.901853e+00
   1.412119e+01   6.223971e+01
  -9.727397e+01   1.061367e+02
  -1.902336e+02   6.177967e+01
  -1.491597e+02  -6.528719e+01
  -2.574768e+01  -1.833966e+02
   7.212958e+01  -1.528577e+02
   1.114595e+02  -4.236229e+01
   6.335196e+01   2.824533e+01
   3.808805e+01   4.817608e+01
  -5.863954e-01   3.222340e+00
   7.412105e+00  -1.484521e+00
   4.405152e+01   5.230733e+01
   3.694613e+01   9.842453e+01
  -3.434785e+01   7.746304e+01
  -5.413649e+01  -3.037537e+00
  -8.278041e+01  -1.042261e+02
  -1.164179e+01  -1.239150e+02
   8.364893e+01  -3.819262e+01
   8.933008e+01   7.803223e+01
   4.076181e+01   1.009612e+02
  -8.464058e+01   4.198490e+01
  -9.888957e+01  -3.889966e+01
  -3.343352e+01  -6.559503e+01
   4.943959e+01  -4.912206e+01
   4.562759e+01  -2.725542e+01
  -3.964142e+01   3.022455e+01
  -8.885664e+01   2.743938e+01
  -2.278236e+01  -2.859824e+01
   5.566406e+01  -6.035893e+01
   9.535782e+01  -7.291413e+01
   6.337910e+01  -2.198524e+01
  -3.257415e+01   8.140942e+01
  -4.588749e+01   9.328281e+01
  -2.737753e+01   2.823269e+01
   1.738451e+01  -4.649143e+01
   2.206362e+01  -5.696843e+01
   3.260930e+01  -1.296568e-01
   4.331241e+01   3.942188e+01
  -1.009410e+01   1.673265e+01
  -5.371490e+01  -6.589960e+00
  -5.113694e+01  -3.733427e+01
   1.591339e+00   4.756225e+00
   3.065071e+01   9.146668e+00
   1.665611e+01  -5.268121e+00
   2.245052e+00  -5.025520e+00
   1.326997e+01  -5.626321e+01
   2.629009e+01  -2.237069e+01
   4.461219e+01   3.259488e+01
   1.324907e+01   7.567776e+01
  -2.492562e+01   1.718696e+01
  -6.274918e+01  -4.801504e+01
   2.598362e+00  -5.912506e+01
   7.285015e+01  -4.128237e+01
   9.511000e+01   1.884375e+00
   5.916054e+01   4.875983e+01
  -1.244864e+01   3.816714e+01
  -6.742596e+01   3.745671e+01
  -1.561317e+01   8.086794e-01
   3.769913e+01  -1.431068e+01
   1.321432e+01  -1.444374e+01
  -2.640442e+01   4.946826e+01
  -9.736327e+01   4.419903e+01
