
 $NMID
 id='ANONYMOUS ', fmtdat='(2E16.6)'
 volume=1.0
 tramp=1.0
 $END
   3.272242e+03  -1.607028e+02
   2.060830e+03   1.603030e+03
  -1.073021e+02   2.125850e+03
  -1.337516e+03   1.163731e+03
  -9.243234e+02   6.269887e+01
   1.872411e+02  -2.966390e+02
   4.808091e+02   1.395995e+02
   6.224959e+00   6.429253e+02
  -4.585303e+02   5.183038e+02
  -6.227571e+02   5.283397e+01
  -3.843437e+02  -4.527490e+02
   1.154181e+02  -6.217362e+02
   3.252249e+02  -1.852878e+02
   2.829628e+02   3.606730e+02
  -1.141314e+02   5.374930e+02
  -3.892535e+02   5.345346e+01
  -2.691565e+02  -4.660419e+02
   1.384910e+02  -5.407999e+02
   4.411921e+02  -1.843227e+02
   3.836684e+02   1.669641e+02
   1.281766e+02   3.176636e+02
  -1.003468e+02   2.130329e+02
  -7.500580e+01   9.530408e+01
   1.355835e+02   7.406666e+01
   2.536698e+02   2.127739e+02
   2.372167e+01   3.415712e+02
  -4.135230e+02   2.128395e+02
  -5.760725e+02  -1.649934e+02
  -2.314168e+02  -3.911758e+02
   2.952379e+02  -2.978785e+02
   5.030723e+02   5.463066e+01
   1.704440e+02   3.494235e+02
  -2.526849e+02   3.212612e+02
  -4.291078e+02   1.376232e+02
  -2.790306e+02  -1.502806e+02
  -7.517045e+01  -2.810060e+02
   5.191452e+01  -1.846992e+02
   2.600687e+01   9.509277e+01
  -1.912967e+02   1.888997e+02
  -2.161867e+02  -8.302465e+01
  -5.452839e+01  -5.290723e+02
   2.418582e+02  -4.536602e+02
   3.910898e+02   3.609070e+00
   2.237033e+02   2.942181e+02
  -1.498082e+02   1.568486e+02
  -2.261681e+02  -3.056145e+02
   6.347949e+01  -3.874162e+02
   3.752311e+02  -2.742289e+01
   4.484765e+02   3.376567e+02
   9.667065e+01   4.355336e+02
  -3.155752e+02   3.052954e+02
  -5.036545e+02  -4.094294e+01
  -3.303867e+02  -2.559678e+02
   8.294382e+01  -2.161211e+02
   2.822157e+02  -7.022860e+01
   1.704924e+02   5.130509e+01
   1.559835e+01   3.751374e+01
  -1.230585e+01  -7.875152e+01
   1.167872e+02  -8.690595e+01
   2.167620e+02   6.979603e+01
   1.220768e+02   2.336270e+02
  -1.776929e+02   2.484818e+02
  -3.043847e+02   1.183514e+02
  -2.200213e+02  -1.052262e+02
   3.856440e+01  -2.317451e+02
   2.391838e+02  -3.045391e+02
   3.085042e+02  -1.696743e+02
   2.340507e+02   1.254036e+02
   8.426789e+01   3.390659e+02
  -7.100057e+00   2.951568e+02
  -3.544807e+01   1.521164e+02
  -3.730511e+01   9.608355e+01
  -1.153445e+02   9.934223e+01
  -2.077397e+02   7.065316e+01
  -2.644685e+02  -1.179451e+02
  -9.585346e+01  -2.306920e+02
   1.063493e+02  -1.596546e+02
   1.992176e+02  -8.288868e+00
   1.215603e+02   2.263057e+02
  -3.307902e+01   2.462592e+02
  -2.030251e+02   7.769938e+01
  -3.066922e+02  -1.356650e+02
  -1.600336e+02  -2.905683e+02
   5.385870e+01  -2.782825e+02
   1.568394e+02  -1.298783e+02
   1.371447e+02  -7.056730e+01
   1.431783e+02  -5.136608e+01
   2.429635e+02  -7.004850e+01
   3.654862e+02   8.861049e+01
   2.914588e+02   2.486113e+02
   8.942134e+00   4.254721e+02
  -3.404278e+02   3.568809e+02
  -4.520566e+02   1.793185e+02
  -2.567695e+02  -1.220564e+02
  -3.421679e+01  -2.748351e+02
   7.386262e+01  -1.892116e+02
   2.998799e+01  -4.095635e+01
  -1.234751e+02   4.972258e+01
  -1.349253e+02  -2.471652e+01
  -6.599378e+00  -1.336761e+02
   1.315293e+02  -5.511320e+01
   1.496342e+02   6.272261e+01
  -4.279456e+00   1.642656e+02
  -1.542619e+02   1.576377e+01
  -1.168963e+02  -2.290868e+02
   3.174437e+01  -2.954899e+02
   2.339010e+02  -1.492857e+02
   2.884591e+02   5.819897e+01
   2.796530e+02   2.067099e+02
   4.804551e+01   2.361675e+02
  -1.233496e+02   1.445711e+02
  -1.138940e+02   1.638975e+00
  -2.376746e+01  -8.325302e+00
   5.570011e+01   4.374794e+01
   7.825470e+00   1.107380e+02
  -1.152167e+02   6.237038e+01
  -1.403815e+02  -1.200780e+01
  -4.325171e+01  -5.304810e+01
   8.407654e+01  -5.824908e+00
   3.755922e+01   8.797670e+01
  -1.217193e+02   8.757439e+01
  -2.587598e+02  -2.040142e+01
  -2.399008e+02  -1.295105e+02
  -2.676176e+01  -2.062909e+02
   1.659103e+02  -2.278041e+02
   2.487595e+02  -9.937224e+01
   9.702372e+01   2.904508e+01
  -3.984781e+01   5.581909e+01
  -4.793007e+01  -5.517711e+00
   5.211985e+01  -8.892319e+01
   1.755989e+02  -2.802169e+01
   2.050644e+02   1.266770e+02
   3.866163e+01   1.894520e+02
  -6.445195e+01   1.263909e+02
  -1.053409e+02   2.157502e+00
  -2.673383e+01  -3.805107e+01
   1.594251e+01   2.198675e+01
   3.675659e+01   8.698173e+01
  -6.633997e+01   9.781050e+01
  -2.020278e+02   5.027913e+01
  -1.462908e+02  -9.420093e+01
  -3.880756e+01  -1.899898e+02
   1.437933e+02  -1.384330e+02
   1.524440e+02  -6.245581e+00
   6.972849e+01   8.275125e+01
  -5.511948e+01   6.890489e+01
  -7.639617e+01   7.854831e+00
  -3.660703e+01  -3.216940e+01
   4.675591e+00  -8.913742e+00
  -9.637294e+00  -3.664423e+00
  -7.231847e+01  -9.579122e+00
  -1.112185e+02  -8.634830e+01
   1.945314e+00  -1.740507e+02
   1.506051e+02  -1.675590e+02
   2.163577e+02  -2.620667e+01
   1.864216e+02   1.239224e+02
   2.070745e+01   2.190997e+02
  -6.774958e+01   1.435921e+02
  -1.268274e+02   2.925155e+01
  -7.562288e+01  -7.346415e+01
  -4.516017e+01  -1.891421e+01
  -4.688112e+01   2.548415e+01
  -8.044014e+01   8.682409e+00
  -2.810102e+01  -5.020996e+01
   5.961347e+01  -1.047578e+02
   1.008184e+02  -4.350348e+01
   6.760085e+01   4.641176e+01
  -1.630981e+01   1.165317e+02
  -1.385805e+02   9.368016e+01
  -1.747377e+02  -6.347183e+01
  -8.739381e+01  -1.865381e+02
   9.766192e+01  -1.892883e+02
   2.285810e+02  -7.344714e+01
   2.224087e+02   6.304216e+01
   1.068252e+02   1.477389e+02
  -1.754065e+01   1.168841e+02
  -1.087941e+02   6.230279e+01
  -9.450522e+01   6.033423e+01
  -2.784813e+01   9.013142e+01
  -1.059672e+02   6.666170e+01
  -1.309965e+02   1.179589e+01
  -1.454701e+02  -1.485953e+02
  -4.322731e+01  -2.231070e+02
   8.802263e+01  -1.729673e+02
   1.502250e+02  -3.437471e+01
   1.279002e+02   1.180463e+02
  -3.381656e+01   1.605337e+02
  -8.352174e+01   9.926389e+01
  -7.896703e+01  -1.742601e+01
   6.476335e+00  -5.751998e+01
   2.087525e+01  -1.553922e+01
  -5.106611e+01  -1.849967e+00
  -8.138406e+01  -2.957847e+01
  -5.252663e+01  -3.947002e+01
   9.562556e+01  -3.396648e+01
   1.654134e+02   4.501614e+00
   1.346197e+02   5.796744e+01
   3.223129e+01   1.000370e+02
  -1.239806e+02   7.180020e+01
  -1.392806e+02  -8.643542e+00
  -2.509542e+01  -3.778214e+01
   2.095463e+01  -4.673886e+01
   7.901555e+01   6.023464e+00
   4.404587e+01   6.027348e+01
  -2.083454e+01   7.142805e+01
  -3.277958e+01   6.848800e+00
  -5.564238e+01  -8.552312e+01
  -6.101801e+01  -2.580427e+01
  -5.801026e+01   2.860732e+00
  -7.696652e+01   1.871602e+01
  -2.790837e+01  -6.619772e+01
   2.602586e+01  -1.240688e+02
   9.742130e+01  -1.324863e+02
   1.658924e+02  -3.699833e+01
   1.237936e+02   8.658831e+01
  -7.918156e+00   1.341572e+02
  -8.392066e+01   8.606455e+01
  -4.896989e+01  -8.242988e+00
   7.052192e+01  -2.479519e+01
   1.261898e+02   2.129827e+01
   9.133777e+01   1.044378e+02
  -7.523422e+01   1.425756e+02
  -1.608214e+02   1.556393e+01
  -1.296424e+02  -6.204746e+01
  -3.687577e+01  -7.590460e+01
   2.713158e+01  -5.950873e+01
   3.780904e+01  -1.553943e+01
  -5.321377e+01   3.053619e+01
  -8.398025e+01   7.483198e+00
  -3.280115e+01  -1.075405e+02
   6.611297e+01  -1.481956e+02
   1.553566e+02  -6.157332e+01
   1.219246e+02   9.787720e+01
   4.321986e+01   1.619617e+02
  -1.000609e+02   1.317995e+02
  -1.083837e+02  -5.649589e+00
  -7.496341e+01  -1.186533e+02
  -5.695062e+00  -1.205131e+02
   6.142629e+00  -2.240565e+01
   7.306094e+01   3.424838e+01
   2.003204e+01   1.596111e+00
  -1.864069e+01  -2.951933e+01
   1.091522e+01   2.377117e+01
   4.004577e+01   5.088927e+01
   3.689445e+01   8.014099e+01
  -4.671319e+01   6.570834e+01
  -1.233296e+02  -3.788725e+01
  -9.351620e+01  -2.999463e+01
  -1.484783e+01  -5.327647e+01
   7.535607e+01   5.036761e-01
   8.806855e+01   1.654547e+00
   5.030251e+00  -6.686232e+00
  -9.782843e+00   8.559018e+00
   6.094143e+00   3.703318e-01
   1.233410e+01  -1.324695e+01
  -1.259565e+01   1.685451e+01
  -9.719276e+01   3.858542e+00
  -1.015861e+02  -3.550889e+01
  -7.743768e+00  -9.891353e+01
   1.172826e+02  -8.910135e+01
   1.608558e+02  -5.738545e+01
   1.482601e+02   2.452572e+01
  -3.056957e+00   1.418853e+02
  -7.068905e+01   1.336225e+02
  -1.251816e+02   6.154860e+01
  -6.038760e+01  -1.051259e+01
  -3.364121e+01  -2.602828e+00
  -9.378698e+00   1.754177e+00
  -3.351444e+01  -8.790480e+00
  -3.403433e+01  -5.806387e+01
  -3.255577e+00  -6.307640e+01
  -1.064687e+01  -6.979477e+01
   5.065368e+01   2.072564e+01
   5.052859e+01   7.344709e+01
   4.744743e+01   9.984566e+01
  -6.289740e+01   3.438922e+01
  -9.710495e+01  -6.366451e+01
  -3.611564e+01  -8.405904e+01
   4.023775e+01  -6.991853e+01
   9.362006e+01  -2.314448e+01
   3.515535e+01   3.417339e+01
  -1.889402e+01   5.648429e+01
  -4.321104e+01   2.647128e+01
   7.492934e+00  -2.836440e+01
   5.398211e+01  -1.129800e+01
   6.767577e+00   2.453064e+01
  -5.841336e+01   6.991235e+01
  -1.029840e+02   5.311035e+01
  -9.466959e+01   1.111763e+01
   5.882410e+00  -7.586953e+01
   1.099848e+01  -8.696649e+01
   4.213985e+01  -1.264709e+01
   1.380162e+01   5.361876e+01
  -6.626173e+00   5.426987e+01
  -6.335988e+01  -6.328026e-01
  -1.158555e+01  -4.839784e+01
  -8.195828e+00  -3.805762e+01
   6.721385e+01  -6.463683e+00
   4.756360e+01   2.426248e+01
   4.031500e+01  -4.986354e+00
  -2.273214e+01  -7.378768e+00
  -1.740093e+01   1.305876e+01
   1.107374e+01   1.502175e+01
  -7.947190e+00   4.513758e+01
  -4.006514e+01   9.881318e-01
  -2.442337e+01  -2.572308e+01
  -3.318169e+01  -5.401969e+01
   3.520791e+01  -2.486887e+01
   6.103131e+01   3.380942e+01
   1.994248e+01   6.468741e+01
  -2.818845e+01   2.462294e+01
  -6.686672e+01  -3.412605e+01
  -3.553754e+01  -1.429789e+01
   1.540998e+00  -4.235296e+01
   3.866538e+01  -2.673203e+01
   1.020033e+01  -2.416932e+01
  -1.207539e+01   1.018848e+01
  -4.813496e+01  -2.339506e+01
   1.809331e+01  -5.003667e+01
   5.987948e+01  -4.185338e+01
