
 $NMID
 id='ANONYMOUS ', fmtdat='(2E16.6)'
 volume=1.0
 tramp=1.0
 $END
  -3.247835e+03   2.797642e+02
  -2.114190e+03  -1.614365e+03
   2.639074e+01  -2.098143e+03
   1.368155e+03  -1.134333e+03
   8.099599e+02   4.764555e+01
  -2.644672e+02   2.738918e+02
  -4.273388e+02  -1.122233e+02
   1.237332e+01  -6.187543e+02
   4.894502e+02  -6.027858e+02
   6.958140e+02  -6.628892e+01
   4.901308e+02   4.998001e+02
  -2.731337e+01   6.509899e+02
  -3.324760e+02   1.822721e+02
  -2.892480e+02  -4.376886e+02
   9.825952e+01  -5.540959e+02
   3.858652e+02  -7.031938e+01
   2.895812e+02   4.700659e+02
  -1.288669e+02   5.277161e+02
  -4.196138e+02   2.172315e+02
  -3.920430e+02  -1.397727e+02
  -1.309919e+02  -3.593831e+02
   9.649012e+01  -2.364377e+02
   1.248592e+02  -1.179619e+02
  -1.158688e+02  -4.625439e+01
  -2.462180e+02  -1.744818e+02
  -1.214884e+01  -3.094428e+02
   3.739121e+02  -2.087181e+02
   6.768294e+02   7.909200e+01
   2.793991e+02   3.516074e+02
  -3.184695e+02   2.709386e+02
  -5.302439e+02  -4.413387e+01
  -2.431387e+02  -3.542457e+02
   2.427384e+02  -3.594767e+02
   4.428180e+02  -1.562140e+02
   3.393705e+02   1.345176e+02
   1.134237e+02   3.175791e+02
  -2.232724e+01   2.061413e+02
  -3.548577e+01  -1.282821e+02
   1.484229e+02  -2.546812e+02
   2.333995e+02   4.336109e+01
   7.079222e+01   5.011021e+02
  -2.298877e+02   5.336208e+02
  -3.538079e+02   1.384107e+01
  -1.749125e+02  -3.102542e+02
   1.716587e+02  -1.526410e+02
   1.804730e+02   2.164528e+02
  -8.441578e+01   3.692641e+02
  -3.565891e+02   7.959687e+01
  -4.581940e+02  -3.291045e+02
  -1.467069e+02  -4.564033e+02
   2.764732e+02  -2.383358e+02
   5.140775e+02   3.373379e+01
   3.336722e+02   2.394014e+02
  -4.622787e+01   2.390030e+02
  -2.689469e+02   7.527290e+01
  -2.097863e+02  -5.674496e+01
   2.704999e+00  -5.231844e+01
   6.173570e+01   7.645456e+01
  -6.391756e+01   7.358793e+01
  -1.916470e+02  -8.874967e+01
  -9.152257e+01  -2.168549e+02
   1.556762e+02  -1.872797e+02
   2.864580e+02  -1.171125e+02
   2.067562e+02   1.025212e+02
  -2.632428e+01   2.502540e+02
  -2.250213e+02   3.144046e+02
  -3.162037e+02   1.465722e+02
  -1.991557e+02  -1.312172e+02
  -7.792565e+01  -3.373433e+02
   3.559982e+01  -2.833799e+02
   7.901358e+01  -1.630974e+02
   3.891453e+01  -6.316595e+01
   1.184389e+02  -6.899115e+01
   2.256144e+02  -6.087575e+01
   2.234236e+02   1.309539e+02
   7.961606e+01   2.084662e+02
  -6.008487e+01   1.582392e+02
  -1.926000e+02  -4.019159e+01
  -1.239874e+02  -2.345128e+02
   4.884185e+01  -2.432254e+02
   2.123856e+02  -7.421585e+01
   2.905784e+02   1.503941e+02
   1.524030e+02   2.751541e+02
  -3.268777e+01   2.648006e+02
  -1.571395e+02   1.330823e+02
  -1.257855e+02   4.480242e+01
  -1.414698e+02   2.475153e+01
  -2.161720e+02   6.309809e+01
  -3.695562e+02  -1.129761e+02
  -2.689453e+02  -2.702083e+02
   3.048488e+01  -4.190589e+02
   3.544914e+02  -3.346265e+02
   4.372872e+02  -1.476317e+02
   2.799285e+02   1.106419e+02
   1.644520e+01   2.616359e+02
  -8.896914e+01   2.069624e+02
  -1.916925e+01   2.940118e+01
   1.046635e+02  -3.012293e+01
   1.223339e+02   2.771850e+01
   8.464125e+00   1.454893e+02
  -1.056668e+02   1.001568e+02
  -1.264468e+02  -8.415423e+01
  -3.759849e+00  -1.281553e+02
   1.421605e+02   2.480632e+01
   1.079161e+02   2.250240e+02
  -2.217233e+01   3.272449e+02
  -2.220295e+02   1.806797e+02
  -2.860845e+02  -6.697941e+01
  -2.860415e+02  -2.251394e+02
  -5.647589e+01  -2.344772e+02
   1.030937e+02  -1.641546e+02
   1.555103e+02  -9.102716e+00
   1.307126e+00   2.651840e+01
  -4.749709e+01  -3.144077e+01
  -8.899524e+00  -1.088399e+02
   9.735056e+01  -6.423662e+01
   1.732994e+02   2.443084e+01
   5.528794e+01   4.257781e+01
  -6.082418e+01  -4.707968e+00
  -4.106727e+01  -7.986297e+01
   1.368098e+02  -9.989427e+01
   2.657558e+02   1.496187e+01
   2.450965e+02   1.418704e+02
   1.245860e+01   2.430503e+02
  -1.833207e+02   2.506953e+02
  -2.466852e+02   9.181139e+01
  -1.548330e+02  -6.265959e+01
   2.520245e+01  -1.042822e+02
   8.711582e+01   3.061933e+00
  -2.899257e+01   6.926363e+01
  -1.656267e+02   2.513522e+01
  -1.936924e+02  -1.224508e+02
  -5.298386e+01  -1.525972e+02
   5.176982e+01  -1.007687e+02
   1.104507e+02  -4.844763e+01
   4.574712e+01   5.303092e+01
  -3.842714e+01  -2.426720e+01
  -2.685893e+01  -7.860452e+01
   6.418327e+01  -1.094078e+02
   1.962821e+02  -3.145247e+01
   1.809850e+02   1.184440e+02
   1.064673e+01   2.031229e+02
  -1.424509e+02   1.303009e+02
  -1.508258e+02   2.315557e+00
  -6.264265e+01  -8.379910e+01
   4.637913e+01  -6.378025e+01
   7.633538e+01  -1.069368e+01
  -2.407471e+00   3.714199e+01
  -3.348557e+01   1.901013e+01
   1.308873e+00  -2.288340e+01
   5.693491e+01  -1.786489e+01
   8.611599e+01   1.003951e+02
   4.966982e+00   1.475873e+02
  -1.459226e+02   1.476963e+02
  -2.017707e+02   1.063349e+01
  -1.899587e+02  -1.474714e+02
  -1.576126e+01  -2.092984e+02
   8.970352e+01  -1.480659e+02
   1.333528e+02  -6.060968e+01
   6.991775e+01   4.384792e+01
   5.451755e+01   1.998959e+01
   3.394585e+01   4.817212e+00
   6.321876e+01  -6.308033e+00
   2.236356e+01   6.444236e+01
  -5.113081e+01   8.992603e+01
  -1.106808e+02   3.748709e+01
  -8.649636e+01  -6.651439e+01
   3.834062e+01  -1.268767e+02
   1.130228e+02  -1.028276e+02
   1.624787e+02   7.579518e+01
   8.110951e+01   1.884535e+02
  -9.459941e+01   1.883178e+02
  -2.047495e+02   6.772522e+01
  -2.195225e+02  -7.414693e+01
  -9.963499e+01  -1.671286e+02
   1.514086e+01  -1.351730e+02
   9.590404e+01  -8.817513e+01
   8.633093e+01  -6.595521e+01
   4.865561e+01  -9.583045e+01
   6.251937e+01  -7.725524e+01
   1.236321e+02   2.363391e+01
   1.125100e+02   1.390288e+02
   3.717406e+01   2.291227e+02
  -7.558673e+01   1.554308e+02
  -1.476491e+02   2.532505e+01
  -1.239631e+02  -1.156518e+02
  -4.541688e+00  -1.341496e+02
   7.887362e+01  -7.147438e+01
   6.260973e+01   3.484832e+01
   1.609320e+01   5.084786e+01
  -3.146228e+00   3.148984e+01
   2.573645e+01  -1.156927e+01
   6.411108e+01   2.988490e+01
   1.740732e+01   3.877985e+01
  -8.876133e+01   1.775023e+01
  -1.589518e+02   3.006378e+01
  -1.357873e+02  -2.880768e+01
  -1.637007e+01  -9.167129e+01
   1.177802e+02  -6.047588e+01
   1.220731e+02  -3.444153e+01
   2.927647e+01   3.541841e+01
  -5.042229e+01   3.221973e+01
  -4.554886e+01  -9.112689e+00
  -3.798230e+00  -5.951062e+01
   2.461869e+01  -5.419417e+01
   6.996326e+01  -9.280103e+00
   5.109789e+01   6.236102e+01
   6.342002e+01   4.004270e+01
   5.783343e+01   1.856868e+01
   5.949833e+01  -3.242989e+00
   3.962804e+01   7.714214e+01
  -3.692331e+01   1.223465e+02
  -9.387796e+01   1.280165e+02
  -1.512531e+02   3.633094e+01
  -1.182816e+02  -5.652509e+01
   1.674207e+00  -1.195672e+02
   8.792230e+01  -3.130531e+01
   5.207207e+01   1.149494e+01
  -4.261455e+01   1.709712e+01
  -1.284160e+02  -5.634516e+01
  -4.564096e+01  -1.039749e+02
   7.896803e+01  -9.367772e+01
   1.680226e+02  -5.623733e+01
   1.286789e+02   4.500529e+01
   5.183679e+01   9.844354e+01
  -4.973146e+01   5.653823e+01
  -3.793446e+01   4.503402e+00
   3.721558e+01  -2.843959e+01
   8.312923e+01   4.499702e+00
  -1.843958e+00   7.895613e+01
  -7.863553e+01   1.414483e+02
  -1.570986e+02   5.912727e+01
  -8.812290e+01  -7.114459e+01
  -4.393952e+01  -1.548129e+02
   4.757149e+01  -1.227456e+02
   7.924213e+01  -2.525563e+01
   6.339059e+01   9.875879e+01
  -4.421824e+00   9.083027e+01
  -4.303734e+01   2.750606e+01
  -3.875012e+01  -2.892735e+01
  -3.339229e+00  -1.110141e+01
   3.509159e+00   9.702411e+00
  -3.554502e+01  -3.284476e+01
  -2.481232e+01  -1.004363e+02
  -3.257109e+01  -9.133634e+01
   5.175006e+01  -4.535357e+01
   1.034518e+02   3.034450e+01
   1.098397e+02   6.072235e+01
   2.447776e+01   2.658897e+01
  -8.805923e+01   2.032779e+01
  -6.874207e+01   3.763690e+01
  -4.849055e+01   1.185230e+01
   1.811352e+01  -2.376609e+01
   3.441937e+01  -2.859315e+01
  -2.554833e+00  -1.342908e+01
   1.997670e+01   2.998558e+00
   7.469449e+01   3.370736e+01
   7.393551e+01   1.277565e+01
  -6.794886e+00   6.575226e+01
  -9.121870e+01   9.378142e+01
  -1.510600e+02   4.835257e+01
  -1.206320e+02  -4.980097e+01
  -6.703294e+00  -1.685457e+02
   6.942843e+01  -1.406276e+02
   1.244292e+02  -4.719826e+01
   9.033989e+01   1.417968e+01
   6.120126e+01   4.368659e+01
   1.542144e+01   3.395145e+00
   9.094750e+00   3.531750e+00
   4.914546e+01   3.457407e+01
   2.763374e+01   6.354575e+01
  -2.568709e+01   7.887930e+01
  -6.261175e+01  -1.981193e+01
  -3.480569e+01  -1.124724e+02
  -2.192108e+01  -9.447956e+01
   7.400830e+01  -4.403984e+01
   1.039257e+02   6.268565e+01
   4.725387e+01   1.015212e+02
  -4.736222e+01   6.488342e+01
  -1.040365e+02  -1.934809e+01
  -3.543102e+01  -5.425097e+01
   4.172639e+01  -5.330507e+01
   3.335045e+01  -3.867002e+01
  -9.430815e-01  -8.390568e-01
  -8.059146e+01   2.296969e+01
  -2.667071e+01  -2.355262e+01
   6.802709e+01  -7.230471e+01
   1.004073e+02  -1.188622e+01
   8.108452e+01   2.285859e+01
  -4.579883e+01   7.043874e+01
  -4.610691e+01   8.869307e+01
  -3.844980e+01  -8.775850e+00
  -1.942042e+01  -4.211463e+01
   3.071985e+01  -2.498847e+01
   2.710931e+01   4.645201e+00
   1.500839e+01   5.814255e+01
  -2.097246e+01   4.444764e+01
  -5.127782e+01   3.793912e+00
  -5.554595e+01   6.349959e-01
  -3.656140e+01  -5.536785e-01
  -1.163704e+01   2.900894e+01
   1.456478e+01   6.446114e+00
   2.418316e+00  -1.603786e+01
  -9.843509e+00  -3.789360e+01
   1.718633e+01  -8.740164e+00
   4.253521e+01   3.893898e+01
   1.377567e+00   6.506750e+01
  -3.545993e+01   1.445562e+01
  -5.086581e+01  -3.235897e+01
  -4.559527e+01  -5.927348e+01
   5.465459e+01  -2.589721e+01
   9.290545e+01   1.674494e+01
   5.942629e+01   5.493587e+01
  -2.034546e+01   5.784787e+01
  -5.304170e+01   2.765738e+01
  -2.122530e+01   1.798433e+01
   3.299055e+01   3.037632e+00
   4.199347e+01  -3.413702e+00
   1.677622e+00   3.779790e+01
  -4.670988e+01   4.283974e+01
