
 $NMID
 id='ANONYMOUS ', fmtdat='(2E16.6)'
 volume=1.0
 tramp=1.0
 $END
   4.267450e+03   1.987438e+02
   2.428190e+03   2.651955e+03
  -1.039561e+03   2.576390e+03
  -2.082717e+03   6.594497e+02
  -8.329326e+02  -6.326627e+02
   7.811569e+02  -4.051056e+02
   8.091453e+02   5.934809e+02
  -1.073390e+02   1.062564e+03
  -8.480743e+02   6.178876e+02
  -9.029658e+02  -1.730879e+02
  -3.506705e+02  -8.551821e+02
   3.179221e+02  -8.236175e+02
   6.667003e+02  -1.853364e+01
   2.908328e+02   7.640555e+02
  -3.846538e+02   7.568386e+02
  -5.923513e+02  -4.426322e+01
  -2.592633e+02  -7.221518e+02
   3.170979e+02  -5.680636e+02
   5.139883e+02  -1.033651e+02
   3.564963e+02   3.802693e+02
  -6.187696e+00   4.391444e+02
  -2.604752e+02   2.451898e+02
  -2.021133e+02  -4.718210e+01
   1.580222e+02  -8.851080e+01
   4.309809e+02   1.456253e+02
   1.656507e+02   4.873925e+02
  -5.338142e+02   4.459372e+02
  -8.711669e+02  -1.113177e+02
  -3.987086e+02  -6.507379e+02
   4.412032e+02  -4.735103e+02
   7.751667e+02   1.123946e+02
   3.438389e+02   5.383648e+02
  -3.478846e+02   5.669122e+02
  -5.752130e+02   1.952075e+02
  -4.080665e+02  -2.594944e+02
  -3.019209e+01  -4.882153e+02
   2.650075e+02  -2.443168e+02
   2.051644e+02   2.749662e+02
  -2.417039e+02   4.724838e+02
  -5.043565e+02  -4.326757e+01
  -1.834813e+02  -7.486048e+02
   4.233233e+02  -6.846301e+02
   6.359625e+02   5.397126e+01
   1.823208e+02   5.746840e+02
  -3.866261e+02   2.836657e+02
  -3.675079e+02  -3.700954e+02
   1.535405e+02  -5.567024e+02
   5.751476e+02  -1.223043e+02
   6.211211e+02   4.417369e+02
   1.675516e+02   6.020472e+02
  -4.349213e+02   3.603578e+02
  -6.324820e+02  -9.615528e+01
  -3.446589e+02  -4.404281e+02
   2.186699e+02  -3.782294e+02
   4.449497e+02  -1.745398e+01
   1.893335e+02   2.347662e+02
  -1.610385e+02   1.133852e+02
  -1.336101e+02  -1.746595e+02
   2.094553e+02  -1.494324e+02
   3.170736e+02   8.389387e+01
   1.086925e+02   2.901134e+02
  -2.211050e+02   2.497239e+02
  -3.144273e+02   7.453427e+01
  -2.137294e+02  -9.542552e+01
  -6.825279e+00  -2.261142e+02
   1.950778e+02  -3.382498e+02
   3.703348e+02  -2.105195e+02
   3.076634e+02   1.527115e+02
   4.971807e+01   4.607175e+02
  -1.501434e+02   3.335798e+02
  -1.378783e+02   8.006382e+01
   3.811773e+01   3.310794e+00
  -3.042543e+01   6.307675e+01
  -2.248726e+02   1.359134e+02
  -2.844643e+02  -7.636564e+01
  -1.424464e+02  -2.678681e+02
   1.145216e+02  -2.619954e+02
   2.592991e+02   1.854947e+01
   2.045618e+02   2.678566e+02
  -2.513028e+01   3.324718e+02
  -2.746431e+02   1.347559e+02
  -3.779631e+02  -1.463813e+02
  -1.930547e+02  -3.519121e+02
   1.178234e+02  -3.081620e+02
   2.380709e+02  -9.549283e+01
   1.462645e+02  -7.028014e-01
   1.056964e+02  -4.031567e+01
   2.222677e+02  -5.057946e+01
   4.128905e+02   5.540249e+01
   3.169600e+02   2.849933e+02
  -2.427611e+01   4.719988e+02
  -3.315919e+02   4.035035e+02
  -4.633797e+02   1.508091e+02
  -3.629958e+02  -1.315481e+02
  -3.845776e+01  -3.052830e+02
   1.755083e+02  -2.285132e+02
   9.543413e+01  -2.332841e+01
  -1.047028e+02   1.140131e+02
  -2.380782e+02  -1.298624e+01
  -5.327458e+01  -2.014360e+02
   1.662395e+02  -1.426870e+02
   1.843729e+02   7.463658e+01
  -3.365871e+01   1.946014e+02
  -2.327643e+02   3.713171e+01
  -1.477708e+02  -2.558097e+02
   3.584198e+01  -3.548530e+02
   2.213518e+02  -2.058363e+02
   3.208318e+02   8.614478e+01
   2.644879e+02   2.526970e+02
   9.202615e+01   2.639755e+02
  -1.162839e+02   1.631745e+02
  -1.975197e+02   4.079632e+01
  -4.647440e+01  -2.733249e+01
   5.574927e+01   6.473699e+01
   1.464640e+01   1.073256e+02
  -1.375236e+02   9.697757e+01
  -2.045285e+02  -1.253629e+01
  -3.538044e+01  -7.577137e+01
   6.834707e+01  -1.265494e+01
   5.414139e+01   7.529090e+01
  -1.170124e+02   1.049795e+02
  -2.762260e+02   2.947412e+00
  -2.513639e+02  -1.145698e+02
  -3.833871e+01  -2.447426e+02
   1.740170e+02  -2.725238e+02
   2.735668e+02  -1.002650e+02
   1.558784e+02   4.696760e+01
  -4.050553e+01   8.699395e+01
  -7.544542e+01  -1.154324e+01
   3.859736e+01  -9.431848e+01
   1.737415e+02  -5.923800e+01
   2.047548e+02   9.161146e+01
   6.153899e+01   2.034739e+02
  -9.920522e+01   1.510159e+02
  -1.347931e+02   1.805683e+01
  -8.933533e+01  -6.147403e+01
   2.981456e+01  -1.011688e+01
   4.310684e+01   7.406333e+01
  -7.147539e+01   1.172716e+02
  -1.937041e+02   1.996702e+01
  -1.918033e+02  -1.419998e+02
  -2.689095e+01  -2.265884e+02
   1.962766e+02  -1.749249e+02
   1.746234e+02   7.384614e+00
   6.248033e+01   1.392007e+02
  -6.291338e+01   1.265670e+02
  -1.015982e+02  -1.188178e+01
  -2.056584e-01  -4.496098e+01
   3.345106e+01  -1.866568e+01
  -6.202225e+00   1.168541e+01
  -6.097019e+01  -1.045647e+01
  -1.157461e+02  -1.037251e+02
  -1.363552e+01  -1.569886e+02
   1.127112e+02  -1.486425e+02
   2.352168e+02  -4.946355e+01
   2.152673e+02   1.556058e+02
   3.066713e+01   2.225364e+02
  -1.099796e+02   1.610225e+02
  -1.434772e+02   3.399310e+01
  -7.750714e+01  -5.693737e+01
  -4.860021e+01  -4.719171e+01
  -3.950142e+01   2.443048e+01
  -6.982224e+01   1.699629e+01
  -6.322361e+01  -4.496627e+01
   1.826703e+01  -9.558758e+01
   7.542175e+01  -4.842006e+01
   9.772674e+01   6.230692e+01
  -4.266079e+00   1.125341e+02
  -1.457703e+02   1.009787e+02
  -2.147267e+02  -3.910614e+01
  -7.930278e+01  -2.217564e+02
   9.235894e+01  -2.446312e+02
   2.835066e+02  -7.670092e+01
   2.320650e+02   9.928387e+01
   1.230706e+02   1.896855e+02
  -5.247735e+01   1.504245e+02
  -9.570086e+01   7.407850e+01
  -3.869046e+01   6.060195e+01
  -4.062617e+01   9.820498e+01
  -9.235865e+01   6.650172e+01
  -1.782260e+02  -4.647881e+01
  -1.436939e+02  -1.572038e+02
  -2.661178e+01  -2.413077e+02
   1.121642e+02  -1.584063e+02
   1.700919e+02  -8.007822e+00
   1.276520e+02   1.294436e+02
  -2.998029e+00   1.443664e+02
  -6.759434e+01   9.204333e+01
  -6.722564e+01  -1.262708e+01
  -4.762539e+01  -6.200966e+01
  -6.138425e+00  -4.986120e+01
  -4.485677e+01  -1.173461e+01
  -4.185184e+01  -8.050393e+00
  -2.949071e+01  -2.275204e+01
   5.841669e+01  -3.397437e+01
   1.470763e+02   1.556288e+01
   1.379817e+02   6.709227e+01
   2.187298e+01   8.361685e+01
  -1.335098e+02   6.933062e+01
  -1.293267e+02   2.451663e+01
  -7.331052e+01  -1.689472e+01
   5.964751e+01  -3.880117e+01
   7.312954e+01   2.878416e+01
   2.826284e+00   5.717166e+01
  -4.391457e+01   6.875998e+01
  -5.953603e+01  -1.813108e+01
  -3.237392e+01  -7.450141e+01
  -6.036209e+01  -2.244641e+01
  -7.236055e+01  -9.161672e+00
  -7.833813e+01   1.282596e+01
  -3.301031e+01  -5.738374e+01
   2.640488e+01  -1.223336e+02
   7.897310e+01  -1.376508e+02
   1.888015e+02  -2.538599e+01
   8.905772e+01   8.877831e+01
   1.123888e+01   1.085465e+02
  -9.910838e+01   5.083467e+01
  -4.656612e+01  -3.172440e+01
   5.251224e+01  -1.825634e+01
   1.594982e+02   4.774655e+01
   5.423631e+01   1.259617e+02
  -5.480329e+01   1.294950e+02
  -1.875182e+02   3.174979e+01
  -1.594095e+02  -6.463352e+01
  -3.868186e+01  -8.057172e+01
   3.569907e+01  -8.385814e+01
   3.635149e+01  -8.813727e+00
  -4.063278e+01  -3.665866e+00
  -7.064525e+01  -1.789406e+01
  -4.532804e+01  -1.011803e+02
   9.142363e+01  -1.022373e+02
   1.705769e+02  -2.412807e+01
   1.259367e+02   8.371920e+01
   1.296554e+01   2.146150e+02
  -9.034448e+01   1.054709e+02
  -1.037073e+02  -1.820991e+01
  -6.450781e+01  -1.174519e+02
  -2.149537e+00  -9.019607e+01
   5.998260e+01  -1.117813e+01
   6.773457e+01   7.753064e+00
   4.664783e+01   3.388356e+01
   9.805752e-01   3.690251e+00
   3.201415e+01   2.254303e+01
   7.003916e+01   5.317415e+01
   1.858080e+01   9.967754e+01
  -3.471974e+01   5.951221e+01
  -1.174717e+02  -3.784338e+01
  -1.062135e+02  -7.664717e+01
  -9.595003e+00  -4.812231e+01
   9.017792e+01  -1.700448e+01
   1.306602e+02  -1.916150e+01
   1.064218e+01   9.319484e+00
  -3.709645e+01   2.139402e+00
  -2.290610e+01   1.777194e+01
   2.188613e+01   2.292507e+01
  -1.520170e+01   4.112740e-02
  -9.311499e+01  -2.405338e+01
  -9.519357e+01  -3.373622e+01
  -3.657854e+01  -8.318065e+01
   1.435749e+02  -1.049954e+02
   1.841309e+02  -5.958858e+01
   1.491157e+02   5.266494e+01
   3.032071e+01   1.412132e+02
  -8.990534e+01   1.491348e+02
  -1.112726e+02   7.435556e+01
  -6.807920e+01  -2.004336e+01
  -1.729148e+01  -6.681574e+01
   1.667163e+00  -5.017120e+01
  -1.736036e+01  -8.550958e+00
  -3.368113e+01  -3.598826e+01
  -1.563238e+01  -7.249415e+01
   2.601092e+01  -4.195601e+01
   7.145242e+01   1.369121e+00
   4.968258e+01   1.061793e+02
   2.631354e+01   1.174865e+02
  -5.015495e+01   1.034149e+01
  -7.497438e+01  -4.933517e+01
  -3.017676e+01  -1.074195e+02
   6.051821e+01  -7.640340e+01
   9.250813e+01   4.485239e+00
   3.820033e+01   4.973217e+01
  -1.842830e+01   4.042208e+01
  -1.144535e+01   5.020472e+01
   3.451864e+01   2.790865e+01
   6.015074e+01  -2.824593e+01
   2.783923e+01   2.287454e+00
  -9.483688e+01   6.727062e+01
  -1.018748e+02   5.837211e+01
  -5.911941e+01  -9.016769e+00
   6.697560e+00  -6.732502e+01
   4.678516e+01  -9.819709e+01
   4.324729e+01  -1.382156e+01
  -1.081311e+01   7.247387e+01
  -4.376981e+01   8.163585e+01
  -7.958571e+01  -3.349857e+01
  -2.107706e+01  -5.051861e+01
   9.284475e+00  -1.654196e+01
   2.789783e+01  -1.299555e+01
   3.018649e+01   3.448197e+01
  -2.911572e+00  -1.629114e+01
   1.397261e+01  -3.930798e+01
  -2.313498e+00   1.732091e+00
  -2.334814e+01   3.284404e+01
   8.655642e+00   2.057762e+01
  -2.228194e+01   1.824738e+01
  -6.473320e+00  -5.180357e+01
   6.823095e+00  -6.210187e+01
   6.050475e+01  -9.656603e+00
   1.162885e+01   5.488275e+01
   2.824911e+00   8.964097e+01
  -4.268837e+01   4.165325e+01
  -7.272530e+01  -9.653313e+00
  -5.605251e+01  -3.393074e+01
   3.155371e+01  -3.063338e+01
   6.211232e+01  -2.292618e+00
   2.610816e+01  -7.200505e+00
  -1.863762e+01  -1.423551e+01
  -2.673833e+01   5.599999e+00
   3.439316e+01  -3.074701e+01
   9.296452e+01  -3.015213e+01
