
 $NMID
 id='ANONYMOUS ', fmtdat='(2E16.6)'
 volume=1.0
 tramp=1.0
 $END
  -4.456870e+03  -4.242072e+01
  -2.572799e+03  -2.904144e+03
   1.036135e+03  -2.761638e+03
   2.313769e+03  -7.079854e+02
   9.134889e+02   8.776716e+02
  -7.794884e+02   4.870839e+02
  -9.395203e+02  -5.275874e+02
   7.045293e+01  -1.188405e+03
   8.447716e+02  -7.421189e+02
   9.474139e+02   1.608197e+02
   4.499390e+02   9.642851e+02
  -3.596879e+02   8.673183e+02
  -7.240491e+02   5.699554e+01
  -3.424916e+02  -7.878724e+02
   3.941833e+02  -7.930274e+02
   6.227231e+02   6.092072e+01
   2.261243e+02   7.286739e+02
  -4.011932e+02   6.201821e+02
  -6.061306e+02   9.982656e+01
  -3.302684e+02  -3.678122e+02
   2.377030e+01  -4.327289e+02
   2.808555e+02  -2.218336e+02
   2.192482e+02  -1.443332e+01
  -1.540063e+02   5.583817e+01
  -4.633229e+02  -1.122649e+02
  -1.986240e+02  -4.957328e+02
   4.920924e+02  -4.042686e+02
   9.279859e+02   1.021671e+02
   3.870529e+02   5.812371e+02
  -4.510187e+02   4.970024e+02
  -7.451830e+02  -7.462370e+01
  -3.476290e+02  -5.126736e+02
   3.394174e+02  -5.740195e+02
   6.374664e+02  -1.917049e+02
   4.389916e+02   2.772214e+02
   3.973773e+01   5.078545e+02
  -2.318561e+02   2.622218e+02
  -1.499459e+02  -2.884375e+02
   2.066546e+02  -5.048799e+02
   4.754123e+02   2.254365e+01
   2.270861e+02   7.507588e+02
  -3.792868e+02   7.475740e+02
  -6.345011e+02  -1.499493e+01
  -2.364755e+02  -5.788040e+02
   3.469358e+02  -3.404223e+02
   3.955944e+02   3.111257e+02
  -1.234117e+02   5.613395e+02
  -6.077437e+02   1.149281e+02
  -5.853042e+02  -4.497271e+02
  -1.696271e+02  -6.109509e+02
   4.173435e+02  -3.358046e+02
   6.904879e+02   1.229126e+02
   3.700314e+02   4.051174e+02
  -2.216122e+02   3.504261e+02
  -4.457862e+02   1.052805e+01
  -1.821143e+02  -2.400374e+02
   1.564299e+02  -1.034344e+02
   1.651589e+02   1.665229e+02
  -1.781249e+02   2.104408e+02
  -3.562779e+02  -1.122751e+02
  -1.372938e+02  -3.286500e+02
   2.107033e+02  -2.438983e+02
   3.582014e+02  -8.291706e+01
   2.053321e+02   1.242094e+02
  -2.761391e+01   2.627820e+02
  -2.287637e+02   3.398402e+02
  -3.571851e+02   2.169152e+02
  -3.405920e+02  -1.565494e+02
  -5.969037e+01  -4.882580e+02
   1.263591e+02  -3.961685e+02
   1.302716e+02  -6.115295e+01
   2.489302e-01   4.395802e+01
   3.228521e+01  -8.610992e+01
   2.331521e+02  -1.551012e+02
   2.748482e+02   2.794669e+01
   1.792158e+02   2.903297e+02
  -8.794423e+01   2.482458e+02
  -2.530768e+02   4.369165e+00
  -1.817581e+02  -2.794156e+02
   5.942851e+01  -3.123650e+02
   2.725861e+02  -1.365580e+02
   3.793650e+02   1.706911e+02
   1.967621e+02   3.744042e+02
  -1.399668e+02   3.199479e+02
  -2.237651e+02   1.203780e+02
  -1.185866e+02  -9.402644e+00
  -7.995655e+01   3.767708e+01
  -2.481382e+02   5.802331e+01
  -3.975711e+02  -5.538384e+01
  -3.482626e+02  -2.867622e+02
   5.555938e-01  -4.604274e+02
   3.792414e+02  -4.247949e+02
   4.984509e+02  -1.790342e+02
   3.663902e+02   1.361683e+02
   5.824481e+01   3.269917e+02
  -1.455157e+02   2.392988e+02
  -8.246309e+01   3.084455e+01
   1.027831e+02  -1.283455e+02
   2.098995e+02   1.341396e+01
   4.490116e+01   1.815628e+02
  -1.703446e+02   1.717878e+02
  -1.867265e+02  -6.955755e+01
   2.070820e+01  -2.542559e+02
   2.002231e+02   8.686144e+00
   1.650306e+02   2.688312e+02
  -4.668665e+01   3.696559e+02
  -2.531376e+02   1.884685e+02
  -3.276358e+02  -6.830173e+01
  -2.629239e+02  -2.584900e+02
  -1.033326e+02  -2.711172e+02
   1.297859e+02  -1.831907e+02
   1.872696e+02  -3.926077e+01
   6.821647e+01   5.055242e+01
  -8.061586e+01  -5.096061e+01
  -2.240361e+01  -1.265793e+02
   1.268688e+02  -1.088651e+02
   2.031434e+02   2.209588e+01
   5.630549e+01   6.547696e+01
  -8.043099e+01   2.371632e+01
  -5.884086e+01  -6.756244e+01
   1.030719e+02  -9.810822e+01
   3.032174e+02  -2.226862e+01
   2.637564e+02   1.396117e+02
   6.581817e+01   2.544358e+02
  -1.876243e+02   3.085822e+02
  -2.718739e+02   1.329178e+02
  -1.629388e+02  -7.946914e+01
   4.494076e+01  -1.017023e+02
   9.339355e+01  -3.113760e+01
  -4.694691e+01   9.018879e+01
  -1.799492e+02   2.404004e+01
  -2.257384e+02  -1.101508e+02
  -6.550313e+01  -2.257367e+02
   1.109486e+02  -1.534483e+02
   1.479254e+02  -8.214991e+00
   9.039595e+01   8.492656e+01
  -3.405853e+01   1.169277e+01
  -3.628000e+01  -7.902836e+01
   8.767923e+01  -1.135911e+02
   2.312535e+02  -4.550497e+01
   2.045684e+02   1.488605e+02
   2.682990e+01   2.353069e+02
  -1.835548e+02   2.017147e+02
  -2.063551e+02   1.033131e+01
  -4.222984e+01  -1.193850e+02
   8.172974e+01  -1.187327e+02
   8.559431e+01  -1.518011e+01
   6.202552e+00   4.166882e+00
  -1.749278e+01   3.048073e+01
  -5.477844e+00  -8.416265e+00
   4.498791e+01   2.281980e+01
   9.394408e+01   7.085791e+01
   3.868912e+01   1.778808e+02
  -1.328432e+02   1.379716e+02
  -2.363258e+02  -1.757205e+00
  -1.852045e+02  -1.447407e+02
  -3.918777e+01  -2.579271e+02
   9.494569e+01  -1.479859e+02
   1.628820e+02  -2.591181e+01
   7.592977e+01   6.463711e+01
   2.631871e+01   5.380870e+01
   5.185626e+01  -2.278679e+01
   1.001303e+02  -1.940859e+01
   3.749110e+01   5.035756e+01
  -1.270203e+01   9.286287e+01
  -9.137621e+01   5.230326e+01
  -6.084732e+01  -2.956187e+01
   5.116658e+00  -9.004951e+01
   1.346233e+02  -1.255961e+02
   2.006014e+02   3.330326e+01
   1.096822e+02   2.028260e+02
  -1.225490e+02   2.576611e+02
  -2.807134e+02   8.034602e+01
  -2.411423e+02  -9.152272e+01
  -1.113585e+02  -1.690456e+02
   5.067552e+01  -1.612775e+02
   7.816345e+01  -1.145039e+02
   6.138142e+01  -1.581895e+01
   6.747796e+01  -8.713419e+01
   1.221455e+02  -5.838969e+01
   1.726210e+02   4.532353e+01
   1.308873e+02   1.649563e+02
   1.017231e+01   2.263530e+02
  -1.063880e+02   1.580695e+02
  -1.906828e+02   3.188856e+01
  -1.486724e+02  -1.217742e+02
  -2.249361e+01  -1.335399e+02
   7.030223e+01  -9.306353e+01
   2.734010e+01   2.481727e+01
  -5.941372e+00   3.052388e+01
   7.528353e-02   2.695783e+01
   7.635850e+01   2.607778e+01
   6.063592e+01   2.856161e+01
   1.844184e+01   5.108465e+01
  -6.720106e+01   2.983557e+01
  -1.373871e+02   2.005083e+01
  -1.492966e+02  -5.148002e+01
  -3.928736e+01  -1.051551e+02
   1.249175e+02  -8.664935e+01
   1.403879e+02   8.003786e+00
   5.295255e+01   3.579854e+01
  -5.140509e+01   3.229550e+01
  -7.320008e+01  -4.375677e+01
  -7.559180e+00  -5.605012e+01
   5.884127e+01  -5.869120e+01
   6.096172e+01   1.120139e+01
   2.413437e+01   3.422627e+01
   4.989361e+01   1.810967e+01
   7.785991e+01  -9.490859e-01
   6.419178e+01  -8.558947e+00
   4.329871e+01   8.316350e+01
  -4.311421e+01   1.282129e+02
  -1.043765e+02   1.438091e+02
  -1.883997e+02   1.359392e+01
  -8.549557e+01  -1.040962e+02
  -1.344094e+01  -1.302960e+02
   9.141819e+01  -6.610851e+01
   6.266958e+01   2.279565e+01
  -6.629564e+01   4.557556e+01
  -1.220725e+02  -3.751927e+01
  -7.545213e+01  -1.140063e+02
   8.729319e+01  -1.260827e+02
   1.997634e+02  -4.075895e+01
   1.690761e+02   3.560941e+01
   2.542464e+01   1.076070e+02
  -5.715173e+01   7.810149e+01
  -7.903372e+01   2.344732e+01
   4.132188e+01  -3.885570e+01
   9.575845e+01   1.642934e+01
   5.399652e+01   1.215451e+02
  -1.097136e+02   1.331969e+02
  -1.668558e+02   6.015150e+01
  -1.244843e+02  -8.757608e+01
  -1.519112e+01  -1.963243e+02
   8.279253e+01  -1.396489e+02
   1.051761e+02   2.855780e+01
   6.789233e+01   1.337730e+02
  -9.396662e+00   1.156425e+02
  -5.464028e+01  -2.725694e+00
  -6.740850e+01  -2.669902e+01
  -3.945878e+01  -2.857983e+01
   1.751319e+01   2.846281e+01
  -1.420847e+01   7.506017e+00
  -5.311862e+01  -6.391372e+01
  -4.430296e+01  -1.309366e+02
   5.182626e+01  -5.947641e+01
   1.206438e+02   4.671331e+01
   1.116200e+02   7.162729e+01
   1.759763e+01   6.075540e+01
  -6.467044e+01   7.308050e+00
  -9.545202e+01   1.276705e+01
  -1.010517e+01  -1.601373e+01
   5.904690e+01  -3.323093e+01
   1.381307e+01  -7.959281e+00
  -1.870840e+01   7.136331e+00
   2.623433e+01  -8.080083e+00
   1.096377e+02  -6.273357e+00
   1.264156e+02   3.167791e+01
   1.693936e+01   8.555902e+01
  -1.404977e+02   1.093154e+02
  -1.888408e+02   3.333117e+01
  -1.316864e+02  -5.344817e+01
  -3.376807e+01  -1.666201e+02
   7.514826e+01  -1.614268e+02
   1.134436e+02  -9.691283e+01
   7.751001e+01   1.782274e+01
   1.877820e+01   4.667733e+01
  -1.984509e+01  -1.746952e+01
  -6.102782e+00   1.628403e+01
   3.366263e+01   6.226236e+01
   5.608785e+00   8.566828e+01
  -2.432540e+01   6.890850e+01
  -9.715924e+01  -3.893998e+01
  -8.393105e+01  -1.131468e+02
  -8.619128e+00  -9.287592e+01
   6.316646e+01  -2.546444e+01
   1.107398e+02   5.995586e+01
   2.093722e+01   1.187371e+02
  -6.397082e+01   7.553334e+01
  -8.896322e+01  -2.634580e+01
  -3.839648e+01  -3.806800e+01
   8.024768e+00  -4.830874e+01
   4.566050e+00  -2.952079e+01
  -3.342822e+01  -9.996677e+00
  -6.745431e+01   1.698272e+01
  -3.971323e+01  -1.296913e+00
   8.786818e+01  -6.356962e+01
   1.145275e+02  -6.994221e+01
   3.123658e+01  -7.291549e+00
  -3.198500e+01   8.064716e+01
  -6.498820e+01   5.613897e+01
  -3.872267e+01   2.613104e+01
  -1.023004e+01  -5.077400e+01
   2.055650e+01  -5.950924e+01
   6.355556e+01   1.390158e+01
   9.824733e+00   2.818316e+01
  -1.301864e+01   4.501728e+01
  -4.826037e+01  -2.041288e+01
  -2.896574e+01  -2.905819e+01
  -1.397672e+01   6.611869e+00
   1.689832e+01   1.506129e+01
  -4.527227e+00   1.399958e+01
   3.595623e+01  -4.627990e+01
   1.949320e+01  -3.209881e+01
   6.004633e+01   2.949641e+01
   2.314102e+01   4.399855e+01
  -2.361214e+01   6.960868e+01
  -3.335610e+01   2.738117e+00
  -3.776479e+01  -8.147955e+01
   5.045425e+00  -8.543079e+01
   6.368355e+01  -2.702252e+01
   8.078980e+01   3.228490e+01
   5.971527e+01   4.351136e+01
  -3.014687e+01   1.776127e+01
  -6.759497e+01  -9.437378e+00
  -2.931046e+01  -1.251524e+00
   3.305801e+01   3.077306e+01
   3.430410e+01   1.585075e+01
  -2.267770e+01   9.589668e+00
  -9.731786e+01   2.187171e+01
