
 $NMID
 id='ANONYMOUS ', fmtdat='(2E16.6)'
 volume=1.0
 tramp=1.0
 $END
  -4.272583e+03   2.891797e+02
  -2.531388e+03  -2.008141e+03
   3.167641e+02  -2.612462e+03
   1.788409e+03  -1.212802e+03
   1.019585e+03   2.377007e+02
  -4.108884e+02   4.958101e+02
  -7.326802e+02  -2.727689e+02
  -1.291985e+02  -8.714789e+02
   6.820116e+02  -7.624344e+02
   8.492900e+02  -3.965262e+01
   4.519948e+02   7.069922e+02
  -9.914698e+01   8.597773e+02
  -4.912766e+02   1.711660e+02
  -3.530776e+02  -5.422888e+02
   1.322722e+02  -6.537336e+02
   5.076928e+02  -9.538856e+01
   3.024309e+02   5.755611e+02
  -2.075600e+02   6.393715e+02
  -5.277443e+02   1.603351e+02
  -4.283940e+02  -3.138484e+02
  -9.778551e+01  -4.225702e+02
   2.154447e+02  -2.951009e+02
   1.608335e+02  -8.323545e+01
  -7.068686e+01  -2.580427e+01
  -3.106761e+02  -1.617313e+02
  -1.208894e+02  -3.554607e+02
   4.183503e+02  -3.837508e+02
   7.001447e+02   8.952176e+01
   4.139666e+02   4.178710e+02
  -3.135733e+02   4.358607e+02
  -6.290271e+02   1.325533e-01
  -2.944010e+02  -4.080205e+02
   2.431816e+02  -4.377912e+02
   5.050403e+02  -2.012696e+02
   3.642472e+02   2.026939e+02
   1.153099e+02   3.978509e+02
  -1.134738e+02   2.836940e+02
  -8.244928e+01  -1.602758e+02
   1.485675e+02  -3.086243e+02
   3.745129e+02   2.035708e+01
   2.236409e+02   5.837461e+02
  -2.236808e+02   6.598242e+02
  -4.938834e+02   4.657764e+01
  -2.467642e+02  -4.637946e+02
   2.448291e+02  -2.623937e+02
   3.446690e+02   2.677736e+02
  -4.087390e+01   4.527113e+02
  -4.863739e+02   1.381256e+02
  -5.626494e+02  -3.790381e+02
  -1.890086e+02  -5.356001e+02
   3.453483e+02  -3.330871e+02
   5.562951e+02   5.439987e+01
   3.672322e+02   3.176307e+02
  -8.498331e+01   3.229095e+02
  -3.651770e+02   1.201157e+02
  -2.258784e+02  -1.455732e+02
   5.605630e+01  -5.435797e+01
   1.423622e+02   9.838555e+01
  -1.441560e+02   1.664632e+02
  -2.841065e+02  -2.925695e+01
  -1.401928e+02  -2.427231e+02
   1.958463e+02  -2.715512e+02
   3.113849e+02  -1.279893e+02
   1.723868e+02   1.519339e+02
  -5.080230e+01   2.593023e+02
  -2.483747e+02   3.281559e+02
  -3.254783e+02   1.832692e+02
  -2.636741e+02  -1.434575e+02
  -7.925876e+01  -4.109144e+02
   9.443809e+01  -3.632295e+02
   7.433112e+01  -1.509837e+02
   4.692484e+01  -5.137070e+01
   9.563626e+01  -7.977714e+01
   2.160216e+02  -1.229473e+02
   2.665184e+02   7.254544e+01
   1.372562e+02   2.447155e+02
  -5.766003e+01   2.515201e+02
  -2.098643e+02   9.935401e+00
  -1.693065e+02  -2.227099e+02
  -5.874183e-01  -2.588191e+02
   2.519337e+02  -1.311771e+02
   3.138074e+02   1.343156e+02
   1.889863e+02   2.721091e+02
  -6.262354e+01   2.733254e+02
  -1.937453e+02   1.401599e+02
  -1.516042e+02   3.659820e+01
  -1.333555e+02   4.422966e+01
  -2.483856e+02   8.660363e+01
  -4.256579e+02  -5.241419e+01
  -3.490022e+02  -2.986679e+02
   6.106957e+00  -4.190397e+02
   3.569537e+02  -3.896767e+02
   4.925382e+02  -1.998869e+02
   3.068608e+02   8.468554e+01
   4.942515e+01   2.917619e+02
  -9.343713e+01   2.580261e+02
  -6.391160e+01   5.950632e+01
   9.691130e+01  -6.836820e+01
   1.463426e+02   1.886943e+01
   3.740648e+01   1.728811e+02
  -1.378345e+02   1.586134e+02
  -1.714991e+02  -5.918552e+01
   1.379957e+01  -1.871354e+02
   1.614695e+02  -4.844712e+01
   1.617557e+02   2.413201e+02
  -2.668442e+01   3.618284e+02
  -2.264963e+02   1.797557e+02
  -3.363492e+02  -3.635475e+01
  -2.759881e+02  -2.435099e+02
  -9.830882e+01  -2.581089e+02
   1.206370e+02  -1.608230e+02
   1.424661e+02   3.291694e+00
   4.685740e+01   3.400594e+01
  -5.885672e+01  -4.665662e+01
  -1.132201e+00  -1.297364e+02
   1.288707e+02  -7.034450e+01
   1.510684e+02   6.172780e+00
   4.501339e+01   3.706760e+01
  -4.337691e+01   3.262627e+01
  -5.616487e+01  -6.993614e+01
   1.262940e+02  -7.724233e+01
   2.741121e+02  -3.329365e+00
   2.489212e+02   1.415453e+02
   4.373676e+01   2.389469e+02
  -1.892304e+02   2.429311e+02
  -2.525722e+02   1.166444e+02
  -1.667003e+02  -3.746274e+01
   1.222553e+01  -1.096223e+02
   6.718152e+01  -4.678212e+00
  -3.574220e+01   9.426061e+01
  -1.611721e+02   4.919767e+01
  -2.109734e+02  -9.922736e+01
  -9.464604e+01  -1.832777e+02
   8.721728e+01  -1.665444e+02
   1.272352e+02  -3.169865e+01
   9.598872e+01   3.277128e+01
  -2.793342e+01   1.581776e+01
  -4.127868e+01  -9.321054e+01
   7.841589e+01  -1.304863e+02
   2.050398e+02  -3.824960e+01
   1.768541e+02   9.668949e+01
   5.728847e+01   2.120323e+02
  -1.534366e+02   1.474935e+02
  -1.630531e+02  -9.784661e+00
  -5.470169e+01  -1.168837e+02
   7.528553e+01  -1.115648e+02
   7.145086e+01  -4.424447e+01
   3.346041e+01  -1.095420e+01
  -3.638705e+01   1.750249e+01
  -8.694592e+00  -2.226600e+01
   8.830324e+01   3.430410e+01
   8.187511e+01   9.627337e+01
  -1.341925e+00   1.908765e+02
  -1.151085e+02   1.502155e+02
  -2.346265e+02   3.014635e+01
  -1.982530e+02  -1.201161e+02
  -6.250613e+01  -2.455106e+02
   1.181400e+02  -1.670707e+02
   1.629692e+02  -4.205150e+01
   7.463265e+01   5.010721e+01
   4.251475e+01   4.253443e+01
   3.686602e+01  -2.207475e+01
   1.128325e+02  -1.631441e+01
   5.729468e+01   4.416940e+01
  -6.606862e+01   8.753489e+01
  -1.444420e+02   7.264208e+01
  -1.005666e+02  -7.032844e+01
   2.469175e+01  -1.364344e+02
   1.635769e+02  -8.476783e+01
   2.113713e+02   6.837402e+01
   9.185835e+01   2.234644e+02
  -1.203227e+02   2.265976e+02
  -2.775447e+02   9.334027e+01
  -2.674861e+02  -1.181677e+02
  -9.927240e+01  -1.653605e+02
   5.366628e+01  -1.328370e+02
   6.753838e+01  -8.828798e+01
   6.028481e+01  -4.253725e+01
   7.697253e+01  -9.249191e+01
   1.163178e+02  -7.240984e+01
   1.489518e+02   7.877046e+00
   1.317527e+02   1.248962e+02
   4.567005e+01   2.297725e+02
  -1.104588e+02   1.423204e+02
  -1.920483e+02   5.261868e+01
  -1.641391e+02  -1.140727e+02
  -2.080182e+01  -1.336066e+02
   7.909125e+01  -6.891061e+01
   3.809926e+01   2.746833e+01
  -1.427635e+01   4.034224e+01
  -1.939909e+01   3.531249e+01
   3.520564e+01   2.294427e+01
   6.506457e+01   1.423548e+01
   3.603707e+01   3.274551e+01
  -7.358572e+01   2.580289e+01
  -1.324405e+02   4.815713e+00
  -1.434309e+02  -4.613490e+01
  -1.496762e+01  -1.096620e+02
   1.314826e+02  -7.716208e+01
   1.577165e+02  -9.021991e+00
   7.177647e+01   7.115218e+01
  -6.075033e+01   5.132887e+01
  -7.003771e+01  -2.595956e+01
  -2.584543e+00  -8.121622e+01
   8.247689e+01  -5.871793e+01
   9.356724e+01  -8.411846e-01
   5.618508e+01   3.752178e+01
   4.674969e+01   4.472133e+01
   5.135280e+01   1.146415e+01
   7.805948e+01   9.435957e+00
   4.593195e+01   6.919989e+01
  -3.321248e+01   1.378464e+02
  -1.285984e+02   1.249249e+02
  -1.599349e+02   1.643753e+01
  -1.134712e+02  -9.461920e+01
  -4.594318e+00  -1.321083e+02
   8.191006e+01  -8.326916e+01
   4.726495e+01  -2.396750e+01
  -3.906169e+01   1.673271e+01
  -1.320431e+02  -4.164441e+01
  -4.293046e+01  -9.658987e+01
   6.252844e+01  -1.004008e+02
   1.730946e+02  -5.230829e+01
   1.676693e+02   7.651504e+00
   3.167325e+01   7.030516e+01
  -2.186625e+01   5.566767e+01
  -2.305535e+01   2.067203e+00
   5.036379e+01  -2.824776e+01
   7.496068e+01   2.024912e+01
   1.829605e+01   9.802465e+01
  -9.624328e+01   1.200466e+02
  -1.627305e+02   6.560082e+01
  -1.395882e+02  -8.880423e+01
  -2.627044e+01  -1.912728e+02
   1.001931e+02  -1.714318e+02
   1.129918e+02   2.194108e+01
   8.208549e+01   9.995287e+01
  -4.602455e-01   1.101708e+02
  -5.471523e+01   2.007866e+01
  -3.822099e+01  -3.265095e+01
  -3.955998e+01  -1.612659e+01
  -7.601284e+00  -5.110735e+00
  -1.917886e+01   4.155935e+00
  -5.515308e+01  -9.197843e+01
  -3.278618e+01  -1.169770e+02
   4.847427e+01  -3.860350e+01
   1.313121e+02   3.361557e+01
   1.199182e+02   6.447912e+01
   3.561845e+01   5.197668e+01
  -7.382432e+01   2.385446e+01
  -8.091712e+01   2.465055e+01
  -1.747386e+01  -2.873168e+01
   5.476848e+01   3.966165e+00
   1.816846e+01  -4.128059e+01
  -4.270776e+00  -3.318915e+00
  -1.458223e+01  -5.158870e+00
   4.498346e+01   2.702854e+00
   7.054382e+01   4.362205e+01
   3.292577e-01   5.540352e+01
  -1.303812e+02   1.150660e+02
  -1.534782e+02   4.227517e+01
  -1.550848e+02  -3.016061e+01
  -3.848734e+01  -1.576021e+02
   6.468644e+01  -1.579564e+02
   1.020574e+02  -7.493834e+01
   1.017284e+02   6.538183e+00
   3.448967e+01   2.292956e+01
  -3.135383e+00   3.695062e+01
  -1.042590e+01  -4.609394e-01
   3.579159e+01   2.568126e+01
   4.350684e+01   8.588122e+01
  -2.396418e+01   5.136162e+01
  -8.191777e+01  -9.941595e+00
  -1.043955e+02  -1.045578e+02
  -1.193201e+00  -1.127706e+02
   4.533587e+01  -2.154493e+01
   9.973537e+01   8.309737e+01
   3.296013e+01   1.099138e+02
  -6.674433e+01   6.044188e+01
  -1.077930e+02   1.589838e+01
  -3.858273e+01  -7.200283e+01
   5.040146e+01  -6.127206e+01
   4.004333e+01  -3.690129e+01
  -2.800867e+01  -2.075085e+01
  -7.342852e+01   2.939375e+01
  -1.402006e+01  -2.051265e+01
   7.252312e+01  -7.280615e+01
   1.117175e+02  -5.973872e+01
   6.206778e+01   4.064228e+00
  -8.344581e+00   9.409813e+01
  -7.224745e+01   7.457930e+01
  -1.820958e+01   2.478409e+00
   9.137286e+00  -5.900231e+01
   4.588519e+01  -3.927612e+01
   4.614872e+01  -3.482098e+00
   4.380853e+01   3.077726e+01
   3.949783e+00   3.626926e+01
  -5.415673e+01  -1.081178e+01
  -3.354119e+01  -4.191185e+01
  -1.625810e+01  -9.498619e-01
   7.819866e+00   1.241250e+00
  -4.744064e+00   9.567684e+00
  -1.025520e+00  -3.377991e+01
   2.155583e+01  -8.017314e+01
   3.264945e+01  -2.723882e+01
   3.951909e+01   3.162232e+01
  -7.935417e-01   6.639588e+01
  -6.686796e+01  -7.517255e+00
  -7.547651e+01  -5.212051e+01
   6.675946e+00  -6.439006e+01
   5.466789e+01  -2.463914e+01
   7.803394e+01   1.617812e+01
   5.222981e+01   1.732838e+01
  -3.800125e+01   2.303486e+01
  -5.791842e+01   1.161572e+01
  -4.198098e+01  -1.764041e+01
   3.528122e+01   5.642890e+00
   2.267415e+01   3.877464e+01
  -1.299269e+01   1.855345e+01
  -7.724673e+01   2.576793e+00
