
 $NMID
 id='ANONYMOUS ', fmtdat='(2E16.6)'
 volume=1.0
 tramp=1.0
 $END
  -3.337311e+03  -7.615480e+01
  -2.133314e+03  -1.647088e+03
   3.852179e+01  -1.829306e+03
   1.121148e+03  -1.185192e+03
   8.135034e+02  -2.971839e+02
   1.474600e+02   1.512728e+01
  -2.842514e+02  -1.261266e+02
   3.593503e+00  -4.639377e+02
   4.413944e+02  -4.590050e+02
   5.577534e+02  -2.398707e+01
   3.761266e+02   4.332440e+02
   7.060659e+00   5.815210e+02
  -2.348197e+02   1.377702e+02
  -2.031001e+02  -3.914400e+02
   1.327839e+02  -4.979238e+02
   3.116529e+02  -2.557721e+01
   2.325319e+02   4.601454e+02
  -6.997036e+01   5.250287e+02
  -3.874685e+02   2.669569e+02
  -3.595347e+02  -1.502222e+02
  -1.559185e+02  -3.213014e+02
   1.235512e+02  -2.100285e+02
   1.409860e+01  -9.403161e+01
  -1.595234e+02  -1.234390e+02
  -2.428235e+02  -2.343071e+02
   4.625028e+01  -3.174018e+02
   4.742288e+02  -1.269277e+02
   5.297173e+02   1.984540e+02
   1.580849e+02   3.605365e+02
  -3.646951e+02   1.493213e+02
  -4.416785e+02  -1.871901e+02
  -1.401963e+02  -3.547695e+02
   3.165388e+02  -2.954684e+02
   4.375681e+02  -1.056324e+02
   2.785661e+02   1.572026e+02
   4.216756e+01   2.620640e+02
  -4.146159e+01   1.347725e+02
   6.550154e+01  -7.906065e+01
   2.047273e+02  -1.213469e+02
   1.900868e+02   1.733708e+02
  -4.711864e+01   5.135629e+02
  -2.906703e+02   3.571421e+02
  -3.400554e+02  -6.904684e+01
  -8.169183e+01  -3.478836e+02
   1.946369e+02  -1.359595e+02
   1.466322e+02   3.352991e+02
  -1.496968e+02   3.551061e+02
  -4.138898e+02  -5.165127e+00
  -4.542010e+02  -3.578423e+02
  -7.721228e+01  -4.615109e+02
   3.161293e+02  -2.134299e+02
   4.596837e+02   7.480679e+01
   2.735656e+02   2.596689e+02
  -8.115495e+01   1.840721e+02
  -2.563059e+02   6.843542e+01
  -1.725641e+02  -2.820987e+01
  -9.490908e+00  -2.571155e+01
   2.561870e+01   6.396086e+01
  -1.417060e+02   4.958725e+01
  -2.139303e+02  -8.523835e+01
  -9.950458e+01  -2.178499e+02
   1.492385e+02  -2.078572e+02
   2.924797e+02  -1.389614e+02
   2.314756e+02   1.348001e+02
  -4.215410e+01   2.632709e+02
  -2.953695e+02   3.466743e+02
  -3.319269e+02   1.571573e+02
  -2.311555e+02  -1.841751e+02
  -8.187679e+01  -3.542826e+02
   3.411207e+01  -2.740860e+02
   1.782663e+01  -1.441495e+02
   9.588648e+00  -1.442664e+02
   1.461312e+02  -1.032153e+02
   2.588525e+02  -5.845063e+01
   2.355603e+02   1.111766e+02
   8.476721e+01   2.675609e+02
  -1.184234e+02   2.087446e+02
  -1.604816e+02  -5.147676e+01
  -1.332558e+02  -2.437467e+02
   7.422187e+01  -2.241925e+02
   2.343572e+02  -3.799531e+01
   2.732016e+02   2.099575e+02
   1.628993e+02   2.961025e+02
  -5.796988e+01   2.463863e+02
  -1.529012e+02   1.416441e+02
  -1.188020e+02   7.682344e+01
  -1.409875e+02   7.620159e+01
  -2.640309e+02   2.507205e+01
  -3.961556e+02  -1.021474e+02
  -2.833931e+02  -3.200672e+02
   3.200475e+01  -4.106965e+02
   3.535770e+02  -3.622564e+02
   4.839331e+02  -1.657431e+02
   2.922395e+02   1.178377e+02
   2.813533e+01   2.680966e+02
  -8.877196e+01   1.861550e+02
  -1.585305e+01  -1.414851e+01
   1.384953e+02  -4.130395e+01
   1.300218e+02   6.580439e+01
   1.680015e+01   1.610676e+02
  -1.278839e+02   1.010452e+02
  -1.035093e+02  -8.622240e+01
   8.134890e+01  -1.130316e+02
   1.531960e+02  -1.001553e+01
   1.080443e+02   2.583700e+02
  -5.254998e+01   3.172365e+02
  -2.067305e+02   1.954048e+02
  -3.331267e+02  -4.748239e+01
  -2.443361e+02  -2.509024e+02
  -6.081575e+01  -2.877418e+02
   1.464315e+02  -1.300006e+02
   1.418683e+02  -1.530590e+00
   4.360600e+01   3.475360e+01
  -5.960766e+01  -3.871423e+01
   1.886731e+01  -1.231788e+02
   1.340586e+02  -5.390629e+01
   1.313057e+02   7.004344e+01
   2.191342e+01   5.856946e+01
  -9.425667e+01  -3.398857e+01
  -2.696247e+01  -1.101349e+02
   1.416628e+02  -9.915304e+01
   2.951671e+02   3.981068e+01
   2.326838e+02   1.807363e+02
   4.584073e-02   2.635212e+02
  -2.428542e+02   2.310834e+02
  -2.514220e+02   9.781002e+01
  -1.218641e+02  -5.946855e+01
   1.011149e+01  -7.478437e+01
   7.737796e+01  -4.517423e+00
  -2.715101e+01   7.499379e+01
  -2.030860e+02   9.537666e+00
  -1.842345e+02  -1.487040e+02
  -5.057455e+01  -1.688746e+02
   7.810667e+01  -9.646019e+01
   8.160648e+01  -1.751985e+01
   3.086774e+01   2.347794e+01
  -1.103138e+01  -1.930298e+01
  -2.024838e+01  -1.613983e+02
   1.042552e+02  -1.154222e+02
   2.115830e+02  -4.667915e-01
   1.641746e+02   1.572523e+02
   7.601545e+00   1.950890e+02
  -1.509252e+02   1.263791e+02
  -1.632388e+02  -2.266213e+00
  -7.004293e+01  -8.478162e+01
   6.047285e+01  -8.629553e+01
   6.555041e+01  -2.168286e+01
   1.932669e+01   3.406557e+01
  -1.627564e+01  -5.399844e+00
   1.054029e+01  -3.265580e+01
   7.183531e+01  -1.548740e-01
   9.991345e+01   9.601505e+01
   2.401548e+00   1.855944e+02
  -1.367319e+02   1.411743e+02
  -2.270216e+02  -4.256690e+00
  -1.562186e+02  -1.456207e+02
  -1.740391e+01  -2.141384e+02
   1.199525e+02  -1.627497e+02
   1.134044e+02  -2.434714e+01
   4.695597e+01   3.456111e+01
   3.473952e+01   3.097240e+01
   3.113886e+01  -2.226771e+01
   8.206507e+01  -5.735674e+00
   6.778454e+01   5.583289e+01
  -5.721699e+01   1.099855e+02
  -1.238859e+02   6.531542e+01
  -1.177170e+02  -4.204685e+01
  -2.058500e+01  -1.404237e+02
   1.549623e+02  -9.519352e+01
   2.054661e+02   7.615575e+01
   8.525473e+01   2.142241e+02
  -1.267652e+02   2.530621e+02
  -2.718092e+02   7.835449e+01
  -2.637769e+02  -1.009998e+02
  -7.999438e+01  -1.864402e+02
   8.550309e+01  -1.403275e+02
   1.220850e+02  -7.160425e+01
   5.531514e+01  -7.193490e+01
   7.165960e+01  -8.793258e+01
   1.062356e+02  -7.898837e+01
   1.257648e+02   4.144091e+01
   1.130408e+02   1.689409e+02
   2.085319e+01   2.000974e+02
  -1.086839e+02   1.591869e+02
  -1.532036e+02   1.571267e+01
  -1.071775e+02  -1.181007e+02
   8.771896e+00  -1.443231e+02
   6.081739e+01  -6.504933e+01
   6.470626e+01   7.860846e-02
   3.863721e+00   3.276050e+01
  -2.728782e+01   4.642394e+01
   4.070984e+01   2.835717e+01
   8.299801e+01   1.947172e+01
   4.249107e+01   4.987167e+01
  -6.022769e+01   2.181104e+01
  -1.464467e+02   8.146296e+00
  -1.681010e+02  -8.431824e+01
  -1.979557e+01  -8.839371e+01
   1.128923e+02  -6.753740e+01
   1.490545e+02  -3.121075e+01
   3.145946e+01   5.429873e+01
  -8.579705e+01   3.670148e+01
  -7.350587e+01  -1.852396e+01
  -2.550759e+01  -9.808240e+01
   7.235105e+01  -6.138536e+01
   7.409623e+01  -2.937119e+00
   3.616775e+01   4.948178e+01
   5.908678e+01   3.701542e+01
   7.105562e+01  -3.304416e+00
   5.346286e+01   3.382093e+01
   2.335389e+01   9.101234e+01
  -1.731344e+01   1.602511e+02
  -9.610111e+01   1.264600e+02
  -1.781171e+02   1.195353e+01
  -1.305095e+02  -1.274691e+02
  -6.009317e+00  -1.425436e+02
   7.919591e+01  -5.435417e+01
   6.068996e+01   1.019902e+01
  -8.476769e+01   2.251616e+00
  -1.420014e+02  -4.252555e+01
  -6.160619e+01  -1.326309e+02
   6.623986e+01  -9.700302e+01
   1.776740e+02  -3.885962e+01
   1.691503e+02   6.253385e+01
   3.439260e+01   7.554645e+01
  -8.361427e+01   7.436800e+01
  -5.214260e+01   6.150263e+00
   5.753353e+01  -2.544205e+01
   9.196303e+01  -6.353752e+00
   3.304434e+01   1.103146e+02
  -8.759338e+01   1.507379e+02
  -1.592090e+02   7.072277e+01
  -1.429263e+02  -8.875314e+01
   3.437134e+01  -1.962656e+02
   6.954842e+01  -1.214298e+02
   1.013895e+02   2.365141e+01
   4.594874e+01   1.331111e+02
  -1.390169e+01   1.050722e+02
  -5.049144e+01   3.687468e+00
  -1.489828e+01  -6.222054e+01
  -2.892603e+01   5.983008e+00
  -5.850197e+00   2.114508e+01
  -3.025927e+01  -3.614834e+01
  -6.312526e+01  -9.932953e+01
  -3.201843e+01  -1.170939e+02
   7.733208e+01  -1.714019e+01
   1.278700e+02   6.563482e+01
   1.295525e+02   6.580389e+01
   2.081939e+01   5.897390e+01
  -9.202392e+01   3.035077e+01
  -8.778602e+01  -3.966225e+00
  -1.942505e+01  -2.053731e+01
   3.208534e+01   7.863674e+00
   3.248917e+01  -3.577559e+00
  -1.178354e+01  -1.534462e-01
  -1.390886e+01   2.439816e+01
   3.302303e+01  -1.645597e+01
   7.006730e+01   2.750111e+01
   4.396978e+01   5.443072e+01
  -1.318827e+02   1.236124e+02
  -1.829354e+02   7.233354e+01
  -1.666917e+02  -6.851342e+01
  -2.272751e+01  -1.501338e+02
   6.328688e+01  -1.539039e+02
   1.034716e+02  -5.682896e+01
   8.188044e+01   1.015487e+01
   1.684124e+01   5.490585e+01
   1.036088e+01  -2.947148e+00
   3.163216e+00  -2.990641e-01
   3.014624e+01   1.854799e+01
   3.886792e+01   9.843467e+01
  -4.386480e+01   7.287435e+01
  -5.451445e+01  -1.741452e+01
  -8.836851e+01  -8.788931e+01
  -1.705552e+01  -1.033773e+02
   5.742321e+01  -5.141360e+01
   1.282142e+02   5.404692e+01
   3.957625e+01   9.500649e+01
  -5.923387e+01   5.873235e+01
  -9.074499e+01  -1.123321e+01
  -4.357234e+01  -8.799204e+01
   5.349214e+01  -4.552645e+01
   5.616781e+01  -1.671080e+01
   1.280421e+01   7.635502e+00
  -5.288934e+01   2.961206e+01
  -3.352935e+01  -3.483806e+01
   6.084549e+01  -7.780904e+01
   1.077467e+02  -3.328586e+01
   7.281042e+01   4.767754e+00
   3.198804e+00   7.601895e+01
  -5.630689e+01   9.506768e+01
  -2.661051e+01   1.453214e+01
   4.892231e+00  -2.168891e+01
   2.246679e+01  -6.086461e+01
   2.003983e+01   8.345006e-01
   2.751560e+01   6.268495e+01
  -9.939328e+00   4.501090e+01
  -2.424373e+01   3.378534e+01
  -4.449006e+01  -1.433960e+01
  -1.112367e+01  -1.836960e+01
  -5.260651e+00   5.396447e+01
   8.854466e+00   1.385555e+01
   1.296011e-01  -3.593270e+01
  -1.768713e+00  -6.785196e+01
   2.179211e+01  -2.961588e+01
   3.865407e+01   2.803178e+01
   6.960206e+00   7.870036e+01
  -6.992942e+01   1.645744e+01
  -8.508007e+01  -3.693942e+01
  -2.759255e+01  -7.053963e+01
   7.515953e+01  -4.960874e+01
   1.034422e+02  -9.991560e+00
   5.409388e+01   3.814589e+01
  -2.266574e+01   6.098877e+01
  -6.297701e+01   5.246822e+01
  -2.336853e+01   3.903024e+01
   2.485995e+01  -4.201567e+00
   4.010475e+01   5.404995e+00
  -2.962544e+01   1.241988e+01
  -7.682257e+01   5.693855e+00
