
 $NMID
 id='ANONYMOUS ', fmtdat='(2E16.6)'
 volume=1.0
 tramp=1.0
 $END
  -3.999008e+03  -5.591536e+01
  -2.305290e+03  -2.194783e+03
   5.076102e+02  -2.546998e+03
   1.865624e+03  -1.012512e+03
   1.021889e+03   2.639461e+02
  -5.135075e+02   5.062509e+02
  -7.324788e+02  -2.709438e+02
  -9.108134e+01  -9.768646e+02
   7.223226e+02  -8.029925e+02
   9.129943e+02   4.374556e+01
   4.983254e+02   8.664411e+02
  -2.163072e+02   8.352394e+02
  -5.624880e+02   1.107822e+02
  -3.621065e+02  -6.651345e+02
   2.143477e+02  -7.673411e+02
   5.763139e+02  -6.712674e+00
   3.282314e+02   6.658261e+02
  -2.849239e+02   6.943656e+02
  -5.720926e+02   1.797666e+02
  -4.957556e+02  -3.372464e+02
  -1.737862e+01  -4.539626e+02
   2.364559e+02  -2.398821e+02
   1.954765e+02   2.693284e+00
  -1.975677e+02   9.259933e+01
  -3.945839e+02  -1.732868e+02
  -1.953125e+02  -4.477309e+02
   4.835261e+02  -4.124980e+02
   8.795132e+02   8.603241e+01
   4.100398e+02   5.219125e+02
  -4.073137e+02   4.323092e+02
  -6.855006e+02  -2.215594e+01
  -3.536722e+02  -4.926521e+02
   2.751421e+02  -5.353330e+02
   5.943271e+02  -1.736813e+02
   4.181987e+02   1.952996e+02
   8.992845e+01   4.500352e+02
  -1.821139e+02   2.708850e+02
  -9.277239e+01  -2.494067e+02
   2.075689e+02  -3.914988e+02
   4.439544e+02   2.440559e+01
   1.880865e+02   6.100251e+02
  -3.353484e+02   6.916469e+02
  -5.470044e+02   3.631357e+00
  -1.802531e+02  -4.402825e+02
   2.329936e+02  -2.877285e+02
   3.666395e+02   2.791349e+02
  -7.750397e+01   5.237056e+02
  -5.483936e+02   1.834089e+02
  -5.913077e+02  -3.667958e+02
  -1.962727e+02  -5.867441e+02
   3.426947e+02  -3.427606e+02
   6.082866e+02   7.373797e+01
   3.918617e+02   3.315010e+02
  -1.464643e+02   3.386180e+02
  -3.989861e+02   7.583470e+01
  -2.156404e+02  -1.564278e+02
   9.535992e+01  -1.074370e+02
   1.518897e+02   8.294105e+01
  -1.310289e+02   1.490165e+02
  -2.982182e+02  -1.608882e+01
  -1.381345e+02  -2.603497e+02
   1.876923e+02  -2.693906e+02
   3.440291e+02  -9.012693e+01
   2.286734e+02   7.874493e+01
  -9.471709e+00   2.543982e+02
  -2.374305e+02   3.546777e+02
  -3.412616e+02   1.763793e+02
  -2.756717e+02  -1.813593e+02
  -6.146780e+01  -4.196692e+02
   6.862294e+01  -3.733846e+02
   8.658663e+01  -1.241652e+02
   1.459452e+01  -4.004725e+01
   6.140855e+01  -7.169414e+01
   1.936138e+02  -1.004140e+02
   2.699846e+02   5.222454e+01
   1.649589e+02   2.555528e+02
  -6.593193e+01   2.610890e+02
  -2.208806e+02   8.283117e+00
  -1.938125e+02  -2.326517e+02
  -1.089610e+01  -2.728358e+02
   2.721340e+02  -1.107529e+02
   3.639946e+02   1.560545e+02
   1.982086e+02   3.191195e+02
  -9.578399e+01   2.898872e+02
  -2.066985e+02   1.488009e+02
  -1.462505e+02  -3.395090e+00
  -9.531049e+01   4.564396e+01
  -2.348442e+02   6.032029e+01
  -4.135757e+02  -6.432551e+01
  -3.187047e+02  -2.713334e+02
   3.698825e+00  -4.608476e+02
   3.770359e+02  -4.393527e+02
   4.695764e+02  -2.080565e+02
   3.325739e+02   9.367365e+01
   4.435232e+01   3.100749e+02
  -1.406097e+02   2.742267e+02
  -4.902824e+01   2.067547e+01
   1.050795e+02  -1.135240e+02
   1.480221e+02   2.390366e+00
   2.530902e+01   1.641389e+02
  -1.138239e+02   1.702546e+02
  -1.584430e+02  -3.942932e+01
   4.210245e+01  -1.695256e+02
   2.011550e+02  -5.423626e+01
   1.709547e+02   2.695589e+02
  -1.324658e+01   3.610075e+02
  -2.149648e+02   2.163599e+02
  -3.351722e+02  -3.009914e+01
  -2.899444e+02  -2.886791e+02
  -7.072865e+01  -2.578355e+02
   1.137676e+02  -1.649040e+02
   1.277489e+02   4.527070e+00
   7.307676e+01   2.782950e+01
  -8.761400e+01  -3.605231e+01
  -7.569854e+00  -1.554410e+02
   1.219659e+02  -1.096096e+02
   1.379782e+02   2.909579e+01
   5.316957e+01   6.113160e+01
  -9.617861e+01   5.981342e-01
  -5.317485e+01  -9.101036e+01
   1.230246e+02  -8.665849e+01
   2.806207e+02   1.506648e+01
   2.767369e+02   1.358409e+02
   6.938827e+01   2.483823e+02
  -1.728545e+02   2.715869e+02
  -2.606127e+02   1.033608e+02
  -1.465510e+02  -4.904206e+01
   1.361659e+01  -9.771149e+01
   9.819386e+01  -1.350675e+01
  -3.527813e+01   9.060006e+01
  -1.969682e+02   5.728648e+01
  -2.090814e+02  -1.059354e+02
  -8.442642e+01  -2.287453e+02
   5.816223e+01  -1.037425e+02
   1.502156e+02  -3.361943e+01
   6.461318e+01   3.533776e+01
  -3.574694e+01  -4.592952e-01
  -4.503104e+01  -9.831221e+01
   8.356184e+01  -1.227042e+02
   1.922284e+02  -8.444949e+00
   1.943376e+02   1.076535e+02
   1.357538e+01   1.964416e+02
  -1.432960e+02   1.520187e+02
  -1.757011e+02   3.564074e+01
  -8.675783e+01  -1.010245e+02
   8.196079e+01  -1.223075e+02
   1.209785e+02  -5.278434e+00
   2.764300e+01   3.732632e+01
  -2.779045e+01   1.321864e+01
  -8.674099e+00  -1.438454e+01
   7.724736e+01   3.062450e+01
   1.179055e+02   8.167510e+01
   3.020734e+01   1.357354e+02
  -1.477970e+02   1.423169e+02
  -2.232873e+02   2.968205e+01
  -1.888747e+02  -1.351915e+02
  -3.846555e+01  -2.323929e+02
   1.008450e+02  -1.600758e+02
   1.241727e+02  -2.170113e+00
   5.296186e+01   5.712545e+01
   3.148886e+01   4.721877e+01
   5.717912e+01  -3.211447e+01
   8.036505e+01  -1.458521e+01
   4.602897e+01   4.856905e+01
  -3.385724e+01   1.066322e+02
  -1.122961e+02   5.433404e+01
  -8.889888e+01  -2.212498e+01
   1.377635e+01  -1.354077e+02
   1.457009e+02  -1.068486e+02
   2.040809e+02   5.695266e+01
   1.204447e+02   2.046949e+02
  -7.807964e+01   2.582759e+02
  -2.284701e+02   1.101262e+02
  -2.359275e+02  -6.687608e+01
  -1.102425e+02  -1.749910e+02
   5.392932e+01  -1.699850e+02
   8.726294e+01  -8.275932e+01
   8.617567e+01  -8.802802e+01
   6.812034e+01  -9.506002e+01
   7.219731e+01  -5.221789e+01
   1.256308e+02   4.533447e+00
   1.158784e+02   1.423922e+02
   5.516858e+01   2.335579e+02
  -7.873649e+01   1.686160e+02
  -1.689934e+02   3.173307e+01
  -1.254984e+02  -1.338226e+02
  -6.663088e+00  -1.556462e+02
   8.822245e+01  -1.114456e+02
   6.795884e+01   2.796906e+01
   1.757874e+01   3.747491e+01
  -1.089908e+01   4.712685e+01
   3.830218e+01   7.976020e+00
   1.034705e+02   5.940112e+00
   5.234321e+01   1.861295e+01
  -4.184807e+01   3.691624e+01
  -1.648604e+02   1.222796e+00
  -1.424290e+02  -8.322958e+01
  -4.580356e+00  -9.432422e+01
   1.291067e+02  -7.262085e+01
   1.315232e+02  -1.881818e+00
   2.876706e+01   4.017072e+01
  -9.642989e+01   5.400153e+01
  -6.063736e+01  -2.229364e+01
  -4.385920e+00  -9.765707e+01
   5.213931e+01  -6.504892e+01
   5.713466e+01   1.304169e+01
   3.760775e+01   5.507099e+01
   6.479708e+01   3.370166e+01
   5.270805e+01   1.490510e+00
   5.733609e+01   1.636740e+01
   3.626969e+01   7.986076e+01
  -3.618720e+01   1.484694e+02
  -1.057044e+02   1.396453e+02
  -1.467597e+02   9.505197e+00
  -1.228138e+02  -9.500663e+01
  -2.947063e+00  -1.092815e+02
   6.551240e+01  -5.601926e+01
   5.749408e+01   3.290801e+01
  -4.734975e+01   2.695796e+01
  -1.388775e+02  -7.018829e+01
  -5.258990e+01  -1.146999e+02
   7.108617e+01  -8.760559e+01
   1.938926e+02  -6.066102e+01
   1.603656e+02   6.700990e+01
   4.184893e+01   6.714777e+01
  -3.265195e+01   7.750138e+01
  -4.559081e+01   8.956790e+00
   5.957735e+01  -3.205238e+01
   1.067646e+02   2.066663e+01
   2.945667e+01   1.201352e+02
  -9.385915e+01   1.588904e+02
  -1.523106e+02   7.030901e+01
  -1.528979e+02  -6.678383e+01
  -1.309947e+01  -1.889744e+02
   5.618978e+01  -1.007356e+02
   1.149998e+02  -1.511953e+01
   5.432500e+01   1.167026e+02
   3.057749e+00   1.213271e+02
  -5.724985e+01   4.451352e+01
  -5.569569e+01  -3.771826e+01
  -1.866256e+01   7.263202e+00
  -2.793211e+01   2.673357e+01
  -1.167015e+01  -2.550354e+01
  -5.135685e+01  -6.953047e+01
  -4.808692e+01  -9.796690e+01
   3.975791e+01  -5.222294e+01
   1.346248e+02   3.961602e+01
   1.491481e+02   9.354802e+01
  -4.605572e+00   5.649977e+01
  -6.842606e+01   4.921628e+00
  -6.482534e+01  -4.952395e-01
   3.988977e+00  -3.074723e+01
   2.784705e+01  -2.546931e+01
  -1.099274e+00  -2.632462e+01
  -1.809867e+00   3.055234e+01
   3.442168e+00  -8.821095e+00
   8.223692e+01   6.117759e+00
   1.023457e+02   2.058168e+01
   1.195054e+01   6.214319e+01
  -1.021626e+02   1.146025e+02
  -1.730129e+02   4.295579e+01
  -1.568049e+02  -7.484653e+01
  -2.930378e+01  -1.623286e+02
   8.665986e+01  -1.368464e+02
   8.054786e+01  -7.051171e+01
   7.993446e+01   1.039629e+01
   6.255620e+01   3.880953e+01
   1.087473e+01   1.111613e+00
   1.087048e+01   3.801075e+01
   2.193314e+01   6.445778e+01
   5.038136e+01   7.038032e+01
  -2.922782e+01   5.802005e+01
  -8.901325e+01  -4.316765e+00
  -1.015392e+02  -1.125220e+02
   1.281675e+00  -8.344056e+01
   9.465891e+01  -2.920492e+01
   1.265064e+02   7.006877e+01
   2.142109e+01   9.583309e+01
  -6.459166e+01   3.734200e+01
  -9.572414e+01  -3.347832e+01
  -3.420548e+01  -6.089387e+01
   3.145461e+01  -4.042176e+01
   2.200527e+01  -2.185327e+01
  -6.790010e+01   2.088890e+01
  -8.976278e+01  -1.157186e+01
  -2.001198e+01  -4.897697e+01
   7.294337e+01  -7.312394e+01
   1.087668e+02  -6.669778e+01
   5.746435e+01   2.925563e+01
  -4.681369e+01   9.895567e+01
  -5.669525e+01   6.228642e+01
  -4.628974e+01  -2.904462e+00
  -7.901330e+00  -3.432118e+01
   5.150714e+01  -4.030571e+01
   3.107987e+01   2.919775e+00
   4.139184e+01   4.301806e+01
  -1.742605e-01   2.602387e+01
  -2.262371e+01   6.748759e-01
  -4.948777e+01  -2.514215e+01
   4.250604e+00  -6.164435e+00
  -7.148479e+00   4.094355e+01
  -4.524075e+00  -3.051025e+01
   4.662288e+00  -6.490905e+01
  -6.607531e+00  -5.940819e+01
   5.135750e+01   6.251538e+00
   3.051031e+01   6.844215e+01
   1.975994e+00   6.286866e+01
  -6.561713e+01  -4.300591e+00
  -4.846879e+01  -6.738936e+01
  -1.353752e+01  -6.289700e+01
   7.583108e+01  -5.012983e+01
   8.709909e+01   1.816222e+01
   4.280168e+01   5.621848e+01
  -6.473826e+01   5.928508e+01
  -9.974030e+01   7.572122e+00
  -4.977397e-01   7.645566e+00
   3.537202e+01  -1.491814e+01
   1.388348e+01   8.229705e+00
  -2.937319e+01   4.800120e+01
  -1.093200e+02   4.003197e+01
