
 $NMID
 id='ANONYMOUS ', fmtdat='(2E16.6)'
 volume=1.0
 tramp=1.0
 $END
  -4.028692e+07   4.658355e+05
  -2.548050e+07  -2.274111e+07
   3.258035e+06  -2.682859e+07
   1.893723e+07  -1.286050e+07
   1.287178e+07   2.710201e+06
  -1.218030e+06   6.939833e+06
  -7.485699e+06   6.889541e+05
  -3.467145e+06  -6.851465e+06
   3.572647e+06  -8.245277e+06
   7.156485e+06  -2.681994e+06
   5.567656e+06   4.664811e+06
   7.120950e+05   6.930821e+06
  -3.188723e+06   1.920415e+06
  -2.314602e+06  -4.936722e+06
   2.571624e+06  -5.926299e+06
   6.054489e+06   3.234018e+05
   3.887039e+06   7.505873e+06
  -2.327513e+06   9.037123e+06
  -7.354357e+06   4.503131e+06
  -7.790359e+06  -1.667166e+06
  -4.335927e+06  -5.393395e+06
  -2.275893e+05  -5.597504e+06
   1.382250e+06  -3.737658e+06
  -1.080137e+05  -2.358156e+06
  -1.727750e+06  -2.978825e+06
   2.384549e+05  -4.281793e+06
   5.288036e+06  -3.397771e+06
   8.246420e+06   2.386369e+05
   5.378807e+06   3.650086e+06
  -6.046049e+05   3.876093e+06
  -3.745569e+06   1.413299e+06
  -1.911274e+06  -9.758447e+05
   1.657739e+06  -1.495009e+06
   3.159334e+06  -1.287159e+05
   2.006785e+06   2.233395e+06
  -1.655578e+05   3.839157e+06
  -1.765330e+06   2.702161e+06
  -1.863752e+06  -7.143224e+05
  -5.371345e+05  -2.669788e+06
   5.889234e+05  -5.506593e+05
  -2.433557e+05   2.787167e+06
  -2.190450e+06   2.220478e+06
  -2.151093e+06  -2.208254e+06
   1.054435e+06  -4.598599e+06
   4.329897e+06  -1.099220e+06
   3.669417e+06   4.627474e+06
  -9.443006e+05   6.071483e+06
  -5.407268e+06   1.886247e+06
  -5.841422e+06  -3.315283e+06
  -2.068396e+06  -4.942640e+06
   2.724967e+06  -2.670101e+06
   4.754239e+06   7.762412e+05
   2.582323e+06   2.674487e+06
  -1.541934e+06   1.951209e+06
  -3.553893e+06  -3.795557e+05
  -1.757335e+06  -1.903357e+06
   1.216566e+06  -1.111056e+06
   1.652442e+06   7.443935e+05
  -5.691510e+05   1.120911e+06
  -2.033329e+06  -5.119322e+05
  -4.097251e+05  -2.088101e+06
   2.685984e+06  -1.714731e+06
   3.940165e+06   3.516931e+05
   2.054328e+06   2.701089e+06
  -1.533729e+06   4.194584e+06
  -4.487528e+06   3.878443e+06
  -5.192460e+06   1.155021e+06
  -3.434099e+06  -2.808646e+06
  -5.940397e+05  -5.131316e+06
   1.227177e+06  -4.160505e+06
   1.177111e+06  -1.625530e+06
   5.133731e+05  -4.570291e+05
   8.814493e+05  -1.027194e+06
   2.144073e+06  -1.125851e+06
   2.687919e+06   5.176264e+05
   1.569948e+06   2.375155e+06
  -4.609873e+05   2.250444e+06
  -1.901257e+06   4.913690e+04
  -1.710025e+06  -2.276662e+06
   1.681341e+05  -2.822573e+06
   2.600062e+06  -1.223182e+06
   3.684665e+06   1.354786e+06
   2.377075e+06   3.157775e+06
  -1.489677e+05   3.173406e+06
  -1.651195e+06   1.969587e+06
  -1.534567e+06   9.903824e+05
  -1.435415e+06   8.392310e+05
  -2.650890e+06   6.661477e+05
  -4.013376e+06  -5.296772e+05
  -3.288348e+06  -2.482119e+06
  -1.744797e+05  -3.887910e+06
   3.090566e+06  -3.678706e+06
   4.073230e+06  -1.819062e+06
   2.440300e+06   6.726793e+05
  -4.518418e+04   2.194905e+06
  -1.267744e+06   1.687493e+06
  -4.992323e+05  -1.353376e+05
   1.117067e+06  -1.188312e+06
   1.734986e+06  -3.436760e+05
   7.364067e+05   1.087976e+06
  -5.878383e+05   1.063210e+06
  -5.853591e+05  -3.455241e+05
   7.461486e+05  -9.528024e+05
   1.784542e+06   5.798150e+05
   1.192065e+06   2.888905e+06
  -7.627750e+05   3.544517e+06
  -2.734242e+06   1.791200e+06
  -3.504628e+06  -9.416350e+05
  -2.614318e+06  -2.726688e+06
  -5.629925e+05  -2.715070e+06
   1.269951e+06  -1.425661e+06
   1.565031e+06  -1.521561e+05
   4.725788e+05   4.481976e+04
  -3.515813e+05  -7.128021e+05
   3.220424e+05  -1.213772e+06
   1.686449e+06  -5.537689e+05
   1.887353e+06   7.178605e+05
   4.406323e+05   1.260268e+06
  -1.087573e+06   5.915091e+05
  -9.574063e+05  -4.236331e+05
   7.430863e+05  -6.767633e+05
   2.245323e+06   9.309574e+04
   1.941444e+06   1.301489e+06
  -1.052861e+05   2.074782e+06
  -2.243607e+06   1.733212e+06
  -2.691781e+06   3.113117e+05
  -1.158718e+06  -1.147676e+06
   8.264359e+05  -1.342158e+06
   1.374355e+06  -1.646752e+05
   1.337267e+05   9.678807e+05
  -1.426006e+06   6.869744e+05
  -1.662628e+06  -6.881487e+05
  -4.358184e+05  -1.575569e+06
   9.601702e+05  -1.053412e+06
   1.246203e+06   1.642867e+05
   3.388351e+05   7.100281e+05
  -7.006387e+05   7.957914e+04
  -6.820228e+05  -9.883321e+05
   5.766340e+05  -1.345524e+06
   1.932793e+06  -4.842743e+05
   1.932130e+06   1.022581e+06
   3.713621e+05   1.970945e+06
  -1.336430e+06   1.579060e+06
  -1.640389e+06   2.489366e+05
  -5.298398e+05  -8.114387e+05
   6.074967e+05  -8.036172e+05
   6.705704e+05  -6.612254e+04
  -6.498232e+04   4.607452e+05
  -5.662055e+05   3.137086e+05
  -2.979854e+05  -1.008933e+05
   3.443014e+05  -8.862166e+04
   5.598123e+05   5.188607e+05
  -1.024769e+05   1.122809e+06
  -1.292255e+06   8.915031e+05
  -2.001296e+06  -3.740490e+05
  -1.406940e+06  -1.856631e+06
   2.066224e+05  -2.354766e+06
   1.571114e+06  -1.446329e+06
   1.715199e+06   5.693251e+04
   9.513487e+05   9.453628e+05
   3.381868e+05   8.203534e+05
   3.547740e+05   3.238106e+05
   4.866412e+05   2.498899e+05
   7.614802e+04   6.556055e+05
  -8.028761e+05   8.938917e+05
  -1.420750e+06   3.816743e+05
  -1.101926e+06  -7.185822e+05
   1.827536e+05  -1.511270e+06
   1.671378e+06  -1.111794e+06
   2.211422e+06   4.411294e+05
   1.159411e+06   2.004865e+06
  -8.745929e+05   2.280984e+06
  -2.382016e+06   1.070940e+06
  -2.320238e+06  -5.315282e+05
  -1.065641e+06  -1.290719e+06
   1.260447e+05  -1.035800e+06
   4.638856e+05  -5.994762e+05
   2.276619e+05  -7.054677e+05
   1.690253e+05  -1.161409e+06
   6.145205e+05  -1.172857e+06
   1.196902e+06  -2.879937e+05
   1.268071e+06   1.049136e+06
   5.263875e+05   1.832824e+06
  -6.125675e+05   1.387004e+06
  -1.251753e+06   1.893868e+04
  -8.152155e+05  -1.192778e+06
   3.000200e+05  -1.343425e+06
   1.039317e+06  -4.854428e+05
   7.797312e+05   5.353189e+05
  -1.962387e+04   9.665017e+05
  -3.987624e+05   7.776103e+05
  -3.578989e+04   4.517961e+05
   3.949699e+05   3.481896e+05
   4.336132e+04   3.796293e+05
  -1.067131e+06   2.219709e+05
  -1.934098e+06  -2.897362e+05
  -1.562808e+06  -9.568282e+05
  -4.082932e+04  -1.332992e+06
   1.444787e+06  -1.082531e+06
   1.738566e+06  -3.251133e+05
   8.370022e+05   3.802337e+05
  -2.101311e+05   5.060110e+05
  -4.695978e+05   7.421428e+04
  -3.532007e+03  -3.466658e+05
   4.572057e+05  -2.305281e+05
   4.531382e+05   3.311337e+05
   1.730127e+05   7.140390e+05
   2.628155e+04   4.636832e+05
   1.430785e+05  -1.398306e+05
   3.269814e+05  -3.401852e+05
   2.802875e+05   2.165136e+05
  -1.714640e+05   9.746523e+05
  -8.630706e+05   1.017205e+06
  -1.230349e+06   1.285536e+05
  -7.414729e+05  -8.806373e+05
   3.966986e+05  -1.035365e+06
   1.163736e+06  -2.620905e+05
   6.968691e+05   5.751113e+05
  -6.611463e+05   6.421119e+05
  -1.568842e+06  -5.479286e+04
  -1.066465e+06  -8.214163e+05
   4.035012e+05  -1.018514e+06
   1.474698e+06  -5.601994e+05
   1.259314e+06   1.370162e+05
   1.647805e+05   5.163644e+05
  -6.229909e+05   2.943754e+05
  -3.519769e+05  -2.621297e+05
   5.959443e+05  -4.718043e+05
   1.136873e+06   1.274522e+05
   5.888805e+05   1.166535e+06
  -6.411669e+05   1.621080e+06
  -1.470940e+06   8.116253e+05
  -1.214036e+06  -7.616659e+05
  -1.846453e+05  -1.756874e+06
   7.256725e+05  -1.292922e+06
   9.154694e+05   1.335750e+05
   4.612147e+05   1.158649e+06
  -1.640754e+05   9.778342e+05
  -5.334727e+05   1.052036e+05
  -4.916088e+05  -3.800536e+05
  -2.006292e+05  -1.509067e+05
  -3.225641e+04   1.071947e+05
  -2.139486e+05  -2.544724e+05
  -4.738320e+05  -9.278822e+05
  -2.349269e+05  -1.064531e+06
   6.395100e+05  -3.978153e+05
   1.445398e+06   4.569742e+05
   1.294272e+06   8.204096e+05
   1.861790e+05   6.713328e+05
  -8.723632e+05   3.998353e+05
  -9.758345e+05   1.909096e+05
  -3.192406e+05  -2.530823e+04
   1.575895e+05  -2.141305e+05
  -1.016485e+04  -2.269443e+05
  -3.056792e+05  -1.232442e+05
  -2.953373e+04  -1.313696e+05
   6.962071e+05  -2.051637e+05
   1.011336e+06   2.874246e+04
   3.479822e+05   6.613187e+05
  -8.666929e+05   1.110323e+06
  -1.620869e+06   6.970148e+05
  -1.309869e+06  -4.471475e+05
  -2.431259e+05  -1.375726e+06
   7.372097e+05  -1.320625e+06
   1.019396e+06  -4.879671e+05
   6.415351e+05   2.549017e+05
   1.089221e+05   3.467643e+05
  -1.065972e+05   3.392086e+04
   6.657723e+04  -4.848227e+04
   3.135429e+05   3.466297e+05
   2.559660e+05   7.884401e+05
  -1.852794e+05   6.496720e+05
  -6.685697e+05  -1.507595e+05
  -6.868291e+05  -9.550658e+05
  -6.145114e+04  -9.948430e+05
   7.555186e+05  -1.953176e+05
   9.869562e+05   7.411077e+05
   3.077110e+05   1.056057e+06
  -6.999320e+05   6.249269e+05
  -1.065767e+06  -8.680170e+04
  -4.933983e+05  -5.671032e+05
   2.754387e+05  -6.210547e+05
   3.356331e+05  -3.503428e+05
  -2.761810e+05  -2.716925e+04
  -6.409007e+05   2.912690e+04
  -1.292691e+05  -2.917436e+05
   8.055519e+05  -6.622021e+05
   1.197247e+06  -5.510343e+05
   7.062661e+05   1.432597e+05
  -9.886711e+04   8.299600e+05
  -5.066560e+05   8.180905e+05
  -3.757964e+05   1.325982e+05
  -3.004878e+04  -4.793473e+05
   2.392284e+05  -4.022264e+05
   3.410890e+05   1.765322e+05
   2.398045e+05   5.629679e+05
  -5.890576e+04   3.850402e+05
  -3.773477e+05  -5.876003e+04
  -4.520325e+05  -2.511339e+05
  -2.367631e+05  -7.449878e+04
   1.882264e+04   1.195120e+05
   8.423899e+04  -9.697995e+03
   3.585844e+04  -3.604455e+05
   1.103778e+05  -4.940462e+05
   3.259107e+05  -1.513380e+05
   3.985054e+05   4.044983e+05
   9.329796e+04   6.302985e+05
  -4.126995e+05   2.872421e+05
  -6.218912e+05  -2.931447e+05
  -2.274553e+05  -5.696923e+05
   4.847192e+05  -3.497146e+05
   8.377912e+05   8.902242e+04
   4.549330e+05   3.687844e+05
  -2.849322e+05   3.645113e+05
  -6.110467e+05   1.913272e+05
  -2.185428e+05   1.408499e+04
   3.688261e+05  -3.705489e+04
   4.063505e+05   9.939236e+04
  -1.942431e+05   3.008178e+05
  -7.692170e+05   2.559810e+05
