
 $NMID
 id='ANONYMOUS ', fmtdat='(2E16.6)'
 volume=1.0
 tramp=1.0
 $END
  -1.075218e+07   2.773116e+05
  -7.328126e+06  -4.807834e+06
  -2.061331e+05  -6.793664e+06
   4.503242e+06  -4.714743e+06
   3.925224e+06  -6.242125e+05
   3.397067e+05   1.959866e+06
  -2.173355e+06   1.115798e+06
  -1.770140e+06  -1.668587e+06
   3.689400e+05  -3.059754e+06
   1.994616e+06  -1.447509e+06
   1.834550e+06   1.370394e+06
   2.996660e+05   2.320677e+06
  -1.070683e+06   5.172758e+05
  -9.442219e+05  -1.902695e+06
   5.443951e+05  -2.292705e+06
   1.822008e+06  -2.877133e+05
   1.434374e+06   2.097148e+06
  -4.100012e+05   2.729066e+06
  -2.052847e+06   1.336495e+06
  -2.130858e+06  -6.012542e+05
  -9.079924e+05  -1.519937e+06
   1.609154e+05  -1.183890e+06
   2.869427e+04  -6.094150e+05
  -8.654646e+05  -7.814955e+05
  -1.082055e+06  -1.561771e+06
   2.305170e+05  -1.915810e+06
   2.224810e+06  -1.138005e+06
   3.021190e+06   3.349882e+05
   1.685900e+06   1.374216e+06
  -5.974576e+05   1.251215e+06
  -1.662430e+06   2.126115e+05
  -6.649154e+05  -8.183580e+05
   1.092618e+06  -9.540063e+05
   1.740912e+06   1.415626e+03
   8.598278e+05   1.281728e+06
  -3.788305e+05   1.675071e+06
  -7.731714e+05   7.196611e+05
  -2.921649e+05  -6.045686e+05
   2.517119e+05  -8.104703e+05
   2.355711e+05   3.256036e+05
  -2.848787e+05   1.369391e+06
  -8.038252e+05   9.412801e+05
  -7.977675e+05  -5.310985e+05
  -1.137624e+05  -1.304432e+06
   7.679090e+05  -4.530563e+05
   9.524200e+05   1.056764e+06
  -2.626842e+04   1.571291e+06
  -1.492542e+06   5.838189e+05
  -2.057601e+06  -9.176811e+05
  -1.009158e+06  -1.636451e+06
   8.245356e+05  -1.145598e+06
   1.819775e+06  -2.887466e+04
   1.185689e+06   7.772332e+05
  -2.854202e+05   7.370163e+05
  -1.119525e+06   7.615360e+04
  -6.792326e+05  -4.728678e+05
   3.109748e+05  -3.771941e+05
   6.799820e+05   1.821144e+05
   9.546522e+04   5.451908e+05
  -6.460042e+05   3.031925e+05
  -5.718299e+05  -2.908123e+05
   3.405075e+05  -6.114337e+05
   1.097054e+06  -2.535868e+05
   7.560863e+05   6.227104e+05
  -5.414243e+05   1.374784e+06
  -1.708891e+06   1.312874e+06
  -1.835850e+06   2.829281e+05
  -1.033456e+06  -1.070727e+06
  -1.405024e+05  -1.793853e+06
   2.368629e+05  -1.533159e+06
   2.292669e+05  -8.537206e+05
   3.278454e+05  -5.045811e+05
   7.307304e+05  -5.117930e+05
   1.149719e+06  -2.709151e+05
   1.144310e+06   4.923296e+05
   5.485167e+05   1.196798e+06
  -3.523464e+05   1.042890e+06
  -9.656128e+05   9.723766e+03
  -7.968572e+05  -1.027610e+06
   1.003772e+05  -1.178134e+06
   1.050181e+06  -3.835970e+05
   1.289913e+06   6.307251e+05
   6.929175e+05   1.117182e+06
  -1.161108e+05   9.395394e+05
  -4.625045e+05   5.306078e+05
  -3.658490e+05   3.492342e+05
  -4.301994e+05   4.237706e+05
  -9.922103e+05   3.885928e+05
  -1.572569e+06  -8.478388e+04
  -1.348903e+06  -9.021924e+05
  -1.443229e+05  -1.557162e+06
   1.223556e+06  -1.522866e+06
   1.686184e+06  -7.129880e+05
   9.801280e+05   3.621377e+05
  -1.168254e+05   9.392975e+05
  -5.981285e+05   6.521086e+05
  -1.983165e+05  -9.133989e+04
   4.730151e+05  -4.796398e+05
   6.682338e+05  -1.487577e+05
   2.534399e+05   4.133525e+05
  -2.635525e+05   4.527177e+05
  -3.221916e+05  -1.054044e+05
   1.498643e+05  -5.108941e+05
   7.012834e+05  -7.952109e+04
   7.549276e+05   9.338312e+05
   8.860001e+04   1.541566e+06
  -9.323620e+05   1.074765e+06
  -1.570015e+06  -1.251529e+05
  -1.304252e+06  -1.092129e+06
  -3.371623e+05  -1.189136e+06
   5.345631e+05  -6.141158e+05
   6.663610e+05  -5.745949e+04
   1.948743e+05   1.278956e+04
  -1.585347e+05  -2.800012e+05
   8.110222e+04  -4.635501e+05
   6.147434e+05  -2.453633e+05
   7.479667e+05   2.048551e+05
   2.310685e+05   4.591691e+05
  -4.113586e+05   2.798970e+05
  -4.441718e+05  -1.401400e+05
   2.453850e+05  -3.601236e+05
   9.696732e+05  -1.020038e+05
   9.315437e+05   4.841090e+05
   6.035230e+04   9.223699e+05
  -8.933562e+05   8.088346e+05
  -1.106004e+06   1.915479e+05
  -4.842835e+05  -4.221478e+05
   2.967417e+05  -5.139645e+05
   5.052787e+05  -7.477852e+04
   4.103342e+04   3.647679e+05
  -5.574273e+05   2.926393e+05
  -6.922572e+05  -2.243630e+05
  -2.554236e+05  -6.252396e+05
   3.265406e+05  -4.959118e+05
   5.226808e+05  -2.077612e+04
   1.992872e+05   2.581020e+05
  -2.478057e+05   5.417375e+04
  -2.774958e+05  -3.783950e+05
   2.255340e+05  -5.436607e+05
   7.817465e+05  -2.074180e+05
   7.912018e+05   3.957514e+05
   1.808159e+05   7.874762e+05
  -4.997529e+05   6.626058e+05
  -6.567487e+05   1.482168e+05
  -2.532702e+05  -3.099914e+05
   2.193169e+05  -3.533320e+05
   3.030657e+05  -4.127074e+04
   1.428459e+04   2.367297e+05
  -2.592108e+05   1.953829e+05
  -2.081187e+05  -4.050839e+04
   8.700178e+04  -1.086650e+05
   2.540566e+05   1.409099e+05
   1.656578e+04   4.430378e+05
  -4.946789e+05   3.923674e+05
  -8.187502e+05  -1.128433e+05
  -5.981969e+05  -7.314110e+05
   4.838287e+04  -9.774484e+05
   6.243423e+05  -6.573900e+05
   7.414777e+05  -3.751088e+04
   4.687288e+05   4.062204e+05
   1.780468e+05   4.225091e+05
   1.063116e+05   1.889892e+05
   1.414656e+05   7.888165e+04
   2.679530e+04   2.291417e+05
  -2.963684e+05   3.843348e+05
  -5.824411e+05   2.071944e+05
  -5.025606e+05  -2.849883e+05
   2.075887e+04  -6.655541e+05
   6.681127e+05  -5.143392e+05
   9.296581e+05   1.346282e+05
   5.340945e+05   7.888171e+05
  -2.762082e+05   9.391791e+05
  -9.206571e+05   5.058652e+05
  -9.774382e+05  -1.294030e+05
  -5.256467e+05  -5.033524e+05
  -7.222561e+03  -4.810628e+05
   2.168583e+05  -3.099547e+05
   1.580615e+05  -2.926286e+05
   9.292173e+04  -4.358084e+05
   2.244041e+05  -4.540128e+05
   4.631306e+05  -1.224924e+05
   5.244288e+05   4.166365e+05
   2.374207e+05   7.467241e+05
  -2.368202e+05   5.786629e+05
  -5.165708e+05   3.775689e+04
  -3.636120e+05  -4.520438e+05
   6.612108e+04  -5.478035e+05
   3.716846e+05  -2.543551e+05
   3.156982e+05   1.410088e+05
   4.926501e+04   3.541470e+05
  -9.178324e+04   3.269120e+05
   1.854810e+04   2.076426e+05
   1.563433e+05   1.519215e+05
   1.538169e+04   1.610577e+05
  -4.126402e+05   1.112414e+05
  -7.655001e+05  -8.171493e+04
  -6.513666e+05  -3.482533e+05
  -7.073377e+04  -5.134339e+05
   5.335303e+05  -4.482026e+05
   6.896810e+05  -1.848265e+05
   3.578353e+05   9.283454e+04
  -6.172637e+04   1.855093e+05
  -1.762501e+05   5.556590e+04
   1.281269e+04  -1.146739e+05
   2.025367e+05  -9.319360e+04
   1.846866e+05   1.323287e+05
   4.443178e+04   3.054178e+05
  -1.705685e+04   1.961157e+05
   5.879388e+04  -8.416876e+04
   1.535681e+05  -1.771232e+05
   1.224068e+05   8.005791e+04
  -7.524628e+04   4.149602e+05
  -3.383601e+05   4.200791e+05
  -4.608189e+05   3.996285e+04
  -2.722354e+05  -3.567979e+05
   1.525968e+05  -3.951322e+05
   4.528596e+05  -8.431208e+04
   2.889171e+05   2.399787e+05
  -2.530622e+05   2.792778e+05
  -6.602732e+05   2.092954e+04
  -4.977490e+05  -3.087547e+05
   1.131738e+05  -4.515752e+05
   6.039481e+05  -3.039353e+05
   5.508507e+05   8.065780e+03
   9.522434e+04   2.171596e+05
  -2.458074e+05   1.477195e+05
  -1.353927e+05  -9.185343e+04
   2.577504e+05  -1.852914e+05
   4.683366e+05   6.603096e+04
   2.243674e+05   4.907317e+05
  -2.863716e+05   6.654340e+05
  -6.193276e+05   3.283799e+05
  -5.099181e+05  -3.154199e+05
  -9.224187e+04  -7.340527e+05
   2.838841e+05  -5.638120e+05
   3.852978e+05   2.010666e+04
   2.296091e+05   4.682880e+05
  -2.229194e+04   4.215868e+05
  -2.083504e+05   6.273911e+04
  -2.317261e+05  -1.541683e+05
  -1.114087e+05  -6.540134e+04
  -1.507636e+03   5.214950e+04
  -5.343858e+04  -8.851011e+04
  -1.934815e+05  -3.724506e+05
  -1.423824e+05  -4.414891e+05
   2.241920e+05  -1.753235e+05
   6.104552e+05   1.725935e+05
   5.759767e+05   3.219818e+05
   8.790591e+04   2.695233e+05
  -3.832454e+05   1.751770e+05
  -4.110887e+05   1.011687e+05
  -1.094211e+05   6.355181e+03
   7.334630e+04  -8.909466e+04
  -3.821141e+04  -1.065237e+05
  -1.615243e+05  -6.199975e+04
  -9.147921e+02  -5.677310e+04
   3.220263e+05  -8.226946e+04
   4.153984e+05   1.297517e+04
   1.016064e+05   2.698092e+05
  -3.819247e+05   4.504127e+05
  -6.453311e+05   2.757604e+05
  -5.072189e+05  -1.970532e+05
  -9.907823e+04  -5.741602e+05
   2.869414e+05  -5.400426e+05
   4.189662e+05  -1.873681e+05
   2.733423e+05   1.178066e+05
   3.368210e+04   1.429546e+05
  -7.338738e+04  -1.482027e+03
   1.453446e+04  -4.121473e+04
   1.462419e+05   1.294513e+05
   1.250919e+05   3.221760e+05
  -7.852648e+04   2.638051e+05
  -2.858267e+05  -7.804344e+04
  -2.741727e+05  -4.129671e+05
   2.804908e+03  -4.112675e+05
   3.332632e+05  -5.780036e+04
   4.058738e+05   3.293104e+05
   1.133676e+05   4.352924e+05
  -2.929880e+05   2.403534e+05
  -4.267009e+05  -3.981731e+04
  -1.875846e+05  -2.119417e+05
   1.106122e+05  -2.299386e+05
   1.115799e+05  -1.376742e+05
  -1.434392e+05  -1.765436e+04
  -2.725281e+05   1.203480e+04
  -4.490903e+04  -1.155002e+05
   3.284882e+05  -2.828639e+05
   4.655404e+05  -2.540477e+05
   2.629611e+05   3.583254e+04
  -3.938959e+04   3.330791e+05
  -1.813671e+05   3.274010e+05
  -1.289601e+05   3.384070e+04
  -1.558124e+03  -2.111667e+05
   1.035964e+05  -1.530013e+05
   1.462480e+05   9.586449e+04
   9.837844e+04   2.328451e+05
  -3.146121e+04   1.373935e+05
  -1.564845e+05  -3.330686e+04
  -1.777288e+05  -8.478855e+04
  -9.640794e+04  -1.393728e+04
  -6.296379e+03   3.092722e+04
   3.001572e+04  -4.513915e+04
   4.600672e+04  -1.691577e+05
   9.557195e+04  -1.826564e+05
   1.549253e+05  -2.007911e+04
   1.366514e+05   1.989368e+05
  -2.669184e+03   2.690404e+05
  -1.835066e+05   1.095543e+05
  -2.433645e+05  -1.370042e+05
  -8.471542e+04  -2.460436e+05
   1.915611e+05  -1.421810e+05
   3.329377e+05   4.598278e+04
   1.823323e+05   1.518163e+05
  -1.181886e+05   1.330838e+05
  -2.476028e+05   5.790237e+04
  -7.103713e+04   4.909795e+02
   1.824300e+05   2.318234e+02
   1.827055e+05   6.641076e+04
  -9.984584e+04   1.448247e+05
  -3.546248e+05   1.123795e+05
