
 $NMID
 id='ANONYMOUS ', fmtdat='(2E16.6)'
 volume=1.0
 tramp=1.0
 $END
   5.311430e+07   9.377623e+05
   3.183560e+07   3.288127e+07
  -7.025753e+06   3.578995e+07
  -2.619723e+07   1.413603e+07
  -1.593912e+07  -6.229833e+06
   2.925610e+06  -8.909379e+06
   9.509630e+06   8.424120e+05
   2.943568e+06   9.323431e+06
  -5.845275e+06   9.276725e+06
  -9.312555e+06   2.103151e+06
  -6.648952e+06  -6.097922e+06
  -5.924313e+05  -8.397392e+06
   3.924111e+06  -2.475135e+06
   2.446107e+06   5.559923e+06
  -3.725526e+06   6.526110e+06
  -7.584112e+06  -1.230498e+06
  -4.213128e+06  -9.827666e+06
   3.712155e+06  -1.127661e+07
   9.703786e+06  -5.456211e+06
   1.015487e+07   2.213597e+06
   5.962217e+06   7.166894e+06
   4.438442e+05   7.948331e+06
  -2.579712e+06   5.507224e+06
  -1.351549e+06   2.761008e+06
   1.206298e+06   2.608569e+06
  -7.804548e+04   4.343139e+06
  -5.671584e+06   4.019250e+06
  -9.520226e+06  -1.185452e+04
  -6.627441e+06  -4.281822e+06
   1.364723e+05  -4.804122e+06
   3.884947e+06  -2.133110e+06
   2.307164e+06   3.734626e+05
  -1.063506e+06   1.060865e+06
  -2.659442e+06   2.307400e+05
  -2.101826e+06  -1.835175e+06
  -2.800920e+05  -4.020398e+06
   1.929610e+06  -3.546934e+06
   2.847602e+06   3.411216e+05
   1.308548e+06   3.430888e+06
  -7.163779e+05   1.516820e+06
  -3.433872e+04  -2.635647e+06
   2.552365e+06  -2.287544e+06
   2.389860e+06   3.061042e+06
  -2.186661e+06   5.857165e+06
  -6.376701e+06   1.000031e+06
  -4.718670e+06  -6.512198e+06
   1.817733e+06  -8.019848e+06
   7.088162e+06  -2.182196e+06
   6.751775e+06   4.437820e+06
   1.831736e+06   5.992927e+06
  -3.466129e+06   2.722407e+06
  -5.293480e+06  -1.507478e+06
  -2.498050e+06  -3.462715e+06
   2.283221e+06  -2.171911e+06
   4.380117e+06   8.830362e+05
   1.916341e+06   2.615159e+06
  -1.649627e+06   1.305973e+06
  -1.761335e+06  -1.035770e+06
   1.168066e+06  -1.030556e+06
   2.449277e+06   1.462549e+06
  -3.215252e+05   3.166806e+06
  -4.207596e+06   1.874880e+06
  -5.069328e+06  -1.176787e+06
  -2.256012e+06  -3.773195e+06
   1.918652e+06  -5.057211e+06
   5.159088e+06  -4.542939e+06
   6.128500e+06  -1.437196e+06
   4.271961e+06   3.266274e+06
   6.903597e+05   6.079420e+06
  -1.868327e+06   4.730752e+06
  -1.717355e+06   1.385729e+06
  -3.386572e+05  -5.161886e+04
  -3.286569e+05   9.669250e+05
  -1.878421e+06   1.528758e+06
  -2.840780e+06  -1.148146e+05
  -1.846222e+06  -2.213156e+06
   2.339794e+05  -2.239266e+06
   1.737467e+06  -7.312789e+04
   1.664492e+06   2.305301e+06
  -1.646296e+05   3.011305e+06
  -2.862002e+06   1.478951e+06
  -4.331025e+06  -1.418622e+06
  -2.961809e+06  -3.778454e+06
   1.677976e+05  -4.034899e+06
   2.211735e+06  -2.531682e+06
   2.124057e+06  -1.098316e+06
   1.816757e+06  -7.216110e+05
   3.005933e+06  -4.654424e+05
   4.412550e+06   8.699781e+05
   3.480787e+06   2.921821e+06
  -1.591120e+03   4.239480e+06
  -3.455862e+06   3.876140e+06
  -4.392113e+06   1.949466e+06
  -2.666749e+06  -6.171691e+05
  -9.138136e+04  -2.308978e+06
   1.267009e+06  -1.881454e+06
   5.588507e+05   8.800213e+04
  -1.191551e+06   1.281762e+06
  -1.948796e+06   3.342874e+05
  -8.621753e+05  -1.244305e+06
   6.059684e+05  -1.122456e+06
   4.875748e+05   4.219883e+05
  -1.057129e+06   7.949083e+05
  -1.918788e+06  -1.182231e+06
  -7.577092e+05  -3.516425e+06
   1.542503e+06  -3.609248e+06
   3.249194e+06  -1.287713e+06
   3.502744e+06   1.499939e+06
   2.376023e+06   2.998616e+06
   3.910739e+05   2.791722e+06
  -1.366384e+06   1.464366e+06
  -1.650658e+06   1.487902e+05
  -5.077655e+05  -6.686312e+04
   3.442744e+05   7.890897e+05
  -4.498890e+05   1.353155e+06
  -1.948950e+06   5.353992e+05
  -2.059308e+06  -9.494265e+05
  -3.740648e+05  -1.454578e+06
   1.225746e+06  -5.615152e+05
   9.344768e+05   5.098707e+05
  -8.912904e+05   5.640375e+05
  -2.306744e+06  -3.650492e+05
  -1.831758e+06  -1.494395e+06
   3.099226e+05  -2.095466e+06
   2.473811e+06  -1.661621e+06
   2.893476e+06  -1.859331e+05
   1.212680e+06   1.336104e+06
  -9.844629e+05   1.492820e+06
  -1.583099e+06   1.406005e+05
  -1.540663e+05  -1.099997e+06
   1.587790e+06  -6.995949e+05
   1.757024e+06   8.594552e+05
   3.181195e+05   1.730169e+06
  -1.152643e+06   1.009549e+06
  -1.312071e+06  -3.361746e+05
  -2.572113e+05  -8.153378e+05
   8.096521e+05  -3.821598e+04
   7.151709e+05   1.110664e+06
  -6.575495e+05   1.443224e+06
  -2.098675e+06   4.717012e+05
  -2.059119e+06  -1.169794e+06
  -3.184545e+05  -2.158108e+06
   1.543271e+06  -1.649270e+06
   1.795804e+06  -1.645638e+05
   5.018272e+05   9.171214e+05
  -7.091784e+05   8.174223e+05
  -6.760366e+05   4.747101e+04
   1.326368e+05  -4.046460e+05
   5.530477e+05  -2.203603e+05
   1.719117e+05   9.846388e+04
  -4.502838e+05  -4.466976e+04
  -5.372460e+05  -6.863937e+05
   2.333397e+05  -1.224115e+06
   1.460173e+06  -8.836685e+05
   2.141942e+06   5.052786e+05
   1.441126e+06   2.068174e+06
  -3.220497e+05   2.507386e+06
  -1.741595e+06   1.422652e+06
  -1.776264e+06  -1.872250e+05
  -8.818020e+05  -9.969954e+05
  -2.962743e+05  -7.456658e+05
  -4.467462e+05  -2.697957e+05
  -6.081199e+05  -3.256324e+05
  -6.660081e+04  -7.722468e+05
   9.354209e+05  -9.090227e+05
   1.526941e+06  -2.947266e+05
   1.081729e+06   8.051704e+05
  -3.108644e+05   1.536649e+06
  -1.837613e+06   1.062754e+06
  -2.324894e+06  -5.881160e+05
  -1.110968e+06  -2.222061e+06
   1.113853e+06  -2.419846e+06
   2.663784e+06  -9.942953e+05
   2.433942e+06   7.530120e+05
   9.772040e+05   1.437705e+06
  -2.415319e+05   1.012224e+06
  -4.571877e+05   5.357581e+05
  -1.514029e+05   7.594780e+05
  -1.699527e+05   1.317840e+06
  -7.314726e+05   1.292671e+06
  -1.338172e+06   2.780733e+05
  -1.337538e+06  -1.172828e+06
  -4.992532e+05  -1.986609e+06
   7.047427e+05  -1.464640e+06
   1.337469e+06   4.835903e+04
   8.033712e+05   1.353001e+06
  -4.392229e+05   1.437143e+06
  -1.206750e+06   4.063913e+05
  -8.234815e+05  -7.177914e+05
   1.378918e+05  -1.098942e+06
   5.570564e+05  -8.052684e+05
   9.625500e+04  -4.452496e+05
  -4.280082e+05  -3.699365e+05
  -4.229628e+04  -4.013622e+05
   1.190050e+06  -1.806708e+05
   2.113466e+06   4.134895e+05
   1.639909e+06   1.127473e+06
  -7.138231e+04   1.478793e+06
  -1.667967e+06   1.122415e+06
  -1.907153e+06   2.330146e+05
  -8.612323e+05  -5.226888e+05
   2.787831e+05  -5.719617e+05
   5.290742e+05  -2.746734e+04
   1.348449e+04   4.207247e+05
  -4.755137e+05   2.438769e+05
  -4.834562e+05  -3.726469e+05
  -2.161870e+05  -7.578318e+05
  -6.496819e+04  -4.955356e+05
  -1.528216e+05   1.037020e+05
  -3.196715e+05   3.013256e+05
  -2.803246e+05  -2.513298e+05
   1.953287e+05  -1.019958e+06
   9.716849e+05  -1.068263e+06
   1.396092e+06  -1.267970e+05
   8.301746e+05   9.738633e+05
  -4.678285e+05   1.151479e+06
  -1.300809e+06   2.920076e+05
  -7.350455e+05  -6.262477e+05
   7.512242e+05  -6.505042e+05
   1.654972e+06   1.562035e+05
   1.031176e+06   9.405227e+05
  -5.329280e+05   1.026185e+06
  -1.587886e+06   4.560613e+05
  -1.290030e+06  -2.425497e+05
  -1.245737e+05  -5.458001e+05
   6.866036e+05  -2.612990e+05
   3.857841e+05   3.140232e+05
  -6.296246e+05   5.116233e+05
  -1.219974e+06  -1.358359e+05
  -6.414300e+05  -1.250168e+06
   6.840303e+05  -1.736863e+06
   1.575569e+06  -8.560279e+05
   1.274877e+06   8.372719e+05
   1.409955e+05   1.872025e+06
  -8.226637e+05   1.322844e+06
  -9.613907e+05  -2.148504e+05
  -4.088769e+05  -1.259878e+06
   2.623977e+05  -1.008516e+06
   5.883988e+05  -7.006943e+04
   4.736458e+05   4.153813e+05
   1.678170e+05   1.548898e+05
   5.391065e+04  -1.003516e+05
   2.769938e+05   3.087476e+05
   4.929936e+05   1.020975e+06
   1.615126e+05   1.135309e+06
  -7.542292e+05   3.906698e+05
  -1.517722e+06  -5.401250e+05
  -1.304203e+06  -9.235672e+05
  -1.677398e+05  -7.336830e+05
   9.054063e+05  -4.003238e+05
   1.033316e+06  -1.523970e+05
   3.742207e+05   6.388643e+04
  -1.599141e+05   2.277470e+05
  -4.534090e+04   2.179194e+05
   2.708406e+05   1.137697e+05
   4.712508e+04   1.384024e+05
  -6.958546e+05   2.164358e+05
  -1.087182e+06  -4.804747e+04
  -4.267061e+05  -7.280245e+05
   9.135396e+05  -1.191790e+06
   1.791419e+06  -7.321492e+05
   1.451747e+06   4.907371e+05
   2.377609e+05   1.470651e+06
  -8.439818e+05   1.407027e+06
  -1.107284e+06   5.255177e+05
  -6.712495e+05  -2.637141e+05
  -1.279755e+05  -3.754078e+05
   7.096453e+04  -6.373486e+04
  -8.899247e+04   1.483202e+04
  -3.005988e+05  -3.958996e+05
  -2.289051e+05  -8.515052e+05
   2.074952e+05  -7.005800e+05
   7.011358e+05   1.467249e+05
   7.374053e+05   1.008791e+06
   9.238160e+04   1.072514e+06
  -7.845024e+05   2.355422e+05
  -1.051666e+06  -7.769240e+05
  -3.315903e+05  -1.142180e+06
   7.593828e+05  -6.855027e+05
   1.162818e+06   1.093274e+05
   5.396175e+05   6.548915e+05
  -3.163823e+05   7.014348e+05
  -4.095150e+05   3.755587e+05
   2.509750e+05   1.945432e+04
   6.753158e+05  -2.017167e+04
   1.453727e+05   3.247672e+05
  -8.812472e+05   6.796196e+05
  -1.335133e+06   5.217997e+05
  -7.960142e+05  -2.087926e+05
   1.254812e+05  -9.034606e+05
   6.045839e+05  -8.794043e+05
   4.506124e+05  -1.632031e+05
   4.249251e+04   4.958865e+05
  -2.590648e+05   4.481851e+05
  -3.580657e+05  -1.588187e+05
  -2.475986e+05  -6.078317e+05
   6.305738e+04  -4.471389e+05
   4.042475e+05   5.563192e+04
   4.909589e+05   3.091546e+05
   2.517633e+05   1.112328e+05
  -3.689098e+04  -1.598983e+05
  -9.075027e+04  -5.681337e+04
   7.630349e+03   3.594687e+05
  -5.269064e+04   5.704663e+05
  -3.280506e+05   2.267060e+05
  -4.695593e+05  -3.961279e+05
  -1.545866e+05  -6.713553e+05
   4.290832e+05  -3.167819e+05
   6.853055e+05   3.034731e+05
   2.494606e+05   5.997737e+05
  -5.403326e+05   3.677361e+05
  -9.188586e+05  -9.899769e+04
  -4.896523e+05  -4.057093e+05
   3.145986e+05  -4.133200e+05
   6.703095e+05  -2.263963e+05
   2.662181e+05  -1.587597e+04
  -3.514896e+05   6.309663e+04
  -4.152869e+05  -7.135481e+04
   1.790964e+05  -2.902086e+05
   7.703681e+05  -2.564516e+05
