
 $NMID
 id='ANONYMOUS ', fmtdat='(2E16.6)'
 volume=1.0
 tramp=1.0
 $END
  -2.536213e+07  -7.814285e+05
  -1.577583e+07  -1.362428e+07
   1.729442e+06  -1.623929e+07
   1.155467e+07  -8.867879e+06
   8.391995e+06   5.488640e+05
  -2.586273e+05   4.377694e+06
  -4.848283e+06   1.256346e+06
  -2.897893e+06  -4.164199e+06
   1.769748e+06  -5.989322e+06
   4.610584e+06  -2.288765e+06
   3.752711e+06   3.229341e+06
   3.831688e+05   4.905100e+06
  -2.331151e+06   1.119418e+06
  -1.738323e+06  -3.826088e+06
   1.566549e+06  -4.445129e+06
   3.988329e+06  -5.388328e+04
   2.667848e+06   4.896002e+06
  -1.463296e+06   5.928358e+06
  -4.833788e+06   2.752199e+06
  -4.905965e+06  -1.462348e+06
  -2.276176e+06  -3.640936e+06
   3.241327e+05  -3.196814e+06
   6.521224e+05  -1.818739e+06
  -9.583748e+05  -1.543583e+06
  -1.795339e+06  -2.709827e+06
   3.727841e+05  -3.583851e+06
   4.329909e+06  -2.339985e+06
   6.152588e+06   6.209175e+05
   3.600971e+06   2.906268e+06
  -9.885740e+05   2.732415e+06
  -3.194102e+06   6.635929e+05
  -1.423431e+06  -1.296681e+06
   1.761581e+06  -1.599594e+06
   3.009615e+06  -4.959576e+04
   1.628447e+06   2.198814e+06
  -5.372921e+05   3.171771e+06
  -1.536436e+06   1.663785e+06
  -9.576400e+05  -1.010888e+06
   1.884488e+05  -1.859609e+06
   5.348555e+05   1.957982e+05
  -4.125186e+05   2.480610e+06
  -1.648945e+06   1.748322e+06
  -1.525323e+06  -1.369862e+06
   3.543861e+05  -2.908668e+06
   2.306687e+06  -6.939025e+05
   2.122414e+06   2.833202e+06
  -5.263959e+05   3.718311e+06
  -3.509182e+06   1.123145e+06
  -4.147824e+06  -2.242588e+06
  -1.704573e+06  -3.478620e+06
   1.862481e+06  -2.095131e+06
   3.564735e+06   3.089412e+05
   2.097956e+06   1.781377e+06
  -8.824892e+05   1.407544e+06
  -2.404051e+06  -1.400452e+05
  -1.269232e+06  -1.200022e+06
   7.878150e+05  -7.523780e+05
   1.283478e+06   4.805914e+05
  -9.520029e+04   9.400686e+05
  -1.333159e+06   1.159350e+05
  -6.791818e+05  -9.824112e+05
   1.303950e+06  -1.129133e+06
   2.475901e+06  -5.293628e+04
   1.430128e+06   1.625747e+06
  -1.207235e+06   2.888536e+06
  -3.476857e+06   2.670364e+06
  -3.806615e+06   5.914734e+05
  -2.240334e+06  -2.218877e+06
  -2.399728e+05  -3.724441e+06
   7.534960e+05  -3.038637e+06
   6.430861e+05  -1.438405e+06
   4.963766e+05  -7.186098e+05
   1.107544e+06  -9.500978e+05
   2.039065e+06  -6.874834e+05
   2.205857e+06   7.538579e+05
   1.130413e+06   2.168506e+06
  -5.713670e+05   1.934094e+06
  -1.723343e+06   2.059232e+04
  -1.441981e+06  -1.926309e+06
   2.095889e+05  -2.260973e+06
   2.073449e+06  -7.945401e+05
   2.653376e+06   1.235790e+06
   1.492188e+06   2.361209e+06
  -2.684995e+05   2.100654e+06
  -1.119590e+06   1.191710e+06
  -9.302563e+05   6.641353e+05
  -9.542975e+05   7.158283e+05
  -1.983125e+06   6.135892e+05
  -3.067074e+06  -3.273759e+05
  -2.552982e+06  -1.873713e+06
  -1.647916e+05  -3.027216e+06
   2.440136e+06  -2.880661e+06
   3.267669e+06  -1.347376e+06
   1.909524e+06   6.693981e+05
  -1.735020e+05   1.794593e+06
  -1.124604e+06   1.279180e+06
  -3.933716e+05  -1.614858e+05
   9.219769e+05  -9.212173e+05
   1.333996e+06  -2.485804e+05
   5.079546e+05   8.452849e+05
  -5.120242e+05   8.560958e+05
  -5.537501e+05  -2.354494e+05
   4.149520e+05  -8.677843e+05
   1.338517e+06   1.239328e+05
   1.177591e+06   1.986031e+06
  -1.887915e+05   2.846464e+06
  -1.933060e+06   1.742733e+06
  -2.874689e+06  -4.812976e+05
  -2.286687e+06  -2.135061e+06
  -5.373828e+05  -2.227452e+06
   1.034431e+06  -1.143326e+06
   1.267167e+06  -9.350633e+04
   3.723618e+05   3.681352e+04
  -2.849001e+05  -5.552192e+05
   2.182804e+05  -9.152362e+05
   1.256934e+06  -4.279793e+05
   1.447794e+06   5.000335e+05
   3.807423e+05   9.397331e+05
  -8.317827e+05   4.961404e+05
  -8.139121e+05  -3.061766e+05
   5.167135e+05  -6.187674e+05
   1.815514e+06  -6.654860e+04
   1.669069e+06   9.821404e+05
   1.605759e+04   1.710517e+06
  -1.756929e+06   1.449848e+06
  -2.129057e+06   2.805633e+05
  -9.040981e+05  -8.708416e+05
   6.320691e+05  -1.005208e+06
   1.025284e+06  -1.100617e+05
   7.257429e+04   7.368676e+05
  -1.108484e+06   5.348081e+05
  -1.313372e+06  -5.025587e+05
  -4.063117e+05  -1.223541e+06
   6.951763e+05  -8.863570e+05
   9.913349e+05   4.879314e+04
   3.238925e+05   5.284643e+05
  -5.121888e+05   7.944207e+04
  -5.273711e+05  -7.592301e+05
   4.576882e+05  -1.049526e+06
   1.521002e+06  -3.703992e+05
   1.511872e+06   8.063797e+05
   2.974340e+05   1.537852e+06
  -1.023583e+06   1.242181e+06
  -1.278768e+06   2.215209e+05
  -4.446703e+05  -6.243250e+05
   4.592953e+05  -6.537194e+05
   5.663608e+05  -6.036362e+04
  -3.139589e+03   4.186748e+05
  -4.762283e+05   3.244490e+05
  -3.357968e+05  -7.173883e+04
   1.999218e+05  -1.444478e+05
   4.551664e+05   3.288804e+05
  -2.815017e+04   8.577471e+05
  -9.873170e+05   7.152092e+05
  -1.570004e+06  -2.739858e+05
  -1.109117e+06  -1.448479e+06
   1.528557e+05  -1.867443e+06
   1.233284e+06  -1.192028e+06
   1.391371e+06  -3.409652e+03
   8.272173e+05   7.741575e+05
   3.060940e+05   7.466183e+05
   2.349303e+05   3.267931e+05
   3.121795e+05   1.795673e+05
   4.378217e+04   4.702204e+05
  -6.032081e+05   7.105205e+05
  -1.117657e+06   3.424939e+05
  -9.160502e+05  -5.617947e+05
   9.564508e+04  -1.235896e+06
   1.306262e+06  -9.223643e+05
   1.762203e+06   3.206194e+05
   9.550491e+05   1.555849e+06
  -6.257225e+05   1.789207e+06
  -1.826848e+06   8.865289e+05
  -1.848777e+06  -3.483779e+05
  -9.236010e+05  -9.980645e+05
   4.162360e+04  -8.765090e+05
   3.994895e+05  -5.427613e+05
   2.631692e+05  -5.630858e+05
   1.801017e+05  -8.704460e+05
   4.723774e+05  -8.848270e+05
   9.174862e+05  -2.141077e+05
   9.917666e+05   8.300281e+05
   4.156476e+05   1.448124e+06
  -4.857993e+05   1.098232e+06
  -9.916359e+05   3.297790e+04
  -6.595866e+05  -9.085746e+05
   1.899050e+05  -1.049633e+06
   7.610823e+05  -4.294372e+05
   5.986513e+05   3.427839e+05
   3.487450e+04   7.104709e+05
  -2.420402e+05   6.137441e+05
   4.722135e+03   3.801111e+05
   3.001750e+05   2.899975e+05
   2.677533e+04   3.051303e+05
  -8.138360e+05   1.826567e+05
  -1.487543e+06  -2.122305e+05
  -1.230640e+06  -7.241952e+05
  -7.554106e+04  -1.012254e+06
   1.086897e+06  -8.373821e+05
   1.347781e+06  -2.907903e+05
   6.692713e+05   2.384137e+05
  -1.455612e+05   3.695000e+05
  -3.508209e+05   8.033119e+04
   2.043141e+04  -2.411202e+05
   3.808372e+05  -1.731532e+05
   3.502538e+05   2.636799e+05
   9.597614e+04   5.808382e+05
  -1.784363e+04   3.745034e+05
   1.125206e+05  -1.389801e+05
   2.819050e+05  -3.096478e+05
   2.265915e+05   1.613905e+05
  -1.513039e+05   7.829747e+05
  -6.743712e+05   7.945882e+05
  -9.219045e+05   6.992750e+04
  -5.366361e+05  -7.004505e+05
   3.160927e+05  -7.769876e+05
   8.940183e+05  -1.630429e+05
   5.452457e+05   4.676542e+05
  -5.086004e+05   5.144526e+05
  -1.253502e+06  -1.402693e+04
  -8.979161e+05  -6.264623e+05
   2.697954e+05  -8.336274e+05
   1.165794e+06  -5.074410e+05
   1.028932e+06   6.748327e+04
   1.552874e+05   4.145415e+05
  -4.835515e+05   2.549227e+05
  -2.639023e+05  -1.941484e+05
   4.922592e+05  -3.561432e+05
   8.988755e+05   1.313613e+05
   4.297922e+05   9.435641e+05
  -5.552677e+05   1.271903e+06
  -1.190377e+06   6.151869e+05
  -9.608166e+05  -6.207632e+05
  -1.408717e+05  -1.403044e+06
   5.726453e+05  -1.047963e+06
   7.300945e+05   7.702372e+04
   3.950340e+05   9.103631e+05
  -8.911776e+04   7.915754e+05
  -4.093123e+05   9.882104e+04
  -4.180119e+05  -3.029654e+05
  -1.906813e+05  -1.247815e+05
  -1.333259e+04   9.306927e+04
  -1.251608e+05  -1.867334e+05
  -3.599236e+05  -7.294915e+05
  -2.241474e+05  -8.472891e+05
   4.655309e+05  -3.176905e+05
   1.153798e+06   3.626200e+05
   1.061362e+06   6.462084e+05
   1.509017e+05   5.244860e+05
  -7.224471e+05   3.171920e+05
  -7.838959e+05   1.642749e+05
  -2.256594e+05  -5.671418e+03
   1.377363e+05  -1.684703e+05
  -4.462709e+04  -1.929841e+05
  -2.821875e+05  -1.126610e+05
  -9.359915e+03  -1.076897e+05
   5.940989e+05  -1.520147e+05
   7.984190e+05   3.746805e+04
   2.178995e+05   5.264367e+05
  -7.299268e+05   8.594087e+05
  -1.266026e+06   5.151103e+05
  -9.926359e+05  -3.876223e+05
  -1.726447e+05  -1.099800e+06
   5.812104e+05  -1.029195e+06
   8.119031e+05  -3.567674e+05
   5.152979e+05   2.242379e+05
   6.907286e+04   2.762931e+05
  -1.194334e+05   8.878775e+03
   3.739696e+04  -6.162362e+04
   2.628427e+05   2.620901e+05
   2.149487e+05   6.235737e+05
  -1.580883e+05   5.076409e+05
  -5.400556e+05  -1.461777e+05
  -5.212546e+05  -7.881286e+05
  -2.325595e+03  -7.908129e+05
   6.269235e+05  -1.186495e+05
   7.705766e+05   6.276751e+05
   2.133799e+05   8.401559e+05
  -5.679767e+05   4.650195e+05
  -8.274964e+05  -8.805259e+04
  -3.638659e+05  -4.304033e+05
   2.234970e+05  -4.575243e+05
   2.394782e+05  -2.643711e+05
  -2.523737e+05  -3.190486e+04
  -5.168808e+05   1.483642e+04
  -8.835070e+04  -2.271842e+05
   6.419047e+05  -5.243251e+05
   9.213639e+05  -4.498677e+05
   5.232128e+05   9.716286e+04
  -8.844315e+04   6.448125e+05
  -3.804617e+05   6.278557e+05
  -2.696020e+05   7.463797e+04
  -5.112091e+03  -3.956943e+05
   2.008611e+05  -3.001877e+05
   2.747284e+05   1.708901e+05
   1.815481e+05   4.495260e+05
  -6.096047e+04   2.793036e+05
  -2.992467e+05  -6.220480e+04
  -3.435606e+05  -1.835227e+05
  -1.842032e+05  -4.277286e+04
  -3.637262e+03   7.409464e+04
   5.978952e+04  -5.411448e+04
   6.879341e+04  -3.098134e+05
   1.530819e+05  -3.668536e+05
   2.854300e+05  -6.681164e+04
   2.788229e+05   3.639463e+05
   1.776766e+04   5.121201e+05
  -3.462062e+05   2.118279e+05
  -4.734816e+05  -2.595168e+05
  -1.622260e+05  -4.670431e+05
   3.786125e+05  -2.675374e+05
   6.475801e+05   9.297404e+04
   3.489247e+05   2.979566e+05
  -2.320100e+05   2.646592e+05
  -4.820298e+05   1.184115e+05
  -1.510745e+05   1.051880e+03
   3.285054e+05  -7.433710e+03
   3.388978e+05   1.133820e+05
  -1.801255e+05   2.604542e+05
  -6.556181e+05   2.013853e+05
