
 $NMID
 id='ANONYMOUS ', fmtdat='(2E16.6)'
 volume=1.0
 tramp=1.0
 $END
  -4.155682e+07   2.696612e+06
  -2.798398e+07  -2.270825e+07
   2.037279e+06  -2.850775e+07
   1.962972e+07  -1.415555e+07
   1.393778e+07   2.786417e+06
  -1.126876e+06   7.528743e+06
  -8.068112e+06   7.361018e+05
  -3.753204e+06  -7.330629e+06
   3.832515e+06  -8.689441e+06
   7.555643e+06  -2.878876e+06
   5.832262e+06   4.616634e+06
   8.699077e+05   7.000959e+06
  -3.100621e+06   2.069044e+06
  -2.268123e+06  -4.896455e+06
   2.712278e+06  -6.067257e+06
   6.371591e+06   2.279738e+05
   4.239439e+06   7.687782e+06
  -2.136471e+06   9.446388e+06
  -7.380832e+06   4.962814e+06
  -8.040011e+06  -1.259045e+06
  -4.825211e+06  -5.172181e+06
  -7.835422e+05  -5.764198e+06
   1.144115e+06  -4.247548e+06
   1.382696e+05  -2.797938e+06
  -1.333439e+06  -3.012309e+06
   3.340855e+05  -4.061175e+06
   5.076277e+06  -3.307398e+06
   8.078403e+06   8.563957e+04
   5.469121e+06   3.428433e+06
  -3.369330e+05   3.732932e+06
  -3.446551e+06   1.407902e+06
  -1.689519e+06  -7.643839e+05
   1.664356e+06  -1.108785e+06
   2.910672e+06   1.258275e+05
   1.741615e+06   2.114990e+06
  -1.576613e+05   3.581276e+06
  -1.565797e+06   2.744243e+06
  -1.839397e+06  -3.782737e+05
  -8.040871e+05  -2.489481e+06
   3.101110e+05  -7.309324e+05
  -3.280078e+05   2.551332e+06
  -2.231695e+06   2.176083e+06
  -2.296576e+06  -2.285875e+06
   1.001643e+06  -4.965067e+06
   4.614253e+06  -1.513770e+06
   4.137450e+06   4.605019e+06
  -6.879206e+05   6.431021e+06
  -5.484328e+06   2.190750e+06
  -6.005662e+06  -3.323457e+06
  -2.086528e+06  -5.091213e+06
   2.835870e+06  -2.705564e+06
   4.864853e+06   8.873141e+05
   2.613397e+06   2.838296e+06
  -1.620226e+06   2.093569e+06
  -3.711964e+06  -3.290015e+05
  -1.873329e+06  -1.977070e+06
   1.227366e+06  -1.196429e+06
   1.672231e+06   7.948047e+05
  -7.257750e+05   1.225424e+06
  -2.307368e+06  -6.142777e+05
  -5.161059e+05  -2.449435e+06
   2.878077e+06  -2.050201e+06
   4.239966e+06   2.878301e+05
   2.244125e+06   2.809072e+06
  -1.432905e+06   4.253558e+06
  -4.372882e+06   3.893002e+06
  -5.117614e+06   1.262361e+06
  -3.495470e+06  -2.649308e+06
  -6.962965e+05  -5.099200e+06
   1.274734e+06  -4.258505e+06
   1.368706e+06  -1.640803e+06
   6.370852e+05  -2.681260e+05
   7.975258e+05  -7.686346e+05
   1.921218e+06  -9.958405e+05
   2.463753e+06   4.692518e+05
   1.424356e+06   2.218736e+06
  -4.818126e+05   2.071496e+06
  -1.787409e+06  -6.536528e+04
  -1.560759e+06  -2.264903e+06
   2.026397e+05  -2.738422e+06
   2.510276e+06  -1.211073e+06
   3.631142e+06   1.245735e+06
   2.470970e+06   3.055504e+06
   4.237504e+03   3.211452e+06
  -1.590646e+06   2.110845e+06
  -1.589062e+06   1.096842e+06
  -1.517471e+06   8.480878e+05
  -2.697349e+06   6.140988e+05
  -4.012948e+06  -5.960320e+05
  -3.238216e+06  -2.526098e+06
  -1.019020e+05  -3.858640e+06
   3.107722e+06  -3.568405e+06
   3.995763e+06  -1.722002e+06
   2.344506e+06   6.522042e+05
  -6.046256e+04   2.084307e+06
  -1.217301e+06   1.612275e+06
  -4.719548e+05  -1.186297e+05
   1.098796e+06  -1.141456e+06
   1.720862e+06  -3.336702e+05
   7.413299e+05   1.060906e+06
  -5.858380e+05   1.018033e+06
  -5.544085e+05  -3.950435e+05
   8.563980e+05  -9.530505e+05
   1.901414e+06   6.930136e+05
   1.150549e+06   3.068683e+06
  -9.879044e+05   3.627828e+06
  -2.942347e+06   1.683572e+06
  -3.502389e+06  -1.138152e+06
  -2.449880e+06  -2.837747e+06
  -4.330666e+05  -2.694094e+06
   1.277521e+06  -1.359561e+06
   1.525807e+06  -1.155087e+05
   4.660246e+05   5.351465e+04
  -3.341227e+05  -7.128090e+05
   3.330564e+05  -1.218768e+06
   1.693149e+06  -5.490503e+05
   1.890114e+06   7.461552e+05
   4.268376e+05   1.281863e+06
  -1.098361e+06   5.662957e+05
  -9.250449e+05  -4.623588e+05
   7.994961e+05  -6.450236e+05
   2.245467e+06   2.037996e+05
   1.854043e+06   1.389195e+06
  -2.083505e+05   2.053841e+06
  -2.281402e+06   1.639799e+06
  -2.672112e+06   2.404708e+05
  -1.140145e+06  -1.162340e+06
   8.243576e+05  -1.336475e+06
   1.372380e+06  -1.694577e+05
   1.391886e+05   9.520721e+05
  -1.419354e+06   6.607546e+05
  -1.641882e+06  -7.229288e+05
  -3.879421e+05  -1.593339e+06
   1.008492e+06  -1.028369e+06
   1.255639e+06   2.133046e+05
   3.180057e+05   7.375273e+05
  -7.066131e+05   7.681861e+04
  -6.614118e+05  -9.848248e+05
   5.872903e+05  -1.312271e+06
   1.906971e+06  -4.427397e+05
   1.886317e+06   1.040010e+06
   3.330337e+05   1.956751e+06
  -1.357130e+06   1.544867e+06
  -1.639620e+06   2.125257e+05
  -5.080561e+05  -8.261487e+05
   6.257167e+05  -7.839502e+05
   6.524749e+05  -3.894446e+04
  -1.082163e+05   4.484794e+05
  -5.795705e+05   2.582660e+05
  -2.566506e+05  -1.451908e+05
   3.947472e+05  -7.848381e+04
   5.647798e+05   5.578339e+05
  -1.337510e+05   1.133083e+06
  -1.307142e+06   8.581474e+05
  -1.973897e+06  -4.136147e+05
  -1.354282e+06  -1.862685e+06
   2.585334e+05  -2.317491e+06
   1.599973e+06  -1.379982e+06
   1.696482e+06   1.223664e+05
   8.826794e+05   9.735702e+05
   2.648344e+05   7.994514e+05
   3.296499e+05   2.861906e+05
   5.035028e+05   2.353238e+05
   8.204428e+04   6.574368e+05
  -8.246488e+05   8.719241e+05
  -1.424684e+06   3.295845e+05
  -1.053766e+06  -7.534517e+05
   2.475749e+05  -1.488030e+06
   1.691432e+06  -1.047376e+06
   2.172943e+06   4.970577e+05
   1.097495e+06   2.021882e+06
  -9.244279e+05   2.256762e+06
  -2.401509e+06   1.013670e+06
  -2.297369e+06  -6.005798e+05
  -1.005163e+06  -1.331912e+06
   1.869188e+05  -1.020684e+06
   4.851698e+05  -5.450042e+05
   2.134683e+05  -6.563003e+05
   1.568903e+05  -1.138911e+06
   6.178635e+05  -1.162143e+06
   1.189105e+06  -2.744603e+05
   1.230374e+06   1.055102e+06
   4.811174e+05   1.815776e+06
  -6.316118e+05   1.352295e+06
  -1.238822e+06  -1.320844e+04
  -7.860747e+05  -1.207944e+06
   3.339664e+05  -1.338755e+06
   1.070369e+06  -4.646190e+05
   7.925059e+05   5.628994e+05
  -3.576816e+04   9.876230e+05
  -4.318443e+05   7.850565e+05
  -6.356711e+04   4.497081e+05
   3.794494e+05   3.432217e+05
   3.395128e+04   3.708127e+05
  -1.068404e+06   2.036913e+05
  -1.917542e+06  -3.174997e+05
  -1.531961e+06  -9.836947e+05
  -1.432660e+04  -1.342014e+06
   1.455789e+06  -1.062011e+06
   1.740374e+06  -2.836429e+05
   8.375040e+05   4.140858e+05
  -2.130887e+05   5.112397e+05
  -4.788113e+05   6.344489e+04
  -1.458911e+04  -3.442787e+05
   4.474744e+05  -2.132085e+05
   4.417236e+05   3.332970e+05
   1.615516e+05   6.878285e+05
   2.528816e+04   4.409126e+05
   1.553176e+05  -1.252992e+05
   3.365183e+05  -3.052704e+05
   2.711771e+05   2.249317e+05
  -1.913919e+05   9.455074e+05
  -8.706331e+05   9.873264e+05
  -1.217322e+06   1.278061e+05
  -7.245127e+05  -8.635153e+05
   3.969525e+05  -1.022867e+06
   1.143949e+06  -2.561732e+05
   6.712422e+05   5.757915e+05
  -6.725116e+05   6.217025e+05
  -1.551697e+06  -1.020362e+05
  -1.024174e+06  -8.601417e+05
   4.460030e+05  -1.004179e+06
   1.488958e+06  -4.998001e+05
   1.242034e+06   1.871505e+05
   1.411826e+05   5.193845e+05
  -6.304556e+05   2.734160e+05
  -3.503140e+05  -2.637052e+05
   5.837030e+05  -4.490970e+05
   1.105333e+06   1.400039e+05
   5.584971e+05   1.141635e+06
  -6.476317e+05   1.568758e+06
  -1.448659e+06   7.665231e+05
  -1.173082e+06  -7.712730e+05
  -1.406730e+05  -1.729081e+06
   7.526074e+05  -1.250700e+06
   9.073779e+05   1.624909e+05
   4.219946e+05   1.163862e+06
  -2.015534e+05   9.682350e+05
  -5.366491e+05   9.166541e+04
  -4.658026e+05  -3.944971e+05
  -1.825072e+05  -1.624549e+05
  -4.076221e+04   1.071069e+05
  -2.240289e+05  -2.434029e+05
  -4.532647e+05  -9.198699e+05
  -1.953656e+05  -1.065989e+06
   6.518038e+05  -3.920861e+05
   1.410548e+06   4.846046e+05
   1.246781e+06   8.506526e+05
   1.698499e+05   6.687165e+05
  -8.586493e+05   3.628989e+05
  -9.665026e+05   1.584665e+05
  -3.273413e+05  -2.661605e+04
   1.554461e+05  -2.034539e+05
   1.119805e+04  -2.333579e+05
  -2.799770e+05  -1.379447e+05
  -2.880303e+04  -1.232366e+05
   6.729502e+05  -1.740811e+05
   9.902847e+05   4.490295e+04
   3.448308e+05   6.368596e+05
  -8.570250e+05   1.064793e+06
  -1.603374e+06   6.687109e+05
  -1.281645e+06  -4.426717e+05
  -2.114519e+05  -1.349753e+06
   7.497741e+05  -1.289961e+06
   1.002002e+06  -4.651081e+05
   6.152313e+05   2.607564e+05
   1.040990e+05   3.365947e+05
  -8.829991e+04   2.362908e+04
   7.975720e+04  -4.464126e+04
   3.010123e+05   3.571097e+05
   2.314581e+05   7.861692e+05
  -1.901354e+05   6.334553e+05
  -6.416991e+05  -1.583164e+05
  -6.510404e+05  -9.370823e+05
  -5.220328e+04  -9.632911e+05
   7.264474e+05  -1.766969e+05
   9.444538e+05   7.349094e+05
   2.877516e+05   1.034614e+06
  -6.880155e+05   6.041372e+05
  -1.045443e+06  -9.705397e+04
  -4.881073e+05  -5.649885e+05
   2.706863e+05  -6.136004e+05
   3.409819e+05  -3.509799e+05
  -2.577114e+05  -4.204239e+04
  -6.259066e+05   1.350990e+04
  -1.264512e+05  -2.863248e+05
   8.064953e+05  -6.331423e+05
   1.204062e+06  -5.221452e+05
   7.093789e+05   1.484015e+05
  -1.078055e+05   8.153945e+05
  -5.159594e+05   8.082051e+05
  -3.705665e+05   1.416123e+05
  -1.888373e+04  -4.611416e+05
   2.344063e+05  -3.922341e+05
   3.193950e+05   1.736442e+05
   2.249839e+05   5.555106e+05
  -5.282852e+04   3.805004e+05
  -3.645412e+05  -6.141943e+04
  -4.496860e+05  -2.565868e+05
  -2.384757e+05  -8.235555e+04
   2.901849e+04   1.175398e+05
   1.021007e+05   3.906988e+03
   3.966451e+04  -3.321189e+05
   9.064916e+04  -4.678309e+05
   2.968186e+05  -1.482262e+05
   3.790731e+05   3.805107e+05
   9.043353e+04   5.985339e+05
  -4.011943e+05   2.715163e+05
  -6.017979e+05  -2.871763e+05
  -2.110764e+05  -5.546291e+05
   4.831850e+05  -3.384164e+05
   8.196871e+05   9.342092e+04
   4.412597e+05   3.671564e+05
  -2.778435e+05   3.578101e+05
  -5.945634e+05   1.859882e+05
  -2.187869e+05   2.013059e+04
   3.448773e+05  -2.215853e+04
   3.803683e+05   1.021990e+05
  -1.977088e+05   2.757658e+05
  -7.484393e+05   2.190165e+05
