
 $NMID
 id='ANONYMOUS ', fmtdat='(2E16.6)'
 volume=1.0
 tramp=1.0
 $END
   3.361412e+07  -6.477681e+05
   2.162967e+07   1.789233e+07
  -1.844666e+06   2.202393e+07
  -1.521761e+07   1.171148e+07
  -1.098665e+07  -1.148719e+06
   4.842380e+05  -5.796497e+06
   6.282380e+06  -1.304084e+06
   3.525772e+06   5.504901e+06
  -2.438878e+06   7.472589e+06
  -5.952996e+06   2.814808e+06
  -4.927594e+06  -3.927167e+06
  -7.449204e+05  -6.110735e+06
   2.807528e+06  -1.630068e+06
   2.236107e+06   4.519195e+06
  -1.957376e+06   5.472195e+06
  -5.174628e+06   5.236004e+04
  -3.582887e+06  -6.282516e+06
   1.711468e+06  -7.774115e+06
   6.169243e+06  -3.906157e+06
   6.561997e+06   1.463804e+06
   3.464326e+06   4.562384e+06
   2.092027e+04   4.456031e+06
  -9.139870e+05   2.800612e+06
   7.490354e+05   2.006074e+06
   1.994864e+06   3.002833e+06
  -2.394482e+05   4.173816e+06
  -4.994669e+06   3.101134e+06
  -7.521596e+06  -3.026849e+05
  -4.717630e+06  -3.303118e+06
   8.050916e+05  -3.429281e+06
   3.632002e+06  -1.118151e+06
   1.760252e+06   1.216721e+06
  -1.818292e+06   1.728238e+06
  -3.313814e+06   1.750516e+05
  -1.992293e+06  -2.335061e+06
   3.081936e+05  -3.717396e+06
   1.681949e+06  -2.288789e+06
   1.436494e+06   9.131465e+05
   1.683121e+05   2.331480e+06
  -5.917988e+05   1.131586e+05
   3.012410e+05  -2.817558e+06
   1.952281e+06  -2.145782e+06
   1.963440e+06   1.768088e+06
  -5.630510e+05   3.862213e+06
  -3.305694e+06   1.015671e+06
  -3.040875e+06  -3.721875e+06
   6.053880e+05  -5.017546e+06
   4.539933e+06  -1.658679e+06
   5.266919e+06   2.728439e+06
   2.117145e+06   4.315424e+06
  -2.297213e+06   2.569568e+06
  -4.360578e+06  -4.038933e+05
  -2.541292e+06  -2.218447e+06
   1.164116e+06  -1.775123e+06
   3.073932e+06   1.582362e+05
   1.622386e+06   1.530814e+06
  -9.942050e+05   9.846478e+05
  -1.555856e+06  -5.800971e+05
   2.645328e+05  -1.094097e+06
   1.732329e+06   8.265923e+04
   6.665790e+05   1.496610e+06
  -1.941355e+06   1.520303e+06
  -3.291947e+06  -1.245708e+04
  -1.873038e+06  -2.153333e+06
   1.336484e+06  -3.714453e+06
   4.086837e+06  -3.515723e+06
   4.670575e+06  -1.009979e+06
   2.996332e+06   2.559950e+06
   5.428524e+05   4.598787e+06
  -8.977154e+05   3.784110e+06
  -8.680947e+05   1.669983e+06
  -5.310885e+05   6.937533e+05
  -1.084048e+06   1.089739e+06
  -2.226849e+06   9.788304e+05
  -2.600696e+06  -6.518873e+05
  -1.465655e+06  -2.388706e+06
   5.106300e+05  -2.230469e+06
   1.929858e+06  -8.377254e+04
   1.726455e+06   2.178905e+06
  -1.342537e+05   2.678471e+06
  -2.427076e+06   1.104409e+06
  -3.334782e+06  -1.290152e+06
  -2.066552e+06  -2.825312e+06
   1.584761e+05  -2.725514e+06
   1.384501e+06  -1.658450e+06
   1.235633e+06  -8.956529e+05
   1.212662e+06  -8.624458e+05
   2.407073e+06  -7.513486e+05
   3.726782e+06   3.379201e+05
   3.132407e+06   2.196314e+06
   2.811145e+05   3.627377e+06
  -2.817284e+06   3.527328e+06
  -3.822416e+06   1.760123e+06
  -2.301331e+06  -6.600378e+05
   7.726880e+04  -2.106805e+06
   1.227174e+06  -1.585987e+06
   4.678869e+05   1.481918e+05
  -1.046211e+06   1.131982e+06
  -1.594228e+06   3.516569e+05
  -6.698583e+05  -9.920861e+05
   5.520242e+05  -1.021747e+06
   6.131420e+05   2.844849e+05
  -5.625372e+05   9.850285e+05
  -1.641612e+06  -2.846754e+05
  -1.348956e+06  -2.491422e+06
   3.504592e+05  -3.381914e+06
   2.374239e+06  -1.972283e+06
   3.394774e+06   6.183579e+05
   2.681766e+06   2.483008e+06
   6.634480e+05   2.596233e+06
  -1.179356e+06   1.389172e+06
  -1.489720e+06   1.689977e+05
  -4.457233e+05  -2.923251e+04
   3.518348e+05   6.561158e+05
  -2.500514e+05   1.118614e+06
  -1.521258e+06   5.547245e+05
  -1.760607e+06  -5.821880e+05
  -4.649532e+05  -1.131873e+06
   9.879876e+05  -5.969349e+05
   9.437919e+05   3.572908e+05
  -6.405798e+05   7.085051e+05
  -2.144754e+06   5.861468e+04
  -1.949385e+06  -1.146239e+06
  -1.881355e+04  -2.002289e+06
   2.057002e+06  -1.742096e+06
   2.526449e+06  -3.865553e+05
   1.112146e+06   1.024031e+06
  -7.283149e+05   1.245823e+06
  -1.246515e+06   1.771526e+05
  -1.269445e+05  -8.866237e+05
   1.311569e+06  -6.753982e+05
   1.579833e+06   5.774333e+05
   4.908906e+05   1.454109e+06
  -8.317184e+05   1.048214e+06
  -1.176301e+06  -6.918780e+04
  -3.700575e+05  -6.336328e+05
   6.305290e+05  -9.715640e+04
   6.560598e+05   9.035277e+05
  -5.151471e+05   1.273341e+06
  -1.806883e+06   4.951107e+05
  -1.836202e+06  -9.143013e+05
  -4.023914e+05  -1.833307e+06
   1.195181e+06  -1.516842e+06
   1.523788e+06  -2.948034e+05
   5.352503e+05   7.345985e+05
  -5.358675e+05   7.804177e+05
  -6.494148e+05   8.428161e+04
   2.149703e+04  -4.686570e+05
   5.452172e+05  -3.568837e+05
   3.473226e+05   8.387101e+04
  -2.776891e+05   1.405379e+05
  -5.507124e+05  -4.235862e+05
   3.409916e+04  -1.043559e+06
   1.174724e+06  -8.808386e+05
   1.888978e+06   2.880680e+05
   1.371877e+06   1.702096e+06
  -1.259230e+05   2.228226e+06
  -1.434880e+06   1.435413e+06
  -1.639609e+06   2.466801e+04
  -9.722871e+05  -8.797788e+05
  -3.697662e+05  -8.258392e+05
  -3.167927e+05  -3.430542e+05
  -4.196358e+05  -2.145007e+05
  -7.843353e+04  -5.883673e+05
   7.144014e+05  -8.687494e+05
   1.329153e+06  -4.242586e+05
   1.090121e+06   6.457821e+05
  -1.007140e+05   1.458193e+06
  -1.538978e+06   1.120456e+06
  -2.106115e+06  -3.409904e+05
  -1.167938e+06  -1.840950e+06
   7.247771e+05  -2.161408e+06
   2.180101e+06  -1.094562e+06
   2.207130e+06   3.939103e+05
   1.088894e+06   1.171365e+06
  -5.311578e+04   1.014524e+06
  -4.407624e+05   6.223340e+05
  -2.491848e+05   6.767297e+05
  -1.595680e+05   1.069647e+06
  -5.406927e+05   1.093788e+06
  -1.102398e+06   2.930495e+05
  -1.215417e+06  -9.565180e+05
  -5.430839e+05  -1.712952e+06
   5.421783e+05  -1.323629e+06
   1.179388e+06  -6.117604e+04
   8.072567e+05   1.080972e+06
  -2.183644e+05   1.264438e+06
  -9.271317e+05   5.111750e+05
  -7.351330e+05  -4.344070e+05
  -3.653189e+04  -8.761940e+05
   3.099482e+05  -7.399521e+05
   8.935559e+01  -4.395666e+05
  -3.756567e+05  -3.277138e+05
  -4.704809e+04  -3.611694e+05
   9.822514e+05  -2.414204e+05
   1.805857e+06   2.137564e+05
   1.494191e+06   8.417584e+05
   9.774636e+04   1.227863e+06
  -1.300223e+06   1.044140e+06
  -1.611693e+06   3.719183e+05
  -8.006994e+05  -2.972769e+05
   1.731246e+05  -4.629686e+05
   4.275516e+05  -9.531274e+04
  -2.107803e+03   3.078203e+05
  -4.367379e+05   2.259514e+05
  -4.318081e+05  -3.009102e+05
  -1.582984e+05  -6.805375e+05
  -1.365212e+04  -4.427780e+05
  -1.301043e+05   1.540761e+05
  -3.136624e+05   3.555475e+05
  -2.740988e+05  -1.923461e+05
   1.456753e+05  -9.340529e+05
   7.844280e+05  -9.761141e+05
   1.128095e+06  -1.309208e+05
   6.919824e+05   8.164055e+05
  -3.504766e+05   9.614232e+05
  -1.076513e+06   2.497225e+05
  -6.697332e+05  -5.319242e+05
   5.970445e+05  -6.270166e+05
   1.487927e+06  -9.297127e+03
   1.061058e+06   7.297871e+05
  -3.214424e+05   9.873427e+05
  -1.373211e+06   6.076881e+05
  -1.210267e+06  -6.937908e+04
  -1.847123e+05  -4.853950e+05
   5.730057e+05  -3.068274e+05
   3.286702e+05   2.307173e+05
  -5.637937e+05   4.506132e+05
  -1.076538e+06  -1.096799e+05
  -5.645877e+05  -1.099119e+06
   5.917496e+05  -1.541412e+06
   1.383164e+06  -7.893817e+05
   1.166471e+06   6.969066e+05
   2.186278e+05   1.660471e+06
  -6.480672e+05   1.254400e+06
  -8.695984e+05  -8.390144e+04
  -4.838453e+05  -1.075818e+06
   1.037330e+05  -9.359257e+05
   4.923628e+05  -1.218649e+05
   4.915598e+05   3.460749e+05
   2.126728e+05   1.391294e+05
   1.947641e+04  -1.063294e+05
   1.806019e+05   2.275184e+05
   4.618183e+05   8.603070e+05
   2.733605e+05   9.988097e+05
  -5.675735e+05   3.919744e+05
  -1.381646e+06  -3.927231e+05
  -1.265475e+06  -7.359879e+05
  -1.955201e+05  -6.243461e+05
   8.319874e+05  -4.025775e+05
   9.221872e+05  -2.146576e+05
   2.848238e+05   7.784324e+03
  -1.506752e+05   2.059936e+05
   3.907372e+04   2.204510e+05
   3.171243e+05   1.161601e+05
   2.254494e+04   1.265701e+05
  -6.786706e+05   2.075327e+05
  -9.543494e+05  -9.802075e+03
  -3.105837e+05  -6.192354e+05
   8.159904e+05  -1.060447e+06
   1.501948e+06  -6.774033e+05
   1.222321e+06   4.096695e+05
   2.543850e+05   1.299241e+06
  -6.601531e+05   1.255853e+06
  -9.538093e+05   4.694722e+05
  -6.177677e+05  -2.374590e+05
  -1.011654e+05  -3.265215e+05
   1.222132e+05  -2.533093e+04
  -5.119561e+04   6.109588e+04
  -3.133625e+05  -3.107916e+05
  -2.694464e+05  -7.363061e+05
   1.652466e+05  -6.139138e+05
   6.423999e+05   1.409427e+05
   6.606026e+05   9.035588e+05
   5.606517e+04   9.408239e+05
  -7.267382e+05   1.835515e+05
  -9.461205e+05  -6.984942e+05
  -3.001609e+05  -9.921836e+05
   6.537512e+05  -5.908123e+05
   9.990710e+05   6.632975e+04
   4.633040e+05   5.122526e+05
  -2.487493e+05   5.727736e+05
  -2.922802e+05   3.299669e+05
   2.824993e+05   2.272184e+04
   6.104053e+05  -3.996208e+04
   1.211295e+05   2.702691e+05
  -7.450084e+05   6.464184e+05
  -1.098160e+06   5.587704e+05
  -6.474649e+05  -1.080493e+05
   7.795434e+04  -7.785985e+05
   4.445841e+05  -7.723490e+05
   3.355149e+05  -1.153662e+05
   3.053695e+04   4.623100e+05
  -2.229326e+05   3.754139e+05
  -3.309515e+05  -1.762555e+05
  -2.363688e+05  -5.276040e+05
   5.528447e+04  -3.499712e+05
   3.585710e+05   5.498389e+04
   4.236615e+05   2.162193e+05
   2.226906e+05   5.417078e+04
  -8.559942e+03  -1.006096e+05
  -7.284543e+04   3.944934e+04
  -4.784368e+04   3.578209e+05
  -1.322360e+05   4.572563e+05
  -3.226104e+05   1.203915e+05
  -3.663924e+05  -3.994049e+05
  -7.117325e+04  -6.028870e+05
   3.944487e+05  -2.734540e+05
   5.844526e+05   2.777693e+05
   2.195947e+05   5.422697e+05
  -4.454924e+05   3.369665e+05
  -7.843864e+05  -7.629871e+04
  -4.324150e+05  -3.400868e+05
   2.641682e+05  -3.370855e+05
   5.717779e+05  -1.764714e+05
   1.928258e+05  -1.211032e+04
  -3.701632e+05   3.288052e+04
  -3.979476e+05  -1.033336e+05
   1.903597e+05  -3.036495e+05
   7.474254e+05  -2.632603e+05
