
 $NMID
 id='ANONYMOUS ', fmtdat='(2E16.6)'
 volume=1.0
 tramp=1.0
 $END
  -2.924488e+07   4.428643e+05
  -1.921815e+07  -1.427051e+07
   5.613923e+05  -1.866317e+07
   1.263489e+07  -1.150971e+07
   1.004228e+07  -4.989313e+05
   2.961644e+05   5.103343e+06
  -5.629651e+06   2.140560e+06
  -3.969134e+06  -4.597337e+06
   1.486584e+06  -7.428435e+06
   5.262031e+06  -3.234330e+06
   4.642837e+06   3.578376e+06
   7.371229e+05   5.837686e+06
  -2.692416e+06   1.392011e+06
  -2.284625e+06  -4.613503e+06
   1.566637e+06  -5.553805e+06
   4.724993e+06  -4.421217e+05
   3.532089e+06   5.585070e+06
  -1.281564e+06   7.111429e+06
  -5.484415e+06   3.521099e+06
  -5.759922e+06  -1.489571e+06
  -2.696001e+06  -4.089406e+06
   2.805995e+05  -3.520285e+06
   4.300764e+05  -1.962196e+06
  -1.622446e+06  -1.895690e+06
  -2.466919e+06  -3.499593e+06
   4.106726e+05  -4.535845e+06
   5.311349e+06  -2.949279e+06
   7.495745e+06   6.207242e+05
   4.363252e+06   3.367252e+06
  -1.240218e+06   3.226274e+06
  -3.941377e+06   7.547268e+05
  -1.711719e+06  -1.722209e+06
   2.333375e+06  -2.152059e+06
   3.924828e+06  -1.172870e+05
   2.118057e+06   2.818297e+06
  -6.513951e+05   3.984624e+06
  -1.818427e+06   1.985433e+06
  -1.009536e+06  -1.284941e+06
   3.318883e+05  -2.150398e+06
   6.248362e+05   4.526272e+05
  -5.181966e+05   3.181844e+06
  -1.956163e+06   2.265753e+06
  -1.944364e+06  -1.474451e+06
   6.897120e+04  -3.426555e+06
   2.431814e+06  -1.021633e+06
   2.571479e+06   3.065920e+06
  -3.175628e+05   4.300922e+06
  -4.024023e+06   1.498103e+06
  -5.139682e+06  -2.444076e+06
  -2.346175e+06  -4.124072e+06
   2.115753e+06  -2.714981e+06
   4.414429e+06   9.711379e+04
   2.763526e+06   1.995725e+06
  -8.730416e+05   1.762740e+06
  -2.854257e+06   4.120359e+04
  -1.629159e+06  -1.288120e+06
   8.561834e+05  -9.299518e+05
   1.617554e+06   4.889824e+05
   5.233650e+04   1.215698e+06
  -1.602700e+06   4.215589e+05
  -1.082068e+06  -9.783282e+05
   1.264424e+06  -1.466675e+06
   2.901891e+06  -3.672813e+05
   1.849673e+06   1.766009e+06
  -1.330679e+06   3.526056e+06
  -4.161037e+06   3.374431e+06
  -4.593885e+06   8.336039e+05
  -2.735542e+06  -2.616264e+06
  -4.319843e+05  -4.492827e+06
   6.854097e+05  -3.765645e+06
   6.446899e+05  -1.929567e+06
   6.670129e+05  -1.058082e+06
   1.519520e+06  -1.241681e+06
   2.623809e+06  -8.214207e+05
   2.768596e+06   9.880541e+05
   1.421921e+06   2.739801e+06
  -7.167442e+05   2.452460e+06
  -2.208589e+06   6.334875e+04
  -1.887626e+06  -2.385436e+06
   1.909849e+05  -2.819406e+06
   2.529883e+06  -1.016459e+06
   3.253763e+06   1.449381e+06
   1.853937e+06   2.786885e+06
  -2.413349e+05   2.478579e+06
  -1.239371e+06   1.441327e+06
  -1.026560e+06   8.709390e+05
  -1.109892e+06   9.768639e+05
  -2.425877e+06   8.900206e+05
  -3.823298e+06  -2.394526e+05
  -3.265143e+06  -2.196610e+06
  -3.466125e+05  -3.758514e+06
   2.924282e+06  -3.690192e+06
   4.025641e+06  -1.786059e+06
   2.381180e+06   7.942025e+05
  -1.956671e+05   2.244774e+06
  -1.372451e+06   1.608137e+06
  -4.779819e+05  -1.974951e+05
   1.119434e+06  -1.167293e+06
   1.623165e+06  -3.603594e+05
   6.399111e+05   1.008671e+06
  -6.078673e+05   1.076290e+06
  -7.198195e+05  -2.679997e+05
   4.374683e+05  -1.145827e+06
   1.681813e+06  -1.200772e+04
   1.664912e+06   2.354507e+06
   2.560806e+04   3.617689e+06
  -2.296105e+06   2.394832e+06
  -3.679348e+06  -3.938146e+05
  -3.028683e+06  -2.579676e+06
  -7.898714e+05  -2.795553e+06
   1.253921e+06  -1.478022e+06
   1.582536e+06  -1.642508e+05
   4.660168e+05   2.643919e+04
  -3.770814e+05  -6.770409e+05
   2.198697e+05  -1.132544e+06
   1.516927e+06  -5.853172e+05
   1.806799e+06   5.319692e+05
   5.241200e+05   1.126630e+06
  -1.005074e+06   6.511084e+05
  -1.036227e+06  -3.502591e+05
   6.173606e+05  -8.239648e+05
   2.296746e+06  -1.920417e+05
   2.171984e+06   1.160186e+06
   1.137908e+05   2.167959e+06
  -2.134372e+06   1.910231e+06
  -2.645290e+06   4.544342e+05
  -1.163428e+06  -1.027069e+06
   7.276708e+05  -1.258345e+06
   1.243207e+06  -1.821151e+05
   1.096063e+05   8.953562e+05
  -1.349358e+06   7.070411e+05
  -1.657438e+06  -5.560562e+05
  -5.800936e+05  -1.500567e+06
   8.078672e+05  -1.152312e+06
   1.238482e+06  -7.199122e+03
   4.394992e+05   6.313087e+05
  -6.244110e+05   1.163791e+05
  -6.799082e+05  -9.269157e+05
   5.378591e+05  -1.324893e+06
   1.885737e+06  -5.172830e+05
   1.915849e+06   9.442632e+05
   4.385890e+05   1.899118e+06
  -1.209606e+06   1.593370e+06
  -1.576192e+06   3.452789e+05
  -5.879980e+05  -7.468382e+05
   5.366954e+05  -8.339208e+05
   7.069962e+05  -9.546371e+04
   1.315483e+04   5.406600e+05
  -6.031390e+05   4.382072e+05
  -4.518731e+05  -9.064996e+04
   2.371063e+05  -2.216009e+05
   6.012817e+05   3.722284e+05
   1.993673e+04   1.075608e+06
  -1.198523e+06   9.445337e+05
  -1.974457e+06  -2.700792e+05
  -1.448716e+06  -1.758349e+06
   1.062695e+05  -2.341875e+06
   1.487268e+06  -1.557977e+06
   1.752208e+06  -7.954439e+04
   1.091420e+06   9.410511e+05
   4.234002e+05   9.498759e+05
   2.919611e+05   4.161824e+05
   3.815251e+05   2.028900e+05
   7.728511e+04   5.768467e+05
  -7.168637e+05   9.258614e+05
  -1.393719e+06   4.920708e+05
  -1.191943e+06  -6.694263e+05
   5.555377e+04  -1.572944e+06
   1.598938e+06  -1.226237e+06
   2.226458e+06   3.200950e+05
   1.271558e+06   1.899758e+06
  -6.880271e+05   2.262103e+06
  -2.230778e+06   1.200141e+06
  -2.332124e+06  -3.352202e+05
  -1.220854e+06  -1.204567e+06
   1.859450e+03  -1.116931e+06
   4.903677e+05  -7.132278e+05
   3.284433e+05  -7.104466e+05
   1.958518e+05  -1.077640e+06
   5.436290e+05  -1.114234e+06
   1.127215e+06  -3.051680e+05
   1.271123e+06   9.934831e+05
   5.806905e+05   1.790158e+06
  -5.600565e+05   1.391587e+06
  -1.237619e+06   8.704123e+04
  -8.680999e+05  -1.098785e+06
   1.785522e+05  -1.318692e+06
   9.188057e+05  -5.847046e+05
   7.633380e+05   3.806141e+05
   9.062530e+04   8.754799e+05
  -2.575440e+05   7.808164e+05
   3.030893e+04   4.814636e+05
   3.867689e+05   3.527314e+05
   4.635584e+04   3.833770e+05
  -1.004264e+06   2.691778e+05
  -1.862420e+06  -1.944148e+05
  -1.570382e+06  -8.445308e+05
  -1.490010e+05  -1.253467e+06
   1.308006e+06  -1.090842e+06
   1.664933e+06  -4.316263e+05
   8.503913e+05   2.533231e+05
  -1.589880e+05   4.622594e+05
  -4.318350e+05   1.228865e+05
   1.621646e+04  -2.946244e+05
   4.711411e+05  -2.334463e+05
   4.491551e+05   3.122684e+05
   1.374089e+05   7.240959e+05
  -1.474826e+04   4.686305e+05
   1.366422e+05  -1.875542e+05
   3.496808e+05  -4.082412e+05
   2.953987e+05   1.939478e+05
  -1.599076e+05   9.929814e+05
  -8.103861e+05   1.022576e+06
  -1.139704e+06   1.206021e+05
  -6.903089e+05  -8.530451e+05
   3.607481e+05  -9.762933e+05
   1.103431e+06  -2.348105e+05
   7.015537e+05   5.628740e+05
  -6.091804e+05   6.690872e+05
  -1.572899e+06   4.630105e+04
  -1.166335e+06  -7.402782e+05
   2.888840e+05  -1.064964e+06
   1.438521e+06  -7.027027e+05
   1.299872e+06   3.086638e+04
   2.180562e+05   5.140275e+05
  -5.918010e+05   3.444945e+05
  -3.341294e+05  -2.281714e+05
   6.052868e+05  -4.611779e+05
   1.128124e+06   1.330587e+05
   5.692412e+05   1.164328e+06
  -6.481597e+05   1.610317e+06
  -1.465350e+06   8.155565e+05
  -1.228762e+06  -7.364601e+05
  -2.380660e+05  -1.750762e+06
   6.697723e+05  -1.342278e+06
   9.193435e+05   5.768207e+04
   5.411711e+05   1.121379e+06
  -6.933148e+04   9.994365e+05
  -5.062763e+05   1.445775e+05
  -5.422345e+05  -3.630638e+05
  -2.499754e+05  -1.504867e+05
  -9.511539e+03   1.188931e+05
  -1.549436e+05  -2.233663e+05
  -4.785445e+05  -8.941591e+05
  -3.259387e+05  -1.050973e+06
   5.586903e+05  -4.196052e+05
   1.460736e+06   4.022773e+05
   1.364618e+06   7.613164e+05
   2.135402e+05   6.484442e+05
  -8.964574e+05   4.285433e+05
  -9.763250e+05   2.429527e+05
  -2.773675e+05   7.213723e+03
   1.668218e+05  -2.156928e+05
  -7.305442e+04  -2.438011e+05
  -3.665677e+05  -1.344231e+05
  -1.237491e+04  -1.357565e+05
   7.463507e+05  -2.124713e+05
   9.992212e+05   1.547403e+04
   2.826919e+05   6.474751e+05
  -8.835404e+05   1.100891e+06
  -1.555065e+06   6.929166e+05
  -1.247971e+06  -4.462586e+05
  -2.603655e+05  -1.369779e+06
   6.807564e+05  -1.310132e+06
   1.000851e+06  -4.752745e+05
   6.555276e+05   2.640441e+05
   9.393133e+04   3.430779e+05
  -1.566651e+05   1.100027e+04
   4.169155e+04  -8.451537e+04
   3.438621e+05   3.144832e+05
   2.981091e+05   7.708102e+05
  -1.782972e+05   6.390077e+05
  -6.827485e+05  -1.662611e+05
  -6.796776e+05  -9.687085e+05
  -2.749450e+04  -9.872106e+05
   7.833054e+05  -1.671259e+05
   9.875985e+05   7.589778e+05
   2.976584e+05   1.041056e+06
  -6.917922e+05   6.001036e+05
  -1.035019e+06  -7.731567e+04
  -4.687752e+05  -5.179609e+05
   2.602010e+05  -5.746860e+05
   2.823316e+05  -3.384948e+05
  -3.242373e+05  -3.119783e+04
  -6.481563e+05   3.956630e+04
  -1.179945e+05  -2.790872e+05
   7.802414e+05  -6.840732e+05
   1.126736e+06  -6.073355e+05
   6.512747e+05   9.323641e+04
  -8.353048e+04   8.070154e+05
  -4.425643e+05   7.985900e+05
  -3.269664e+05   9.991641e+04
  -1.967084e+04  -4.976299e+05
   2.397896e+05  -3.803543e+05
   3.514196e+05   2.082707e+05
   2.452185e+05   5.547579e+05
  -6.604485e+04   3.460414e+05
  -3.764074e+05  -6.790402e+04
  -4.350367e+05  -2.102835e+05
  -2.321975e+05  -4.145935e+04
  -4.818698e+03   8.778933e+04
   7.238682e+04  -8.069216e+04
   8.191535e+04  -3.943651e+05
   1.884570e+05  -4.579907e+05
   3.579509e+05  -8.392820e+04
   3.554789e+05   4.508077e+05
   3.253196e+04   6.406794e+05
  -4.273494e+05   2.764618e+05
  -5.989522e+05  -3.089078e+05
  -2.192740e+05  -5.800921e+05
   4.604239e+05  -3.497016e+05
   8.099549e+05   9.198854e+04
   4.468676e+05   3.580442e+05
  -2.788672e+05   3.356429e+05
  -5.956457e+05   1.623887e+05
  -1.836024e+05   7.051468e+03
   4.172737e+05  -1.748995e+04
   4.309240e+05   1.346997e+05
  -2.201612e+05   3.372514e+05
  -8.207277e+05   2.789918e+05
