
 $NMID
 id='ANONYMOUS ', fmtdat='(2E16.6)'
 volume=1.0
 tramp=1.0
 $END
  -5.287040e+07   2.106612e+06
  -3.342099e+07  -3.104389e+07
   5.107196e+06  -3.600522e+07
   2.526492e+07  -1.533272e+07
   1.606380e+07   5.466945e+06
  -2.507257e+06   8.963180e+06
  -9.435308e+06  -4.524161e+05
  -3.306627e+06  -9.095632e+06
   5.349493e+06  -9.386559e+06
   9.092172e+06  -2.503289e+06
   6.897946e+06   5.640184e+06
   1.068599e+06   8.218374e+06
  -3.712843e+06   2.682069e+06
  -2.707000e+06  -5.282080e+06
   3.330830e+06  -6.580363e+06
   7.564597e+06   8.382661e+05
   4.700516e+06   9.495274e+06
  -3.049201e+06   1.136960e+07
  -9.301911e+06   5.977961e+06
  -1.021989e+07  -1.573810e+06
  -6.389895e+06  -6.769279e+06
  -9.298600e+05  -7.931739e+06
   2.310160e+06  -5.671651e+06
   1.304660e+06  -2.765879e+06
  -1.285775e+06  -2.379995e+06
  -2.281620e+05  -4.208825e+06
   5.272563e+06  -4.315576e+06
   9.343008e+06  -6.054025e+05
   6.800065e+06   3.802849e+06
   2.086466e+05   4.755927e+06
  -3.640713e+06   2.381887e+06
  -2.306069e+06  -1.492250e+05
   8.742284e+05  -1.049359e+06
   2.487025e+06  -4.229953e+05
   2.170191e+06   1.571636e+06
   5.957304e+05   3.878731e+06
  -1.655166e+06   3.647679e+06
  -2.891670e+06  -1.104607e+05
  -1.562919e+06  -3.330257e+06
   6.301432e+05  -1.627983e+06
   2.448004e+05   2.526590e+06
  -2.356075e+06   2.376598e+06
  -2.510766e+06  -2.904429e+06
   1.901973e+06  -5.922625e+06
   6.342322e+06  -1.320395e+06
   5.064672e+06   6.238814e+06
  -1.386743e+06   8.085443e+06
  -6.916042e+06   2.568817e+06
  -6.893929e+06  -4.002909e+06
  -2.106088e+06  -5.786444e+06
   3.257677e+06  -2.837016e+06
   5.250356e+06   1.213148e+06
   2.601013e+06   3.263506e+06
  -2.159128e+06   2.239923e+06
  -4.366459e+06  -6.533300e+05
  -2.012449e+06  -2.482913e+06
   1.566889e+06  -1.372991e+06
   1.767049e+06   9.223490e+05
  -1.136848e+06   1.037240e+06
  -2.483063e+06  -1.384460e+06
   2.292195e+05  -3.192728e+06
   4.134287e+06  -2.067133e+06
   5.087605e+06   9.302792e+05
   2.425307e+06   3.628435e+06
  -1.578990e+06   5.106542e+06
  -4.769224e+06   4.796270e+06
  -5.938475e+06   1.809501e+06
  -4.431855e+06  -2.941675e+06
  -1.058880e+06  -5.933935e+06
   1.579060e+06  -4.736375e+06
   1.618121e+06  -1.405633e+06
   2.881862e+05   8.130488e+04
   1.823697e+05  -9.672465e+05
   1.692978e+06  -1.657227e+06
   2.779156e+06  -1.204846e+05
   1.961465e+06   2.000362e+06
  -5.347574e+04   2.174879e+06
  -1.649242e+06   1.860537e+05
  -1.745234e+06  -2.117558e+06
  -3.255638e+04  -2.935288e+06
   2.700279e+06  -1.637791e+06
   4.348193e+06   1.104434e+06
   3.165527e+06   3.536360e+06
   8.540534e+04   4.008513e+06
  -2.045771e+06   2.647611e+06
  -2.050325e+06   1.203335e+06
  -1.749748e+06   7.948390e+05
  -2.910703e+06   6.151346e+05
  -4.358731e+06  -5.983823e+05
  -3.565849e+06  -2.646952e+06
  -2.475990e+05  -4.130084e+06
   3.128702e+06  -3.984861e+06
   4.149491e+06  -2.179126e+06
   2.639334e+06   4.190609e+05
   2.526587e+05   2.237420e+06
  -1.100915e+06   1.917853e+06
  -5.490888e+05  -4.672374e+04
   1.079191e+06  -1.321865e+06
   1.882539e+06  -4.391922e+05
   9.212055e+05   1.165904e+06
  -5.164047e+05   1.122818e+06
  -4.810462e+05  -3.880624e+05
   1.008428e+06  -8.080211e+05
   1.935269e+06   1.097912e+06
   8.932272e+05   3.412820e+06
  -1.351319e+06   3.571292e+06
  -3.102741e+06   1.380164e+06
  -3.463036e+06  -1.283495e+06
  -2.451894e+06  -2.761204e+06
  -5.380958e+05  -2.671670e+06
   1.232383e+06  -1.505679e+06
   1.590319e+06  -2.503914e+05
   4.967640e+05   3.376938e+04
  -3.798968e+05  -7.493223e+05
   3.673018e+05  -1.349411e+06
   1.878609e+06  -6.332592e+05
   2.062049e+06   8.172965e+05
   4.375764e+05   1.401698e+06
  -1.166499e+06   6.107186e+05
  -9.293309e+05  -4.467896e+05
   8.434039e+05  -5.884200e+05
   2.254987e+06   2.365749e+05
   1.848124e+06   1.344910e+06
  -1.885682e+05   2.040720e+06
  -2.304789e+06   1.750774e+06
  -2.799510e+06   3.486633e+05
  -1.257391e+06  -1.233030e+06
   8.756529e+05  -1.517482e+06
   1.541576e+06  -2.296668e+05
   2.174596e+05   1.067935e+06
  -1.507533e+06   7.748800e+05
  -1.757658e+06  -7.391550e+05
  -3.990948e+05  -1.663974e+06
   1.070467e+06  -1.036041e+06
   1.290312e+06   2.652873e+05
   2.840956e+05   7.826538e+05
  -7.964406e+05   8.029779e+04
  -7.664789e+05  -1.045108e+06
   5.532923e+05  -1.450028e+06
   2.016880e+06  -5.893230e+05
   2.077283e+06   1.014692e+06
   4.379362e+05   2.083181e+06
  -1.407514e+06   1.695217e+06
  -1.736299e+06   2.612936e+05
  -5.342279e+05  -8.637795e+05
   6.460249e+05  -8.315562e+05
   6.481086e+05  -8.383338e+04
  -1.125949e+05   3.929914e+05
  -5.191115e+05   2.370320e+05
  -1.575893e+05  -8.356161e+04
   4.497750e+05   2.945601e+04
   5.603236e+05   6.467218e+05
  -1.609434e+05   1.208265e+06
  -1.371463e+06   9.466451e+05
  -2.116030e+06  -3.647415e+05
  -1.527725e+06  -1.927281e+06
   1.623640e+05  -2.455629e+06
   1.606125e+06  -1.478768e+06
   1.728655e+06   8.131140e+04
   9.041192e+05   9.058315e+05
   3.301722e+05   6.853521e+05
   4.627412e+05   2.228540e+05
   6.251257e+05   2.849742e+05
   1.152982e+05   7.557868e+05
  -8.572369e+05   9.403480e+05
  -1.465665e+06   3.755438e+05
  -1.094733e+06  -7.135083e+05
   2.131537e+05  -1.504204e+06
   1.722490e+06  -1.139391e+06
   2.293932e+06   4.336653e+05
   1.207831e+06   2.097887e+06
  -9.493890e+05   2.421842e+06
  -2.539321e+06   1.118936e+06
  -2.406520e+06  -5.977611e+05
  -1.020731e+06  -1.339719e+06
   1.821554e+05  -9.857843e+05
   4.028988e+05  -5.372506e+05
   8.510051e+04  -7.499120e+05
   7.834806e+04  -1.302056e+06
   6.369036e+05  -1.308367e+06
   1.290233e+06  -3.529832e+05
   1.373875e+06   1.059590e+06
   6.059904e+05   1.901817e+06
  -5.964576e+05   1.466628e+06
  -1.302906e+06   3.028001e+04
  -8.594200e+05  -1.273370e+06
   3.493925e+05  -1.424913e+06
   1.159042e+06  -4.575867e+05
   8.453934e+05   6.639329e+05
  -7.862597e+04   1.085790e+06
  -5.071850e+05   8.150018e+05
  -7.255582e+04   4.329455e+05
   4.418137e+05   3.300977e+05
   6.814333e+04   3.864496e+05
  -1.151175e+06   2.468090e+05
  -2.088180e+06  -2.765421e+05
  -1.663697e+06  -1.002771e+06
  -1.071534e+04  -1.449972e+06
   1.565325e+06  -1.195227e+06
   1.844374e+06  -3.346531e+05
   8.656935e+05   4.683193e+05
  -2.409078e+05   5.785624e+05
  -5.159614e+05   5.441978e+04
  -4.323015e+04  -4.145658e+05
   4.424934e+05  -2.681544e+05
   4.938312e+05   3.318666e+05
   2.652982e+05   7.205197e+05
   1.012826e+05   4.769289e+05
   1.409832e+05  -1.048744e+05
   2.868259e+05  -3.060665e+05
   2.883157e+05   2.281912e+05
  -1.223800e+05   1.002084e+06
  -8.810865e+05   1.101299e+06
  -1.361556e+06   2.147564e+05
  -8.774474e+05  -8.964475e+05
   3.847892e+05  -1.156887e+06
   1.252909e+06  -3.720032e+05
   7.541981e+05   5.609919e+05
  -6.927520e+05   6.763054e+05
  -1.614318e+06  -5.594496e+04
  -1.048307e+06  -8.538338e+05
   4.638651e+05  -1.022883e+06
   1.513689e+06  -5.276255e+05
   1.261241e+06   1.641245e+05
   1.495557e+05   5.210900e+05
  -6.531611e+05   2.910491e+05
  -3.969678e+05  -2.853115e+05
   5.773949e+05  -5.401702e+05
   1.195478e+06   5.147935e+04
   7.077351e+05   1.172895e+06
  -5.492640e+05   1.733149e+06
  -1.473972e+06   9.342066e+05
  -1.290258e+06  -7.319321e+05
  -2.528575e+05  -1.807907e+06
   7.182205e+05  -1.330791e+06
   9.457952e+05   1.556189e+05
   4.683678e+05   1.200343e+06
  -2.014370e+05   9.922316e+05
  -5.703725e+05   1.008947e+05
  -4.802159e+05  -3.738890e+05
  -1.662421e+05  -1.388562e+05
  -4.868147e+04   9.863648e+04
  -2.969311e+05  -2.873197e+05
  -5.443433e+05  -9.637140e+05
  -2.182057e+05  -1.091782e+06
   7.175952e+05  -4.241708e+05
   1.505888e+06   4.318667e+05
   1.316242e+06   8.176236e+05
   2.072583e+05   7.040239e+05
  -8.486073e+05   4.449890e+05
  -9.922570e+05   2.089206e+05
  -3.728628e+05  -4.260136e+04
   1.389241e+05  -2.313044e+05
   3.787913e+04  -2.106941e+05
  -2.626582e+05  -9.003813e+04
  -5.757697e+04  -1.315432e+05
   6.545310e+05  -2.562611e+05
   1.060609e+06  -2.272090e+04
   4.712010e+05   6.821949e+05
  -8.064755e+05   1.218992e+06
  -1.700547e+06   8.281954e+05
  -1.450687e+06  -3.820148e+05
  -3.254510e+05  -1.412839e+06
   7.348553e+05  -1.422644e+06
   1.043785e+06  -5.850544e+05
   6.678789e+05   2.104555e+05
   1.511307e+05   3.573687e+05
  -5.831547e+04   7.091210e+04
   8.823683e+04  -1.481872e+04
   3.132594e+05   3.687188e+05
   2.719592e+05   8.138283e+05
  -1.570097e+05   6.953951e+05
  -6.890599e+05  -9.424122e+04
  -7.835426e+05  -9.295531e+05
  -1.647130e+05  -1.036998e+06
   7.428355e+05  -2.847079e+05
   1.072486e+06   6.825486e+05
   3.984341e+05   1.089442e+06
  -6.937404e+05   7.191321e+05
  -1.140660e+06  -3.134936e+04
  -5.699081e+05  -6.079750e+05
   2.641477e+05  -7.085787e+05
   3.810626e+05  -3.923926e+05
  -2.380207e+05  -6.055172e+02
  -6.532583e+05   6.300442e+04
  -1.640496e+05  -3.077018e+05
   8.140362e+05  -7.143818e+05
   1.270881e+06  -5.853003e+05
   7.933982e+05   1.583508e+05
  -6.494110e+04   8.883452e+05
  -5.384319e+05   8.952561e+05
  -4.342674e+05   1.919873e+05
  -7.586341e+04  -4.762424e+05
   2.222321e+05  -4.554621e+05
   3.572999e+05   1.258013e+05
   2.796271e+05   5.749152e+05
  -3.145397e+04   4.439772e+05
  -3.964553e+05  -2.614900e+04
  -4.986381e+05  -2.739446e+05
  -2.517608e+05  -9.608998e+04
   4.906994e+04   1.578448e+05
   9.216986e+04   5.944737e+04
  -3.821695e+04  -3.446164e+05
   3.212424e+03  -5.639019e+05
   3.002561e+05  -2.518493e+05
   4.889541e+05   3.478951e+05
   2.032011e+05   6.413298e+05
  -3.938409e+05   3.377560e+05
  -6.890649e+05  -2.476151e+05
  -2.832419e+05  -5.646710e+05
   5.038562e+05  -3.923467e+05
   9.027969e+05   3.564650e+04
   5.031146e+05   3.633651e+05
  -2.796852e+05   4.259498e+05
  -6.385773e+05   2.676776e+05
  -2.623273e+05   3.333873e+04
   3.307105e+05  -8.789688e+04
   4.049875e+05   3.658746e+04
  -1.505590e+05   2.888494e+05
  -7.233840e+05   2.973862e+05
