
 $NMID
 id='ANONYMOUS ', fmtdat='(2E16.6)'
 volume=1.0
 tramp=1.0
 $END
   2.286396e+07   8.283319e+05
   1.325864e+07   1.465169e+07
  -3.566975e+06   1.537317e+07
  -1.142526e+07   5.560339e+06
  -6.609231e+06  -3.079630e+06
   1.474128e+06  -3.748232e+06
   3.985989e+06   6.324703e+05
   9.958045e+05   4.015583e+06
  -2.658491e+06   3.716720e+06
  -3.956650e+06   6.759551e+05
  -2.749786e+06  -2.625073e+06
  -2.006410e+05  -3.509472e+06
   1.662270e+06  -1.052835e+06
   9.841440e+05   2.257063e+06
  -1.632511e+06   2.611782e+06
  -3.183092e+06  -6.569286e+05
  -1.656810e+06  -4.213595e+06
   1.709330e+06  -4.739245e+06
   4.190032e+06  -2.250593e+06
   4.356141e+06   9.915092e+05
   2.576755e+06   3.132287e+06
   1.588995e+05   3.515222e+06
  -1.261008e+06   2.417062e+06
  -7.860002e+05   1.080690e+06
   4.137981e+05   9.078858e+05
   3.138215e+04   1.704276e+06
  -2.267833e+06   1.698372e+06
  -3.934323e+06   4.918046e+04
  -2.798173e+06  -1.784721e+06
  -2.237338e+04  -2.055290e+06
   1.551621e+06  -9.805116e+05
   9.993995e+05   3.770867e+04
  -2.745530e+05   3.707238e+05
  -9.431898e+05   1.546737e+05
  -8.663566e+05  -6.253116e+05
  -2.133961e+05  -1.609572e+06
   7.900965e+05  -1.535094e+06
   1.302769e+06   9.032607e+04
   6.365352e+05   1.496128e+06
  -3.370154e+05   7.631655e+05
  -9.280984e+04  -1.007960e+06
   1.039695e+06  -9.019750e+05
   9.514074e+05   1.334362e+06
  -1.069784e+06   2.461196e+06
  -2.831972e+06   3.191021e+05
  -1.979287e+06  -2.882620e+06
   8.958846e+05  -3.435996e+06
   3.051463e+06  -8.739369e+05
   2.763927e+06   1.915626e+06
   6.634884e+05   2.487878e+06
  -1.459439e+06   1.055522e+06
  -2.125825e+06  -7.019345e+05
  -9.405775e+05  -1.460783e+06
   1.014674e+06  -8.620925e+05
   1.830086e+06   4.409708e+05
   7.558671e+05   1.135779e+06
  -7.184587e+05   5.326897e+05
  -6.958183e+05  -4.461552e+05
   5.499986e+05  -3.621224e+05
   9.894094e+05   7.417833e+05
  -2.870311e+05   1.390584e+06
  -1.901436e+06   7.142536e+05
  -2.138801e+06  -6.214071e+05
  -8.884762e+05  -1.649295e+06
   8.147392e+05  -2.113881e+06
   2.117208e+06  -1.891004e+06
   2.548066e+06  -6.122812e+05
   1.812326e+06   1.356041e+06
   2.872656e+05   2.527865e+06
  -8.307060e+05   1.919983e+06
  -7.397685e+05   4.798606e+05
  -7.314492e+04  -1.008473e+05
  -1.547322e+04   3.951929e+05
  -6.882478e+05   6.953094e+05
  -1.150921e+06   4.413165e+04
  -7.919364e+05  -8.278270e+05
   3.139091e+04  -8.792996e+05
   6.447358e+05  -5.431767e+04
   6.539404e+05   8.837236e+05
  -4.867383e+04   1.203198e+06
  -1.158079e+06   6.297045e+05
  -1.804772e+06  -5.586070e+05
  -1.254243e+06  -1.582333e+06
   7.834796e+04  -1.720951e+06
   9.662268e+05  -1.073768e+06
   9.265297e+05  -4.336146e+05
   7.617170e+05  -2.544811e+05
   1.216309e+06  -1.511284e+05
   1.773737e+06   3.826222e+05
   1.386589e+06   1.193656e+06
  -1.549675e+04   1.698978e+06
  -1.384431e+06   1.549036e+06
  -1.751325e+06   7.994539e+05
  -1.082688e+06  -2.191256e+05
  -7.308418e+04  -9.221178e+05
   4.856261e+05  -7.744866e+05
   2.303489e+05   2.462511e+04
  -4.702884e+05   5.198465e+05
  -7.914763e+05   1.323726e+05
  -3.589737e+05  -5.104532e+05
   2.327975e+05  -4.494128e+05
   1.709861e+05   1.695280e+05
  -4.527640e+05   2.728688e+05
  -7.487099e+05  -5.592413e+05
  -2.123314e+05  -1.449833e+06
   7.138679e+05  -1.384732e+06
   1.317821e+06  -4.085291e+05
   1.341797e+06   6.541126e+05
   8.884914e+05   1.180471e+06
   1.393396e+05   1.084452e+06
  -5.370089e+05   5.810789e+05
  -6.538502e+05   6.614929e+04
  -2.025038e+05  -2.754052e+04
   1.347306e+05   3.169230e+05
  -1.939572e+05   5.475210e+05
  -7.984957e+05   2.067919e+05
  -8.258472e+05  -4.026858e+05
  -1.344266e+05  -5.934288e+05
   4.951553e+05  -2.151686e+05
   3.583927e+05   2.053578e+05
  -3.625909e+05   1.988125e+05
  -8.955357e+05  -1.749509e+05
  -6.931774e+05  -5.942361e+05
   1.413467e+05  -8.087990e+05
   9.840094e+05  -6.399586e+05
   1.150656e+06  -6.264554e+04
   4.811304e+05   5.452081e+05
  -4.060850e+05   6.061302e+05
  -6.493783e+05   5.222608e+04
  -6.545576e+04  -4.505106e+05
   6.403092e+05  -2.782735e+05
   6.968520e+05   3.551119e+05
   1.079296e+05   6.906380e+05
  -4.719621e+05   3.829825e+05
  -5.149823e+05  -1.547836e+05
  -8.584672e+04  -3.296686e+05
   3.321301e+05  -8.598760e+03
   2.868804e+05   4.490864e+05
  -2.626402e+05   5.792884e+05
  -8.396490e+05   1.898666e+05
  -8.238935e+05  -4.698071e+05
  -1.221050e+05  -8.656076e+05
   6.261038e+05  -6.543586e+05
   7.187967e+05  -5.500682e+04
   1.911737e+05   3.695739e+05
  -2.880008e+05   3.200203e+05
  -2.619676e+05   1.972520e+04
   5.789450e+04  -1.449981e+05
   2.060736e+05  -7.388931e+04
   4.502454e+04   3.030533e+04
  -1.875781e+05  -4.263537e+04
  -2.018178e+05  -2.907477e+05
   1.088792e+05  -4.885240e+05
   5.888894e+05  -3.451087e+05
   8.537858e+05   2.089978e+05
   5.715444e+05   8.301378e+05
  -1.329073e+05   9.966525e+05
  -6.934459e+05   5.528067e+05
  -6.946433e+05  -8.492684e+04
  -3.343926e+05  -3.851294e+05
  -1.166607e+05  -2.706567e+05
  -1.947460e+05  -9.527412e+04
  -2.570531e+05  -1.407106e+05
  -2.509735e+04  -3.194058e+05
   3.796409e+05  -3.564241e+05
   6.044030e+05  -1.061770e+05
   4.181664e+05   3.176096e+05
  -1.321834e+05   5.965555e+05
  -7.313774e+05   4.102549e+05
  -9.196253e+05  -2.411118e+05
  -4.294843e+05  -8.896622e+05
   4.624884e+05  -9.610068e+05
   1.072269e+06  -3.794677e+05
   9.595770e+05   3.181671e+05
   3.670572e+05   5.720119e+05
  -1.054675e+05   3.844326e+05
  -1.685616e+05   1.999860e+05
  -4.113102e+04   3.090247e+05
  -6.282764e+04   5.405776e+05
  -3.001239e+05   5.231628e+05
  -5.417174e+05   1.100360e+05
  -5.346563e+05  -4.696486e+05
  -1.972377e+05  -7.927367e+05
   2.819102e+05  -5.831238e+05
   5.313005e+05   2.439201e+04
   3.125567e+05   5.466886e+05
  -1.885430e+05   5.710888e+05
  -4.913653e+05   1.448747e+05
  -3.244143e+05  -3.069680e+05
   7.240923e+04  -4.457119e+05
   2.397087e+05  -3.142718e+05
   4.457513e+04  -1.692556e+05
  -1.738565e+05  -1.452423e+05
  -1.853232e+04  -1.589914e+05
   4.801474e+05  -6.642676e+04
   8.493677e+05   1.740010e+05
   6.507690e+05   4.585012e+05
  -4.309076e+04   5.952444e+05
  -6.800754e+05   4.453545e+05
  -7.637518e+05   8.081402e+04
  -3.357523e+05  -2.229507e+05
   1.190104e+05  -2.327750e+05
   2.134864e+05  -3.617380e+03
   7.119804e+03   1.767724e+05
  -1.860402e+05   9.979726e+04
  -1.938257e+05  -1.494028e+05
  -9.575463e+04  -3.017021e+05
  -3.476860e+04  -1.990053e+05
  -5.840604e+04   3.435416e+04
  -1.182989e+05   1.126569e+05
  -1.092513e+05  -1.013129e+05
   7.365292e+04  -4.039331e+05
   3.900336e+05  -4.262925e+05
   5.702734e+05  -5.266927e+04
   3.415704e+05   3.917125e+05
  -1.902845e+05   4.679596e+05
  -5.280436e+05   1.228658e+05
  -2.943995e+05  -2.477682e+05
   3.026655e+05  -2.553926e+05
   6.534334e+05   6.978594e+04
   3.950475e+05   3.762593e+05
  -2.222697e+05   3.972374e+05
  -6.274404e+05   1.651096e+05
  -5.025133e+05  -1.043890e+05
  -4.389342e+04  -2.140167e+05
   2.741380e+05  -9.772978e+04
   1.558659e+05   1.297073e+05
  -2.478333e+05   2.090864e+05
  -4.886151e+05  -4.816536e+04
  -2.643442e+05  -4.968974e+05
   2.641903e+05  -6.975432e+05
   6.246285e+05  -3.475479e+05
   5.081910e+05   3.307462e+05
   5.632674e+04   7.431018e+05
  -3.272385e+05   5.200514e+05
  -3.788865e+05  -9.253580e+04
  -1.542870e+05  -5.010105e+05
   1.130568e+05  -3.940365e+05
   2.359358e+05  -2.297058e+04
   1.819366e+05   1.628256e+05
   6.004331e+04   5.797465e+04
   2.378574e+04  -3.703716e+04
   1.189454e+05   1.302068e+05
   1.984186e+05   4.095388e+05
   5.485781e+04   4.482023e+05
  -3.098359e+05   1.508598e+05
  -6.016959e+05  -2.156672e+05
  -5.096809e+05  -3.667383e+05
  -6.466647e+04  -2.934486e+05
   3.535381e+05  -1.608629e+05
   4.078457e+05  -5.760958e+04
   1.538415e+05   3.129522e+04
  -6.118209e+04   9.183904e+04
  -2.564021e+04   8.056836e+04
   9.987730e+04   3.859132e+04
   2.234845e+04   5.535086e+04
  -2.682228e+05   9.150847e+04
  -4.346014e+05  -1.688183e+04
  -1.825957e+05  -2.943711e+05
   3.566026e+05  -4.817544e+05
   7.209551e+05  -2.966784e+05
   5.903304e+05   1.928297e+05
   9.859237e+04   5.849039e+05
  -3.391397e+05   5.628483e+05
  -4.425296e+05   2.154188e+05
  -2.672198e+05  -9.971871e+04
  -5.483520e+04  -1.505437e+05
   2.174961e+04  -3.235800e+04
  -3.697288e+04  -7.299857e+02
  -1.150280e+05  -1.594432e+05
  -8.765454e+04  -3.384362e+05
   8.119676e+04  -2.814198e+05
   2.789551e+05   5.198153e+04
   3.005429e+05   3.970387e+05
   4.651107e+04   4.303363e+05
  -3.090952e+05   1.035534e+05
  -4.237842e+05  -3.020149e+05
  -1.380749e+05  -4.566269e+05
   3.022722e+05  -2.800493e+05
   4.681061e+05   4.152681e+04
   2.188592e+05   2.675709e+05
  -1.280471e+05   2.872170e+05
  -1.703867e+05   1.501172e+05
   9.300090e+04   2.992970e+03
   2.673111e+05  -1.003738e+04
   6.039386e+04   1.314004e+05
  -3.506125e+05   2.700547e+05
  -5.370404e+05   2.011844e+05
  -3.235566e+05  -9.059364e+04
   4.959646e+04  -3.632422e+05
   2.479105e+05  -3.523281e+05
   1.883420e+05  -6.912014e+04
   2.196117e+04   1.952921e+05
  -1.024404e+05   1.832225e+05
  -1.438370e+05  -5.613689e+04
  -1.001731e+05  -2.420385e+05
   2.438105e+04  -1.849242e+05
   1.620941e+05   1.895917e+04
   1.971888e+05   1.282538e+05
   9.951095e+04   4.850575e+04
  -1.710047e+04  -6.988586e+04
  -3.384850e+04  -3.382573e+04
   1.386036e+04   1.409053e+05
  -8.639257e+03   2.379768e+05
  -1.289740e+05   1.041829e+05
  -1.984476e+05  -1.512871e+05
  -7.467638e+04  -2.690448e+05
   1.679751e+05  -1.308137e+05
   2.790460e+05   1.167802e+05
   1.041169e+05   2.368127e+05
  -2.173746e+05   1.475806e+05
  -3.711446e+05  -3.646164e+04
  -1.976180e+05  -1.615801e+05
   1.261963e+05  -1.702429e+05
   2.702732e+05  -9.681564e+04
   1.118115e+05  -6.469792e+03
  -1.336097e+05   3.277184e+04
  -1.642821e+05  -1.959526e+04
   6.381975e+04  -1.125337e+05
   2.965559e+05  -1.054573e+05
