
 $NMID
 id='ANONYMOUS ', fmtdat='(2E16.6)'
 volume=1.0
 tramp=1.0
 $END
   5.400371e+07   8.593037e+04
   3.247642e+07   3.325219e+07
  -7.014993e+06   3.642841e+07
  -2.633411e+07   1.422394e+07
  -1.584019e+07  -6.471506e+06
   3.058398e+06  -8.935803e+06
   9.428464e+06   1.005001e+06
   2.804841e+06   9.316047e+06
  -5.823260e+06   9.092595e+06
  -9.250093e+06   2.041842e+06
  -6.763414e+06  -5.971592e+06
  -8.016582e+05  -8.334626e+06
   3.872813e+06  -2.628757e+06
   2.592158e+06   5.327624e+06
  -3.575294e+06   6.406637e+06
  -7.575556e+06  -1.216683e+06
  -4.323205e+06  -9.798881e+06
   3.592538e+06  -1.136064e+07
   9.708482e+06  -5.677941e+06
   1.037470e+07   2.009123e+06
   6.294508e+06   7.209322e+06
   6.022177e+05   8.239905e+06
  -2.744346e+06   5.715961e+06
  -1.612528e+06   2.587491e+06
   1.204443e+06   2.202850e+06
   2.297594e+05   4.162349e+06
  -5.340597e+06   4.278907e+06
  -9.435833e+06   4.347581e+05
  -6.810569e+06  -4.039761e+06
  -1.536754e+05  -4.909427e+06
   3.706743e+06  -2.447297e+06
   2.420637e+06   9.660933e+04
  -6.966770e+05   1.031465e+06
  -2.369052e+06   4.895154e+05
  -2.191596e+06  -1.501521e+06
  -6.162564e+05  -3.909831e+06
   1.790282e+06  -3.702659e+06
   3.068878e+06   1.909556e+05
   1.559444e+06   3.518627e+06
  -7.759723e+05   1.751196e+06
  -3.004116e+05  -2.491600e+06
   2.396343e+06  -2.285595e+06
   2.386102e+06   3.047650e+06
  -2.254241e+06   5.882404e+06
  -6.580356e+06   9.846425e+05
  -4.886752e+06  -6.614066e+06
   1.801638e+06  -8.158405e+06
   7.133719e+06  -2.325055e+06
   6.764008e+06   4.272963e+06
   1.863886e+06   5.843320e+06
  -3.348898e+06   2.687388e+06
  -5.151970e+06  -1.411408e+06
  -2.424557e+06  -3.350222e+06
   2.290715e+06  -2.142700e+06
   4.370999e+06   8.536417e+05
   1.906694e+06   2.599405e+06
  -1.645887e+06   1.326252e+06
  -1.716602e+06  -9.795215e+05
   1.212227e+06  -9.247936e+05
   2.384551e+06   1.589757e+06
  -5.036678e+05   3.230407e+06
  -4.355517e+06   1.841841e+06
  -5.082731e+06  -1.231044e+06
  -2.259099e+06  -3.789851e+06
   1.757611e+06  -5.105394e+06
   4.912238e+06  -4.712195e+06
   6.040865e+06  -1.674148e+06
   4.425167e+06   3.100557e+06
   9.045828e+05   6.014090e+06
  -1.763170e+06   4.662894e+06
  -1.664974e+06   1.258246e+06
  -1.885439e+05  -1.539308e+05
  -7.502570e+04   1.006063e+06
  -1.669867e+06   1.726766e+06
  -2.807620e+06   1.616321e+05
  -1.991254e+06  -1.978662e+06
   1.660594e+04  -2.166656e+06
   1.595823e+06  -2.063557e+05
   1.697385e+06   2.084342e+06
  -2.213086e+03   2.918708e+06
  -2.739278e+06   1.610006e+06
  -4.371886e+06  -1.199880e+06
  -3.113622e+06  -3.675008e+06
   5.294512e+04  -4.086777e+06
   2.195693e+06  -2.613824e+06
   2.137737e+06  -1.110392e+06
   1.772456e+06  -6.996005e+05
   2.894044e+06  -5.086846e+05
   4.299142e+06   7.189075e+05
   3.463798e+06   2.716655e+06
   1.489892e+05   4.093418e+06
  -3.177108e+06   3.884265e+06
  -4.156551e+06   2.103135e+06
  -2.639362e+06  -4.414397e+05
  -2.498813e+05  -2.236857e+06
   1.115677e+06  -1.916112e+06
   5.594207e+05   4.584055e+04
  -1.088513e+06   1.302687e+06
  -1.888531e+06   3.974140e+05
  -9.046167e+05  -1.193325e+06
   5.218058e+05  -1.113599e+06
   4.462169e+05   3.795438e+05
  -1.023241e+06   7.215434e+05
  -1.837023e+06  -1.205829e+06
  -7.030879e+05  -3.405485e+06
   1.486501e+06  -3.409257e+06
   3.075037e+06  -1.185102e+06
   3.319835e+06   1.374353e+06
   2.317722e+06   2.738839e+06
   4.766846e+05   2.615805e+06
  -1.239195e+06   1.466435e+06
  -1.578628e+06   2.268184e+05
  -4.916181e+05  -4.451372e+04
   3.598598e+05   7.487263e+05
  -4.046939e+05   1.331372e+06
  -1.890114e+06   5.786478e+05
  -2.023507e+06  -8.717778e+05
  -3.909674e+05  -1.403916e+06
   1.165365e+06  -5.753783e+05
   8.964492e+05   4.499386e+05
  -8.373482e+05   5.328991e+05
  -2.183930e+06  -2.961007e+05
  -1.763205e+06  -1.344897e+06
   2.308027e+05  -1.978046e+06
   2.299865e+06  -1.666758e+06
   2.769685e+06  -2.826522e+05
   1.215821e+06   1.256845e+06
  -9.131710e+05   1.493918e+06
  -1.549691e+06   1.888350e+05
  -1.976310e+05  -1.075808e+06
   1.512468e+06  -7.374443e+05
   1.717882e+06   7.739913e+05
   3.461373e+05   1.647622e+06
  -1.082226e+06   9.823698e+05
  -1.256237e+06  -3.018223e+05
  -2.512486e+05  -7.766519e+05
   7.924429e+05  -5.632095e+04
   7.371213e+05   1.051098e+06
  -5.741353e+05   1.424925e+06
  -2.007246e+06   5.457649e+05
  -2.037003e+06  -1.046402e+06
  -3.878371e+05  -2.072566e+06
   1.434456e+06  -1.644395e+06
   1.723824e+06  -2.147690e+05
   5.050325e+05   8.659641e+05
  -6.557201e+05   8.052731e+05
  -6.364182e+05   7.852299e+04
   1.131433e+05  -3.650885e+05
   4.927962e+05  -2.168499e+05
   1.319696e+05   6.289099e+04
  -4.402559e+05  -7.045789e+04
  -5.184054e+05  -6.635075e+05
   2.006767e+05  -1.183746e+06
   1.377892e+06  -8.980003e+05
   2.081380e+06   4.088284e+05
   1.468522e+06   1.939474e+06
  -2.106097e+05   2.421724e+06
  -1.610206e+06   1.419152e+06
  -1.691127e+06  -1.180790e+05
  -8.658591e+05  -8.947623e+05
  -3.241699e+05  -6.582130e+05
  -4.754765e+05  -2.253743e+05
  -6.211576e+05  -3.122275e+05
  -9.016178e+04  -7.604709e+05
   8.717038e+05  -9.021044e+05
   1.446011e+06  -3.305331e+05
   1.054191e+06   7.184526e+05
  -2.425309e+05   1.461735e+06
  -1.717387e+06   1.078515e+06
  -2.248928e+06  -4.765831e+05
  -1.139457e+06  -2.094671e+06
   1.001018e+06  -2.364689e+06
   2.535260e+06  -1.037219e+06
   2.350674e+06   6.495696e+05
   9.630511e+05   1.332930e+06
  -1.987275e+05   9.482148e+05
  -3.884652e+05   5.165740e+05
  -8.210681e+04   7.559780e+05
  -1.047436e+05   1.304978e+06
  -6.675079e+05   1.286639e+06
  -1.291208e+06   3.201354e+05
  -1.339763e+06  -1.077004e+06
  -5.617588e+05  -1.892852e+06
   6.180055e+05  -1.438880e+06
   1.285058e+06  -1.932816e+03
   8.149960e+05   1.278994e+06
  -3.849378e+05   1.394623e+06
  -1.156758e+06   4.087868e+05
  -8.091423e+05  -6.914409e+05
   1.195328e+05  -1.071207e+06
   5.307768e+05  -7.809215e+05
   8.170020e+04  -4.161776e+05
  -4.343428e+05  -3.353071e+05
  -6.108687e+04  -3.834974e+05
   1.146367e+06  -2.126137e+05
   2.061570e+06   3.269802e+05
   1.618734e+06   1.030945e+06
  -3.366943e+04   1.431983e+06
  -1.584538e+06   1.142637e+06
  -1.828573e+06   2.829031e+05
  -8.330404e+05  -4.896733e+05
   2.597459e+05  -5.681422e+05
   5.101721e+05  -3.511843e+04
   3.057480e+04   4.210296e+05
  -4.423253e+05   2.607497e+05
  -4.829542e+05  -3.402544e+05
  -2.572553e+05  -7.233846e+05
  -9.859792e+04  -4.802630e+05
  -1.357553e+05   9.500310e+04
  -2.762567e+05   2.940803e+05
  -2.758682e+05  -2.310323e+05
   1.363186e+05  -9.873349e+05
   8.951531e+05  -1.069913e+06
   1.363940e+06  -1.802389e+05
   8.582483e+05   9.125625e+05
  -4.115030e+05   1.143081e+06
  -1.259290e+06   3.443214e+05
  -7.375408e+05  -5.690961e+05
   7.000199e+05  -6.502725e+05
   1.586604e+06   9.108295e+04
   1.004386e+06   8.584526e+05
  -4.825649e+05   9.864938e+05
  -1.493994e+06   4.793611e+05
  -1.229258e+06  -1.880198e+05
  -1.343318e+05  -5.120041e+05
   6.485873e+05  -2.693791e+05
   3.869090e+05   2.947437e+05
  -5.809556e+05   5.296465e+05
  -1.186876e+06  -6.933662e+04
  -6.865064e+05  -1.177314e+06
   5.720252e+05  -1.713841e+06
   1.477236e+06  -9.035402e+05
   1.264321e+06   7.469197e+05
   2.165807e+05   1.791334e+06
  -7.322136e+05   1.296345e+06
  -9.248299e+05  -1.765699e+05
  -4.324638e+05  -1.190639e+06
   2.217638e+05  -9.653386e+05
   5.642922e+05  -8.331752e+04
   4.627612e+05   3.725734e+05
   1.575801e+05   1.329615e+05
   5.062535e+04  -9.289769e+04
   2.922344e+05   3.011569e+05
   5.205174e+05   9.674707e+05
   1.886180e+05   1.075408e+06
  -7.240871e+05   3.963873e+05
  -1.478598e+06  -4.551642e+05
  -1.277800e+06  -8.278563e+05
  -1.884812e+05  -7.003289e+05
   8.424456e+05  -4.288612e+05
   9.803700e+05  -1.866044e+05
   3.691476e+05   5.752891e+04
  -1.402478e+05   2.288786e+05
  -4.540430e+04   1.979839e+05
   2.539578e+05   8.325893e+04
   5.748033e+04   1.328811e+05
  -6.467561e+05   2.504815e+05
  -1.051996e+06   3.445167e+03
  -4.622353e+05  -6.948006e+05
   8.183443e+05  -1.200936e+06
   1.707831e+06  -7.870967e+05
   1.440253e+06   4.102694e+05
   2.985721e+05   1.405192e+06
  -7.584531e+05   1.393296e+06
  -1.048138e+06   5.631105e+05
  -6.589722e+05  -2.158308e+05
  -1.455872e+05  -3.590441e+05
   5.668780e+04  -7.895099e+04
  -8.528440e+04   5.887092e+03
  -2.973130e+05  -3.695996e+05
  -2.506890e+05  -8.072711e+05
   1.682021e+05  -6.878365e+05
   6.828892e+05   9.992648e+04
   7.663803e+05   9.336690e+05
   1.504382e+05   1.037365e+06
  -7.426457e+05   2.783633e+05
  -1.056526e+06  -6.917401e+05
  -3.776586e+05  -1.090307e+06
   7.038744e+05  -7.044378e+05
   1.133209e+06   5.395643e+04
   5.517059e+05   6.205127e+05
  -2.810026e+05   7.015678e+05
  -3.910849e+05   3.772255e+05
   2.318795e+05  -2.791708e+03
   6.468829e+05  -5.228577e+04
   1.573614e+05   3.108535e+05
  -8.183117e+05   6.906364e+05
  -1.269587e+06   5.454983e+05
  -7.837095e+05  -1.824368e+05
   8.287350e+04  -8.809577e+05
   5.576288e+05  -8.731533e+05
   4.437412e+05  -1.802622e+05
   7.162670e+04   4.733792e+05
  -2.306432e+05   4.508945e+05
  -3.560799e+05  -1.255782e+05
  -2.669215e+05  -5.749139e+05
   4.283414e+04  -4.452538e+05
   3.944901e+05   3.112550e+04
   4.867055e+05   2.862049e+05
   2.441761e+05   1.034211e+05
  -4.429342e+04  -1.640517e+05
  -8.169019e+04  -6.959638e+04
   4.241843e+04   3.455820e+05
  -8.696763e+03   5.745926e+05
  -3.081436e+05   2.570792e+05
  -4.911336e+05  -3.540265e+05
  -1.997155e+05  -6.471725e+05
   3.960241e+05  -3.323340e+05
   6.846265e+05   2.579248e+05
   2.747142e+05   5.647019e+05
  -5.085605e+05   3.780975e+05
  -8.986816e+05  -5.282149e+04
  -4.930783e+05  -3.705405e+05
   2.887875e+05  -4.207098e+05
   6.436680e+05  -2.568650e+05
   2.657075e+05  -2.476706e+04
  -3.271959e+05   9.138133e+04
  -4.039540e+05  -3.514660e+04
   1.457604e+05  -2.843083e+05
   7.137212e+05  -2.891324e+05
