
 $NMID
 id='ANONYMOUS ', fmtdat='(2E16.6)'
 volume=1.0
 tramp=1.0
 $END
   1.875778e+07   1.219939e+06
   1.202886e+07   8.653591e+06
  -1.401251e+05   1.136889e+07
  -7.953489e+06   8.167620e+06
  -6.928832e+06   1.456543e+06
  -7.153437e+05  -3.326691e+06
   3.852814e+06  -2.182075e+06
   3.280823e+06   2.901594e+06
  -5.989907e+05   5.657646e+06
  -3.588713e+06   2.662921e+06
  -3.189062e+06  -2.672521e+06
  -3.072079e+05  -4.326435e+06
   2.056755e+06  -7.441810e+05
   1.626806e+06   3.778976e+06
  -1.097188e+06   4.324300e+06
  -3.273698e+06   4.895964e+05
  -2.445153e+06  -3.858861e+06
   9.244896e+05  -4.859645e+06
   3.799816e+06  -2.131694e+06
   3.679882e+06   1.453464e+06
   1.199538e+06   2.883064e+06
  -6.734318e+05   1.870594e+06
   7.654452e+03   7.212700e+05
   1.988131e+06   1.423294e+06
   2.219531e+06   3.281629e+06
  -6.662442e+05   3.855111e+06
  -4.562368e+06   1.934272e+06
  -5.795916e+06  -1.103750e+06
  -2.926086e+06  -2.880245e+06
   1.514098e+06  -2.281947e+06
   3.398452e+06  -8.787794e+04
   1.226137e+06   1.885256e+06
  -2.377679e+06   1.980503e+06
  -3.629852e+06  -1.172455e+05
  -1.656155e+06  -2.731663e+06
   9.914144e+05  -3.331583e+06
   1.636356e+06  -1.190116e+06
   3.442655e+05   1.399542e+06
  -8.195830e+05   1.505216e+06
  -5.116259e+05  -9.029832e+05
   7.336089e+05  -2.798905e+06
   1.622650e+06  -1.791425e+06
   1.425772e+06   9.612653e+05
   2.446859e+05   2.250470e+06
  -1.128952e+06   6.744322e+05
  -1.419242e+06  -1.903676e+06
   1.848382e+05  -2.665662e+06
   2.725618e+06  -8.311206e+05
   3.772896e+06   1.866401e+06
   1.856306e+06   3.131360e+06
  -1.594120e+06   2.153394e+06
  -3.476827e+06   1.849753e+04
  -2.266564e+06  -1.462552e+06
   4.871442e+05  -1.316547e+06
   2.016713e+06  -8.768515e+04
   1.213474e+06   8.489824e+05
  -5.807518e+05   6.331632e+05
  -1.293704e+06  -3.650912e+05
  -2.845703e+05  -1.054059e+06
   1.134212e+06  -7.227778e+05
   1.172576e+06   3.186484e+05
  -4.227970e+05   1.021355e+06
  -1.905745e+06   5.025155e+05
  -1.333144e+06  -1.097616e+06
   1.188611e+06  -2.514398e+06
   3.459776e+06  -2.319234e+06
   3.547942e+06  -2.850080e+05
   1.777334e+06   2.215127e+06
   3.647926e+04   3.423057e+06
  -5.008784e+05   2.881274e+06
  -3.724332e+05   1.710121e+06
  -6.823587e+05   1.136201e+06
  -1.637168e+06   1.052887e+06
  -2.451131e+06   3.900835e+05
  -2.277657e+06  -1.196986e+06
  -9.569726e+05  -2.522192e+06
   8.501345e+05  -2.090012e+06
   1.981870e+06   5.849515e+04
   1.521352e+06   2.127380e+06
  -3.200889e+05   2.319889e+06
  -2.112159e+06   6.031690e+05
  -2.400625e+06  -1.419548e+06
  -1.125483e+06  -2.220872e+06
   3.782237e+05  -1.693568e+06
   8.987803e+05  -8.643617e+05
   6.443341e+05  -6.059458e+05
   8.089092e+05  -8.163321e+05
   1.942308e+06  -7.170857e+05
   3.054893e+06   2.586506e+05
   2.571240e+06   1.849639e+06
   1.709859e+05   3.062692e+06
  -2.533020e+06   2.901332e+06
  -3.400907e+06   1.245829e+06
  -1.897697e+06  -8.442048e+05
   3.560232e+05  -1.870852e+06
   1.272828e+06  -1.217267e+06
   3.743036e+05   2.200054e+05
  -9.895895e+05   8.952555e+05
  -1.306599e+06   2.190892e+05
  -4.273866e+05  -8.295617e+05
   5.705649e+05  -8.639031e+05
   6.474931e+05   2.221128e+05
  -2.706743e+05   1.019477e+06
  -1.340584e+06   2.122347e+05
  -1.484189e+06  -1.771691e+06
  -2.172934e+05  -3.028360e+06
   1.809656e+06  -2.155497e+06
   3.107149e+06   2.512336e+05
   2.571195e+06   2.221784e+06
   6.161319e+05   2.393435e+06
  -1.107716e+06   1.181138e+06
  -1.325956e+06   5.724264e+04
  -3.805917e+05  -3.770098e+04
   2.882799e+05   5.625162e+05
  -1.920862e+05   8.848535e+05
  -1.202265e+06   4.184048e+05
  -1.425924e+06  -4.450787e+05
  -4.140774e+05  -8.940201e+05
   8.256759e+05  -5.141967e+05
   8.774571e+05   3.090188e+05
  -4.923173e+05   7.214938e+05
  -1.934987e+06   1.773673e+05
  -1.848189e+06  -1.005371e+06
  -8.671100e+04  -1.844864e+06
   1.812971e+06  -1.553159e+06
   2.188724e+06  -3.051285e+05
   9.093249e+05   8.520373e+05
  -6.204822e+05   9.602440e+05
  -9.731199e+05   9.247650e+04
  -3.070158e+04  -7.107239e+05
   1.116001e+06  -5.225019e+05
   1.338352e+06   4.833011e+05
   4.705879e+05   1.234887e+06
  -6.546144e+05   9.584226e+05
  -1.020767e+06   2.418515e+04
  -3.792267e+05  -5.069728e+05
   4.853421e+05  -8.122574e+04
   5.121319e+05   7.726335e+05
  -4.961974e+05   1.057089e+06
  -1.563893e+06   3.436978e+05
  -1.525999e+06  -8.444060e+05
  -2.944783e+05  -1.558455e+06
   1.022800e+06  -1.260005e+06
   1.290067e+06  -2.486814e+05
   4.747976e+05   6.172902e+05
  -4.536882e+05   6.758993e+05
  -6.079245e+05   5.546430e+04
  -2.064828e+04  -4.875945e+05
   5.405118e+05  -3.919591e+05
   4.450910e+05   9.393559e+04
  -1.547398e+05   2.364610e+05
  -4.978601e+05  -2.672023e+05
  -1.976552e+04  -8.671187e+05
   9.950491e+05  -7.434298e+05
   1.605108e+06   2.771974e+05
   1.124876e+06   1.482732e+06
  -1.632827e+05   1.924452e+06
  -1.271588e+06   1.263978e+06
  -1.471322e+06   3.961759e+04
  -9.212520e+05  -8.341751e+05
  -3.413743e+05  -8.718365e+05
  -1.881985e+05  -4.051817e+05
  -2.528433e+05  -1.647587e+05
  -3.388173e+04  -4.420670e+05
   5.994170e+05  -7.431431e+05
   1.165160e+06  -3.873340e+05
   9.944067e+05   5.925198e+05
  -6.678620e+04   1.328081e+06
  -1.351637e+06   9.853911e+05
  -1.831466e+06  -3.235299e+05
  -1.005608e+06  -1.586927e+06
   5.975018e+05  -1.824695e+06
   1.834109e+06  -9.372391e+05
   1.916485e+06   3.047855e+05
   1.021846e+06   1.018766e+06
   1.229903e+02   9.635796e+05
  -4.566129e+05   6.197389e+05
  -3.592168e+05   5.723606e+05
  -2.326715e+05   8.392672e+05
  -4.739827e+05   8.634186e+05
  -9.139968e+05   2.007030e+05
  -9.996288e+05  -8.618665e+05
  -4.114876e+05  -1.490256e+06
   5.114795e+05  -1.123128e+06
   1.021159e+06  -3.954341e+04
   6.854050e+05   9.085725e+05
  -1.580405e+05   1.068778e+06
  -7.315715e+05   4.835513e+05
  -6.029467e+05  -2.790690e+05
  -8.273522e+04  -6.839359e+05
   1.849359e+05  -6.336513e+05
  -3.191898e+04  -4.144204e+05
  -2.969127e+05  -3.144223e+05
  -1.940903e+04  -3.212374e+05
   8.136827e+05  -1.924223e+05
   1.494300e+06   2.128474e+05
   1.257346e+06   7.266369e+05
   1.098391e+05   1.005360e+06
  -1.072266e+06   8.365164e+05
  -1.363512e+06   3.206754e+05
  -6.964097e+05  -1.922740e+05
   1.308053e+05  -3.522072e+05
   3.450143e+05  -1.026571e+05
  -3.877502e+04   2.169295e+05
  -4.087924e+05   1.692215e+05
  -3.526972e+05  -2.728019e+05
  -5.739245e+04  -6.108565e+05
   5.745949e+04  -3.890494e+05
  -1.198041e+05   1.713475e+05
  -3.221594e+05   3.525446e+05
  -2.414887e+05  -1.648467e+05
   1.793204e+05  -8.215217e+05
   6.984992e+05  -8.051369e+05
   9.040623e+05  -3.530227e+04
   5.001374e+05   7.283957e+05
  -3.324681e+05   7.589207e+05
  -8.950279e+05   1.219613e+05
  -5.523382e+05  -4.967492e+05
   5.137440e+05  -5.340721e+05
   1.305059e+06  -4.260613e+03
   9.742329e+05   6.343476e+05
  -2.391340e+05   8.881631e+05
  -1.209198e+06   5.746489e+05
  -1.093286e+06  -4.251727e+04
  -1.791658e+05  -4.355709e+05
   4.924224e+05  -2.780508e+05
   2.553910e+05   1.897358e+05
  -5.296629e+05   3.438254e+05
  -9.213755e+05  -1.729215e+05
  -3.988881e+05  -9.919347e+05
   6.252318e+05  -1.291521e+06
   1.252290e+06  -5.980657e+05
   9.839302e+05   6.620364e+05
   1.298007e+05   1.457273e+06
  -5.978568e+05   1.098505e+06
  -7.590866e+05  -5.927506e+04
  -4.271753e+05  -9.377854e+05
   6.391297e+04  -8.335228e+05
   4.129850e+05  -1.120598e+05
   4.540036e+05   3.208157e+05
   2.230238e+05   1.376688e+05
   3.027923e+03  -1.035928e+05
   8.716562e+04   1.774968e+05
   3.503540e+05   7.482156e+05
   2.583205e+05   8.798405e+05
  -4.444996e+05   3.280306e+05
  -1.193938e+06  -3.835775e+05
  -1.122460e+06  -6.732189e+05
  -1.555275e+05  -5.362602e+05
   7.759601e+05  -3.206080e+05
   8.205153e+05  -1.744780e+05
   2.091125e+05  -7.308633e+03
  -1.540113e+05   1.701673e+05
   7.837939e+04   2.138748e+05
   3.259576e+05   1.363032e+05
  -5.432757e+03   1.150474e+05
  -6.531546e+05   1.394022e+05
  -8.194054e+05  -5.950475e+04
  -1.670284e+05  -5.434549e+05
   7.975280e+05  -8.584010e+05
   1.290211e+06  -4.880645e+05
   9.774702e+05   4.349515e+05
   1.507362e+05   1.143497e+06
  -6.048209e+05   1.041856e+06
  -8.436658e+05   3.333969e+05
  -5.348260e+05  -2.577859e+05
  -5.201439e+04  -2.868349e+05
   1.547664e+05   1.064648e+04
  -2.676954e+04   8.548355e+04
  -2.825723e+05  -2.625556e+05
  -2.262079e+05  -6.446254e+05
   1.780533e+05  -5.136118e+05
   5.626314e+05   1.815586e+05
   5.067436e+05   8.439249e+05
  -4.667682e+04   8.138676e+05
  -6.702058e+05   8.242275e+04
  -7.763287e+05  -6.890171e+05
  -1.856461e+05  -8.691840e+05
   5.998966e+05  -4.470375e+05
   8.364789e+05   1.143651e+05
   3.479409e+05   4.289530e+05
  -2.381508e+05   4.384582e+05
  -2.251853e+05   2.591085e+05
   2.900761e+05   4.517932e+04
   5.415885e+05  -3.296031e+03
   7.713971e+04   2.307603e+05
  -6.691461e+05   5.348086e+05
  -9.293111e+05   4.699578e+05
  -5.064679e+05  -8.703881e+04
   1.045039e+05  -6.514885e+05
   3.768447e+05  -6.271720e+05
   2.514960e+05  -4.915804e+04
  -1.543524e+04   4.214695e+05
  -2.187597e+05   2.908918e+05
  -2.844619e+05  -2.066091e+05
  -1.758455e+05  -4.677036e+05
   7.649839e+04  -2.633276e+05
   3.071065e+05   8.073260e+04
   3.401688e+05   1.768851e+05
   1.875773e+05   3.035536e+04
   2.025610e+04  -5.663559e+04
  -5.845626e+04   9.789643e+04
  -1.115531e+05   3.383242e+05
  -2.186836e+05   3.506569e+05
  -3.160857e+05   1.697265e+04
  -2.485332e+05  -4.144351e+05
   3.726969e+04  -5.364273e+05
   3.752690e+05  -2.004350e+05
   4.673826e+05   2.950630e+05
   1.463070e+05   4.964162e+05
  -3.873338e+05   2.646247e+05
  -6.510226e+05  -1.206528e+05
  -3.464148e+05  -3.145496e+05
   2.454226e+05  -2.484050e+05
   4.934817e+05  -8.823664e+04
   1.349134e+05   7.368952e+03
  -3.698049e+05  -1.755747e+04
  -3.611463e+05  -1.518383e+05
   2.128906e+05  -2.850148e+05
   7.189153e+05  -1.981255e+05
