
 $NMID
 id='ANONYMOUS ', fmtdat='(2E16.6)'
 volume=1.0
 tramp=1.0
 $END
  -6.023502e+07  -1.212935e+06
  -3.515845e+07  -3.847643e+07
   9.239782e+06  -4.065791e+07
   2.990083e+07  -1.450593e+07
   1.712888e+07   8.349228e+06
  -3.996708e+06   9.803710e+06
  -1.031599e+07  -1.868149e+06
  -2.410108e+06  -1.047943e+07
   6.964301e+06  -9.446725e+06
   1.024764e+07  -1.648395e+06
   7.229697e+06   6.688005e+06
   7.072946e+05   9.017399e+06
  -4.240851e+06   2.882925e+06
  -2.645344e+06  -5.592870e+06
   4.134933e+06  -6.617313e+06
   8.264912e+06   1.722592e+06
   4.388001e+06   1.092166e+07
  -4.340266e+06   1.238172e+07
  -1.087689e+07   6.062053e+06
  -1.151693e+07  -2.344465e+06
  -7.047759e+06  -8.139139e+06
  -6.254502e+05  -9.425007e+06
   3.427796e+06  -6.545118e+06
   2.377722e+06  -2.684546e+06
  -9.672841e+05  -1.931319e+06
  -3.539240e+05  -4.165287e+06
   5.495381e+06  -4.598848e+06
   1.003800e+07  -5.567196e+05
   7.406270e+06   4.359861e+06
   3.826280e+05   5.390552e+06
  -3.774696e+06   2.835254e+06
  -2.654635e+06   2.208980e+05
   3.294987e+05  -8.415231e+05
   2.081091e+06  -6.024451e+05
   2.266511e+06   1.255705e+06
   8.774289e+05   3.992891e+06
  -1.882323e+06   4.123950e+06
  -3.592979e+06  -3.000966e+04
  -1.936465e+06  -3.931824e+06
   8.902267e+05  -2.249394e+06
   4.841919e+05   2.404194e+06
  -2.546385e+06   2.298465e+06
  -2.458616e+06  -3.466047e+06
   2.869398e+06  -6.438112e+06
   7.593390e+06  -8.397166e+05
   5.330940e+06   7.584590e+06
  -2.309063e+06   9.076561e+06
  -7.961066e+06   2.412509e+06
  -7.148220e+06  -4.827191e+06
  -1.704024e+06  -6.310500e+06
   3.687968e+06  -2.669229e+06
   5.350525e+06   1.774067e+06
   2.331495e+06   3.705838e+06
  -2.659762e+06   2.207000e+06
  -4.741317e+06  -1.130927e+06
  -1.945779e+06  -2.946030e+06
   1.863003e+06  -1.401790e+06
   1.746011e+06   1.115982e+06
  -1.505287e+06   8.350174e+05
  -2.529474e+06  -2.089155e+06
   9.371595e+05  -3.727076e+06
   5.119645e+06  -1.842790e+06
   5.588267e+06   1.689638e+06
   2.305780e+06   4.316548e+06
  -1.954322e+06   5.507258e+06
  -5.220756e+06   5.025278e+06
  -6.485054e+06   1.804919e+06
  -4.829503e+06  -3.329252e+06
  -9.413977e+05  -6.459151e+06
   2.080710e+06  -4.892355e+06
   1.904650e+06  -1.094523e+06
   5.510090e+04   4.088666e+05
  -2.372020e+05  -1.007660e+06
   1.524078e+06  -1.964373e+06
   2.891512e+06  -3.941299e+05
   2.152934e+06   1.872717e+06
   1.281846e+05   2.156791e+06
  -1.492793e+06   2.457534e+05
  -1.676456e+06  -2.058465e+06
  -1.638911e+04  -2.991473e+06
   2.854658e+06  -1.740628e+06
   4.682943e+06   1.223439e+06
   3.389181e+06   3.980590e+06
  -8.234072e+04   4.506275e+06
  -2.486986e+06   2.870813e+06
  -2.427403e+06   1.136795e+06
  -1.942464e+06   6.210901e+05
  -3.035528e+06   4.018056e+05
  -4.453681e+06  -8.764655e+05
  -3.530024e+06  -2.901854e+06
  -7.165921e+04  -4.227210e+06
   3.314224e+06  -3.959899e+06
   4.273653e+06  -2.173755e+06
   2.743555e+06   3.963414e+05
   3.357489e+05   2.283856e+06
  -1.098486e+06   2.012622e+06
  -5.895711e+05  -1.940054e+04
   1.111418e+06  -1.346134e+06
   1.979828e+06  -3.920415e+05
   9.636488e+05   1.265402e+06
  -5.197917e+05   1.138015e+06
  -3.881431e+05  -4.057436e+05
   1.160889e+06  -6.183648e+05
   1.860067e+06   1.506685e+06
   4.543666e+05   3.668184e+06
  -1.857072e+06   3.368662e+06
  -3.270146e+06   8.994255e+05
  -3.259574e+06  -1.622944e+06
  -2.177015e+06  -2.814383e+06
  -4.028806e+05  -2.613380e+06
   1.265411e+06  -1.479153e+06
   1.606030e+06  -2.334017e+05
   5.042436e+05   5.315039e+04
  -3.548161e+05  -7.781988e+05
   4.655997e+05  -1.388159e+06
   2.005060e+06  -5.637602e+05
   2.087947e+06   9.789582e+05
   3.514052e+05   1.485643e+06
  -1.220623e+06   5.558114e+05
  -8.744649e+05  -4.812700e+05
   8.946997e+05  -4.664811e+05
   2.179370e+06   4.191559e+05
   1.688202e+06   1.407949e+06
  -3.181009e+05   1.957588e+06
  -2.377484e+06   1.620202e+06
  -2.838204e+06   2.276259e+05
  -1.232001e+06  -1.336421e+06
   9.843045e+05  -1.557835e+06
   1.642414e+06  -1.748005e+05
   2.078954e+05   1.135726e+06
  -1.577762e+06   7.411695e+05
  -1.747328e+06  -8.469906e+05
  -2.856539e+05  -1.702023e+06
   1.161356e+06  -9.464322e+05
   1.269885e+06   3.828814e+05
   2.051530e+05   8.173462e+05
  -8.403754e+05   3.425513e+04
  -7.507647e+05  -1.101386e+06
   6.035787e+05  -1.464417e+06
   2.070069e+06  -5.436840e+05
   2.085901e+06   1.102352e+06
   3.642772e+05   2.144555e+06
  -1.518710e+06   1.665979e+06
  -1.781382e+06   1.742207e+05
  -4.859982e+05  -9.068511e+05
   6.967344e+05  -8.041977e+05
   6.311725e+05  -7.358380e+04
  -1.404329e+05   3.285377e+05
  -4.723445e+05   1.715163e+05
  -6.466146e+04  -5.048868e+04
   4.834835e+05   1.434633e+05
   4.965283e+05   7.389164e+05
  -2.628294e+05   1.219042e+06
  -1.443812e+06   8.880547e+05
  -2.131340e+06  -4.625693e+05
  -1.478195e+06  -2.020294e+06
   2.552806e+05  -2.473441e+06
   1.668613e+06  -1.397298e+06
   1.698764e+06   1.729114e+05
   8.256573e+05   8.989289e+05
   3.108642e+05   6.048110e+05
   5.264400e+05   1.954608e+05
   6.782363e+05   3.515171e+05
   8.441825e+04   8.135513e+05
  -9.248692e+05   9.013341e+05
  -1.478522e+06   2.893592e+05
  -1.034818e+06  -7.442381e+05
   2.942223e+05  -1.454290e+06
   1.774061e+06  -1.048672e+06
   2.282252e+06   5.342137e+05
   1.109390e+06   2.174747e+06
  -1.103917e+06   2.409587e+06
  -2.644671e+06   9.929651e+05
  -2.379424e+06  -7.448571e+05
  -9.097758e+05  -1.381897e+06
   2.468247e+05  -9.200533e+05
   3.708565e+05  -4.819719e+05
   3.612371e+04  -7.837683e+05
   1.013950e+05  -1.376876e+06
   7.183556e+05  -1.336839e+06
   1.350005e+06  -3.153909e+05
   1.366463e+06   1.123238e+06
   5.509570e+05   1.948623e+06
  -6.514939e+05   1.466298e+06
  -1.313580e+06  -2.658669e+04
  -8.029341e+05  -1.342735e+06
   4.474994e+05  -1.425299e+06
   1.225150e+06  -3.628589e+05
   8.191371e+05   7.768442e+05
  -1.796274e+05   1.124551e+06
  -6.040530e+05   7.825840e+05
  -1.085153e+05   4.050824e+05
   4.497969e+05   3.410644e+05
   6.264997e+04   3.904476e+05
  -1.195535e+06   1.921418e+05
  -2.132040e+06  -3.803431e+05
  -1.643081e+06  -1.100253e+06
   8.844810e+04  -1.488602e+06
   1.679103e+06  -1.154021e+06
   1.891300e+06  -2.382583e+05
   8.329673e+05   5.541526e+05
  -2.924679e+05   5.958316e+05
  -5.332962e+05   1.103266e+04
  -3.508694e+04  -4.567131e+05
   4.455770e+05  -2.686142e+05
   4.949639e+05   3.559299e+05
   2.825539e+05   7.396358e+05
   1.212822e+05   4.940730e+05
   1.359605e+05  -7.546354e+04
   2.636979e+05  -2.739138e+05
   2.734603e+05   2.442017e+05
  -1.399631e+05   1.001528e+06
  -9.364269e+05   1.088900e+06
  -1.437278e+06   1.808859e+05
  -9.006865e+05  -9.503067e+05
   4.412773e+05  -1.193451e+06
   1.318490e+06  -3.609821e+05
   7.530748e+05   5.854720e+05
  -7.348751e+05   6.493745e+05
  -1.610610e+06  -1.336185e+05
  -9.761483e+05  -9.004539e+05
   5.370939e+05  -9.767422e+05
   1.527259e+06  -4.267045e+05
   1.228028e+06   2.317756e+05
   1.147927e+05   5.184259e+05
  -6.711287e+05   2.513826e+05
  -4.007873e+05  -3.179509e+05
   5.903039e+05  -5.496452e+05
   1.219734e+06   6.619948e+04
   7.145941e+05   1.206614e+06
  -5.789264e+05   1.761739e+06
  -1.511775e+06   9.267036e+05
  -1.286815e+06  -7.706152e+05
  -2.020842e+05  -1.829573e+06
   7.650877e+05  -1.300332e+06
   9.364130e+05   2.117251e+05
   4.057232e+05   1.224760e+06
  -2.641921e+05   9.677436e+05
  -5.848673e+05   6.591568e+04
  -4.500101e+05  -3.816451e+05
  -1.395018e+05  -1.299071e+05
  -6.033111e+04   8.728800e+04
  -3.226903e+05  -3.284855e+05
  -5.294180e+05  -1.003466e+06
  -1.537361e+05  -1.095502e+06
   7.737179e+05  -3.883567e+05
   1.501511e+06   4.844604e+05
   1.271823e+06   8.619427e+05
   1.798867e+05   7.234018e+05
  -8.470088e+05   4.314335e+05
  -9.966359e+05   1.705105e+05
  -3.929242e+05  -7.747243e+04
   1.385861e+05  -2.351328e+05
   7.207138e+04  -1.877389e+05
  -2.342359e+05  -7.222329e+04
  -6.737806e+04  -1.359483e+05
   6.380548e+05  -2.609460e+05
   1.080737e+06   9.387768e+02
   5.027189e+05   7.240200e+05
  -8.279591e+05   1.237959e+06
  -1.776100e+06   8.044849e+05
  -1.503196e+06  -4.238120e+05
  -3.011406e+05  -1.438292e+06
   7.991243e+05  -1.426363e+06
   1.081257e+06  -5.828089e+05
   6.699921e+05   2.133512e+05
   1.562793e+05   3.705816e+05
  -3.813430e+04   9.724290e+04
   9.411588e+04   1.287382e+04
   2.879310e+05   3.882916e+05
   2.378775e+05   8.285103e+05
  -1.746477e+05   7.085182e+05
  -6.948288e+05  -9.172718e+04
  -7.920044e+05  -9.483735e+05
  -1.712312e+05  -1.069032e+06
   7.504079e+05  -3.030313e+05
   1.085394e+06   6.970952e+05
   3.923730e+05   1.123047e+06
  -7.252396e+05   7.332578e+05
  -1.172867e+06  -6.002807e+04
  -5.716202e+05  -6.586624e+05
   2.981222e+05  -7.379018e+05
   4.245848e+05  -3.861318e+05
  -2.163632e+05   1.109214e+04
  -6.575874e+05   5.151293e+04
  -1.654898e+05  -3.248255e+05
   8.444937e+05  -6.964739e+05
   1.322987e+06  -5.283014e+05
   8.214387e+05   2.135842e+05
  -9.198795e+04   9.105259e+05
  -5.994685e+05   8.964632e+05
  -4.795778e+05   1.945444e+05
  -8.149821e+04  -4.774776e+05
   2.372441e+05  -4.721034e+05
   3.640758e+05   1.121081e+05
   2.714487e+05   5.908363e+05
  -4.409689e+04   4.742662e+05
  -4.054546e+05  -2.676927e+04
  -5.017571e+05  -3.119661e+05
  -2.483387e+05  -1.205411e+05
   5.257520e+04   1.848652e+05
   8.059570e+04   1.042448e+05
  -6.910655e+04  -3.440018e+05
  -2.335275e+04  -6.137920e+05
   3.084890e+05  -2.980997e+05
   5.286271e+05   3.454775e+05
   2.347352e+05   6.646292e+05
  -3.992295e+05   3.479163e+05
  -7.137611e+05  -2.578345e+05
  -2.877163e+05  -5.736584e+05
   5.304581e+05  -3.855674e+05
   9.329701e+05   5.358217e+04
   5.081329e+05   3.837269e+05
  -3.006383e+05   4.437028e+05
  -6.685920e+05   2.758879e+05
  -2.884544e+05   2.505911e+04
   3.153319e+05  -1.090668e+05
   4.068728e+05   1.605735e+04
  -1.324141e+05   2.782520e+05
  -7.039906e+05   2.938867e+05
