
 $NMID
 id='ANONYMOUS ', fmtdat='(2E16.6)'
 volume=1.0
 tramp=1.0
 $END
  -4.866932e+07   2.991276e+06
  -3.196125e+07  -2.775656e+07
   3.566063e+06  -3.352285e+07
   2.326783e+07  -1.517430e+07
   1.553134e+07   4.510255e+06
  -1.968835e+06   8.581316e+06
  -9.078388e+06  -1.357064e+04
  -3.531056e+06  -8.561712e+06
   4.873417e+06  -9.208847e+06
   8.609837e+06  -2.668407e+06
   6.523619e+06   5.221687e+06
   1.010896e+06   7.730090e+06
  -3.434530e+06   2.473520e+06
  -2.485463e+06  -5.092019e+06
   3.150130e+06  -6.378347e+06
   7.173743e+06   5.929712e+05
   4.586963e+06   8.824226e+06
  -2.652230e+06   1.069420e+07
  -8.533925e+06   5.682702e+06
  -9.401003e+06  -1.326093e+06
  -5.908670e+06  -6.049243e+06
  -1.052563e+06  -7.116843e+06
   1.782045e+06  -5.278666e+06
   9.655641e+05  -2.921472e+06
  -1.126108e+06  -2.613820e+06
   3.863781e+04  -4.030483e+06
   5.086530e+06  -3.844866e+06
   8.726781e+06  -3.651571e+05
   6.266532e+06   3.572158e+06
   8.872447e+04   4.281734e+06
  -3.432546e+06   1.983605e+06
  -1.969978e+06  -3.050397e+05
   1.171284e+06  -9.085316e+05
   2.529439e+06  -1.013567e+05
   1.875821e+06   1.728071e+06
   2.884849e+05   3.635658e+06
  -1.547138e+06   3.283804e+06
  -2.461332e+06  -9.346151e+04
  -1.355791e+06  -2.922774e+06
   4.002432e+05  -1.345118e+06
  -1.657540e+04   2.422465e+06
  -2.314746e+06   2.252947e+06
  -2.455820e+06  -2.689536e+06
   1.547088e+06  -5.651374e+06
   5.754693e+06  -1.523257e+06
   4.835770e+06   5.579431e+06
  -1.038045e+06   7.529751e+06
  -6.356704e+06   2.499547e+06
  -6.550822e+06  -3.740950e+06
  -2.065962e+06  -5.542278e+06
   3.127645e+06  -2.766465e+06
   5.101858e+06   1.144689e+06
   2.583065e+06   3.154890e+06
  -1.980899e+06   2.218666e+06
  -4.147041e+06  -5.224679e+05
  -1.980820e+06  -2.312953e+06
   1.436879e+06  -1.326015e+06
   1.722600e+06   8.949660e+05
  -1.038900e+06   1.140021e+06
  -2.501934e+06  -1.132192e+06
  -8.612786e+04  -3.030530e+06
   3.708990e+06  -2.161828e+06
   4.840085e+06   6.754512e+05
   2.396757e+06   3.341179e+06
  -1.491714e+06   4.756065e+06
  -4.552946e+06   4.398266e+06
  -5.555025e+06   1.604936e+06
  -4.052380e+06  -2.761489e+06
  -9.283411e+05  -5.561215e+06
   1.491272e+06  -4.549050e+06
   1.594609e+06  -1.480044e+06
   4.666338e+05   2.854639e+04
   3.813143e+05  -7.789686e+05
   1.680675e+06  -1.336753e+06
   2.548374e+06   9.287458e+04
   1.678351e+06   2.012017e+06
  -2.310874e+05   2.048780e+06
  -1.645047e+06   3.925530e+04
  -1.595589e+06  -2.158376e+06
   8.152635e+04  -2.804897e+06
   2.577888e+06  -1.448254e+06
   4.015716e+06   1.123180e+06
   2.898708e+06   3.297974e+06
   9.739109e+04   3.688912e+06
  -1.843735e+06   2.468800e+06
  -1.884867e+06   1.185156e+06
  -1.682145e+06   8.039881e+05
  -2.825207e+06   5.777079e+05
  -4.187331e+06  -6.353413e+05
  -3.380863e+06  -2.610032e+06
  -1.460124e+05  -3.981735e+06
   3.115756e+06  -3.737636e+06
   4.034384e+06  -1.933243e+06
   2.467493e+06   5.060438e+05
   1.180551e+05   2.118814e+06
  -1.124646e+06   1.753289e+06
  -5.064869e+05  -6.915377e+04
   1.075257e+06  -1.221494e+06
   1.803642e+06  -3.855522e+05
   8.442932e+05   1.110475e+06
  -5.428795e+05   1.056464e+06
  -4.932678e+05  -4.079050e+05
   9.878929e+05  -8.538838e+05
   1.948225e+06   9.856643e+05
   9.536047e+05   3.327926e+06
  -1.305540e+06   3.590836e+06
  -3.103483e+06   1.428584e+06
  -3.442170e+06  -1.309937e+06
  -2.354064e+06  -2.821200e+06
  -4.318548e+05  -2.651359e+06
   1.248199e+06  -1.406146e+06
   1.538573e+06  -1.758922e+05
   4.783839e+05   4.688459e+04
  -3.504151e+05  -7.306064e+05
   3.598997e+05  -1.290047e+06
   1.798196e+06  -5.882783e+05
   1.979558e+06   8.022894e+05
   4.208435e+05   1.356302e+06
  -1.137406e+06   5.768370e+05
  -9.071305e+05  -4.661227e+05
   8.419651e+05  -5.892528e+05
   2.230218e+06   2.732592e+05
   1.795182e+06   1.390966e+06
  -2.422974e+05   2.019297e+06
  -2.297965e+06   1.648571e+06
  -2.721908e+06   2.658926e+05
  -1.190963e+06  -1.207485e+06
   8.542692e+05  -1.431706e+06
   1.465924e+06  -2.011454e+05
   1.850282e+05   1.010567e+06
  -1.462005e+06   7.101284e+05
  -1.689020e+06  -7.470751e+05
  -3.669426e+05  -1.632799e+06
   1.061472e+06  -1.011885e+06
   1.270583e+06   2.669766e+05
   2.851390e+05   7.717252e+05
  -7.574938e+05   7.614164e+04
  -7.087661e+05  -1.013097e+06
   5.696207e+05  -1.369660e+06
   1.949036e+06  -5.051844e+05
   1.965255e+06   1.029963e+06
   3.716243e+05   2.013895e+06
  -1.391627e+06   1.605498e+06
  -1.686930e+06   2.193350e+05
  -5.089946e+05  -8.513549e+05
   6.432723e+05  -7.978418e+05
   6.387819e+05  -5.383399e+04
  -1.267160e+05   4.056061e+05
  -5.426497e+05   2.202984e+05
  -1.774435e+05  -1.230006e+05
   4.435206e+05  -5.407087e+03
   5.555013e+05   6.244673e+05
  -1.663822e+05   1.171746e+06
  -1.344203e+06   8.859370e+05
  -2.031235e+06  -4.037216e+05
  -1.420440e+06  -1.894298e+06
   2.277587e+05  -2.367153e+06
   1.607854e+06  -1.396621e+06
   1.694555e+06   1.290993e+05
   8.576377e+05   9.396380e+05
   2.703797e+05   7.170338e+05
   3.966038e+05   2.323969e+05
   5.780908e+05   2.599582e+05
   1.002100e+05   7.121175e+05
  -8.497171e+05   8.930691e+05
  -1.439403e+06   3.278082e+05
  -1.046736e+06  -7.404314e+05
   2.560440e+05  -1.474332e+06
   1.707516e+06  -1.061978e+06
   2.210946e+06   4.848321e+05
   1.123480e+06   2.062044e+06
  -9.599861e+05   2.325299e+06
  -2.477095e+06   1.037559e+06
  -2.333836e+06  -6.299407e+05
  -9.779114e+05  -1.345860e+06
   2.099392e+05  -9.846070e+05
   4.415821e+05  -5.129078e+05
   1.311284e+05  -6.881421e+05
   1.082511e+05  -1.219581e+06
   6.307155e+05  -1.234855e+06
   1.239023e+06  -3.097686e+05
   1.288702e+06   1.056599e+06
   5.282854e+05   1.848705e+06
  -6.179372e+05   1.394993e+06
  -1.262719e+06  -3.793219e+03
  -8.081873e+05  -1.246620e+06
   3.589989e+05  -1.376932e+06
   1.129037e+06  -4.443321e+05
   8.204789e+05   6.331442e+05
  -7.162464e+04   1.046774e+06
  -4.895300e+05   7.978550e+05
  -8.090419e+04   4.350768e+05
   4.063138e+05   3.323256e+05
   4.884529e+04   3.738155e+05
  -1.110842e+06   2.163150e+05
  -1.996927e+06  -3.087920e+05
  -1.583243e+06  -1.003585e+06
   3.167877e+03  -1.399697e+06
   1.518499e+06  -1.120186e+06
   1.791208e+06  -2.894041e+05
   8.464749e+05   4.596937e+05
  -2.314419e+05   5.487326e+05
  -5.010178e+05   5.128548e+04
  -3.398423e+04  -3.829505e+05
   4.384991e+05  -2.357853e+05
   4.637190e+05   3.327988e+05
   2.151788e+05   6.928826e+05
   6.855194e+04   4.506839e+05
   1.505418e+05  -1.055309e+05
   3.082687e+05  -2.885607e+05
   2.742413e+05   2.289341e+05
  -1.598868e+05   9.593922e+05
  -8.762941e+05   1.032692e+06
  -1.289340e+06   1.739030e+05
  -8.005803e+05  -8.726773e+05
   3.906892e+05  -1.088772e+06
   1.193854e+06  -3.166564e+05
   7.035885e+05   5.654659e+05
  -6.863758e+05   6.389584e+05
  -1.570074e+06  -9.809789e+04
  -1.010687e+06  -8.684642e+05
   4.736519e+05  -9.999150e+05
   1.499364e+06  -4.833304e+05
   1.236235e+06   1.958819e+05
   1.340406e+05   5.179754e+05
  -6.430122e+05   2.715110e+05
  -3.740442e+05  -2.764472e+05
   5.722530e+05  -4.893785e+05
   1.138214e+06   9.475659e+04
   6.276628e+05   1.144205e+06
  -5.923650e+05   1.632737e+06
  -1.447312e+06   8.381089e+05
  -1.215533e+06  -7.502104e+05
  -1.830239e+05  -1.752910e+06
   7.413963e+05  -1.269780e+06
   9.194414e+05   1.717329e+05
   4.269145e+05   1.180104e+06
  -2.177635e+05   9.704321e+05
  -5.539878e+05   8.928219e+04
  -4.594239e+05  -3.861663e+05
  -1.639332e+05  -1.519755e+05
  -4.890245e+04   1.010595e+05
  -2.688466e+05  -2.645225e+05
  -4.929288e+05  -9.377908e+05
  -1.883541e+05  -1.074528e+06
   6.923984e+05  -4.034754e+05
   1.441571e+06   4.653985e+05
   1.257199e+06   8.406816e+05
   1.819438e+05   6.842547e+05
  -8.422239e+05   3.917352e+05
  -9.714229e+05   1.712557e+05
  -3.549403e+05  -3.787635e+04
   1.444374e+05  -2.139985e+05
   3.626647e+04  -2.203061e+05
  -2.570426e+05  -1.146211e+05
  -4.512318e+04  -1.240905e+05
   6.484079e+05  -2.075222e+05
   1.016489e+06   1.401589e+04
   4.141306e+05   6.512056e+05
  -8.206931e+05   1.128290e+06
  -1.645207e+06   7.418439e+05
  -1.360433e+06  -4.064594e+05
  -2.606119e+05  -1.368000e+06
   7.448727e+05  -1.344589e+06
   1.014323e+06  -5.206243e+05
   6.308821e+05   2.330899e+05
   1.283714e+05   3.428377e+05
  -6.274613e+04   4.757071e+04
   8.932033e+04  -2.460287e+04
   2.997920e+05   3.663330e+05
   2.416285e+05   7.965585e+05
  -1.730281e+05   6.588263e+05
  -6.543145e+05  -1.239267e+05
  -7.082209e+05  -9.210458e+05
  -1.118854e+05  -9.883500e+05
   7.204186e+05  -2.301354e+05
   9.948215e+05   6.993247e+05
   3.400471e+05   1.052469e+06
  -6.840288e+05   6.576210e+05
  -1.086164e+06  -6.503295e+04
  -5.289675e+05  -5.873835e+05
   2.652363e+05  -6.617007e+05
   3.656186e+05  -3.719566e+05
  -2.367847e+05  -2.365978e+04
  -6.317095e+05   3.457874e+04
  -1.456958e+05  -2.953541e+05
   8.076337e+05  -6.626307e+05
   1.239355e+06  -5.401053e+05
   7.547306e+05   1.580802e+05
  -8.799257e+04   8.468363e+05
  -5.322102e+05   8.481685e+05
  -4.044256e+05   1.724984e+05
  -4.674795e+04  -4.598010e+05
   2.250764e+05  -4.222657e+05
   3.307061e+05   1.438691e+05
   2.480883e+05   5.608810e+05
  -3.889516e+04   4.136160e+05
  -3.757634e+05  -4.228827e+04
  -4.735781e+05  -2.688786e+05
  -2.448588e+05  -9.390415e+04
   4.418065e+04   1.401307e+05
   1.020388e+05   4.269252e+04
  -4.542413e+03  -3.262105e+05
   3.206819e+04  -5.115354e+05
   2.862698e+05  -2.067651e+05
   4.330862e+05   3.505565e+05
   1.537387e+05   6.079190e+05
  -3.904213e+05   3.014888e+05
  -6.405855e+05  -2.614435e+05
  -2.442103e+05  -5.514444e+05
   4.925522e+05  -3.618086e+05
   8.558329e+05   6.306842e+04
   4.682252e+05   3.631900e+05
  -2.755752e+05   3.922108e+05
  -6.109000e+05   2.290512e+05
  -2.433818e+05   2.919381e+04
   3.248143e+05  -5.445687e+04
   3.820378e+05   6.468618e+04
  -1.703062e+05   2.712840e+05
  -7.206687e+05   2.473473e+05
