
 $NMID
 id='ANONYMOUS ', fmtdat='(2E16.6)'
 volume=1.0
 tramp=1.0
 $END
  -4.940698e+07   1.580150e+06
  -3.111747e+07  -2.885484e+07
   4.722519e+06  -3.345890e+07
   2.353008e+07  -1.453155e+07
   1.510612e+07   4.790015e+06
  -2.190726e+06   8.385443e+06
  -8.853485e+06  -1.820856e+05
  -3.295914e+06  -8.455861e+06
   4.862174e+06  -9.003060e+06
   8.531432e+06  -2.510664e+06
   6.521117e+06   5.363454e+06
   9.780953e+05   7.847190e+06
  -3.567052e+06   2.486683e+06
  -2.609964e+06  -5.142658e+06
   3.103635e+06  -6.353092e+06
   7.121694e+06   7.189974e+05
   4.443614e+06   8.935679e+06
  -2.873435e+06   1.069780e+07
  -8.773277e+06   5.550080e+06
  -9.557096e+06  -1.611438e+06
  -5.831817e+06  -6.412704e+06
  -7.221102e+05  -7.322294e+06
   2.103026e+06  -5.147363e+06
   9.672363e+05  -2.609234e+06
  -1.396979e+06  -2.474666e+06
  -1.375722e+05  -4.190016e+06
   5.223423e+06  -4.079645e+06
   9.009613e+06  -4.167645e+05
   6.416222e+06   3.735147e+06
   2.119424e+04   4.528160e+06
  -3.641020e+06   2.159220e+06
  -2.216454e+06  -3.362884e+05
   1.027817e+06  -1.168419e+06
   2.623736e+06  -3.790365e+05
   2.134067e+06   1.710124e+06
   4.238605e+05   3.853928e+06
  -1.680309e+06   3.400761e+06
  -2.644441e+06  -2.690625e+05
  -1.306045e+06  -3.165649e+06
   6.365766e+05  -1.361851e+06
   1.469324e+05   2.572433e+06
  -2.287502e+06   2.318681e+06
  -2.396078e+06  -2.711853e+06
   1.692465e+06  -5.535624e+06
   5.804531e+06  -1.227029e+06
   4.667917e+06   5.810028e+06
  -1.287980e+06   7.519250e+06
  -6.495637e+06   2.369305e+06
  -6.570835e+06  -3.797285e+06
  -2.075705e+06  -5.519191e+06
   3.090902e+06  -2.769552e+06
   5.073280e+06   1.088006e+06
   2.570213e+06   3.084866e+06
  -1.988799e+06   2.148591e+06
  -4.129167e+06  -5.822345e+05
  -1.932141e+06  -2.322442e+06
   1.467716e+06  -1.298972e+06
   1.723727e+06   8.661028e+05
  -9.826351e+05   1.038389e+06
  -2.335605e+06  -1.165216e+06
   8.995167e+04  -2.884437e+06
   3.751304e+06  -1.940953e+06
   4.754477e+06   7.967150e+05
   2.301909e+06   3.374559e+06
  -1.559152e+06   4.843278e+06
  -4.661640e+06   4.539805e+06
  -5.712584e+06   1.638856e+06
  -4.159812e+06  -2.890312e+06
  -9.409674e+05  -5.694483e+06
   1.478593e+06  -4.551473e+06
   1.490886e+06  -1.437210e+06
   3.273869e+05  -4.943904e+04
   3.375473e+05  -9.867737e+05
   1.784073e+06  -1.533864e+06
   2.743076e+06   1.848611e+04
   1.869801e+06   2.067266e+06
  -1.337464e+05   2.182229e+06
  -1.693280e+06   1.694251e+05
  -1.734287e+06  -2.123958e+06
   3.278724e+03  -2.884323e+06
   2.652822e+06  -1.534041e+06
   4.159617e+06   1.151446e+06
   2.952007e+06   3.421019e+06
   2.164487e+04   3.778392e+06
  -1.942065e+06   2.457799e+06
  -1.910761e+06   1.132866e+06
  -1.653365e+06   7.935348e+05
  -2.813521e+06   6.241731e+05
  -4.229931e+06  -5.685810e+05
  -3.467927e+06  -2.573544e+06
  -2.383580e+05  -4.029269e+06
   3.077456e+06  -3.881050e+06
   4.088152e+06  -2.086835e+06
   2.574749e+06   4.669724e+05
   1.901638e+05   2.210801e+06
  -1.126515e+06   1.855332e+06
  -5.362674e+05  -6.382804e+04
   1.072636e+06  -1.283362e+06
   1.829056e+06  -4.190589e+05
   8.733749e+05   1.136040e+06
  -5.226034e+05   1.104332e+06
  -5.016104e+05  -3.656585e+05
   9.258772e+05  -8.299567e+05
   1.866814e+06   9.591820e+05
   9.524115e+05   3.240506e+06
  -1.184547e+06   3.515936e+06
  -2.965568e+06   1.463555e+06
  -3.431406e+06  -1.175689e+06
  -2.474256e+06  -2.709754e+06
  -5.502968e+05  -2.650076e+06
   1.224700e+06  -1.476678e+06
   1.570219e+06  -2.307182e+05
   4.869288e+05   3.492056e+04
  -3.719672e+05  -7.309379e+05
   3.491827e+05  -1.303161e+06
   1.811970e+06  -6.119658e+05
   2.000886e+06   7.790644e+05
   4.387053e+05   1.350891e+06
  -1.130599e+06   6.044320e+05
  -9.268312e+05  -4.284246e+05
   8.035648e+05  -6.011132e+05
   2.222518e+06   1.913614e+05
   1.853205e+06   1.308485e+06
  -1.569421e+05   2.023951e+06
  -2.257972e+06   1.735733e+06
  -2.744205e+06   3.454914e+05
  -1.225020e+06  -1.197393e+06
   8.524042e+05  -1.463740e+06
   1.487521e+06  -2.152625e+05
   1.989859e+05   1.034207e+06
  -1.470326e+06   7.511834e+05
  -1.718712e+06  -7.131991e+05
  -4.096061e+05  -1.622599e+06
   1.026944e+06  -1.031961e+06
   1.264813e+06   2.322963e+05
   2.975029e+05   7.531494e+05
  -7.621711e+05   8.069610e+04
  -7.397628e+05  -1.017213e+06
   5.488895e+05  -1.410457e+06
   1.974168e+06  -5.635529e+05
   2.024438e+06   1.000557e+06
   4.234909e+05   2.034160e+06
  -1.371643e+06   1.654291e+06
  -1.695534e+06   2.611814e+05
  -5.318343e+05  -8.399501e+05
   6.256058e+05  -8.189976e+05
   6.466593e+05  -8.439056e+04
  -9.474022e+04   4.018771e+05
  -5.190316e+05   2.557243e+05
  -1.884904e+05  -8.047179e+04
   4.161868e+05   4.652593e+03
   5.512947e+05   6.081355e+05
  -1.443276e+05   1.173068e+06
  -1.335653e+06   9.253878e+05
  -2.066974e+06  -3.580697e+05
  -1.487966e+06  -1.886894e+06
   1.639375e+05  -2.407636e+06
   1.575487e+06  -1.461543e+06
   1.707135e+06   6.778574e+04
   9.114462e+05   9.012101e+05
   3.360036e+05   7.096417e+05
   4.359383e+05   2.467897e+05
   5.845096e+05   2.759671e+05
   1.030575e+05   7.246955e+05
  -8.339576e+05   9.198358e+05
  -1.437228e+06   3.755024e+05
  -1.086186e+06  -7.035012e+05
   1.984969e+05  -1.488858e+06
   1.687836e+06  -1.124532e+06
   2.250796e+06   4.242914e+05
   1.188918e+06   2.048802e+06
  -9.149645e+05   2.363082e+06
  -2.470687e+06   1.101358e+06
  -2.360636e+06  -5.674470e+05
  -1.025250e+06  -1.307476e+06
   1.605118e+05  -9.860996e+05
   4.087690e+05  -5.502030e+05
   1.166571e+05  -7.365447e+05
   9.836497e+04  -1.258137e+06
   6.236150e+05  -1.264163e+06
   1.254694e+06  -3.362037e+05
   1.338134e+06   1.043173e+06
   5.866505e+05   1.864785e+06
  -5.898320e+05   1.435121e+06
  -1.276652e+06   3.171851e+04
  -8.424118e+05  -1.237635e+06
   3.300882e+05  -1.389757e+06
   1.114429e+06  -4.604083e+05
   8.185700e+05   6.242600e+05
  -6.300622e+04   1.043362e+06
  -4.729278e+05   7.953605e+05
  -5.997491e+04   4.320806e+05
   4.276246e+05   3.312972e+05
   6.229106e+04   3.814786e+05
  -1.118484e+06   2.395948e+05
  -2.029806e+06  -2.738068e+05
  -1.623944e+06  -9.770632e+05
  -2.037013e+04  -1.404310e+06
   1.517759e+06  -1.157517e+06
   1.797844e+06  -3.336117e+05
   8.484356e+05   4.386612e+05
  -2.311098e+05   5.545916e+05
  -4.982173e+05   5.903600e+04
  -3.177637e+04  -3.953509e+05
   4.424684e+05  -2.587652e+05
   4.804052e+05   3.280162e+05
   2.426990e+05   7.142256e+05
   8.352074e+04   4.713304e+05
   1.384608e+05  -1.127337e+05
   2.906157e+05  -3.134478e+05
   2.827687e+05   2.222282e+05
  -1.305624e+05   9.866909e+05
  -8.655302e+05   1.071346e+06
  -1.316672e+06   1.918102e+05
  -8.378225e+05  -8.844005e+05
   3.832603e+05  -1.116791e+06
   1.220547e+06  -3.430244e+05
   7.353371e+05   5.576318e+05
  -6.762431e+05   6.628024e+05
  -1.586715e+06  -4.973823e+04
  -1.044266e+06  -8.317335e+05
   4.400661e+05  -1.010849e+06
   1.484669e+06  -5.352751e+05
   1.247065e+06   1.501230e+05
   1.539442e+05   5.131293e+05
  -6.371699e+05   2.907824e+05
  -3.820797e+05  -2.761950e+05
   5.758255e+05  -5.208972e+05
   1.171517e+06   6.629758e+04
   6.762289e+05   1.160378e+06
  -5.626260e+05   1.693740e+06
  -1.458642e+06   9.010317e+05
  -1.262780e+06  -7.288869e+05
  -2.396478e+05  -1.778262e+06
   7.080383e+05  -1.311187e+06
   9.281608e+05   1.454698e+05
   4.654573e+05   1.175445e+06
  -1.859180e+05   9.773715e+05
  -5.543012e+05   1.019262e+05
  -4.798115e+05  -3.686007e+05
  -1.741351e+05  -1.379397e+05
  -4.326367e+04   9.942070e+04
  -2.732601e+05  -2.781017e+05
  -5.244011e+05  -9.450175e+05
  -2.243159e+05  -1.071913e+06
   6.897996e+05  -4.134620e+05
   1.478374e+06   4.289516e+05
   1.301037e+06   8.045561e+05
   2.016561e+05   6.885125e+05
  -8.455561e+05   4.340883e+05
  -9.775911e+05   2.061964e+05
  -3.551559e+05  -3.844142e+04
   1.417012e+05  -2.262584e+05
   2.403371e+04  -2.108820e+05
  -2.720961e+05  -9.423778e+04
  -5.047941e+04  -1.307507e+05
   6.588128e+05  -2.455729e+05
   1.039168e+06  -1.274459e+04
   4.380884e+05   6.727265e+05
  -8.116713e+05   1.185708e+06
  -1.664616e+06   7.917877e+05
  -1.405183e+06  -3.932860e+05
  -3.066671e+05  -1.390817e+06
   7.253855e+05  -1.385858e+06
   1.027964e+06  -5.585556e+05
   6.569406e+05   2.171653e+05
   1.402440e+05   3.518129e+05
  -7.079092e+04   6.319923e+04
   8.047414e+04  -2.246136e+04
   3.107657e+05   3.578183e+05
   2.679870e+05   7.981654e+05
  -1.607301e+05   6.786302e+05
  -6.794074e+05  -1.046525e+05
  -7.569489e+05  -9.262794e+05
  -1.407091e+05  -1.019275e+06
   7.406213e+05  -2.637441e+05
   1.045852e+06   6.884387e+05
   3.755159e+05   1.071753e+06
  -6.886280e+05   6.917526e+05
  -1.112551e+06  -4.258531e+04
  -5.459862e+05  -5.918959e+05
   2.644743e+05  -6.809741e+05
   3.654936e+05  -3.776723e+05
  -2.462863e+05  -4.564996e+03
  -6.444764e+05   5.638494e+04
  -1.544277e+05  -3.012654e+05
   8.022369e+05  -6.975087e+05
   1.238003e+06  -5.736606e+05
   7.636674e+05   1.528649e+05
  -7.088325e+04   8.663872e+05
  -5.239630e+05   8.679979e+05
  -4.168505e+05   1.747749e+05
  -6.604950e+04  -4.736627e+05
   2.242817e+05  -4.392256e+05
   3.522943e+05   1.361316e+05
   2.690204e+05   5.663158e+05
  -3.833430e+04   4.260243e+05
  -3.890918e+05  -3.285766e+04
  -4.822472e+05  -2.649988e+05
  -2.449883e+05  -8.920191e+04
   4.019057e+04   1.476795e+05
   8.660997e+04   4.155959e+04
  -2.176644e+04  -3.478912e+05
   3.003347e+04  -5.452580e+05
   3.065794e+05  -2.268190e+05
   4.654854e+05   3.598327e+05
   1.763622e+05   6.356034e+05
  -3.949689e+05   3.243255e+05
  -6.682574e+05  -2.559458e+05
  -2.692626e+05  -5.610119e+05
   4.937890e+05  -3.791911e+05
   8.796209e+05   4.699058e+04
   4.878648e+05   3.605397e+05
  -2.785998e+05   4.078471e+05
  -6.270656e+05   2.478911e+05
  -2.494872e+05   2.760418e+04
   3.383957e+05  -7.766383e+04
   4.039954e+05   4.971861e+04
  -1.578604e+05   2.914001e+05
  -7.275329e+05   2.894575e+05
