
 $NMID
 id='ANONYMOUS ', fmtdat='(2E16.6)'
 volume=1.0
 tramp=1.0
 $END
  -2.811575e+07   1.619691e+06
  -2.016774e+07  -1.268164e+07
  -1.009689e+06  -1.851362e+07
   1.232414e+07  -1.258433e+07
   1.085644e+07  -1.205372e+06
   7.584924e+05   5.410406e+06
  -6.072425e+06   2.611155e+06
  -4.523358e+06  -4.783072e+06
   1.468868e+06  -8.031822e+06
   5.492216e+06  -3.613085e+06
   4.671534e+06   3.556880e+06
   6.517365e+05   5.874867e+06
  -2.624489e+06   1.282047e+06
  -2.090229e+06  -4.858688e+06
   1.742723e+06  -5.841454e+06
   4.893466e+06  -6.433358e+05
   3.736899e+06   5.561475e+06
  -1.079091e+06   7.195471e+06
  -5.271317e+06   3.602771e+06
  -5.498638e+06  -1.315574e+06
  -2.564240e+06  -3.670631e+06
   9.082993e+03  -3.064168e+06
  -1.317899e+05  -1.957111e+06
  -1.946037e+06  -2.462978e+06
  -2.243896e+06  -4.119719e+06
   8.841483e+05  -4.632318e+06
   5.562548e+06  -2.536726e+06
   7.414207e+06   1.055954e+06
   4.133755e+06   3.437454e+06
  -1.441719e+06   2.909273e+06
  -3.948340e+06   2.902528e+05
  -1.360836e+06  -1.980988e+06
   2.897340e+06  -1.946358e+06
   4.187590e+06   4.224702e+05
   1.802059e+06   3.207501e+06
  -1.112872e+06   3.928326e+06
  -1.812832e+06   1.755886e+06
  -6.060079e+05  -1.240424e+06
   5.063047e+05  -1.823323e+06
   3.034553e+05   7.097181e+05
  -9.526468e+05   3.223539e+06
  -2.160575e+06   2.263088e+06
  -2.078034e+06  -1.469658e+06
  -2.087242e+05  -3.614042e+06
   2.210784e+06  -1.439134e+06
   2.694293e+06   2.728593e+06
   5.142400e+03   4.274200e+06
  -3.885339e+06   1.589873e+06
  -5.245472e+06  -2.536511e+06
  -2.402316e+06  -4.364250e+06
   2.290713e+06  -2.829465e+06
   4.686686e+06   2.111996e+05
   2.935367e+06   2.200196e+06
  -8.539822e+05   1.920393e+06
  -2.944380e+06   1.160869e+05
  -1.745310e+06  -1.299452e+06
   8.312085e+05  -9.698277e+05
   1.700613e+06   5.708555e+05
   4.443106e+04   1.466073e+06
  -1.893675e+06   6.151176e+05
  -1.506393e+06  -1.096138e+06
   1.077626e+06  -1.808420e+06
   3.049335e+06  -6.082943e+05
   2.021050e+06   1.726357e+06
  -1.397832e+06   3.468604e+06
  -4.329151e+06   3.162280e+06
  -4.585355e+06   6.303239e+05
  -2.546293e+06  -2.653260e+06
  -2.661304e+05  -4.492285e+06
   7.747086e+05  -3.920363e+06
   8.094987e+05  -2.158316e+06
   9.833389e+05  -1.100813e+06
   1.844503e+06  -1.002576e+06
   2.759090e+06  -4.381757e+05
   2.643383e+06   1.343010e+06
   1.111893e+06   2.952251e+06
  -1.037462e+06   2.427543e+06
  -2.339960e+06  -1.985160e+05
  -1.758024e+06  -2.677499e+06
   4.179289e+05  -2.880751e+06
   2.606623e+06  -8.348840e+05
   3.130025e+06   1.627563e+06
   1.712869e+06   2.782504e+06
  -2.411906e+05   2.377442e+06
  -1.147945e+06   1.419442e+06
  -9.940680e+05   9.534741e+05
  -1.201461e+06   1.046564e+06
  -2.595191e+06   8.399589e+05
  -3.973928e+06  -4.298376e+05
  -3.276972e+06  -2.454791e+06
  -1.381173e+05  -3.926912e+06
   3.269694e+06  -3.627745e+06
   4.264522e+06  -1.536720e+06
   2.341958e+06   1.005900e+06
  -4.182051e+05   2.258832e+06
  -1.532133e+06   1.502681e+06
  -4.535950e+05  -2.452051e+05
   1.236973e+06  -1.110795e+06
   1.683917e+06  -2.832342e+05
   5.877630e+05   1.043619e+06
  -7.169385e+05   1.057304e+06
  -7.691627e+05  -3.593096e+05
   5.425298e+05  -1.277334e+06
   1.897825e+06  -2.269065e+04
   1.785160e+06   2.602144e+06
  -1.314066e+05   3.985566e+06
  -2.656673e+06   2.535421e+06
  -3.960596e+06  -6.436457e+05
  -3.041070e+06  -2.992230e+06
  -6.139013e+05  -3.025036e+06
   1.418779e+06  -1.439683e+06
   1.649233e+06  -4.359849e+04
   4.823145e+05   5.781361e+04
  -3.516964e+05  -7.277365e+05
   2.700890e+05  -1.166062e+06
   1.586041e+06  -5.437985e+05
   1.862287e+06   6.284616e+05
   5.092632e+05   1.202067e+06
  -1.088802e+06   6.291844e+05
  -1.077190e+06  -4.519866e+05
   7.222373e+05  -8.668873e+05
   2.478071e+06  -5.649803e+04
   2.233145e+06   1.408385e+06
  -3.921756e+04   2.326451e+06
  -2.380539e+06   1.868461e+06
  -2.795026e+06   3.041291e+05
  -1.156896e+06  -1.126882e+06
   8.024796e+05  -1.254752e+06
   1.275573e+06  -1.352905e+05
   6.165328e+04   9.096622e+05
  -1.436380e+06   6.511726e+05
  -1.703793e+06  -6.749508e+05
  -5.310232e+05  -1.621087e+06
   9.238046e+05  -1.189486e+06
   1.327672e+06   5.458355e+04
   4.465418e+05   7.009200e+05
  -6.495706e+05   1.019052e+05
  -6.472025e+05  -9.952901e+05
   6.428488e+05  -1.331110e+06
   1.983570e+06  -4.075824e+05
   1.921242e+06   1.101086e+06
   3.394450e+05   1.997254e+06
  -1.349961e+06   1.589252e+06
  -1.667859e+06   2.712817e+05
  -5.783755e+05  -8.207004e+05
   6.136233e+05  -8.446983e+05
   7.511656e+05  -3.760766e+04
  -3.886359e+04   5.967542e+05
  -7.005253e+05   4.159611e+05
  -4.897520e+05  -1.742921e+05
   2.830038e+05  -2.676398e+05
   6.436550e+05   4.157688e+05
  -2.545324e+04   1.138601e+06
  -1.306515e+06   9.189091e+05
  -2.039774e+06  -4.033312e+05
  -1.394137e+06  -1.917639e+06
   2.680380e+05  -2.432152e+06
   1.671245e+06  -1.535860e+06
   1.859642e+06   3.999633e+04
   1.078146e+06   1.096069e+06
   3.379635e+05   1.060999e+06
   2.283107e+05   4.485011e+05
   3.726086e+05   1.971343e+05
   5.976662e+04   5.859359e+05
  -8.038818e+05   9.306736e+05
  -1.502619e+06   4.277277e+05
  -1.207543e+06  -8.003919e+05
   1.745747e+05  -1.666338e+06
   1.763608e+06  -1.182705e+06
   2.308388e+06   4.841832e+05
   1.215770e+06   2.070203e+06
  -8.433415e+05   2.330778e+06
  -2.402389e+06   1.134078e+06
  -2.438764e+06  -4.932068e+05
  -1.219240e+06  -1.367219e+06
   9.072497e+04  -1.203456e+06
   6.002715e+05  -7.091477e+05
   4.131108e+05  -6.757932e+05
   2.638358e+05  -1.070884e+06
   6.147173e+05  -1.116658e+06
   1.176918e+06  -2.519255e+05
   1.250011e+06   1.112047e+06
   4.828012e+05   1.897368e+06
  -6.760961e+05   1.406852e+06
  -1.299751e+06   1.081037e+04
  -8.478922e+05  -1.197823e+06
   2.558746e+05  -1.377352e+06
   1.000144e+06  -5.866986e+05
   8.017310e+05   4.175431e+05
   7.412024e+04   9.261586e+05
  -3.007335e+05   8.286288e+05
  -3.138015e+03   5.240839e+05
   3.681315e+05   3.913673e+05
   1.752739e+04   3.999806e+05
  -1.058121e+06   2.277916e+05
  -1.919363e+06  -3.043751e+05
  -1.588148e+06  -9.728358e+05
  -1.010478e+05  -1.321382e+06
   1.408810e+06  -1.066260e+06
   1.767455e+06  -3.581521e+05
   8.979988e+05   3.075507e+05
  -1.764818e+05   4.716336e+05
  -4.624064e+05   1.138211e+05
   2.685622e+04  -2.864741e+05
   5.066019e+05  -2.002000e+05
   4.435206e+05   3.515439e+05
   7.594093e+04   7.469959e+05
  -6.042489e+04   4.695666e+05
   1.688485e+05  -1.933167e+05
   4.169535e+05  -3.987701e+05
   2.990398e+05   2.231183e+05
  -2.449307e+05   1.017149e+06
  -9.055642e+05   1.007793e+06
  -1.163941e+06   6.288308e+04
  -6.441926e+05  -9.108151e+05
   4.219733e+05  -9.778657e+05
   1.134896e+06  -1.703276e+05
   6.835964e+05   6.330236e+05
  -6.778709e+05   6.630071e+05
  -1.655417e+06  -5.661981e+04
  -1.187311e+06  -8.686190e+05
   3.732384e+05  -1.118443e+06
   1.573287e+06  -6.497531e+05
   1.376566e+06   1.254303e+05
   1.952841e+05   5.623008e+05
  -6.459130e+05   3.278565e+05
  -3.337334e+05  -2.490416e+05
   6.573395e+05  -4.232899e+05
   1.148066e+06   2.224885e+05
   4.933152e+05   1.236431e+06
  -7.897719e+05   1.603988e+06
  -1.572123e+06   7.290579e+05
  -1.218927e+06  -8.532536e+05
  -1.215523e+05  -1.836701e+06
   7.985211e+05  -1.356846e+06
   9.665384e+05   1.177674e+05
   4.968228e+05   1.214603e+06
  -1.380390e+05   1.057221e+06
  -5.397999e+05   1.254101e+05
  -5.448426e+05  -4.284043e+05
  -2.549179e+05  -1.895543e+05
  -1.846458e+04   1.308937e+05
  -1.411980e+05  -2.179598e+05
  -4.350354e+05  -9.530319e+05
  -2.752545e+05  -1.133228e+06
   5.997469e+05  -4.180246e+05
   1.492898e+06   5.218731e+05
   1.377599e+06   9.004625e+05
   1.819170e+05   6.885556e+05
  -9.695390e+05   3.697854e+05
  -1.040401e+06   1.841029e+05
  -2.886464e+05   4.962057e+03
   1.906138e+05  -2.066232e+05
  -6.263734e+04  -2.793201e+05
  -3.747331e+05  -1.877209e+05
   2.236489e+03  -1.362311e+05
   7.963917e+05  -1.468796e+05
   1.029664e+06   8.694423e+04
   2.334683e+05   6.657423e+05
  -9.950048e+05   1.058407e+06
  -1.641552e+06   6.131024e+05
  -1.239588e+06  -5.365213e+05
  -1.672907e+05  -1.434902e+06
   7.886448e+05  -1.312154e+06
   1.060010e+06  -4.155502e+05
   6.543471e+05   3.285641e+05
   6.863237e+04   3.552161e+05
  -1.641891e+05  -2.052438e+04
   5.612509e+04  -9.812525e+04
   3.453268e+05   3.539672e+05
   2.605933e+05   8.266616e+05
  -2.283890e+05   6.444610e+05
  -6.879799e+05  -2.312013e+05
  -6.194973e+05  -1.050297e+06
   5.178383e+04  -1.006735e+06
   8.158102e+05  -9.779173e+04
   9.528887e+05   8.613006e+05
   2.289186e+05   1.089142e+06
  -7.495161e+05   5.625115e+05
  -1.057169e+06  -1.482770e+05
  -4.534971e+05  -5.529605e+05
   2.951392e+05  -5.679625e+05
   3.034792e+05  -3.411643e+05
  -3.389781e+05  -7.284458e+04
  -6.750603e+05  -9.673054e+03
  -1.018264e+05  -2.906844e+05
   8.584711e+05  -6.560005e+05
   1.211801e+06  -5.705518e+05
   6.689579e+05   1.200904e+05
  -1.384246e+05   8.251386e+05
  -4.996555e+05   8.045210e+05
  -3.253338e+05   8.685517e+04
   2.576283e+04  -5.140536e+05
   2.696004e+05  -3.689784e+05
   3.377956e+05   2.506115e+05
   2.131974e+05   5.903829e+05
  -8.391447e+04   3.418934e+05
  -3.793378e+05  -1.003787e+05
  -4.413284e+05  -2.374049e+05
  -2.453400e+05  -5.317898e+04
  -6.193357e+03   7.688956e+04
   1.006882e+05  -9.413919e+04
   1.337700e+05  -3.916292e+05
   2.324748e+05  -4.261881e+05
   3.599579e+05  -3.650686e+04
   3.089698e+05   4.867409e+05
  -3.030802e+04   6.452389e+05
  -4.607334e+05   2.451487e+05
  -5.838144e+05  -3.601035e+05
  -1.762578e+05  -6.136363e+05
   4.966936e+05  -3.320885e+05
   8.209341e+05   1.491783e+05
   4.343639e+05   3.987451e+05
  -3.030053e+05   3.206966e+05
  -6.140895e+05   1.207086e+05
  -1.810384e+05   2.662525e+03
   4.337886e+05   3.286858e+04
   4.268303e+05   1.860823e+05
  -2.688245e+05   3.288562e+05
  -8.832390e+05   2.120606e+05
