
 $NMID
 id='ANONYMOUS ', fmtdat='(2E16.6)'
 volume=1.0
 tramp=1.0
 $END
  -4.367524e+07   1.281454e+06
  -2.797485e+07  -2.441776e+07
   3.223433e+06  -2.924000e+07
   2.039745e+07  -1.405712e+07
   1.391511e+07   2.968760e+06
  -1.315933e+06   7.534990e+06
  -8.065109e+06   7.078596e+05
  -3.723620e+06  -7.391076e+06
   3.826178e+06  -8.833669e+06
   7.688835e+06  -2.901215e+06
   6.063982e+06   4.920189e+06
   8.933562e+05   7.407532e+06
  -3.374844e+06   2.153116e+06
  -2.546195e+06  -5.178547e+06
   2.696038e+06  -6.326723e+06
   6.528057e+06   3.089337e+05
   4.279846e+06   8.043483e+06
  -2.393422e+06   9.780443e+06
  -7.872662e+06   4.999716e+06
  -8.474173e+06  -1.623516e+06
  -4.863326e+06  -5.749351e+06
  -4.047805e+05  -6.134799e+06
   1.499169e+06  -4.166273e+06
   1.804046e+04  -2.524233e+06
  -1.797584e+06  -3.031199e+06
   1.367173e+05  -4.480912e+06
   5.489725e+06  -3.741805e+06
   8.771901e+06   3.129767e+04
   5.857754e+06   3.761846e+06
  -4.777454e+05   4.172008e+06
  -3.888649e+06   1.649629e+06
  -2.060762e+06  -8.965374e+05
   1.626387e+06  -1.536378e+06
   3.231853e+06  -2.110843e+05
   2.153244e+06   2.238858e+06
  -3.166222e+04   4.033305e+06
  -1.799519e+06   2.968872e+06
  -2.084009e+06  -6.497305e+05
  -7.230479e+05  -2.865150e+06
   6.108489e+05  -7.104096e+05
  -1.603820e+05   2.893440e+06
  -2.284716e+06   2.376589e+06
  -2.331323e+06  -2.364186e+06
   1.133378e+06  -4.990692e+06
   4.754721e+06  -1.244926e+06
   4.077252e+06   4.979863e+06
  -9.497323e+05   6.609989e+06
  -5.813348e+06   2.135779e+06
  -6.292523e+06  -3.469374e+06
  -2.244244e+06  -5.249729e+06
   2.879608e+06  -2.859378e+06
   5.053962e+06   7.950115e+05
   2.751194e+06   2.836570e+06
  -1.656987e+06   2.105418e+06
  -3.826363e+06  -3.745894e+05
  -1.903515e+06  -2.036711e+06
   1.297456e+06  -1.214743e+06
   1.757867e+06   7.764669e+05
  -6.446685e+05   1.176097e+06
  -2.193762e+06  -6.057954e+05
  -3.905749e+05  -2.311802e+06
   2.956930e+06  -1.880212e+06
   4.270507e+06   3.771040e+05
   2.237113e+06   2.909533e+06
  -1.553701e+06   4.524546e+06
  -4.682516e+06   4.234918e+06
  -5.512690e+06   1.360214e+06
  -3.755205e+06  -2.909866e+06
  -7.508156e+05  -5.463820e+06
   1.267611e+06  -4.448354e+06
   1.264902e+06  -1.697986e+06
   5.100728e+05  -4.230737e+05
   8.300799e+05  -1.078225e+06
   2.176981e+06  -1.268793e+06
   2.832291e+06   4.307946e+05
   1.723531e+06   2.422459e+06
  -4.033934e+05   2.355734e+06
  -1.962202e+06   9.457407e+04
  -1.828885e+06  -2.343063e+06
   1.120999e+05  -2.973920e+06
   2.718676e+06  -1.367708e+06
   3.958178e+06   1.337790e+06
   2.628765e+06   3.319584e+06
  -8.274624e+04   3.425676e+06
  -1.748353e+06   2.167503e+06
  -1.655131e+06   1.085292e+06
  -1.530026e+06   8.949665e+05
  -2.799585e+06   7.294044e+05
  -4.254268e+06  -5.071987e+05
  -3.514028e+06  -2.575037e+06
  -2.460831e+05  -4.100768e+06
   3.192245e+06  -3.934289e+06
   4.252583e+06  -2.005601e+06
   2.590212e+06   6.404251e+05
   1.845429e+04   2.305375e+06
  -1.285023e+06   1.814015e+06
  -5.311627e+05  -1.231320e+05
   1.148562e+06  -1.276769e+06
   1.830271e+06  -3.974006e+05
   8.097337e+05   1.137994e+06
  -5.914260e+05   1.130524e+06
  -6.062247e+05  -3.575731e+05
   7.982742e+05  -9.926098e+05
   1.896178e+06   6.419441e+05
   1.256484e+06   3.072830e+06
  -8.177123e+05   3.731179e+06
  -2.884985e+06   1.869278e+06
  -3.683729e+06  -9.784389e+05
  -2.760441e+06  -2.826906e+06
  -6.249838e+05  -2.833554e+06
   1.307340e+06  -1.521465e+06
   1.641726e+06  -1.930251e+05
   4.991915e+05   3.903914e+04
  -3.819544e+05  -7.458992e+05
   3.248170e+05  -1.292174e+06
   1.781327e+06  -6.142280e+05
   2.008993e+06   7.358495e+05
   4.807995e+05   1.330296e+06
  -1.139196e+06   6.379840e+05
  -1.005520e+06  -4.320406e+05
   7.808529e+05  -7.083762e+05
   2.355394e+06   8.345223e+04
   2.041931e+06   1.342222e+06
  -9.112084e+04   2.172164e+06
  -2.334500e+06   1.850274e+06
  -2.829907e+06   3.688770e+05
  -1.243003e+06  -1.196258e+06
   8.521690e+05  -1.439271e+06
   1.457581e+06  -2.005891e+05
   1.643360e+05   1.023575e+06
  -1.493737e+06   7.506854e+05
  -1.763603e+06  -7.031071e+05
  -4.756158e+05  -1.655502e+06
   1.003668e+06  -1.116427e+06
   1.313748e+06   1.652292e+05
   3.597678e+05   7.469910e+05
  -7.429456e+05   9.322106e+04
  -7.374360e+05  -1.032124e+06
   5.829833e+05  -1.429311e+06
   2.028273e+06  -5.461541e+05
   2.055945e+06   1.043784e+06
   4.248142e+05   2.073550e+06
  -1.386624e+06   1.687805e+06
  -1.727477e+06   2.862306e+05
  -5.683603e+05  -8.487066e+05
   6.289473e+05  -8.544367e+05
   6.989734e+05  -8.167285e+04
  -6.692314e+04   4.749869e+05
  -5.829844e+05   3.271976e+05
  -2.967339e+05  -9.951841e+04
   3.722503e+05  -8.329230e+04
   5.937765e+05   5.515753e+05
  -9.918418e+04   1.188296e+06
  -1.351587e+06   9.584233e+05
  -2.116058e+06  -3.634166e+05
  -1.514422e+06  -1.934763e+06
   1.785466e+05  -2.483107e+06
   1.630754e+06  -1.542250e+06
   1.800748e+06   3.835982e+04
   1.005683e+06   9.735477e+05
   3.654418e+05   8.403125e+05
   3.888197e+05   3.233798e+05
   5.291721e+05   2.596645e+05
   9.276150e+04   6.980967e+05
  -8.362743e+05   9.533914e+05
  -1.489626e+06   4.182523e+05
  -1.163963e+06  -7.382901e+05
   1.747621e+05  -1.586043e+06
   1.742826e+06  -1.191288e+06
   2.333623e+06   4.311471e+05
   1.248682e+06   2.095890e+06
  -8.934119e+05   2.419036e+06
  -2.499805e+06   1.161398e+06
  -2.449562e+06  -5.320229e+05
  -1.130267e+06  -1.343471e+06
   1.238267e+05  -1.081802e+06
   4.708861e+05  -6.279190e+05
   2.125628e+05  -7.480292e+05
   1.506450e+05  -1.236171e+06
   6.303848e+05  -1.253694e+06
   1.261364e+06  -3.260675e+05
   1.356111e+06   1.083245e+06
   5.866312e+05   1.921799e+06
  -6.207347e+05   1.471684e+06
  -1.317564e+06   3.883459e+04
  -8.761719e+05  -1.247971e+06
   3.012943e+05  -1.421628e+06
   1.096075e+06  -5.200858e+05
   8.319593e+05   5.649691e+05
  -1.399963e+04   1.026779e+06
  -4.193741e+05   8.245916e+05
  -3.510071e+04   4.719191e+05
   4.243410e+05   3.578440e+05
   5.338132e+04   3.984243e+05
  -1.125365e+06   2.500770e+05
  -2.049082e+06  -2.758221e+05
  -1.662926e+06  -9.865369e+05
  -5.781670e+04  -1.409632e+06
   1.513169e+06  -1.167440e+06
   1.829868e+06  -3.663074e+05
   8.857248e+05   3.966406e+05
  -2.169495e+05   5.415235e+05
  -4.964724e+05   8.194627e+04
  -1.266715e+04  -3.715164e+05
   4.748834e+05  -2.526634e+05
   4.845505e+05   3.411422e+05
   2.018848e+05   7.475148e+05
   4.257855e+04   4.876379e+05
   1.478279e+05  -1.446077e+05
   3.333039e+05  -3.572496e+05
   2.973343e+05   2.247505e+05
  -1.610790e+05   1.027469e+06
  -8.929775e+05   1.087527e+06
  -1.302997e+06   1.608867e+05
  -8.048230e+05  -9.151970e+05
   4.005418e+05  -1.104681e+06
   1.226952e+06  -3.031166e+05
   7.453137e+05   5.918290e+05
  -6.878397e+05   6.863393e+05
  -1.650803e+06  -3.558224e+04
  -1.127517e+06  -8.497632e+05
   4.155621e+05  -1.073812e+06
   1.542426e+06  -6.042997e+05
   1.322207e+06   1.289120e+05
   1.783349e+05   5.394381e+05
  -6.521761e+05   3.169491e+05
  -3.775628e+05  -2.724817e+05
   6.162212e+05  -5.107149e+05
   1.200479e+06   1.092048e+05
   6.472402e+05   1.215835e+06
  -6.393511e+05   1.721718e+06
  -1.531604e+06   8.856548e+05
  -1.292447e+06  -7.783374e+05
  -2.259824e+05  -1.845454e+06
   7.418067e+05  -1.370111e+06
   9.649156e+05   1.297134e+05
   5.004816e+05   1.212808e+06
  -1.623871e+05   1.028687e+06
  -5.617744e+05   1.170582e+05
  -5.194180e+05  -3.906403e+05
  -2.086240e+05  -1.536915e+05
  -3.403752e+04   1.118398e+05
  -2.370027e+05  -2.678550e+05
  -5.177071e+05  -9.703533e+05
  -2.595257e+05  -1.115568e+06
   6.736331e+05  -4.286930e+05
   1.528786e+06   4.559726e+05
   1.371058e+06   8.414826e+05
   2.068512e+05   7.049939e+05
  -9.065330e+05   4.368212e+05
  -1.022270e+06   2.159397e+05
  -3.409670e+05  -2.428906e+04
   1.601155e+05  -2.288507e+05
  -8.587413e+03  -2.357691e+05
  -3.174547e+05  -1.209005e+05
  -3.584720e+04  -1.374070e+05
   7.225663e+05  -2.308876e+05
   1.066391e+06   1.025733e+04
   3.879093e+05   6.913918e+05
  -8.866312e+05   1.188932e+06
  -1.699041e+06   7.680795e+05
  -1.395806e+06  -4.436834e+05
  -2.834650e+05  -1.443486e+06
   7.544713e+05  -1.406377e+06
   1.065042e+06  -5.366959e+05
   6.792808e+05   2.532969e+05
   1.237071e+05   3.633402e+05
  -1.060602e+05   4.146245e+04
   7.134312e+04  -4.784281e+04
   3.334120e+05   3.613848e+05
   2.811874e+05   8.257387e+05
  -1.819861e+05   6.889286e+05
  -7.055636e+05  -1.422508e+05
  -7.446562e+05  -9.890628e+05
  -9.001103e+04  -1.047403e+06
   7.883682e+05  -2.256961e+05
   1.055240e+06   7.568053e+05
   3.476214e+05   1.107065e+06
  -7.247883e+05   6.757179e+05
  -1.127254e+06  -7.009906e+04
  -5.335751e+05  -5.925363e+05
   2.792141e+05  -6.647926e+05
   3.521412e+05  -3.764101e+05
  -2.859077e+05  -2.133568e+04
  -6.730938e+05   4.333514e+04
  -1.434621e+05  -3.060514e+05
   8.363272e+05  -7.115222e+05
   1.255734e+06  -5.981547e+05
   7.521591e+05   1.423428e+05
  -8.833803e+04   8.782811e+05
  -5.235429e+05   8.733423e+05
  -3.990370e+05   1.506370e+05
  -4.348936e+04  -5.020707e+05
   2.435287e+05  -4.311615e+05
   3.622598e+05   1.746432e+05
   2.638114e+05   5.883727e+05
  -5.356455e+04   4.112845e+05
  -3.987810e+05  -5.266281e+04
  -4.825657e+05  -2.596603e+05
  -2.508404e+05  -7.724696e+04
   2.457765e+04   1.294895e+05
   8.862413e+04  -3.569763e+03
   2.403122e+04  -3.770762e+05
   9.708113e+04  -5.280392e+05
   3.372857e+05  -1.747634e+05
   4.340713e+05   4.126026e+05
   1.190521e+05   6.613997e+05
  -4.267843e+05   3.127952e+05
  -6.639590e+05  -2.938006e+05
  -2.528333e+05  -5.937918e+05
   5.055999e+05  -3.781714e+05
   8.871833e+05   7.581662e+04
   4.876262e+05   3.798126e+05
  -2.932847e+05   3.931332e+05
  -6.414311e+05   2.177278e+05
  -2.339899e+05   1.978629e+04
   3.821318e+05  -5.009542e+04
   4.276752e+05   9.129254e+04
  -1.943201e+05   3.170671e+05
  -7.978600e+05   2.843029e+05
