
 $NMID
 id='ANONYMOUS ', fmtdat='(2E16.6)'
 volume=1.0
 tramp=1.0
 $END
  -5.673355e+06  -1.207039e+06
  -2.455854e+06  -4.968907e+06
   2.141540e+06  -3.991123e+06
   3.481518e+06  -2.195675e+05
   1.340204e+06   1.875203e+06
  -8.666175e+05   9.141880e+05
  -8.980022e+05  -8.005906e+05
   3.528616e+05  -1.147880e+06
   1.134461e+06  -3.704547e+05
   9.981180e+05   3.852473e+05
   4.322152e+05   7.128007e+05
  -1.312008e+05   6.703131e+05
  -3.564937e+05   2.510600e+05
  -5.193630e+03  -2.401415e+05
   5.865430e+05  -1.731839e+05
   6.589286e+05   5.227573e+05
  -8.580349e+03   1.094471e+06
  -8.067556e+05   9.403500e+05
  -1.148858e+06   2.827549e+05
  -1.042159e+06  -3.813764e+05
  -6.613493e+05  -8.741156e+05
  -2.388044e+04  -1.092444e+06
   6.312775e+05  -8.182484e+05
   7.848243e+05  -1.837512e+05
   3.581100e+05   2.084431e+05
  -2.109448e+04   6.035559e+04
   1.292112e+05  -1.772508e+05
   4.874232e+05  -2.838569e+04
   5.144128e+05   3.059751e+05
   2.369390e+05   4.050275e+05
  -3.480282e+03   3.245128e+05
  -1.573472e+05   3.165956e+05
  -3.117219e+05   2.664348e+05
  -2.982298e+05   1.706013e+03
  -1.644664e+04  -1.783458e+05
   1.579334e+05   5.774900e+04
  -1.147791e+05   3.646623e+05
  -4.740368e+05   1.674967e+05
  -3.555773e+05  -3.468126e+05
   5.357897e+04  -4.647738e+05
   1.016256e+05  -1.296673e+05
  -1.807969e+05  -4.086165e+04
  -6.993937e+04  -4.192683e+05
   5.872650e+05  -5.354835e+05
   9.488239e+05   1.147147e+05
   4.009351e+05   8.841455e+05
  -4.867007e+05   8.322975e+05
  -7.537901e+05   4.009478e+04
  -2.980737e+05  -5.706232e+05
   2.206733e+05  -4.649338e+05
   3.558698e+05   4.230387e+04
   1.860102e+05   4.057880e+05
  -9.786710e+04   3.996518e+05
  -3.521283e+05   9.384379e+04
  -3.596998e+05  -2.664732e+05
  -5.730659e+04  -3.520238e+05
   1.941253e+05  -8.313208e+04
   3.202605e+04   1.496333e+05
  -2.862207e+05  -5.367203e+04
  -1.777964e+05  -4.729720e+05
   3.692399e+05  -5.049522e+05
   7.210188e+05  -2.119339e+04
   4.971287e+05   4.578749e+05
   2.954012e+04   5.199891e+05
  -2.418937e+05   3.321013e+05
  -3.324332e+05   1.871512e+05
  -3.989198e+05   3.431831e+04
  -3.157135e+05  -2.363297e+05
   3.568832e+04  -4.047209e+05
   3.642206e+05  -2.146434e+05
   2.959520e+05   1.521959e+05
  -6.141002e+04   2.787203e+05
  -2.690737e+05   8.408402e+04
  -1.694594e+05  -1.364441e+05
   7.563653e+03  -1.755245e+05
   8.051059e+04  -1.078298e+05
   1.014264e+05  -4.737615e+04
   1.159456e+05  -2.602147e+03
   7.445444e+04   8.578178e+03
   2.563123e+04  -4.749786e+04
   1.018240e+05  -7.740445e+04
   2.429988e+05   6.100670e+04
   2.064645e+05   2.967932e+05
  -5.724433e+04   3.786131e+05
  -2.886497e+05   2.205736e+05
  -2.905284e+05   7.984178e+03
  -1.803664e+05  -9.997744e+04
  -1.364201e+05  -1.558415e+05
  -1.144215e+05  -2.260238e+05
   2.092929e+03  -2.285834e+05
   1.484200e+05  -1.067923e+05
   1.816457e+05   1.821906e+04
   1.161464e+05   2.723038e+04
   6.540946e+04  -1.009471e+04
   4.275891e+04   1.682041e+04
  -1.019655e+03   6.027843e+04
  -2.644011e+04   3.057017e+04
   2.478744e+04  -1.367763e+04
   8.020128e+04   2.065378e+04
   4.523219e+04   6.487792e+04
  -2.794632e+03   1.655106e+04
   6.164877e+04  -2.420944e+04
   1.413853e+05   1.071382e+05
   1.552402e+04   3.062146e+05
  -2.796876e+05   2.752795e+05
  -4.220530e+05  -3.649509e+04
  -2.349751e+05  -3.204130e+05
   7.042459e+04  -3.196050e+05
   2.000282e+05  -1.338399e+05
   1.364176e+05  -1.135387e+03
   5.204771e+04   2.478623e+04
   2.382114e+04   2.657552e+04
   1.243024e+04   1.811727e+04
   1.791188e+04  -2.554467e+04
   6.745369e+04  -4.053792e+04
   1.024319e+05   3.651150e+04
   4.608431e+04   1.171065e+05
  -4.407143e+04   7.466109e+04
  -4.301079e+04  -3.350856e+04
   3.817939e+04  -3.367949e+04
   6.190629e+04   9.107987e+04
  -2.202521e+04   1.691524e+05
  -1.132579e+05   9.721498e+04
  -1.286149e+05  -3.216214e+04
  -9.792979e+04  -9.890826e+04
  -6.035431e+04  -1.040654e+05
   2.901818e+03  -8.983390e+04
   7.833329e+04  -4.462717e+04
   8.427181e+04   2.707382e+04
   1.593878e+03   4.757497e+04
  -5.937124e+04  -2.215169e+04
  -9.602496e+03  -9.061358e+04
   8.058820e+04  -5.438473e+04
   8.650049e+04   4.691303e+04
   9.236040e+03   8.888519e+04
  -4.601694e+04   3.639381e+04
  -2.811849e+04  -3.106339e+04
   1.948497e+04  -4.307411e+04
   4.898632e+04  -4.078419e+03
   4.853689e+04   4.964043e+04
   9.362213e+03   8.312912e+04
  -6.093994e+04   6.246460e+04
  -1.012406e+05  -9.389736e+03
  -5.707631e+04  -6.440684e+04
   2.426422e+04  -4.349965e+04
   4.235379e+04   1.116089e+04
  -9.029214e+03   9.628941e+03
  -3.173095e+04  -4.681724e+04
   2.199974e+04  -6.291155e+04
   7.512328e+04   4.773169e+03
   4.567535e+04   8.249771e+04
  -3.690409e+04   8.693358e+04
  -8.749518e+04   2.509915e+04
  -7.542442e+04  -4.632101e+04
  -2.478616e+04  -9.293952e+04
   4.032368e+04  -9.457843e+04
   9.072076e+04  -3.336356e+04
   7.955299e+04   5.685393e+04
   3.310046e+03   8.814733e+04
  -5.825907e+04   2.795419e+04
  -3.343088e+04  -3.782551e+04
   3.393933e+04  -1.871380e+04
   4.061250e+04   4.640018e+04
  -2.627827e+04   4.878018e+04
  -7.287091e+04  -2.590339e+04
  -3.451788e+04  -8.197519e+04
   4.555863e+04  -5.491178e+04
   8.963764e+04   1.827584e+04
   7.166864e+04   7.721862e+04
   7.341506e+03   1.033697e+05
  -7.797034e+04   8.648036e+04
  -1.362600e+05   8.846127e+03
  -1.097522e+05  -9.489964e+04
  -6.486398e+03  -1.318927e+05
   7.778247e+04  -6.236675e+04
   6.557383e+04   3.134521e+04
  -2.721932e+03   4.482006e+04
  -2.642037e+04  -1.539496e+04
   2.034314e+04  -5.627942e+04
   6.737918e+04  -2.822000e+04
   5.335713e+04   3.047463e+04
  -4.425569e+03   6.363469e+04
  -5.099786e+04   5.241413e+04
  -5.567858e+04   5.360439e+03
  -1.894447e+04  -5.080554e+04
   4.042685e+04  -6.762915e+04
   8.284692e+04  -1.492125e+04
   6.575116e+04   6.497003e+04
  -7.326939e+03   9.022326e+04
  -7.460703e+04   4.177618e+04
  -7.879746e+04  -1.188833e+04
  -3.181405e+04  -1.143118e+04
   3.522318e+03   1.615442e+04
  -1.023951e+04   7.426413e+03
  -4.555760e+04  -4.605286e+04
  -4.625513e+04  -9.377548e+04
   8.173092e+03  -9.228525e+04
   7.771985e+04  -4.153403e+04
   9.997122e+04   2.866448e+04
   5.490868e+04   7.736624e+04
  -1.212507e+04   7.123384e+04
  -4.038006e+04   1.680497e+04
  -2.014799e+04  -3.310330e+04
   7.404350e+03  -3.289617e+04
   1.126811e+04   2.862620e+03
   3.248013e+03   2.553151e+04
   4.108351e+03   2.007266e+04
   8.812803e+03   1.335989e+04
   4.123108e+03   2.154002e+04
  -5.411553e+03   2.833824e+04
  -1.342346e+04   1.983962e+04
  -3.061535e+04   4.229800e+03
  -5.759685e+04  -1.230886e+04
  -5.986158e+04  -3.426656e+04
  -1.085475e+04  -4.912507e+04
   5.085708e+04  -2.929704e+04
   5.564985e+04   1.633098e+04
  -1.174334e+03   3.047667e+04
  -4.413804e+04  -1.749488e+04
  -1.647019e+04  -7.315562e+04
   4.631793e+04  -5.874192e+04
   7.004247e+04   2.085151e+04
   3.690158e+04   8.102696e+04
  -8.878869e+03   6.558914e+04
  -2.866042e+04   7.124442e+03
  -2.233631e+04  -3.014104e+04
  -3.560482e+03  -2.587022e+04
   1.709275e+04  -1.225809e+03
   2.188649e+04   2.350268e+04
  -4.541731e+03   3.688010e+04
  -4.323716e+04   2.436204e+04
  -4.759255e+04  -1.506437e+04
  -6.563844e+02  -4.785564e+04
   5.349121e+04  -3.481205e+04
   5.629233e+04   1.588790e+04
   3.255360e+03   5.090601e+04
  -5.158713e+04   3.523832e+04
  -5.684429e+04  -7.315262e+03
  -1.630449e+04  -2.889114e+04
   2.143412e+04  -1.640826e+04
   1.888364e+04   8.425462e+02
  -9.749951e+03  -5.476663e+03
  -1.761024e+04  -2.894437e+04
   1.514449e+04  -3.956218e+04
   5.288574e+04  -1.823589e+04
   4.871109e+04   2.415447e+04
   6.429351e+03   5.699103e+04
  -2.633234e+04   5.596714e+04
  -2.454784e+04   2.259879e+04
  -1.281239e+04  -1.762421e+04
  -1.586686e+04  -3.648637e+04
  -1.767834e+04  -2.592718e+04
   3.277887e+03  -2.730270e+03
   2.694661e+04   9.463313e+03
   2.016438e+04   4.146782e+03
  -4.032968e+03  -2.633768e+03
  -3.064957e+03   6.937407e+03
   2.124004e+04   2.772192e+04
   1.690327e+04   3.416109e+04
  -3.382305e+04   1.075813e+04
  -7.237885e+04  -2.617532e+04
  -4.115733e+04  -4.471627e+04
   3.097391e+04  -3.239853e+04
   6.537552e+04  -6.509177e+03
   3.846733e+04   9.996176e+03
   1.848127e+03   1.255857e+04
  -3.095259e+02   1.142420e+04
   1.384379e+04   1.380188e+04
   7.038554e+03   1.817336e+04
  -1.774363e+04   2.117129e+04
  -2.973864e+04   2.037465e+04
  -1.966214e+04   1.149849e+04
  -5.635315e+03  -7.566765e+03
   6.871853e+02  -2.716230e+04
   5.768963e+03  -2.857652e+04
   1.196023e+04  -4.163264e+03
   7.382173e+03   2.744224e+04
  -1.343131e+04   3.472341e+04
  -3.351232e+04   6.579231e+03
  -2.960856e+04  -3.174308e+04
  -3.139739e+01  -4.342211e+04
   3.056287e+04  -2.142480e+04
   3.500799e+04   3.483761e+03
   1.211354e+04   1.859837e+03
  -9.118007e+03  -1.612671e+04
   1.030832e+03  -1.527438e+04
   3.609528e+04   1.499155e+04
   5.427491e+04   4.477888e+04
   2.572692e+04   4.426582e+04
  -2.762442e+04   2.157146e+04
  -5.439164e+04   4.701172e+03
  -3.399980e+04   4.801115e+02
   2.639932e+03  -4.878322e+03
   1.620474e+04  -1.161008e+04
   3.881842e+03  -3.012283e+03
  -9.994095e+03   1.861019e+04
  -1.182009e+04   2.264658e+04
  -8.054875e+03  -5.178808e+03
  -4.925174e+03  -3.220932e+04
  -5.124352e+02  -1.987101e+04
   2.593776e+03   1.815529e+04
  -3.592184e+03   3.067095e+04
  -1.481406e+04   1.633961e+02
  -1.305607e+04  -3.290535e+04
   6.925767e+03  -2.735003e+04
   2.329230e+04   4.387233e+03
   1.407177e+04   1.928558e+04
  -1.010647e+04   3.512872e+03
  -1.747310e+04  -1.590300e+04
   2.721023e+03  -1.308534e+04
   2.626901e+04   6.593645e+03
   2.593561e+04   2.163112e+04
   3.233224e+03   2.174053e+04
  -1.925156e+04   1.201792e+04
  -2.622775e+04   9.966339e+02
  -1.977769e+04  -6.269441e+03
  -8.298009e+03  -8.345640e+03
   1.872380e+03  -7.562576e+03
   5.796849e+03  -8.268427e+03
   2.853466e+03  -1.160101e+04
