
 $NMID
 id='ANONYMOUS ', fmtdat='(2E16.6)'
 volume=1.0
 tramp=1.0
 $END
   4.321223e+07  -2.920139e+06
   2.863470e+07   2.324724e+07
  -2.160888e+06   2.915020e+07
  -1.975952e+07   1.460192e+07
  -1.389503e+07  -2.547656e+06
   1.084800e+06  -7.523232e+06
   7.980815e+06  -9.137880e+05
   3.896740e+06   7.225776e+06
  -3.540792e+06   8.837981e+06
  -7.523884e+06   3.094978e+06
  -6.153027e+06  -4.644211e+06
  -1.135768e+06  -7.261068e+06
   3.240648e+06  -2.247384e+06
   2.665084e+06   4.994894e+06
  -2.469875e+06   6.311035e+06
  -6.472156e+06  -9.782431e+04
  -4.506938e+06  -7.807336e+06
   2.024439e+06  -9.755003e+06
   7.598204e+06  -5.236648e+06
   8.440750e+06   1.270200e+06
   5.053854e+06   5.489253e+06
   6.660814e+05   6.077258e+06
  -1.340678e+06   4.227881e+06
   9.631149e+02   2.515816e+06
   1.815099e+06   2.888080e+06
   2.218321e+04   4.369751e+06
  -5.232396e+06   3.865049e+06
  -8.606789e+06   2.949880e+05
  -5.905143e+06  -3.478682e+06
   2.882835e+05  -4.114227e+06
   3.726714e+06  -1.768668e+06
   2.040717e+06   7.685144e+05
  -1.516385e+06   1.510953e+06
  -3.111913e+06   3.024673e+05
  -2.162702e+06  -2.084274e+06
  -1.278345e+05  -3.922246e+06
   1.640244e+06  -2.995539e+06
   2.088633e+06   5.201639e+05
   8.547179e+05   2.786279e+06
  -5.538684e+05   7.654378e+05
   5.217024e+04  -2.808599e+06
   2.164765e+06  -2.402320e+06
   2.379887e+06   2.265958e+06
  -9.712317e+05   4.994055e+06
  -4.702353e+06   1.414199e+06
  -4.237258e+06  -4.792772e+06
   7.067065e+05  -6.597163e+06
   5.675441e+06  -2.328752e+06
   6.320217e+06   3.211899e+06
   2.371027e+06   5.102540e+06
  -2.750860e+06   2.898803e+06
  -4.995288e+06  -6.367869e+05
  -2.784213e+06  -2.716201e+06
   1.582311e+06  -2.131165e+06
   3.794706e+06   2.495230e+05
   1.942518e+06   1.955672e+06
  -1.244734e+06   1.244504e+06
  -1.748857e+06  -7.131536e+05
   6.264913e+05  -1.175924e+06
   2.202517e+06   5.606334e+05
   4.419167e+05   2.316226e+06
  -2.896635e+06   1.975285e+06
  -4.251896e+06  -2.427822e+05
  -2.311754e+06  -2.811904e+06
   1.361988e+06  -4.512476e+06
   4.438529e+06  -4.329885e+06
   5.365848e+06  -1.544078e+06
   3.807687e+06   2.713461e+06
   9.377978e+05   5.343045e+06
  -1.108966e+06   4.418013e+06
  -1.209101e+06   1.694479e+06
  -4.837974e+05   3.978561e+05
  -7.449670e+05   1.061983e+06
  -2.056599e+06   1.322393e+06
  -2.771988e+06  -3.032019e+05
  -1.766887e+06  -2.289404e+06
   3.070765e+05  -2.300972e+06
   1.899838e+06  -1.507007e+05
   1.854477e+06   2.227317e+06
  -9.355419e+03   2.909895e+06
  -2.611229e+06   1.439342e+06
  -3.933582e+06  -1.161437e+06
  -2.714408e+06  -3.164257e+06
  -5.255508e+04  -3.383864e+06
   1.645822e+06  -2.211929e+06
   1.603541e+06  -1.132569e+06
   1.483822e+06  -9.259836e+05
   2.727618e+06  -8.009391e+05
   4.190931e+06   3.623636e+05
   3.528427e+06   2.411633e+06
   3.727856e+05   4.009915e+06
  -2.995798e+06   3.956562e+06
  -4.090370e+06   2.106542e+06
  -2.553662e+06  -5.320952e+05
  -1.019483e+05  -2.247651e+06
   1.188354e+06  -1.817183e+06
   5.226441e+05   1.004758e+05
  -1.080327e+06   1.287475e+06
  -1.781993e+06   4.495879e+05
  -8.349775e+05  -1.088061e+06
   5.408305e+05  -1.122473e+06
   5.992688e+05   3.374756e+05
  -7.677070e+05   9.934012e+05
  -1.892728e+06  -5.926099e+05
  -1.317683e+06  -2.997375e+06
   7.154307e+05  -3.684784e+06
   2.790081e+06  -1.901535e+06
   3.633852e+06   8.623486e+05
   2.774445e+06   2.684037e+06
   6.936372e+05   2.748198e+06
  -1.227535e+06   1.528827e+06
  -1.596706e+06   2.429536e+05
  -4.894187e+05  -2.208009e+04
   3.977143e+05   7.191179e+05
  -2.785062e+05   1.280520e+06
  -1.730571e+06   6.613221e+05
  -1.995806e+06  -6.610838e+05
  -5.113612e+05  -1.293495e+06
   1.099267e+06  -6.599469e+05
   9.955581e+05   3.953400e+05
  -7.491770e+05   7.152354e+05
  -2.309005e+06  -1.690653e+04
  -2.032770e+06  -1.254773e+06
   2.867904e+04  -2.126044e+06
   2.228428e+06  -1.880389e+06
   2.758302e+06  -4.492375e+05
   1.256437e+06   1.133769e+06
  -7.886079e+05   1.441129e+06
  -1.424840e+06   2.457927e+05
  -1.968598e+05  -9.987441e+05
   1.439791e+06  -7.841689e+05
   1.750152e+06   6.351889e+05
   5.137829e+05   1.608885e+06
  -9.540039e+05   1.122141e+06
  -1.293390e+06  -1.272066e+05
  -3.720498e+05  -7.251189e+05
   7.294356e+05  -1.159327e+05
   7.582836e+05   9.880572e+05
  -5.229592e+05   1.420035e+06
  -1.967762e+06   6.024796e+05
  -2.047666e+06  -9.544149e+05
  -4.830915e+05  -2.017487e+06
   1.305276e+06  -1.697803e+06
   1.683394e+06  -3.335414e+05
   5.811539e+05   8.152764e+05
  -5.913043e+05   8.557549e+05
  -6.794753e+05   1.000080e+05
   5.550213e+04  -4.652482e+05
   5.603283e+05  -3.330346e+05
   2.865650e+05   9.119938e+04
  -3.689927e+05   9.037649e+04
  -6.004664e+05  -5.265715e+05
   6.115491e+04  -1.169786e+06
   1.294090e+06  -9.823694e+05
   2.084281e+06   2.878477e+05
   1.545887e+06   1.845427e+06
  -9.527023e+04   2.435305e+06
  -1.548106e+06   1.557928e+06
  -1.761549e+06   1.550669e+04
  -1.007848e+06  -9.199417e+05
  -3.780065e+05  -8.030056e+05
  -3.923866e+05  -2.960145e+05
  -5.330090e+05  -2.355032e+05
  -1.168896e+05  -6.828613e+05
   7.890646e+05  -9.606024e+05
   1.444885e+06  -4.553271e+05
   1.159425e+06   6.853209e+05
  -1.239739e+05   1.555367e+06
  -1.668583e+06   1.219778e+06
  -2.297291e+06  -3.482696e+05
  -1.288074e+06  -2.014126e+06
   8.006370e+05  -2.399901e+06
   2.414676e+06  -1.216268e+06
   2.415480e+06   4.478262e+05
   1.143410e+06   1.282737e+06
  -9.290651e+04   1.059757e+06
  -4.398740e+05   6.228533e+05
  -1.769133e+05   7.355933e+05
  -1.019090e+05   1.216845e+06
  -5.759705e+05   1.251130e+06
  -1.225695e+06   3.620743e+05
  -1.363073e+06  -1.015613e+06
  -6.364783e+05  -1.861695e+06
   5.597438e+05  -1.460145e+06
   1.288752e+06  -7.913089e+04
   8.979748e+05   1.196278e+06
  -2.522313e+05   1.403669e+06
  -1.062465e+06   5.428866e+05
  -8.369064e+05  -5.318469e+05
  -1.743394e+04  -1.011523e+06
   3.897038e+05  -8.234101e+05
   2.280605e+04  -4.622108e+05
  -4.271616e+05  -3.343429e+05
  -6.576379e+04  -3.870916e+05
   1.095462e+06  -2.819148e+05
   2.017920e+06   2.027343e+05
   1.660967e+06   9.136897e+05
   1.004519e+05   1.382853e+06
  -1.446706e+06   1.195327e+06
  -1.782275e+06   4.158806e+05
  -8.813627e+05  -3.650329e+05
   1.951728e+05  -5.402290e+05
   4.855532e+05  -9.532849e+04
   2.771770e+04   3.645770e+05
  -4.541732e+05   2.622895e+05
  -4.854729e+05  -3.174940e+05
  -2.244902e+05  -7.215620e+05
  -6.035736e+04  -4.734767e+05
  -1.408613e+05   1.439057e+05
  -3.139621e+05   3.563667e+05
  -2.984542e+05  -2.106685e+05
   1.227828e+05  -1.008661e+06
   8.382413e+05  -1.094619e+06
   1.272677e+06  -2.049913e+05
   8.214099e+05   8.667630e+05
  -3.539535e+05   1.097323e+06
  -1.190884e+06   3.412828e+05
  -7.482928e+05  -5.534170e+05
   6.520724e+05  -6.937061e+05
   1.616128e+06  -1.578878e+04
   1.126955e+06   7.987151e+05
  -3.768519e+05   1.063492e+06
  -1.491908e+06   6.359211e+05
  -1.296660e+06  -8.785466e+04
  -1.896570e+05  -5.224776e+05
   6.295963e+05  -3.298257e+05
   3.801810e+05   2.549698e+05
  -5.838802e+05   5.204749e+05
  -1.177013e+06  -6.519982e+04
  -6.749742e+05  -1.165340e+06
   5.651693e+05  -1.704095e+06
   1.466290e+06  -9.172477e+05
   1.288792e+06   7.180238e+05
   2.808144e+05   1.796700e+06
  -6.823709e+05   1.362392e+06
  -9.489094e+05  -9.817069e+04
  -5.268473e+05  -1.172065e+06
   1.295599e+05  -1.012028e+06
   5.475947e+05  -1.321667e+05
   5.184488e+05   3.663144e+05
   2.062826e+05   1.445498e+05
   3.111852e+04  -1.102964e+05
   2.449663e+05   2.537690e+05
   5.394510e+05   9.323896e+05
   2.865867e+05   1.084263e+06
  -6.487304e+05   4.427208e+05
  -1.509534e+06  -3.968679e+05
  -1.365601e+06  -7.805450e+05
  -2.252795e+05  -6.836310e+05
   8.699462e+05  -4.553085e+05
   9.926391e+05  -2.428565e+05
   3.372135e+05   1.272797e+04
  -1.481624e+05   2.285589e+05
   1.236017e+04   2.306810e+05
   3.105748e+05   1.083029e+05
   4.072813e+04   1.323818e+05
  -6.952921e+05   2.484957e+05
  -1.043234e+06   2.596425e+04
  -4.067049e+05  -6.611362e+05
   8.243301e+05  -1.191706e+06
   1.637148e+06  -8.103451e+05
   1.382177e+06   3.840155e+05
   3.253940e+05   1.401157e+06
  -6.918548e+05   1.401851e+06
  -1.022799e+06   5.620464e+05
  -6.712972e+05  -2.240754e+05
  -1.343217e+05  -3.506070e+05
   9.867918e+04  -4.410539e+04
  -7.049802e+04   4.782550e+04
  -3.372642e+05  -3.443672e+05
  -3.009543e+05  -7.993760e+05
   1.544898e+05  -6.801073e+05
   6.929690e+05   1.144576e+05
   7.611838e+05   9.398936e+05
   1.257506e+05   1.019572e+06
  -7.600197e+05   2.481436e+05
  -1.056027e+06  -7.022615e+05
  -3.783605e+05  -1.070095e+06
   6.846518e+05  -6.864836e+05
   1.105611e+06   2.960787e+04
   5.443718e+05   5.627558e+05
  -2.495810e+05   6.621662e+05
  -3.339862e+05   3.820130e+05
   2.769966e+05   1.219336e+04
   6.558734e+05  -6.457832e+04
   1.516243e+05   2.944271e+05
  -7.947507e+05   7.230201e+05
  -1.211908e+06   6.258855e+05
  -7.441585e+05  -1.147021e+05
   5.658192e+04  -8.626753e+05
   4.847317e+05  -8.739085e+05
   3.865018e+05  -1.640827e+05
   5.971149e+04   4.875547e+05
  -2.224589e+05   4.307375e+05
  -3.582976e+05  -1.566521e+05
  -2.777155e+05  -5.663422e+05
   3.674569e+04  -4.056266e+05
   3.911255e+05   3.729762e+04
   4.823751e+05   2.390695e+05
   2.488442e+05   6.866180e+04
  -3.070975e+04  -1.268373e+05
  -8.916113e+04   2.739448e+03
  -8.923230e+03   3.658820e+05
  -7.127296e+04   5.189444e+05
  -3.197016e+05   1.851793e+05
  -4.392281e+05  -3.843048e+05
  -1.420936e+05  -6.396406e+05
   4.050314e+05  -3.203296e+05
   6.594834e+05   2.627172e+05
   2.674625e+05   5.705551e+05
  -4.823572e+05   3.873944e+05
  -8.707504e+05  -4.279022e+04
  -4.900624e+05  -3.547669e+05
   2.726228e+05  -3.958595e+05
   6.191919e+05  -2.366334e+05
   2.296462e+05  -2.869919e+04
  -3.682573e+05   6.166582e+04
  -4.184250e+05  -7.330711e+04
   1.785954e+05  -3.135003e+05
   7.673609e+05  -3.020978e+05
