
 $NMID
 id='ANONYMOUS ', fmtdat='(2E16.6)'
 volume=1.0
 tramp=1.0
 $END
   2.340966e+07  -1.917339e+06
   1.753645e+07   8.771309e+06
   2.351673e+06   1.491155e+07
  -9.358727e+06   1.213268e+07
  -9.513447e+06   2.787062e+06
  -1.488666e+06  -4.553328e+06
   5.167828e+06  -3.341755e+06
   4.800542e+06   3.685894e+06
  -3.883842e+05   7.672485e+06
  -4.576636e+06   3.941083e+06
  -4.341027e+06  -3.016182e+06
  -7.752942e+05  -5.409633e+06
   2.409864e+06  -1.104529e+06
   2.203163e+06   4.692468e+06
  -1.174196e+06   5.717099e+06
  -4.291376e+06   1.057547e+06
  -3.672882e+06  -4.667027e+06
   5.124591e+05  -6.378965e+06
   4.424460e+06  -3.258277e+06
   4.668086e+06   1.179808e+06
   1.906341e+06   3.118333e+06
  -2.342928e+05   2.193675e+06
   5.283908e+05   1.148351e+06
   2.666739e+06   2.158771e+06
   2.712750e+06   4.279311e+06
  -8.294247e+05   4.800923e+06
  -5.555615e+06   2.505373e+06
  -7.172589e+06  -1.062670e+06
  -3.791968e+06  -3.266303e+06
   1.679750e+06  -2.706356e+06
   4.077747e+06  -1.156452e+05
   1.365087e+06   2.291884e+06
  -3.130446e+06   2.349912e+06
  -4.557092e+06  -2.861647e+05
  -1.969656e+06  -3.426493e+06
   1.220452e+06  -4.061013e+06
   1.827276e+06  -1.501619e+06
   2.908530e+05   1.515830e+06
  -8.626219e+05   1.655739e+06
  -3.813391e+05  -1.142447e+06
   9.754976e+05  -3.451020e+06
   2.007312e+06  -2.344045e+06
   2.007504e+06   1.110408e+06
   6.879339e+05   3.076812e+06
  -1.359499e+06   1.394414e+06
  -2.239244e+06  -2.036078e+06
  -3.206560e+05  -3.500532e+06
   3.277091e+06  -1.477135e+06
   5.001555e+06   2.058891e+06
   2.620582e+06   3.955617e+06
  -1.960444e+06   2.900559e+06
  -4.542154e+06   1.949942e+05
  -3.060164e+06  -1.829579e+06
   5.249343e+05  -1.842382e+06
   2.634719e+06  -3.487394e+05
   1.706413e+06   9.969811e+05
  -6.614467e+05   9.027011e+05
  -1.698890e+06  -4.191571e+05
  -3.577614e+05  -1.488477e+06
   1.661281e+06  -1.058017e+06
   1.790790e+06   5.505087e+05
  -4.253279e+05   1.680846e+06
  -2.566703e+06   9.648230e+05
  -1.950785e+06  -1.281505e+06
   1.250157e+06  -3.224882e+06
   4.145046e+06  -3.062750e+06
   4.345093e+06  -5.924484e+05
   2.318506e+06   2.543837e+06
   2.907836e+05   4.237201e+06
  -4.534952e+05   3.767052e+06
  -5.099418e+05   2.301870e+06
  -9.999391e+05   1.402185e+06
  -2.097036e+06   1.178734e+06
  -2.985590e+06   4.024374e+05
  -2.749741e+06  -1.481908e+06
  -1.147416e+06  -3.105105e+06
   1.082672e+06  -2.567814e+06
   2.492664e+06   1.189799e+05
   1.921260e+06   2.686520e+06
  -3.539716e+05   2.907670e+06
  -2.576978e+06   8.157216e+05
  -3.006532e+06  -1.611887e+06
  -1.552995e+06  -2.611041e+06
   2.474164e+05  -2.096853e+06
   9.572844e+05  -1.210374e+06
   7.562145e+05  -9.127226e+05
   1.031929e+06  -1.131823e+06
   2.479902e+06  -1.003391e+06
   3.913139e+06   2.059767e+05
   3.339596e+06   2.256473e+06
   3.142869e+05   3.881898e+06
  -3.117477e+06   3.734536e+06
  -4.227706e+06   1.643377e+06
  -2.361077e+06  -1.004806e+06
   4.240614e+05  -2.310908e+06
   1.549827e+06  -1.521105e+06
   4.558158e+05   2.634052e+05
  -1.216791e+06   1.141132e+06
  -1.636721e+06   3.317677e+05
  -5.730605e+05  -1.003610e+06
   7.019449e+05  -1.088415e+06
   8.390115e+05   3.024460e+05
  -3.694519e+05   1.371276e+06
  -1.839870e+06   3.278390e+05
  -2.049959e+06  -2.316356e+06
  -3.218258e+05  -4.011188e+06
   2.387579e+06  -2.866744e+06
   4.053619e+06   2.942449e+05
   3.313031e+06   2.845977e+06
   8.009334e+05   3.051336e+06
  -1.378652e+06   1.507955e+06
  -1.664115e+06   9.386588e+04
  -4.826915e+05  -3.747624e+04
   3.828685e+05   7.061184e+05
  -1.994502e+05   1.140613e+06
  -1.505640e+06   5.960094e+05
  -1.846942e+06  -5.050518e+05
  -5.746080e+05  -1.134189e+06
   1.040757e+06  -6.845294e+05
   1.127490e+06   3.912680e+05
  -6.423411e+05   9.513464e+05
  -2.502037e+06   2.504557e+05
  -2.378942e+06  -1.285402e+06
  -1.225006e+05  -2.372719e+06
   2.289043e+06  -2.015805e+06
   2.776374e+06  -4.411833e+05
   1.190329e+06   1.049548e+06
  -7.340901e+05   1.242502e+06
  -1.221187e+06   1.719823e+05
  -7.248042e+04  -8.828367e+05
   1.393204e+06  -6.988901e+05
   1.723903e+06   5.760309e+05
   6.369625e+05   1.577630e+06
  -8.272162e+05   1.257704e+06
  -1.326521e+06   5.455619e+04
  -5.081653e+05  -6.552207e+05
   6.166711e+05  -1.332001e+05
   6.750012e+05   9.571939e+05
  -5.943836e+05   1.346070e+06
  -1.962180e+06   4.761992e+05
  -1.951616e+06  -1.022092e+06
  -4.213694e+05  -1.965387e+06
   1.259098e+06  -1.635343e+06
   1.637844e+06  -3.565186e+05
   6.258050e+05   7.796639e+05
  -5.629749e+05   8.762028e+05
  -7.694507e+05   7.162388e+04
  -1.410880e+04  -6.337188e+05
   7.049467e+05  -4.934391e+05
   5.645348e+05   1.516269e+05
  -2.250496e+05   3.311444e+05
  -6.709797e+05  -3.345778e+05
  -5.711122e+04  -1.120135e+06
   1.245800e+06  -9.789397e+05
   2.046275e+06   3.061178e+05
   1.467986e+06   1.846165e+06
  -1.608760e+05   2.443136e+06
  -1.598287e+06   1.634464e+06
  -1.881570e+06   7.065064e+04
  -1.174078e+06  -1.065597e+06
  -4.102662e+05  -1.110615e+06
  -2.177704e+05  -4.872528e+05
  -3.324739e+05  -1.714152e+05
  -7.374941e+04  -5.528178e+05
   7.438946e+05  -9.681102e+05
   1.482931e+06  -5.182640e+05
   1.273280e+06   7.466810e+05
  -7.227667e+04   1.702091e+06
  -1.705133e+06   1.284234e+06
  -2.336106e+06  -3.710322e+05
  -1.323220e+06  -1.998855e+06
   7.046752e+05  -2.351163e+06
   2.314338e+06  -1.255506e+06
   2.463097e+06   3.444507e+05
   1.326945e+06   1.298580e+06
  -1.702517e+03   1.243157e+06
  -5.916772e+05   7.797605e+05
  -4.409265e+05   6.965569e+05
  -2.513966e+05   1.048244e+06
  -5.594133e+05   1.110970e+06
  -1.145569e+06   2.897691e+05
  -1.285980e+06  -1.060178e+06
  -5.584844e+05  -1.874185e+06
   6.190193e+05  -1.432762e+06
   1.297992e+06  -7.488554e+04
   9.043314e+05   1.138721e+06
  -1.682546e+05   1.376472e+06
  -9.336922e+05   6.555821e+05
  -8.045263e+05  -3.314214e+05
  -1.441511e+05  -8.855039e+05
   2.184759e+05  -8.375134e+05
  -4.071574e+04  -5.374836e+05
  -3.772099e+05  -3.856318e+05
  -2.996155e+04  -4.030202e+05
   1.028424e+06  -2.759052e+05
   1.903197e+06   2.151775e+05
   1.622208e+06   8.861187e+05
   1.814093e+05   1.287432e+06
  -1.327914e+06   1.108682e+06
  -1.731480e+06   4.512283e+05
  -9.123708e+05  -2.294228e+05
   1.439942e+05  -4.580121e+05
   4.435736e+05  -1.467605e+05
  -2.967041e+04   2.665487e+05
  -5.096549e+05   2.164998e+05
  -4.527693e+05  -3.333138e+05
  -8.128491e+04  -7.543816e+05
   6.583367e+04  -4.772467e+05
  -1.598988e+05   2.194694e+05
  -4.158604e+05   4.427783e+05
  -3.126730e+05  -2.055938e+05
   2.127884e+05  -1.036703e+06
   8.599567e+05  -1.038316e+06
   1.129360e+06  -8.820011e+04
   6.490440e+05   8.880311e+05
  -3.842371e+05   9.675064e+05
  -1.110968e+06   1.878520e+05
  -7.058125e+05  -6.124135e+05
   6.399816e+05  -6.945977e+05
   1.663768e+06  -3.179664e+04
   1.257547e+06   8.022994e+05
  -2.934786e+05   1.150491e+06
  -1.543270e+06   7.563120e+05
  -1.401159e+06  -4.136213e+04
  -2.345597e+05  -5.571393e+05
   6.252714e+05  -3.676901e+05
   3.333298e+05   2.273270e+05
  -6.539133e+05   4.390406e+05
  -1.156624e+06  -1.955021e+05
  -5.206062e+05  -1.229458e+06
   7.542115e+05  -1.629245e+06
   1.558179e+06  -7.766593e+05
   1.253750e+06   8.134534e+05
   1.946256e+05   1.838501e+06
  -7.401350e+05   1.404983e+06
  -9.738548e+05  -5.918053e+04
  -5.656910e+05  -1.188657e+06
   6.832123e+04  -1.072739e+06
   5.261439e+05  -1.568884e+05
   5.807681e+05   4.068674e+05
   2.828642e+05   1.818710e+05
   4.778523e+03  -1.363466e+05
   1.211011e+05   2.038381e+05
   4.638412e+05   9.315634e+05
   3.462505e+05   1.122792e+06
  -5.557840e+05   4.430421e+05
  -1.519552e+06  -4.601506e+05
  -1.437617e+06  -8.399785e+05
  -2.125615e+05  -6.763359e+05
   9.741183e+05  -4.111235e+05
   1.039321e+06  -2.357451e+05
   2.706852e+05  -2.549384e+04
  -1.900576e+05   2.137837e+05
   9.841466e+04   2.841982e+05
   4.087106e+05   1.813552e+05
  -5.795610e+03   1.395499e+05
  -8.181803e+05   1.740586e+05
  -1.031752e+06  -5.431257e+04
  -2.237601e+05  -6.591935e+05
   9.794257e+05  -1.087218e+06
   1.605194e+06  -6.564500e+05
   1.233559e+06   5.076863e+05
   2.141073e+05   1.434724e+06
  -7.332103e+05   1.333815e+06
  -1.046759e+06   4.402057e+05
  -6.731149e+05  -3.161344e+05
  -7.198034e+04  -3.541955e+05
   1.881716e+05   2.442135e+04
  -4.170911e+04   1.149858e+05
  -3.687992e+05  -3.315133e+05
  -3.019704e+05  -8.149570e+05
   2.096304e+05  -6.491915e+05
   7.046043e+05   2.201797e+05
   6.483884e+05   1.045398e+06
  -4.004187e+04   1.011283e+06
  -8.305312e+05   1.089151e+05
  -9.819363e+05  -8.479426e+05
  -2.545444e+05  -1.082496e+06
   7.355918e+05  -5.745666e+05
   1.053024e+06   1.174874e+05
   4.584367e+05   5.231239e+05
  -2.763246e+05   5.582687e+05
  -2.731604e+05   3.442183e+05
   3.636853e+05   6.421529e+04
   6.816398e+05  -1.327544e+04
   1.048587e+05   2.843211e+05
  -8.335688e+05   6.911858e+05
  -1.170223e+06   6.282262e+05
  -6.500583e+05  -8.284490e+04
   1.110796e+05  -8.226773e+05
   4.534074e+05  -8.115081e+05
   3.045569e+05  -8.020165e+04
  -1.594969e+04   5.257232e+05
  -2.620444e+05   3.686744e+05
  -3.518694e+05  -2.562673e+05
  -2.322848e+05  -5.839740e+05
   7.958123e+04  -3.292231e+05
   3.839319e+05   9.471734e+04
   4.412401e+05   2.095996e+05
   2.449296e+05   3.263746e+04
   1.551168e+04  -6.448369e+04
  -9.110813e+04   1.278113e+05
  -1.428129e+05   4.136078e+05
  -2.574185e+05   4.216483e+05
  -3.770861e+05   1.814283e+04
  -3.065375e+05  -5.025821e+05
   3.917413e+04  -6.560070e+05
   4.632729e+05  -2.546481e+05
   5.871281e+05   3.538917e+05
   1.905171e+05   6.169020e+05
  -4.797794e+05   3.463808e+05
  -8.172554e+05  -1.300923e+05
  -4.435010e+05  -3.847555e+05
   2.943268e+05  -3.177663e+05
   6.083531e+05  -1.247275e+05
   1.669270e+05  -3.280347e+03
  -4.587206e+05  -2.824979e+04
  -4.459619e+05  -1.901282e+05
   2.714462e+05  -3.545494e+05
   9.037965e+05  -2.486837e+05
