
 $NMID
 id='ANONYMOUS ', fmtdat='(2E16.6)'
 volume=1.0
 tramp=1.0
 $END
  -6.074596e+07   4.457229e+04
  -3.613041e+07  -3.833113e+07
   8.704914e+06  -4.126622e+07
   2.995145e+07  -1.494937e+07
   1.731424e+07   8.374616e+06
  -3.977786e+06   9.941134e+06
  -1.038714e+07  -1.882308e+06
  -2.450561e+06  -1.054121e+07
   6.946943e+06  -9.459046e+06
   1.026657e+07  -1.706969e+06
   7.352394e+06   6.552505e+06
   8.881250e+05   8.962623e+06
  -4.162022e+06   3.003030e+06
  -2.719298e+06  -5.432573e+06
   4.049248e+06  -6.584604e+06
   8.313665e+06   1.647264e+06
   4.562001e+06   1.088778e+07
  -4.158977e+06   1.249424e+07
  -1.081297e+07   6.311233e+06
  -1.165069e+07  -2.078858e+06
  -7.342120e+06  -8.038370e+06
  -8.835375e+05  -9.568309e+06
   3.404802e+06  -6.764419e+06
   2.545911e+06  -2.709504e+06
  -8.718558e+05  -1.727766e+06
  -4.985933e+05  -4.001748e+06
   5.235390e+06  -4.709307e+06
   9.909344e+06  -8.579987e+05
   7.507497e+06   4.132904e+06
   6.156224e+05   5.381494e+06
  -3.582684e+06   2.993366e+06
  -2.642248e+06   4.215090e+05
   1.453799e+05  -7.276323e+05
   1.864057e+06  -6.726945e+05
   2.240411e+06   1.045917e+06
   1.059749e+06   3.852783e+06
  -1.736695e+06   4.202679e+06
  -3.680856e+06   1.452226e+05
  -2.136888e+06  -3.904221e+06
   8.354977e+05  -2.404760e+06
   6.027008e+05   2.261634e+06
  -2.458945e+06   2.288287e+06
  -2.498692e+06  -3.453215e+06
   2.848440e+06  -6.528617e+06
   7.729685e+06  -9.671007e+05
   5.543216e+06   7.573408e+06
  -2.186270e+06   9.207738e+06
  -7.958813e+06   2.585195e+06
  -7.187384e+06  -4.695794e+06
  -1.745714e+06  -6.240159e+06
   3.630564e+06  -2.666263e+06
   5.294145e+06   1.723142e+06
   2.310136e+06   3.665338e+06
  -2.661777e+06   2.230863e+06
  -4.761557e+06  -1.077587e+06
  -1.975285e+06  -2.935353e+06
   1.849614e+06  -1.435545e+06
   1.726554e+06   1.088293e+06
  -1.556322e+06   8.122741e+05
  -2.565198e+06  -2.157409e+06
   9.795155e+05  -3.837745e+06
   5.211148e+06  -1.926206e+06
   5.654578e+06   1.667945e+06
   2.364956e+06   4.323464e+06
  -1.816565e+06   5.531825e+06
  -5.025860e+06   5.115107e+06
  -6.387892e+06   1.970471e+06
  -4.915332e+06  -3.171792e+06
  -1.097983e+06  -6.387583e+06
   2.009903e+06  -4.872530e+06
   1.913980e+06  -1.039794e+06
   1.392304e+04   5.045426e+05
  -3.865901e+05  -9.567032e+05
   1.350225e+06  -2.027697e+06
   2.804871e+06  -5.536791e+05
   2.187022e+06   1.700290e+06
   2.391616e+05   2.066209e+06
  -1.386876e+06   2.881398e+05
  -1.657196e+06  -1.930448e+06
  -1.011071e+05  -2.911965e+06
   2.751737e+06  -1.807665e+06
   4.675506e+06   1.061967e+06
   3.491461e+06   3.871907e+06
   3.357190e+04   4.522966e+06
  -2.440465e+06   2.946177e+06
  -2.432623e+06   1.175883e+06
  -1.930449e+06   6.187075e+05
  -2.977714e+06   4.219849e+05
  -4.383179e+06  -7.950740e+05
  -3.507441e+06  -2.783877e+06
  -1.462684e+05  -4.129949e+06
   3.149643e+06  -3.934553e+06
   4.110479e+06  -2.235199e+06
   2.696173e+06   2.905916e+05
   4.188145e+05   2.209367e+06
  -9.974717e+05   2.007223e+06
  -5.804452e+05   8.333050e+03
   1.045363e+06  -1.343898e+06
   1.936397e+06  -4.278160e+05
   9.873679e+05   1.223749e+06
  -4.704427e+05   1.119676e+06
  -3.600042e+05  -3.939230e+05
   1.164414e+06  -5.848022e+05
   1.848217e+06   1.532310e+06
   4.316086e+05   3.641489e+06
  -1.863234e+06   3.285391e+06
  -3.219069e+06   8.327621e+05
  -3.162680e+06  -1.589034e+06
  -2.110541e+06  -2.692774e+06
  -4.224429e+05  -2.508733e+06
   1.192707e+06  -1.463108e+06
   1.552880e+06  -2.689269e+05
   4.927666e+05   4.179364e+04
  -3.600560e+05  -7.534726e+05
   4.379832e+05  -1.374918e+06
   1.966815e+06  -5.904511e+05
   2.066548e+06   9.343638e+05
   3.613452e+05   1.458215e+06
  -1.185993e+06   5.592714e+05
  -8.459547e+05  -4.556722e+05
   8.766743e+05  -4.452022e+05
   2.111795e+06   4.016239e+05
   1.631702e+06   1.343007e+06
  -2.950006e+05   1.887748e+06
  -2.284120e+06   1.603125e+06
  -2.759360e+06   2.692695e+05
  -1.229706e+06  -1.289873e+06
   9.375084e+05  -1.554794e+06
   1.617724e+06  -2.064181e+05
   2.349067e+05   1.114082e+06
  -1.529044e+06   7.571359e+05
  -1.719266e+06  -8.022618e+05
  -2.938170e+05  -1.657365e+06
   1.129692e+06  -9.279039e+05
   1.241058e+06   3.710370e+05
   1.996562e+05   8.008086e+05
  -8.297999e+05   4.595833e+04
  -7.581480e+05  -1.063333e+06
   5.561965e+05  -1.443684e+06
   2.007545e+06  -5.767131e+05
   2.059746e+06   1.032023e+06
   3.969181e+05   2.088253e+06
  -1.456459e+06   1.654826e+06
  -1.737429e+06   1.970994e+05
  -4.840692e+05  -8.792833e+05
   6.684542e+05  -7.929212e+05
   6.040284e+05  -8.450787e+04
  -1.397951e+05   3.051951e+05
  -4.433684e+05   1.571410e+05
  -3.449822e+04  -4.371458e+04
   4.899914e+05   1.559179e+05
   4.898443e+05   7.322043e+05
  -2.480354e+05   1.197945e+06
  -1.397083e+06   8.895631e+05
  -2.087871e+06  -4.135220e+05
  -1.481396e+06  -1.943388e+06
   2.012293e+05  -2.412704e+06
   1.597869e+06  -1.380545e+06
   1.645780e+06   1.469248e+05
   8.011313e+05   8.481152e+05
   3.076197e+05   5.524521e+05
   5.330380e+05   1.608865e+05
   6.877555e+05   3.367731e+05
   1.008834e+05   8.045412e+05
  -8.910746e+05   8.929097e+05
  -1.432291e+06   2.993918e+05
  -1.008272e+06  -7.025624e+05
   2.690987e+05  -1.406877e+06
   1.707851e+06  -1.043887e+06
   2.228101e+06   4.808696e+05
   1.112979e+06   2.102273e+06
  -1.045512e+06   2.371261e+06
  -2.570818e+06   1.007422e+06
  -2.326053e+06  -6.975023e+05
  -8.899442e+05  -1.330780e+06
   2.359190e+05  -8.819398e+05
   3.386082e+05  -4.584415e+05
  -5.331466e+03  -7.665837e+05
   5.955278e+04  -1.359637e+06
   6.786763e+05  -1.328864e+06
   1.317885e+06  -3.374773e+05
   1.357447e+06   1.066705e+06
   5.768297e+05   1.887547e+06
  -6.042429e+05   1.441685e+06
  -1.279142e+06  -3.912022e+03
  -8.039986e+05  -1.300924e+06
   4.210658e+05  -1.399257e+06
   1.201650e+06  -3.627420e+05
   8.153829e+05   7.639699e+05
  -1.688964e+05   1.112379e+06
  -5.934792e+05   7.719075e+05
  -1.060825e+05   3.889905e+05
   4.487296e+05   3.192894e+05
   7.107569e+04   3.775388e+05
  -1.168547e+06   2.078820e+05
  -2.095240e+06  -3.335419e+05
  -1.623018e+06  -1.047528e+06
   6.955022e+04  -1.462061e+06
   1.628668e+06  -1.161584e+06
   1.844104e+06  -2.598794e+05
   8.181928e+05   5.404175e+05
  -2.799610e+05   5.941433e+05
  -5.240597e+05   1.442951e+04
  -4.825695e+04  -4.542626e+05
   4.236644e+05  -2.735133e+05
   4.914168e+05   3.367754e+05
   3.021516e+05   7.117081e+05
   1.393850e+05   4.782142e+05
   1.297217e+05  -6.780938e+04
   2.423697e+05  -2.615764e+05
   2.689780e+05   2.341194e+05
  -1.107735e+05   9.746408e+05
  -8.918804e+05   1.081934e+06
  -1.411497e+06   2.127716e+05
  -9.108743e+05  -9.078185e+05
   4.063924e+05  -1.183270e+06
   1.286007e+06  -3.897785e+05
   7.473920e+05   5.516294e+05
  -7.065254e+05   6.447395e+05
  -1.566496e+06  -1.056067e+05
  -9.522566e+05  -8.616177e+05
   5.163712e+05  -9.519078e+05
   1.476294e+06  -4.280384e+05
   1.189632e+06   2.110606e+05
   1.154939e+05   4.998456e+05
  -6.503574e+05   2.520266e+05
  -4.006919e+05  -3.057551e+05
   5.583072e+05  -5.532152e+05
   1.190734e+06   3.078902e+04
   7.316848e+05   1.156203e+06
  -5.149429e+05   1.732551e+06
  -1.447215e+06   9.417918e+05
  -1.269448e+06  -7.194625e+05
  -2.357076e+05  -1.774285e+06
   7.182359e+05  -1.274672e+06
   9.134143e+05   1.950707e+05
   4.112723e+05   1.185043e+06
  -2.482042e+05   9.411885e+05
  -5.710894e+05   7.136561e+04
  -4.379644e+05  -3.605692e+05
  -1.298507e+05  -1.208269e+05
  -6.021698e+04   8.347979e+04
  -3.329324e+05  -3.191829e+05
  -5.401448e+05  -9.685378e+05
  -1.613816e+05  -1.061074e+06
   7.570474e+05  -3.915841e+05
   1.469392e+06   4.407496e+05
   1.245416e+06   8.130561e+05
   1.885152e+05   7.025056e+05
  -8.070178e+05   4.382518e+05
  -9.632690e+05   1.829802e+05
  -3.912184e+05  -7.260330e+04
   1.266928e+05  -2.326522e+05
   7.636835e+04  -1.790391e+05
  -2.187557e+05  -5.950558e+04
  -7.264654e+04  -1.303281e+05
   6.041326e+05  -2.717302e+05
   1.053630e+06  -2.526061e+04
   5.206960e+05   6.962397e+05
  -7.695342e+05   1.229645e+06
  -1.719538e+06   8.291591e+05
  -1.486182e+06  -3.744538e+05
  -3.284148e+05  -1.392162e+06
   7.504001e+05  -1.409595e+06
   1.040633e+06  -5.980866e+05
   6.555082e+05   1.872964e+05
   1.647863e+05   3.577306e+05
  -2.585999e+04   1.019598e+05
   9.528787e+04   1.780882e+04
   2.836883e+05   3.750762e+05
   2.451649e+05   8.016285e+05
  -1.525827e+05   6.960091e+05
  -6.765955e+05  -6.702141e+04
  -7.983005e+05  -8.992810e+05
  -2.016914e+05  -1.038565e+06
   7.179485e+05  -3.216362e+05
   1.075760e+06   6.457049e+05
   4.135397e+05   1.085660e+06
  -6.885584e+05   7.376384e+05
  -1.148600e+06  -2.975984e+04
  -5.768769e+05  -6.359230e+05
   2.749403e+05  -7.344314e+05
   4.133989e+05  -3.874276e+05
  -2.013096e+05   1.928237e+04
  -6.368348e+05   6.618160e+04
  -1.714909e+05  -3.145223e+05
   8.070598e+05  -6.955089e+05
   1.284555e+06  -5.364525e+05
   8.137566e+05   1.973334e+05
  -6.873822e+04   8.924237e+05
  -5.721733e+05   8.898993e+05
  -4.720627e+05   2.066133e+05
  -9.490033e+04  -4.594375e+05
   2.188989e+05  -4.700707e+05
   3.566402e+05   9.284060e+04
   2.787959e+05   5.690579e+05
  -3.026682e+04   4.704696e+05
  -3.958641e+05  -1.339760e+04
  -4.984074e+05  -2.984973e+05
  -2.445420e+05  -1.170709e+05
   5.942199e+04   1.854507e+05
   8.075225e+04   1.132444e+05
  -8.662791e+04  -3.282684e+05
  -5.276091e+04  -6.066364e+05
   2.887093e+05  -3.125310e+05
   5.338058e+05   3.148200e+05
   2.583704e+05   6.409025e+05
  -3.767924e+05   3.520137e+05
  -7.066130e+05  -2.295613e+05
  -2.974683e+05  -5.488908e+05
   5.104864e+05  -3.886370e+05
   9.148734e+05   2.747498e+04
   5.060201e+05   3.620958e+05
  -2.828839e+05   4.452080e+05
  -6.473054e+05   2.914785e+05
  -2.869874e+05   3.217052e+04
   2.954819e+05  -1.202690e+05
   3.931145e+05  -3.042020e+03
  -1.150052e+05   2.684541e+05
  -6.665236e+05   3.026640e+05
