
 $NMID
 id='ANONYMOUS ', fmtdat='(2E16.6)'
 volume=1.0
 tramp=1.0
 $END
   3.883187e+07  -2.938954e+05
   2.388014e+07   2.316886e+07
  -4.298912e+06   2.613317e+07
  -1.869202e+07   1.102436e+07
  -1.176504e+07  -3.955329e+06
   1.840406e+06  -6.533767e+06
   6.939154e+06   2.493193e+05
   2.476068e+06   6.673939e+06
  -3.933368e+06   7.019096e+06
  -6.736420e+06   1.856171e+06
  -5.043233e+06  -4.340094e+06
  -6.333456e+05  -6.211330e+06
   2.866641e+06  -1.888520e+06
   1.988452e+06   4.122007e+06
  -2.532238e+06   4.973808e+06
  -5.582638e+06  -6.724922e+05
  -3.344883e+06  -7.098740e+06
   2.441368e+06  -8.359116e+06
   6.998677e+06  -4.198023e+06
   7.480372e+06   1.460554e+06
   4.440102e+06   5.161385e+06
   4.009166e+05   5.749860e+06
  -1.740691e+06   3.965690e+06
  -7.511421e+05   2.015474e+06
   1.112200e+06   2.002634e+06
   3.820844e+04   3.349442e+06
  -4.229199e+06   3.141888e+06
  -7.147426e+06   1.573388e+05
  -4.995076e+06  -3.079617e+06
   9.571058e+04  -3.585576e+06
   2.952652e+06  -1.633361e+06
   1.761475e+06   3.405804e+05
  -8.575607e+05   9.533335e+05
  -2.128251e+06   2.695502e+05
  -1.681998e+06  -1.420610e+06
  -2.524164e+05  -3.086355e+06
   1.406154e+06  -2.644999e+06
   2.068948e+06   2.972236e+05
   9.402067e+05   2.529953e+06
  -5.450018e+05   1.028332e+06
  -6.863620e+04  -2.070838e+06
   1.845840e+06  -1.805666e+06
   1.842025e+06   2.167032e+06
  -1.408499e+06   4.309806e+06
  -4.553016e+06   8.512605e+05
  -3.547827e+06  -4.642999e+06
   1.142796e+06  -5.871854e+06
   5.148581e+06  -1.742420e+06
   5.121695e+06   3.097499e+06
   1.562555e+06   4.383136e+06
  -2.476341e+06   2.146656e+06
  -3.993703e+06  -9.223527e+05
  -1.992239e+06  -2.463962e+06
   1.591449e+06  -1.660092e+06
   3.239216e+06   5.218792e+05
   1.484579e+06   1.854951e+06
  -1.176098e+06   9.972307e+05
  -1.352446e+06  -7.067767e+05
   7.697289e+05  -8.065731e+05
   1.807098e+06   9.291909e+05
  -1.036082e+05   2.234537e+06
  -2.955018e+06   1.451922e+06
  -3.711751e+06  -6.939179e+05
  -1.753209e+06  -2.682532e+06
   1.319534e+06  -3.793218e+06
   3.774176e+06  -3.506862e+06
   4.547975e+06  -1.187147e+06
   3.227241e+06   2.368338e+06
   6.386517e+05   4.518872e+06
  -1.232484e+06   3.570713e+06
  -1.181575e+06   1.123877e+06
  -2.590694e+05   6.192820e+04
  -3.091177e+05   7.981033e+05
  -1.469533e+06   1.185353e+06
  -2.192671e+06  -7.851074e+04
  -1.453193e+06  -1.693874e+06
   1.505289e+05  -1.747678e+06
   1.364406e+06  -1.128178e+05
   1.355565e+06   1.720669e+06
  -5.062404e+04   2.295392e+06
  -2.135643e+06   1.167082e+06
  -3.272276e+06  -9.944012e+05
  -2.263152e+06  -2.760433e+06
   5.898689e+04  -2.975666e+06
   1.573888e+06  -1.892995e+06
   1.516759e+06  -8.566615e+05
   1.310957e+06  -6.056746e+05
   2.234380e+06  -4.579919e+05
   3.342317e+06   5.101347e+05
   2.711478e+06   2.090632e+06
   1.304252e+05   3.200694e+06
  -2.502891e+06   3.035571e+06
  -3.284313e+06   1.591544e+06
  -2.040242e+06  -4.198551e+05
  -1.094613e+05  -1.766672e+06
   9.328640e+05  -1.455835e+06
   4.263263e+05   6.292363e+04
  -8.746551e+05   1.003291e+06
  -1.457404e+06   3.030707e+05
  -6.712169e+05  -9.163335e+05
   4.350726e+05  -8.717920e+05
   3.991029e+05   2.934422e+05
  -7.328484e+05   6.503195e+05
  -1.456543e+06  -7.670289e+05
  -7.190422e+05  -2.561884e+06
   9.624785e+05  -2.769793e+06
   2.354061e+06  -1.137277e+06
   2.710211e+06   9.637259e+05
   1.940707e+06   2.183254e+06
   4.062243e+05   2.117363e+06
  -9.967208e+05   1.156706e+06
  -1.253608e+06   1.585400e+05
  -3.862074e+05  -3.516866e+04
   2.850289e+05   5.855732e+05
  -2.951714e+05   1.026279e+06
  -1.443516e+06   4.568902e+05
  -1.573531e+06  -6.449842e+05
  -3.294990e+05  -1.075273e+06
   9.048456e+05  -4.650222e+05
   7.337806e+05   3.509156e+05
  -6.402476e+05   4.704122e+05
  -1.762791e+06  -1.737936e+05
  -1.461682e+06  -1.060707e+06
   1.459777e+05  -1.608607e+06
   1.816742e+06  -1.350845e+06
   2.184645e+06  -2.361096e+05
   9.536895e+05   9.672539e+05
  -6.988044e+05   1.145728e+06
  -1.181096e+06   1.459697e+05
  -1.396505e+05  -8.234453e+05
   1.178245e+06  -5.739642e+05
   1.353956e+06   5.892901e+05
   3.052102e+05   1.292391e+06
  -8.256159e+05   8.071185e+05
  -1.000254e+06  -1.974857e+05
  -2.285268e+05  -5.994403e+05
   6.035075e+05  -5.330794e+04
   5.715276e+05   8.177371e+05
  -4.572805e+05   1.111548e+06
  -1.576506e+06   4.175018e+05
  -1.592341e+06  -8.251217e+05
  -3.060476e+05  -1.620829e+06
   1.112130e+06  -1.292692e+06
   1.349117e+06  -1.835300e+05
   4.114535e+05   6.736222e+05
  -5.074602e+05   6.423426e+05
  -5.176465e+05   5.871431e+04
   7.645743e+04  -3.209910e+05
   4.166088e+05  -2.018221e+05
   1.558116e+05   6.391654e+04
  -3.235559e+05  -5.936389e+03
  -4.280744e+05  -4.849718e+05
   1.287764e+05  -9.263876e+05
   1.072016e+06  -7.153808e+05
   1.635409e+06   3.137691e+05
   1.153452e+06   1.519750e+06
  -1.651619e+05   1.910466e+06
  -1.271738e+06   1.140986e+06
  -1.356718e+06  -7.502730e+04
  -7.165819e+05  -7.298900e+05
  -2.611413e+05  -5.750404e+05
  -3.407764e+05  -2.085752e+05
  -4.545867e+05  -2.280294e+05
  -6.894424e+04  -5.739509e+05
   6.736657e+05  -7.178822e+05
   1.145900e+06  -2.798841e+05
   8.555028e+05   5.734258e+05
  -1.752892e+05   1.181693e+06
  -1.355419e+06   8.711724e+05
  -1.782194e+06  -3.680819e+05
  -9.163333e+05  -1.642379e+06
   7.574683e+05  -1.861399e+06
   1.974275e+06  -8.400072e+05
   1.866534e+06   4.803962e+05
   8.004946e+05   1.050689e+06
  -1.367692e+05   7.840156e+05
  -3.338696e+05   4.367030e+05
  -1.095662e+05   5.855019e+05
  -1.012365e+05   9.955217e+05
  -5.141322e+05   9.916542e+05
  -9.999683e+05   2.468603e+05
  -1.046798e+06  -8.488947e+05
  -4.382937e+05  -1.490144e+06
   4.900109e+05  -1.131529e+06
   1.014519e+06  -7.585475e+03
   6.512812e+05   9.929382e+05
  -2.796970e+05   1.097312e+06
  -8.868566e+05   3.513168e+05
  -6.381080e+05  -5.025766e+05
   6.295460e+04  -8.230166e+05
   3.822020e+05  -6.233098e+05
   5.122528e+04  -3.433885e+05
  -3.341623e+05  -2.708194e+05
  -4.337052e+04  -3.044365e+05
   8.897320e+05  -1.736470e+05
   1.605045e+06   2.472257e+05
   1.274600e+06   7.980537e+05
  -2.314737e+03   1.112066e+06
  -1.219278e+06   8.945956e+05
  -1.430629e+06   2.402285e+05
  -6.668409e+05  -3.564273e+05
   1.909372e+05  -4.344976e+05
   3.947299e+05  -4.067253e+04
   1.699836e+04   3.125359e+05
  -3.569264e+05   1.986327e+05
  -3.761665e+05  -2.680266e+05
  -1.794900e+05  -5.729586e+05
  -5.666003e+04  -3.770072e+05
  -1.110303e+05   8.954650e+04
  -2.363884e+05   2.481657e+05
  -2.215103e+05  -1.798200e+05
   1.192114e+05  -7.830491e+05
   7.030288e+05  -8.374116e+05
   1.045712e+06  -1.295816e+05
   6.489153e+05   7.162699e+05
  -3.220290e+05   8.785097e+05
  -9.736524e+05   2.506267e+05
  -5.756862e+05  -4.549743e+05
   5.459053e+05  -5.166802e+05
   1.260126e+06   6.072334e+04
   8.207390e+05   6.734954e+05
  -3.604630e+05   7.975631e+05
  -1.186106e+06   4.078642e+05
  -9.900861e+05  -1.341481e+05
  -1.166211e+05  -4.098998e+05
   5.094321e+05  -2.229933e+05
   2.981546e+05   2.244233e+05
  -4.670500e+05   4.044602e+05
  -9.303067e+05  -7.229827e+04
  -5.177672e+05  -9.341306e+05
   4.758729e+05  -1.337391e+06
   1.174683e+06  -6.926771e+05
   9.927414e+05   5.991656e+05
   1.638172e+05   1.417350e+06
  -5.813888e+05   1.032947e+06
  -7.350840e+05  -1.271397e+05
  -3.544215e+05  -9.396980e+05
   1.588726e+05  -7.742641e+05
   4.406441e+05  -7.366992e+04
   3.779059e+05   2.995585e+05
   1.387589e+05   1.119588e+05
   3.481102e+04  -7.871129e+04
   2.094616e+05   2.247785e+05
   4.013936e+05   7.585291e+05
   1.651760e+05   8.545751e+05
  -5.511503e+05   3.176702e+05
  -1.168897e+06  -3.626414e+05
  -1.024334e+06  -6.575845e+05
  -1.501142e+05  -5.494135e+05
   6.805414e+05  -3.329689e+05
   7.803208e+05  -1.504869e+05
   2.793286e+05   3.527763e+04
  -1.169290e+05   1.778238e+05
  -1.930277e+04   1.674453e+05
   2.180261e+05   7.922302e+04
   3.723598e+04   1.051616e+05
  -5.303999e+05   1.853985e+05
  -8.259265e+05  -6.410749e+03
  -3.339091e+05  -5.422956e+05
   6.660635e+05  -9.293873e+05
   1.333725e+06  -6.013274e+05
   1.107946e+06   3.366409e+05
   2.217421e+05   1.110694e+06
  -5.970029e+05   1.089034e+06
  -8.259066e+05   4.264514e+05
  -5.196932e+05  -1.837691e+05
  -1.049990e+05  -2.820507e+05
   6.008797e+04  -4.852418e+04
  -6.269669e+04   1.806229e+04
  -2.424330e+05  -2.877060e+05
  -2.019728e+05  -6.378439e+05
   1.387388e+05  -5.365329e+05
   5.395550e+05   9.498357e+04
   5.866155e+05   7.499530e+05
   9.331585e+04   8.130301e+05
  -5.951430e+05   1.964537e+05
  -8.206876e+05  -5.657044e+05
  -2.802871e+05  -8.579477e+05
   5.589574e+05  -5.374473e+05
   8.824520e+05   5.207101e+04
   4.226893e+05   4.775012e+05
  -2.212660e+05   5.347086e+05
  -2.943115e+05   2.931990e+05
   1.982614e+05   7.413841e+03
   5.137085e+05  -3.481146e+04
   1.171170e+05   2.416274e+05
  -6.480327e+05   5.423352e+05
  -9.899015e+05   4.378771e+05
  -6.015088e+05  -1.322881e+05
   7.016803e+04  -6.865806e+05
   4.280367e+05  -6.799841e+05
   3.323037e+05  -1.299082e+05
   4.437837e+04   3.788402e+05
  -1.858951e+05   3.445053e+05
  -2.788047e+05  -1.155792e+05
  -2.047885e+05  -4.543631e+05
   3.831959e+04  -3.363022e+05
   3.089806e+05   3.302600e+04
   3.778652e+05   2.168553e+05
   1.927652e+05   7.338291e+04
  -2.799094e+04  -1.167773e+05
  -6.680164e+04  -3.103125e+04
   9.629767e+03   2.792861e+05
  -3.724357e+04   4.322287e+05
  -2.499658e+05   1.722837e+05
  -3.626212e+05  -2.967040e+05
  -1.268136e+05  -5.096289e+05
   3.203364e+05  -2.510356e+05
   5.262596e+05   2.156364e+05
   2.045964e+05   4.512265e+05
  -3.977364e+05   2.931504e+05
  -6.974306e+05  -5.234030e+04
  -3.815417e+05  -2.943447e+05
   2.283338e+05  -3.182640e+05
   5.023889e+05  -1.851723e+05
   1.972046e+05  -1.705743e+04
  -2.731134e+05   5.576954e+04
  -3.221614e+05  -4.772562e+04
   1.312582e+05  -2.313158e+05
   5.857683e+05  -2.199630e+05
