
 $NMID
 id='ANONYMOUS ', fmtdat='(2E16.6)'
 volume=1.0
 tramp=1.0
 $END
  -3.867018e+07   3.563290e+05
  -2.437274e+07  -2.178558e+07
   3.143828e+06  -2.566808e+07
   1.810845e+07  -1.235536e+07
   1.231260e+07   2.519212e+06
  -1.134789e+06   6.632470e+06
  -7.148842e+06   7.155334e+05
  -3.359731e+06  -6.529278e+06
   3.363935e+06  -7.932391e+06
   6.843252e+06  -2.610863e+06
   5.365093e+06   4.481376e+06
   7.007613e+05   6.682014e+06
  -3.080294e+06   1.850063e+06
  -2.264100e+06  -4.764625e+06
   2.435206e+06  -5.721870e+06
   5.805306e+06   2.900624e+05
   3.743913e+06   7.201346e+06
  -2.227720e+06   8.680702e+06
  -7.072677e+06   4.318518e+06
  -7.488308e+06  -1.628623e+06
  -4.137691e+06  -5.208799e+06
  -1.731798e+05  -5.367128e+06
   1.335445e+06  -3.542167e+06
  -1.598295e+05  -2.230083e+06
  -1.732169e+06  -2.881131e+06
   2.091727e+05  -4.169177e+06
   5.125404e+06  -3.307518e+06
   7.984328e+06   2.224152e+05
   5.193825e+06   3.529294e+06
  -6.049667e+05   3.757540e+06
  -3.650306e+06   1.373794e+06
  -1.872650e+06  -9.686055e+05
   1.607355e+06  -1.502266e+06
   3.094137e+06  -1.616351e+05
   1.979763e+06   2.177525e+06
  -1.552341e+05   3.747493e+06
  -1.722225e+06   2.607030e+06
  -1.797658e+06  -7.283907e+05
  -4.892514e+05  -2.592347e+06
   5.972251e+05  -5.006243e+05
  -2.212967e+05   2.727849e+06
  -2.104430e+06   2.160742e+06
  -2.071751e+06  -2.109526e+06
   9.933281e+05  -4.395767e+06
   4.125415e+06  -1.034050e+06
   3.499615e+06   4.440977e+06
  -9.097648e+05   5.810362e+06
  -5.194535e+06   1.804864e+06
  -5.633567e+06  -3.172670e+06
  -2.020207e+06  -4.746463e+06
   2.605545e+06  -2.590557e+06
   4.585795e+06   7.116254e+05
   2.509400e+06   2.551826e+06
  -1.464219e+06   1.877826e+06
  -3.412751e+06  -3.514353e+05
  -1.695505e+06  -1.817902e+06
   1.164662e+06  -1.068697e+06
   1.599778e+06   7.044213e+05
  -5.189402e+05   1.077752e+06
  -1.933955e+06  -4.615498e+05
  -4.048211e+05  -1.962892e+06
   2.549699e+06  -1.629168e+06
   3.766422e+06   3.224577e+05
   1.973798e+06   2.581010e+06
  -1.478715e+06   4.047174e+06
  -4.337551e+06   3.757768e+06
  -5.019277e+06   1.117990e+06
  -3.314908e+06  -2.720257e+06
  -5.791788e+05  -4.957138e+06
   1.160026e+06  -4.014776e+06
   1.106751e+06  -1.581175e+06
   4.869380e+05  -4.727448e+05
   8.688788e+05  -1.025465e+06
   2.100185e+06  -1.104016e+06
   2.625680e+06   5.038397e+05
   1.540142e+06   2.313630e+06
  -4.388062e+05   2.200598e+06
  -1.855221e+06   6.736066e+04
  -1.681108e+06  -2.198633e+06
   1.488220e+05  -2.740175e+06
   2.519358e+06  -1.191009e+06
   3.568830e+06   1.311017e+06
   2.292973e+06   3.052830e+06
  -1.512013e+05   3.056872e+06
  -1.591900e+06   1.888350e+06
  -1.468876e+06   9.499768e+05
  -1.372750e+06   8.174233e+05
  -2.553869e+06   6.616009e+05
  -3.881278e+06  -4.884138e+05
  -3.194285e+06  -2.381865e+06
  -1.919112e+05  -3.761618e+06
   2.973462e+06  -3.580464e+06
   3.942111e+06  -1.783211e+06
   2.372558e+06   6.458856e+05
  -3.650248e+04   2.135743e+06
  -1.227261e+06   1.644491e+06
  -4.862809e+05  -1.307386e+05
   1.077691e+06  -1.158056e+06
   1.676628e+06  -3.408640e+05
   7.149256e+05   1.051031e+06
  -5.642707e+05   1.036386e+06
  -5.724585e+05  -3.244737e+05
   7.012106e+05  -9.266278e+05
   1.713205e+06   5.336695e+05
   1.174201e+06   2.763482e+06
  -6.899742e+05   3.424113e+06
  -2.610594e+06   1.762522e+06
  -3.397105e+06  -8.706847e+05
  -2.562425e+06  -2.615704e+06
  -5.708259e+05  -2.628370e+06
   1.223230e+06  -1.391346e+06
   1.518457e+06  -1.567308e+05
   4.582783e+05   4.056037e+04
  -3.447908e+05  -6.873749e+05
   3.041817e+05  -1.173090e+06
   1.625645e+06  -5.427387e+05
   1.826738e+06   6.811663e+05
   4.342952e+05   1.212487e+06
  -1.046281e+06   5.796472e+05
  -9.314655e+05  -4.002126e+05
   7.083773e+05  -6.614804e+05
   2.172302e+06   6.713213e+04
   1.894634e+06   1.240986e+06
  -8.072089e+04   2.010706e+06
  -2.158851e+06   1.696690e+06
  -2.604548e+06   3.201474e+05
  -1.127434e+06  -1.102780e+06
   7.931553e+05  -1.300831e+06
   1.327226e+06  -1.643852e+05
   1.322519e+05   9.359969e+05
  -1.376156e+06   6.726380e+05
  -1.612834e+06  -6.538801e+05
  -4.348001e+05  -1.519419e+06
   9.171052e+05  -1.026829e+06
   1.204755e+06   1.459910e+05
   3.345539e+05   6.806525e+05
  -6.744814e+05   7.984840e+04
  -6.641609e+05  -9.526918e+05
   5.519149e+05  -1.305747e+06
   1.869805e+06  -4.790935e+05
   1.876767e+06   9.798822e+05
   3.709349e+05   1.905759e+06
  -1.283320e+06   1.536118e+06
  -1.585469e+06   2.522406e+05
  -5.192992e+05  -7.801810e+05
   5.811045e+05  -7.821502e+05
   6.505778e+05  -7.038978e+04
  -5.522808e+04   4.473996e+05
  -5.450697e+05   3.125963e+05
  -2.946325e+05  -9.141234e+04
   3.259238e+05  -8.907415e+04
   5.428331e+05   4.943767e+05
  -9.101001e+04   1.084646e+06
  -1.244536e+06   8.704797e+05
  -1.939584e+06  -3.499676e+05
  -1.373079e+06  -1.789579e+06
   1.851756e+05  -2.282694e+06
   1.510775e+06  -1.413451e+06
   1.662332e+06   4.020385e+04
   9.335824e+05   9.085453e+05
   3.396410e+05   7.972199e+05
   3.461890e+05   3.181803e+05
   4.677947e+05   2.416741e+05
   7.439664e+04   6.330110e+05
  -7.709687e+05   8.699712e+05
  -1.372758e+06   3.802375e+05
  -1.074621e+06  -6.879124e+05
   1.636186e+05  -1.466068e+06
   1.610409e+06  -1.088996e+06
   2.144966e+06   4.122102e+05
   1.136118e+06   1.932120e+06
  -8.305433e+05   2.211218e+06
  -2.296218e+06   1.051618e+06
  -2.248790e+06  -4.960065e+05
  -1.044165e+06  -1.239031e+06
   1.097605e+05  -1.005178e+06
   4.447870e+05  -5.893057e+05
   2.212050e+05  -6.890185e+05
   1.617694e+05  -1.125533e+06
   5.894460e+05  -1.136880e+06
   1.156792e+06  -2.840495e+05
   1.234233e+06   1.009445e+06
   5.208573e+05   1.772575e+06
  -5.851878e+05   1.347608e+06
  -1.211851e+06   2.698283e+04
  -7.961953e+05  -1.147993e+06
   2.803810e+05  -1.300440e+06
   9.982563e+05  -4.764459e+05
   7.538096e+05   5.100352e+05
  -1.275453e+04   9.309585e+05
  -3.773675e+05   7.522259e+05
  -2.882178e+04   4.377611e+05
   3.848688e+05   3.366153e+05
   4.404860e+04   3.684192e+05
  -1.030700e+06   2.204411e+05
  -1.872574e+06  -2.703512e+05
  -1.518069e+06  -9.161534e+05
  -4.800735e+04  -1.286635e+06
   1.390983e+06  -1.053640e+06
   1.679276e+06  -3.261906e+05
   8.106704e+05   3.592393e+05
  -2.008384e+05   4.887494e+05
  -4.523635e+05   7.502874e+04
  -2.565120e+03  -3.352108e+05
   4.433098e+05  -2.267168e+05
   4.408232e+05   3.186297e+05
   1.703523e+05   6.939195e+05
   2.635002e+04   4.514998e+05
   1.365077e+05  -1.380777e+05
   3.143833e+05  -3.350222e+05
   2.726810e+05   2.076291e+05
  -1.609257e+05   9.471426e+05
  -8.304794e+05   9.896881e+05
  -1.189978e+06   1.272593e+05
  -7.208763e+05  -8.516826e+05
   3.804805e+05  -1.003222e+06
   1.126738e+06  -2.569724e+05
   6.790451e+05   5.541840e+05
  -6.356237e+05   6.259442e+05
  -1.519960e+06  -4.125440e+04
  -1.040544e+06  -7.855735e+05
   3.805793e+05  -9.887484e+05
   1.422513e+06  -5.555322e+05
   1.221082e+06   1.212034e+05
   1.645565e+05   4.985088e+05
  -6.002072e+05   2.898078e+05
  -3.410077e+05  -2.517859e+05
   5.767513e+05  -4.606445e+05
   1.103796e+06   1.185977e+05
   5.764412e+05   1.129843e+06
  -6.149323e+05   1.576426e+06
  -1.423399e+06   7.950802e+05
  -1.181979e+06  -7.318009e+05
  -1.898790e+05  -1.702409e+06
   6.940988e+05  -1.258687e+06
   8.868503e+05   1.219619e+05
   4.553205e+05   1.118126e+06
  -1.498682e+05   9.475055e+05
  -5.147756e+05   1.053432e+05
  -4.804412e+05  -3.640527e+05
  -1.974288e+05  -1.437396e+05
  -2.942930e+04   1.039601e+05
  -2.054466e+05  -2.466223e+05
  -4.635824e+05  -8.967007e+05
  -2.366094e+05  -1.028460e+06
   6.147036e+05  -3.874827e+05
   1.404022e+06   4.336451e+05
   1.261209e+06   7.851741e+05
   1.843210e+05   6.488861e+05
  -8.448439e+05   3.943864e+05
  -9.445170e+05   1.922339e+05
  -3.072002e+05  -2.310575e+04
   1.521926e+05  -2.090518e+05
  -1.410960e+04  -2.188753e+05
  -3.000736e+05  -1.165485e+05
  -2.866935e+04  -1.280644e+05
   6.765384e+05  -2.044876e+05
   9.807703e+05   2.278729e+04
   3.378815e+05   6.417956e+05
  -8.367371e+05   1.082185e+06
  -1.567288e+06   6.821749e+05
  -1.271081e+06  -4.296330e+05
  -2.432495e+05  -1.333334e+06
   7.071581e+05  -1.283099e+06
   9.867153e+05  -4.774247e+05
   6.247385e+05   2.441813e+05
   1.066313e+05   3.363395e+05
  -1.061028e+05   3.416108e+04
   6.216193e+04  -4.799970e+04
   3.061509e+05   3.325621e+05
   2.534392e+05   7.617988e+05
  -1.766392e+05   6.307681e+05
  -6.506938e+05  -1.431510e+05
  -6.715394e+05  -9.243457e+05
  -6.296872e+04  -9.661432e+05
   7.344404e+05  -1.931390e+05
   9.622926e+05   7.151699e+05
   3.029715e+05   1.023280e+06
  -6.768311e+05   6.087358e+05
  -1.033309e+06  -7.968615e+04
  -4.789760e+05  -5.468391e+05
   2.652606e+05  -6.016969e+05
   3.222191e+05  -3.393607e+05
  -2.703747e+05  -2.355376e+04
  -6.218997e+05   3.206031e+04
  -1.260109e+05  -2.824328e+05
   7.768570e+05  -6.467802e+05
   1.154585e+06  -5.406872e+05
   6.823167e+05   1.353841e+05
  -9.199819e+04   8.046409e+05
  -4.857980e+05   7.936167e+05
  -3.632460e+05   1.275530e+05
  -3.172183e+04  -4.662496e+05
   2.310148e+05  -3.907228e+05
   3.334602e+05   1.706327e+05
   2.354781e+05   5.447500e+05
  -5.689733e+04   3.726805e+05
  -3.668326e+05  -5.556537e+04
  -4.379316e+05  -2.404259e+05
  -2.288890e+05  -6.995520e+04
   1.681224e+04   1.154013e+05
   7.882635e+04  -1.232919e+04
   3.374955e+04  -3.529860e+05
   1.091036e+05  -4.812766e+05
   3.192024e+05  -1.468550e+05
   3.886346e+05   3.940124e+05
   9.153704e+04   6.138368e+05
  -4.001477e+05   2.808976e+05
  -6.046764e+05  -2.829173e+05
  -2.235827e+05  -5.525552e+05
   4.677856e+05  -3.409963e+05
   8.125912e+05   8.335251e+04
   4.427028e+05   3.555423e+05
  -2.754836e+05   3.538391e+05
  -5.925169e+05   1.870531e+05
  -2.109050e+05   1.329226e+04
   3.604249e+05  -3.866208e+04
   3.971231e+05   9.503806e+04
  -1.868453e+05   2.953110e+05
  -7.466823e+05   2.549741e+05
