
 $NMID
 id='ANONYMOUS ', fmtdat='(2E16.6)'
 volume=1.0
 tramp=1.0
 $END
   4.590296e+07   7.628398e+04
   2.819433e+07   2.689269e+07
  -4.772668e+06   3.054854e+07
  -2.183498e+07   1.355080e+07
  -1.408670e+07  -3.964481e+06
   1.857819e+06  -7.717762e+06
   8.270401e+06  -1.819077e+05
   3.344237e+06   7.792103e+06
  -4.356580e+06   8.746927e+06
  -8.007878e+06   2.553638e+06
  -6.110126e+06  -5.259646e+06
  -7.425617e+05  -7.624568e+06
   3.544253e+06  -2.188674e+06
   2.508223e+06   5.258883e+06
  -2.949650e+06   6.283413e+06
  -6.702871e+06  -6.263793e+05
  -4.114835e+06  -8.472465e+06
   2.837616e+06  -1.003494e+07
   8.362641e+06  -4.963500e+06
   8.853063e+06   1.908809e+06
   5.027277e+06   6.209431e+06
   2.494526e+05   6.609396e+06
  -1.907049e+06   4.400843e+06
  -3.743854e+05   2.428687e+06
   1.717221e+06   2.838330e+06
  -7.231494e+04   4.456004e+06
  -5.547471e+06   3.835243e+06
  -8.976036e+06  -5.421779e+04
  -6.024468e+06  -3.953139e+06
   4.412143e+05  -4.383423e+06
   3.940867e+06  -1.799883e+06
   2.193807e+06   7.789178e+05
  -1.416114e+06   1.489653e+06
  -3.083203e+06   3.048603e+05
  -2.198624e+06  -2.108946e+06
  -7.732337e+04  -4.060214e+06
   1.877166e+06  -3.113284e+06
   2.319284e+06   6.443383e+05
   8.280567e+05   3.076716e+06
  -7.270452e+05   9.139603e+05
   5.931619e+04  -2.850789e+06
   2.326849e+06  -2.339629e+06
   2.281188e+06   2.539013e+06
  -1.476468e+06   5.108382e+06
  -5.146334e+06   1.028583e+06
  -4.107908e+06  -5.430955e+06
   1.291650e+06  -6.892782e+06
   6.141078e+06  -2.045486e+06
   6.331035e+06   3.732792e+06
   2.089181e+06   5.383230e+06
  -3.000378e+06   2.775821e+06
  -5.042198e+06  -9.761160e+05
  -2.628534e+06  -2.953141e+06
   1.821021e+06  -2.059614e+06
   3.917635e+06   5.497539e+05
   1.849706e+06   2.179625e+06
  -1.396735e+06   1.206267e+06
  -1.733317e+06  -8.352785e+05
   7.614811e+05  -1.082450e+06
   2.167910e+06   8.479466e+05
   1.188561e+05   2.455520e+06
  -3.273769e+06   1.757666e+06
  -4.390856e+06  -6.484505e+05
  -2.163773e+06  -3.122111e+06
   1.675481e+06  -4.632898e+06
   4.809255e+06  -4.294944e+06
   5.672152e+06  -1.350450e+06
   3.870539e+06   3.034956e+06
   7.020576e+05   5.612134e+06
  -1.426947e+06   4.460014e+06
  -1.333447e+06   1.569712e+06
  -4.028605e+05   3.209066e+05
  -6.754570e+05   1.115545e+06
  -2.121431e+06   1.390521e+06
  -2.877347e+06  -3.284795e+05
  -1.797478e+06  -2.372279e+06
   3.317451e+05  -2.349196e+06
   1.902970e+06  -1.267083e+05
   1.806759e+06   2.304705e+06
  -1.112180e+05   2.979887e+06
  -2.761178e+06   1.398852e+06
  -4.056370e+06  -1.374488e+06
  -2.686377e+06  -3.458846e+06
   1.503719e+05  -3.575088e+06
   1.894468e+06  -2.221797e+06
   1.769695e+06  -1.047128e+06
   1.578020e+06  -8.286703e+05
   2.818964e+06  -6.583989e+05
   4.259324e+06   5.879918e+05
   3.485313e+06   2.636332e+06
   1.953467e+05   4.108617e+06
  -3.226633e+06   3.914117e+06
  -4.269311e+06   2.005865e+06
  -2.618197e+06  -6.264244e+05
  -5.267998e+04  -2.316112e+06
   1.277037e+06  -1.841754e+06
   5.436672e+05   1.160619e+05
  -1.153676e+06   1.282266e+06
  -1.853664e+06   3.783064e+05
  -8.184376e+05  -1.168354e+06
   5.898235e+05  -1.130470e+06
   5.721551e+05   3.594050e+05
  -8.385272e+05   9.192357e+05
  -1.848445e+06  -7.723949e+05
  -1.098464e+06  -3.124274e+06
   9.678421e+05  -3.623478e+06
   2.901388e+06  -1.696807e+06
   3.583483e+06   1.067528e+06
   2.660014e+06   2.808343e+06
   5.890547e+05   2.791919e+06
  -1.304931e+06   1.509109e+06
  -1.637276e+06   1.914016e+05
  -4.979918e+05  -4.401639e+04
   3.728566e+05   7.514381e+05
  -3.562687e+05   1.297937e+06
  -1.814129e+06   5.871124e+05
  -2.004530e+06  -7.857476e+05
  -4.467901e+05  -1.350277e+06
   1.152116e+06  -6.170438e+05
   9.838880e+05   4.392115e+05
  -7.883523e+05   6.667664e+05
  -2.313453e+06  -1.328807e+05
  -1.981312e+06  -1.343865e+06
   1.237610e+05  -2.129435e+06
   2.337311e+06  -1.802711e+06
   2.823893e+06  -3.333902e+05
   1.227031e+06   1.221791e+06
  -8.842748e+05   1.444517e+06
  -1.483135e+06   1.796126e+05
  -1.594199e+05  -1.042916e+06
   1.509061e+06  -7.375340e+05
   1.750144e+06   7.320922e+05
   4.367658e+05   1.655360e+06
  -1.024775e+06   1.078807e+06
  -1.296668e+06  -2.022647e+05
  -3.299358e+05  -7.533544e+05
   7.560961e+05  -7.810339e+04
   7.329203e+05   1.045688e+06
  -5.927477e+05   1.431085e+06
  -2.035292e+06   5.351652e+05
  -2.051343e+06  -1.062232e+06
  -4.023922e+05  -2.081469e+06
   1.412083e+06  -1.670028e+06
   1.729893e+06  -2.576250e+05
   5.480628e+05   8.568328e+05
  -6.417772e+05   8.406928e+05
  -6.900895e+05   7.885856e+04
   7.271110e+04  -4.521302e+05
   5.620798e+05  -3.085583e+05
   2.666546e+05   8.320306e+04
  -3.768051e+05   4.539562e+04
  -5.685190e+05  -5.746366e+05
   1.281942e+05  -1.183188e+06
   1.363893e+06  -9.375158e+05
   2.110076e+06   3.871514e+05
   1.495066e+06   1.950249e+06
  -2.009469e+05   2.474628e+06
  -1.635783e+06   1.509901e+06
  -1.777743e+06  -6.214564e+04
  -9.763439e+05  -9.587040e+05
  -3.624950e+05  -8.046508e+05
  -4.116474e+05  -3.119197e+05
  -5.447711e+05  -2.804285e+05
  -8.397351e+04  -7.126629e+05
   8.486740e+05  -9.367981e+05
   1.481352e+06  -3.941222e+05
   1.140447e+06   7.363872e+05
  -1.921268e+05   1.558864e+06
  -1.743671e+06   1.160882e+06
  -2.317245e+06  -4.533220e+05
  -1.214731e+06  -2.104946e+06
   9.333737e+05  -2.402505e+06
   2.516401e+06  -1.118254e+06
   2.425460e+06   5.708971e+05
   1.089361e+06   1.343986e+06
  -1.397170e+05   1.051939e+06
  -4.529465e+05   6.083604e+05
  -1.923257e+05   7.585344e+05
  -1.554930e+05   1.255917e+06
  -6.518553e+05   1.257210e+06
  -1.273721e+06   3.143513e+05
  -1.349216e+06  -1.094746e+06
  -5.705141e+05  -1.924991e+06
   6.315334e+05  -1.465147e+06
   1.313436e+06  -2.324071e+04
   8.551545e+05   1.261407e+06
  -3.287279e+05   1.413228e+06
  -1.109413e+06   4.867904e+05
  -8.180657e+05  -5.976840e+05
   4.617661e+04  -1.032749e+06
   4.473316e+05  -8.085385e+05
   4.534707e+04  -4.588266e+05
  -4.261080e+05  -3.575444e+05
  -5.323333e+04  -3.968900e+05
   1.132262e+06  -2.336207e+05
   2.052552e+06   3.026600e+05
   1.649066e+06   1.008389e+06
   2.746048e+04   1.414070e+06
  -1.539910e+06   1.150666e+06
  -1.833281e+06   3.362963e+05
  -8.692659e+05  -4.209161e+05
   2.319314e+05  -5.444776e+05
   4.985076e+05  -6.808922e+04
   1.078703e+04   3.833516e+05
  -4.715002e+05   2.528098e+05
  -4.826584e+05  -3.453876e+05
  -2.094972e+05  -7.489444e+05
  -5.090560e+04  -4.909495e+05
  -1.436306e+05   1.343427e+05
  -3.212787e+05   3.465553e+05
  -2.921333e+05  -2.267534e+05
   1.608855e+05  -1.022047e+06
   9.024613e+05  -1.080929e+06
   1.321653e+06  -1.530515e+05
   8.118429e+05   9.260112e+05
  -4.140775e+05   1.112311e+06
  -1.241511e+06   3.016519e+05
  -7.425472e+05  -5.938237e+05
   6.953143e+05  -6.748274e+05
   1.638556e+06   5.589185e+04
   1.098345e+06   8.551851e+05
  -4.334727e+05   1.051693e+06
  -1.534096e+06   5.714852e+05
  -1.302546e+06  -1.459554e+05
  -1.673091e+05  -5.342087e+05
   6.532495e+05  -3.034667e+05
   3.775929e+05   2.813709e+05
  -6.156137e+05   5.137937e+05
  -1.202795e+06  -1.093660e+05
  -6.503929e+05  -1.218466e+06
   6.397510e+05  -1.723944e+06
   1.532292e+06  -8.832679e+05
   1.286027e+06   7.821863e+05
   2.137994e+05   1.840516e+06
  -7.479975e+05   1.353702e+06
  -9.558362e+05  -1.446049e+05
  -4.802711e+05  -1.211658e+06
   1.790997e+05  -1.014373e+06
   5.630062e+05  -1.064339e+05
   5.075424e+05   3.887509e+05
   1.988706e+05   1.487458e+05
   3.746949e+04  -1.070400e+05
   2.453546e+05   2.802807e+05
   5.127080e+05   9.766685e+05
   2.394201e+05   1.108704e+06
  -6.874712e+05   4.155072e+05
  -1.519399e+06  -4.658259e+05
  -1.350166e+06  -8.461563e+05
  -1.987445e+05  -7.064249e+05
   8.985880e+05  -4.330840e+05
   1.016495e+06  -2.052309e+05
   3.456985e+05   3.519301e+04
  -1.583194e+05   2.292974e+05
  -2.275928e+03   2.256194e+05
   3.066054e+05   1.122526e+05
   3.990489e+04   1.383323e+05
  -7.117142e+05   2.344904e+05
  -1.067249e+06  -1.449477e+04
  -3.990619e+05  -7.009686e+05
   8.846204e+05  -1.191894e+06
   1.712392e+06  -7.610627e+05
   1.407333e+06   4.507625e+05
   2.787738e+05   1.442503e+06
  -7.669491e+05   1.401908e+06
  -1.069894e+06   5.369101e+05
  -6.773491e+05  -2.500724e+05
  -1.263187e+05  -3.656453e+05
   9.850419e+04  -5.128490e+04
  -7.246879e+04   3.809085e+04
  -3.239195e+05  -3.645923e+05
  -2.707267e+05  -8.248822e+05
   1.847932e+05  -6.902802e+05
   7.043592e+05   1.379370e+05
   7.469832e+05   9.873348e+05
   9.537521e+04   1.052321e+06
  -7.857699e+05   2.337171e+05
  -1.056326e+06  -7.535041e+05
  -3.474572e+05  -1.110887e+06
   7.290111e+05  -6.792806e+05
   1.132010e+06   7.553734e+04
   5.330816e+05   6.048361e+05
  -2.871288e+05   6.722155e+05
  -3.640416e+05   3.731517e+05
   2.765646e+05   1.571064e+04
   6.703153e+05  -4.180539e+04
   1.442050e+05   3.096336e+05
  -8.391490e+05   7.039862e+05
  -1.263768e+06   5.789446e+05
  -7.575350e+05  -1.582854e+05
   9.417864e+04  -8.809359e+05
   5.384817e+05  -8.700287e+05
   4.119905e+05  -1.518248e+05
   4.720490e+04   4.993488e+05
  -2.457432e+05   4.352947e+05
  -3.632839e+05  -1.673645e+05
  -2.615618e+05  -5.893498e+05
   5.635868e+04  -4.195934e+05
   3.997957e+05   5.113533e+04
   4.814280e+05   2.696880e+05
   2.481627e+05   8.435287e+04
  -2.592679e+04  -1.382295e+05
  -8.356580e+04  -1.176317e+04
  -1.155489e+04   3.750486e+05
  -8.560430e+04   5.430872e+05
  -3.379293e+05   1.911961e+05
  -4.470618e+05  -4.079900e+05
  -1.318311e+05  -6.654893e+05
   4.249762e+05  -3.161738e+05
   6.698035e+05   2.932101e+05
   2.552545e+05   5.924806e+05
  -5.103796e+05   3.753492e+05
  -8.927237e+05  -7.844772e+04
  -4.878140e+05  -3.828912e+05
   2.976181e+05  -3.979838e+05
   6.474377e+05  -2.214503e+05
   2.415206e+05  -1.736692e+04
  -3.745948e+05   5.880050e+04
  -4.263457e+05  -8.200140e+04
   1.855521e+05  -3.124179e+05
   7.852222e+05  -2.846430e+05
