
 $NMID
 id='ANONYMOUS ', fmtdat='(2E16.6)'
 volume=1.0
 tramp=1.0
 $END
  -4.451856e+07  -2.047363e+06
  -2.600409e+07  -2.719184e+07
   5.980913e+06  -2.925232e+07
   2.154325e+07  -1.215383e+07
   1.328901e+07   4.335131e+06
  -2.093312e+06   7.303096e+06
  -7.877465e+06  -1.204393e+05
  -2.907770e+06  -7.555101e+06
   4.438384e+06  -8.224767e+06
   7.758398e+06  -2.169969e+06
   5.738201e+06   5.309904e+06
   4.802214e+05   7.427786e+06
  -3.538267e+06   2.014344e+06
  -2.318788e+06  -5.167326e+06
   3.006365e+06  -5.964343e+06
   6.420063e+06   8.519708e+05
   3.654555e+06   8.336556e+06
  -3.130081e+06   9.591640e+06
  -8.314404e+06   4.476199e+06
  -8.541548e+06  -2.231312e+06
  -4.620281e+06  -6.290302e+06
   1.009780e+05  -6.457465e+06
   2.098510e+06  -4.123642e+06
   4.227846e+05  -2.204952e+06
  -1.688109e+06  -2.743194e+06
   1.354914e+05  -4.368176e+06
   5.528701e+06  -3.626768e+06
   8.774780e+06   3.043739e+05
   5.753311e+06   4.060489e+06
  -5.861386e+05   4.314650e+06
  -3.943190e+06   1.688755e+06
  -2.194107e+06  -8.352920e+05
   1.359240e+06  -1.508825e+06
   3.034310e+06  -3.148512e+05
   2.169504e+06   2.105763e+06
   3.180263e+03   4.020913e+06
  -1.965515e+06   2.994733e+06
  -2.291420e+06  -7.698678e+05
  -6.798239e+05  -3.091565e+06
   8.270170e+05  -8.573228e+05
  -7.947419e+04   2.817082e+06
  -2.306109e+06   2.216212e+06
  -2.101796e+06  -2.522561e+06
   1.628632e+06  -4.828047e+06
   5.001045e+06  -7.146226e+05
   3.720968e+06   5.446264e+06
  -1.553510e+06   6.592082e+06
  -6.034800e+06   1.729989e+06
  -6.000238e+06  -3.811219e+06
  -1.860823e+06  -5.244560e+06
   2.959379e+06  -2.593082e+06
   4.825321e+06   1.063753e+06
   2.449769e+06   2.896832e+06
  -1.813047e+06   1.906786e+06
  -3.752621e+06  -6.660970e+05
  -1.703675e+06  -2.157526e+06
   1.391213e+06  -1.111332e+06
   1.650492e+06   8.430670e+05
  -7.353584e+05   9.823237e+05
  -1.995189e+06  -8.858744e+05
   2.221698e+04  -2.301374e+06
   3.216275e+06  -1.504253e+06
   4.176103e+06   8.021304e+05
   1.954073e+06   3.086054e+06
  -1.787551e+06   4.453632e+06
  -4.820760e+06   4.054875e+06
  -5.580126e+06   1.141227e+06
  -3.683550e+06  -3.101563e+06
  -5.116271e+05  -5.492037e+06
   1.502891e+06  -4.264176e+06
   1.289810e+06  -1.463889e+06
   3.471019e+05  -3.363918e+05
   6.769770e+05  -1.142233e+06
   2.137516e+06  -1.353939e+06
   2.848003e+06   3.791406e+05
   1.741413e+06   2.370889e+06
  -3.522846e+05   2.315515e+06
  -1.863469e+06   1.200109e+05
  -1.734669e+06  -2.265959e+06
   1.643841e+05  -2.907291e+06
   2.738891e+06  -1.301370e+06
   3.931566e+06   1.463324e+06
   2.506811e+06   3.470559e+06
  -2.865550e+05   3.479599e+06
  -1.935359e+06   2.078812e+06
  -1.748447e+06   9.343682e+05
  -1.535035e+06   7.486758e+05
  -2.735436e+06   5.703087e+05
  -4.111046e+06  -6.687282e+05
  -3.321207e+06  -2.635487e+06
  -1.028968e+05  -3.992065e+06
   3.218640e+06  -3.740259e+06
   4.206499e+06  -1.870218e+06
   2.553513e+06   6.687072e+05
   9.296261e+03   2.276461e+06
  -1.290373e+06   1.782657e+06
  -5.337886e+05  -1.250127e+05
   1.150639e+06  -1.228437e+06
   1.810011e+06  -3.247795e+05
   7.670365e+05   1.161744e+06
  -5.934603e+05   1.094790e+06
  -5.455622e+05  -3.440296e+05
   8.073936e+05  -8.530887e+05
   1.724767e+06   7.851321e+05
   9.693818e+05   3.008969e+06
  -9.865817e+05   3.439955e+06
  -2.792450e+06   1.570832e+06
  -3.426749e+06  -1.079936e+06
  -2.538181e+06  -2.746602e+06
  -5.349215e+05  -2.714988e+06
   1.297183e+06  -1.447641e+06
   1.601132e+06  -1.582159e+05
   4.836477e+05   5.244416e+04
  -3.462869e+05  -7.360604e+05
   3.773540e+05  -1.246329e+06
   1.772622e+06  -5.222246e+05
   1.919608e+06   8.065839e+05
   4.000553e+05   1.312264e+06
  -1.125353e+06   5.727243e+05
  -9.441562e+05  -4.360787e+05
   7.642940e+05  -6.240461e+05
   2.226164e+06   1.633952e+05
   1.897729e+06   1.322630e+06
  -1.471249e+05   2.054903e+06
  -2.294359e+06   1.707294e+06
  -2.746302e+06   2.707391e+05
  -1.162793e+06  -1.211448e+06
   8.952690e+05  -1.380834e+06
   1.445226e+06  -1.353946e+05
   1.285021e+05   1.020190e+06
  -1.481488e+06   6.835834e+05
  -1.679901e+06  -7.440986e+05
  -3.914157e+05  -1.606306e+06
   1.005301e+06  -1.020322e+06
   1.242921e+06   2.172592e+05
   3.026032e+05   7.273166e+05
  -7.317448e+05   5.372866e+04
  -6.867624e+05  -1.032649e+06
   6.079155e+05  -1.378995e+06
   1.991403e+06  -4.778547e+05
   1.972354e+06   1.075814e+06
   3.472118e+05   2.029926e+06
  -1.404818e+06   1.590389e+06
  -1.681698e+06   2.153881e+05
  -5.144143e+05  -8.377915e+05
   6.358987e+05  -8.013891e+05
   6.716390e+05  -6.935209e+04
  -6.971519e+04   4.318740e+05
  -5.417122e+05   2.956820e+05
  -2.599077e+05  -7.038466e+04
   3.532847e+05  -2.808089e+04
   5.294200e+05   5.652681e+05
  -1.508767e+05   1.138852e+06
  -1.342091e+06   8.797213e+05
  -2.040289e+06  -4.193392e+05
  -1.412096e+06  -1.925630e+06
   2.423940e+05  -2.400808e+06
   1.611573e+06  -1.436763e+06
   1.721012e+06   8.719424e+04
   9.385405e+05   9.399151e+05
   3.548192e+05   7.871653e+05
   4.041719e+05   3.218558e+05
   5.185991e+05   2.949166e+05
   5.923472e+04   6.961327e+05
  -8.422910e+05   8.899805e+05
  -1.442409e+06   3.548476e+05
  -1.095974e+06  -7.316943e+05
   2.090920e+05  -1.506511e+06
   1.711425e+06  -1.093921e+06
   2.240605e+06   4.832791e+05
   1.136313e+06   2.063295e+06
  -9.546789e+05   2.306203e+06
  -2.459898e+06   1.030147e+06
  -2.335808e+06  -5.973115e+05
  -1.032412e+06  -1.313752e+06
   1.447072e+05  -1.012805e+06
   4.424034e+05  -5.908071e+05
   2.042833e+05  -7.476805e+05
   1.853449e+05  -1.223877e+06
   6.647629e+05  -1.205785e+06
   1.245695e+06  -2.754292e+05
   1.290056e+06   1.092692e+06
   5.167576e+05   1.882884e+06
  -6.425151e+05   1.412391e+06
  -1.274456e+06  -2.239279e+03
  -8.014937e+05  -1.239468e+06
   3.475967e+05  -1.359338e+06
   1.078355e+06  -4.432107e+05
   7.697065e+05   5.971727e+05
  -7.218779e+04   9.929183e+05
  -4.482898e+05   7.651077e+05
  -4.791327e+04   4.405343e+05
   4.096181e+05   3.587283e+05
   4.462910e+04   3.887128e+05
  -1.103570e+06   2.003758e+05
  -1.985938e+06  -3.410267e+05
  -1.578179e+06  -1.012637e+06
   6.609402e+03  -1.366671e+06
   1.521028e+06  -1.078611e+06
   1.782416e+06  -2.879042e+05
   8.267380e+05   4.226717e+05
  -2.405713e+05   5.203974e+05
  -4.818063e+05   5.385648e+04
   3.188635e+03  -3.759421e+05
   4.656589e+05  -2.399298e+05
   4.628637e+05   3.465931e+05
   1.905649e+05   7.399762e+05
   3.991383e+04   4.851927e+05
   1.376514e+05  -1.289210e+05
   3.135250e+05  -3.360124e+05
   2.783426e+05   2.255660e+05
  -1.752111e+05   9.943081e+05
  -9.005772e+05   1.031748e+06
  -1.292019e+06   1.128975e+05
  -7.702367e+05  -9.251296e+05
   4.316778e+05  -1.072520e+06
   1.219851e+06  -2.631041e+05
   7.125876e+05   5.934058e+05
  -6.876519e+05   6.406482e+05
  -1.587988e+06  -8.293851e+04
  -1.049666e+06  -8.430764e+05
   4.354827e+05  -1.007180e+06
   1.492210e+06  -5.281677e+05
   1.258175e+06   1.603531e+05
   1.542125e+05   5.187637e+05
  -6.370328e+05   2.815037e+05
  -3.587714e+05  -2.829805e+05
   6.124057e+05  -4.904133e+05
   1.172620e+06   1.310916e+05
   6.109034e+05   1.204427e+06
  -6.591445e+05   1.671784e+06
  -1.512757e+06   8.328093e+05
  -1.238596e+06  -7.861546e+05
  -1.742838e+05  -1.795396e+06
   7.494206e+05  -1.302610e+06
   9.221041e+05   1.572431e+05
   4.434166e+05   1.182376e+06
  -1.895663e+05   9.766332e+05
  -5.465462e+05   9.077923e+04
  -4.873428e+05  -3.831611e+05
  -1.924308e+05  -1.432889e+05
  -3.661288e+04   1.015676e+05
  -2.290523e+05  -2.843425e+05
  -4.782334e+05  -9.620689e+05
  -2.134813e+05  -1.076387e+06
   6.746519e+05  -3.838916e+05
   1.469045e+06   4.807842e+05
   1.297411e+06   8.426441e+05
   1.785533e+05   6.900833e+05
  -8.832902e+05   4.092904e+05
  -9.907069e+05   1.823022e+05
  -3.321559e+05  -4.503207e+04
   1.589468e+05  -2.220879e+05
   2.937148e+03  -2.136599e+05
  -2.999581e+05  -1.089197e+05
  -3.613585e+04  -1.379008e+05
   7.000460e+05  -2.211531e+05
   1.040017e+06   3.575045e+04
   3.729454e+05   6.993392e+05
  -8.882179e+05   1.148721e+06
  -1.685662e+06   7.027648e+05
  -1.364120e+06  -4.743423e+05
  -2.443175e+05  -1.412031e+06
   7.757971e+05  -1.347557e+06
   1.056188e+06  -5.011457e+05
   6.579403e+05   2.559695e+05
   1.153484e+05   3.610695e+05
  -1.011279e+05   5.326982e+04
   6.674182e+04  -3.384544e+04
   3.063218e+05   3.579666e+05
   2.475117e+05   8.052960e+05
  -1.946639e+05   6.692975e+05
  -6.871660e+05  -1.469760e+05
  -7.118834e+05  -9.795518e+05
  -7.131093e+04  -1.033153e+06
   7.757656e+05  -2.157292e+05
   1.019288e+06   7.564576e+05
   3.160595e+05   1.092369e+06
  -7.276920e+05   6.478342e+05
  -1.102180e+06  -9.887172e+04
  -5.025596e+05  -6.025171e+05
   2.983726e+05  -6.478910e+05
   3.626022e+05  -3.508004e+05
  -2.716537e+05  -1.515748e+04
  -6.544879e+05   2.900282e+04
  -1.331359e+05  -3.061979e+05
   8.298182e+05  -6.690890e+05
   1.236950e+06  -5.345049e+05
   7.296130e+05   1.741394e+05
  -1.110580e+05   8.561729e+05
  -5.431704e+05   8.314760e+05
  -4.078408e+05   1.338697e+05
  -3.838159e+04  -4.903021e+05
   2.509459e+05  -4.199230e+05
   3.555638e+05   1.700690e+05
   2.433322e+05   5.797699e+05
  -6.778817e+04   4.085302e+05
  -3.904892e+05  -5.791943e+04
  -4.598450e+05  -2.734826e+05
  -2.368411e+05  -8.681117e+04
   1.836611e+04   1.373798e+05
   7.286761e+04   1.262014e+04
   1.572563e+04  -3.722462e+05
   1.001715e+05  -5.368638e+05
   3.423227e+05  -1.822572e+05
   4.330713e+05   4.131835e+05
   1.156308e+05   6.597843e+05
  -4.227618e+05   3.020516e+05
  -6.497625e+05  -3.023057e+05
  -2.388726e+05  -5.847660e+05
   5.050545e+05  -3.539485e+05
   8.699562e+05   9.705240e+04
   4.676082e+05   3.839294e+05
  -3.014259e+05   3.815253e+05
  -6.394623e+05   2.013988e+05
  -2.361784e+05   8.168785e+03
   3.703803e+05  -5.538034e+04
   4.195090e+05   8.623413e+04
  -1.835867e+05   3.054626e+05
  -7.709341e+05   2.695285e+05
