
 $NMID
 id='ANONYMOUS ', fmtdat='(2E16.6)'
 volume=1.0
 tramp=1.0
 $END
   4.932701e+07  -1.033707e+06
   3.028976e+07   2.920649e+07
  -5.385903e+06   3.308412e+07
  -2.335522e+07   1.384257e+07
  -1.450067e+07  -5.044439e+06
   2.412851e+06  -8.115318e+06
   8.551473e+06   4.181933e+05
   2.987738e+06   8.277235e+06
  -4.827092e+06   8.613026e+06
  -8.319449e+06   2.293617e+06
  -6.404979e+06  -5.315781e+06
  -9.802149e+05  -7.721153e+06
   3.561871e+06  -2.475415e+06
   2.660418e+06   4.994622e+06
  -2.987383e+06   6.154515e+06
  -6.952737e+06  -7.948926e+05
  -4.302139e+06  -8.819379e+06
   2.902211e+06  -1.050994e+07
   8.727572e+06  -5.443430e+06
   9.536632e+06   1.657031e+06
   5.810628e+06   6.510294e+06
   5.826722e+05   7.425918e+06
  -2.332014e+06   5.061874e+06
  -1.080714e+06   2.289915e+06
   1.515543e+06   2.152729e+06
   3.679731e+05   4.113218e+06
  -5.059419e+06   4.239171e+06
  -8.957790e+06   6.079872e+05
  -6.437780e+06  -3.678054e+06
  -7.961946e+04  -4.629970e+06
   3.628371e+06  -2.335387e+06
   2.363058e+06   2.360183e+05
  -7.639025e+05   1.268172e+06
  -2.480665e+06   6.350326e+05
  -2.254412e+06  -1.499925e+06
  -6.296520e+05  -3.820301e+06
   1.654886e+06  -3.450120e+06
   2.781079e+06   2.993488e+05
   1.354265e+06   3.282710e+06
  -7.857640e+05   1.457678e+06
  -3.513274e+05  -2.533890e+06
   2.156855e+06  -2.300597e+06
   2.297932e+06   2.679226e+06
  -1.800169e+06   5.383328e+06
  -5.833695e+06   1.018613e+06
  -4.559164e+06  -5.900856e+06
   1.413288e+06  -7.449937e+06
   6.483805e+06  -2.308718e+06
   6.458651e+06   3.701013e+06
   2.038039e+06   5.338952e+06
  -2.973323e+06   2.684672e+06
  -4.889141e+06  -1.017940e+06
  -2.449670e+06  -2.944785e+06
   1.989027e+06  -2.036953e+06
   4.037488e+06   6.213541e+05
   1.837793e+06   2.291878e+06
  -1.474682e+06   1.259546e+06
  -1.660763e+06  -8.221214e+05
   9.750595e+05  -9.081792e+05
   2.169800e+06   1.244367e+06
  -2.930273e+05   2.795822e+06
  -3.790583e+06   1.760826e+06
  -4.620215e+06  -8.910303e+05
  -2.196214e+06  -3.342691e+06
   1.493102e+06  -4.810575e+06
   4.510657e+06  -4.593385e+06
   5.642027e+06  -1.725326e+06
   4.199752e+06   2.831464e+06
   1.010190e+06   5.620927e+06
  -1.411523e+06   4.416060e+06
  -1.379731e+06   1.306386e+06
  -1.581892e+05   3.407917e+04
  -1.770859e+05   1.104194e+06
  -1.711712e+06   1.710623e+06
  -2.785774e+06   1.484330e+05
  -1.998836e+06  -1.955455e+06
  -9.987095e+03  -2.177739e+06
   1.624431e+06  -2.871945e+05
   1.780566e+06   1.972150e+06
   1.000953e+05   2.827539e+06
  -2.590851e+06   1.600680e+06
  -4.169731e+06  -1.053661e+06
  -2.982276e+06  -3.376263e+06
  -2.505544e+04  -3.773313e+06
   1.951160e+06  -2.435984e+06
   1.891091e+06  -1.083662e+06
   1.584070e+06  -7.590699e+05
   2.701620e+06  -6.531786e+05
   4.115951e+06   4.566384e+05
   3.431905e+06   2.412815e+06
   3.442473e+05   3.908797e+06
  -2.873373e+06   3.880542e+06
  -3.929760e+06   2.189201e+06
  -2.566990e+06  -3.655694e+05
  -2.914846e+05  -2.185321e+06
   1.043325e+06  -1.881305e+06
   5.422387e+05   4.977584e+04
  -1.011601e+06   1.299702e+06
  -1.785695e+06   4.461734e+05
  -8.849838e+05  -1.112272e+06
   4.756091e+05  -1.099458e+06
   4.800371e+05   3.266796e+05
  -8.687879e+05   7.690074e+05
  -1.755579e+06  -9.447920e+05
  -8.991618e+05  -3.084237e+06
   1.086045e+06  -3.309058e+06
   2.757600e+06  -1.394694e+06
   3.263337e+06   1.031151e+06
   2.448911e+06   2.479278e+06
   6.351214e+05   2.514099e+06
  -1.129175e+06   1.481210e+06
  -1.519862e+06   2.854292e+05
  -4.719385e+05  -1.951226e+04
   3.821746e+05   7.022335e+05
  -3.221762e+05   1.278108e+06
  -1.764096e+06   6.270904e+05
  -1.957065e+06  -7.286942e+05
  -4.384451e+05  -1.307906e+06
   1.088705e+06  -6.123082e+05
   9.074571e+05   3.810063e+05
  -7.439709e+05   5.877668e+05
  -2.121451e+06  -1.126228e+05
  -1.815763e+06  -1.173970e+06
   7.633963e+04  -1.933674e+06
   2.116624e+06  -1.745142e+06
   2.644814e+06  -4.166081e+05
   1.214095e+06   1.137756e+06
  -8.098167e+05   1.449992e+06
  -1.456866e+06   2.326906e+05
  -2.175701e+05  -1.020307e+06
   1.417350e+06  -7.722619e+05
   1.682118e+06   6.499091e+05
   4.289384e+05   1.551550e+06
  -9.650539e+05   1.005730e+06
  -1.214034e+06  -2.032306e+05
  -2.907127e+05  -7.195303e+05
   7.500831e+05  -9.278595e+04
   7.580822e+05   9.753614e+05
  -4.874934e+05   1.401196e+06
  -1.908647e+06   6.192229e+05
  -2.006018e+06  -9.110508e+05
  -4.702380e+05  -1.967140e+06
   1.289238e+06  -1.641001e+06
   1.633523e+06  -2.925890e+05
   5.281929e+05   8.000961e+05
  -5.875907e+05   8.076268e+05
  -6.238955e+05   1.068342e+05
   6.826597e+04  -3.805786e+05
   4.726206e+05  -2.711359e+05
   1.762270e+05   4.112955e+04
  -3.868703e+05  -1.786766e+04
  -5.302884e+05  -5.734190e+05
   1.123765e+05  -1.130880e+06
   1.265272e+06  -9.348717e+05
   2.016715e+06   2.828022e+05
   1.505007e+06   1.786853e+06
  -8.013218e+04   2.339508e+06
  -1.470127e+06   1.459350e+06
  -1.638324e+06  -7.847478e+03
  -9.067034e+05  -8.172699e+05
  -3.695087e+05  -6.485239e+05
  -4.587596e+05  -2.247977e+05
  -5.839875e+05  -2.686355e+05
  -1.167696e+05  -7.077974e+05
   7.756926e+05  -9.107729e+05
   1.366314e+06  -4.116743e+05
   1.070724e+06   6.259335e+05
  -1.318795e+05   1.429798e+06
  -1.586596e+06   1.142289e+06
  -2.190938e+06  -3.331476e+05
  -1.211603e+06  -1.945206e+06
   8.243257e+05  -2.312701e+06
   2.362717e+06  -1.130357e+06
   2.289814e+06   4.819326e+05
   1.019247e+06   1.218241e+06
  -1.164331e+05   9.382841e+05
  -3.537719e+05   5.466921e+05
  -7.446067e+04   7.418850e+05
  -6.106922e+04   1.245208e+06
  -5.788603e+05   1.250673e+06
  -1.216422e+06   3.618040e+05
  -1.336605e+06  -9.725642e+05
  -6.313254e+05  -1.793582e+06
   5.261713e+05  -1.414590e+06
   1.235993e+06  -7.025251e+04
   8.487825e+05   1.176777e+06
  -2.856764e+05   1.350760e+06
  -1.065423e+06   4.611819e+05
  -7.980054e+05  -5.960788e+05
   4.809544e+04  -1.010969e+06
   4.449339e+05  -7.704603e+05
   4.438454e+04  -4.094654e+05
  -4.311731e+05  -3.058349e+05
  -7.686521e+04  -3.672621e+05
   1.078800e+06  -2.624119e+05
   1.981852e+06   2.082885e+05
   1.603423e+06   9.003614e+05
   5.011610e+04   1.361089e+06
  -1.449523e+06   1.165141e+06
  -1.731728e+06   3.705244e+05
  -8.222862e+05  -4.071433e+05
   2.162947e+05  -5.457612e+05
   4.789049e+05  -6.584629e+04
   4.000543e+04   3.909595e+05
  -4.178855e+05   2.696707e+05
  -4.768758e+05  -3.033626e+05
  -2.692311e+05  -6.903571e+05
  -1.043540e+05  -4.622705e+05
  -1.220804e+05   1.093451e+05
  -2.569526e+05   3.156412e+05
  -2.809700e+05  -2.025064e+05
   8.383776e+04  -9.627850e+05
   8.051797e+05  -1.071774e+06
   1.287822e+06  -2.271179e+05
   8.534703e+05   8.402940e+05
  -3.429290e+05   1.104757e+06
  -1.186872e+06   3.753708e+05
  -7.355564e+05  -5.152068e+05
   6.343138e+05  -6.604093e+05
   1.530910e+06  -2.920737e+03
   1.026225e+06   7.617512e+05
  -3.935959e+05   9.781336e+05
  -1.406700e+06   5.586573e+05
  -1.200346e+06  -1.021533e+05
  -1.640349e+05  -4.860666e+05
   6.060950e+05  -2.980180e+05
   3.805802e+05   2.617415e+05
  -5.422767e+05   5.339264e+05
  -1.147591e+06  -1.984536e+04
  -7.062719e+05  -1.108875e+06
   4.841732e+05  -1.675066e+06
   1.386793e+06  -9.328197e+05
   1.252774e+06   6.620622e+05
   2.953840e+05   1.715667e+06
  -6.373137e+05   1.291140e+06
  -8.980236e+05  -1.129645e+05
  -4.855036e+05  -1.119243e+06
   1.496922e+05  -9.438245e+05
   5.335979e+05  -1.133925e+05
   4.747747e+05   3.346164e+05
   1.703224e+05   1.206016e+05
   3.932476e+04  -9.352671e+04
   2.789301e+05   2.731880e+05
   5.418979e+05   9.042812e+05
   2.477209e+05   1.024005e+06
  -6.620029e+05   4.147658e+05
  -1.447268e+06  -3.647189e+05
  -1.282377e+06  -7.291898e+05
  -2.170495e+05  -6.610317e+05
   7.998685e+05  -4.562504e+05
   9.366090e+05  -2.334694e+05
   3.469454e+05   3.340748e+04
  -1.285862e+05   2.268640e+05
  -1.953463e+04   1.943059e+05
   2.648063e+05   7.027380e+04
   5.773323e+04   1.279175e+05
  -6.260158e+05   2.724401e+05
  -1.012159e+06   4.963405e+04
  -4.580926e+05  -6.503900e+05
   7.451496e+05  -1.190691e+06
   1.599510e+06  -8.263459e+05
   1.391009e+06   3.383507e+05
   3.501246e+05   1.341364e+06
  -6.603646e+05   1.371561e+06
  -9.840647e+05   5.835924e+05
  -6.493432e+05  -1.826127e+05
  -1.520856e+05  -3.405082e+05
   6.469116e+04  -7.488129e+04
  -7.457982e+04   1.745593e+04
  -3.089894e+05  -3.354655e+05
  -2.853006e+05  -7.636654e+05
   1.331892e+05  -6.685082e+05
   6.679562e+05   7.195803e+04
   7.767070e+05   8.738595e+05
   1.786234e+05   9.943170e+05
  -7.132099e+05   2.926813e+05
  -1.048415e+06  -6.286938e+05
  -4.061781e+05  -1.032999e+06
   6.488008e+05  -7.022651e+05
   1.087869e+06   3.779598e+03
   5.507715e+05   5.646527e+05
  -2.396936e+05   6.771463e+05
  -3.494427e+05   3.760824e+05
   2.350467e+05  -1.270953e+04
   6.233062e+05  -8.022535e+04
   1.614930e+05   2.904420e+05
  -7.543182e+05   7.045699e+05
  -1.183465e+06   5.901405e+05
  -7.483334e+05  -1.332532e+05
   4.092823e+04  -8.471760e+05
   4.868580e+05  -8.584500e+05
   4.094586e+05  -1.826411e+05
   8.657188e+04   4.584605e+05
  -2.045891e+05   4.391096e+05
  -3.521314e+05  -1.139388e+05
  -2.822983e+05  -5.414625e+05
   2.598078e+04  -4.218961e+05
   3.819882e+05   1.624805e+04
   4.758224e+05   2.467051e+05
   2.375402e+05   8.168019e+04
  -4.270010e+04  -1.494771e+05
  -7.652951e+04  -4.658704e+04
   4.468783e+04   3.415952e+05
  -5.374266e+03   5.481710e+05
  -2.967481e+05   2.448163e+05
  -4.790391e+05  -3.342478e+05
  -2.045351e+05  -6.205744e+05
   3.722883e+05  -3.347396e+05
   6.659823e+05   2.251544e+05
   2.867730e+05   5.363366e+05
  -4.690124e+05   3.851033e+05
  -8.625599e+05  -1.554508e+04
  -4.886734e+05  -3.349287e+05
   2.609343e+05  -4.104152e+05
   6.076615e+05  -2.663422e+05
   2.466210e+05  -3.179096e+04
  -3.249287e+05   9.804219e+04
  -3.983858e+05  -2.568618e+04
   1.345630e+05  -2.902229e+05
   6.890144e+05  -3.154027e+05
