
 $NMID
 id='ANONYMOUS ', fmtdat='(2E16.6)'
 volume=1.0
 tramp=1.0
 $END
   4.563181e+07   1.677865e+06
   2.672168e+07   2.804514e+07
  -6.221721e+06   3.016174e+07
  -2.213623e+07   1.220200e+07
  -1.346869e+07  -4.798552e+06
   2.309525e+06  -7.467307e+06
   7.998505e+06   3.743312e+05
   2.751368e+06   7.758526e+06
  -4.661110e+06   8.154627e+06
  -7.887822e+06   2.040072e+06
  -5.814694e+06  -5.331672e+06
  -5.387196e+05  -7.437540e+06
   3.527958e+06  -2.108753e+06
   2.325320e+06   5.047827e+06
  -3.056582e+06   5.879157e+06
  -6.505661e+06  -9.407530e+05
  -3.684961e+06  -8.463996e+06
   3.185178e+06  -9.739070e+06
   8.441533e+06  -4.620625e+06
   8.759465e+06   2.143046e+06
   4.892534e+06   6.373740e+06
   4.071263e+04   6.737921e+06
  -2.241480e+06   4.388508e+06
  -7.232495e+05   2.195803e+06
   1.535450e+06   2.497121e+06
  -1.866677e+04   4.190061e+06
  -5.318076e+06   3.701567e+06
  -8.694200e+06  -1.025914e+05
  -5.856604e+06  -3.946612e+06
   3.843253e+05  -4.358265e+06
   3.778100e+06  -1.850154e+06
   2.210333e+06   6.197409e+05
  -1.125318e+06   1.364166e+06
  -2.772496e+06   3.805417e+05
  -2.133489e+06  -1.879163e+06
  -1.759838e+05  -3.887273e+06
   1.874597e+06  -3.094800e+06
   2.441878e+06   6.162151e+05
   8.794450e+05   3.132045e+06
  -8.155852e+05   1.064586e+06
  -3.944025e+04  -2.657507e+06
   2.253365e+06  -2.167454e+06
   2.098300e+06   2.582189e+06
  -1.760832e+06   4.930675e+06
  -5.257417e+06   7.218124e+05
  -3.879107e+06  -5.604615e+06
   1.603833e+06  -6.783348e+06
   6.143170e+06  -1.807674e+06
   6.002396e+06   3.819831e+06
   1.796842e+06   5.228778e+06
  -2.962495e+06   2.530738e+06
  -4.748665e+06  -1.117582e+06
  -2.359327e+06  -2.914953e+06
   1.880976e+06  -1.896716e+06
   3.789125e+06   7.035498e+05
   1.693955e+06   2.205326e+06
  -1.416672e+06   1.127017e+06
  -1.613427e+06  -8.491204e+05
   8.299007e+05  -9.224697e+05
   2.011212e+06   1.046641e+06
  -1.703054e+05   2.451609e+06
  -3.415614e+06   1.513929e+06
  -4.266042e+06  -9.067250e+05
  -1.955742e+06  -3.175391e+06
   1.734032e+06  -4.487404e+06
   4.704499e+06  -4.106523e+06
   5.538453e+06  -1.241885e+06
   3.767149e+06   3.019042e+06
   5.940586e+05   5.465831e+06
  -1.524531e+06   4.228389e+06
  -1.335288e+06   1.356165e+06
  -2.785104e+05   2.059558e+05
  -4.933411e+05   1.092995e+06
  -1.958567e+06   1.428421e+06
  -2.766869e+06  -2.189694e+05
  -1.770532e+06  -2.198692e+06
   2.431334e+05  -2.216397e+06
   1.738143e+06  -1.527506e+05
   1.682715e+06   2.141572e+06
  -1.097416e+05   2.824541e+06
  -2.659546e+06   1.347407e+06
  -3.934173e+06  -1.353637e+06
  -2.586829e+06  -3.427921e+06
   2.285257e+05  -3.535416e+06
   1.954266e+06  -2.147764e+06
   1.797473e+06  -9.418558e+05
   1.544398e+06  -7.084624e+05
   2.686600e+06  -5.382370e+05
   4.030166e+06   6.562370e+05
   3.257675e+06   2.569546e+06
   1.187004e+05   3.893735e+06
  -3.101591e+06   3.669468e+06
  -4.064111e+06   1.884298e+06
  -2.504706e+06  -5.849562e+05
  -7.853173e+04  -2.202570e+06
   1.204260e+06  -1.770482e+06
   5.265503e+05   9.976531e+04
  -1.097368e+06   1.213986e+06
  -1.774585e+06   3.357271e+05
  -7.805212e+05  -1.135639e+06
   5.535731e+05  -1.069260e+06
   5.022756e+05   3.371878e+05
  -8.306272e+05   7.869269e+05
  -1.686886e+06  -8.680481e+05
  -8.647643e+05  -3.004769e+06
   1.074003e+06  -3.309462e+06
   2.760107e+06  -1.419870e+06
   3.284431e+06   1.109105e+06
   2.409230e+06   2.643973e+06
   5.136763e+05   2.600600e+06
  -1.238275e+06   1.412401e+06
  -1.546924e+06   1.760640e+05
  -4.709706e+05  -4.768586e+04
   3.403794e+05   7.155500e+05
  -3.719589e+05   1.228901e+06
  -1.747365e+06   5.211040e+05
  -1.885758e+06  -7.960689e+05
  -3.857029e+05  -1.292828e+06
   1.098379e+06  -5.569238e+05
   9.024991e+05   4.215480e+05
  -7.543407e+05   5.800977e+05
  -2.140943e+06  -1.853289e+05
  -1.805896e+06  -1.277116e+06
   1.560201e+05  -1.967835e+06
   2.217558e+06  -1.648975e+06
   2.665532e+06  -2.719210e+05
   1.141670e+06   1.183563e+06
  -8.716467e+05   1.368297e+06
  -1.428004e+06   1.454108e+05
  -1.432155e+05  -1.004210e+06
   1.442633e+06  -6.788315e+05
   1.637692e+06   7.250166e+05
   3.704506e+05   1.563637e+06
  -9.892009e+05   9.785059e+05
  -1.204757e+06  -2.291109e+05
  -2.801803e+05  -7.142507e+05
   7.239896e+05  -5.238620e+04
   6.798997e+05   1.004713e+06
  -5.781249e+05   1.349924e+06
  -1.933771e+06   4.848474e+05
  -1.930674e+06  -1.031354e+06
  -3.507116e+05  -1.977405e+06
   1.365735e+06  -1.557009e+06
   1.639004e+06  -2.116975e+05
   4.972437e+05   8.167603e+05
  -6.187216e+05   7.781260e+05
  -6.413489e+05   7.270130e+04
   7.531771e+04  -3.994695e+05
   5.084416e+05  -2.689387e+05
   2.189812e+05   6.119018e+04
  -3.612791e+05  -4.210209e+02
  -5.080096e+05  -5.712232e+05
   1.576561e+05  -1.113327e+06
   1.307484e+06  -8.589746e+05
   1.988099e+06   3.995408e+05
   1.386759e+06   1.866817e+06
  -2.208915e+05   2.332395e+06
  -1.556015e+06   1.391407e+06
  -1.658365e+06  -8.673221e+04
  -8.944959e+05  -8.937021e+05
  -3.424494e+05  -7.272379e+05
  -4.140681e+05  -2.883639e+05
  -5.288559e+05  -2.924133e+05
  -6.483849e+04  -6.918749e+05
   8.216325e+05  -8.663454e+05
   1.396348e+06  -3.409349e+05
   1.053117e+06   7.011529e+05
  -2.057547e+05   1.447037e+06
  -1.655812e+06   1.059730e+06
  -2.173728e+06  -4.608092e+05
  -1.105650e+06  -2.003490e+06
   9.324922e+05  -2.249483e+06
   2.399323e+06  -1.003415e+06
   2.265836e+06   5.862158e+05
   9.848922e+05   1.272096e+06
  -1.490906e+05   9.627534e+05
  -4.104157e+05   5.561526e+05
  -1.646762e+05   7.311163e+05
  -1.583024e+05   1.209581e+06
  -6.441393e+05   1.190348e+06
  -1.219023e+06   2.800038e+05
  -1.265696e+06  -1.052540e+06
  -5.167478e+05  -1.826337e+06
   6.130991e+05  -1.377292e+06
   1.237145e+06  -1.940045e+03
   7.816026e+05   1.208932e+06
  -3.438888e+05   1.325209e+06
  -1.062170e+06   4.204667e+05
  -7.538532e+05  -6.020200e+05
   8.226527e+04  -9.803241e+05
   4.539458e+05  -7.433105e+05
   5.302944e+04  -4.193065e+05
  -4.049152e+05  -3.412609e+05
  -4.865675e+04  -3.756703e+05
   1.079824e+06  -1.986005e+05
   1.944335e+06   3.241766e+05
   1.540942e+06   9.827382e+05
  -1.210330e+04   1.339444e+06
  -1.488896e+06   1.062875e+06
  -1.737195e+06   2.806829e+05
  -8.010324e+05  -4.246044e+05
   2.382778e+05  -5.162734e+05
   4.731520e+05  -4.758794e+04
   4.988270e+03   3.770312e+05
  -4.451554e+05   2.399045e+05
  -4.546889e+05  -3.335522e+05
  -2.043474e+05  -7.143654e+05
  -5.526759e+04  -4.706732e+05
  -1.313165e+05   1.165646e+05
  -2.916845e+05   3.167372e+05
  -2.692905e+05  -2.191737e+05
   1.569027e+05  -9.631281e+05
   8.695481e+05  -1.011606e+06
   1.272004e+06  -1.274179e+05
   7.715381e+05   8.939391e+05
  -4.126209e+05   1.058800e+06
  -1.193880e+06   2.775555e+05
  -6.990736e+05  -5.674836e+05
   6.678440e+05  -6.243818e+05
   1.537621e+06   7.812644e+04
   1.006680e+06   8.160972e+05
  -4.304927e+05   9.696502e+05
  -1.442554e+06   5.028894e+05
  -1.210547e+06  -1.580465e+05
  -1.458644e+05  -4.995572e+05
   6.187301e+05  -2.707908e+05
   3.550140e+05   2.771391e+05
  -5.851335e+05   4.878125e+05
  -1.141932e+06  -1.084566e+05
  -6.153347e+05  -1.160628e+06
   6.130030e+05  -1.634924e+06
   1.456339e+06  -8.301775e+05
   1.209796e+06   7.489187e+05
   1.846605e+05   1.738932e+06
  -7.176957e+05   1.262636e+06
  -8.934971e+05  -1.549203e+05
  -4.294705e+05  -1.145700e+06
   1.888912e+05  -9.422720e+05
   5.333831e+05  -8.677026e+04
   4.670459e+05   3.661763e+05
   1.781303e+05   1.343132e+05
   3.846471e+04  -9.573128e+04
   2.382481e+05   2.814116e+05
   4.764451e+05   9.334153e+05
   2.032899e+05   1.040744e+06
  -6.655608e+05   3.750231e+05
  -1.427485e+06  -4.554536e+05
  -1.254316e+06  -8.081219e+05
  -1.769505e+05  -6.709023e+05
   8.445988e+05  -4.053136e+05
   9.565310e+05  -1.806938e+05
   3.308987e+05   4.730732e+04
  -1.487603e+05   2.179677e+05
  -1.262990e+04   2.013745e+05
   2.798688e+05   9.641737e+04
   4.101009e+04   1.329457e+05
  -6.647689e+05   2.255430e+05
  -1.011870e+06  -2.219905e+04
  -3.862322e+05  -6.784191e+05
   8.410826e+05  -1.130937e+06
   1.639507e+06  -7.060643e+05
   1.344411e+06   4.420483e+05
   2.546238e+05   1.367160e+06
  -7.450022e+05   1.319615e+06
  -1.021802e+06   5.044152e+05
  -6.396199e+05  -2.358725e+05
  -1.205154e+05  -3.499693e+05
   8.729717e+04  -6.009015e+04
  -6.830806e+04   2.507310e+04
  -2.948719e+05  -3.485480e+05
  -2.425985e+05  -7.798811e+05
   1.805957e+05  -6.544578e+05
   6.665118e+05   1.282356e+05
   7.077959e+05   9.369576e+05
   9.207290e+04   1.004404e+06
  -7.445164e+05   2.283707e+05
  -1.001191e+06  -7.145991e+05
  -3.249775e+05  -1.058864e+06
   6.989972e+05  -6.448394e+05
   1.077382e+06   8.239316e+04
   5.003261e+05   5.886480e+05
  -2.847584e+05   6.427343e+05
  -3.585447e+05   3.464589e+05
   2.535774e+05   7.863095e+03
   6.327107e+05  -3.610483e+04
   1.358326e+05   2.982998e+05
  -7.997253e+05   6.562178e+05
  -1.205381e+06   5.226227e+05
  -7.207430e+05  -1.708223e+05
   9.891026e+04  -8.369337e+05
   5.290991e+05  -8.169607e+05
   4.056018e+05  -1.413772e+05
   4.767157e+04   4.716315e+05
  -2.378378e+05   4.161003e+05
  -3.465974e+05  -1.523252e+05
  -2.434762e+05  -5.604841e+05
   5.948203e+04  -4.062270e+05
   3.803618e+05   4.829138e+04
   4.525518e+05   2.678992e+05
   2.309022e+05   8.799194e+04
  -2.385116e+04  -1.408235e+05
  -7.078823e+04  -2.702809e+04
   1.724558e+03   3.558313e+05
  -7.339721e+04   5.333082e+05
  -3.249994e+05   1.979710e+05
  -4.376763e+05  -3.859063e+05
  -1.358805e+05  -6.385446e+05
   4.028729e+05  -3.024556e+05
   6.407262e+05   2.809045e+05
   2.428784e+05   5.618682e+05
  -4.900024e+05   3.502435e+05
  -8.518472e+05  -8.133460e+04
  -4.609639e+05  -3.680742e+05
   2.890907e+05  -3.808771e+05
   6.219043e+05  -2.109127e+05
   2.369458e+05  -1.174543e+04
  -3.487522e+05   6.549174e+04
  -4.043967e+05  -6.865098e+04
   1.664578e+05  -2.922696e+05
   7.319130e+05  -2.702610e+05
