
 $NMID
 id='ANONYMOUS ', fmtdat='(2E16.6)'
 volume=1.0
 tramp=1.0
 $END
   2.577914e+06  -2.217575e+06
   2.908364e+06   6.179071e+05
   9.001185e+05   2.254791e+06
  -9.895003e+05   1.495284e+06
  -1.065078e+06  -1.184710e+05
  -2.426024e+04  -7.077040e+05
   6.041697e+05  -1.576306e+05
   3.868943e+05   4.823896e+05
  -1.181744e+05   5.945809e+05
  -4.499004e+05   3.164245e+05
  -5.165055e+05  -6.679564e+04
  -2.939531e+05  -3.440131e+05
   1.012091e+05  -2.983509e+05
   2.832962e+05   5.605544e+04
   1.704261e+04   3.160888e+05
  -3.929823e+05   1.379794e+05
  -4.714935e+05  -3.055113e+05
  -1.593762e+05  -5.879717e+05
   2.479558e+05  -5.503816e+05
   5.317007e+05  -2.986351e+05
   6.146287e+05   7.441124e+04
   4.172161e+05   4.384411e+05
   1.072408e+04   5.158232e+05
  -2.474310e+05   2.056426e+05
  -1.033264e+05  -1.229435e+05
   1.759397e+05  -4.270138e+04
   1.321421e+05   3.165611e+05
  -2.236406e+05   4.386838e+05
  -4.516400e+05   1.490762e+05
  -3.314003e+05  -2.113851e+05
  -7.999588e+04  -3.286967e+05
   7.513383e+04  -2.450552e+05
   1.445610e+05  -1.044789e+05
   1.432671e+05   5.080038e+04
   2.555997e+03   1.319100e+05
  -1.668514e+05   6.540321e+03
  -9.504760e+04  -2.105782e+05
   1.973052e+05  -1.986544e+05
   3.199020e+05   7.613874e+04
   9.480117e+04   2.374136e+05
  -1.252891e+05   7.611778e+04
  -7.983998e+03  -8.345426e+04
   1.989253e+05   1.026470e+05
   4.616922e+04   4.028751e+05
  -3.816955e+05   3.252924e+05
  -5.492735e+05  -1.348705e+05
  -2.302555e+05  -4.784361e+05
   2.157293e+05  -3.894822e+05
   3.628424e+05  -6.715680e+04
   1.855241e+05   1.508112e+05
  -6.962641e+04   1.639509e+05
  -1.985501e+05   4.113657e+04
  -1.257476e+05  -1.284815e+05
   9.406303e+04  -2.101317e+05
   2.556713e+05  -9.114544e+04
   1.747372e+05   1.160824e+05
  -4.057270e+04   1.516987e+05
  -8.506460e+04  -1.136161e+04
   1.016354e+05  -8.846854e+04
   2.179549e+05   9.053327e+04
   4.461633e+04   3.058771e+05
  -2.302051e+05   2.744122e+05
  -3.110311e+05   4.750213e+04
  -2.092254e+05  -1.336848e+05
  -1.211697e+05  -2.091238e+05
  -6.152359e+04  -2.683191e+05
   8.985087e+04  -2.709607e+05
   2.638369e+05  -9.898670e+04
   2.399452e+05   1.476608e+05
   1.899434e+04   2.000152e+05
  -1.204759e+05   9.622255e+03
  -1.380757e+04  -1.547684e+05
   1.652777e+05  -8.160341e+04
   1.751710e+05   1.146610e+05
   2.248515e+04   2.002238e+05
  -1.112619e+05   1.266066e+05
  -1.215794e+05   9.835777e+03
  -3.837737e+04  -5.820941e+04
   6.481594e+04  -5.025025e+04
   1.050490e+05   3.984475e+04
   1.543856e+04   1.537298e+05
  -1.573284e+05   1.597272e+05
  -2.476709e+05   8.036982e+03
  -1.594392e+05  -1.639855e+05
   1.903005e+03  -1.923398e+05
   7.513092e+04  -9.968489e+04
   5.327501e+04  -3.752583e+04
   4.462115e+04  -6.147890e+04
   8.613898e+04  -8.570438e+04
   1.182127e+05  -3.878134e+04
   1.085087e+05   5.194148e+04
   7.884097e+04   1.287393e+05
   2.806360e+04   1.562007e+05
  -5.427070e+04   1.084048e+05
  -1.091054e+05  -5.145156e+02
  -6.432667e+04  -7.609790e+04
   2.893070e+04  -3.433489e+04
   4.114188e+04   6.505009e+04
  -3.919434e+04   8.199345e+04
  -8.354995e+04   6.359522e+02
  -3.177332e+04  -5.002351e+04
   1.353299e+04  -7.308983e+03
  -3.246302e+04   2.702214e+04
  -8.968630e+04  -3.460970e+04
  -4.794572e+04  -1.136691e+05
   5.112969e+04  -9.464279e+04
   8.789191e+04  -1.033701e+04
   5.201693e+04   2.417701e+04
   2.876361e+04  -1.478168e+03
   3.986529e+04  -3.091090e+03
   2.887445e+04   3.552348e+04
  -8.894994e+03   4.399740e+04
  -9.815493e+03   7.099678e+03
   3.156247e+04  -1.286676e+03
   3.553351e+04   4.803707e+04
  -2.905057e+04   8.029123e+04
  -8.363864e+04   3.615497e+04
  -6.020552e+04  -3.594305e+04
   2.643946e+01  -5.891372e+04
   2.262627e+04  -3.031428e+04
   5.627524e+03   4.573847e+03
  -9.989950e+03   2.440930e+04
  -1.719105e+04   2.456363e+04
  -2.561952e+04  -8.833173e+03
  -1.399853e+04  -6.060688e+04
   3.099539e+04  -6.750141e+04
   6.156475e+04  -1.694924e+01
   2.575272e+04   7.151756e+04
  -4.171638e+04   5.876106e+04
  -5.528742e+04  -2.017619e+04
   8.798799e+02  -6.516232e+04
   5.290590e+04  -3.072375e+04
   4.206543e+04   2.801836e+04
  -7.943497e+03   4.535391e+04
  -4.025256e+04   1.838924e+04
  -3.163551e+04  -1.897233e+04
   5.336456e+03  -3.978784e+04
   4.398098e+04  -2.627651e+04
   5.052865e+04   2.251323e+04
   7.803488e+03   6.617522e+04
  -5.032504e+04   5.059493e+04
  -6.274268e+04  -1.769231e+04
  -1.682493e+04  -6.502260e+04
   3.269064e+04  -4.254737e+04
   3.732678e+04   1.338105e+04
   1.129933e+04   3.957304e+04
  -7.140398e+03   2.683815e+04
  -1.274849e+04   8.014005e+03
  -1.998745e+04  -1.660090e+03
  -2.466824e+04  -9.878977e+03
  -1.681999e+04  -1.521240e+04
  -8.734683e+03  -1.234433e+04
  -1.217559e+04  -1.518479e+04
  -7.015019e+03  -3.486341e+04
   2.693567e+04  -4.633087e+04
   6.246498e+04  -1.850233e+04
   5.462174e+04   2.962623e+04
   1.025481e+04   4.700782e+04
  -1.865054e+04   2.406270e+04
  -1.108352e+04   3.656042e+03
   4.122837e+02   1.233500e+04
  -9.310438e+03   2.522943e+04
  -2.152256e+04   1.475184e+04
  -1.552656e+04  -6.925927e+03
  -4.277043e+03  -1.681043e+04
  -2.980328e+03  -1.700890e+04
   7.600013e+02  -1.475959e+04
   1.477523e+04   1.592257e+03
   1.305674e+04   3.348677e+04
  -2.303832e+04   4.523187e+04
  -5.861942e+04   6.514718e+03
  -4.447450e+04  -5.300500e+04
   9.568713e+03  -7.266264e+04
   4.432148e+04  -3.951876e+04
   3.234099e+04  -6.743510e+01
   8.163393e+03   7.992626e+03
   1.077910e+04  -1.328491e+03
   3.284025e+04   2.829747e+03
   4.206044e+04   2.292835e+04
   2.470124e+04   3.968081e+04
  -9.366688e+03   4.065648e+04
  -4.279366e+04   2.474195e+04
  -5.533461e+04  -4.249588e+03
  -3.210771e+04  -3.147860e+04
   1.371757e+04  -3.330256e+04
   4.147931e+04  -4.060383e+03
   2.566284e+04   2.848115e+04
  -1.227289e+04   3.115604e+04
  -3.160837e+04   3.824339e+03
  -2.186980e+04  -2.317732e+04
  -6.282036e+03  -2.545955e+04
  -3.726231e+03  -7.300662e+03
  -8.354587e+03   7.936924e+03
  -5.844768e+03   8.066170e+02
   8.090912e+03  -2.607729e+04
   2.752991e+04  -4.534343e+04
   4.113785e+04  -2.823244e+04
   3.616284e+04   1.976866e+04
   1.050251e+04   5.614205e+04
  -1.781504e+04   4.736067e+04
  -2.544523e+04   9.077370e+03
  -1.031315e+04  -1.557283e+04
   7.050910e+03  -9.788230e+03
   9.526705e+03   5.413505e+03
  -6.816273e+02   9.092227e+03
  -1.253604e+04   4.543689e+03
  -1.868296e+04   1.778268e+03
  -1.482928e+04  -4.152993e+01
  -1.437800e+03  -2.333381e+03
   8.811131e+03   6.506667e+02
   5.644416e+02   6.273165e+03
  -1.931133e+04  -1.704587e+03
  -2.236441e+04  -2.613106e+04
   3.419628e+03  -3.991366e+04
   3.089416e+04  -1.830407e+04
   2.688323e+04   2.144015e+04
  -2.109480e+03   3.633333e+04
  -1.860512e+04   1.178335e+04
  -4.644378e+03  -2.183491e+04
   1.845253e+04  -2.914240e+04
   2.325935e+04  -7.610188e+03
   8.877621e+03   1.948874e+04
  -7.394601e+03   3.095338e+04
  -1.423070e+04   2.066431e+04
  -1.062266e+04  -2.631780e+03
   1.349477e+03  -1.839221e+04
   1.414681e+04  -8.770338e+03
   1.282569e+04   1.867807e+04
  -9.529797e+03   3.189553e+04
  -3.604188e+04   1.015252e+04
  -3.853449e+04  -2.751784e+04
  -9.084240e+03  -4.247677e+04
   2.829999e+04  -2.134947e+04
   4.110228e+04   1.180822e+04
   2.012146e+04   2.663816e+04
  -1.334251e+04   1.688513e+04
  -2.949279e+04  -2.097841e+03
  -1.841928e+04  -1.413693e+04
   2.550835e+03  -1.427351e+04
   1.028548e+04  -7.443546e+03
   3.013771e+03  -2.226126e+03
   2.019875e+02  -3.415338e+03
   1.394664e+04  -6.921410e+03
   2.991534e+04  -3.730547e+03
   2.527781e+04   9.192042e+03
  -5.033081e+02   2.396655e+04
  -2.455648e+04   2.881984e+04
  -2.867909e+04   1.833935e+04
  -1.680243e+04  -2.331931e+03
  -3.194784e+03  -2.006818e+04
   4.745677e+03  -2.217637e+04
   6.897407e+03  -8.371760e+03
   4.053653e+03   5.849389e+03
  -6.387724e+02   5.233330e+03
  -7.530185e+02  -4.851248e+03
   4.381767e+03  -3.756591e+03
   4.635562e+03   1.430100e+04
  -7.896090e+03   2.648985e+04
  -2.382084e+04   8.851444e+03
  -2.414465e+04  -2.887404e+04
  -3.368197e+03  -5.013500e+04
   2.286963e+04  -3.357022e+04
   3.465240e+04   3.979528e+03
   2.634735e+04   2.978532e+04
   7.624561e+03   2.993476e+04
  -7.541311e+03   1.555936e+04
  -1.100424e+04   3.267580e+03
  -5.597306e+03  -4.817431e+02
  -2.906611e+03   1.319359e+03
  -1.091427e+04   2.697872e+03
  -2.166177e+04  -1.240202e+03
  -1.751165e+04  -1.052641e+04
   5.984060e+03  -1.777857e+04
   2.938911e+04  -1.329129e+04
   2.871163e+04   3.758293e+03
   2.970150e+03   2.052148e+04
  -2.416235e+04   2.050982e+04
  -2.962584e+04   5.671819e+02
  -1.232820e+04  -2.287072e+04
   1.042744e+04  -2.769360e+04
   2.159274e+04  -9.081108e+03
   1.734463e+04   1.322686e+04
   6.336110e+03   1.545798e+04
   1.181431e+02  -2.165800e+03
   3.005463e+03  -1.436327e+04
   8.947518e+03  -1.448448e+03
   8.325989e+03   2.511996e+04
  -1.834427e+03   3.559424e+04
  -1.484603e+04   1.755043e+04
  -2.077644e+04  -1.069824e+04
  -1.476594e+04  -2.335782e+04
  -6.637471e+02  -1.476607e+04
   1.089943e+04   7.742697e+02
   9.777274e+03   9.093420e+03
  -3.612549e+03   7.836698e+03
  -1.558589e+04   1.561603e+03
  -1.217009e+04  -5.430479e+03
   3.578260e+03  -9.690122e+03
   1.326634e+04  -8.615998e+03
   5.958682e+03  -3.626260e+03
  -6.795356e+03  -6.408878e+01
  -5.913210e+03  -7.382117e+02
   8.959023e+03  -1.631834e+03
   1.804920e+04   2.710495e+03
   7.582044e+03   1.039902e+04
  -1.181152e+04   1.235416e+04
  -1.845208e+04   2.902659e+03
  -5.949566e+03  -1.131704e+04
   1.093081e+04  -1.583887e+04
   1.499635e+04  -3.521409e+03
   4.541390e+03   1.558193e+04
  -8.576788e+03   2.244638e+04
  -1.341296e+04   9.031566e+03
  -8.956296e+03  -1.180389e+04
  -1.404981e+03  -1.938406e+04
   3.055887e+03  -7.790476e+03
   2.186995e+03   8.051855e+03
  -2.226469e+03   9.847774e+03
  -5.445716e+03  -3.707562e+03
  -2.176765e+03  -1.654956e+04
