
 $NMID
 id='ANONYMOUS ', fmtdat='(2E16.6)'
 volume=1.0
 tramp=1.0
 $END
   1.138390e+07  -4.760771e+05
   7.816564e+06   5.262247e+06
   1.175521e+05   7.341853e+06
  -4.907309e+06   4.816810e+06
  -4.122206e+06   3.698102e+05
  -2.044922e+05  -2.125662e+06
   2.348355e+06  -1.010586e+06
   1.745271e+06   1.856297e+06
  -5.388541e+05   3.130190e+06
  -2.140043e+06   1.401645e+06
  -1.881611e+06  -1.446109e+06
  -2.738076e+05  -2.380500e+06
   1.112335e+06  -5.407723e+05
   9.413786e+05   1.921201e+06
  -6.133055e+05   2.308351e+06
  -1.902545e+06   2.422077e+05
  -1.452901e+06  -2.192320e+06
   4.582003e+05  -2.811750e+06
   2.125283e+06  -1.382080e+06
   2.218473e+06   5.841597e+05
   1.015065e+06   1.557011e+06
  -9.403709e+04   1.301447e+06
  -8.054819e+04   7.412743e+05
   7.270774e+05   8.142877e+05
   9.890129e+05   1.488722e+06
  -2.127603e+05   1.850966e+06
  -2.170563e+06   1.154223e+06
  -3.023599e+06  -2.910276e+05
  -1.742710e+06  -1.375473e+06
   5.402170e+05  -1.292513e+06
   1.630186e+06  -2.645271e+05
   6.680947e+05   7.481390e+05
  -1.033481e+06   8.760272e+05
  -1.643805e+06  -2.128431e+04
  -7.990424e+05  -1.217872e+06
   3.664758e+05  -1.611064e+06
   7.521540e+05  -7.374780e+05
   3.342597e+05   5.524851e+05
  -1.784438e+05   8.273171e+05
  -2.091866e+05  -2.409823e+05
   2.673325e+05  -1.304546e+06
   8.037420e+05  -9.157948e+05
   8.075412e+05   5.849972e+05
   5.645731e+04   1.397871e+06
  -9.007227e+05   4.911996e+05
  -1.058261e+06  -1.135069e+06
   2.806416e+04  -1.691765e+06
   1.557525e+06  -6.341203e+05
   2.089289e+06   9.482530e+05
   9.805970e+05   1.671351e+06
  -8.663220e+05   1.130710e+06
  -1.827648e+06  -2.626920e+04
  -1.147389e+06  -8.351804e+05
   3.532422e+05  -7.603129e+05
   1.174773e+06  -4.461068e+04
   6.817126e+05   5.314793e+05
  -3.433448e+05   4.001648e+05
  -6.769857e+05  -2.092937e+05
  -3.231057e+04  -5.513087e+05
   6.964077e+05  -2.263279e+05
   5.325162e+05   4.016897e+05
  -4.403973e+05   6.529095e+05
  -1.166260e+06   2.071864e+05
  -7.689090e+05  -6.780769e+05
   5.333956e+05  -1.385539e+06
   1.681449e+06  -1.310151e+06
   1.826945e+06  -3.033580e+05
   1.058435e+06   1.049793e+06
   1.487489e+05   1.799784e+06
  -2.813601e+05   1.534840e+06
  -2.798133e+05   8.064816e+05
  -3.155820e+05   4.267573e+05
  -6.573515e+05   4.663709e+05
  -1.074804e+06   2.866805e+05
  -1.106659e+06  -4.411680e+05
  -5.440487e+05  -1.145406e+06
   3.344014e+05  -1.008809e+06
   9.318405e+05  -2.336790e+03
   7.680761e+05   1.009624e+06
  -1.020975e+05   1.159462e+06
  -1.035472e+06   3.905285e+05
  -1.290857e+06  -6.078417e+05
  -7.153666e+05  -1.113331e+06
   1.004075e+05  -9.650781e+05
   4.730675e+05  -5.579697e+05
   3.894113e+05  -3.527845e+05
   4.441100e+05  -4.074241e+05
   9.880439e+05  -3.685721e+05
   1.552289e+06   9.923387e+04
   1.321248e+06   9.026344e+05
   1.300199e+05   1.535345e+06
  -1.207141e+06   1.489304e+06
  -1.652845e+06   6.960918e+05
  -9.643825e+05  -3.494254e+05
   1.052223e+05  -9.160587e+05
   5.850616e+05  -6.414600e+05
   2.024615e+05   8.962540e+04
  -4.656697e+05   4.767230e+05
  -6.728408e+05   1.460956e+05
  -2.591030e+05  -4.164052e+05
   2.669105e+05  -4.490823e+05
   3.178116e+05   1.131993e+05
  -1.728547e+05   5.009592e+05
  -7.112369e+05   4.329602e+04
  -7.150115e+05  -9.625337e+05
  -2.179766e+04  -1.520863e+06
   9.585506e+05  -1.013541e+06
   1.528421e+06   1.726854e+05
   1.240752e+06   1.092293e+06
   3.078564e+05   1.161279e+06
  -5.258769e+05   5.924023e+05
  -6.513524e+05   4.941003e+04
  -1.907827e+05  -1.673215e+04
   1.568870e+05   2.787213e+05
  -8.394676e+04   4.667353e+05
  -6.193348e+05   2.445857e+05
  -7.497197e+05  -2.162668e+05
  -2.263160e+05  -4.711511e+05
   4.149616e+05  -2.808846e+05
   4.405524e+05   1.418399e+05
  -2.441269e+05   3.491583e+05
  -9.482829e+05   8.425215e+04
  -8.989594e+05  -4.860042e+05
  -4.270204e+04  -9.007193e+05
   8.864703e+05  -7.804457e+05
   1.090420e+06  -1.740728e+05
   4.755427e+05   4.276514e+05
  -3.002348e+05   5.140087e+05
  -5.096748e+05   7.222862e+04
  -4.496324e+04  -3.670516e+05
   5.546267e+05  -2.895473e+05
   6.843252e+05   2.313478e+05
   2.406590e+05   6.261296e+05
  -3.382192e+05   4.856623e+05
  -5.233293e+05   6.750894e+03
  -1.946491e+05  -2.677897e+05
   2.492423e+05  -6.160894e+04
   2.790223e+05   3.682789e+05
  -2.154101e+05   5.339071e+05
  -7.643488e+05   2.047621e+05
  -7.760342e+05  -3.904492e+05
  -1.729883e+05  -7.775141e+05
   5.014600e+05  -6.495465e+05
   6.532932e+05  -1.347853e+05
   2.461506e+05   3.168332e+05
  -2.240854e+05   3.508199e+05
  -3.016251e+05   3.784027e+04
  -1.318841e+04  -2.321782e+05
   2.515403e+05  -1.876727e+05
   1.965150e+05   3.970489e+04
  -8.909851e+04   9.987206e+04
  -2.448057e+05  -1.442233e+05
  -1.004528e+04  -4.337729e+05
   4.870219e+05  -3.796331e+05
   8.010765e+05   1.158260e+05
   5.816132e+05   7.206561e+05
  -5.737352e+04   9.571201e+05
  -6.223376e+05   6.345998e+05
  -7.257932e+05   2.207263e+04
  -4.443206e+05  -4.059359e+05
  -1.587537e+05  -4.095524e+05
  -1.005138e+05  -1.766317e+05
  -1.425784e+05  -7.369153e+04
  -2.626614e+04  -2.227091e+05
   2.934898e+05  -3.691592e+05
   5.664625e+05  -1.931508e+05
   4.795913e+05   2.812370e+05
  -3.093072e+04   6.440339e+05
  -6.558288e+05   4.933492e+05
  -9.063186e+05  -1.399082e+05
  -5.170365e+05  -7.793427e+05
   2.799628e+05  -9.234611e+05
   9.126508e+05  -4.895111e+05
   9.606368e+05   1.417019e+05
   5.061463e+05   5.050442e+05
  -4.612590e+03   4.702882e+05
  -2.157669e+05   2.940282e+05
  -1.508214e+05   2.801330e+05
  -8.905784e+04   4.276947e+05
  -2.231212e+05   4.473446e+05
  -4.565582e+05   1.191264e+05
  -5.116714e+05  -4.116132e+05
  -2.274818e+05  -7.339187e+05
   2.365827e+05  -5.660282e+05
   5.085034e+05  -3.272297e+04
   3.548425e+05   4.486824e+05
  -7.145067e+04   5.402885e+05
  -3.732623e+05   2.475464e+05
  -3.143277e+05  -1.442221e+05
  -4.592763e+04  -3.537637e+05
   9.642148e+04  -3.249178e+05
  -1.226298e+04  -2.051365e+05
  -1.492628e+05  -1.478667e+05
  -1.259888e+04  -1.550602e+05
   4.051761e+05  -1.058093e+05
   7.493827e+05   8.372292e+04
   6.370731e+05   3.466257e+05
   6.749886e+04   5.088826e+05
  -5.269934e+05   4.403654e+05
  -6.819577e+05   1.753935e+05
  -3.547811e+05  -9.816903e+04
   6.086163e+04  -1.837223e+05
   1.749910e+05  -5.274302e+04
  -1.184154e+04   1.106570e+05
  -1.982603e+05   8.567731e+04
  -1.782985e+05  -1.317806e+05
  -3.959190e+04  -2.948600e+05
   1.778144e+04  -1.885402e+05
  -5.971180e+04   7.904829e+04
  -1.513388e+05   1.682728e+05
  -1.172896e+05  -7.683756e+04
   7.655344e+04  -3.994973e+05
   3.307416e+05  -4.081318e+05
   4.481970e+05  -4.234031e+04
   2.647385e+05   3.455533e+05
  -1.484806e+05   3.861329e+05
  -4.404565e+05   8.188553e+04
  -2.786818e+05  -2.366151e+05
   2.518418e+05  -2.706751e+05
   6.470168e+05  -1.050058e+04
   4.817479e+05   3.120223e+05
  -1.201041e+05   4.417485e+05
  -5.980792e+05   2.877105e+05
  -5.398311e+05  -1.730072e+04
  -8.953269e+04  -2.149643e+05
   2.442705e+05  -1.428338e+05
   1.344976e+05   8.997708e+04
  -2.505106e+05   1.786741e+05
  -4.551314e+05  -6.652413e+04
  -2.151237e+05  -4.780111e+05
   2.838368e+05  -6.445935e+05
   6.060071e+05  -3.133997e+05
   4.936344e+05   3.135574e+05
   8.122961e+04   7.177402e+05
  -2.854394e+05   5.471834e+05
  -3.783503e+05  -2.487448e+04
  -2.196671e+05  -4.622994e+05
   2.775039e+04  -4.148754e+05
   2.053675e+05  -6.079915e+04
   2.241818e+05   1.545312e+05
   1.074352e+05   6.725259e+04
   3.607882e+03  -5.197730e+04
   5.466501e+04   8.355888e+04
   1.870602e+05   3.653046e+05
   1.333428e+05   4.370393e+05
  -2.229309e+05   1.729967e+05
  -5.950220e+05  -1.759167e+05
  -5.587559e+05  -3.239508e+05
  -8.346889e+04  -2.644081e+05
   3.753448e+05  -1.641432e+05
   4.034420e+05  -9.332609e+04
   1.089339e+05  -6.942021e+03
  -7.265940e+04   8.555581e+04
   3.312090e+04   1.070641e+05
   1.544733e+05   6.421322e+04
   1.231381e+03   5.333488e+04
  -3.125396e+05   7.409196e+04
  -4.048070e+05  -1.536738e+04
  -9.870012e+04  -2.595168e+05
   3.747211e+05  -4.337764e+05
   6.312028e+05  -2.660551e+05
   4.922662e+05   1.927660e+05
   9.074345e+04   5.599227e+05
  -2.838943e+05   5.254746e+05
  -4.077462e+05   1.799522e+05
  -2.637394e+05  -1.167635e+05
  -3.266710e+04  -1.379655e+05
   6.853717e+04   4.446270e+03
  -1.700316e+04   4.063798e+04
  -1.424569e+05  -1.292649e+05
  -1.196596e+05  -3.172327e+05
   7.780276e+04  -2.571807e+05
   2.764702e+05   7.832027e+04
   2.628050e+05   4.034923e+05
  -5.375385e+03   3.984733e+05
  -3.226806e+05   5.201597e+04
  -3.904535e+05  -3.239364e+05
  -1.070192e+05  -4.238906e+05
   2.856117e+05  -2.316513e+05
   4.152904e+05   4.079515e+04
   1.840346e+05   2.066669e+05
  -1.064255e+05   2.242466e+05
  -1.096173e+05   1.369313e+05
   1.378589e+05   2.200042e+04
   2.650675e+05  -8.430844e+03
   4.332468e+04   1.120741e+05
  -3.239217e+05   2.729909e+05
  -4.598894e+05   2.457878e+05
  -2.593974e+05  -3.513686e+04
   4.055157e+04  -3.249674e+05
   1.795517e+05  -3.207081e+05
   1.244171e+05  -3.509526e+04
  -1.625107e+03   2.041984e+05
  -1.007353e+05   1.478546e+05
  -1.389020e+05  -9.470607e+04
  -9.372746e+04  -2.276810e+05
   2.940030e+04  -1.334956e+05
   1.513856e+05   3.367663e+04
   1.748783e+05   8.397604e+04
   9.559051e+04   1.494908e+04
   3.872781e+03  -2.914376e+04
  -3.418497e+04   4.296548e+04
  -4.752712e+04   1.606369e+05
  -9.111751e+04   1.726195e+05
  -1.462259e+05   1.721848e+04
  -1.288522e+05  -1.913567e+05
   4.794908e+03  -2.575495e+05
   1.784099e+05  -1.039138e+05
   2.345149e+05   1.337220e+05
   7.952115e+04   2.390403e+05
  -1.878202e+05   1.377890e+05
  -3.234661e+05  -4.601086e+04
  -1.766681e+05  -1.490363e+05
   1.146252e+05  -1.293049e+05
   2.400781e+05  -5.534144e+04
   6.934859e+04  -1.690002e+03
  -1.756019e+05  -4.304122e+03
  -1.747156e+05  -6.731724e+04
   1.002380e+05  -1.378908e+05
   3.465046e+05  -1.023604e+05
