
 $NMID
 id='ANONYMOUS ', fmtdat='(2E16.6)'
 volume=1.0
 tramp=1.0
 $END
   5.963534e+06   1.250283e+06
   2.652506e+06   4.808685e+06
  -1.952383e+06   3.977549e+06
  -3.389532e+06   5.476679e+05
  -1.419244e+06  -1.515797e+06
   7.572606e+05  -8.798341e+05
   9.455813e+05   6.241661e+05
  -1.787420e+05   1.129776e+06
  -1.021772e+06   5.801047e+05
  -1.026818e+06  -2.209332e+05
  -5.054390e+05  -7.634539e+05
   1.221369e+05  -7.846222e+05
   4.172481e+05  -2.123395e+05
   7.719184e+04   4.419992e+05
  -5.673084e+05   3.876890e+05
  -7.331048e+05  -4.241154e+05
  -1.272081e+05  -1.139452e+06
   7.176384e+05  -1.062850e+06
   1.169025e+06  -3.643856e+05
   1.088281e+06   4.026036e+05
   6.205332e+05   9.171510e+05
  -4.920237e+04   1.035412e+06
  -5.560975e+05   6.964778e+05
  -5.196846e+05   1.807257e+05
  -1.121467e+05  -5.091711e+03
   7.540161e+03   2.051170e+05
  -4.022431e+05   2.955157e+05
  -7.820503e+05  -4.793479e+04
  -5.924514e+05  -4.564601e+05
  -6.465855e+04  -4.874046e+05
   2.435678e+05  -2.648904e+05
   2.278926e+05  -1.305799e+05
   1.338609e+05  -7.458446e+04
   3.082373e+04   3.287977e+04
  -1.125105e+05   2.166269e+04
  -1.054943e+05  -2.357789e+05
   1.814249e+05  -3.766343e+05
   4.162195e+05  -4.424641e+04
   2.318815e+05   4.009502e+05
  -1.078796e+05   3.388475e+05
  -6.645385e+04  -7.450831e+04
   2.338177e+05  -8.510346e+04
   1.208635e+05   4.059837e+05
  -5.094664e+05   5.668774e+05
  -8.765258e+05  -9.762307e+04
  -4.008930e+05  -8.978637e+05
   4.544209e+05  -8.721216e+05
   8.195836e+05  -7.378723e+04
   4.844354e+05   5.979156e+05
  -7.109210e+04   5.692017e+05
  -3.876793e+05   8.009515e+04
  -3.479106e+05  -3.373282e+05
  -2.844623e+04  -3.949697e+05
   3.392677e+05  -1.152948e+05
   4.055972e+05   2.456057e+05
   8.441910e+04   3.397118e+05
  -2.138887e+05   8.590333e+04
  -8.880890e+04  -1.470762e+05
   2.321038e+05   1.037957e+04
   1.861276e+05   3.739859e+05
  -2.864760e+05   4.276428e+05
  -6.452497e+05   4.829809e+04
  -5.121299e+05  -3.657673e+05
  -9.295217e+04  -4.980796e+05
   2.586532e+05  -4.399985e+05
   4.691766e+05  -3.261254e+05
   5.524467e+05  -6.779562e+04
   3.868613e+05   3.300558e+05
  -1.884064e+04   5.424858e+05
  -3.216738e+05   3.324392e+05
  -2.346923e+05  -4.246361e+04
   5.347844e+04  -1.495928e+05
   1.434886e+05   3.698983e+04
  -2.505429e+04   1.761996e+05
  -1.757029e+05   8.657884e+04
  -1.457652e+05  -6.848748e+04
  -3.877883e+04  -9.548411e+04
   2.634835e+04  -3.653391e+02
   3.690282e+04   1.178520e+05
  -3.596470e+04   1.808640e+05
  -2.168015e+05   1.066397e+05
  -3.589594e+05  -1.318273e+05
  -2.483203e+05  -3.818310e+05
   6.961999e+04  -4.210314e+05
   2.940581e+05  -2.379961e+05
   2.743036e+05  -4.411032e+04
   1.908500e+05   2.962548e+04
   2.289447e+05   7.355473e+04
   2.864375e+05   1.832373e+05
   1.670298e+05   2.854687e+05
  -9.592474e+04   2.767631e+05
  -2.894862e+05   1.831558e+05
  -2.978063e+05   7.597703e+04
  -1.752968e+05  -3.780961e+04
  -2.202887e+04  -1.354206e+05
   7.389923e+04  -1.256026e+05
   4.155480e+04  -3.466374e+03
  -8.544521e+04   6.966409e+04
  -1.475242e+05  -1.108534e+04
  -5.840982e+04  -1.091980e+05
   4.216199e+04  -5.882598e+04
  -1.375343e+04   4.204462e+04
  -1.384062e+05  -3.025357e+04
  -9.400435e+04  -2.465463e+05
   1.421837e+05  -3.263454e+05
   3.254628e+05  -1.359070e+05
   2.840855e+05   1.350160e+05
   1.183190e+05   2.552640e+05
  -2.404759e+03   2.180632e+05
  -5.874179e+04   1.380184e+05
  -9.846029e+04   5.918080e+04
  -9.545016e+04  -1.053906e+04
  -3.036846e+04  -1.439186e+04
   3.777570e+03   5.841936e+04
  -7.170322e+04   9.086967e+04
  -1.633503e+05  -6.257976e+03
  -1.229476e+05  -1.301263e+05
   2.164544e+04  -1.199055e+05
   9.657180e+04  -8.697953e+02
   2.632837e+04   5.424765e+04
  -8.258292e+04  -2.027311e+04
  -1.047667e+05  -1.154179e+05
  -2.747193e+04  -1.312615e+05
   9.068624e+04  -8.602656e+04
   1.831496e+05  -2.236806e+04
   1.788525e+05   5.825087e+04
   5.045998e+04   1.230477e+05
  -1.044982e+05   9.454636e+04
  -1.284699e+05  -2.020901e+04
   4.269212e+02  -8.719390e+04
   1.206638e+05  -1.565180e+04
   8.986424e+04   1.036689e+05
  -3.992457e+04   1.175921e+05
  -1.123759e+05   1.456116e+04
  -6.705013e+04  -7.764658e+04
   2.310997e+04  -6.548800e+04
   6.587368e+04   2.004455e+04
   2.793016e+04   8.969226e+04
  -6.571444e+04   8.235887e+04
  -1.406931e+05  -5.099948e+03
  -1.105559e+05  -1.126305e+05
   2.487600e+04  -1.469392e+05
   1.411112e+05  -7.159504e+04
   1.200331e+05   3.708732e+04
   2.058641e+03   7.313808e+04
  -6.714369e+04   2.974608e+04
  -3.005189e+04  -9.488514e+03
   2.730432e+04   2.016648e+03
   1.883442e+04   2.203803e+04
  -3.030441e+04   1.356166e+03
  -4.591834e+04  -4.736105e+04
  -5.902349e+03  -8.155498e+04
   6.069749e+04  -7.572603e+04
   1.175230e+05  -1.861229e+04
   1.237609e+05   8.083284e+04
   4.819914e+04   1.616430e+05
  -7.193332e+04   1.443478e+05
  -1.341359e+05   3.383141e+04
  -8.726667e+04  -6.230994e+04
  -6.776415e+03  -6.207977e+04
   4.049921e+03  -1.024432e+04
  -4.517102e+04  -1.300204e+03
  -5.677786e+04  -4.401382e+04
   9.139081e+03  -6.688481e+04
   8.567575e+04  -3.150340e+04
   9.513734e+04   2.806241e+04
   3.070685e+04   6.702772e+04
  -6.353398e+04   6.587990e+04
  -1.331145e+05   1.106366e+04
  -1.222955e+05  -8.962320e+04
  -8.603193e+03  -1.649633e+05
   1.405971e+05  -1.271265e+05
   2.008527e+05   1.003128e+04
   1.235079e+05   1.197454e+05
  -8.095106e+02   1.092141e+05
  -5.179636e+04   3.040620e+04
  -1.976915e+04   1.202100e+02
   8.603577e+03   4.856840e+04
  -2.225544e+04   9.994348e+04
  -7.885284e+04   8.043613e+04
  -9.976370e+04  -5.893504e+03
  -6.376014e+04  -9.834639e+04
   7.289743e+03  -1.319875e+05
   7.072805e+04  -7.613065e+04
   7.924361e+04   3.505899e+04
   1.499082e+04   1.102450e+05
  -7.364801e+04   8.065493e+04
  -1.012529e+05  -2.051249e+04
  -3.684633e+04  -9.176639e+04
   5.306392e+04  -8.094546e+04
   7.737131e+04  -3.329143e+04
   2.540665e+04  -1.432718e+04
  -2.409288e+04  -2.609525e+04
   2.274933e+03  -2.342998e+04
   8.641106e+04   1.739188e+04
   1.348712e+05   7.548989e+04
   7.789331e+04   1.128853e+05
  -5.190792e+04   1.016129e+05
  -1.459315e+05   3.950706e+04
  -1.291635e+05  -3.739390e+04
  -3.528628e+04  -7.167769e+04
   3.825908e+04  -3.938832e+04
   3.870297e+04   1.846161e+04
  -1.738163e+03   3.970893e+04
  -2.746125e+04   9.706565e+03
  -2.498011e+04  -3.248464e+04
  -1.451638e+04  -4.734170e+04
  -9.294762e+03  -3.158869e+04
  -9.110739e+03  -7.819370e+03
  -1.265025e+04  -1.184540e+03
  -8.967944e+03  -2.290642e+04
   2.443138e+04  -5.381713e+04
   8.261193e+04  -4.927640e+04
   1.084044e+05   1.057096e+04
   5.073515e+04   7.720049e+04
  -5.282419e+04   7.688997e+04
  -9.795805e+04   7.054241e+03
  -3.556944e+04  -4.818055e+04
   6.348901e+04  -2.121860e+04
   9.068311e+04   5.216429e+04
   2.194266e+04   8.195767e+04
  -6.903613e+04   3.747487e+04
  -1.008464e+05  -2.753578e+04
  -5.834282e+04  -5.261213e+04
   1.188322e+04  -3.151517e+04
   4.885619e+04   6.074077e+03
   2.230245e+04   3.252230e+04
  -4.145363e+04   2.723125e+04
  -7.426662e+04  -2.017751e+04
  -3.005380e+04  -8.350270e+04
   5.830540e+04  -1.000861e+05
   1.047816e+05  -3.335803e+04
   6.243584e+04   6.922953e+04
  -2.519906e+04   1.122174e+05
  -7.456573e+04   5.491611e+04
  -4.995275e+04  -4.199212e+04
   1.118807e+04  -8.460193e+04
   4.904936e+04  -4.667252e+04
   4.056770e+04   1.358086e+04
   1.023236e+04   3.123626e+04
  -4.049576e+03   8.254397e+03
   9.335693e+03  -1.165068e+03
   2.638464e+04   3.277738e+04
   1.558768e+04   7.469340e+04
  -2.607222e+04   6.786838e+04
  -6.847646e+04   5.189684e+03
  -7.824926e+04  -6.136625e+04
  -4.724602e+04  -7.998232e+04
   5.965951e+03  -4.996235e+04
   5.080579e+04  -8.612643e+03
   6.042075e+04   1.490064e+04
   3.041730e+04   1.847418e+04
  -9.579695e+03   1.213066e+04
  -1.989044e+04   4.647146e+03
   3.359947e+02   3.291101e+03
   5.927936e+03   8.701670e+03
  -3.096983e+04   6.716665e+03
  -6.698039e+04  -1.846551e+04
  -3.352987e+04  -5.554182e+04
   6.374151e+04  -6.520066e+04
   1.320734e+05  -2.210104e+04
   9.746348e+04   4.870671e+04
  -6.017640e+03   9.124491e+04
  -8.041070e+04   7.478459e+04
  -7.742969e+04   2.188646e+04
  -3.447580e+04  -1.981120e+04
  -7.249385e+03  -2.568522e+04
  -6.338732e+03  -1.179810e+04
  -9.646407e+03  -1.060971e+04
  -4.290731e+03  -3.325382e+04
   6.960158e+03  -5.545777e+04
   2.225133e+04  -4.209821e+04
   3.783628e+04   1.148217e+04
   3.616164e+04   6.530684e+04
   2.300302e+03   6.925285e+04
  -4.421976e+04   1.457584e+04
  -5.576614e+04  -5.321050e+04
  -9.444014e+03  -7.642315e+04
   5.634832e+04  -3.886190e+04
   7.580073e+04   2.309387e+04
   2.873319e+04   5.885496e+04
  -3.300060e+04   4.951249e+04
  -4.267956e+04   1.802184e+04
   2.986909e+03  -2.740563e+01
   3.829117e+04   8.155886e+03
   7.375089e+03   2.488827e+04
  -6.516455e+04   2.443359e+04
  -1.000881e+05  -1.193583e+03
  -5.646302e+04  -3.681904e+04
   2.231800e+04  -5.776005e+04
   6.290424e+04  -4.749343e+04
   4.301171e+04  -1.037196e+04
   9.915562e+02   2.621162e+04
  -2.144794e+04   2.969472e+04
  -1.907456e+04  -4.713942e+03
  -6.565510e+03  -4.084588e+04
   9.025058e+03  -3.641548e+04
   2.444263e+04   5.368548e+03
   2.805640e+04   3.505144e+04
   1.313037e+04   1.794172e+04
  -4.604995e+03  -1.937639e+04
  -3.638583e+03  -2.296902e+04
   1.026602e+04   1.581667e+04
   8.352613e+03   4.737394e+04
  -1.798967e+04   2.901822e+04
  -3.756339e+04  -1.960846e+04
  -1.809610e+04  -4.289413e+04
   2.604775e+04  -1.804382e+04
   4.461815e+04   2.285421e+04
   1.128600e+04   3.649282e+04
  -4.244541e+04   1.490517e+04
  -6.127544e+04  -1.657340e+04
  -2.648000e+04  -3.271362e+04
   2.648589e+04  -2.838751e+04
   4.820875e+04  -1.287448e+04
   2.537219e+04   2.154527e+03
  -1.069206e+04   7.860636e+03
  -2.005194e+04   1.679342e+03
   5.128249e+03  -7.859046e+03
   3.459058e+04  -4.470297e+03
