
 $NMID
 id='ANONYMOUS ', fmtdat='(2E16.6)'
 volume=1.0
 tramp=1.0
 $END
   5.477351e+07  -1.468827e+06
   3.407778e+07   3.293424e+07
  -6.052434e+06   3.734503e+07
  -2.654192e+07   1.520804e+07
  -1.645836e+07  -6.264865e+06
   2.892877e+06  -9.260398e+06
   9.737822e+06   8.261325e+05
   3.094891e+06   9.517344e+06
  -5.820177e+06   9.439238e+06
  -9.440603e+06   2.283294e+06
  -6.990942e+06  -5.909720e+06
  -9.697343e+05  -8.419694e+06
   3.836936e+06  -2.743073e+06
   2.662715e+06   5.345028e+06
  -3.570044e+06   6.580710e+06
  -7.768770e+06  -1.072003e+06
  -4.626778e+06  -9.874202e+06
   3.383636e+06  -1.164201e+07
   9.700404e+06  -6.014350e+06
   1.054856e+07   1.737813e+06
   6.591797e+06   7.080000e+06
   9.169983e+05   8.317031e+06
  -2.568614e+06   5.958961e+06
  -1.637244e+06   2.810430e+06
   1.111254e+06   2.263261e+06
   2.266454e+05   4.136901e+06
  -5.281308e+06   4.334985e+06
  -9.455649e+06   5.877312e+05
  -6.938045e+06  -3.915396e+06
  -2.901883e+05  -4.882430e+06
   3.615131e+06  -2.483998e+06
   2.348952e+06   1.953593e+04
  -7.345927e+05   9.181642e+05
  -2.328381e+06   4.090118e+05
  -2.127181e+06  -1.477171e+06
  -6.442698e+05  -3.851862e+06
   1.690914e+06  -3.754987e+06
   3.058557e+06   4.327866e+04
   1.690734e+06   3.446556e+06
  -6.477915e+05   1.811956e+06
  -2.796277e+05  -2.441310e+06
   2.412287e+06  -2.327114e+06
   2.505636e+06   3.062760e+06
  -2.150490e+06   6.092698e+06
  -6.692329e+06   1.247597e+06
  -5.177607e+06  -6.567682e+06
   1.595101e+06  -8.363340e+06
   7.174841e+06  -2.549243e+06
   6.944215e+06   4.221335e+06
   1.975697e+06   5.931195e+06
  -3.386611e+06   2.779482e+06
  -5.272753e+06  -1.391334e+06
  -2.516975e+06  -3.409819e+06
   2.302652e+06  -2.249920e+06
   4.476818e+06   7.768396e+05
   2.004767e+06   2.617938e+06
  -1.642955e+06   1.390691e+06
  -1.758295e+06  -9.851139e+05
   1.257899e+06  -1.001950e+06
   2.534521e+06   1.584959e+06
  -3.957027e+05   3.385001e+06
  -4.410301e+06   2.050078e+06
  -5.247260e+06  -1.129239e+06
  -2.405079e+06  -3.819368e+06
   1.672751e+06  -5.188859e+06
   4.864381e+06  -4.812906e+06
   6.045704e+06  -1.793680e+06
   4.512750e+06   3.017620e+06
   1.018021e+06   6.043555e+06
  -1.731979e+06   4.770837e+06
  -1.731660e+06   1.315693e+06
  -2.540245e+05  -2.063658e+05
  -6.083988e+04   9.194797e+05
  -1.602872e+06   1.697389e+06
  -2.752778e+06   1.907707e+05
  -1.969287e+06  -1.936820e+06
   1.708708e+04  -2.130140e+06
   1.583206e+06  -1.759966e+05
   1.687448e+06   2.097752e+06
   1.180108e+04   2.923919e+06
  -2.718922e+06   1.646024e+06
  -4.401746e+06  -1.127713e+06
  -3.211662e+06  -3.630292e+06
  -5.262458e+04  -4.126579e+06
   2.150901e+06  -2.709585e+06
   2.153725e+06  -1.190044e+06
   1.809550e+06  -7.399739e+05
   2.939367e+06  -5.360962e+05
   4.359188e+06   6.970174e+05
   3.519803e+06   2.723246e+06
   1.719517e+05   4.131698e+06
  -3.180463e+06   3.926837e+06
  -4.157703e+06   2.133441e+06
  -2.636992e+06  -4.174860e+05
  -2.624826e+05  -2.220721e+06
   1.095085e+06  -1.917987e+06
   5.549021e+05   3.719783e+04
  -1.083084e+06   1.311555e+06
  -1.900135e+06   4.191212e+05
  -9.272205e+05  -1.185460e+06
   5.186315e+05  -1.115790e+06
   4.505369e+05   3.989040e+05
  -1.063494e+06   7.536654e+05
  -1.923598e+06  -1.222735e+06
  -7.562764e+05  -3.498938e+06
   1.530052e+06  -3.515209e+06
   3.175966e+06  -1.219238e+06
   3.390461e+06   1.416739e+06
   2.329362e+06   2.794978e+06
   4.660731e+05   2.643556e+06
  -1.243793e+06   1.474399e+06
  -1.582483e+06   2.311943e+05
  -4.957934e+05  -4.285777e+04
   3.667590e+05   7.541950e+05
  -3.961589e+05   1.353360e+06
  -1.905986e+06   6.066835e+05
  -2.059418e+06  -8.663106e+05
  -4.094225e+05  -1.423416e+06
   1.177526e+06  -5.882873e+05
   9.047833e+05   4.607619e+05
  -8.621591e+05   5.441201e+05
  -2.222057e+06  -3.105187e+05
  -1.777093e+06  -1.376955e+06
   2.469836e+05  -2.005165e+06
   2.326572e+06  -1.683667e+06
   2.795776e+06  -2.923354e+05
   1.238639e+06   1.262535e+06
  -9.048071e+05   1.518389e+06
  -1.562586e+06   2.107191e+05
  -2.128588e+05  -1.078934e+06
   1.520038e+06  -7.537638e+05
   1.741802e+06   7.756970e+05
   3.548340e+05   1.672102e+06
  -1.101390e+06   1.002232e+06
  -1.281805e+06  -3.060076e+05
  -2.590365e+05  -7.939836e+05
   8.027152e+05  -6.670929e+04
   7.505943e+05   1.053925e+06
  -5.696036e+05   1.436597e+06
  -2.016856e+06   5.590352e+05
  -2.056939e+06  -1.043326e+06
  -4.022142e+05  -2.088607e+06
   1.440386e+06  -1.669168e+06
   1.742833e+06  -2.248528e+05
   5.146350e+05   8.767092e+05
  -6.615592e+05   8.169402e+05
  -6.391193e+05   7.554286e+04
   1.259197e+05  -3.710619e+05
   5.058641e+05  -2.077510e+05
   1.248377e+05   8.152193e+04
  -4.638629e+05  -6.376981e+04
  -5.376326e+05  -6.766699e+05
   1.978611e+05  -1.205104e+06
   1.389680e+06  -9.141312e+05
   2.102554e+06   4.042015e+05
   1.489723e+06   1.949279e+06
  -2.054143e+05   2.441885e+06
  -1.626850e+06   1.433353e+06
  -1.710496e+06  -1.236189e+05
  -8.645717e+05  -9.107344e+05
  -3.074903e+05  -6.616546e+05
  -4.701826e+05  -2.113981e+05
  -6.356106e+05  -3.007360e+05
  -1.027000e+05  -7.668636e+05
   8.792986e+05  -9.165346e+05
   1.463433e+06  -3.340528e+05
   1.060655e+06   7.299058e+05
  -2.520214e+05   1.478415e+06
  -1.735529e+06   1.090435e+06
  -2.270512e+06  -4.774707e+05
  -1.157223e+06  -2.114978e+06
   1.002349e+06  -2.398422e+06
   2.561808e+06  -1.061126e+06
   2.382462e+06   6.541857e+05
   9.726642e+05   1.355972e+06
  -2.120811e+05   9.618317e+05
  -3.995118e+05   5.099641e+05
  -7.414886e+04   7.460499e+05
  -8.816339e+04   1.310498e+06
  -6.610499e+05   1.304655e+06
  -1.299376e+06   3.336356e+05
  -1.354255e+06  -1.077941e+06
  -5.730466e+05  -1.904544e+06
   6.172713e+05  -1.451299e+06
   1.297397e+06  -5.059877e+03
   8.306239e+05   1.290703e+06
  -3.841812e+05   1.415837e+06
  -1.176824e+06   4.233735e+05
  -8.334844e+05  -6.967976e+05
   1.108796e+05  -1.092852e+06
   5.373589e+05  -8.018045e+05
   8.744030e+04  -4.238501e+05
  -4.368221e+05  -3.333054e+05
  -6.214603e+04  -3.845014e+05
   1.157846e+06  -2.226245e+05
   2.083901e+06   3.164276e+05
   1.640239e+06   1.034405e+06
  -2.457269e+04   1.453288e+06
  -1.592869e+06   1.167963e+06
  -1.849199e+06   2.939305e+05
  -8.516357e+05  -4.963006e+05
   2.558419e+05  -5.792926e+05
   5.193512e+05  -3.902018e+04
   3.962336e+04   4.227240e+05
  -4.421340e+05   2.615061e+05
  -4.881908e+05  -3.398543e+05
  -2.617133e+05  -7.196159e+05
  -1.025504e+05  -4.760629e+05
  -1.418209e+05   9.388665e+04
  -2.826344e+05   2.894143e+05
  -2.792930e+05  -2.337147e+05
   1.356504e+05  -9.909519e+05
   8.969257e+05  -1.082325e+06
   1.371068e+06  -1.973541e+05
   8.704040e+05   9.071025e+05
  -4.030418e+05   1.155454e+06
  -1.261545e+06   3.590367e+05
  -7.430973e+05  -5.689441e+05
   7.054520e+05  -6.595888e+05
   1.603172e+06   9.104849e+04
   1.014682e+06   8.731837e+05
  -4.918676e+05   1.002200e+06
  -1.515134e+06   4.830440e+05
  -1.243725e+06  -1.943245e+05
  -1.340731e+05  -5.193167e+05
   6.569382e+05  -2.736492e+05
   3.941705e+05   2.937362e+05
  -5.786088e+05   5.329183e+05
  -1.190228e+06  -6.335916e+04
  -6.945406e+05  -1.175568e+06
   5.649779e+05  -1.720700e+06
   1.478462e+06  -9.125125e+05
   1.273058e+06   7.470200e+05
   2.221981e+05   1.802127e+06
  -7.379688e+05   1.306783e+06
  -9.368776e+05  -1.780257e+05
  -4.384104e+05  -1.203730e+06
   2.263237e+05  -9.788769e+05
   5.716724e+05  -8.681859e+04
   4.647037e+05   3.786623e+05
   1.558299e+05   1.385259e+05
   5.303140e+04  -9.541197e+04
   3.012356e+05   2.955569e+05
   5.296251e+05   9.704681e+05
   1.900507e+05   1.089137e+06
  -7.315720e+05   4.087752e+05
  -1.490180e+06  -4.552875e+05
  -1.287777e+06  -8.365998e+05
  -1.930081e+05  -7.060422e+05
   8.451167e+05  -4.290241e+05
   9.884708e+05  -1.881279e+05
   3.765980e+05   5.306923e+04
  -1.393632e+05   2.289260e+05
  -5.023578e+04   2.052401e+05
   2.502433e+05   8.904552e+04
   5.858416e+04   1.307245e+05
  -6.455986e+05   2.474397e+05
  -1.057130e+06   8.409015e+03
  -4.716198e+05  -6.879054e+05
   8.136790e+05  -1.206136e+06
   1.712581e+06  -8.042313e+05
   1.449499e+06   3.983084e+05
   3.048359e+05   1.410271e+06
  -7.568468e+05   1.407492e+06
  -1.048303e+06   5.717956e+05
  -6.597850e+05  -2.149129e+05
  -1.486967e+05  -3.578657e+05
   5.101467e+04  -7.474703e+04
  -9.115145e+04   7.171410e+03
  -3.017283e+05  -3.747996e+05
  -2.543807e+05  -8.144357e+05
   1.649845e+05  -6.918269e+05
   6.825369e+05   9.823136e+04
   7.710864e+05   9.315183e+05
   1.578865e+05   1.036046e+06
  -7.386916e+05   2.804576e+05
  -1.060136e+06  -6.884489e+05
  -3.854704e+05  -1.091467e+06
   7.005061e+05  -7.116019e+05
   1.139416e+06   4.641877e+04
   5.629182e+05   6.198362e+05
  -2.743211e+05   7.090259e+05
  -3.922013e+05   3.867981e+05
   2.293790e+05   1.713702e+03
   6.493071e+05  -5.359985e+04
   1.611820e+05   3.104656e+05
  -8.217841e+05   6.976526e+05
  -1.281497e+06   5.573602e+05
  -7.956212e+05  -1.760591e+05
   7.766627e+04  -8.868463e+05
   5.569176e+05  -8.865142e+05
   4.431208e+05  -1.901539e+05
   7.216557e+04   4.721687e+05
  -2.268513e+05   4.542420e+05
  -3.532609e+05  -1.239374e+05
  -2.706634e+05  -5.765343e+05
   3.614280e+04  -4.480044e+05
   3.946875e+05   2.898447e+04
   4.950011e+05   2.852958e+05
   2.494401e+05   1.040263e+05
  -5.014814e+04  -1.633025e+05
  -9.124906e+04  -7.202323e+04
   4.250776e+04   3.390358e+05
   2.235063e+03   5.690234e+05
  -2.982091e+05   2.590332e+05
  -4.908780e+05  -3.453508e+05
  -2.050659e+05  -6.404125e+05
   3.936929e+05  -3.337370e+05
   6.869992e+05   2.522835e+05
   2.769906e+05   5.636157e+05
  -5.098035e+05   3.840788e+05
  -9.026009e+05  -4.587183e+04
  -4.976744e+05  -3.692164e+05
   2.848065e+05  -4.253851e+05
   6.418593e+05  -2.636403e+05
   2.674807e+05  -3.044119e+04
  -3.227060e+05   8.834400e+04
  -3.996810e+05  -3.452086e+04
   1.478564e+05  -2.805935e+05
   7.143713e+05  -2.854729e+05
