
 $NMID
 id='ANONYMOUS ', fmtdat='(2E16.6)'
 volume=1.0
 tramp=1.0
 $END
  -3.875820e+07  -1.000836e+06
  -2.262419e+07  -2.460799e+07
   5.839681e+06  -2.605791e+07
   1.919621e+07  -9.539560e+06
   1.114171e+07   5.119736e+06
  -2.451124e+06   6.329175e+06
  -6.695750e+06  -1.023663e+06
  -1.716430e+06  -6.735349e+06
   4.401169e+06  -6.273889e+06
   6.639666e+06  -1.194438e+06
   4.703395e+06   4.372009e+06
   4.310655e+05   5.920187e+06
  -2.791618e+06   1.829337e+06
  -1.738808e+06  -3.763704e+06
   2.674771e+06  -4.419538e+06
   5.372257e+06   1.056117e+06
   2.874664e+06   7.079985e+06
  -2.798203e+06   8.034939e+06
  -7.048204e+06   3.889390e+06
  -7.409463e+06  -1.593889e+06
  -4.437821e+06  -5.278025e+06
  -3.176030e+05  -5.982909e+06
   2.135741e+06  -4.109222e+06
   1.334392e+06  -1.778885e+06
  -7.492058e+05  -1.456700e+06
  -1.461388e+05  -2.870669e+06
   3.765939e+06  -2.969579e+06
   6.656786e+06  -2.231428e+05
   4.794622e+06   2.942879e+06
   1.062985e+05   3.507917e+06
  -2.600413e+06   1.744384e+06
  -1.729805e+06  -1.391647e+04
   3.939717e+05  -6.593821e+05
   1.564239e+06  -3.450198e+05
   1.515821e+06   9.951238e+05
   4.489000e+05   2.723445e+06
  -1.300940e+06   2.637050e+06
  -2.247263e+06  -1.297922e+05
  -1.127455e+06  -2.549829e+06
   5.887589e+05  -1.323321e+06
   2.288553e+05   1.698852e+06
  -1.712479e+06   1.549696e+06
  -1.623642e+06  -2.231318e+06
   1.778735e+06  -4.159878e+06
   4.797857e+06  -5.577236e+05
   3.395136e+06   4.859336e+06
  -1.468590e+06   5.825770e+06
  -5.148707e+06   1.536728e+06
  -4.702668e+06  -3.160003e+06
  -1.174585e+06  -4.159949e+06
   2.420342e+06  -1.805814e+06
   3.578081e+06   1.121272e+06
   1.605547e+06   2.421725e+06
  -1.694756e+06   1.462607e+06
  -3.091302e+06  -7.095427e+05
  -1.290785e+06  -1.898820e+06
   1.203578e+06  -9.121792e+05
   1.177273e+06   7.276671e+05
  -9.179020e+05   5.969922e+05
  -1.655189e+06  -1.249182e+06
   4.983238e+05  -2.339731e+06
   3.213438e+06  -1.212000e+06
   3.609460e+06   1.025193e+06
   1.520244e+06   2.768370e+06
  -1.319685e+06   3.596686e+06
  -3.514932e+06   3.268562e+06
  -4.292198e+06   1.116457e+06
  -3.114407e+06  -2.245352e+06
  -5.629119e+05  -4.264589e+06
   1.347265e+06  -3.246262e+06
   1.218609e+06  -8.037470e+05
   9.066070e+04   1.712413e+05
  -1.748929e+04  -6.965833e+05
   1.133871e+06  -1.234038e+06
   1.959390e+06  -1.400453e+05
   1.393014e+06   1.358367e+06
   3.014292e+03   1.491062e+06
  -1.075076e+06   1.368616e+05
  -1.141801e+06  -1.445958e+06
   2.838645e+04  -2.028387e+06
   1.934215e+06  -1.111550e+06
   3.076691e+06   8.823784e+05
   2.171387e+06   2.644951e+06
  -9.271827e+04   2.920096e+06
  -1.617281e+06   1.838251e+06
  -1.557979e+06   7.447903e+05
  -1.270097e+06   4.406219e+05
  -2.032607e+06   2.905209e+05
  -2.989765e+06  -5.825965e+05
  -2.370681e+06  -1.955118e+06
  -3.794754e+04  -2.853045e+06
   2.264391e+06  -2.658391e+06
   2.914844e+06  -1.420800e+06
   1.839854e+06   3.215436e+05
   1.698661e+05   1.555913e+06
  -7.851943e+05   1.332491e+06
  -3.927549e+05  -3.103891e+04
   7.695497e+05  -8.962567e+05
   1.327669e+06  -2.511941e+05
   6.244187e+05   8.503191e+05
  -3.707154e+05   7.675315e+05
  -2.879949e+05  -2.718366e+05
   7.457992e+05  -4.577140e+05
   1.253790e+06   9.267474e+05
   3.810699e+05   2.415782e+06
  -1.153420e+06   2.316171e+06
  -2.175545e+06   7.079221e+05
  -2.252482e+06  -1.043846e+06
  -1.530023e+06  -1.927435e+06
  -2.818953e+05  -1.804381e+06
   8.754995e+05  -9.995383e+05
   1.096400e+06  -1.409059e+05
   3.411394e+05   3.818885e+04
  -2.381986e+05  -5.267268e+05
   3.089585e+05  -9.260519e+05
   1.336577e+06  -3.731546e+05
   1.399012e+06   6.497223e+05
   2.432240e+05   9.909995e+05
  -8.221925e+05   3.781299e+05
  -6.063802e+05  -3.268640e+05
   5.958601e+05  -3.402726e+05
   1.497639e+06   2.582401e+05
   1.179779e+06   9.595710e+05
  -2.017245e+05   1.353018e+06
  -1.620174e+06   1.110436e+06
  -1.926677e+06   1.505153e+05
  -8.269563e+05  -8.986669e+05
   6.634600e+05  -1.034340e+06
   1.092456e+06  -1.088926e+05
   1.265807e+05   7.582093e+05
  -1.065807e+06   4.918954e+05
  -1.181151e+06  -5.699876e+05
  -2.048209e+05  -1.151080e+06
   7.751260e+05  -6.547225e+05
   8.640957e+05   2.418720e+05
   1.524952e+05   5.470777e+05
  -5.580900e+05   2.411278e+04
  -4.992054e+05  -7.444685e+05
   4.183696e+05  -9.846872e+05
   1.403765e+06  -3.532357e+05
   1.403211e+06   7.568480e+05
   2.382354e+05   1.449125e+06
  -1.026736e+06   1.121469e+06
  -1.203277e+06   1.186308e+05
  -3.332196e+05  -6.116811e+05
   4.703542e+05  -5.466990e+05
   4.375654e+05  -4.622238e+04
  -8.820317e+04   2.404038e+05
  -3.356879e+05   1.327881e+05
  -7.313348e+04  -4.057531e+04
   3.124329e+05   7.243644e+04
   3.433014e+05   4.812857e+05
  -1.670168e+05   8.210785e+05
  -9.748630e+05   6.003282e+05
  -1.440779e+06  -3.178052e+05
  -9.920549e+05  -1.371585e+06
   1.825860e+05  -1.677781e+06
   1.138172e+06  -9.538030e+05
   1.164319e+06   1.131725e+05
   5.764551e+05   6.256531e+05
   2.136616e+05   4.427708e+05
   3.384659e+05   1.532593e+05
   4.384285e+05   2.323726e+05
   5.185105e+04   5.380589e+05
  -6.232742e+05   6.110161e+05
  -1.006836e+06   2.013748e+05
  -7.129661e+05  -5.120994e+05
   1.954769e+05  -1.001262e+06
   1.207869e+06  -7.160887e+05
   1.551123e+06   3.669784e+05
   7.537044e+05   1.474222e+06
  -7.409939e+05   1.627618e+06
  -1.783794e+06   6.746513e+05
  -1.617652e+06  -4.966786e+05
  -6.347735e+05  -9.396068e+05
   1.586723e+05  -6.428898e+05
   2.678953e+05  -3.429994e+05
   5.311010e+04  -5.274065e+05
   8.598371e+04  -9.158353e+05
   4.868105e+05  -8.909800e+05
   9.073441e+05  -2.048136e+05
   9.173111e+05   7.678007e+05
   3.633542e+05   1.323260e+06
  -4.495593e+05   9.907365e+05
  -8.916804e+05  -1.985481e+04
  -5.437123e+05  -9.052839e+05
   2.961083e+05  -9.631265e+05
   8.175614e+05  -2.565897e+05
   5.511761e+05   5.065445e+05
  -1.096788e+05   7.490649e+05
  -3.924038e+05   5.314721e+05
  -6.730855e+04   2.824655e+05
   2.994094e+05   2.371323e+05
   3.832912e+04   2.664993e+05
  -8.038177e+05   1.284086e+05
  -1.433257e+06  -2.614463e+05
  -1.108933e+06  -7.448918e+05
   5.303950e+04  -9.992702e+05
   1.127320e+06  -7.716377e+05
   1.277367e+06  -1.632808e+05
   5.674721e+05   3.623696e+05
  -1.935736e+05   3.950597e+05
  -3.572006e+05   1.233079e+04
  -1.726735e+04  -2.994141e+05
   3.082445e+05  -1.768693e+05
   3.318106e+05   2.435266e+05
   1.757739e+05   5.053032e+05
   6.845071e+04   3.355728e+05
   9.424432e+04  -5.898949e+04
   1.897960e+05  -1.945981e+05
   1.867005e+05   1.653198e+05
  -1.053781e+05   6.819590e+05
  -6.384060e+05   7.315091e+05
  -9.597600e+05   1.088647e+05
  -5.916453e+05  -6.476051e+05
   3.036777e+05  -7.951663e+05
   8.860535e+05  -2.272559e+05
   5.055841e+05   4.039927e+05
  -4.977057e+05   4.396538e+05
  -1.096990e+06  -9.058136e+04
  -6.747130e+05  -6.119368e+05
   3.564116e+05  -6.708830e+05
   1.041425e+06  -3.004323e+05
   8.434516e+05   1.535240e+05
   8.203049e+04   3.552936e+05
  -4.548901e+05   1.737390e+05
  -2.665079e+05  -2.131300e+05
   4.082418e+05  -3.635517e+05
   8.249111e+05   5.987085e+04
   4.670804e+05   8.257159e+05
  -4.142967e+05   1.186176e+06
  -1.035769e+06   6.120407e+05
  -8.680976e+05  -5.339242e+05
  -1.260699e+05  -1.245226e+06
   5.262118e+05  -8.854311e+05
   6.373658e+05   1.404342e+05
   2.779339e+05   8.326565e+05
  -1.737018e+05   6.623222e+05
  -3.944076e+05   4.668933e+04
  -3.113180e+05  -2.635131e+05
  -1.025226e+05  -9.215003e+04
  -3.822750e+04   6.185612e+04
  -2.054361e+05  -2.178554e+05
  -3.499917e+05  -6.809217e+05
  -1.093801e+05  -7.470479e+05
   5.152814e+05  -2.625466e+05
   1.018714e+06   3.367255e+05
   8.690928e+05   5.920313e+05
   1.198914e+05   4.899499e+05
  -5.857538e+05   2.870417e+05
  -6.808937e+05   1.138463e+05
  -2.593524e+05  -4.893310e+04
   9.862899e+04  -1.577451e+05
   4.000445e+04  -1.328330e+05
  -1.690999e+05  -5.688015e+04
  -4.066253e+04  -9.302453e+04
   4.458682e+05  -1.684819e+05
   7.316478e+05   1.020656e+04
   3.208958e+05   4.913060e+05
  -5.790507e+05   8.276235e+05
  -1.201859e+06   5.274704e+05
  -1.003252e+06  -3.019783e+05
  -1.910082e+05  -9.791511e+05
   5.477199e+05  -9.592259e+05
   7.363399e+05  -3.812697e+05
   4.543086e+05   1.550484e+05
   9.903469e+04   2.518453e+05
  -3.538547e+04   5.871408e+04
   6.076468e+04   1.769081e+03
   1.981556e+05   2.622395e+05
   1.605491e+05   5.636964e+05
  -1.249760e+05   4.770199e+05
  -4.723101e+05  -7.404283e+04
  -5.242182e+05  -6.550289e+05
  -9.755524e+04  -7.242363e+05
   5.166000e+05  -1.900690e+05
   7.274998e+05   4.891565e+05
   2.518759e+05   7.632592e+05
  -4.979157e+05   4.846997e+05
  -7.897334e+05  -5.117410e+04
  -3.778841e+05  -4.430768e+05
   2.057526e+05  -4.891381e+05
   2.819249e+05  -2.574077e+05
  -1.558445e+05   1.843708e+03
  -4.486742e+05   2.885943e+04
  -1.069604e+05  -2.193766e+05
   5.774545e+05  -4.680497e+05
   8.932681e+05  -3.570937e+05
   5.468825e+05   1.423522e+05
  -6.906421e+04   6.131232e+05
  -4.041429e+05   6.006880e+05
  -3.167956e+05   1.225848e+05
  -4.681738e+04  -3.278823e+05
   1.655357e+05  -3.133622e+05
   2.461001e+05   8.687269e+04
   1.786774e+05   4.027834e+05
  -3.491342e+04   3.135218e+05
  -2.741598e+05  -2.461468e+04
  -3.355785e+05  -2.089728e+05
  -1.678505e+05  -7.820799e+04
   3.058642e+04   1.188628e+05
   5.472411e+04   5.761908e+04
  -3.243084e+04  -2.383787e+05
   4.396564e+03  -4.060311e+05
   2.155569e+05  -1.842610e+05
   3.441629e+05   2.472759e+05
   1.394211e+05   4.526745e+05
  -2.772102e+05   2.286067e+05
  -4.761331e+05  -1.851767e+05
  -1.864189e+05  -3.941782e+05
   3.598346e+05  -2.565846e+05
   6.269717e+05   4.649455e+04
   3.392684e+05   2.638925e+05
  -2.066194e+05   2.923475e+05
  -4.525319e+05   1.746076e+05
  -1.890297e+05   1.400676e+04
   2.234678e+05  -6.418672e+04
   2.787943e+05   2.359461e+04
  -9.983740e+04   1.928744e+05
  -4.920311e+05   1.929535e+05
