
 $NMID
 id='ANONYMOUS ', fmtdat='(2E16.6)'
 volume=1.0
 tramp=1.0
 $END
   4.628785e+07  -6.659175e+05
   2.879883e+07   2.685414e+07
  -4.474240e+06   3.095265e+07
  -2.188697e+07   1.382936e+07
  -1.420458e+07  -3.981783e+06
   1.840740e+06  -7.805618e+06
   8.306073e+06  -1.808273e+05
   3.372601e+06   7.823674e+06
  -4.333864e+06   8.757450e+06
  -8.019096e+06   2.596403e+06
  -6.201623e+06  -5.179797e+06
  -8.665823e+05  -7.606181e+06
   3.501989e+06  -2.275723e+06
   2.569998e+06   5.159544e+06
  -2.889171e+06   6.268986e+06
  -6.737193e+06  -5.810136e+05
  -4.225432e+06  -8.463880e+06
   2.735779e+06  -1.011975e+07
   8.345724e+06  -5.122565e+06
   8.957594e+06   1.756819e+06
   5.215817e+06   6.170134e+06
   3.982321e+05   6.715734e+06
  -1.906510e+06   4.538406e+06
  -4.784555e+05   2.436352e+06
   1.671254e+06   2.710111e+06
   2.651764e+04   4.365232e+06
  -5.393937e+06   3.920046e+06
  -8.916045e+06   1.428307e+05
  -6.104953e+06  -3.815266e+06
   2.908495e+05  -4.392373e+06
   3.828664e+06  -1.913637e+06
   2.199127e+06   6.519992e+05
  -1.295027e+06   1.433072e+06
  -2.957198e+06   3.630840e+05
  -2.200776e+06  -1.982829e+06
  -2.000820e+05  -3.993384e+06
   1.795487e+06  -3.175462e+06
   2.388522e+06   5.421750e+05
   9.548592e+05   3.072962e+06
  -7.035923e+05   1.011595e+06
  -2.284999e+04  -2.772333e+06
   2.273662e+06  -2.339900e+06
   2.309300e+06   2.531969e+06
  -1.465744e+06   5.162887e+06
  -5.234521e+06   1.098004e+06
  -4.236741e+06  -5.433868e+06
   1.224355e+06  -6.976549e+06
   6.148645e+06  -2.150224e+06
   6.362135e+06   3.653078e+06
   2.120573e+06   5.342039e+06
  -2.962593e+06   2.780161e+06
  -5.011613e+06  -9.376348e+05
  -2.623542e+06  -2.926057e+06
   1.817741e+06  -2.077516e+06
   3.932907e+06   5.132130e+05
   1.873496e+06   2.172341e+06
  -1.386699e+06   1.229286e+06
  -1.725092e+06  -8.144893e+05
   7.866422e+05  -1.065917e+06
   2.184569e+06   8.876417e+05
   8.962080e+04   2.516377e+06
  -3.331811e+06   1.802129e+06
  -4.432983e+06  -6.379991e+05
  -2.200234e+06  -3.129914e+06
   1.595012e+06  -4.658466e+06
   4.699777e+06  -4.363869e+06
   5.625967e+06  -1.457666e+06
   3.934358e+06   2.945728e+06
   8.041343e+05   5.580795e+06
  -1.380748e+06   4.455944e+06
  -1.336743e+06   1.539528e+06
  -3.753473e+05   2.669823e+05
  -5.838646e+05   1.092919e+06
  -2.019266e+06   1.438415e+06
  -2.833768e+06  -2.257278e+05
  -1.830466e+06  -2.268234e+06
   2.556897e+05  -2.301442e+06
   1.840191e+06  -1.617807e+05
   1.805094e+06   2.223329e+06
  -5.198158e+04   2.937206e+06
  -2.702186e+06   1.448140e+06
  -4.063726e+06  -1.274823e+06
  -2.757376e+06  -3.400291e+06
   8.068046e+04  -3.594356e+06
   1.872377e+06  -2.271537e+06
   1.776973e+06  -1.070634e+06
   1.571189e+06  -8.277937e+05
   2.784989e+06  -6.740834e+05
   4.221858e+06   5.344160e+05
   3.479958e+06   2.563442e+06
   2.477006e+05   4.054276e+06
  -3.124814e+06   3.909666e+06
  -4.174414e+06   2.055179e+06
  -2.596945e+06  -5.573160e+05
  -1.093091e+05  -2.276021e+06
   1.213934e+06  -1.847035e+06
   5.400042e+05   9.640652e+04
  -1.111574e+06   1.285330e+06
  -1.828247e+06   4.051439e+05
  -8.368863e+05  -1.143027e+06
   5.557727e+05  -1.123654e+06
   5.548645e+05   3.478875e+05
  -8.363514e+05   8.973692e+05
  -1.837119e+06  -7.864914e+05
  -1.086546e+06  -3.105535e+06
   9.640793e+05  -3.572541e+06
   2.865067e+06  -1.660525e+06
   3.528263e+06   1.039856e+06
   2.629716e+06   2.729912e+06
   6.087178e+05   2.729930e+06
  -1.260113e+06   1.504977e+06
  -1.608144e+06   2.175310e+05
  -4.923652e+05  -3.604949e+04
   3.777201e+05   7.358704e+05
  -3.375767e+05   1.290740e+06
  -1.791147e+06   6.065052e+05
  -1.994039e+06  -7.548531e+05
  -4.562705e+05  -1.332084e+06
   1.128611e+06  -6.213769e+05
   9.665982e+05   4.198326e+05
  -7.756732e+05   6.529424e+05
  -2.272268e+06  -1.184248e+05
  -1.950618e+06  -1.300001e+06
   1.046469e+05  -2.087845e+06
   2.278702e+06  -1.798910e+06
   2.778797e+06  -3.652025e+05
   1.229842e+06   1.192409e+06
  -8.542854e+05   1.446168e+06
  -1.469834e+06   2.018715e+05
  -1.781823e+05  -1.030525e+06
   1.479267e+06  -7.508435e+05
   1.735889e+06   7.016562e+05
   4.460486e+05   1.627755e+06
  -1.002406e+06   1.070133e+06
  -1.279018e+06  -1.912736e+05
  -3.285058e+05  -7.408375e+05
   7.484555e+05  -8.493436e+04
   7.380982e+05   1.022437e+06
  -5.632422e+05   1.420187e+06
  -1.999118e+06   5.584197e+05
  -2.039761e+06  -1.017719e+06
  -4.263816e+05  -2.049142e+06
   1.372773e+06  -1.667963e+06
   1.704775e+06  -2.759752e+05
   5.500498e+05   8.385902e+05
  -6.220726e+05   8.357067e+05
  -6.733288e+05   8.874045e+04
   7.047674e+04  -4.361358e+05
   5.423623e+05  -3.007788e+05
   2.476261e+05   7.661582e+04
  -3.803228e+05   3.605056e+04
  -5.643094e+05  -5.711979e+05
   1.188596e+05  -1.171478e+06
   1.336252e+06  -9.409825e+05
   2.086884e+06   3.550077e+05
   1.502004e+06   1.904080e+06
  -1.636737e+05   2.441854e+06
  -1.591207e+06   1.505350e+06
  -1.747721e+06  -4.195763e+04
  -9.663977e+05  -9.259755e+05
  -3.657298e+05  -7.732131e+05
  -4.187142e+05  -2.925065e+05
  -5.511078e+05  -2.734492e+05
  -9.345063e+04  -7.093091e+05
   8.288657e+05  -9.340264e+05
   1.454904e+06  -4.023375e+05
   1.127296e+06   7.105211e+05
  -1.743086e+05   1.532153e+06
  -1.703855e+06   1.161871e+06
  -2.288027e+06  -4.178033e+05
  -1.221414e+06  -2.060819e+06
   8.953418e+05  -2.382307e+06
   2.471970e+06  -1.131742e+06
   2.395859e+06   5.377753e+05
   1.081216e+06   1.310524e+06
  -1.295976e+05   1.029177e+06
  -4.312504e+05   5.969186e+05
  -1.661615e+05   7.519762e+05
  -1.293504e+05   1.248978e+06
  -6.275039e+05   1.255156e+06
  -1.255875e+06   3.297743e+05
  -1.347765e+06  -1.059905e+06
  -5.905855e+05  -1.889700e+06
   6.009140e+05  -1.453547e+06
   1.293672e+06  -3.960469e+04
   8.582488e+05   1.235738e+06
  -3.108381e+05   1.398683e+06
  -1.094331e+06   4.877179e+05
  -8.155359e+05  -5.897437e+05
   3.947793e+04  -1.025333e+06
   4.399738e+05  -8.016613e+05
   4.210408e+04  -4.488862e+05
  -4.273740e+05  -3.449596e+05
  -5.910197e+04  -3.902307e+05
   1.117357e+06  -2.444493e+05
   2.033547e+06   2.728930e+05
   1.640088e+06   9.752669e+05
   4.009778e+04   1.398285e+06
  -1.510063e+06   1.157744e+06
  -1.805604e+06   3.526514e+05
  -8.603269e+05  -4.110500e+05
   2.247831e+05  -5.440173e+05
   4.929410e+05  -7.046705e+04
   1.826365e+04   3.836207e+05
  -4.592333e+05   2.580958e+05
  -4.823243e+05  -3.338513e+05
  -2.236415e+05  -7.346654e+05
  -6.310283e+04  -4.834912e+05
  -1.391574e+05   1.302569e+05
  -3.071248e+05   3.407396e+05
  -2.896512e+05  -2.209843e+05
   1.419564e+05  -1.008532e+06
   8.758083e+05  -1.079297e+06
   1.308867e+06  -1.724859e+05
   8.207644e+05   9.023129e+05
  -3.933032e+05   1.108602e+06
  -1.225003e+06   3.206846e+05
  -7.419817e+05  -5.733234e+05
   6.778886e+05  -6.740938e+05
   1.613950e+06   3.547367e+04
   1.086735e+06   8.293301e+05
  -4.187576e+05   1.037773e+06
  -1.502664e+06   5.761998e+05
  -1.280381e+06  -1.301134e+05
  -1.692629e+05  -5.226611e+05
   6.402103e+05  -3.052418e+05
   3.779513e+05   2.741001e+05
  -5.969622e+05   5.183862e+05
  -1.188331e+06  -8.609229e+04
  -6.646120e+05  -1.190079e+06
   5.993992e+05  -1.712068e+06
   1.495258e+06  -8.977308e+05
   1.279950e+06   7.501883e+05
   2.384522e+05   1.810119e+06
  -7.175361e+05   1.341913e+06
  -9.427559e+05  -1.327878e+05
  -4.863823e+05  -1.187638e+06
   1.671773e+05  -9.986645e+05
   5.547159e+05  -1.102955e+05
   5.018121e+05   3.746596e+05
   1.938052e+05   1.418612e+05
   3.683335e+04  -1.046003e+05
   2.517202e+05   2.762408e+05
   5.216371e+05   9.566470e+05
   2.469014e+05   1.087738e+06
  -6.774505e+05   4.179176e+05
  -1.503464e+06  -4.368994e+05
  -1.338051e+06  -8.141038e+05
  -2.053021e+05  -6.945420e+05
   8.752540e+05  -4.408614e+05
   9.972003e+05  -2.154489e+05
   3.447233e+05   3.269141e+04
  -1.509389e+05   2.290353e+05
  -3.801662e+03   2.195284e+05
   2.985107e+05   1.028127e+05
   4.331012e+04   1.355978e+05
  -6.925062e+05   2.441920e+05
  -1.053101e+06   3.116901e+03
  -4.117948e+05  -6.867595e+05
   8.493545e+05  -1.192091e+06
   1.680946e+06  -7.797044e+05
   1.401428e+06   4.208591e+05
   2.987393e+05   1.417341e+06
  -7.368999e+05   1.395340e+06
  -1.047295e+06   5.489515e+05
  -6.709153e+05  -2.333723e+05
  -1.322112e+05  -3.588487e+05
   9.194987e+04  -5.560215e+04
  -7.232453e+04   3.476852e+04
  -3.220587e+05  -3.560283e+05
  -2.770313e+05  -8.088916e+05
   1.706904e+05  -6.844510e+05
   6.956353e+05   1.215836e+05
   7.549601e+05   9.587051e+05
   1.159817e+05   1.037171e+06
  -7.684146e+05   2.478708e+05
  -1.055233e+06  -7.221983e+05
  -3.629901e+05  -1.090679e+06
   7.080042e+05  -6.848645e+05
   1.120046e+06   5.600817e+04
   5.373635e+05   5.921024e+05
  -2.737578e+05   6.717667e+05
  -3.575553e+05   3.740374e+05
   2.685756e+05   8.966567e+03
   6.592062e+05  -5.226889e+04
   1.484599e+05   3.042316e+05
  -8.165908e+05   7.063112e+05
  -1.240924e+06   5.862319e+05
  -7.537393e+05  -1.486202e+05
   7.908483e+04  -8.719950e+05
   5.219569e+05  -8.676824e+05
   4.089843e+05  -1.589653e+05
   5.689562e+04   4.899958e+05
  -2.350357e+05   4.356538e+05
  -3.609587e+05  -1.552485e+05
  -2.676581e+05  -5.770274e+05
   4.834226e+04  -4.185884e+05
   3.953552e+05   4.239220e+04
   4.800804e+05   2.615706e+05
   2.458332e+05   8.200804e+04
  -2.949985e+04  -1.393972e+05
  -8.200704e+04  -1.719313e+04
   5.577336e+02   3.678012e+05
  -6.805793e+04   5.423037e+05
  -3.283062e+05   2.018111e+05
  -4.533111e+05  -3.908340e+05
  -1.479328e+05  -6.542363e+05
   4.122162e+05  -3.206789e+05
   6.681579e+05   2.762045e+05
   2.632094e+05   5.787781e+05
  -4.988319e+05   3.785329e+05
  -8.842266e+05  -6.182378e+04
  -4.882539e+05  -3.699787e+05
   2.875418e+05  -4.002891e+05
   6.364765e+05  -2.323443e+05
   2.413784e+05  -2.132068e+04
  -3.639787e+05   6.774520e+04
  -4.202663e+05  -6.915586e+04
   1.739101e+05  -3.084149e+05
   7.634856e+05  -2.937193e+05
