
 $NMID
 id='ANONYMOUS ', fmtdat='(2E16.6)'
 volume=1.0
 tramp=1.0
 $END
  -1.879819e+07   1.004508e+06
  -1.172941e+07  -1.120554e+07
   2.197598e+06  -1.291019e+07
   9.221691e+06  -5.127284e+06
   5.561155e+06   2.542618e+06
  -1.256925e+06   3.639905e+06
  -3.643127e+06  -7.704569e+04
  -1.282403e+06  -3.419689e+06
   1.953561e+06  -3.527155e+06
   3.389261e+06  -8.568423e+05
   2.558928e+06   2.279365e+06
   2.343758e+05   3.217197e+06
  -1.701583e+06   1.044852e+06
  -1.312339e+06  -1.952819e+06
   1.034053e+06  -2.369942e+06
   2.601663e+06   3.428750e+05
   1.482796e+06   3.281985e+06
  -1.269183e+06   3.697999e+06
  -3.300286e+06   1.722578e+06
  -3.474963e+06  -8.007108e+05
  -2.122270e+06  -2.522529e+06
  -1.633345e+05  -2.924210e+06
   1.137945e+06  -2.000669e+06
   8.173072e+05  -6.705078e+05
  -3.846836e+05  -3.843982e+05
  -3.574639e+05  -1.301795e+06
   1.593781e+06  -1.766492e+06
   3.366761e+06  -5.304213e+05
   2.696787e+06   1.396250e+06
   2.372471e+05   2.124492e+06
  -1.420418e+06   1.309588e+06
  -1.115288e+06   1.261413e+05
   3.049438e+04  -4.660403e+05
   6.915374e+05  -3.033430e+05
   6.471366e+05   4.901733e+05
   1.022323e+05   1.361522e+06
  -7.376363e+05   1.217014e+06
  -1.205335e+06  -2.201995e+05
  -6.525760e+05  -1.389456e+06
   2.984712e+05  -7.249678e+05
   2.707383e+05   8.005379e+05
  -7.025556e+05   7.425390e+05
  -8.715969e+05  -1.124045e+06
   6.653039e+05  -2.132883e+06
   2.309691e+06  -4.626253e+05
   1.925828e+06   2.178087e+06
  -3.509801e+05   2.824159e+06
  -2.341782e+06   9.966245e+05
  -2.380455e+06  -1.192472e+06
  -7.337612e+05  -1.876766e+06
   1.128566e+06  -1.014299e+06
   1.802036e+06   3.834008e+05
   8.064148e+05   1.270761e+06
  -9.413786e+05   9.822855e+05
  -1.702539e+06  -2.327802e+05
  -7.434423e+05  -1.098771e+06
   6.308077e+05  -6.549249e+05
   6.727416e+05   3.713241e+05
  -4.511909e+05   4.562175e+05
  -9.362543e+05  -5.587825e+05
   9.813419e+04  -1.269181e+06
   1.487577e+06  -7.340823e+05
   1.733337e+06   4.339898e+05
   7.617844e+05   1.275543e+06
  -5.251988e+05   1.626617e+06
  -1.507202e+06   1.530709e+06
  -1.934745e+06   6.295763e+05
  -1.520698e+06  -9.684139e+05
  -3.590013e+05  -2.042991e+06
   6.508219e+05  -1.575534e+06
   6.631027e+05  -2.674683e+05
   1.365027e+04   2.882755e+05
  -2.158092e+05  -2.683109e+05
   3.382937e+05  -7.664827e+05
   9.460012e+05  -3.115583e+05
   8.539284e+05   5.685615e+05
   1.359767e+05   8.306693e+05
  -5.794019e+05   2.288619e+05
  -7.281498e+05  -6.333416e+05
  -1.121845e+05  -1.045824e+06
   9.219108e+05  -6.704038e+05
   1.530472e+06   3.097535e+05
   1.088769e+06   1.219053e+06
  -1.310872e+04   1.384033e+06
  -7.396064e+05   8.430440e+05
  -6.934252e+05   2.969614e+05
  -5.254330e+05   1.993354e+05
  -8.555892e+05   2.357441e+05
  -1.326001e+06  -9.833609e+04
  -1.142370e+06  -7.645353e+05
  -1.895734e+05  -1.294359e+06
   8.487232e+05  -1.332584e+06
   1.281155e+06  -8.173593e+05
   9.555568e+05   5.728599e+04
   2.087234e+05   7.716009e+05
  -3.710436e+05   7.327649e+05
  -3.015581e+05  -5.868837e+02
   2.999959e+05  -5.502507e+05
   7.056474e+05  -2.464813e+05
   4.078568e+05   4.322617e+05
  -1.808186e+05   5.134103e+05
  -2.612965e+05  -5.079140e+04
   2.417350e+05  -3.155895e+05
   5.965591e+05   2.589335e+05
   2.838074e+05   1.036339e+06
  -4.095931e+05   1.105552e+06
  -9.169094e+05   4.098165e+05
  -1.022063e+06  -3.981161e+05
  -7.712161e+05  -8.173525e+05
  -2.284021e+05  -7.973407e+05
   3.581143e+05  -4.782173e+05
   5.291852e+05  -9.292729e+04
   1.664050e+05   2.806975e+04
  -1.819651e+05  -2.259707e+05
   4.846202e+04  -4.859503e+05
   6.219336e+05  -3.071124e+05
   7.761738e+05   2.089564e+05
   2.566451e+05   5.197877e+05
  -3.512385e+05   3.494239e+05
  -3.882269e+05  -2.355489e+04
   1.254953e+05  -1.945590e+05
   6.198935e+05  -4.646917e+04
   6.002513e+05   2.957522e+05
   3.493437e+04   6.126008e+05
  -6.582085e+05   6.205897e+05
  -9.044774e+05   1.746924e+05
  -4.583765e+05  -4.167340e+05
   2.732818e+05  -5.685613e+05
   5.635903e+05  -1.164115e+05
   1.475808e+05   3.925007e+05
  -4.736272e+05   3.439664e+05
  -6.242986e+05  -1.831047e+05
  -1.962978e+05  -5.629183e+05
   3.336712e+05  -4.149769e+05
   4.827061e+05   2.363767e+04
   1.925901e+05   2.787055e+05
  -2.086557e+05   1.431491e+05
  -3.079850e+05  -2.141211e+05
   4.902582e+04  -4.409158e+05
   5.583305e+05  -2.699770e+05
   6.767779e+05   2.340946e+05
   2.038869e+05   6.535818e+05
  -4.248621e+05   5.907342e+05
  -6.016676e+05   1.088093e+05
  -2.420227e+05  -3.234595e+05
   1.830195e+05  -3.572320e+05
   2.668765e+05  -9.738867e+04
   7.719945e+04   1.236130e+05
  -7.869059e+04   1.453374e+05
  -5.576261e+04   6.464747e+04
   6.144911e+04   4.706473e+04
   1.114630e+05   1.594538e+05
  -3.410661e+04   3.112778e+05
  -3.640421e+05   2.894114e+05
  -6.290530e+05  -5.036841e+04
  -5.059053e+05  -5.421468e+05
   5.859343e+03  -7.716547e+05
   4.868328e+05  -5.080420e+05
   5.531347e+05   1.888904e+03
   2.967208e+05   3.052672e+05
   1.004409e+05   2.511753e+05
   1.160357e+05   8.292283e+04
   1.453393e+05   6.353483e+04
   1.682713e+03   1.797424e+05
  -2.379461e+05   2.367511e+05
  -3.714612e+05   1.037278e+05
  -2.799570e+05  -1.765688e+05
   3.737669e+04  -4.096118e+05
   4.534647e+05  -3.526034e+05
   6.791887e+05   6.942930e+04
   4.365024e+05   5.882919e+05
  -1.958404e+05   7.614869e+05
  -7.397534e+05   4.234192e+05
  -7.761901e+05  -1.112272e+05
  -3.815700e+05  -3.945943e+05
   1.142393e+04  -3.290704e+05
   1.191836e+05  -1.939350e+05
   3.904470e+04  -2.406636e+05
   2.378162e+04  -4.007343e+05
   1.776174e+05  -4.116290e+05
   3.882792e+05  -1.329758e+05
   4.499041e+05   2.996169e+05
   2.373328e+05   5.803405e+05
  -1.501570e+05   4.816784e+05
  -4.110352e+05   6.173842e+04
  -3.086984e+05  -3.532832e+05
   5.439904e+04  -4.452881e+05
   3.185562e+05  -1.919696e+05
   2.603526e+05   1.442938e+05
   2.321077e+04   3.055115e+05
  -9.315681e+04   2.627843e+05
   2.375384e+03   1.580932e+05
   1.126937e+05   1.076667e+05
   4.181854e+03   1.079081e+05
  -3.205049e+05   8.047350e+04
  -5.948670e+05  -4.298259e+04
  -5.221484e+05  -2.492651e+05
  -7.654932e+04  -4.160550e+05
   4.156056e+05  -3.931487e+05
   5.594952e+05  -1.655375e+05
   2.934609e+05   8.781793e+04
  -5.289935e+04   1.585862e+05
  -1.407046e+05   3.246992e+04
   1.999203e+04  -9.934572e+04
   1.656431e+05  -6.076731e+04
   1.431767e+05   1.151856e+05
   4.346645e+04   2.323947e+05
   5.690175e+03   1.543018e+05
   4.064161e+04  -3.752387e+04
   7.685310e+04  -1.177953e+05
   5.984092e+04   3.545696e+04
  -4.148796e+04   2.764397e+05
  -2.170707e+05   3.216326e+05
  -3.420738e+05   7.114866e+04
  -2.356029e+05  -2.480889e+05
   9.570784e+04  -3.194836e+05
   3.519135e+05  -9.092437e+04
   2.270023e+05   1.781818e+05
  -2.030278e+05   2.161464e+05
  -5.076171e+05   8.665578e+03
  -3.608036e+05  -2.404390e+05
   1.066410e+05  -3.326939e+05
   4.597781e+05  -2.183917e+05
   4.100554e+05   5.016715e+03
   7.178932e+04   1.636208e+05
  -1.902632e+05   1.254405e+05
  -1.251444e+05  -6.136112e+04
   1.725731e+05  -1.632792e+05
   3.638498e+05   1.248379e+04
   2.075063e+05   3.621762e+05
  -1.875337e+05   5.313885e+05
  -4.700532e+05   2.781843e+05
  -4.047595e+05  -2.350003e+05
  -8.490900e+04  -5.680054e+05
   2.099918e+05  -4.347752e+05
   2.952816e+05   1.373022e+04
   1.843883e+05   3.532912e+05
  -5.284320e+03   3.213851e+05
  -1.530490e+05   5.799328e+04
  -1.766923e+05  -1.035404e+05
  -8.585817e+04  -4.140125e+04
  -7.424069e+03   4.335855e+04
  -6.073020e+04  -6.499319e+04
  -1.730375e+05  -2.861868e+05
  -1.184672e+05  -3.478189e+05
   1.823713e+05  -1.492579e+05
   4.812312e+05   1.194850e+05
   4.459568e+05   2.391686e+05
   7.039359e+04   2.048162e+05
  -2.863798e+05   1.392931e+05
  -3.124216e+05   8.456787e+04
  -8.987122e+04   4.215649e+03
   5.629312e+04  -7.597736e+04
  -1.389704e+04  -8.138924e+04
  -1.108697e+05  -3.241191e+04
  -1.011354e+04  -3.090548e+04
   2.278807e+05  -7.279167e+04
   3.202689e+05  -1.316057e+04
   1.037792e+05   1.999568e+05
  -2.711791e+05   3.671818e+05
  -4.973474e+05   2.444122e+05
  -4.068538e+05  -1.298204e+05
  -9.455563e+04  -4.371186e+05
   2.024476e+05  -4.250632e+05
   3.060005e+05  -1.643199e+05
   2.074335e+05   6.871754e+04
   3.969469e+04   9.999794e+04
  -4.198639e+04   3.582794e+03
   1.387880e+04  -2.620154e+04
   1.145040e+05   9.519633e+04
   1.123485e+05   2.433079e+05
  -4.087078e+04   2.142747e+05
  -2.220348e+05  -3.581569e+04
  -2.379026e+05  -3.012815e+05
  -2.465318e+04  -3.215209e+05
   2.518187e+05  -6.432542e+04
   3.273598e+05   2.360818e+05
   1.058615e+05   3.327096e+05
  -2.150680e+05   1.987672e+05
  -3.309817e+05  -1.153094e+04
  -1.590409e+05  -1.545799e+05
   6.816450e+04  -1.853964e+05
   7.987402e+04  -1.199113e+05
  -1.041289e+05  -1.708951e+04
  -2.042298e+05   1.591222e+04
  -3.862805e+04  -8.752819e+04
   2.470688e+05  -2.298658e+05
   3.628563e+05  -2.109850e+05
   2.159458e+05   2.324463e+04
  -1.884713e+04   2.650129e+05
  -1.362333e+05   2.651822e+05
  -1.021832e+05   3.619873e+04
  -7.751089e+03  -1.590592e+05
   7.266306e+04  -1.221261e+05
   1.114616e+05   6.563757e+04
   8.358265e+04   1.762300e+05
  -1.596560e+04   1.118732e+05
  -1.228707e+05  -1.764604e+04
  -1.466055e+05  -6.390540e+04
  -7.692363e+04  -1.325420e+04
   3.156155e+03   2.654927e+04
   2.713551e+04  -2.609662e+04
   2.305254e+04  -1.253979e+05
   5.380514e+04  -1.468012e+05
   1.121854e+05  -2.929596e+04
   1.171612e+05   1.404009e+05
   1.558567e+04   2.025148e+05
  -1.338507e+05   9.076201e+04
  -1.928238e+05  -9.220103e+04
  -7.465241e+04  -1.814874e+05
   1.435543e+05  -1.167746e+05
   2.607196e+05   1.921912e+04
   1.489681e+05   1.103602e+05
  -8.531900e+04   1.138359e+05
  -1.923263e+05   6.050439e+04
  -6.178619e+04   2.752072e+03
   1.347541e+05  -1.172149e+04
   1.422303e+05   3.994532e+04
  -6.819693e+04   1.123096e+05
  -2.643749e+05   9.675788e+04
