
 $NMID
 id='ANONYMOUS ', fmtdat='(2E16.6)'
 volume=1.0
 tramp=1.0
 $END
  -1.645986e+06   5.781723e+05
  -1.051419e+06  -1.306141e+06
   3.914280e+05  -1.366039e+06
   8.928880e+05  -1.609975e+04
   2.371786e+05   7.482611e+05
  -3.521244e+05   2.374608e+05
  -1.684649e+05  -4.202526e+05
   2.719387e+05  -3.060755e+05
   3.533667e+05   1.483166e+05
   1.834680e+05   2.261915e+05
   9.795211e+04   2.042667e+04
   8.648844e+04  -1.216660e+04
   2.795115e+04   1.418891e+05
   2.104284e+03   2.106880e+05
   7.507324e+04   1.626458e+05
   1.145386e+05   1.457510e+05
   3.006059e+04   1.780410e+05
  -8.348791e+04   2.007651e+05
  -1.771524e+05   2.121846e+05
  -3.199556e+05   1.466624e+05
  -4.210053e+05  -1.148326e+05
  -2.261412e+05  -4.317770e+05
   2.280225e+05  -4.131708e+05
   4.884457e+05   2.510431e+04
   2.552662e+05   4.105589e+05
  -1.885736e+05   3.057143e+05
  -3.604864e+05  -1.054369e+05
  -1.631815e+05  -3.233727e+05
   1.435718e+05  -1.952904e+05
   3.259609e+05   5.532760e+04
   2.804378e+05   2.533117e+05
  -1.842838e+04   3.514939e+05
  -3.847681e+05   2.412415e+05
  -4.372752e+05  -1.043478e+05
  -6.842827e+04  -3.761308e+05
   2.784127e+05  -2.335873e+05
   1.536713e+05   1.494648e+05
  -2.350920e+05   2.507325e+05
  -3.195661e+05  -5.525449e+04
  -2.057557e+04  -3.336369e+05
   1.924040e+05  -2.699975e+05
   9.350315e+04  -8.898684e+04
   1.584837e+04  -8.922228e+04
   2.128780e+05  -1.481004e+05
   3.994819e+05  -5.341713e+03
   2.401242e+05   2.407045e+05
  -8.048001e+04   2.864238e+05
  -1.554034e+05   1.163500e+05
   2.080652e+04  -3.640079e+03
   1.143090e+05   4.418518e+04
  -4.043613e+03   1.133735e+05
  -1.435854e+05   8.703482e+04
  -1.593227e+05   2.009389e+04
  -1.063261e+05  -2.551166e+04
  -4.505240e+04  -6.198101e+04
   2.478809e+04  -7.136678e+04
   3.791726e+04  -2.016595e+04
  -6.738262e+04   8.210524e+03
  -1.525362e+05  -1.018069e+05
  -1.786581e+04  -2.603989e+05
   2.434022e+05  -2.363323e+05
   3.138385e+05  -7.867816e+03
   1.298275e+05   1.701394e+05
  -6.824690e+03   1.349325e+05
   9.157881e+04   3.692547e+04
   2.055800e+05   6.596417e+04
   8.834222e+04   1.563652e+05
  -1.203070e+05   1.437970e+05
  -1.285890e+05   6.318257e+04
   3.238017e+04   7.593676e+04
   6.943419e+04   1.825413e+05
  -1.139757e+05   2.139252e+05
  -3.014489e+05   8.395958e+04
  -2.980673e+05  -1.158847e+05
  -1.421196e+05  -2.606254e+05
   3.975813e+04  -2.876018e+05
   1.772005e+05  -1.698029e+05
   2.103890e+05   5.153866e+04
   9.233638e+04   2.094321e+05
  -8.747394e+04   1.454597e+05
  -1.382742e+05  -6.825641e+04
  -1.135130e+04  -1.814479e+05
   1.184916e+05  -8.094754e+04
   9.326938e+04   7.735730e+04
  -2.454612e+04   1.029859e+05
  -7.334895e+04   7.508202e+03
  -9.614745e+03  -6.907536e+04
   8.945868e+04  -5.562045e+04
   1.473839e+05   2.087963e+04
   1.172929e+05   1.155501e+05
  -2.320033e+04   1.748187e+05
  -2.005731e+05   1.307369e+05
  -2.463970e+05  -1.359028e+04
  -8.926160e+04  -1.370206e+05
   1.112167e+05  -1.284770e+05
   1.435988e+05  -2.745038e+04
   1.375644e+04   4.071195e+04
  -8.988396e+04   2.861137e+04
  -6.383587e+04  -1.513676e+04
   1.818095e+04  -4.594909e+04
   6.584067e+04  -4.608937e+04
   7.235550e+04   1.163029e+04
   3.556954e+04   1.110046e+05
  -6.814357e+04   1.329343e+05
  -1.755318e+05  -1.761718e+04
  -1.406017e+05  -2.259820e+05
   6.239224e+04  -2.531721e+05
   2.454332e+05  -4.513339e+04
   2.211048e+05   1.761262e+05
   3.801588e+04   1.961128e+05
  -1.000805e+05   6.355527e+04
  -9.425624e+04  -2.741310e+04
  -2.260219e+04  -7.612131e+03
   1.126527e+04   3.573205e+04
  -9.302168e+03   3.297133e+04
  -4.707257e+04   4.845817e+03
  -6.255485e+04  -1.856355e+04
  -2.590289e+04  -3.578734e+04
   4.716077e+04  -2.835179e+04
   7.107315e+04   2.440434e+04
  -1.879027e+04   7.371705e+04
  -1.468496e+05   3.590220e+04
  -1.569763e+05  -7.803706e+04
  -1.494394e+04  -1.492973e+05
   1.325679e+05  -1.024643e+05
   1.415584e+05  -7.474420e+02
   3.960420e+04   4.906442e+04
  -4.070805e+04   2.610053e+04
  -3.322241e+04  -1.467482e+04
   2.271339e+04  -2.944763e+04
   6.808954e+04  -1.110152e+04
   7.528265e+04   3.266193e+04
   3.669030e+04   7.501128e+04
  -2.902318e+04   7.247079e+04
  -6.664705e+04   1.951594e+04
  -3.815379e+04  -2.333681e+04
   1.486152e+04  -2.492514e+03
   1.378319e+04   4.884165e+04
  -5.024497e+04   5.239394e+04
  -1.008834e+05  -8.859408e+03
  -7.562248e+04  -7.537266e+04
   3.285564e+03  -9.279443e+04
   6.786211e+04  -6.110243e+04
   7.565668e+04  -8.031671e+03
   3.059060e+04   3.675363e+04
  -2.950247e+04   4.113452e+04
  -5.147931e+04  -4.546884e+03
  -9.050482e+03  -5.392463e+04
   5.579457e+04  -4.457291e+04
   6.727722e+04   1.508627e+04
   1.149659e+04   4.636274e+04
  -3.702595e+04   7.521809e+03
  -1.077279e+04  -4.596205e+04
   6.107998e+04  -3.759731e+04
   9.276170e+04   3.291260e+04
   4.743548e+04   1.022822e+05
  -3.461218e+04   1.205332e+05
  -9.561637e+04   8.017518e+04
  -1.085306e+05  -4.651740e+01
  -7.598287e+04  -7.821576e+04
  -2.218992e+04  -1.004003e+05
   1.427228e+04  -5.571948e+04
   1.465831e+04  -5.209824e+03
   8.776685e+03  -9.775430e+03
   3.665673e+04  -4.226658e+04
   8.045744e+04  -2.443926e+04
   7.424928e+04   5.223390e+04
  -5.664252e+03   1.026472e+05
  -9.657558e+04   6.044118e+04
  -1.174817e+05  -3.740727e+04
  -5.507526e+04  -1.044162e+05
   3.855195e+04  -1.012260e+05
   1.071603e+05  -4.852578e+04
   1.228283e+05   1.897160e+04
   8.192619e+04   7.196884e+04
   7.261172e+03   8.522596e+04
  -5.331144e+04   5.893365e+04
  -6.484589e+04   3.005809e+04
  -4.413375e+04   2.809064e+04
  -3.548389e+04   3.001283e+04
  -4.796236e+04  -5.805117e+03
  -4.506113e+04  -6.878996e+04
  -2.945517e+03  -9.880313e+04
   4.949640e+04  -6.274579e+04
   6.538981e+04   6.120199e+03
   3.590126e+04   5.386306e+04
  -6.648900e+03   6.069822e+04
  -3.000686e+04   3.907468e+04
  -2.875843e+04   5.977049e+03
  -1.647566e+04  -2.411709e+04
  -7.924110e+03  -3.832565e+04
  -8.503737e+03  -3.613627e+04
  -9.478417e+03  -2.971852e+04
   6.215228e+03  -2.280274e+04
   4.279506e+04  -4.075828e+03
   7.538121e+04   2.796222e+04
   6.693528e+04   5.172588e+04
   9.439632e+03   4.923410e+04
  -5.752000e+04   3.021532e+04
  -8.001581e+04   1.372657e+04
  -4.494039e+04   2.070758e+03
   4.500766e+03  -8.739351e+03
   1.583735e+04  -1.056993e+04
  -1.325654e+04  -1.429879e+02
  -3.513717e+04   1.379494e+03
  -1.534433e+04  -2.235436e+04
   2.123411e+04  -4.464551e+04
   2.453846e+04  -2.562512e+04
  -1.073644e+04   2.068210e+04
  -3.647188e+04   3.280017e+04
  -1.578830e+04  -1.128658e+04
   3.009756e+04  -5.474737e+04
   5.356526e+04  -3.700075e+04
   3.754028e+04   2.292384e+04
   1.222738e+03   5.414831e+04
  -3.233173e+04   2.660795e+04
  -4.699410e+04  -2.203389e+04
  -2.509962e+04  -4.413581e+04
   3.451582e+04  -2.925866e+04
   8.801963e+04   7.255488e+03
   7.435048e+04   4.640855e+04
  -9.172105e+03   6.501279e+04
  -8.601303e+04   4.393882e+04
  -8.223277e+04  -3.599484e+03
  -1.447034e+04  -3.304978e+04
   3.192508e+04  -1.878929e+04
   7.509738e+03   1.041962e+04
  -4.653497e+04   6.433907e+03
  -5.455450e+04  -3.676443e+04
   4.205998e+03  -7.569767e+04
   7.678622e+04  -6.691424e+04
   9.729001e+04  -8.391742e+03
   5.213086e+04   6.295113e+04
  -1.520769e+04   9.871543e+04
  -5.371603e+04   7.043616e+04
  -5.003227e+04  -3.887794e+03
  -2.494501e+04  -6.383339e+04
   1.252381e+03  -5.950983e+04
   2.336561e+04  -7.039328e+03
   3.506184e+04   2.872594e+04
   2.408080e+04   1.488404e+04
  -2.992990e+03  -9.862647e+03
  -1.404821e+04   5.927816e+03
   5.205839e+03   5.008968e+04
   1.802172e+04   6.179071e+04
  -1.712028e+04   1.605944e+04
  -7.350588e+04  -4.222812e+04
  -7.553000e+04  -5.855195e+04
  -3.602949e+03  -3.376503e+04
   6.615647e+04  -8.659569e+03
   5.925568e+04  -3.879306e+03
   3.270607e+03  -3.567359e+03
  -1.704951e+04   7.715199e+03
   1.596298e+04   2.067645e+04
   3.394298e+04   2.045193e+04
  -7.765178e+03   8.632923e+03
  -6.004248e+04  -5.770567e+03
  -4.983517e+04  -2.168532e+04
   1.985522e+04  -3.679068e+04
   7.959392e+04  -3.398609e+04
   8.134554e+04   1.900869e+03
   3.768987e+04   5.388948e+04
  -1.506855e+04   7.840234e+04
  -5.249208e+04   5.098935e+04
  -5.989076e+04  -2.894917e+03
  -3.253173e+04  -3.334636e+04
   7.822058e+03  -1.945245e+04
   2.296904e+04   1.070351e+04
   2.421251e+03   1.436827e+04
  -1.991074e+04  -1.646606e+04
  -9.330305e+03  -4.421087e+04
   2.330958e+04  -2.681090e+04
   3.639569e+04   3.066168e+04
   1.000465e+04   7.276748e+04
  -3.295844e+04   5.089636e+04
  -5.387140e+04  -1.920441e+04
  -3.393886e+04  -7.053097e+04
   1.272488e+04  -5.868771e+04
   4.930132e+04  -7.783222e+03
   4.470145e+04   2.672939e+04
   5.733778e+03   2.474426e+04
  -2.315444e+04   1.100588e+04
  -7.847192e+03   8.417887e+03
   3.055765e+04   1.161388e+04
   3.798324e+04   1.108047e+04
  -3.745219e+03   1.403542e+04
  -5.178948e+04   2.395484e+04
  -5.573525e+04   2.189778e+04
  -1.722460e+04  -5.848837e+03
   1.979842e+04  -3.468304e+04
   2.463274e+04  -2.697578e+04
   5.284810e+03   1.164595e+04
  -1.464082e+04   3.234571e+04
  -2.217954e+04   8.010178e+03
  -1.620406e+04  -2.933328e+04
  -1.010940e+03  -3.352051e+04
   1.369726e+04  -5.407960e+03
   1.807693e+04   1.568330e+04
   1.368668e+04   9.948933e+03
   1.054083e+04  -1.703262e+03
   8.898882e+03   5.010214e+03
  -3.435425e+03   2.341962e+04
  -2.815376e+04   2.834797e+04
  -4.381139e+04   8.209381e+03
  -2.967660e+04  -2.457033e+04
   5.412832e+03  -4.593688e+04
   3.212116e+04  -3.731386e+04
   3.391605e+04  -8.077243e+02
   1.747626e+04   3.575869e+04
  -5.239887e+03   3.947340e+04
  -2.629377e+04   7.608233e+03
  -3.294580e+04  -2.558984e+04
  -1.282101e+04  -2.707992e+04
   2.113787e+04  -2.691113e+03
   3.106601e+04   1.438712e+04
  -2.959293e+02   5.764625e+03
  -3.668124e+04  -1.587054e+04
  -2.641317e+04  -2.863170e+04
   2.830040e+04  -2.286150e+04
   6.631484e+04  -4.767204e+02
