
 $NMID
 id='ANONYMOUS ', fmtdat='(2E16.6)'
 volume=1.0
 tramp=1.0
 $END
   2.666238e+07   1.008791e+06
   1.715552e+07   1.361216e+07
  -1.026661e+06   1.700791e+07
  -1.209763e+07   1.036018e+07
  -9.545292e+06   3.224414e+05
  -2.187803e+05  -4.803943e+06
   5.440209e+06  -1.950882e+06
   3.691506e+06   4.465447e+06
  -1.667070e+06   7.068800e+06
  -5.097404e+06   2.911811e+06
  -4.143473e+06  -3.587927e+06
  -3.393866e+05  -5.526200e+06
   2.595499e+06  -1.098846e+06
   1.864694e+06   4.561766e+06
  -1.770123e+06   5.237261e+06
  -4.451363e+06   2.578948e+05
  -3.052333e+06  -5.354928e+06
   1.503285e+06  -6.547326e+06
   5.219666e+06  -2.959487e+06
   5.159399e+06   1.705481e+06
   2.152075e+06   3.844038e+06
  -4.564468e+05   3.050598e+06
  -3.141083e+05   1.689027e+06
   1.636440e+06   1.991321e+06
   2.154292e+06   3.664024e+06
  -7.803703e+05   4.339056e+06
  -5.290378e+06   2.365439e+06
  -7.022074e+06  -1.162049e+06
  -3.822861e+06  -3.457267e+06
   1.470518e+06  -2.877833e+06
   3.820611e+06  -3.292530e+05
   1.434550e+06   1.864273e+06
  -2.537651e+06   1.923355e+06
  -3.872352e+06  -2.457591e+05
  -1.784563e+06  -2.952797e+06
   1.009408e+06  -3.758004e+06
   1.855807e+06  -1.666683e+06
   7.197104e+05   1.326116e+06
  -5.574611e+05   1.910293e+06
  -4.964084e+05  -6.137482e+05
   8.047249e+05  -3.043757e+06
   2.022937e+06  -2.045371e+06
   1.780091e+06   1.455950e+06
  -1.141842e+05   3.204537e+06
  -2.160229e+06   9.239563e+05
  -2.206832e+06  -2.854740e+06
   4.203378e+05  -3.917986e+06
   3.766346e+06  -1.181179e+06
   4.716776e+06   2.572194e+06
   2.030857e+06   4.050117e+06
  -2.163600e+06   2.494480e+06
  -4.235118e+06  -3.187380e+05
  -2.571117e+06  -2.056154e+06
   8.757084e+05  -1.653986e+06
   2.686031e+06   7.331560e+04
   1.494537e+06   1.276526e+06
  -8.342598e+05   8.332689e+05
  -1.530575e+06  -5.589783e+05
  -3.003267e+04  -1.231564e+06
   1.585291e+06  -4.340748e+05
   1.133726e+06   9.300091e+05
  -1.122806e+06   1.383619e+06
  -2.730355e+06   2.978080e+05
  -1.680130e+06  -1.700361e+06
   1.472888e+06  -3.206202e+06
   4.171442e+06  -2.873038e+06
   4.368879e+06  -4.476930e+05
   2.345992e+06   2.644240e+06
   9.386538e+04   4.249694e+06
  -8.502196e+05   3.548823e+06
  -7.227905e+05   1.877589e+06
  -7.854031e+05   1.026308e+06
  -1.648588e+06   1.053570e+06
  -2.616979e+06   5.138136e+05
  -2.556096e+06  -1.224431e+06
  -1.110200e+06  -2.773664e+06
   9.225783e+05  -2.307545e+06
   2.166126e+06   1.272566e+05
   1.645339e+06   2.460596e+06
  -4.015785e+05   2.689795e+06
  -2.481764e+06   7.605336e+05
  -2.948055e+06  -1.621231e+06
  -1.523110e+06  -2.730438e+06
   3.843423e+05  -2.262331e+06
   1.208299e+06  -1.247580e+06
   9.768440e+05  -7.763423e+05
   1.106696e+06  -8.925771e+05
   2.381143e+06  -7.133902e+05
   3.644050e+06   4.707834e+05
   2.980587e+06   2.318286e+06
   7.672122e+04   3.627261e+06
  -3.066046e+06   3.328891e+06
  -3.989937e+06   1.403896e+06
  -2.208205e+06  -9.558139e+05
   3.820786e+05  -2.134673e+06
   1.448997e+06  -1.420839e+06
   4.383603e+05   2.325336e+05
  -1.161688e+06   1.032843e+06
  -1.573283e+06   2.331159e+05
  -5.314312e+05  -1.000403e+06
   6.699487e+05  -9.889152e+05
   6.954164e+05   3.107436e+05
  -4.798908e+05   1.114870e+06
  -1.643974e+06  -3.058897e+04
  -1.517393e+06  -2.350498e+06
   1.555251e+05  -3.539838e+06
   2.372951e+06  -2.231678e+06
   3.561236e+06   6.023262e+05
   2.771571e+06   2.718637e+06
   5.668846e+05   2.769060e+06
  -1.318122e+06   1.329009e+06
  -1.534440e+06   3.591145e+04
  -4.456878e+05  -5.877728e+04
   3.166562e+05   6.753974e+05
  -2.773782e+05   1.067267e+06
  -1.480552e+06   4.632021e+05
  -1.697555e+06  -6.180531e+05
  -4.391960e+05  -1.111002e+06
   1.007264e+06  -5.640418e+05
   9.845080e+05   4.096270e+05
  -6.472457e+05   7.714415e+05
  -2.243833e+06   4.303072e+04
  -2.034944e+06  -1.276431e+06
   3.436645e+04  -2.116151e+06
   2.192062e+06  -1.700249e+06
   2.577291e+06  -2.552787e+05
   1.047482e+06   1.059884e+06
  -7.756966e+05   1.148815e+06
  -1.191958e+06   9.168474e+04
  -3.981833e+04  -8.568872e+05
   1.340073e+06  -5.842903e+05
   1.557306e+06   6.424122e+05
   4.666716e+05   1.485586e+06
  -8.508556e+05   1.069074e+06
  -1.201640e+06  -6.413198e+04
  -3.941101e+05  -6.370053e+05
   5.994973e+05  -7.621379e+04
   5.859654e+05   9.309098e+05
  -6.091280e+05   1.228895e+06
  -1.843300e+06   3.599065e+05
  -1.768692e+06  -1.040426e+06
  -2.895230e+05  -1.850833e+06
   1.267151e+06  -1.447324e+06
   1.538261e+06  -2.275738e+05
   5.203835e+05   7.584556e+05
  -5.715165e+05   7.695858e+05
  -6.936794e+05   3.967025e+04
   2.245169e+04  -5.358166e+05
   6.246965e+05  -3.887800e+05
   4.475741e+05   1.300767e+05
  -2.386491e+05   2.189276e+05
  -5.629811e+05  -3.863525e+05
   4.403625e+04  -1.034667e+06
   1.212765e+06  -8.270889e+05
   1.876335e+06   3.946113e+05
   1.266972e+06   1.787278e+06
  -2.677109e+05   2.243755e+06
  -1.543683e+06   1.401353e+06
  -1.702042e+06  -4.323683e+04
  -9.933637e+05  -9.971895e+05
  -3.344276e+05  -9.680599e+05
  -2.321404e+05  -4.296700e+05
  -3.387449e+05  -2.096297e+05
  -3.475271e+04  -5.478145e+05
   7.495820e+05  -8.420722e+05
   1.377702e+06  -3.805086e+05
   1.105797e+06   7.335163e+05
  -1.620376e+05   1.520761e+06
  -1.625562e+06   1.072944e+06
  -2.120888e+06  -4.628560e+05
  -1.096572e+06  -1.913335e+06
   8.065306e+05  -2.127791e+06
   2.220704e+06  -1.008494e+06
   2.227458e+06   4.750047e+05
   1.106118e+06   1.249189e+06
  -7.667117e+04   1.091490e+06
  -5.372222e+05   6.598556e+05
  -3.839164e+05   6.493909e+05
  -2.684766e+05   1.005261e+06
  -5.933382e+05   1.024210e+06
  -1.096444e+06   2.134743e+05
  -1.147327e+06  -1.043304e+06
  -4.299515e+05  -1.759917e+06
   6.373183e+05  -1.296383e+06
   1.196959e+06   1.004675e+03
   7.624543e+05   1.111468e+06
  -2.541025e+05   1.256663e+06
  -9.168616e+05   5.128425e+05
  -7.118549e+05  -4.010411e+05
  -4.155538e+04  -8.420543e+05
   2.875268e+05  -7.399679e+05
   1.015175e+03  -4.733951e+05
  -3.417883e+05  -3.683433e+05
  -1.459043e+04  -3.717927e+05
   9.784091e+05  -1.915054e+05
   1.767650e+06   3.116539e+05
   1.450249e+06   9.157527e+05
   6.771561e+04   1.210377e+06
  -1.319827e+06   9.567235e+05
  -1.627965e+06   3.061343e+05
  -8.076291e+05  -2.916198e+05
   1.777725e+05  -4.285920e+05
   4.218497e+05  -9.403309e+04
  -3.781166e+04   2.724175e+05
  -4.725957e+05   1.864439e+05
  -4.073464e+05  -3.316744e+05
  -6.959028e+04  -7.040521e+05
   5.668557e+04  -4.461184e+05
  -1.481610e+05   1.762373e+05
  -3.747088e+05   3.723219e+05
  -2.713550e+05  -2.063101e+05
   2.300632e+05  -9.426282e+05
   8.485813e+05  -9.222549e+05
   1.088172e+06  -3.320512e+04
   5.906188e+05   8.635178e+05
  -4.118871e+05   9.024794e+05
  -1.065732e+06   1.402234e+05
  -6.307653e+05  -5.928943e+05
   6.308273e+05  -6.021930e+05
   1.520289e+06   6.348530e+04
   1.081390e+06   7.962170e+05
  -3.468156e+05   1.014004e+06
  -1.439473e+06   5.854939e+05
  -1.257891e+06  -1.180104e+05
  -1.771799e+05  -5.134955e+05
   5.934885e+05  -2.943282e+05
   3.029729e+05   2.382811e+05
  -6.165084e+05   3.933418e+05
  -1.069990e+06  -2.148407e+05
  -4.532940e+05  -1.158952e+06
   7.465940e+05  -1.492340e+06
   1.468290e+06  -6.696901e+05
   1.125535e+06   7.992046e+05
   1.007214e+05   1.700856e+06
  -7.420574e+05   1.246752e+06
  -8.834132e+05  -1.158799e+05
  -4.465181e+05  -1.117875e+06
   1.315764e+05  -9.632791e+05
   4.955277e+05  -1.072813e+05
   5.005257e+05   3.913207e+05
   2.353976e+05   1.671604e+05
   1.597990e+04  -1.167798e+05
   1.251401e+05   2.172716e+05
   3.930625e+05   8.901874e+05
   2.455224e+05   1.038230e+06
  -5.583136e+05   3.684417e+05
  -1.376271e+06  -4.922731e+05
  -1.264442e+06  -8.326559e+05
  -1.601260e+05  -6.371373e+05
   8.987137e+05  -3.438344e+05
   9.591621e+05  -1.648489e+05
   2.628828e+05   6.787467e+03
  -1.782704e+05   1.936124e+05
   5.887465e+04   2.466565e+05
   3.490500e+05   1.632928e+05
  -1.400233e+03   1.302875e+05
  -7.399685e+05   1.432670e+05
  -9.563572e+05  -8.929525e+04
  -2.125749e+05  -6.360097e+05
   9.344742e+05  -9.849102e+05
   1.535402e+06  -5.484347e+05
   1.153451e+06   5.200552e+05
   1.464603e+05   1.334370e+06
  -7.454101e+05   1.206372e+06
  -9.929262e+05   3.778058e+05
  -6.095110e+05  -3.062287e+05
  -6.169522e+04  -3.345028e+05
   1.565745e+05   8.641251e+03
  -4.557418e+04   8.487982e+04
  -3.122237e+05  -3.257599e+05
  -2.338021e+05  -7.628809e+05
   2.185180e+05  -5.981591e+05
   6.428962e+05   2.154555e+05
   5.749808e+05   9.831785e+05
  -5.440080e+04   9.454829e+05
  -7.662674e+05   9.350718e+04
  -8.872584e+05  -8.071893e+05
  -2.044433e+05  -1.018681e+06
   7.070023e+05  -5.189201e+05
   9.828862e+05   1.506801e+05
   4.095340e+05   5.240044e+05
  -2.882971e+05   5.253332e+05
  -2.882208e+05   3.051087e+05
   3.152929e+05   5.936400e+04
   6.264883e+05   1.136369e+04
   9.078146e+04   2.741400e+05
  -7.993405e+05   6.007421e+05
  -1.121726e+06   5.086684e+05
  -6.131906e+05  -1.285674e+05
   1.387375e+05  -7.654371e+05
   4.756289e+05  -7.335892e+05
   3.117969e+05  -6.931353e+04
  -2.262271e+04   4.807180e+05
  -2.579416e+05   3.429451e+05
  -3.200342e+05  -2.324294e+05
  -1.935796e+05  -5.502999e+05
   8.831514e+04  -3.205696e+05
   3.549810e+05   9.555415e+04
   4.015687e+05   2.282101e+05
   2.212892e+05   5.265066e+04
   1.247735e+04  -7.743138e+04
  -7.924358e+04   8.300120e+04
  -1.183455e+05   3.734350e+05
  -2.249569e+05   4.136499e+05
  -3.495295e+05   4.055500e+04
  -2.963192e+05  -4.635237e+05
   2.810099e+04  -6.140274e+05
   4.326481e+05  -2.293520e+05
   5.459798e+05   3.433054e+05
   1.633653e+05   5.742449e+05
  -4.651479e+05   3.014980e+05
  -7.654364e+05  -1.493512e+05
  -4.005034e+05  -3.758800e+05
   2.904618e+05  -2.966119e+05
   5.795736e+05  -1.065503e+05
   1.710967e+05   5.957538e+03
  -4.072237e+05  -2.191937e+04
  -4.039258e+05  -1.695526e+05
   2.437588e+05  -3.098605e+05
   8.180755e+05  -2.035561e+05
