
 $NMID
 id='ANONYMOUS ', fmtdat='(2E16.6)'
 volume=1.0
 tramp=1.0
 $END
  -3.815376e+07  -1.071513e+06
  -2.388315e+07  -2.048248e+07
   2.489031e+06  -2.452158e+07
   1.741931e+07  -1.342573e+07
   1.272721e+07   8.059506e+05
  -3.406841e+05   6.582969e+06
  -7.297047e+06   1.864925e+06
  -4.347938e+06  -6.280215e+06
   2.694120e+06  -8.994789e+06
   6.945973e+06  -3.439846e+06
   5.637613e+06   4.815642e+06
   5.989436e+05   7.332254e+06
  -3.441964e+06   1.687691e+06
  -2.547371e+06  -5.715827e+06
   2.397850e+06  -6.661586e+06
   6.024392e+06  -7.534346e+04
   4.034813e+06   7.388172e+06
  -2.188967e+06   8.971894e+06
  -7.276652e+06   4.202358e+06
  -7.404232e+06  -2.146257e+06
  -3.472927e+06  -5.437622e+06
   4.169589e+05  -4.805707e+06
   9.262420e+05  -2.792326e+06
  -1.431753e+06  -2.411224e+06
  -2.630834e+06  -4.125929e+06
   6.203265e+05  -5.359313e+06
   6.500661e+06  -3.445485e+06
   9.186378e+06   9.724153e+05
   5.365945e+06   4.332162e+06
  -1.466937e+06   4.021696e+06
  -4.727298e+06   9.338082e+05
  -2.065502e+06  -1.935721e+06
   2.674044e+06  -2.328931e+06
   4.500084e+06  -1.286770e+04
   2.417248e+06   3.299648e+06
  -8.024214e+05   4.730293e+06
  -2.273524e+06   2.508349e+06
  -1.416764e+06  -1.455455e+06
   2.641719e+05  -2.741808e+06
   7.587971e+05   2.888589e+05
  -6.600843e+05   3.695840e+06
  -2.501726e+06   2.616432e+06
  -2.301422e+06  -2.058404e+06
   5.399396e+05  -4.394051e+06
   3.487234e+06  -1.075767e+06
   3.204054e+06   4.256277e+06
  -7.972808e+05   5.612363e+06
  -5.285456e+06   1.687819e+06
  -6.225990e+06  -3.409008e+06
  -2.537765e+06  -5.258164e+06
   2.814999e+06  -3.134277e+06
   5.358604e+06   4.973601e+05
   3.157385e+06   2.686805e+06
  -1.310684e+06   2.104880e+06
  -3.602251e+06  -2.097906e+05
  -1.913647e+06  -1.785843e+06
   1.171075e+06  -1.116531e+06
   1.919822e+06   7.241500e+05
  -1.552451e+05   1.409866e+06
  -2.022999e+06   1.653006e+05
  -1.029305e+06  -1.499143e+06
   1.979722e+06  -1.722283e+06
   3.756000e+06  -8.384333e+04
   2.167951e+06   2.460352e+06
  -1.821076e+06   4.352815e+06
  -5.237626e+06   4.005487e+06
  -5.721868e+06   8.793587e+05
  -3.360867e+06  -3.328885e+06
  -3.561889e+05  -5.589037e+06
   1.140103e+06  -4.577392e+06
   9.875927e+05  -2.183981e+06
   7.778711e+05  -1.081598e+06
   1.688435e+06  -1.392113e+06
   3.059090e+06  -9.804457e+05
   3.275492e+06   1.164660e+06
   1.648257e+06   3.248218e+06
  -8.809745e+05   2.865345e+06
  -2.565283e+06  -6.518670e+03
  -2.121234e+06  -2.900744e+06
   3.376729e+05  -3.375038e+06
   3.102609e+06  -1.170574e+06
   3.966277e+06   1.860758e+06
   2.241197e+06   3.540401e+06
  -3.908208e+05   3.159044e+06
  -1.679247e+06   1.809345e+06
  -1.412168e+06   1.016942e+06
  -1.456149e+06   1.076010e+06
  -2.999808e+06   8.979247e+05
  -4.617602e+06  -5.307672e+05
  -3.822258e+06  -2.847643e+06
  -2.098440e+05  -4.551235e+06
   3.703400e+06  -4.297146e+06
   4.915279e+06  -1.985417e+06
   2.844232e+06   1.017982e+06
  -2.825878e+05   2.675936e+06
  -1.685222e+06   1.898603e+06
  -5.731126e+05  -2.397957e+05
   1.390230e+06  -1.359992e+06
   1.991410e+06  -3.570770e+05
   7.499466e+05   1.261193e+06
  -7.665740e+05   1.262811e+06
  -8.117496e+05  -3.672337e+05
   6.498176e+05  -1.290874e+06
   2.023550e+06   2.225074e+05
   1.749413e+06   3.022101e+06
  -3.325652e+05   4.289662e+06
  -2.950101e+06   2.594645e+06
  -4.327687e+06  -7.674462e+05
  -3.406922e+06  -3.242298e+06
  -7.735472e+05  -3.354097e+06
   1.566541e+06  -1.706528e+06
   1.899298e+06  -1.299489e+05
   5.589545e+05   5.594873e+04
  -4.160932e+05  -8.362925e+05
   3.413734e+05  -1.367824e+06
   1.888847e+06  -6.248158e+05
   2.160251e+06   7.662217e+05
   5.542301e+05   1.406150e+06
  -1.252492e+06   7.198721e+05
  -1.203513e+06  -4.798735e+05
   8.036643e+05  -9.173365e+05
   2.737487e+06  -5.929860e+04
   2.488283e+06   1.510617e+06
  -9.254884e+03   2.570601e+06
  -2.661294e+06   2.150716e+06
  -3.198484e+06   3.957969e+05
  -1.347550e+06  -1.312308e+06
   9.544592e+05  -1.498867e+06
   1.533947e+06  -1.579666e+05
   9.879470e+04   1.099144e+06
  -1.667567e+06   7.843468e+05
  -1.961424e+06  -7.712730e+05
  -5.916327e+05  -1.838471e+06
   1.054244e+06  -1.315660e+06
   1.481018e+06   8.975512e+04
   4.702112e+05   7.928864e+05
  -7.734354e+05   1.006817e+05
  -7.757347e+05  -1.156789e+06
   7.108987e+05  -1.571372e+06
   2.294700e+06  -5.324765e+05
   2.260821e+06   1.233015e+06
   4.272153e+05   2.312911e+06
  -1.550223e+06   1.852867e+06
  -1.918437e+06   3.207989e+05
  -6.560649e+05  -9.351474e+05
   6.960934e+05  -9.669385e+05
   8.403498e+05  -7.882454e+04
  -2.519996e+04   6.237306e+05
  -7.264048e+05   4.676061e+05
  -4.950642e+05  -1.243468e+05
   3.183605e+05  -2.151842e+05
   6.890871e+05   5.102054e+05
  -5.571027e+04   1.299501e+06
  -1.500088e+06   1.065796e+06
  -2.360675e+06  -4.343111e+05
  -1.650589e+06  -2.193679e+06
   2.511585e+05  -2.804173e+06
   1.866171e+06  -1.773780e+06
   2.089250e+06   1.238472e+04
   1.231672e+06   1.168824e+06
   4.505053e+05   1.117141e+06
   3.543123e+05   4.877490e+05
   4.768780e+05   2.760251e+05
   6.598826e+04   7.170242e+05
  -9.202307e+05   1.069306e+06
  -1.695170e+06   5.018044e+05
  -1.375653e+06  -8.617592e+05
   1.636862e+05  -1.862477e+06
   1.983595e+06  -1.371117e+06
   2.648620e+06   5.076986e+05
   1.412460e+06   2.355292e+06
  -9.700020e+05   2.683180e+06
  -2.761515e+06   1.306818e+06
  -2.772549e+06  -5.511426e+05
  -1.368692e+06  -1.512397e+06
   7.915794e+04  -1.312181e+06
   6.054417e+05  -8.048252e+05
   3.945878e+05  -8.411863e+05
   2.744588e+05  -1.308836e+06
   7.192976e+05  -1.327837e+06
   1.383086e+06  -3.126791e+05
   1.481107e+06   1.258654e+06
   6.068240e+05   2.180462e+06
  -7.427926e+05   1.642892e+06
  -1.489186e+06   3.447208e+04
  -9.780816e+05  -1.377340e+06
   3.026045e+05  -1.576544e+06
   1.155544e+06  -6.315850e+05
   8.986759e+05   5.313161e+05
   3.884399e+04   1.074856e+06
  -3.799250e+05   9.196752e+05
  -5.073882e+02   5.678407e+05
   4.520721e+05   4.378369e+05
   3.936597e+04   4.605941e+05
  -1.231209e+06   2.664720e+05
  -2.242252e+06  -3.382706e+05
  -1.842704e+06  -1.107843e+06
  -9.442650e+04  -1.527455e+06
   1.651015e+06  -1.247516e+06
   2.030820e+06  -4.174098e+05
   1.000970e+06   3.732976e+05
  -2.254343e+05   5.582110e+05
  -5.316112e+05   1.148123e+05
   2.784618e+04  -3.680282e+05
   5.705172e+05  -2.606470e+05
   5.264398e+05   3.981508e+05
   1.457640e+05   8.726191e+05
  -2.507402e+04   5.616565e+05
   1.714857e+05  -2.058766e+05
   4.271198e+05  -4.573054e+05
   3.414178e+05   2.504483e+05
  -2.346863e+05   1.179039e+06
  -1.028149e+06   1.190031e+06
  -1.397563e+06   9.699274e+04
  -8.065102e+05  -1.060923e+06
   4.847036e+05  -1.171420e+06
   1.350899e+06  -2.420923e+05
   8.168034e+05   7.068351e+05
  -7.712776e+05   7.682236e+05
  -1.883368e+06  -3.641088e+04
  -1.337828e+06  -9.540701e+05
   4.199433e+05  -1.248209e+06
   1.758509e+06  -7.431940e+05
   1.542386e+06   1.179289e+05
   2.256731e+05   6.239737e+05
  -7.305643e+05   3.738954e+05
  -3.951084e+05  -2.974415e+05
   7.425525e+05  -5.318355e+05
   1.350304e+06   2.042447e+05
   6.408068e+05   1.420992e+06
  -8.412791e+05   1.908321e+06
  -1.792042e+06   9.173290e+05
  -1.438755e+06  -9.396638e+05
  -1.992700e+05  -2.109144e+06
   8.715501e+05  -1.566758e+06
   1.096298e+06   1.275934e+05
   5.797199e+05   1.374295e+06
  -1.494420e+05   1.186192e+06
  -6.192019e+05   1.407495e+05
  -6.207835e+05  -4.603031e+05
  -2.798707e+05  -1.888693e+05
  -2.212663e+04   1.380509e+05
  -1.920352e+05  -2.851856e+05
  -5.349885e+05  -1.101115e+06
  -3.222553e+05  -1.274000e+06
   7.088673e+05  -4.713369e+05
   1.729227e+06   5.565109e+05
   1.583831e+06   9.823349e+05
   2.212532e+05   7.917644e+05
  -1.084759e+06   4.704996e+05
  -1.178715e+06   2.372078e+05
  -3.434184e+05  -1.332518e+04
   2.061849e+05  -2.518306e+05
  -6.081796e+04  -2.882340e+05
  -4.176183e+05  -1.706666e+05
  -1.427197e+04  -1.627985e+05
   8.895213e+05  -2.244114e+05
   1.200699e+06   6.335498e+04
   3.304583e+05   7.944628e+05
  -1.100083e+06   1.287778e+06
  -1.911820e+06   7.664954e+05
  -1.495947e+06  -5.885745e+05
  -2.515926e+05  -1.654476e+06
   8.859192e+05  -1.544465e+06
   1.225425e+06  -5.322028e+05
   7.719568e+05   3.402572e+05
   1.027482e+05   4.169337e+05
  -1.752572e+05   1.517222e+04
   5.900341e+04  -8.863916e+04
   3.899233e+05   3.989833e+05
   3.137402e+05   9.399124e+05
  -2.421960e+05   7.618593e+05
  -8.087488e+05  -2.222960e+05
  -7.783408e+05  -1.185931e+06
  -2.061506e+03  -1.188594e+06
   9.395861e+05  -1.775800e+05
   1.154188e+06   9.453970e+05
   3.169518e+05   1.265303e+06
  -8.573453e+05   6.982860e+05
  -1.246488e+06  -1.386281e+05
  -5.461768e+05  -6.549947e+05
   3.415112e+05  -6.910811e+05
   3.677584e+05  -3.957421e+05
  -3.743426e+05  -4.757548e+04
  -7.765800e+05   1.849346e+04
  -1.328545e+05  -3.435072e+05
   9.698246e+05  -7.816753e+05
   1.393589e+06  -6.641818e+05
   7.907753e+05   1.543942e+05
  -1.381402e+05   9.703424e+05
  -5.819172e+05   9.428098e+05
  -4.111435e+05   1.138077e+05
  -6.997197e+03  -5.929428e+05
   3.037432e+05  -4.525983e+05
   4.113772e+05   2.547928e+05
   2.697481e+05   6.774184e+05
  -9.278530e+04   4.235373e+05
  -4.493124e+05  -9.421303e+04
  -5.163980e+05  -2.819602e+05
  -2.768079e+05  -6.856717e+04
  -3.971515e+03   1.148858e+05
   9.065719e+04  -7.353164e+04
   1.000762e+05  -4.619681e+05
   2.242004e+05  -5.547584e+05
   4.263805e+05  -1.062155e+05
   4.218713e+05   5.438473e+05
   3.039096e+04   7.691987e+05
  -5.201114e+05   3.178129e+05
  -7.128603e+05  -3.913138e+05
  -2.421229e+05  -7.020803e+05
   5.732317e+05  -3.997901e+05
   9.756141e+05   1.434850e+05
   5.232587e+05   4.509019e+05
  -3.509165e+05   3.990677e+05
  -7.264229e+05   1.780645e+05
  -2.305335e+05   1.623334e+03
   4.883849e+05  -1.136437e+04
   5.058573e+05   1.682334e+05
  -2.690989e+05   3.863580e+05
  -9.803994e+05   2.968389e+05
