
 $NMID
 id='ANONYMOUS ', fmtdat='(2E16.6)'
 volume=1.0
 tramp=1.0
 $END
  -3.028708e+07  -1.799106e+06
  -1.854129e+07  -1.666073e+07
   2.414014e+06  -1.934870e+07
   1.407690e+07  -1.044292e+07
   1.016773e+07   7.228971e+05
  -3.227019e+05   5.227114e+06
  -5.867663e+06   1.450708e+06
  -3.434015e+06  -5.068269e+06
   2.268268e+06  -7.217916e+06
   5.615196e+06  -2.679786e+06
   4.411966e+06   3.985703e+06
   3.094687e+05   5.913826e+06
  -2.808986e+06   1.250144e+06
  -1.929074e+06  -4.705606e+06
   2.051019e+06  -5.352289e+06
   4.823131e+06   2.782806e+04
   3.089287e+06   5.987093e+06
  -1.924451e+06   7.129758e+06
  -5.899616e+06   3.183704e+06
  -5.837900e+06  -1.914245e+06
  -2.580639e+06  -4.419518e+06
   4.898314e+05  -3.752506e+06
   7.449178e+05  -2.125909e+06
  -1.226811e+06  -1.977740e+06
  -2.097667e+06  -3.479989e+06
   6.580650e+05  -4.379017e+06
   5.395889e+06  -2.612113e+06
   7.415220e+06   1.055202e+06
   4.191573e+06   3.646737e+06
  -1.347154e+06   3.189915e+06
  -3.893862e+06   5.870251e+05
  -1.616159e+06  -1.689821e+06
   2.297595e+06  -1.878927e+06
   3.732133e+06   1.085639e+05
   1.896142e+06   2.798190e+06
  -8.104870e+05   3.848211e+06
  -1.917977e+06   1.935805e+06
  -1.050598e+06  -1.261413e+06
   3.494560e+05  -2.186680e+06
   6.100997e+05   3.316047e+05
  -6.560353e+05   3.029192e+06
  -2.091590e+06   2.077637e+06
  -1.813438e+06  -1.681635e+06
   4.739153e+05  -3.488845e+06
   2.730836e+06  -7.916558e+05
   2.430598e+06   3.434574e+06
  -7.399239e+05   4.431747e+06
  -4.252892e+06   1.219976e+06
  -4.947426e+06  -2.874020e+06
  -1.962650e+06  -4.297321e+06
   2.331877e+06  -2.492333e+06
   4.338753e+06   4.900296e+05
   2.525528e+06   2.221331e+06
  -1.071453e+06   1.670682e+06
  -2.882524e+06  -2.289050e+05
  -1.508220e+06  -1.457505e+06
   9.563588e+05  -8.675188e+05
   1.546168e+06   6.202554e+05
  -1.165183e+05   1.155251e+06
  -1.626224e+06   1.553469e+05
  -8.563647e+05  -1.168379e+06
   1.552174e+06  -1.342848e+06
   2.993333e+06  -3.247832e+04
   1.696595e+06   1.991996e+06
  -1.578086e+06   3.459045e+06
  -4.350446e+06   3.102199e+06
  -4.647387e+06   5.519543e+05
  -2.607862e+06  -2.785011e+06
  -1.399933e+05  -4.522320e+06
   1.003141e+06  -3.680087e+06
   8.211502e+05  -1.784052e+06
   6.760382e+05  -9.099478e+05
   1.464079e+06  -1.108351e+06
   2.559038e+06  -6.970835e+05
   2.648950e+06   1.071416e+06
   1.249077e+06   2.721135e+06
  -8.133434e+05   2.329929e+06
  -2.116941e+06  -7.228838e+04
  -1.669606e+06  -2.431503e+06
   3.639098e+05  -2.745701e+06
   2.556226e+06  -8.607062e+05
   3.157475e+06   1.625060e+06
   1.702270e+06   2.916362e+06
  -4.023536e+05   2.516111e+06
  -1.382772e+06   1.397283e+06
  -1.139660e+06   7.888038e+05
  -1.192563e+06   8.540260e+05
  -2.456857e+06   6.748648e+05
  -3.744549e+06  -5.280650e+05
  -3.048402e+06  -2.400681e+06
  -6.885390e+04  -3.712640e+06
   3.121145e+06  -3.416246e+06
   4.059926e+06  -1.493618e+06
   2.290492e+06   9.126827e+05
  -3.110173e+05   2.180333e+06
  -1.431278e+06   1.499802e+06
  -4.587581e+05  -2.153828e+05
   1.170275e+06  -1.072522e+06
   1.625923e+06  -2.415222e+05
   5.722675e+05   1.042073e+06
  -6.596764e+05   1.010819e+06
  -6.629273e+05  -3.163515e+05
   5.421866e+05  -1.052852e+06
   1.642063e+06   1.893446e+05
   1.389527e+06   2.474463e+06
  -3.218767e+05   3.502937e+06
  -2.444779e+06   2.090934e+06
  -3.529844e+06  -6.957537e+05
  -2.731126e+06  -2.724389e+06
  -5.629610e+05  -2.765393e+06
   1.321267e+06  -1.357736e+06
   1.554950e+06  -5.878650e+04
   4.543377e+05   5.824067e+04
  -3.200881e+05  -6.910686e+05
   3.061782e+05  -1.102235e+06
   1.545576e+06  -4.644077e+05
   1.738154e+06   6.669091e+05
   4.222859e+05   1.152186e+06
  -1.035683e+06   5.594117e+05
  -9.761380e+05  -4.186216e+05
   6.720646e+05  -7.405964e+05
   2.242867e+06   5.963759e+02
   2.011351e+06   1.287939e+06
  -5.741421e+04   2.106952e+06
  -2.220561e+06   1.701915e+06
  -2.618446e+06   2.525602e+05
  -1.067215e+06  -1.096411e+06
   8.097121e+05  -1.192988e+06
   1.246091e+06  -9.143260e+04
   5.048904e+04   8.941330e+05
  -1.376018e+06   5.991566e+05
  -1.581579e+06  -6.701095e+05
  -4.467903e+05  -1.510857e+06
   8.834617e+05  -1.054647e+06
   1.206538e+06   9.883878e+04
   3.705117e+05   6.539324e+05
  -6.294383e+05   6.477963e+04
  -6.041133e+05  -9.608256e+05
   6.181825e+05  -1.264288e+06
   1.884584e+06  -3.790340e+05
   1.813938e+06   1.058672e+06
   2.951418e+05   1.894309e+06
  -1.303402e+06   1.474747e+06
  -1.569541e+06   2.204606e+05
  -5.156673e+05  -7.752787e+05
   5.881763e+05  -7.735519e+05
   6.905324e+05  -4.419300e+04
  -3.202360e+04   5.153086e+05
  -6.092572e+05   3.721096e+05
  -4.127506e+05  -1.148815e+05
   2.586796e+05  -1.786751e+05
   5.542827e+05   4.234287e+05
  -6.884396e+04   1.057339e+06
  -1.245474e+06   8.370295e+05
  -1.915428e+06  -4.067316e+05
  -1.295814e+06  -1.826168e+06
   2.686751e+05  -2.282677e+06
   1.562906e+06  -1.409345e+06
   1.708691e+06   5.313207e+04
   9.862068e+05   9.854205e+05
   3.452031e+05   9.329366e+05
   2.721500e+05   4.133770e+05
   3.754596e+05   2.334434e+05
   3.685497e+04   5.816615e+05
  -7.720711e+05   8.532671e+05
  -1.395906e+06   3.757551e+05
  -1.109067e+06  -7.351773e+05
   1.714828e+05  -1.522275e+06
   1.649968e+06  -1.078601e+06
   2.151888e+06   4.728355e+05
   1.102276e+06   1.952142e+06
  -8.466764e+05   2.165995e+06
  -2.277732e+06   1.007066e+06
  -2.251511e+06  -5.062264e+05
  -1.090631e+06  -1.264078e+06
   8.944358e+04  -1.075815e+06
   5.172112e+05  -6.498394e+05
   3.506746e+05  -6.765902e+05
   2.585937e+05  -1.055394e+06
   6.154043e+05  -1.062013e+06
   1.132222e+06  -2.218709e+05
   1.177899e+06   1.061183e+06
   4.442844e+05   1.792872e+06
  -6.444048e+05   1.323061e+06
  -1.216106e+06  -4.814163e+03
  -7.679493e+05  -1.143036e+06
   2.782320e+05  -1.278455e+06
   9.515265e+05  -4.941010e+05
   7.201259e+05   4.455408e+05
   1.285907e+04   8.728464e+05
  -3.236313e+05   7.423530e+05
  -1.033160e+04   4.659472e+05
   3.576561e+05   3.689766e+05
   2.096969e+04   3.773660e+05
  -1.007868e+06   1.904506e+05
  -1.817990e+06  -3.254582e+05
  -1.477826e+06  -9.432617e+05
  -4.639292e+04  -1.244728e+06
   1.370091e+06  -9.782700e+05
   1.663982e+06  -2.972871e+05
   8.093950e+05   3.213653e+05
  -1.942585e+05   4.473821e+05
  -4.346169e+05   8.404144e+04
   3.274809e+04  -2.959896e+05
   4.730020e+05  -1.986883e+05
   4.196169e+05   3.367367e+05
   9.472161e+04   7.164110e+05
  -3.742250e+04   4.579147e+05
   1.449886e+05  -1.672725e+05
   3.624298e+05  -3.673307e+05
   2.741032e+05   2.116999e+05
  -2.203317e+05   9.584172e+05
  -8.659799e+05   9.467716e+05
  -1.137553e+06   4.414858e+04
  -6.286049e+05  -8.843322e+05
   4.223518e+05  -9.404868e+05
   1.104691e+06  -1.623226e+05
   6.495173e+05   5.966844e+05
  -6.454709e+05   6.099966e+05
  -1.537521e+06  -6.999949e+04
  -1.075697e+06  -8.074894e+05
   3.664876e+05  -1.012456e+06
   1.452728e+06  -5.726508e+05
   1.259760e+06   1.280185e+05
   1.722087e+05   5.152728e+05
  -6.040730e+05   2.904043e+05
  -3.140299e+05  -2.504795e+05
   6.203075e+05  -4.147558e+05
   1.096690e+06   2.011149e+05
   4.860921e+05   1.175968e+06
  -7.351388e+05   1.535981e+06
  -1.485580e+06   7.041951e+05
  -1.152100e+06  -8.015298e+05
  -1.134642e+05  -1.726722e+06
   7.473274e+05  -1.260927e+06
   8.925999e+05   1.265495e+05
   4.444550e+05   1.134585e+06
  -1.456222e+05   9.668152e+05
  -5.076084e+05   1.021869e+05
  -4.988174e+05  -3.906572e+05
  -2.270375e+05  -1.616062e+05
  -2.005168e+04   1.130239e+05
  -1.458227e+05  -2.352051e+05
  -4.095775e+05  -9.101250e+05
  -2.372443e+05  -1.047787e+06
   5.852289e+05  -3.689455e+05
   1.399076e+06   4.941246e+05
   1.273487e+06   8.381516e+05
   1.628251e+05   6.505873e+05
  -8.991457e+05   3.587094e+05
  -9.686171e+05   1.676033e+05
  -2.774412e+05  -1.699601e+04
   1.752459e+05  -2.003824e+05
  -4.662327e+04  -2.383368e+05
  -3.407736e+05  -1.510377e+05
  -6.390585e+03  -1.335796e+05
   7.353211e+05  -1.610870e+05
   9.779653e+05   8.093731e+04
   2.455278e+05   6.555433e+05
  -9.314850e+05   1.022924e+06
  -1.575528e+06   5.779214e+05
  -1.202337e+06  -5.175250e+05
  -1.651263e+05  -1.356709e+06
   7.581389e+05  -1.238398e+06
   1.012538e+06  -4.030569e+05
   6.226471e+05   2.979295e+05
   7.242348e+04   3.427158e+05
  -1.467259e+05   6.134827e+03
   4.896745e+04  -7.349309e+04
   3.105907e+05   3.335951e+05
   2.354301e+05   7.743730e+05
  -2.164191e+05   6.151974e+05
  -6.555442e+05  -2.030218e+05
  -6.050079e+05  -9.886305e+05
   3.043442e+04  -9.696116e+05
   7.731642e+05  -1.192716e+05
   9.184182e+05   8.019465e+05
   2.264469e+05   1.039822e+06
  -7.167125e+05   5.469693e+05
  -1.012171e+06  -1.435956e+05
  -4.281647e+05  -5.450299e+05
   2.948628e+05  -5.526781e+05
   3.066030e+05  -3.133960e+05
  -3.075668e+05  -4.874747e+04
  -6.350333e+05  -3.684933e+03
  -9.920470e+04  -2.828324e+05
   8.097901e+05  -6.154340e+05
   1.149987e+06  -5.114897e+05
   6.383183e+05   1.421440e+05
  -1.359363e+05   7.872245e+05
  -4.942653e+05   7.542046e+05
  -3.350075e+05   8.076243e+04
   9.953082e+03  -4.853831e+05
   2.591938e+05  -3.604279e+05
   3.299345e+05   2.204946e+05
   2.036543e+05   5.592769e+05
  -8.658229e+04   3.407765e+05
  -3.643046e+05  -8.880022e+04
  -4.136125e+05  -2.402856e+05
  -2.241675e+05  -6.065401e+04
  -7.508904e+03   9.142126e+04
   7.553171e+04  -6.259381e+04
   9.661284e+04  -3.765875e+05
   2.019360e+05  -4.443066e+05
   3.524218e+05  -7.127749e+04
   3.275560e+05   4.573616e+05
   1.387012e+03   6.289944e+05
  -4.334805e+05   2.456048e+05
  -5.705247e+05  -3.382293e+05
  -1.794558e+05  -5.798948e+05
   4.763791e+05  -3.121851e+05
   7.909951e+05   1.416247e+05
   4.153874e+05   3.804614e+05
  -2.958946e+05   3.150665e+05
  -5.962403e+05   1.252824e+05
  -1.858112e+05  -4.671391e+03
   4.021002e+05   4.665591e+03
   4.101124e+05   1.525824e+05
  -2.313848e+05   3.108984e+05
  -8.114101e+05   2.189031e+05
