
 $NMID
 id='ANONYMOUS ', fmtdat='(2E16.6)'
 volume=1.0
 tramp=1.0
 $END
   2.693515e+07   6.617254e+04
   1.818955e+07   1.240531e+07
   2.487620e+05   1.703140e+07
  -1.160409e+07   1.170917e+07
  -1.003559e+07   1.480124e+06
  -7.983086e+05  -4.926490e+06
   5.597084e+06  -2.703045e+06
   4.401635e+06   4.346031e+06
  -1.158979e+06   7.759356e+06
  -5.151191e+06   3.553045e+06
  -4.490458e+06  -3.576834e+06
  -5.530800e+05  -5.844747e+06
   2.697777e+06  -1.162758e+06
   2.159755e+06   4.937299e+06
  -1.596671e+06   5.798517e+06
  -4.646365e+06   6.268241e+05
  -3.507141e+06  -5.395044e+06
   1.178287e+06  -6.885561e+06
   5.226422e+06  -3.256196e+06
   5.281344e+06   1.635466e+06
   2.138779e+06   3.824051e+06
  -4.645422e+05   2.866846e+06
   5.790686e+03   1.493613e+06
   2.255409e+06   2.134743e+06
   2.628927e+06   4.186545e+06
  -8.303144e+05   4.889086e+06
  -5.810087e+06   2.623534e+06
  -7.613382e+06  -1.204702e+06
  -4.071490e+06  -3.637253e+06
   1.700683e+06  -3.024351e+06
   4.245241e+06  -2.643023e+05
   1.541348e+06   2.213955e+06
  -2.971753e+06   2.313997e+06
  -4.488013e+06  -2.275187e+05
  -2.048597e+06  -3.379280e+06
   1.154746e+06  -4.199934e+06
   1.995287e+06  -1.715549e+06
   5.892075e+05   1.548089e+06
  -7.665852e+05   1.960678e+06
  -5.270226e+05  -9.167128e+05
   9.139296e+05  -3.478658e+06
   2.147124e+06  -2.337309e+06
   1.987235e+06   1.386747e+06
   2.295902e+05   3.316297e+06
  -1.915026e+06   1.135510e+06
  -2.310154e+06  -2.697232e+06
   1.575765e+05  -3.959220e+06
   3.806036e+06  -1.357473e+06
   5.159248e+06   2.516397e+06
   2.443964e+06   4.267296e+06
  -2.200886e+06   2.849387e+06
  -4.652073e+06  -8.459227e+04
  -2.970655e+06  -2.063059e+06
   7.618979e+05  -1.827867e+06
   2.824255e+06  -1.070884e+05
   1.677314e+06   1.221857e+06
  -8.113907e+05   9.073776e+05
  -1.709287e+06  -5.223634e+05
  -2.053338e+05  -1.410421e+06
   1.682802e+06  -7.594732e+05
   1.485236e+06   7.651699e+05
  -8.630117e+05   1.560831e+06
  -2.804612e+06   6.115558e+05
  -1.895124e+06  -1.614862e+06
   1.483806e+06  -3.442048e+06
   4.465268e+06  -3.177600e+06
   4.681374e+06  -5.434993e+05
   2.502205e+06   2.804942e+06
   1.875574e+05   4.550406e+06
  -7.135439e+05   3.884093e+06
  -6.404707e+05   2.200219e+06
  -9.115569e+05   1.301882e+06
  -1.975343e+06   1.232694e+06
  -3.001863e+06   5.292149e+05
  -2.862653e+06  -1.426409e+06
  -1.235494e+06  -3.137181e+06
   1.048221e+06  -2.614143e+06
   2.479437e+06   1.096112e+05
   1.912269e+06   2.730292e+06
  -3.952598e+05   2.989023e+06
  -2.710339e+06   8.480189e+05
  -3.197061e+06  -1.738892e+06
  -1.640754e+06  -2.882266e+06
   3.660915e+05  -2.346710e+06
   1.188850e+06  -1.304398e+06
   9.389777e+05  -8.806410e+05
   1.137934e+06  -1.064616e+06
   2.586148e+06  -9.072921e+05
   4.025587e+06   3.662550e+05
   3.367404e+06   2.440039e+06
   2.092460e+05   4.002378e+06
  -3.294764e+06   3.772240e+06
  -4.385975e+06   1.637831e+06
  -2.449083e+06  -1.040987e+06
   4.189966e+05  -2.381597e+06
   1.597626e+06  -1.581173e+06
   4.793845e+05   2.637413e+05
  -1.268428e+06   1.162890e+06
  -1.712162e+06   2.979585e+05
  -5.881447e+05  -1.074118e+06
   7.275133e+05  -1.108735e+06
   8.106302e+05   3.206862e+05
  -4.467559e+05   1.305891e+06
  -1.828745e+06   1.440736e+05
  -1.872538e+06  -2.470987e+06
  -8.930110e+04  -3.985266e+06
   2.508815e+06  -2.693499e+06
   4.033989e+06   4.663879e+05
   3.241934e+06   2.940371e+06
   7.397324e+05   3.091611e+06
  -1.432570e+06   1.517870e+06
  -1.705871e+06   7.571632e+04
  -4.946722e+05  -5.002105e+04
   3.720762e+05   7.361448e+05
  -2.591766e+05   1.174593e+06
  -1.594152e+06   5.581748e+05
  -1.883048e+06  -6.033510e+05
  -5.329181e+05  -1.193694e+06
   1.090599e+06  -6.608125e+05
   1.121404e+06   4.239301e+05
  -6.830967e+05   9.121539e+05
  -2.518633e+06   1.597468e+05
  -2.348437e+06  -1.352554e+06
  -5.389395e+04  -2.383079e+06
   2.379759e+06  -1.981106e+06
   2.849777e+06  -3.746022e+05
   1.190294e+06   1.124039e+06
  -8.089921e+05   1.273803e+06
  -1.288241e+06   1.361546e+05
  -5.757735e+04  -9.306792e+05
   1.457956e+06  -6.831566e+05
   1.745371e+06   6.490393e+05
   5.857465e+05   1.626251e+06
  -8.897544e+05   1.232512e+06
  -1.338676e+06  -6.331700e+03
  -4.748494e+05  -6.839030e+05
   6.500693e+05  -1.062904e+05
   6.723024e+05   1.010259e+06
  -6.426636e+05   1.376320e+06
  -2.031657e+06   4.485818e+05
  -1.986075e+06  -1.098964e+06
  -3.796999e+05  -2.034374e+06
   1.345668e+06  -1.641944e+06
   1.689459e+06  -3.112624e+05
   6.079581e+05   8.162566e+05
  -6.033326e+05   8.739835e+05
  -7.772778e+05   6.169404e+04
   2.121938e+03  -6.186511e+05
   7.026218e+05  -4.715318e+05
   5.370858e+05   1.421163e+05
  -2.431389e+05   2.866819e+05
  -6.526644e+05  -3.843216e+05
  -5.525509e+03  -1.146315e+06
   1.309947e+06  -9.629557e+05
   2.091606e+06   3.719031e+05
   1.460383e+06   1.936283e+06
  -2.239265e+05   2.498118e+06
  -1.667932e+06   1.618714e+06
  -1.904623e+06   1.994015e+04
  -1.157456e+06  -1.088893e+06
  -4.070332e+05  -1.099781e+06
  -2.493576e+05  -4.897868e+05
  -3.601657e+05  -2.096655e+05
  -5.658742e+04  -5.904490e+05
   7.946038e+05  -9.653144e+05
   1.522091e+06  -4.820498e+05
   1.270029e+06   7.826316e+05
  -1.187341e+05   1.714250e+06
  -1.771078e+06   1.258761e+06
  -2.375418e+06  -4.400081e+05
  -1.289929e+06  -2.082162e+06
   8.060728e+05  -2.384600e+06
   2.414858e+06  -1.204510e+06
   2.494423e+06   4.342241e+05
   1.294222e+06   1.349656e+06
  -3.671820e+04   1.237507e+06
  -5.931771e+05   7.692069e+05
  -4.349813e+05   7.257321e+05
  -2.777981e+05   1.101109e+06
  -6.169060e+05   1.139652e+06
  -1.197253e+06   2.681849e+05
  -1.299753e+06  -1.120432e+06
  -5.300350e+05  -1.936988e+06
   6.674777e+05  -1.456181e+06
   1.328630e+06  -4.063147e+04
   8.869902e+05   1.198671e+06
  -2.259465e+05   1.400670e+06
  -9.842067e+05   6.173175e+05
  -8.029921e+05  -3.941589e+05
  -9.376290e+04  -9.188855e+05
   2.717898e+05  -8.352251e+05
  -2.264343e+04  -5.347973e+05
  -3.864186e+05  -4.013659e+05
  -2.589493e+04  -4.136246e+05
   1.070379e+06  -2.488636e+05
   1.958887e+06   2.813110e+05
   1.637687e+06   9.598935e+05
   1.292194e+05   1.330090e+06
  -1.414321e+06   1.099790e+06
  -1.788620e+06   4.028554e+05
  -9.115555e+05  -2.785321e+05
   1.742197e+05  -4.727407e+05
   4.602808e+05  -1.266878e+05
  -3.658871e+04   2.908320e+05
  -5.224775e+05   2.182315e+05
  -4.597946e+05  -3.537596e+05
  -8.568758e+04  -7.799408e+05
   6.181474e+04  -4.952867e+05
  -1.612508e+05   2.103319e+05
  -4.165537e+05   4.360264e+05
  -3.118854e+05  -2.192100e+05
   2.316381e+05  -1.057549e+06
   9.107292e+05  -1.047825e+06
   1.188408e+06  -6.434590e+04
   6.659727e+05   9.370507e+05
  -4.261143e+05   1.000456e+06
  -1.165446e+06   1.773299e+05
  -7.154102e+05  -6.409237e+05
   6.760562e+05  -6.912525e+05
   1.694408e+06   1.349002e+04
   1.244396e+06   8.459538e+05
  -3.386539e+05   1.149238e+06
  -1.583315e+06   7.156865e+05
  -1.412967e+06  -8.124801e+04
  -2.199676e+05  -5.679804e+05
   6.478205e+05  -3.521490e+05
   3.392165e+05   2.498606e+05
  -6.773198e+05   4.478609e+05
  -1.190505e+06  -2.152303e+05
  -5.253136e+05  -1.274680e+06
   7.953875e+05  -1.670556e+06
   1.612868e+06  -7.780348e+05
   1.271740e+06   8.561037e+05
   1.628184e+05   1.886374e+06
  -7.852028e+05   1.414088e+06
  -9.877819e+05  -9.224061e+04
  -5.401587e+05  -1.226620e+06
   1.051693e+05  -1.081607e+06
   5.441137e+05  -1.400416e+05
   5.762041e+05   4.220406e+05
   2.754507e+05   1.827438e+05
   1.068379e+04  -1.333640e+05
   1.327387e+05   2.289355e+05
   4.590324e+05   9.719766e+05
   3.160719e+05   1.147925e+06
  -5.950014e+05   4.301071e+05
  -1.544448e+06  -5.037596e+05
  -1.440294e+06  -8.857772e+05
  -1.995325e+05  -6.999813e+05
   9.958763e+05  -4.073723e+05
   1.063390e+06  -2.161305e+05
   2.846816e+05  -7.567701e+03
  -1.952936e+05   2.185998e+05
   8.385871e+04   2.789054e+05
   4.038249e+05   1.788448e+05
  -2.448304e+03   1.451935e+05
  -8.292369e+05   1.752325e+05
  -1.061678e+06  -7.393935e+04
  -2.372896e+05  -6.949484e+05
   1.017600e+06  -1.111581e+06
   1.677154e+06  -6.462517e+05
   1.279014e+06   5.472934e+05
   1.973358e+05   1.477142e+06
  -7.870975e+05   1.356829e+06
  -1.089110e+06   4.404880e+05
  -6.863066e+05  -3.287611e+05
  -7.306822e+04  -3.686776e+05
   1.836682e+05   1.325136e+04
  -4.514522e+04   1.041810e+05
  -3.620650e+05  -3.491980e+05
  -2.865485e+05  -8.398503e+05
   2.271633e+05  -6.668238e+05
   7.207403e+05   2.287227e+05
   6.582263e+05   1.080644e+06
  -4.565565e+04   1.047104e+06
  -8.526547e+05   1.139175e+05
  -1.002392e+06  -8.791551e+05
  -2.489951e+05  -1.122106e+06
   7.697314e+05  -5.874075e+05
   1.088397e+06   1.410919e+05
   4.638455e+05   5.607637e+05
  -3.025983e+05   5.808131e+05
  -3.013336e+05   3.452506e+05
   3.611413e+05   6.154957e+04
   6.977168e+05  -3.813993e+03
   1.054171e+05   2.989137e+05
  -8.689586e+05   6.909269e+05
  -1.220964e+06   6.056382e+05
  -6.742156e+05  -1.152372e+05
   1.319737e+05  -8.484428e+05
   4.963835e+05  -8.240895e+05
   3.325200e+05  -7.968898e+04
  -1.702767e+04   5.373486e+05
  -2.773613e+05   3.819921e+05
  -3.611972e+05  -2.577017e+05
  -2.291013e+05  -6.047902e+05
   9.020748e+04  -3.492143e+05
   3.954549e+05   9.978489e+04
   4.492412e+05   2.345390e+05
   2.474362e+05   4.605301e+04
   1.556035e+04  -7.840756e+04
  -8.698699e+04   1.095291e+05
  -1.341685e+05   4.220527e+05
  -2.548498e+05   4.527382e+05
  -3.903589e+05   3.723260e+04
  -3.281332e+05  -5.152031e+05
   3.034422e+04  -6.812831e+05
   4.774226e+05  -2.615677e+05
   6.082984e+05   3.705979e+05
   1.923574e+05   6.354059e+05
  -5.041776e+05   3.465798e+05
  -8.469363e+05  -1.474010e+05
  -4.519230e+05  -4.052759e+05
   3.128342e+05  -3.299731e+05
   6.359567e+05  -1.261559e+05
   1.821546e+05   2.347928e+03
  -4.616774e+05  -2.164713e+04
  -4.554741e+05  -1.875827e+05
   2.707253e+05  -3.558036e+05
   9.151545e+05  -2.469809e+05
