
 $NMID
 id='ANONYMOUS ', fmtdat='(2E16.6)'
 volume=1.0
 tramp=1.0
 $END
  -2.859873e+07  -3.054101e+04
  -1.738909e+07  -1.748355e+07
   3.620757e+06  -1.939875e+07
   1.416223e+07  -7.789889e+06
   8.695627e+06   3.449689e+06
  -1.618924e+06   5.126749e+06
  -5.344305e+06  -2.277213e+05
  -1.821708e+06  -5.118353e+06
   3.077906e+06  -5.271012e+06
   5.134370e+06  -1.265523e+06
   3.726962e+06   3.419611e+06
   2.971079e+05   4.750874e+06
  -2.328760e+06   1.416932e+06
  -1.557890e+06  -3.089210e+06
   1.899763e+06  -3.639817e+06
   4.089042e+06   6.098924e+05
   2.264184e+06   5.256358e+06
  -2.040258e+06   5.966029e+06
  -5.228527e+06   2.788202e+06
  -5.406880e+06  -1.293583e+06
  -3.142952e+06  -3.893065e+06
  -1.879393e+05  -4.293951e+06
   1.468881e+06  -2.957283e+06
   8.241237e+05  -1.402291e+06
  -6.411476e+05  -1.274736e+06
  -6.623191e+04  -2.306192e+06
   2.976506e+06  -2.299184e+06
   5.222785e+06  -1.517335e+05
   3.760774e+06   2.336636e+06
   3.140009e+03   2.821261e+06
  -2.197213e+06   1.378826e+06
  -1.388470e+06  -1.503534e+05
   5.158267e+05  -6.510899e+05
   1.427342e+06  -1.657403e+05
   1.078871e+06   1.045930e+06
   4.144248e+04   2.224736e+06
  -1.141147e+06   1.871442e+06
  -1.596616e+06  -2.974472e+05
  -7.352132e+05  -1.939662e+06
   3.965693e+05  -8.421382e+05
   7.180545e+04   1.423087e+06
  -1.336573e+06   1.216696e+06
  -1.329204e+06  -1.688355e+06
   1.089543e+06  -3.209407e+06
   3.417096e+06  -6.140147e+05
   2.650654e+06   3.426241e+06
  -8.259216e+05   4.298388e+06
  -3.745208e+06   1.263833e+06
  -3.671330e+06  -2.255290e+06
  -1.045736e+06  -3.179687e+06
   1.866365e+06  -1.537278e+06
   2.901240e+06   7.544074e+05
   1.366090e+06   1.947845e+06
  -1.295534e+06   1.326861e+06
  -2.475320e+06  -4.274603e+05
  -1.102364e+06  -1.518551e+06
   9.136269e+05  -8.186710e+05
   1.011750e+06   5.777366e+05
  -6.245028e+05   6.545060e+05
  -1.394072e+06  -7.563901e+05
   8.570521e+04  -1.769835e+06
   2.224530e+06  -1.072115e+06
   2.723281e+06   6.227653e+05
   1.212185e+06   2.013513e+06
  -1.022247e+06   2.655035e+06
  -2.734659e+06   2.381682e+06
  -3.250716e+06   7.685814e+05
  -2.284761e+06  -1.739680e+06
  -3.722960e+05  -3.285963e+06
   1.041334e+06  -2.561191e+06
   9.864494e+05  -6.909261e+05
   1.904460e+05   1.334214e+05
   9.542148e+04  -4.720626e+05
   9.194730e+05  -8.853692e+05
   1.528979e+06  -3.481955e+04
   1.074160e+06   1.170644e+06
  -7.462347e+04   1.274130e+06
  -9.793105e+05   1.158241e+05
  -9.845473e+05  -1.228842e+06
   4.287207e+04  -1.668406e+06
   1.553732e+06  -8.494934e+05
   2.352905e+06   7.418495e+05
   1.589420e+06   2.035027e+06
  -1.062126e+05   2.161465e+06
  -1.190878e+06   1.323030e+06
  -1.123566e+06   5.434017e+05
  -9.411847e+05   3.713300e+05
  -1.562622e+06   2.806883e+05
  -2.318085e+06  -4.088824e+05
  -1.860895e+06  -1.515467e+06
  -5.765449e+04  -2.251707e+06
   1.774061e+06  -2.095789e+06
   2.330641e+06  -1.088266e+06
   1.476212e+06   3.039013e+05
   9.658295e+04   1.262253e+06
  -6.990872e+05   1.060026e+06
  -3.640033e+05  -3.946186e+04
   6.134528e+05  -7.483556e+05
   1.090467e+06  -2.401796e+05
   5.176494e+05   6.881561e+05
  -3.331413e+05   6.860751e+05
  -3.295158e+05  -1.813765e+05
   5.053205e+05  -4.776434e+05
   1.022291e+06   5.400519e+05
   4.474753e+05   1.835311e+06
  -7.713773e+05   1.947302e+06
  -1.698407e+06   7.231186e+05
  -1.862849e+06  -7.809944e+05
  -1.291658e+06  -1.590632e+06
  -2.402428e+05  -1.482463e+06
   7.220020e+05  -7.809123e+05
   8.997364e+05  -8.035880e+04
   2.776467e+05   4.566786e+04
  -2.172090e+05  -4.124803e+05
   1.951184e+05  -7.477741e+05
   1.041820e+06  -3.463679e+05
   1.163269e+06   4.653758e+05
   2.746387e+05   8.078242e+05
  -6.356818e+05   3.877144e+05
  -5.525111e+05  -2.044012e+05
   3.967178e+05  -3.115865e+05
   1.190144e+06   1.234391e+05
   9.992298e+05   7.341374e+05
  -1.115223e+05   1.113124e+06
  -1.287521e+06   9.286961e+05
  -1.558035e+06   1.350914e+05
  -6.822087e+05  -7.225398e+05
   5.157659e+05  -8.391968e+05
   8.768475e+05  -1.021816e+05
   1.241116e+05   6.080223e+05
  -8.402677e+05   4.252562e+05
  -9.755090e+05  -4.257989e+05
  -2.172697e+05  -9.432190e+05
   6.054658e+05  -5.967110e+05
   7.444187e+05   1.343471e+05
   2.035941e+05   4.464254e+05
  -3.979714e+05   8.498388e+04
  -4.088354e+05  -5.248326e+05
   2.867630e+05  -7.518292e+05
   1.074230e+06  -2.878155e+05
   1.103568e+06   5.803745e+05
   2.035532e+05   1.146500e+06
  -8.099235e+05   9.098090e+05
  -9.877377e+05   1.068922e+05
  -3.144521e+05  -5.138520e+05
   3.619021e+05  -4.899515e+05
   3.964744e+05  -6.546704e+04
  -7.461538e+03   2.191341e+05
  -2.541942e+05   1.581928e+05
  -1.032054e+05  -8.382093e+03
   1.944921e+05   3.589750e+04
   2.545892e+05   3.380694e+05
  -1.135944e+05   6.147131e+05
  -7.422153e+05   4.641398e+05
  -1.119639e+06  -2.380079e+05
  -7.766596e+05  -1.069074e+06
   1.515268e+05  -1.337705e+06
   9.228191e+05  -7.861850e+05
   9.604156e+05   8.580410e+04
   4.857936e+05   5.531798e+05
   1.564053e+05   4.343011e+05
   2.125052e+05   1.606192e+05
   2.862466e+05   1.574152e+05
   1.237851e+04   3.761423e+05
  -4.843528e+05   4.524373e+05
  -7.708350e+05   1.467945e+05
  -5.450086e+05  -4.125967e+05
   1.531491e+05  -7.929203e+05
   9.373964e+05  -5.624027e+05
   1.217842e+06   2.823649e+05
   6.225644e+05   1.145873e+06
  -5.346190e+05   1.286684e+06
  -1.384073e+06   5.701078e+05
  -1.311416e+06  -3.555929e+05
  -5.629268e+05  -7.540104e+05
   1.007648e+05  -5.593098e+05
   2.484311e+05  -3.057359e+05
   1.003022e+05  -4.045544e+05
   9.680113e+04  -6.898881e+05
   3.767226e+05  -6.832252e+05
   7.001506e+05  -1.567570e+05
   7.186101e+05   6.095046e+05
   2.871487e+05   1.049989e+06
  -3.582402e+05   7.902525e+05
  -7.134945e+05   2.239823e+03
  -4.487243e+05  -6.929679e+05
   2.005126e+05  -7.634334e+05
   6.124539e+05  -2.478970e+05
   4.342140e+05   3.386699e+05
  -4.202126e+04   5.604231e+05
  -2.529744e+05   4.329931e+05
  -3.423146e+04   2.532257e+05
   2.114789e+05   2.035691e+05
   1.025344e+04   2.085137e+05
  -6.101169e+05   9.592847e+04
  -1.087848e+06  -2.003996e+05
  -8.708046e+05  -5.653836e+05
  -4.514320e+03  -7.609659e+05
   8.423750e+05  -6.020401e+05
   1.003286e+06  -1.584012e+05
   4.718782e+05   2.395269e+05
  -1.345432e+05   2.881735e+05
  -2.687457e+05   2.478000e+04
   1.491459e+04  -2.043178e+05
   2.725599e+05  -1.158777e+05
   2.505760e+05   2.065311e+05
   8.621457e+04   4.108284e+05
   1.412831e+04   2.676523e+05
   8.128220e+04  -6.121480e+04
   1.685115e+05  -1.752720e+05
   1.315466e+05   1.161450e+05
  -1.134181e+05   5.246235e+05
  -4.887786e+05   5.509814e+05
  -6.906267e+05   6.035882e+04
  -4.107807e+05  -5.038365e+05
   2.391582e+05  -5.830711e+05
   6.683774e+05  -1.323346e+05
   3.846344e+05   3.391625e+05
  -3.930493e+05   3.489163e+05
  -8.861176e+05  -6.938674e+04
  -5.731795e+05  -4.878170e+05
   2.600090e+05  -5.577731e+05
   8.414162e+05  -2.767452e+05
   7.003377e+05   1.026139e+05
   8.189826e+04   2.926476e+05
  -3.572687e+05   1.592866e+05
  -2.028026e+05  -1.505217e+05
   3.348469e+05  -2.644602e+05
   6.430622e+05   7.789554e+04
   3.256076e+05   6.674198e+05
  -3.838370e+05   9.161627e+05
  -8.503683e+05   4.410784e+05
  -6.784714e+05  -4.552638e+05
  -7.298497e+04  -1.001755e+06
   4.341100e+05  -7.167474e+05
   5.126223e+05   9.430454e+04
   2.390753e+05   6.598015e+05
  -1.058083e+05   5.448822e+05
  -2.979492e+05   5.174128e+04
  -2.691600e+05  -2.158455e+05
  -1.114436e+05  -8.247163e+04
  -2.282260e+04   6.160180e+04
  -1.230694e+05  -1.491962e+05
  -2.596771e+05  -5.359050e+05
  -1.162429e+05  -6.095064e+05
   3.741713e+05  -2.160788e+05
   8.146302e+05   2.831961e+05
   7.167479e+05   4.864523e+05
   9.086072e+04   3.825144e+05
  -4.998137e+05   2.111720e+05
  -5.540763e+05   9.069722e+04
  -1.811860e+05  -2.348044e+04
   9.427237e+04  -1.230425e+05
   5.606753e+03  -1.270518e+05
  -1.646416e+05  -6.633225e+04
  -1.778201e+04  -6.853896e+04
   3.900498e+05  -1.073854e+05
   5.723082e+05   2.732557e+04
   1.936602e+05   3.817941e+05
  -5.060520e+05   6.222522e+05
  -9.352911e+05   3.727934e+05
  -7.408655e+05  -2.754827e+05
  -1.160872e+05  -7.835003e+05
   4.385940e+05  -7.344879e+05
   5.810231e+05  -2.623055e+05
   3.566644e+05   1.473779e+05
   6.018457e+04   1.938985e+05
  -5.570203e+04   2.066929e+04
   3.808694e+04  -2.264248e+04
   1.699883e+05   1.992221e+05
   1.360919e+05   4.478016e+05
  -1.091371e+05   3.695587e+05
  -3.776020e+05  -8.716565e+04
  -3.830951e+05  -5.491237e+05
  -2.573315e+04  -5.703461e+05
   4.330134e+05  -1.051607e+05
   5.526279e+05   4.346057e+05
   1.594322e+05   6.058291e+05
  -4.074482e+05   3.449949e+05
  -6.030842e+05  -6.508676e+04
  -2.714053e+05  -3.284508e+05
   1.634724e+05  -3.481292e+05
   1.938759e+05  -1.953801e+05
  -1.550048e+05  -2.171902e+04
  -3.614309e+05   5.513071e+03
  -6.777975e+04  -1.683506e+05
   4.678903e+05  -3.635425e+05
   6.904134e+05  -2.919897e+05
   4.013869e+05   9.654091e+04
  -6.959011e+04   4.725637e+05
  -3.040676e+05   4.565294e+05
  -2.184589e+05   6.866214e+04
  -1.002985e+04  -2.722834e+05
   1.426739e+05  -2.246204e+05
   1.909692e+05   1.043364e+05
   1.271171e+05   3.232526e+05
  -4.003027e+04   2.199067e+05
  -2.147121e+05  -3.793988e+04
  -2.539056e+05  -1.518983e+05
  -1.326375e+05  -4.852711e+04
   1.003885e+04   6.988574e+04
   4.649990e+04  -3.283051e+02
   2.157353e+04  -2.044480e+05
   6.728094e+04  -2.842976e+05
   1.890594e+05  -8.572246e+04
   2.246656e+05   2.354978e+05
   4.672216e+04   3.610347e+05
  -2.381039e+05   1.574151e+05
  -3.494549e+05  -1.754615e+05
  -1.211584e+05  -3.252425e+05
   2.806764e+05  -1.900170e+05
   4.754322e+05   6.267877e+04
   2.537856e+05   2.164672e+05
  -1.682574e+05   2.056103e+05
  -3.534212e+05   1.019272e+05
  -1.280198e+05   2.432529e+03
   2.093027e+05  -2.111096e+04
   2.319138e+05   5.922772e+04
  -1.112238e+05   1.691342e+05
  -4.383897e+05   1.365669e+05
