
 $NMID
 id='ANONYMOUS ', fmtdat='(2E16.6)'
 volume=1.0
 tramp=1.0
 $END
  -3.214828e+03   3.816000e+01
  -2.016145e+03  -2.025371e+03
   5.645241e+02  -2.324749e+03
   1.773579e+03  -7.868951e+02
   7.818208e+02   5.335263e+02
  -4.923051e+02   4.486430e+02
  -7.853415e+02  -3.243131e+02
  -3.292102e+01  -1.002080e+03
   6.827023e+02  -6.134289e+02
   8.082097e+02   1.025561e+02
   3.817334e+02   7.267889e+02
  -2.035316e+02   7.665321e+02
  -4.421732e+02   6.671709e+01
  -3.037879e+02  -6.223982e+02
   3.308283e+02  -7.021521e+02
   5.221836e+02  -2.315718e+01
   2.240264e+02   5.486798e+02
  -2.215615e+02   6.028984e+02
  -5.196109e+02   2.277966e+02
  -3.177455e+02  -2.712633e+02
  -8.257696e+01  -3.812399e+02
   1.737608e+02  -1.754437e+02
   1.470338e+02  -4.927559e+01
  -1.351498e+02   7.972206e+01
  -3.509330e+02  -1.344845e+02
  -1.912509e+02  -3.688107e+02
   4.361334e+02  -3.239677e+02
   7.548194e+02   1.020305e+02
   3.659193e+02   4.933412e+02
  -3.434523e+02   3.877168e+02
  -6.713064e+02  -2.549264e+01
  -3.142328e+02  -4.252687e+02
   2.666374e+02  -4.039882e+02
   4.837829e+02  -1.263493e+02
   3.419782e+02   2.506160e+02
   6.570820e+01   3.808536e+02
  -1.063443e+02   2.287658e+02
  -1.306435e+02  -1.792208e+02
   1.571861e+02  -3.698368e+02
   3.457721e+02   1.601879e+00
   1.479377e+02   5.561813e+02
  -3.196022e+02   5.993734e+02
  -5.130564e+02  -2.882952e+01
  -2.032566e+02  -4.392913e+02
   2.662143e+02  -2.390376e+02
   3.360941e+02   2.438537e+02
  -2.439096e+01   4.606662e+02
  -5.360747e+02   9.649974e+01
  -5.416995e+02  -3.272340e+02
  -1.513782e+02  -4.797069e+02
   3.444305e+02  -3.149939e+02
   5.800714e+02   1.041387e+02
   3.011313e+02   3.446133e+02
  -1.496412e+02   2.940657e+02
  -3.386319e+02  -1.203799e+01
  -2.075258e+02  -1.936691e+02
   8.819094e+01  -1.134056e+02
   1.541275e+02   2.002864e+02
  -1.653601e+02   1.755417e+02
  -2.646102e+02  -5.903399e+01
  -1.459332e+02  -2.678724e+02
   1.462690e+02  -2.059618e+02
   2.767712e+02  -8.698784e+01
   1.718826e+02   7.780824e+01
   1.051330e+01   2.488296e+02
  -1.801894e+02   2.819099e+02
  -2.488037e+02   2.710093e+02
  -2.148731e+02  -1.101199e+02
  -4.129412e+01  -3.071203e+02
   9.974329e+01  -3.170452e+02
   6.094428e+01  -1.284111e+02
  -6.269345e+01  -5.693132e+01
   5.619872e+01  -8.412457e+01
   1.477185e+02  -1.103451e+02
   2.582617e+02   5.329739e+01
   1.203382e+02   2.229882e+02
  -8.598480e+01   2.592041e+02
  -2.502618e+02   4.163766e+01
  -1.853538e+02  -2.182411e+02
   2.263213e+01  -2.673803e+02
   2.398092e+02  -1.042641e+02
   2.804930e+02   1.305066e+02
   1.679165e+02   3.768273e+02
  -1.216426e+02   2.447318e+02
  -2.481132e+02   9.022130e+01
  -9.224081e+01  -2.908103e+01
  -7.764443e+01  -4.504612e+00
  -1.446071e+02   7.214730e+01
  -3.580984e+02   1.131751e+01
  -2.657819e+02  -2.121718e+02
   1.711450e+01  -3.731421e+02
   3.030019e+02  -4.257397e+02
   4.419982e+02  -1.198424e+02
   2.741275e+02   1.037587e+02
   6.173307e+01   2.803901e+02
  -1.464999e+02   1.613209e+02
  -9.916604e+01   2.756127e+01
   1.520845e+02  -1.269215e+02
   2.451678e+02   1.929093e+01
   3.530476e+01   1.996806e+02
  -1.922387e+02   1.632246e+02
  -1.250362e+02  -3.156486e+01
   8.142173e+00  -1.167494e+02
   7.590253e+01   4.423476e+00
   1.374343e+02   2.202846e+02
   2.223624e+01   2.741640e+02
  -1.998282e+02   1.597377e+02
  -2.939035e+02  -5.912348e+01
  -1.931861e+02  -2.247182e+02
  -2.635633e+01  -2.269019e+02
   9.545209e+01  -1.732983e+02
   1.498866e+02  -3.315845e+01
   3.226455e+01   4.737001e+01
  -1.047341e+02  -5.666944e+01
  -7.122987e+01  -1.768898e+02
   1.033885e+02  -9.609116e+01
   1.948180e+02   5.503666e+00
   3.726539e+01   7.567792e+01
  -6.694414e+01   5.316045e+01
  -4.378590e+01  -8.150942e+01
   1.215697e+02  -6.932484e+01
   2.802465e+02  -9.049244e+00
   2.288855e+02   1.008472e+02
   5.227089e+01   2.291773e+02
  -1.859329e+02   2.280950e+02
  -2.611425e+02   9.377455e+01
  -1.388514e+02  -5.301972e+01
   3.365480e+01  -1.324858e+02
   1.601787e+02  -5.700676e-01
  -1.737602e+01   1.312780e+02
  -1.963468e+02   6.656025e+01
  -2.235598e+02  -7.203907e+01
  -9.436897e+01  -1.749552e+02
   8.851937e+01  -1.143101e+02
   2.103127e+02  -8.312479e+00
   6.819223e+01   4.619863e+01
  -6.882691e+01  -1.640291e+01
  -4.267679e+01  -6.773700e+01
   5.248535e+01  -1.211256e+02
   1.792203e+02  -6.930224e+01
   1.313725e+02   8.023048e+01
   2.498881e+01   2.334339e+02
  -1.899500e+02   8.106913e+01
  -1.740648e+02  -2.276618e+01
   4.242444e-01  -1.196701e+02
   6.901373e+01  -8.735016e+01
   7.365787e+01   2.816564e+00
  -3.640490e+01  -2.603566e+01
  -4.763655e+01   3.259764e+01
  -3.106251e+01  -1.588135e+01
   6.414127e+01   3.199422e+01
   4.784132e+01   7.652455e+01
   1.169470e+01   1.346996e+02
  -1.211881e+02   8.962889e+01
  -2.067719e+02   4.857126e+01
  -2.173286e+02  -1.234409e+02
   2.042782e+00  -2.022278e+02
   1.234754e+02  -1.214268e+02
   1.324148e+02  -8.670326e+00
   5.416294e+01   9.797430e+01
   6.127848e+01   5.001090e+01
   8.319874e+01  -1.519943e+01
   5.900218e+01  -4.189824e+01
   3.775686e+01   4.758946e+01
  -4.596502e+01   1.169471e+02
  -1.301869e+02   9.208070e+01
  -2.852358e+01  -1.593883e-01
   3.061432e+01  -7.435923e+01
   8.641237e+01  -6.175476e+01
   2.232588e+02   6.121740e+01
   7.975450e+01   1.712383e+02
  -9.403411e+01   2.226112e+02
  -2.197381e+02   1.017341e+02
  -2.329639e+02  -7.773522e+01
  -8.145448e+01  -1.256850e+02
   8.025321e+01  -1.532734e+02
   8.588741e+01  -2.062439e+01
   9.846243e+00  -6.090707e+01
  -7.835618e+00  -1.028166e+02
   7.720224e+01  -8.453138e+01
   5.349245e+01   1.044395e+01
   1.071073e+02   1.532346e+02
   6.126004e+01   1.848360e+02
  -5.344672e+01   1.140203e+02
  -1.344248e+02  -1.047183e+01
  -8.767505e+01  -1.588284e+02
   4.524987e+00  -1.342215e+02
   3.541210e+01  -9.218575e+01
   9.372690e+01   8.517945e+00
   7.329508e+00   6.375371e+01
   5.113818e+00   2.713130e+01
   5.935605e+01   2.250775e+01
   4.467953e+01   4.437170e+01
   6.167484e+01  -2.027525e+01
  -7.194138e+01   1.207624e+01
  -1.515493e+02  -5.106891e+00
  -1.231877e+02  -3.980099e+01
  -1.170253e+01  -3.196526e+01
   1.654173e+02  -2.942306e+00
   1.216791e+02   2.516258e+01
   2.408614e+01   3.138040e+01
  -6.246317e+01   3.992150e+01
  -6.774175e+01  -9.413263e+00
  -3.014721e+00  -4.558598e+01
   5.286614e+01  -4.956097e+01
   8.034697e+01   3.441066e+01
   6.226861e+01   7.150863e+01
   4.767282e+01   1.005584e+01
   8.650072e+01  -2.069208e+01
   6.574717e+01  -1.831161e+01
   1.145240e+01   3.642786e+01
  -1.385445e+01   1.649150e+02
  -9.854353e+01   1.426779e+02
  -9.151733e+01   4.990462e+00
  -8.109605e+01  -8.762391e+01
   2.485073e+01  -1.114677e+02
   5.833616e+01  -4.858838e+01
   4.651598e+01   2.580616e+01
  -4.243612e+01   2.421204e+01
  -1.222163e+02   5.607311e-02
  -6.054917e+01  -1.209401e+02
   9.585050e+01  -1.297872e+02
   1.677293e+02  -2.703404e+01
   1.529980e+02   3.292859e+01
   1.784484e+01   7.573344e+01
  -3.971422e+01   1.263674e+01
  -4.360382e-01  -1.294077e+01
   2.422034e+01   1.101192e+01
   1.132889e+02  -5.668473e+00
   3.919217e+01   1.063426e+02
  -6.720788e+01   1.386145e+02
  -1.481947e+02   7.408377e+01
  -1.615274e+02  -1.192911e+02
  -3.356334e+01  -1.476180e+02
   3.832778e+01  -1.733235e+02
   9.657416e+01   8.087540e+00
   6.415325e+01   9.545110e+01
   1.514800e+01   7.573278e+01
  -5.969693e+01   2.119492e+00
  -5.261341e+01  -2.676303e+01
  -1.838752e+01   3.206723e+01
  -1.401165e+01   4.207699e+01
  -5.054269e+01  -1.858293e+01
  -7.267301e+01  -1.177684e+02
  -2.360659e+01  -8.917745e+01
   3.780419e+01  -3.654617e+01
   1.257180e+02   3.100636e+01
   9.978229e+01   9.848487e+01
  -1.057419e+01   3.433685e+01
  -1.550513e+02   1.024025e+00
  -9.338549e+01  -1.523409e+01
   6.289693e+00  -2.376367e+01
   3.119821e+01  -2.410233e+00
  -1.177335e+01  -1.607915e+00
  -4.184763e+01   2.231597e+01
  -8.504286e+00   4.175446e+01
   5.965268e+01   5.915538e+00
   8.134988e+01   1.656489e+01
  -6.035854e+00   6.243662e+01
  -1.181724e+02   1.013415e+02
  -1.634275e+02   8.735485e+01
  -1.192569e+02  -4.853149e+01
  -1.682223e+01  -1.371905e+02
   4.806430e+01  -1.043836e+02
   8.789709e+01  -8.301513e+01
   9.076344e+01   3.214983e+01
  -3.286559e+01   4.409657e+01
  -5.328213e+01  -9.421423e+00
  -2.507434e+01   7.158883e+00
   3.199731e+01   8.190176e+01
   1.860720e+01   1.015464e+02
  -1.240697e+01   9.504407e+01
  -6.234919e+01   4.387882e+00
  -1.239755e+02  -1.039433e+02
  -2.380207e+01  -1.156893e+02
   1.226456e+02  -7.999911e+01
   1.417210e+02   1.019113e+02
   4.227098e+01   1.140574e+02
  -3.781657e+01   5.193387e+01
  -7.095315e+01   2.811349e+01
  -1.174232e+01  -4.595690e+01
   5.846748e+00  -1.329615e+01
   2.835761e+01   1.077779e+01
  -2.916704e+01   1.241759e+01
  -8.316512e+01   2.289791e+01
  -2.538662e+01  -6.478808e+00
   5.078559e+01  -6.579911e+01
   1.127375e+02  -6.534347e+01
   4.748827e+01   8.268492e-01
  -1.837218e+01   7.167893e+01
  -4.608611e+01   5.170979e+01
  -6.144485e+01  -1.367662e+01
  -1.411513e+01  -6.435936e+01
   3.013970e+01  -5.541738e+01
   7.537528e+01   1.449041e+01
   4.284827e+01   5.696598e+01
  -9.256778e+00   2.004769e+01
  -4.860109e+01   2.150781e+01
  -4.662896e+01  -1.206755e+01
   9.726148e+00   5.524094e+01
   2.740204e+01   3.408469e+01
   3.004542e+01  -1.761543e+01
   1.877894e+01  -1.912780e+01
   1.806677e+00  -5.756472e+01
   2.014505e+01   9.635909e+00
  -5.227450e+00   3.320451e+01
   2.171448e+01   4.449416e+01
  -5.240805e+01   5.806885e+01
  -3.609742e+01  -6.213570e+01
   8.581827e+00  -6.170307e+01
   4.682129e+01  -4.114663e+01
   5.778449e+01   2.586905e+01
   4.521682e+01   5.910439e+01
  -2.995778e+01  -5.425443e+00
  -7.750478e+01  -2.234751e+01
  -8.207158e+00   6.897798e+00
   2.214648e+01   4.325575e+01
   1.288349e+01   5.265024e+01
  -4.436712e+01  -1.080933e+01
  -6.823285e+01   2.101259e+00
