
 $NMID
 id='ANONYMOUS ', fmtdat='(2E16.6)'
 volume=1.0
 tramp=1.0
 $END
  -3.194059e+03  -2.524027e+02
  -2.060994e+03  -1.742693e+03
   1.477536e+02  -2.112028e+03
   1.335450e+03  -9.862112e+02
   8.686891e+02  -5.176206e+00
  -1.083709e+02   3.310007e+02
  -5.063057e+02  -2.254286e+02
  -1.796621e+00  -7.121787e+02
   5.571510e+02  -5.591044e+02
   5.963236e+02   2.927208e+01
   3.653328e+02   5.867542e+02
  -3.456493e+01   7.056003e+02
  -3.418500e+02   1.168389e+02
  -2.468197e+02  -4.794699e+02
   1.739918e+02  -5.683097e+02
   4.269915e+02   6.187660e+01
   2.178763e+02   5.001155e+02
  -1.903376e+02   6.581649e+02
  -5.168316e+02   2.723761e+02
  -3.809629e+02  -1.685808e+02
  -9.762145e+01  -3.252595e+02
   1.173646e+02  -2.335269e+02
   1.112546e+02  -7.077667e+01
  -2.177242e+02  -7.625128e+01
  -2.710289e+02  -2.799628e+02
  -1.055365e+02  -3.430537e+02
   4.012955e+02  -2.154783e+02
   6.450510e+02   9.511991e+01
   1.449018e+02   3.267176e+02
  -2.414791e+02   2.304283e+02
  -5.621541e+02  -1.164819e+02
  -2.434172e+02  -4.159122e+02
   2.825172e+02  -3.791044e+02
   4.699639e+02  -8.398292e+01
   2.977406e+02   2.280307e+02
   5.512172e+00   4.040200e+02
  -6.400762e+01   2.175268e+02
   1.430972e+01  -1.389749e+02
   2.137308e+02  -2.095288e+02
   2.924883e+02   1.356976e+02
   6.001558e+01   5.917873e+02
  -3.151080e+02   4.858548e+02
  -3.829330e+02   3.288013e+01
  -1.351933e+02  -2.987326e+02
   1.883995e+02  -1.475735e+02
   2.751760e+02   3.361093e+02
  -1.059436e+02   4.192551e+02
  -4.741379e+02   9.059289e+01
  -5.025280e+02  -3.713659e+02
  -1.427258e+02  -4.596850e+02
   3.645504e+02  -3.056603e+02
   4.789899e+02   1.231302e+02
   3.711886e+02   2.768991e+02
  -6.544892e+01   2.765827e+02
  -2.772732e+02   6.364107e+01
  -2.111688e+02  -3.648915e+01
   3.975976e+01   7.737759e-01
   3.869685e+01   1.477871e+02
  -1.409248e+02   1.054958e+02
  -2.205133e+02  -6.762309e+01
  -1.215863e+02  -2.531801e+02
   1.435333e+02  -2.347037e+02
   2.973525e+02  -1.184258e+02
   2.298449e+02   1.052749e+02
  -4.416764e+01   2.694035e+02
  -2.807646e+02   3.008070e+02
  -2.585722e+02   1.334049e+02
  -2.269228e+02  -1.139978e+02
   1.593349e+00  -3.035174e+02
   1.469411e+01  -2.639683e+02
   4.558546e+01  -1.119957e+02
  -3.146713e+01  -1.632884e+01
   7.147227e+01  -8.126251e+01
   1.795225e+02  -1.049616e+02
   2.097242e+02   9.166610e+01
   1.042916e+02   2.580557e+02
  -1.108119e+02   2.052275e+02
  -2.029053e+02  -4.590702e+01
  -1.419458e+02  -2.835915e+02
   4.676953e+01  -2.592079e+02
   2.701975e+02  -5.293144e+01
   2.849409e+02   1.490117e+02
   1.786480e+02   2.818194e+02
  -8.579899e+00   2.420362e+02
  -1.738767e+02   1.241367e+02
  -1.648183e+02   5.556438e+01
  -1.512879e+02   3.845011e+01
  -2.212577e+02  -1.074572e+01
  -3.525811e+02  -6.714950e+01
  -3.037288e+02  -3.179826e+02
   5.509419e+01  -3.582605e+02
   3.365582e+02  -3.717234e+02
   4.181802e+02  -1.738172e+02
   2.679315e+02   1.125327e+02
   3.115640e+01   2.784293e+02
  -1.425952e+02   2.264483e+02
  -2.354490e+01  -1.106995e+01
   1.186236e+02  -1.664413e+01
   1.750311e+02   8.298637e+01
  -2.105403e+01   1.506225e+02
  -7.069999e+01   6.200140e+01
  -7.597752e+01  -2.670653e+01
   2.342910e+01  -8.075627e+01
   1.721821e+02   1.412589e+01
   8.640025e+01   2.088705e+02
  -8.301961e+01   3.334469e+02
  -2.067678e+02   1.123098e+02
  -3.223237e+02  -2.679732e+01
  -2.605955e+02  -3.091752e+02
  -3.742822e+01  -2.805209e+02
   8.480747e+01  -1.361300e+02
   1.119962e+02   8.383253e+00
  -5.368448e+00   8.052614e+01
  -3.470842e+01  -1.796787e+01
  -2.314653e+01  -1.413849e+02
   1.280041e+02  -5.529886e+01
   1.404915e+02   4.407747e+01
   3.761016e+01   9.594501e+01
  -1.784819e+01   5.741278e+01
  -7.353604e+01  -1.128407e+02
   1.080499e+02  -6.716037e+01
   2.758960e+02   4.488031e+01
   2.186372e+02   1.684774e+02
   5.023786e+01   2.462349e+02
  -2.046087e+02   2.081153e+02
  -3.214348e+02   7.939040e+01
  -1.405993e+02  -1.342942e+01
  -1.847183e+01  -1.105405e+02
   6.722487e+01  -3.437435e+01
  -5.455453e+01   7.109679e+01
  -1.699861e+02   9.512379e+00
  -1.514608e+02  -1.223359e+02
  -6.737951e+01  -1.968268e+02
   8.397381e+01  -1.370258e+02
   1.030274e+02  -2.344038e+01
   6.968713e+01   6.102811e+01
  -3.440307e+01  -4.652718e+01
   2.725079e+01  -1.070862e+02
   8.998547e+01  -1.582280e+02
   2.039729e+02  -3.518822e+01
   1.578225e+02   1.677896e+02
   3.379558e+01   1.878644e+02
  -1.519723e+02   9.828908e+01
  -1.873735e+02   4.281374e+00
  -7.564721e+01  -7.851319e+01
   2.149596e+01  -7.310735e+01
   3.294426e+01  -4.579899e+01
   2.274323e+01   4.022720e+01
  -7.999058e+01   6.514369e+00
   2.453222e+01  -4.130086e+01
   2.923511e+01  -3.282462e+01
   1.370176e+02   1.372059e+02
   1.641458e+00   1.653398e+02
  -1.203108e+02   1.449757e+02
  -2.041640e+02   4.657452e+01
  -2.386058e+02  -1.332025e+02
  -2.252389e+01  -2.248138e+02
   5.243723e+01  -1.802411e+02
   1.462921e+02  -7.146206e+01
   1.237012e+02   5.328082e+01
   5.744326e+01   6.362143e+01
   8.435938e+01  -2.951092e+01
   5.394749e+01  -1.518625e+01
   2.347357e+01   7.975494e+01
  -3.018019e+01   1.132683e+02
  -1.224028e+02   9.991056e+01
  -1.364544e+02  -4.516489e+01
   3.912924e+00  -1.209541e+02
   1.363559e+02  -1.132172e+02
   1.531807e+02   4.842007e+01
   7.578848e+01   1.432517e+02
  -1.333456e+02   1.530868e+02
  -2.536161e+02   4.867571e+01
  -2.066204e+02  -1.501891e+02
   1.124240e+01  -1.664383e+02
   5.555224e+01  -1.179263e+02
   7.146017e+01  -8.233771e+01
   7.035947e+01  -5.966675e+01
   9.620967e+01  -1.506695e+02
   1.036505e+02  -1.260920e+02
   1.149545e+02   8.862356e+01
   8.921299e+01   1.666104e+02
   9.761983e+01   2.272551e+02
  -7.397510e+01   1.620596e+02
  -1.158188e+02   5.929691e+01
  -1.582669e+02  -1.337959e+02
  -1.240223e+01  -1.302814e+02
   3.746407e+01  -9.967816e+01
   4.816626e+01  -3.261759e+01
   4.355987e+00  -9.615210e+00
   3.376740e+01   1.413244e+01
   3.882583e+01  -2.503881e+01
   6.479530e+01   1.825802e+01
   5.488176e+01   3.375370e+01
  -7.053589e+01   3.893525e+01
  -1.743506e+02   5.381606e+01
  -1.424901e+02  -4.471950e+01
  -2.420722e+00  -1.394898e+02
   1.226901e+02  -6.346164e+01
   1.214465e+02  -7.500404e-01
   2.390148e+00   6.853443e+01
  -2.383014e+01   4.999153e+01
  -5.934955e+01  -2.793559e+01
  -5.926973e+00  -3.887734e+01
   6.588874e+01  -3.346779e+01
   9.835987e+01   5.902813e+01
   6.910931e+01   7.127521e+01
   5.544145e+01   8.447427e+01
   4.250082e+01  -2.018981e+01
   3.771246e+01   7.879886e-01
   1.770229e+01   8.582864e+01
   1.451045e+01   1.355262e+02
  -6.024748e+01   1.538543e+02
  -1.543764e+02   6.919083e+01
  -1.420388e+02  -5.743445e+01
  -1.333033e+00  -9.033408e+01
   5.091795e+01  -8.161914e+01
   1.241376e+01  -7.288642e+00
  -3.120613e+01  -2.464343e+01
  -7.662239e+01  -2.721699e+01
  -3.716434e+01  -1.438341e+02
   1.074286e+02  -8.531484e+01
   1.622396e+02  -5.477513e+01
   1.641135e+02  -1.582804e+00
   2.436193e+01   6.917941e+01
  -6.568329e+01   2.913127e+00
  -5.965795e+01  -2.574790e+00
   4.290614e+01  -2.012101e+01
   3.079312e+01   4.833513e+01
  -4.829409e+00   8.077694e+01
  -6.278835e+01   1.607400e+02
  -1.662223e+02   1.077534e+02
  -1.064476e+02  -1.145294e+02
  -3.889552e+01  -2.217837e+02
   1.183508e+02  -1.105922e+02
   9.033200e+01   3.639877e+01
   3.955976e+01   8.594021e+01
   2.406661e+00   9.880565e+01
  -2.473711e+01  -1.069443e+01
  -4.722351e+01  -3.151061e+01
  -2.844716e+01  -3.449644e+01
  -5.098793e+01   1.008341e+01
  -3.550187e+01   5.212070e+00
  -7.279036e+01  -9.382525e+01
  -7.241891e+01  -1.228121e+02
   5.021591e+01  -3.645936e+01
   5.418165e+01   3.874929e+01
   1.205474e+02   9.650207e+01
   2.492972e+01   3.674616e+01
  -9.729080e+01   1.809081e+01
  -7.620226e+01   5.548885e+00
   1.484002e+01  -1.195318e+01
   7.248692e+01  -1.351496e+01
   7.113712e+01  -1.735417e+01
   2.775706e+00   1.642322e+01
  -1.675110e+01   4.374506e+01
   6.924111e+01  -2.553356e+01
   1.389699e+02   1.080446e+01
   1.366145e+01   7.551658e+01
  -6.751397e+01   1.038637e+02
  -1.619114e+02   1.013859e+02
  -1.352531e+02  -9.274900e+01
  -4.972336e+01  -1.738109e+02
   5.625295e+01  -1.586536e+02
   1.373058e+02  -7.639931e+01
   8.299362e+01  -8.437573e+00
   2.944791e+00   8.725330e+00
   1.971376e+01   1.146764e+00
   2.652580e+01  -1.557242e+00
   6.800136e+01   7.535231e+01
   9.166881e-01   5.517342e+01
  -4.124878e+01   7.397860e+01
  -7.176995e+01   1.732480e+01
  -6.740606e+01  -9.783067e+00
  -1.120878e+01  -5.535254e+01
   5.191597e+01  -4.064269e+01
   1.275648e+02   5.025542e+01
   6.651710e+01   1.023216e+02
  -3.261463e+01   9.321447e+01
  -7.357101e+01  -1.164345e+01
  -9.775148e+01  -5.231636e+01
   2.175088e+01  -2.299570e+01
   2.940482e+01  -1.801148e+01
  -4.554058e+00  -1.874856e+01
  -4.557195e+01  -3.043232e+01
  -6.006233e+01  -1.147238e+01
   1.167424e+02  -6.029857e+01
   1.510177e+02   6.284769e+00
   1.047428e+02   9.309835e-01
   2.503279e+01   7.522776e+01
  -3.369623e+01   7.112740e+01
  -9.594063e+00  -2.150675e+00
   4.205414e+01  -7.305451e-01
   1.497799e+00  -7.296165e+01
  -2.474146e+01   2.674955e+01
   8.108012e+00   5.458558e+01
  -3.555157e+01   2.919461e+01
   1.242130e+01  -3.827316e+00
  -3.823893e+01  -5.635412e+01
  -2.197701e+01   1.262465e+01
   3.308879e+00   3.510519e+01
   3.235888e+01   2.655793e+01
  -2.190015e+00  -1.482976e+01
  -1.791296e+01  -2.239957e+01
   1.614873e+01   1.332431e+01
   3.753238e+01   5.442609e+01
   6.328759e+00  -5.983112e+00
  -4.708835e+01   3.097731e+01
  -5.692001e+01  -7.372214e+01
  -3.019019e+01  -9.539594e+01
   4.076978e+01  -3.571653e+01
   9.319674e+01   4.789326e+01
   4.768477e+01   2.841770e+01
  -2.330188e+01   3.635241e+01
  -7.580882e+01  -1.708324e+01
  -5.589191e+01   4.420755e+01
   2.700494e+01  -1.248597e+01
  -3.224159e+01   2.142582e+01
  -4.480555e+01   1.746601e+01
   1.618530e+00   3.077602e+01
