
 $NMID
 id='ANONYMOUS ', fmtdat='(2E16.6)'
 volume=1.0
 tramp=1.0
 $END
   4.150465e+03  -2.582885e+02
   2.522820e+03   2.661478e+03
  -5.746611e+02   2.776748e+03
  -1.924240e+03   1.201766e+03
  -1.078057e+03  -5.558740e+02
   5.610384e+02  -5.834039e+02
   8.847715e+02   3.652390e+02
  -1.817657e+01   1.053357e+03
  -8.207256e+02   8.065180e+02
  -9.718244e+02  -9.543740e+01
  -4.972137e+02  -7.888296e+02
   1.544985e+02  -8.796484e+02
   6.314284e+02  -2.170505e+02
   4.010856e+02   6.507101e+02
  -1.834389e+02   7.223797e+02
  -6.229389e+02   4.530254e+01
  -2.914232e+02  -6.736617e+02
   2.946003e+02  -5.682018e+02
   6.347562e+02  -1.137701e+02
   4.024492e+02   3.695015e+02
  -5.096326e+00   5.276124e+02
  -2.909015e+02   1.944720e+02
  -1.846206e+02   1.094202e+01
   1.561608e+02  -6.662217e+01
   4.027282e+02   4.810447e+01
   1.670547e+02   4.454761e+02
  -3.822796e+02   4.186949e+02
  -8.217007e+02  -8.408953e+01
  -3.313130e+02  -4.745669e+02
   3.926112e+02  -4.459175e+02
   7.191428e+02   4.155978e+01
   3.017949e+02   4.966419e+02
  -2.900439e+02   5.020957e+02
  -5.256188e+02   2.135916e+02
  -4.085376e+02  -1.849634e+02
  -2.468079e+01  -4.761209e+02
   1.481320e+02  -3.147249e+02
   1.653589e+02   2.125511e+02
  -1.814058e+02   4.473143e+02
  -3.592931e+02  -1.465737e+01
  -2.669643e+02  -6.523607e+02
   3.050918e+02  -6.900858e+02
   5.941447e+02  -1.057248e+01
   2.658862e+02   5.256502e+02
  -2.694769e+02   3.688841e+02
  -3.734891e+02  -2.774885e+02
   4.742023e+01  -5.109230e+02
   5.350412e+02  -1.365532e+02
   6.060322e+02   4.157340e+02
   1.718458e+02   5.554598e+02
  -3.598940e+02   3.584444e+02
  -6.314584e+02  -7.977176e+01
  -4.355779e+02  -3.562453e+02
   1.361770e+02  -3.428185e+02
   4.376921e+02  -8.170818e+01
   2.827812e+02   1.996162e+02
  -1.192994e+02   1.359229e+02
  -1.475439e+02  -1.311978e+02
   1.422521e+02  -1.760521e+02
   3.135089e+02   2.228798e+01
   2.050059e+02   2.656412e+02
  -1.886544e+02   2.811792e+02
  -3.204951e+02   1.247173e+02
  -2.279068e+02  -5.901442e+01
   8.704976e+00  -2.803454e+02
   2.142749e+02  -3.832236e+02
   3.628011e+02  -1.898901e+02
   3.065863e+02   1.410666e+02
   8.911984e+01   3.903110e+02
  -5.911042e+01   4.192715e+02
  -8.686066e+01   1.874308e+02
  -5.982841e+01   1.930111e+01
  -9.402500e+01   1.365337e+02
  -1.462562e+02   1.656123e+02
  -2.952643e+02  -3.245767e+01
  -1.717444e+02  -2.917183e+02
   7.823900e+01  -2.812699e+02
   2.215290e+02  -2.982874e+01
   2.053699e+02   2.320773e+02
   1.237524e+01   3.555203e+02
  -2.177345e+02   8.876129e+01
  -3.626939e+02  -1.534256e+02
  -1.670673e+02  -3.741935e+02
   1.072076e+02  -3.499481e+02
   2.413186e+02  -6.395521e+01
   1.043273e+02  -4.317941e+00
   1.071623e+02  -4.683650e+01
   2.061844e+02  -5.451591e+01
   4.268505e+02   3.896762e+01
   3.707023e+02   3.171982e+02
   3.618765e+01   4.369274e+02
  -3.466925e+02   4.188172e+02
  -5.148968e+02   2.439990e+02
  -3.735209e+02  -6.512977e+01
  -5.529183e+01  -3.710701e+02
   1.540416e+02  -3.080845e+02
   8.377669e+01  -4.941987e+01
  -8.491836e+01   7.735179e+01
  -1.677924e+02  -5.767300e+01
  -2.461200e+01  -1.847000e+02
   1.199727e+02  -1.666857e+02
   1.318429e+02   7.036604e+01
   3.294469e+00   1.768243e+02
  -1.865510e+02   8.050663e+01
  -1.976379e+02  -2.326313e+02
  -8.012298e-01  -4.017633e+02
   2.442130e+02  -1.546873e+02
   3.915468e+02   7.872103e+01
   2.407109e+02   2.606597e+02
   5.522082e+01   2.622799e+02
  -1.114422e+02   1.622269e+02
  -1.977566e+02   9.705714e+00
  -6.473019e+01  -2.798483e+01
   4.709438e+01   8.379796e+01
  -5.000958e+01   6.600132e+01
  -8.406540e+01   3.327167e+01
  -1.385215e+02  -2.350143e+01
  -7.068016e+01  -8.372038e+01
   1.046089e+02   2.187748e+01
   3.162342e+01   9.437799e+01
  -1.095458e+02   7.436277e+01
  -2.657005e+02  -4.279844e+01
  -2.935501e+02  -1.557978e+02
  -2.884461e+01  -2.238460e+02
   1.783668e+02  -2.625707e+02
   2.520850e+02  -1.533330e+02
   1.676563e+02   5.828718e+01
  -5.608933e+00   9.709587e+01
  -1.022866e+02  -8.360048e+00
   3.471436e+01  -9.247966e+01
   1.801289e+02  -6.335267e+01
   1.836287e+02   2.119004e+01
   1.053495e+02   1.734010e+02
  -8.009702e+01   1.476550e+02
  -1.220889e+02   6.398925e+01
  -7.815860e+01   6.994940e+00
   5.816014e+01  -1.435998e+00
   9.804709e+01   6.185611e+01
  -3.179419e+01   8.998393e+01
  -2.205925e+02   3.437850e+01
  -1.964140e+02  -1.140601e+02
  -2.844658e+01  -2.003164e+02
   1.827172e+02  -1.445285e+02
   1.844157e+02   1.505758e+01
   4.539510e+01   1.063801e+02
  -2.216235e+01   1.294132e+02
  -1.200412e+02   3.844265e+01
  -1.192218e+01   5.471476e+00
  -4.724538e+01   4.150750e+00
  -4.595715e+01   2.370801e+01
  -1.321340e+02   2.409320e+01
  -9.893000e+01  -6.383847e+01
  -3.682843e+01  -2.112622e+02
   1.039837e+02  -1.742145e+02
   2.291776e+02  -7.928266e+00
   1.872060e+02   1.870650e+02
  -2.821925e+01   2.929551e+02
  -1.631854e+02   2.223951e+02
  -1.589804e+02  -1.018495e+01
  -3.046932e+01  -7.527745e+01
  -2.404289e+01  -4.559823e+01
  -1.166028e+02   2.776606e+01
  -1.044307e+02   2.326994e+00
  -2.010974e+01  -8.188506e+00
   3.421557e+01  -7.012150e+01
   8.053513e+01  -3.057748e+01
   8.782914e+01   6.957225e+01
  -3.286360e+01   1.344921e+02
  -1.436194e+02   7.022731e+01
  -2.221671e+02   8.486190e+00
  -1.199170e+02  -1.759007e+02
   6.533375e+01  -2.110135e+02
   2.657011e+02  -1.062654e+02
   2.285231e+02   9.125407e+01
   1.173383e+02   1.532516e+02
   3.812696e+00   1.732615e+02
  -8.248224e+01   8.935921e+01
  -4.907938e+01   1.116538e+02
  -1.163286e+02   9.110861e+01
  -1.359066e+02   1.110168e+02
  -1.128001e+02  -8.331107e+01
  -1.338203e+02  -1.077340e+02
  -1.861213e+01  -2.338201e+02
   8.989616e+01  -1.534474e+02
   1.797467e+02  -2.688171e+01
   1.186179e+02   1.483612e+02
   1.674995e+01   1.514871e+02
  -5.370535e+01   3.648384e+01
  -7.467257e+01   5.781814e+01
  -8.425914e+01  -4.125015e+01
  -6.604810e+00  -5.514617e+01
   3.591672e+01  -5.438558e+01
  -9.248246e+01  -4.069203e+01
  -2.400704e+01  -7.189935e+01
   7.974643e+01  -3.044546e+01
   1.931014e+02  -6.565472e+01
   1.122627e+02   8.739975e+01
   3.841114e+00   8.520485e+01
  -1.162947e+02   9.397968e+01
  -1.671144e+02   1.564751e+01
   6.610527e-01  -3.588518e+01
   1.042966e+01  -2.862455e+01
   5.908780e+01   1.908243e+01
  -3.051765e+00   6.207528e+01
  -6.172706e+01  -3.749518e+01
  -6.111596e+01  -2.658014e+01
  -1.171748e+01  -7.661165e+01
  -5.632708e+01  -5.210132e+01
  -4.103534e+01   3.325480e+00
  -3.520697e+01   4.201275e+01
  -3.198330e+01  -1.145892e+02
   1.887752e+01  -2.029441e+02
   1.228046e+02  -1.365706e+02
   1.540218e+02  -7.274947e+01
   1.238205e+02   8.838571e+01
   2.337782e+01   1.270311e+02
  -6.113882e+01   1.219693e+02
  -7.422772e+01   4.566835e+00
   3.654187e+01  -6.057311e+01
   1.271240e+02   1.991551e+01
   4.918343e+01   3.355891e+01
  -5.868994e+01   1.157760e+02
  -1.986886e+02   4.537558e+01
  -1.674229e+02  -4.745216e+00
  -6.732781e+01  -9.495482e+01
   7.510282e+01  -1.152018e+02
   3.882483e+01   1.525713e+01
  -7.222747e+01  -1.824672e+00
  -7.221233e+01  -2.441303e+01
  -3.651506e+01  -8.439678e+01
   6.883139e+01  -1.714025e+02
   1.451876e+02  -6.617013e+01
   9.532219e+01   6.111258e+01
  -2.732617e+01   1.698078e+02
  -1.161261e+02   1.770887e+02
  -1.081010e+02  -7.003294e+00
  -4.152183e+01  -1.017308e+02
  -2.806400e+01  -1.022305e+02
   3.545641e+01  -4.511565e+01
   3.737262e+01   6.178779e+00
   3.136351e+01  -6.684337e+01
   5.174072e+01  -6.392569e+01
  -2.356113e+01   2.119749e+01
   9.974178e+00   1.521929e+02
   8.975014e+00   1.109662e+02
  -9.259059e+01   2.983678e+01
  -1.442777e+02  -3.906696e+01
  -9.278976e+01  -5.510800e+01
  -3.648825e+01  -1.615751e+01
   1.169977e+02  -2.313107e+01
   1.090406e+02  -1.249545e+01
   2.592062e+01   9.058203e+00
  -4.367787e+01   4.187521e+01
  -1.711187e+01   3.042598e+01
   2.401873e+01   4.062052e+01
  -4.056158e+01   2.269963e+01
  -5.922196e+01   1.970406e+01
  -1.182091e+02  -4.382394e+01
  -4.048829e+01  -8.461657e+01
   1.438392e+02  -1.581771e+02
   2.098915e+02  -2.710816e+01
   1.516447e+02   1.014436e+02
   2.078192e-01   1.902058e+02
  -7.693432e+01   1.867123e+02
  -7.157459e+01   6.031083e+01
  -1.160483e+02  -1.600703e+01
  -6.631633e+01  -1.588548e+01
  -2.407216e+01  -2.660407e+00
  -2.695282e+01   3.493280e+01
  -5.592570e+01  -8.993740e+01
  -7.448857e+01  -1.097617e+02
   3.607283e+01  -6.046692e+01
   6.529152e+01  -4.074727e+00
   1.039872e+02   9.866729e+01
   1.986937e+00   4.356577e+01
  -1.450729e+02   1.962398e+01
  -1.479899e+02  -8.492406e+01
  -4.607055e+01  -7.552419e+01
   7.728660e+01  -9.743878e+01
   1.210054e+02   1.446969e+01
   3.468156e+01   8.715140e+01
  -2.648123e+01   7.449442e+01
  -4.011591e+01   6.060370e+01
   5.823150e+01  -2.733131e+01
   3.435755e+01  -3.617485e+01
   4.038994e+01   3.625786e+01
  -8.522817e+01   6.199876e+01
  -1.226828e+02   5.070003e+01
  -9.770793e+01  -3.029032e+00
   4.572569e+01  -5.503774e+01
   3.693014e+01  -8.647483e+01
   3.459766e+01  -2.141094e+00
   2.504292e+01   4.018227e+01
   2.098873e+01   9.114498e+01
  -3.989173e+01   1.156946e+01
  -8.659812e+00  -6.527208e+01
   2.092216e+00  -9.265187e+00
   2.316840e+01  -1.249841e+00
   3.805533e+01   8.315370e+01
   1.761918e+01   3.487609e+01
   6.411119e-01  -2.208508e+01
  -4.279188e+01   2.420843e+01
  -2.852662e+01   5.355613e+01
  -4.506948e+01   3.020061e+01
  -1.256951e+01  -1.481293e+01
  -6.560007e+01  -3.683737e+01
   7.828280e+00  -1.048474e+02
   3.943893e+01  -1.576058e+01
   4.878864e+01   3.625008e+01
   2.348370e+01   1.533241e+01
  -4.379563e+01   2.858330e+01
  -2.807166e+01  -7.943176e+01
  -7.200327e+01  -7.319878e+01
  -4.912680e+00  -6.004589e-01
   1.171991e+02  -2.517046e+01
  -6.642540e+00  -2.268260e+01
   8.006812e+00   1.559700e+01
  -2.810028e-01  -5.661647e+01
   5.125573e+01  -7.482390e+01
   1.169371e+02   2.102295e+00
