
 $NMID
 id='ANONYMOUS ', fmtdat='(2E16.6)'
 volume=1.0
 tramp=1.0
 $END
   1.650813e+03  -1.118397e+01
   1.074300e+03   6.745910e+02
   1.364227e+02   1.030554e+03
  -6.154858e+02   6.827529e+02
  -4.670467e+02   5.531310e+01
   3.715544e+00  -7.970352e+01
   2.185746e+02   4.312273e+01
   4.539838e+01   2.778622e+02
  -2.561207e+02   3.626525e+02
  -3.471765e+02   4.642163e+01
  -2.677437e+02  -2.912718e+02
   2.360708e+01  -2.874724e+02
   1.177950e+02  -5.088746e+01
   6.035884e+01   2.576572e+02
  -9.083528e+01   3.083762e+02
  -1.997605e+02   6.051220e+00
  -1.576533e+02  -3.244027e+02
   5.144763e+01  -3.598119e+02
   1.931162e+02  -1.418771e+02
   2.686487e+02   4.207561e+01
   6.024307e+01   1.652957e+02
  -1.577325e+00   1.552391e+02
  -6.765314e+01   2.954823e+01
   7.351741e+01   3.198305e+01
   1.476664e+02   1.629552e+02
   1.844423e+01   1.173377e+02
  -2.309188e+02   7.468490e+01
  -2.298364e+02  -3.478155e+01
  -1.454839e+02  -1.337912e+02
   2.094577e+02  -8.618218e+01
   2.743700e+02   4.930105e+01
   6.726175e+01   2.061062e+02
  -1.838835e+02   2.017254e+02
  -2.641182e+02   1.031152e+02
  -1.367386e+02  -1.008012e+02
  -4.315605e+01  -1.768478e+02
   7.028604e+01  -8.142534e+01
   3.709517e+00   1.672068e+01
  -1.040746e+02   5.988444e+01
  -7.045450e+01  -8.935154e+01
   1.813731e+01  -2.211149e+02
   1.089844e+02  -2.044694e+02
   1.767527e+02   4.673571e+01
   6.274920e+01   1.568797e+02
  -5.528742e+01   4.348896e+01
  -4.530457e+01  -1.520853e+02
   3.355153e+01  -2.036190e+02
   1.970074e+02  -1.862858e+01
   2.510661e+02   1.799888e+02
   1.092172e+02   2.154842e+02
  -1.325805e+02   1.417790e+02
  -2.360676e+02   1.080994e+01
  -1.807271e+02  -1.069754e+02
  -2.311911e+01  -1.181527e+02
   1.072216e+02  -7.060903e+01
   6.055581e+01   8.985631e+00
  -1.492747e+01   2.906758e+01
   1.198721e+01  -1.876196e+01
   3.778145e+01  -6.966114e+01
   8.155989e+01   7.972736e+00
   9.389394e+01   7.228936e+01
  -6.193134e+01   9.979201e+01
  -1.384391e+02   1.039249e+02
  -1.144706e+02   1.024753e+01
   9.139616e+00  -1.317547e+02
   1.119926e+02  -1.769949e+02
   1.607440e+02  -1.036660e+02
   9.822089e+01   9.856860e+01
   6.030503e+01   1.986314e+02
  -3.304557e+01   1.576891e+02
  -1.426613e+01   4.043963e+01
   1.885998e+00   1.889855e+01
  -6.084758e+01   7.432713e+01
  -1.494737e+02   7.081097e+01
  -1.482860e+02  -9.765212e+01
  -7.501993e+01  -1.529014e+02
   4.351166e+01  -1.375017e+02
   8.967546e+01   1.585621e+01
   9.059172e+01   1.490103e+02
   1.764607e+01   8.263750e+01
  -1.214377e+02   1.453075e+01
  -1.304021e+02  -7.311453e+01
  -8.310249e+01  -9.788671e+01
   2.626456e+01  -1.157624e+02
   5.466471e+01  -8.540646e+01
   6.956391e+01  -5.441563e+01
   5.976999e+01  -5.120705e+01
   1.444881e+02  -1.972350e+01
   1.953941e+02   3.215448e+01
   1.712089e+02   1.299320e+02
  -2.888149e+01   1.759742e+02
  -1.680870e+02   1.987246e+02
  -2.244103e+02   6.094361e+01
  -1.145804e+02  -6.081440e+01
   4.748351e+01  -1.219200e+02
   5.125068e+01  -6.579587e+01
  -1.071124e+01   1.855365e+00
  -7.222781e+01   5.890624e+01
  -9.981146e+01  -2.913493e+01
  -2.530108e+01  -1.192182e+02
   9.910580e+01  -4.910852e+01
   7.440840e+01   3.576371e+01
  -4.219487e+01   9.555945e+01
  -1.925680e+01  -1.310540e+01
  -6.315088e+01  -1.385192e+02
  -3.853612e+01  -1.585918e+02
   1.112285e+02  -1.092896e+02
   1.597991e+02  -2.765735e+01
   1.677520e+02   1.047531e+02
   7.818742e+01   1.050451e+02
  -3.306612e+00   5.343034e+01
  -3.854910e+01   6.164118e+00
  -1.210920e+01  -9.567468e+00
   1.945659e+01   4.679373e+01
   2.686637e+01   9.426462e+01
  -4.546490e+01  -6.971456e-01
  -6.594883e+01  -5.172019e+01
  -2.788743e+01  -3.110692e+01
   2.858831e+01  -2.580223e+00
   5.187981e+01   8.697243e+01
  -8.753052e+01   1.549195e+01
  -1.428399e+02  -2.827195e+01
  -1.176874e+02  -9.506300e+01
   3.531040e+01  -1.364076e+02
   1.148689e+02  -8.279450e+01
   1.561112e+02  -6.915161e+01
   4.925981e+01   1.797664e+01
  -3.074859e+01   4.050940e+01
  -5.325749e+01  -3.030339e+01
   2.242721e+01  -1.772115e+01
   1.428364e+02   3.119472e+01
   7.950161e+01   5.110524e+01
   2.682769e+01   4.781426e+01
  -2.969590e+01   2.780190e+01
  -1.398167e+01   4.443932e+01
  -1.625800e+01  -1.450065e+00
   3.905796e+01   2.934166e+01
  -1.248639e+01   8.157006e+01
  -6.629352e+01   5.826144e+01
  -1.167850e+02   3.485594e+01
  -1.130412e+02  -4.056960e+01
  -5.688027e+01  -9.272638e+01
   5.978114e+01  -3.456595e+01
   7.019813e+01   5.834088e+00
   6.358764e+00   5.734484e+01
  -4.522704e+01  -2.605472e+00
  -1.269281e+01  -3.513128e+01
  -1.041810e+01  -4.054314e+01
   2.094356e+01   3.170039e+01
   1.886985e+01   2.495982e+01
  -8.157531e+01   1.447648e+01
  -4.931421e+01  -6.606963e+01
  -5.607890e+01  -8.300492e+01
   6.406021e+01  -1.057625e+02
   1.209988e+02   1.794243e+01
   1.255299e+02   8.659224e+01
   3.697822e+01   9.094942e+01
  -6.698752e+01   6.351723e+01
  -8.559591e+01  -1.598422e+00
  -7.149332e+01  -7.544890e+01
  -8.937655e-01  -1.149536e+01
  -7.651012e+01   3.018530e+00
  -7.258476e+01   5.152852e+00
  -6.369707e+01  -5.518112e+01
   2.435917e+01  -2.492269e+01
   2.084342e+01  -5.701882e+01
   3.874306e+01  -4.040822e+01
   2.155117e+01   5.905285e+01
  -7.872614e+01   1.749287e+01
  -1.179408e+02   1.789318e+01
  -4.806146e+01  -7.992583e+01
  -1.128806e+01  -8.035319e+01
   1.076968e+02  -1.039876e+02
   1.146642e+02   2.738102e+01
   6.929438e+01   7.411207e+01
  -8.974212e+00   6.615734e+01
  -3.778683e+01   3.338457e+01
  -1.452571e+01   4.789249e+01
  -4.265153e+01   5.124052e+01
  -4.125706e+01   5.375376e+01
  -5.635163e+01  -3.576298e+01
  -5.057557e+01  -7.691882e+01
   5.533402e+00  -8.112606e+01
   5.091610e+01  -3.245013e+01
   5.908210e+01  -3.043374e+00
   8.801000e+01   6.548835e+01
  -4.352636e+01   6.228060e+01
  -1.878795e+01   3.226803e+01
  -2.067606e+01  -8.388187e+00
   3.518141e+01  -2.002152e+01
   2.786888e+01   1.445546e+00
   1.663304e+01  -1.915133e+01
  -4.159280e+01  -1.118776e+01
   2.026473e+01  -4.856933e+01
   4.950453e+01  -2.340903e+01
   6.462877e+01   2.381986e+01
   7.296269e+01   5.064257e+01
  -1.105087e+01   3.239846e+01
  -5.235418e+01   8.945581e+01
  -7.578977e+01   5.513013e+01
  -4.133067e+01  -2.260044e+00
   1.972979e+01  -3.025118e+01
   2.019014e+01   2.355276e+01
  -1.408207e+01   4.168057e+01
  -9.048202e+00   2.263484e+01
  -2.344922e+01  -2.221051e+01
  -4.694247e+01   6.091854e-01
  -3.910068e+01  -9.681312e+00
  -5.940117e+01   8.041120e+01
  -2.686143e+01   3.382051e+01
  -4.137133e+00  -6.767693e+00
   1.126824e+00  -3.493505e+01
   3.033474e+01  -3.119426e+01
   7.214789e+01  -2.152178e+01
   7.091888e+01   9.593129e+01
  -1.195489e+01   9.859581e+01
  -6.562829e+01   2.205586e+01
  -1.838997e+01  -8.908098e+00
   1.009576e+01  -8.290186e+00
   8.613410e+01   2.440876e+01
   6.465510e+01   9.183638e+01
  -6.783690e+00   4.299158e+01
  -1.066328e+02   3.455005e+01
  -1.059438e+02  -1.637822e+01
  -1.085910e+01  -5.315512e+01
   2.205616e+01  -6.305869e+00
   4.234353e+01  -1.939214e+00
  -3.308468e+01  -1.262652e+01
  -3.568805e+01  -4.326757e+01
  -4.577153e+01  -5.210480e+01
   5.675707e+01  -5.980805e+01
   1.220187e+02  -2.418601e+01
   1.469540e+01   3.331326e+01
   3.286089e+01   8.414315e+01
  -4.108415e+01   8.060225e+01
  -5.475580e+01   4.398740e+01
  -3.398514e+01  -3.163038e+01
  -1.030612e+01  -4.819565e+01
  -5.785584e+00  -1.018323e+01
   5.666445e+01   3.724834e+00
   2.431912e+01   4.713320e+01
   3.551913e+00   3.239872e+01
   2.740806e+01   1.917297e+01
   2.446859e+01   5.319726e+01
  -1.678358e+01   7.043400e+01
  -1.713302e+01   2.418248e+01
  -4.586770e+01  -3.591595e+01
  -6.595094e+01  -4.260088e+01
  -3.786324e+00  -5.401889e+01
   3.857942e+01  -3.939005e+01
   5.648822e+01  -2.835540e+01
   1.884500e+01  -5.135597e+01
   7.103308e+00   1.390060e+01
  -9.724640e+00   4.323735e+01
   2.942671e+01  -1.371200e+01
   4.371547e+01  -2.338210e+01
   2.099199e+01   1.856247e+01
  -5.100058e+01   1.109456e+01
  -3.070011e+01  -3.379247e+01
   5.233077e+01  -8.361347e+01
   9.184374e+01  -6.358907e+01
   7.913600e+01   2.036770e+00
   3.696721e+01   7.514760e+01
  -5.348318e+00   9.518155e+01
  -5.805156e+01   1.512590e+01
  -4.585886e+01  -3.750836e+00
  -6.808345e+01   5.484065e+00
  -6.214257e+01   4.242633e+00
  -5.151723e+01   4.195912e+00
   2.893060e+01  -3.560854e+01
   5.450945e+00  -5.188538e+01
   3.054868e+01  -1.426241e+01
   3.814238e+01  -1.075502e+01
   1.238291e+01   3.767552e+01
  -1.665852e+01   7.117577e+01
  -4.457543e+01   7.052796e+00
  -1.265587e+01  -1.051549e+01
   1.468923e+01  -3.488583e+01
   3.593662e+01  -4.965168e+01
   6.017627e+01  -5.005874e+00
   3.502595e+01   4.946430e+01
   6.071697e-01  -1.994369e+01
  -1.621060e+01   5.695366e+01
   7.009971e+01   3.376848e+01
  -1.520009e+01   2.408485e+01
   2.135625e+01   4.555832e+01
  -3.155138e+00   5.229468e+01
  -3.280348e+01   4.825251e+01
  -2.463783e+01   2.623801e+01
   1.230234e+01  -5.676648e+01
   1.050484e+01  -6.141090e+01
  -7.548707e+00  -4.248353e+01
  -5.578542e+00   3.899070e+00
  -8.850736e+00   1.920795e+01
  -1.545486e+01  -1.953752e+01
  -1.876759e+01  -1.491148e+01
  -3.265677e+01  -2.663130e+01
  -1.754126e+01  -4.637386e+01
   2.496008e+01  -6.642727e-01
   4.242141e+01  -9.097919e-01
   2.268967e+00  -1.898477e+01
  -1.320867e+01   3.306009e+01
   8.850729e+00   3.149044e+01
  -1.750985e+01  -9.346428e+00
  -6.767453e+00  -7.900384e+00
   1.241895e+01  -1.096451e+01
  -9.395486e+00  -1.898214e+01
   4.618658e+01  -3.970998e+01
   1.131973e+01  -2.684497e+01
  -1.596414e+01   1.210925e+01
   8.634588e+00  -8.382387e+00
  -6.104783e+00  -1.056690e+01
  -6.156330e+01  -1.160123e+01
  -2.068112e+01  -4.504612e+01
   2.675669e+01   4.682600e+00
   1.187844e+01  -2.367748e+01
   1.544418e+01  -6.005768e+00
  -1.320446e+01  -8.078948e+00
   6.566381e+00   1.613433e+01
   1.619040e+01  -4.973411e+00
