
 $NMID
 id='ANONYMOUS ', fmtdat='(2E16.6)'
 volume=1.0
 tramp=1.0
 $END
  -1.582682e+03   1.297604e+02
  -1.051855e+03  -7.037348e+02
  -1.347840e+02  -1.148896e+03
   5.767763e+02  -8.179698e+02
   4.820629e+02  -3.922936e+02
   1.686949e+02   1.253605e+01
  -4.140689e+01   1.220181e+01
  -4.087436e+01  -1.861710e+02
   2.073536e+02  -3.038866e+02
   3.969507e+02  -1.046921e+02
   2.952329e+02   2.223794e+02
   5.762876e+01   3.802368e+02
  -1.264755e+02   1.548749e+02
  -8.110062e+01  -1.815966e+02
   1.977159e+01  -3.754351e+02
   2.271340e+02  -6.382268e+01
   1.381968e+02   2.735458e+02
  -6.422356e+01   3.486375e+02
  -2.180437e+02   1.625760e+02
  -2.805737e+02  -7.131313e+01
  -1.190594e+02  -1.899010e+02
   4.397643e+01  -1.290562e+02
   7.291120e+01  -4.229162e+01
  -1.901721e+02  -3.297962e+01
  -1.368413e+02  -2.769094e+02
   5.626668e+01  -2.046036e+02
   2.876718e+02  -7.266928e+01
   3.201319e+02   1.356294e+02
   7.815543e+01   1.611064e+02
  -2.079908e+02   2.229827e+00
  -2.057088e+02  -1.158927e+02
  -3.494858e+01  -1.913099e+02
   1.344253e+02  -1.767748e+02
   2.659985e+02  -4.109785e+01
   2.107918e+02   1.072942e+02
   8.086630e+01   1.618338e+02
   2.036967e+01   7.708754e+01
   9.947257e+01   3.978445e+01
   1.529291e+02  -3.079329e+01
   1.222194e+02   1.107462e+02
  -9.789033e+01   2.865412e+02
  -1.665387e+02   2.351487e+02
  -1.471190e+02  -7.841949e+00
  -2.312755e+01  -1.582639e+02
   7.368826e+01  -1.107747e+02
   3.832233e+01   1.637455e+02
  -4.680987e+01   2.144063e+02
  -2.464995e+02   4.986686e+01
  -2.659725e+02  -2.359532e+02
  -9.348526e+01  -3.174791e+02
   1.804570e+02  -1.336521e+02
   2.722263e+02   6.837213e+01
   2.459322e+02   8.966419e+01
   1.589133e+01   1.263449e+02
  -1.503782e+02   1.009682e+02
  -1.601212e+02   2.819438e+01
  -3.116033e+01   4.057220e+01
   2.568675e+01   4.716084e+01
  -4.698759e+01  -1.200905e+01
  -1.072231e+02   5.799053e+00
  -1.169256e+02  -2.106064e+01
   1.320451e+01  -1.552712e+02
   1.647484e+02  -9.654808e+01
   1.304252e+02   4.839206e+01
  -3.932964e+01   2.452036e+02
  -2.223211e+02   2.383601e+02
  -2.621068e+02   1.744370e+02
  -1.574011e+02  -1.212094e+02
  -6.228856e+01  -2.299473e+02
  -3.267214e+01  -1.684834e+02
  -8.948742e+00  -5.190438e+01
   3.717340e+01  -7.071205e+01
   6.993754e+01  -7.771056e+01
   1.568290e+02  -3.793658e+01
   1.227419e+02   6.791618e+01
   4.626782e+01   2.516250e+02
  -8.433871e+01   1.405849e+02
  -1.304464e+02  -1.216323e+01
  -9.264570e+01  -1.863242e+02
   3.471521e+01  -1.552998e+02
   1.112297e+02   2.931273e+00
   1.766627e+02   1.477839e+02
   1.766588e+02   1.592474e+02
  -5.733823e+01   1.832365e+02
  -1.242844e+02   1.404117e+02
  -1.132282e+02   1.238792e+02
  -1.147715e+02   5.793916e+01
  -1.438865e+02   1.948451e+01
  -3.101814e+02  -1.026120e+02
  -1.882520e+02  -2.251339e+02
   5.890967e+00  -3.252536e+02
   2.803378e+02  -2.758584e+02
   3.378546e+02  -1.001249e+02
   2.068254e+02   8.876727e+01
  -6.604474e+01   1.761637e+02
  -8.574929e+01   7.786852e+01
  -1.130438e+01   3.069217e+00
   9.280581e+01  -7.325569e+01
   3.405296e+01   6.144865e+01
  -6.732122e+01   1.059113e+02
  -5.812799e+01   3.526229e+01
  -4.490341e+01  -4.272388e+01
   4.562260e+01  -5.512019e+01
   8.630243e+01   3.822425e+01
   1.019342e+02   1.355186e+02
   1.029545e+01   2.165903e+02
  -1.629063e+02   1.355115e+02
  -2.345122e+02  -2.649013e+01
  -1.340411e+02  -1.686210e+02
  -3.659811e+01  -2.279662e+02
   7.854005e+01  -9.524785e+01
   1.235804e+02   8.770225e+00
   5.919136e+01   1.623844e+01
  -4.861904e+01   1.002447e+01
   1.497595e+01  -4.382046e+01
   7.128147e+01  -9.384567e+01
   7.314340e+01   2.694387e+01
   1.913318e+01   1.584355e+01
  -5.342912e+01  -3.481018e+00
  -2.534868e+01  -7.160990e+01
   8.978659e+01  -7.274726e+01
   2.080937e+02  -3.700027e+01
   1.597854e+02   1.260448e+02
   3.268164e+01   1.570321e+02
  -8.398723e+01   1.576234e+02
  -1.895616e+02   3.602615e+01
  -8.475482e+01  -1.313781e+01
   5.193216e+01  -8.352211e+01
   4.148039e+01   2.696918e+01
  -3.989397e+01   7.361994e+01
  -1.398804e+02  -2.327893e+00
  -4.439330e+01  -4.429417e+01
  -1.772562e+01  -1.255588e+02
   7.708293e+01  -5.378050e+01
   6.366964e+01  -3.771969e+01
   1.485821e+01   4.835069e+01
   4.297268e+01  -1.243818e+01
  -1.631089e+01  -6.113182e+01
   4.187838e+01  -1.124058e+02
   1.184806e+02  -3.346214e+01
   1.203914e+02   8.004220e+01
  -5.108967e+00   1.220880e+02
  -1.363902e+02   9.527407e+01
  -8.902153e+01   2.930202e+00
  -4.214827e+00  -9.607036e+01
   7.880861e+01  -8.315435e+01
   4.866755e+01  -3.451755e+01
  -2.983728e+00   3.742186e+00
  -4.965941e+01  -2.253952e+01
   1.766892e+01  -1.881483e+01
   6.633679e+01  -8.051285e-01
   6.106520e+01   7.928629e+01
   1.851630e+01   1.333602e+02
  -7.717410e+01   8.850291e+01
  -1.270057e+02   7.164085e+00
  -1.656060e+02  -1.335119e+02
  -7.392978e+00  -1.296094e+02
   1.260438e+02  -1.271094e+02
   1.256220e+02  -1.181178e+01
   7.750137e+01   4.360129e+01
   8.473379e+00   6.812689e+00
   5.984269e+01   1.928594e+01
   5.203036e+01   1.280833e+01
  -1.087065e+01   7.321190e+01
  -3.419934e+01   6.686054e+01
  -1.390566e+02   7.658850e+01
  -9.009486e+01  -1.013508e+00
   2.039701e+01  -1.114389e+02
   1.515941e+02  -8.227795e+01
   1.690846e+02   6.986310e+01
   4.356371e+01   1.736096e+02
  -1.160066e+02   1.807343e+02
  -2.130415e+02   6.737124e+01
  -1.599039e+02  -1.702239e+01
  -8.630211e+01  -1.604937e+02
   3.050200e+01  -1.190393e+02
   5.585976e+01  -9.690316e+01
   9.490624e+01  -1.008381e+02
   3.436998e+01  -5.079709e+01
   8.192430e+01  -1.762940e+01
   1.158435e+02   1.916952e+01
   8.156940e+01   1.232293e+02
  -4.601907e+01   2.022483e+02
  -1.119827e+02   1.388581e+02
  -8.561469e+01   2.878179e+01
  -1.167257e+02  -8.178460e+01
  -5.613074e+00  -1.114317e+02
   3.865011e+01  -7.063434e+01
   4.119180e+01   7.208468e+01
   2.642588e+01   3.788332e+01
  -1.100064e+01   2.557050e+00
  -2.152351e+01   3.449769e+00
   5.712851e+01   1.609433e+01
   2.699744e+01   2.298616e+01
  -2.912570e+00   4.508836e+01
  -1.066344e+02   2.754208e+01
  -4.579457e+01  -1.778648e+01
   2.847906e+01  -8.424808e+01
   8.445211e+01  -7.053276e+01
   1.146180e+02   4.150917e+00
   7.345128e+01   3.389134e+01
  -2.185355e+01   3.099287e+01
  -6.150801e+01  -1.869764e+01
  -5.415943e+01  -3.357673e+01
  -1.409629e+01  -4.840697e+01
   7.342594e+01  -4.348227e+01
   8.056978e+01   2.667440e+01
   5.680511e+01   4.705001e+01
  -2.971138e+01  -8.698224e+00
  -3.019320e+00  -1.533207e+01
  -6.807788e+00  -1.182979e+00
  -1.080753e+01   1.311648e+02
  -9.433263e+01   1.101319e+02
  -1.406337e+02  -1.086391e+01
  -1.094334e+02  -7.197644e+01
  -6.736571e+00  -1.028936e+02
   7.879093e+00  -1.975652e+01
   4.487550e+01  -2.179916e+01
  -8.091960e+00  -1.067688e+01
  -5.611796e+01  -1.561733e+01
  -3.017847e+01  -5.427781e+01
  -2.623274e+01  -4.430951e+01
   1.370419e+02  -2.057003e+01
   1.233874e+02   5.621968e+01
   2.012869e+01   2.290232e+01
  -5.212858e+01   3.862967e+01
  -1.267024e+01  -1.548745e+01
   1.133484e+01  -1.031008e+01
   8.396833e+01   5.851207e+01
  -1.422373e+00   1.086533e+02
  -6.035039e+01   1.203020e+02
  -5.710636e+01   4.002281e+01
  -4.341912e+01  -5.939967e+01
  -3.850184e+01  -1.556871e+02
   6.586414e+01  -9.724419e+01
   1.060544e+02  -2.348146e+01
   8.891138e+01   9.777302e+01
  -9.638240e-01   2.777943e+01
  -1.846335e+01   1.127730e+01
  -2.036901e+01  -5.801823e+00
   2.381308e+01  -3.488258e+01
  -1.499116e+01   7.055006e+00
  -5.683604e+01  -1.013469e+01
  -5.735326e+01  -6.541130e+01
   1.689835e+01  -5.627789e+01
   5.740178e+01  -4.192976e+01
   1.034123e+02   2.385201e+01
   9.234560e+01   3.773815e+01
   5.624187e+00   4.022371e+01
  -6.407320e+01   1.964245e+01
  -7.654922e+01  -3.255722e+01
  -8.977980e+00  -2.117876e+01
  -2.007550e+01   1.437562e+01
  -1.427445e+01  -8.157560e+00
  -2.981066e+01   8.874289e+00
   1.380054e+01  -5.704010e+00
   2.125595e+01   1.047699e+01
   9.168112e+01   2.559352e+01
  -4.805434e+00   5.392459e+01
  -5.060749e+01   8.693788e+01
  -1.552113e+02   4.889157e+01
  -7.463264e+01  -5.466681e+01
  -3.242261e+00  -1.004125e+02
   1.134596e+02  -1.244842e+02
   9.859365e+01  -6.419119e+01
   4.886365e+01   5.840995e+01
   5.601644e+01  -8.565056e+00
  -3.644510e+01  -6.365930e+00
   1.179003e+01  -2.247934e+01
   1.599721e+00  -4.231394e+00
   4.160354e+01   1.106528e+02
  -3.578820e+01   7.089773e+01
  -1.086969e+02   7.145028e+00
  -2.835611e+01  -5.140247e+01
  -7.091212e+01  -6.148795e+01
   2.997896e+01  -1.981201e+01
   1.120078e+02   4.314434e+01
   4.014024e+01   9.063247e+01
  -7.002086e+01   9.120464e+01
  -5.130815e+01  -3.358755e+01
  -6.018914e+00  -6.055855e+01
   3.549695e+01  -4.143635e+01
   4.454926e+01  -3.124041e+01
  -4.348506e+01  -3.474368e+00
  -7.446957e+01   3.452920e+00
   3.927367e+00  -2.887722e+01
   4.136667e+01  -3.498243e+01
   6.399893e+01   2.417830e+00
   6.269137e+01  -2.757016e+00
   2.802432e+00   1.026766e+02
  -5.401449e+01   8.537566e+01
  -4.457991e+01  -1.111044e+01
   2.582380e+01  -5.225493e+01
   1.635809e+01   3.726932e+01
   1.733516e+01   3.585084e+01
   2.718160e+01   5.103465e+01
  -1.113584e+01   6.261072e+01
   2.804802e+01  -1.009233e+01
   1.326755e+01  -6.295002e+01
  -6.161441e+00   1.541579e+00
   4.629992e+01  -2.751762e+00
  -6.713672e+00  -3.394914e+00
   5.512457e+00  -4.956685e+00
  -2.111321e+00  -2.547590e+01
   3.295736e+00  -1.969998e+00
   3.965616e+01   3.129899e+01
   4.869098e+01   1.652543e+01
  -2.828334e+01   3.111552e+01
  -3.108779e+00  -1.586439e+01
   8.924484e+00  -5.883939e+01
   5.412209e+01  -4.920864e+01
   1.088676e+02  -2.583215e+01
   3.519321e+01   2.771626e+01
  -1.946751e+01   2.483938e+01
  -7.359120e+01   2.283844e+01
   4.907707e+00  -1.899169e+01
  -2.579767e+00  -1.105452e+01
  -1.207165e+01   7.248787e+00
  -1.508677e+01  -1.944176e+01
  -7.600398e+01   9.773654e+00
