
 $NMID
 id='ANONYMOUS ', fmtdat='(2E16.6)'
 volume=1.0
 tramp=1.0
 $END
   2.557399e+03   1.314846e+02
   1.706479e+03   1.429147e+03
  -3.980901e+01   1.767116e+03
  -1.018270e+03   9.928114e+02
  -7.693974e+02   9.586265e+01
  -8.972386e+01  -8.925616e+01
   2.620573e+02   1.150455e+02
   2.745656e+01   3.921684e+02
  -3.000038e+02   4.007275e+02
  -5.325362e+02   4.020138e+01
  -2.982432e+02  -3.877288e+02
   3.259888e+01  -4.749869e+02
   3.017802e+02  -1.313883e+02
   1.952381e+02   3.768920e+02
  -1.501338e+02   3.922842e+02
  -3.913496e+02  -3.799005e+01
  -2.613038e+02  -4.701256e+02
   1.731114e+02  -5.145048e+02
   4.143709e+02  -3.177342e+02
   3.380096e+02   5.761207e+01
   1.320707e+02   2.463522e+02
  -9.473494e+01   1.801795e+02
  -7.163424e+01   1.170303e+02
   1.961218e+02   1.090029e+02
   2.683879e+02   2.326950e+02
   2.481323e+01   3.227850e+02
  -3.806194e+02   1.526661e+02
  -5.236496e+02  -1.789575e+02
  -2.026836e+02  -3.110453e+02
   3.186240e+02  -2.641209e+02
   4.387301e+02   1.376916e+02
   1.744914e+02   2.818919e+02
  -2.887084e+02   3.081567e+02
  -4.309721e+02   9.788234e+01
  -2.458300e+02  -1.656015e+02
  -9.483152e+01  -3.113151e+02
   6.367066e+01  -1.469509e+02
  -2.212384e+01   2.645326e+01
  -1.682662e+02   1.382482e+02
  -1.622190e+02  -1.397932e+02
   7.737472e+00  -4.001863e+02
   1.838103e+02  -3.922113e+02
   3.080847e+02   2.647223e+01
   1.084636e+02   2.757041e+02
  -1.754324e+02   6.618250e+01
  -2.007126e+02  -2.376658e+02
   1.030100e+02  -3.456791e+02
   3.631565e+02  -5.584221e+01
   4.424735e+02   3.362408e+02
   1.027123e+02   3.571618e+02
  -3.100588e+02   2.100579e+02
  -4.213187e+02  -7.704702e+01
  -2.697408e+02  -2.438001e+02
   4.532747e+01  -1.715519e+02
   2.328911e+02  -5.311853e+01
   1.498000e+02   3.792032e+01
   1.627133e+01   3.514815e+01
   1.182453e+01  -7.522698e+01
   1.051475e+02  -7.120143e+01
   1.698721e+02   5.211196e+01
   1.164266e+02   1.457296e+02
  -1.119058e+02   1.980926e+02
  -2.607927e+02   1.176643e+02
  -2.337068e+02  -2.505617e+01
   3.743611e+01  -2.190596e+02
   1.763676e+02  -2.721478e+02
   2.912309e+02  -1.203453e+02
   1.878803e+02   1.128916e+02
   3.988918e+01   3.153457e+02
  -4.282527e+01   2.375896e+02
  -1.318500e+01   1.627617e+02
   3.855723e+01   6.689385e+01
  -1.025784e+02   6.282314e+01
  -2.262287e+02  -7.001799e+00
  -1.820720e+02  -1.005443e+02
  -2.624624e+01  -1.995158e+02
   8.839747e+01  -9.896203e+01
   1.451708e+02   5.692673e+01
   8.655531e+01   2.064947e+02
  -5.748998e+01   2.112718e+02
  -2.072454e+02   7.968281e+01
  -2.745604e+02  -1.553379e+02
  -1.199068e+02  -2.239337e+02
   3.607818e+01  -2.315270e+02
   1.424161e+02  -1.068884e+02
   8.967037e+01  -3.563759e+01
   6.884723e+01  -3.872537e+01
   2.079011e+02  -2.395879e+01
   3.121755e+02   5.623813e+01
   2.238014e+02   2.226075e+02
  -3.675006e+01   3.567569e+02
  -3.442923e+02   3.128625e+02
  -3.959538e+02   1.154041e+02
  -1.787552e+02  -9.855582e+01
  -1.265079e+00  -2.261794e+02
   1.215127e+02  -1.232608e+02
  -1.624729e+01  -2.662306e+01
  -1.273583e+02   4.108653e+00
  -1.154421e+02  -5.743600e+01
  -7.502532e+00  -1.563554e+02
   1.379173e+02  -1.020836e+02
   8.175890e+01   2.004471e+01
  -3.805159e+00   9.135599e+01
  -1.794749e+02  -2.624046e+01
  -9.458652e+01  -2.136353e+02
   2.447255e+01  -3.132924e+02
   1.985428e+02  -1.421667e+02
   3.118506e+02   7.127698e+01
   2.603807e+02   2.729849e+02
   8.034494e+01   2.714525e+02
  -8.221023e+01   1.373626e+02
  -1.478109e+02   2.355580e+01
  -9.360584e+00  -5.370233e+01
   1.148595e+02   4.320812e+01
   3.224991e+01   1.477274e+02
  -1.477083e+02   9.180052e+01
  -1.053116e+02  -1.089491e+01
   6.993612e+00  -7.662253e+01
   7.295260e+01  -4.039058e+01
   3.329688e+01   1.330372e+02
  -1.161089e+02   4.767931e+01
  -2.655054e+02   1.028229e+00
  -2.157806e+02  -1.583696e+02
  -4.626808e+01  -2.412905e+02
   1.743771e+02  -2.121015e+02
   2.155914e+02  -8.286353e+01
   1.340777e+02   2.389383e+01
  -1.804588e+00   6.278081e+01
  -3.003839e+01   9.160742e+00
   5.677100e+01  -3.075495e+01
   1.461423e+02  -1.617286e+01
   1.309569e+02   8.865376e+01
   5.531578e+01   1.683293e+02
  -8.929798e+01   1.069596e+02
  -1.762723e+02  -4.147352e-01
  -5.013797e+01  -6.409439e+01
   4.233701e+01   3.110891e+01
   2.263572e+00   1.153575e+02
  -9.524004e+01   9.405839e+01
  -2.177470e+02  -6.089448e+00
  -1.720868e+02  -1.289503e+02
  -5.048717e+01  -2.032692e+02
   1.408558e+02  -1.123377e+02
   1.291300e+02  -2.754172e+01
   3.621811e+01   8.056188e+01
  -3.539786e+00   5.051780e+01
  -3.172312e+01   2.543684e+01
  -3.042765e+00   5.830384e+00
   4.155772e+01  -6.375651e+00
   7.604343e+00   4.350334e+01
  -6.547059e+01   5.424092e+01
  -6.661399e+01  -6.438879e+01
  -4.921250e+01  -1.452196e+02
   7.179775e+01  -1.266782e+02
   1.668344e+02  -6.842651e+01
   1.966574e+02   1.092691e+02
   5.753031e+01   2.134140e+02
  -1.148701e+02   1.003071e+02
  -1.407074e+02   1.247552e+01
  -5.236857e+01  -7.360638e+01
  -1.034619e+01  -3.221871e+01
  -5.064363e+01   1.912012e+01
  -8.324133e+01  -1.015355e+01
  -8.489274e+01  -1.043881e+02
  -2.172692e+00  -1.090211e+02
   1.345639e+02  -5.976537e+01
   1.143369e+02   8.627931e+01
   2.568706e+01   1.147764e+02
  -1.203160e+02   3.856381e+01
  -1.329031e+02  -9.567990e+01
  -8.146526e+01  -1.292439e+02
   9.102920e+01  -1.541154e+02
   2.222127e+02  -2.679873e+01
   1.522847e+02   1.208944e+02
   6.197174e+01   1.575145e+02
  -5.233929e+01   1.072148e+02
  -1.182291e+02   7.123252e+01
  -4.101672e+01   5.049286e+01
  -6.980110e+01   1.105061e+02
  -6.148935e+01   7.065239e+01
  -1.285118e+02  -4.350623e+01
  -6.844245e+01  -1.250328e+02
  -2.461573e+01  -1.802617e+02
   4.895382e+01  -1.092815e+02
   1.524596e+02  -6.900678e-01
   9.235512e+01   1.397795e+02
   3.960087e+00   1.165220e+02
  -6.580506e+01   1.145155e+01
  -3.671131e+01   2.584347e+00
   7.085008e+01  -5.070909e+01
   4.721657e+01  -3.777442e+01
  -5.792236e+01   5.773895e+01
  -7.670331e+01  -5.498266e+01
  -6.207430e+01  -8.031673e+01
   8.058184e+01  -5.465528e+01
   2.095620e+02  -3.405613e+01
   1.342876e+02   5.524253e+01
   5.329931e+01   6.687205e+01
  -1.429145e+02   4.212541e+01
  -1.400773e+02   1.033317e+01
  -2.532639e+01  -7.138081e+01
   4.451483e+01  -2.071501e+01
   2.667089e+01   3.271928e+01
   1.080638e+01   1.111188e+02
  -7.594615e+01   3.834427e+01
  -8.634767e+01   1.495938e+01
  -6.721369e+01  -6.098295e+01
  -3.707414e+01  -4.403304e+01
  -6.909959e+01  -1.548638e+01
  -2.760038e+01  -2.203747e+01
  -8.752877e+00  -1.011787e+02
   7.343501e+01  -8.140359e+01
   8.586695e+01  -9.512715e+01
   1.667291e+02  -2.666019e+01
   8.161747e+01   9.547921e+01
   1.469004e+01   1.153201e+02
  -6.704396e+01   5.589539e+01
  -1.852004e+01   4.274579e+01
   4.142092e+01  -9.735735e-01
   1.215100e+02   3.882415e+01
   1.080308e+02   9.136599e+01
  -1.005882e+02   1.122381e+02
  -1.420717e+02   1.875730e+01
  -1.362418e+02  -5.826451e+01
   4.136476e+00  -8.208561e+01
   9.187781e+01   1.405012e+01
   7.380680e+01   2.499678e+01
  -5.540352e+01   5.146926e+01
  -8.485743e+01  -2.902019e+01
  -1.546335e+01  -1.330999e+02
   1.020350e+02  -1.218818e+02
   1.903310e+02   1.276923e+01
   7.261692e+01   1.171414e+02
   5.340001e+01   1.945281e+02
  -5.638591e+01   1.091195e+02
  -8.402498e+01  -2.464142e+01
  -3.221864e+01  -1.004232e+02
   1.775991e+01  -2.392691e+01
   2.820894e+01  -4.580429e+01
   1.153991e+01   3.806733e+01
  -2.633860e+01   1.642804e+01
  -5.989968e+01  -6.433640e+01
   3.559427e+01   1.257209e+01
   7.954301e+01   7.313443e+01
   9.455001e+00   5.454203e+01
  -3.925661e+01   3.977447e+01
  -1.018152e+02  -2.177260e+01
  -1.006148e+02  -3.184426e+01
  -2.026211e+01  -3.258551e+01
   2.911315e+01  -1.635773e+01
   5.504407e+01   3.976019e+01
  -1.737569e+00  -7.551627e+00
  -4.592654e+01  -2.151116e+01
  -8.662458e+00   1.131312e+01
   2.174476e+01  -2.802207e+00
   1.012487e+01  -2.384599e+01
  -7.671397e+01  -2.272780e+01
  -7.285977e+01  -1.893283e+01
   5.370360e+00  -7.439124e+01
   5.863574e+01  -7.453395e+01
   1.229708e+02  -7.759362e+01
   1.473763e+02   3.802287e+01
   5.649906e+01   1.412490e+02
  -8.194761e+01   1.566884e+02
  -1.223856e+02   2.330403e+01
  -3.655744e+01  -2.797809e+01
   2.977450e+01  -6.328472e+01
   1.826344e+01   5.556530e+00
   2.136053e+01   3.718074e+01
  -4.173934e+01  -7.554174e+01
   9.455852e+00  -8.881823e+01
   1.587910e+01  -3.167967e+01
   3.939600e+01   1.152860e+00
   1.032614e+02   9.075781e+01
  -3.539021e+00   1.444342e+02
  -4.456454e+01  -1.470660e+01
  -7.291153e+01  -7.391526e+01
  -5.114203e+01  -1.098990e+02
   5.569198e+01  -6.150532e+01
   8.643456e+01   1.481944e+01
   1.739275e+01   6.457062e+01
  -6.080778e+01   5.937635e+01
  -3.710877e+01   4.654656e+01
   2.398668e+01  -5.474806e+01
   1.895110e+01  -1.938588e+00
   7.255898e+00   4.207834e+01
  -6.468653e+01   8.008839e+01
  -1.168880e+02   6.307693e+01
  -7.786621e+01  -1.240716e+01
   1.750116e+01  -1.055040e+02
   5.446547e+01  -7.267817e+01
   6.817263e+01   2.596686e+01
   1.766524e+01   6.599211e+01
  -3.938308e+01   4.566927e+01
  -4.595069e+01   7.763032e+00
   3.534075e+01  -9.555984e+01
  -8.014897e+00  -2.863811e+01
  -4.775039e+01  -1.436512e+00
   3.617087e+01   1.232117e+02
   4.178827e+01   9.291645e+00
  -5.457927e+00  -1.601334e+01
  -9.622768e+00  -3.455921e+01
  -2.421491e+01   6.089832e+01
  -3.160399e-01   1.087531e+01
  -2.406800e+01   1.505860e+01
  -2.717177e+01   5.686544e-01
  -6.359361e+01  -5.105682e+01
   1.758656e+01  -3.054398e+01
   4.986556e+01   3.358894e+01
   5.932625e+01   1.092887e+01
  -5.287862e+01   4.906282e+01
  -4.702681e+01   6.116474e+00
  -2.539326e+01  -1.344652e+01
  -4.979262e+01  -1.197143e+01
   5.377510e+01  -3.434484e+01
   4.911501e+01   7.822658e-02
  -4.555545e+01   2.980701e+01
  -1.569830e+00  -3.147323e+01
   4.236057e+01  -4.921658e+01
   6.566674e+01  -2.963006e+01
