
 $NMID
 id='ANONYMOUS ', fmtdat='(2E16.6)'
 volume=1.0
 tramp=1.0
 $END
   1.508944e+03   5.502676e+00
   9.840274e+02   7.974803e+02
  -2.091652e+00   9.834327e+02
  -6.087438e+02   5.352589e+02
  -4.683306e+02   1.037194e+02
  -7.070605e+01  -4.558324e+01
   1.268092e+02   1.231828e+02
   7.775254e+01   3.345075e+02
  -1.824210e+02   3.362423e+02
  -3.578647e+02   5.780163e+01
  -2.067722e+02  -3.033245e+02
   9.766583e+01  -3.252458e+02
   2.743474e+02  -8.833098e+01
   1.418056e+02   3.077022e+02
  -1.311119e+02   3.457595e+02
  -3.057952e+02   5.315214e+01
  -1.305243e+02  -3.331715e+02
   1.018676e+02  -3.352950e+02
   2.912736e+02  -1.451786e+02
   2.381448e+02   5.625045e+01
   7.408422e+01   2.535410e+02
  -7.827337e+01   1.990443e+02
  -2.628491e+01   6.618064e+01
   9.965618e+01   7.080778e+01
   1.216726e+02   1.183000e+02
   2.596829e+01   1.986571e+02
  -2.250658e+02   1.346764e+02
  -3.307195e+02  -6.888666e+01
  -1.638403e+02  -1.723148e+02
   1.120919e+02  -1.297580e+02
   2.557260e+02   8.944466e+01
   1.066080e+02   2.477257e+02
  -7.853078e+01   1.606716e+02
  -1.986700e+02   5.993833e+01
  -2.200974e+02  -8.545664e+01
  -1.254580e+02  -1.444549e+02
   4.950068e+01  -5.871141e+01
   1.306968e+01   3.552671e+01
  -9.237223e+01   1.146823e+02
  -1.703472e+02  -9.023762e+01
  -2.019698e+01  -2.772307e+02
   1.664628e+02  -2.417488e+02
   2.145049e+02  -4.478892e+00
   6.592287e+01   1.793089e+02
  -1.114495e+02   1.100101e+02
  -1.269282e+02  -1.303406e+02
   5.379583e+01  -2.049259e+02
   2.932356e+02  -5.823324e+00
   2.985708e+02   1.903613e+02
   3.801174e+01   3.092369e+02
  -1.936857e+02   1.573068e+02
  -2.826535e+02  -2.903350e+01
  -1.548054e+02  -1.479702e+02
   1.897169e+01  -1.488600e+02
   1.511517e+02  -5.689249e+01
   1.490923e+02   4.577746e+01
   4.744160e+01   2.034463e+01
  -8.319033e+00  -2.283460e+01
   8.439514e+01  -7.395760e+01
   7.434135e+01  -1.012655e+01
   8.663033e+01   6.921584e+01
  -4.212190e+01   1.789705e+02
  -1.021045e+02   1.038224e+02
  -1.531981e+02  -4.473261e+01
  -1.919866e+01  -1.772278e+02
   1.261884e+02  -1.958603e+02
   2.184605e+02  -1.225015e+02
   1.559444e+02   8.631365e+01
   2.205939e+01   1.773099e+02
  -4.640948e+01   1.502613e+02
  -3.434260e+01   7.782421e+01
   6.718660e+00   1.010320e+02
  -5.435092e+01   4.001807e+01
  -1.454853e+02   6.834634e+00
  -1.116884e+02  -6.604588e+01
  -8.209121e+01  -1.164216e+02
   3.131381e+01  -1.254397e+02
   1.646581e+02   1.465121e+01
   3.827577e+01   1.491711e+02
  -4.347910e+01   1.759235e+02
  -1.219632e+02   2.414664e+01
  -1.305336e+02  -8.770645e+01
  -1.013134e+02  -1.886176e+02
   2.467683e+01  -1.389141e+02
   4.452994e+01  -1.067552e+02
   6.302731e+01  -4.471665e+01
   8.373811e+01  -6.425340e+01
   1.519087e+02  -3.290508e+01
   2.167075e+02   8.301326e+00
   1.486090e+02   1.387508e+02
   2.153733e+00   2.207584e+02
  -1.680699e+02   2.157517e+02
  -2.669181e+02   7.071113e+01
  -1.358455e+02  -2.330641e+01
   1.749158e+01  -1.184779e+02
   1.345202e+02  -8.425274e+01
   3.845242e+01  -1.913633e+01
  -6.312189e+01   4.731940e+01
  -6.409991e+01  -7.795884e+00
  -2.241156e+00  -6.938785e+01
   6.556380e+01  -2.126860e+01
   9.053919e+01  -2.255326e+00
  -3.302465e+00   5.240670e+01
  -6.641353e+01  -1.585816e+01
  -7.374532e+01  -1.281837e+02
   1.705476e+01  -1.882556e+02
   1.186850e+02  -1.305914e+02
   1.950914e+02  -5.098210e+00
   1.852152e+02   1.328995e+02
   7.778116e+01   1.724303e+02
  -4.713310e+01   6.621619e+01
  -8.855966e+01   2.278344e+01
  -5.771374e+01   1.100392e+01
   3.320536e+01   2.905008e+01
   1.477871e+01   8.722239e+01
  -5.439590e+01   3.201798e+01
  -7.458028e+01  -2.752618e+01
  -3.111446e+01  -1.860486e+01
   3.672335e+01   5.285582e+01
   2.781300e+01   5.695348e+01
  -1.055455e+02  -5.639108e+00
  -1.668090e+02  -4.015938e+01
  -1.764668e+02  -1.044122e+02
  -2.435426e+01  -1.702288e+02
   1.523488e+02  -1.168473e+02
   1.297543e+02  -4.696364e+01
   6.032055e+01  -3.630860e+01
  -1.415231e+01   1.541173e+01
  -3.692959e+01  -2.983628e+01
   2.474903e+01  -5.782372e+01
   1.506111e+02  -5.978726e+01
   1.452704e+02  -3.251388e+00
   2.794491e+01   9.170168e+01
  -8.259658e+01   6.516312e+01
  -1.242892e+02   3.419666e+01
  -4.178530e+01  -2.629294e+01
   3.755502e+01  -1.899394e+00
   3.504576e+01   5.071488e+01
  -7.611701e+00   1.211834e+02
  -1.212573e+02   2.411748e+01
  -1.273927e+02  -1.047979e+02
  -2.102451e+01  -1.239036e+02
   4.242347e+01  -6.664400e+01
   6.550231e+01  -1.743345e+00
   6.094862e+01   5.479299e+01
   1.753885e+00   8.200795e+01
  -2.573385e+00  -1.017915e+01
   2.731103e+01   1.650536e+00
  -2.052095e+01   3.242288e+00
  -3.325048e+01   9.640068e+00
  -4.966857e+01   4.323627e+00
  -7.542035e+01  -4.951312e+01
  -2.019568e+01  -8.944309e+01
   3.327030e+01  -7.123242e+01
   1.152423e+02   2.436366e+00
   1.378997e+02   8.195447e+01
   2.298205e+01   8.058019e+01
  -5.485813e+01   1.108170e+02
  -7.077639e+01   1.468520e+01
  -2.234960e+01  -9.660121e+00
  -3.814914e+01  -2.701236e+01
  -5.524914e+01   2.640314e+01
  -6.990894e+01  -1.687365e+01
  -3.958319e+01  -3.172642e+01
   9.432562e+00  -3.020339e+01
   1.276076e+01  -8.112690e+00
   7.244320e+01   3.604365e+01
  -1.536960e+00   1.057405e+02
  -9.643337e+01   5.499440e+01
  -1.265946e+02  -6.919419e+01
  -3.510376e+01  -1.536925e+02
   7.465163e+01  -1.346353e+02
   1.420868e+02  -3.912775e+01
   9.832161e+01   7.918335e+01
   5.977364e+01   6.827839e+01
   1.305627e+01   9.010883e+01
  -5.459638e+01   5.034488e+01
   2.215608e+01   4.751240e+01
  -1.091827e+01   5.485840e+01
  -3.551391e+01   1.081125e+01
  -6.412374e+01  -3.240515e+01
  -1.074742e+02  -4.561143e+01
  -7.803948e+01  -1.485175e+02
  -8.087261e-01  -7.316201e+01
   1.039307e+02  -3.876957e+01
   7.299261e+01   4.978350e+01
   2.953998e+01   9.137644e+01
  -5.698804e+01   8.449099e+01
  -2.191811e+01   8.104815e+00
   1.412518e+01  -7.838815e+01
   6.301635e-01  -1.953245e+01
  -2.467018e+01   1.059621e+01
  -1.229893e+01  -1.105881e+01
  -2.004001e+01  -1.605169e+01
   3.294770e+01  -4.148304e+01
   1.014459e+02  -4.507057e+00
   7.103633e+01   6.648195e+00
  -5.955092e+01   2.093970e+01
  -8.504355e+01   5.368582e+01
  -3.548995e+01  -1.490222e+01
  -2.980735e+00  -1.019475e+01
   1.634448e+01  -8.445232e+01
   6.677232e+01   2.169414e+01
   8.698625e+00   5.373138e+01
  -2.832771e+01   3.989270e+01
  -1.909886e+01  -1.480884e+01
  -3.300686e+01   2.479014e+01
  -3.275571e+01  -6.459046e-01
  -4.753301e+01   6.164040e+00
  -9.169741e+01   4.540702e+01
  -2.225166e+01  -2.917264e+01
   5.978264e+01  -1.070278e+02
   4.837670e+01  -1.140508e+02
   1.215512e+02  -6.135796e+01
   9.427105e+01   4.096311e+01
   3.154500e+01   4.876117e+01
  -4.100497e+01   1.952246e+01
  -1.440850e+01   1.394733e+01
   4.193079e+01  -4.672205e+01
   3.929641e+01  -3.089265e+01
   3.040041e+01   1.116040e+01
  -3.577326e+01   5.017745e+01
  -7.507488e+01   2.204135e+01
  -8.676171e+01  -1.760824e+01
   9.262754e-01  -5.466076e+01
  -2.256102e+01  -2.299990e+01
  -2.670632e+01  -2.125960e+01
  -7.249167e+00   1.945568e+01
  -3.384362e+01   8.453345e+00
  -3.925037e+01  -5.188641e+01
   4.928095e+01  -5.811632e+01
   8.663605e+00  -2.462375e+01
   5.322713e+01   5.768563e+01
   1.483470e+01   1.064103e+02
  -5.339009e+01   6.748109e+01
  -3.841184e+01  -1.649256e+00
  -2.923970e+01   1.872673e+00
  -9.307653e+00  -1.030210e+01
  -1.215664e+01  -3.236900e+00
  -6.452024e+00   5.039358e+01
  -3.185979e+01  -1.923165e+00
  -3.239979e+01   2.679301e+00
   2.067932e+01  -1.765600e+01
   3.337819e+01   3.002765e+01
   2.169600e+01   6.168246e+01
  -4.786942e+01   1.610001e+01
  -5.925269e+01  -2.717237e+01
  -4.446015e+01  -2.273680e+01
  -2.317763e+00  -9.500474e+00
   3.723950e+01  -2.231216e+01
  -5.110081e+00   9.891007e+00
  -3.348510e+00   1.401542e+01
  -4.188319e+01   3.415542e+00
  -4.085054e+01  -1.856231e+01
  -5.998908e+00  -6.740037e+01
  -5.267446e+01   1.149447e+01
  -4.651707e+01  -2.055027e+01
  -1.785794e+01   2.317975e+01
   1.202997e+01  -2.593023e+01
   6.842100e+01  -6.238223e+01
   1.422826e+02  -8.092480e+01
   2.140935e+01   2.148737e+01
   4.898735e+00   1.277425e+02
   2.112962e+01   1.302369e+02
  -7.168736e+01   5.789695e+01
  -6.431067e+01  -4.801566e+01
  -2.146853e+01  -5.094719e+01
  -2.536996e+01   9.303122e+00
  -7.356144e-01   2.462904e+01
  -2.647448e+01  -1.573035e+01
  -1.970623e+01  -6.994542e+01
   1.064995e+01  -4.081560e+01
  -6.080330e+00   2.716960e+01
   7.413770e+01   6.990422e+01
   1.894103e+01   6.751103e+01
  -2.316279e+00   1.027472e+01
  -5.272380e+01  -1.927790e+01
  -1.147149e+01  -3.718809e+01
   3.949921e+01  -5.046015e+01
   3.837887e+01  -9.374651e+00
   5.825335e+01   6.791119e+01
  -3.867012e+01   3.854089e+01
  -1.655833e+01   3.973313e+01
  -8.839496e-01   1.031955e+00
   7.406038e+01  -1.752383e+01
   3.818554e+01  -8.035783e+00
  -2.973779e+01   5.107947e+01
  -4.216878e+01   7.145783e+00
  -4.252202e+01  -3.681706e+01
   1.541843e+01  -9.591200e+01
   3.727576e+01  -8.827961e+01
   6.241807e+01  -1.496113e+01
   5.293580e+01  -2.369912e-01
  -2.349875e+01   2.946652e+01
  -3.193511e+01   4.144272e+01
  -4.606337e+01  -4.487501e+01
   3.558045e+01  -5.563359e+01
   1.976201e+00  -1.933400e+01
   3.053741e+01  -1.253919e+01
  -8.578554e+00  -7.125886e+00
  -4.321862e+01  -1.017793e+01
   6.564885e-01  -1.982789e+01
  -1.164508e+01   2.235797e+01
   1.212218e+01   3.867746e+01
   5.234585e+00   2.087211e+01
  -1.822612e+01   6.998904e+00
  -1.426253e+01  -4.777257e+01
   5.823442e+01  -2.309952e+01
   2.521315e+01   4.226724e+01
   5.321483e+01   8.150713e+01
  -3.326858e+01   8.662639e+00
  -5.183797e+01   1.303200e+00
  -4.565687e+01  -6.086025e+00
   1.903435e+01   2.894557e+01
   3.214194e+01  -3.384146e+01
   2.721301e+00   7.408057e+00
  -3.871880e+01   1.729948e+01
  -2.610579e+01   2.313499e+01
  -1.229142e+01  -2.107630e+01
  -2.525103e+01  -3.458922e+01
