
 $NMID
 id='ANONYMOUS ', fmtdat='(2E16.6)'
 volume=1.0
 tramp=1.0
 $END
   2.655272e+03  -3.167035e+02
   1.819091e+03   1.397468e+03
  -7.458491e+01   1.898435e+03
  -1.272468e+03   9.425046e+02
  -7.312384e+02  -6.914809e+01
   1.504822e+02  -2.107040e+02
   3.742500e+02   1.031871e+02
  -1.781272e+01   5.433221e+02
  -4.466770e+02   5.607600e+02
  -6.445992e+02   1.308697e+02
  -4.104953e+02  -4.533043e+02
   4.311816e+01  -5.549773e+02
   3.118113e+02  -1.237784e+02
   2.384685e+02   4.234747e+02
  -1.076976e+02   5.475949e+02
  -4.040735e+02  -8.548059e+00
  -2.200504e+02  -4.978926e+02
   1.708592e+02  -4.765615e+02
   4.451361e+02  -1.985011e+02
   4.819730e+02   2.105562e+02
   1.581036e+02   3.812512e+02
  -1.154718e+02   2.241958e+02
  -1.299880e+02   9.506830e+01
   1.481048e+02   7.955194e+01
   2.636117e+02   2.925065e+02
  -4.164295e+01   3.368221e+02
  -3.180884e+02   1.154776e+02
  -5.416545e+02  -1.549702e+02
  -2.319876e+02  -3.707157e+02
   2.829526e+02  -1.918471e+02
   4.431746e+02   1.213959e+02
   1.596564e+02   3.152615e+02
  -2.386202e+02   3.052465e+02
  -3.839951e+02   1.175835e+02
  -2.661896e+02  -1.344064e+02
  -8.589131e+01  -2.937686e+02
   5.040813e+01  -2.543780e+02
  -1.514971e+01   8.022580e+01
  -1.154841e+02   1.720685e+02
  -1.660228e+02  -1.103209e+02
   3.903086e+01  -4.348807e+02
   2.269418e+02  -3.915761e+02
   3.118202e+02  -4.103008e+00
   8.521169e+01   2.381752e+02
  -1.635180e+02   9.280541e+01
  -1.401241e+02  -1.912695e+02
   8.853848e+01  -3.828257e+02
   3.761455e+02  -6.122028e+01
   4.167023e+02   3.380759e+02
   1.440018e+02   4.012295e+02
  -2.019953e+02   2.261193e+02
  -4.351332e+02  -7.065613e-01
  -3.561132e+02  -1.996427e+02
   4.033137e+01  -2.150486e+02
   2.717675e+02  -6.750120e+01
   2.220632e+02   1.999604e+01
  -2.223342e+01   2.108727e+01
  -4.426039e+01  -3.392371e+01
   1.059238e+02  -2.077702e+01
   1.983082e+02   8.099373e+01
   1.059163e+02   2.104456e+02
  -2.177027e+02   2.232100e+02
  -3.451880e+02   8.016988e+01
  -2.504612e+02  -1.201510e+02
   6.077599e+01  -2.703666e+02
   2.517228e+02  -2.891976e+02
   2.643512e+02  -1.804470e+02
   2.205390e+02   1.233560e+02
   5.854234e+01   3.601771e+02
   2.638860e+01   3.171373e+02
  -2.377227e+01   1.575604e+02
  -4.073298e+01   6.908834e+01
  -1.541050e+02   6.697719e+01
  -2.438579e+02   1.717864e+01
  -2.302871e+02  -1.025075e+02
  -1.009597e+02  -2.669427e+02
   7.300865e+01  -1.252530e+02
   1.760155e+02   5.272756e+00
   1.582263e+02   1.641520e+02
  -1.087278e+02   2.060598e+02
  -2.440599e+02   3.217407e+01
  -2.885180e+02  -1.585268e+02
  -1.748786e+02  -2.498794e+02
   8.367306e+01  -2.125081e+02
   1.824529e+02  -1.284819e+02
   9.593980e+01  -6.680380e+01
   1.371126e+02  -8.892091e+01
   2.468502e+02  -2.645024e+01
   3.509187e+02   1.339309e+02
   2.456111e+02   2.820918e+02
  -1.228732e+02   3.714227e+02
  -3.918146e+02   2.751621e+02
  -4.179224e+02   9.929532e+01
  -2.533727e+02  -1.333556e+02
   1.332090e+01  -2.198787e+02
   1.516730e+02  -1.857670e+02
   9.449030e+01  -5.346891e+01
  -9.427844e+00   8.155380e+01
  -5.839227e+01  -4.950941e+00
   1.565428e+01  -1.192386e+02
   1.191313e+02  -9.764917e+01
   4.557620e+01   7.030940e+01
  -4.813466e+01   1.079402e+02
  -9.282865e+01  -3.018778e+01
  -8.561463e+01  -1.888939e+02
   5.472696e+01  -2.953556e+02
   2.369223e+02  -1.753740e+02
   2.833501e+02   7.374765e+01
   2.503189e+02   2.877197e+02
  -6.708110e+00   2.432765e+02
  -1.274059e+02   1.159561e+02
  -1.274340e+02  -2.336963e+01
  -1.034261e+01   1.303305e+01
   5.791072e+01   6.305115e+01
  -1.242872e+01   3.329984e+01
  -1.099798e+02   2.453383e+01
  -1.242502e+02   1.735944e+01
  -2.071893e+01   2.586129e+01
   8.901113e+01   4.997100e+01
   4.677326e+01   8.383560e+01
  -1.552999e+02   5.977268e+01
  -2.620016e+02  -8.334234e+01
  -2.038716e+02  -1.367778e+02
  -7.120223e+01  -2.265426e+02
   2.373289e+02  -1.930970e+02
   2.386949e+02  -4.011864e+01
   9.748745e+01   9.059540e+01
  -2.830210e+01   9.946288e+01
  -7.864222e+01  -6.845939e+00
   4.939202e+01  -4.399984e+01
   1.544588e+02   7.677697e+00
   1.930176e+02   1.023505e+02
  -1.492618e+01   1.893026e+02
  -5.986811e+01   1.422088e+02
  -1.314975e+02   7.686620e+01
  -8.415578e+01  -5.913697e+01
   9.856566e+01   8.220440e+01
  -1.660408e+01   1.485022e+02
  -1.077242e+02   1.138605e+02
  -2.559002e+02  -1.419740e+01
  -9.323170e+01  -1.485405e+02
   2.848932e+01  -1.314635e+02
   1.270253e+02  -7.982071e+01
   1.404658e+02  -3.841954e+01
   1.195018e+01   8.538776e+01
  -2.123924e+01   7.284557e+01
  -8.814332e+01   7.514681e+01
   2.685771e+01  -4.389011e+01
   2.668871e+01  -3.805685e+00
   2.259876e+01  -5.052951e+00
  -4.349056e+01   2.281201e+01
  -5.179815e+01  -3.720344e+01
   2.884185e+01  -1.490868e+02
   1.311405e+02  -1.351220e+02
   2.579734e+02   4.612106e+01
   1.270600e+02   1.609835e+02
   4.843438e+01   2.102957e+02
  -8.737870e+01   1.090695e+02
  -7.019916e+01   2.821470e+01
  -4.353409e+01  -4.829719e+01
   2.908689e+01  -1.039381e+01
  -1.526099e+01  -5.703971e+00
  -5.843029e+01  -1.546581e+01
  -9.156579e+00  -3.550645e+01
   5.541125e+00  -7.103951e+01
   1.023486e+02  -1.046701e+02
   5.963478e+01   5.033222e+01
  -5.651437e+01   4.489566e+01
  -1.055890e+02   6.082092e+01
  -2.157307e+02  -7.429201e+01
  -6.379957e+01  -2.213950e+02
   1.784196e+02  -2.144688e+02
   1.937425e+02  -3.216415e+01
   1.990921e+02   6.774436e+01
   6.576425e+01   1.472570e+02
  -3.459866e+01   7.369379e+01
   9.825178e+00   8.132454e+01
  -1.771843e+01   3.753901e+01
  -1.252040e+01   7.746948e+01
  -7.303280e+01   6.686681e+01
  -1.600626e+02   2.540195e+01
  -1.094152e+02  -1.806946e+02
  -3.501757e+00  -1.363506e+02
   6.269206e+01  -1.887026e+02
   1.587402e+02  -4.675386e+01
   1.171345e+02   1.200745e+02
  -1.060851e+01   1.352342e+02
  -6.378748e+01   7.795657e+01
  -1.091069e+02  -4.048975e+01
   1.953009e+01  -8.470761e+01
   1.979380e+01  -7.419640e+01
  -1.314131e+01  -3.456949e+01
  -1.109925e+02   1.260924e+01
  -5.088208e+01  -8.936784e+00
   5.257802e+01  -1.573671e+01
   1.742454e+02  -2.772189e+01
   1.312720e+02   8.431078e+01
   3.367412e+00   6.289866e+01
  -1.350748e+02   2.551742e+01
  -1.127555e+02  -2.178958e+01
  -4.257841e+01  -1.914631e+01
  -9.198916e+00  -3.089155e+01
   1.068120e+02  -1.105166e+01
  -2.029984e+00   8.703205e+01
  -2.978009e+01   6.864740e+01
  -2.459937e+01  -3.418462e+00
   6.692967e+00  -3.213265e+01
  -4.690208e+01  -3.888514e+01
   1.544777e+01   2.877926e+01
  -4.011623e+01   1.272124e+01
  -3.402269e+01  -8.192812e+01
   2.680100e+01  -1.410519e+02
   1.162703e+02  -1.235573e+02
   1.639325e+02  -6.853860e+00
   1.054520e+02   6.392636e+01
  -1.050157e+01   1.036457e+02
  -8.597918e+01   3.413688e+01
  -4.269385e+01  -1.808483e-01
   1.079792e+02  -2.639185e+01
   1.076193e+02   1.018410e+02
   9.336371e+01   1.034572e+02
  -7.486269e+01   7.809451e+01
  -1.972782e+02   8.184349e+00
  -1.632586e+02  -8.046757e+01
  -4.213716e+01  -5.694315e+01
   9.231953e+01  -1.452699e+01
   9.365870e+01   1.542612e+01
  -4.466674e+01   3.027363e+01
  -7.026002e+01   1.376064e+01
  -5.458673e+01  -6.291058e+01
   8.113337e+01  -1.575010e+02
   1.060266e+02  -6.503909e+01
   1.012341e+02   1.143581e+02
   4.959874e+00   1.392777e+02
   9.488523e+00   9.766166e+01
  -4.550307e+01  -3.044437e+01
  -5.135163e+01  -1.401040e+02
   4.218831e+01  -1.173718e+02
   4.920543e+01  -6.404144e+00
   4.413015e+01   5.600647e+01
   1.795809e+01   5.520447e+01
  -5.011645e+01  -4.034512e+01
  -6.986313e+00   2.595970e+01
   6.709420e+01   6.269399e+01
   2.860081e+01   6.685180e+01
   1.956194e+00   3.237068e+01
  -1.297262e+02  -2.435230e+01
  -1.230602e+02  -5.309586e+01
  -2.858810e+01  -2.567461e+01
   8.014493e+01   6.964203e+00
   7.363772e+01   1.149909e+01
  -2.364223e+01  -1.576850e+01
  -4.830808e+01  -4.445667e+00
  -3.047963e+01   2.849949e+01
  -1.790156e+01  -5.337287e+00
  -1.574978e+01   1.224383e+01
  -6.825587e+01  -4.357802e+01
  -5.441966e+01  -3.492719e+01
  -2.153384e+01  -6.597684e+01
   1.087731e+02  -9.641272e+01
   1.286353e+02  -3.011417e+01
   9.793264e+01   1.247135e+02
   6.685699e+00   1.981798e+02
  -1.258910e+02   1.213947e+02
  -1.095666e+02   5.527876e+01
  -9.169352e+01  -1.454542e+01
  -5.953385e+01  -6.147635e+01
   1.725020e+01  -2.231040e+01
  -1.167975e+01   5.302579e+00
  -3.219223e+01  -1.603972e+01
  -2.557380e+01  -1.099005e+02
  -9.947104e-01  -5.892042e+01
   1.234578e+01  -7.014441e+00
   5.102025e+01   7.986515e+01
   4.982206e+01   1.067421e+02
  -3.825150e+01   1.144432e+00
  -1.192060e+02  -1.193244e+02
  -1.060539e+01  -8.767055e+01
   8.076549e+01  -3.937373e+01
   1.123915e+02  -4.314537e+01
   7.732971e+01   2.489397e+01
  -1.528149e+01   6.094070e+01
  -2.271453e+01  -1.029490e+01
   5.020812e+01   1.161022e+01
   6.425749e+01   3.741200e+01
   1.954614e+01   3.927668e+00
  -7.445140e+01   1.297899e+01
  -1.209908e+02   6.911514e+01
  -6.214152e+01  -1.474247e+01
   3.304943e+01  -4.737426e+01
   3.903528e+01  -7.154406e+01
   7.739264e-01  -2.663962e+01
  -1.851736e+01   2.954489e+01
  -1.494600e+01   1.200444e+01
  -4.662151e+01  -8.716899e+00
   3.129951e+00  -1.092831e+02
   1.427591e+00  -1.221070e+02
   4.086203e+01  -2.737121e+01
   4.407047e+01   1.851740e+01
  -2.570514e+01  -3.571656e+01
  -2.585498e+01  -3.196446e+01
  -5.524547e+01  -1.375094e+01
  -2.084128e+01   1.386145e+01
   2.332101e+01   2.608694e+01
  -3.461402e+01   8.554153e+00
  -3.619159e+01  -1.180314e+02
  -2.127857e+01  -3.364056e+01
   3.917219e+01  -1.374694e+00
   6.687253e+01   2.961256e+01
   2.721255e+01   7.008146e+01
  -6.196126e+01   3.601495e+01
  -1.311457e+02  -4.229368e+01
  -7.358209e+01  -5.740906e+01
   6.114051e+01  -9.118752e+00
   2.915538e+01  -6.191348e+00
   1.610025e+01  -1.134024e+01
   1.257566e+01   2.317058e+01
  -5.553188e+01  -4.289851e+01
   1.956860e-01  -5.216424e+01
   6.118771e+01  -4.007918e+01
