
 $NMID
 id='ANONYMOUS ', fmtdat='(2E16.6)'
 volume=1.0
 tramp=1.0
 $END
   8.932552e+02   6.549792e+01
   4.417426e+02   5.051457e+02
  -2.101649e+02   5.155098e+02
  -4.235774e+02   1.317546e+02
  -1.731224e+02  -1.660701e+02
   1.872555e+02  -1.346024e+02
   1.978643e+02   6.455301e+01
  -2.658684e+01   2.154732e+02
  -1.885993e+02   1.326311e+02
  -1.949577e+02  -6.446424e+01
  -8.695681e+01  -2.093823e+02
   2.977203e+01  -1.891662e+02
   1.034245e+02  -3.603186e+01
   6.465501e+01   8.015495e+01
  -5.987056e+01   1.240958e+02
  -7.616597e+01  -7.428312e-01
   6.593633e+00  -1.397830e+02
   9.556175e+01  -4.821474e+01
   9.743724e+01   2.313616e+01
   9.694021e+01   6.110897e+01
   1.093350e+00   1.188455e+02
  -9.478886e+01   1.463664e+01
  -4.518008e+01  -3.283013e+01
   3.708658e+01  -1.010192e+01
   7.931106e+01   1.693421e+01
  -1.929829e+01   6.360100e+01
  -9.937242e+01   5.466020e+01
  -1.594229e+02  -4.841490e+01
  -4.089651e+01  -9.257142e+01
   8.392408e+01  -5.792028e+01
   1.452820e+02   2.438745e+01
   4.291890e+01   1.093091e+02
  -1.478855e+01   6.350731e+01
  -7.465847e+01   4.612590e+01
  -8.113434e+01  -5.690802e+01
   5.483139e+00  -6.947042e+01
   3.747115e+01  -2.889050e+01
   2.077173e+01   3.564774e+01
  -7.439076e+01   9.657749e+01
  -1.007004e+02  -2.818996e+01
  -3.204108e+01  -1.494318e+02
   1.060775e+02  -5.787933e+01
   1.105427e+02   1.556069e+01
   1.742179e+01   9.712044e+01
  -6.469227e+01   3.998443e+01
  -7.934184e+01  -9.797834e+01
  -2.918114e+01  -1.216489e+02
   6.378773e+01  -3.871768e+01
   6.334435e+01   8.707505e+01
   1.906852e+01   1.252951e+02
  -8.378753e+01   4.275240e+01
  -1.185179e+02  -3.208646e+01
  -4.254405e+01  -8.082189e+01
   1.063897e+02  -1.934758e+01
   1.028115e+02   2.723269e+01
   3.651044e+01   3.256394e+01
  -3.922080e+01  -5.643131e+00
  -3.063927e+01  -3.924168e+01
   4.977905e+01  -4.085512e+01
   7.374745e+01   1.775269e+01
  -2.823808e+00   7.691024e+01
  -4.991824e+01   6.537756e+00
  -3.067404e+01  -3.347008e+01
  -5.592747e+01  -6.516740e+00
  -6.320981e+01  -2.041689e+01
   3.663719e+01  -5.102189e+01
   8.290272e+01  -3.033257e+01
   6.415738e+01   2.771325e+00
  -4.712785e+00   6.915359e+01
  -3.126313e+01   2.512916e+01
   6.232817e+00  -2.233477e+01
   4.787313e+01  -3.713322e+01
   2.892645e+01   8.168418e+00
  -3.513468e+01   3.029843e+01
  -4.976188e+01  -4.533096e+01
  -1.769067e-01  -2.178937e+01
   1.333852e+01   6.636177e+00
   4.563932e+01   2.681488e+01
   2.491825e+01   2.620592e+01
  -4.520512e+01   1.562097e+01
  -5.559413e+01   6.403224e+00
  -1.812762e+01  -4.108908e+01
  -3.242662e+01  -8.487762e+01
   4.129117e+01  -4.735080e+01
   6.925748e+01   3.240245e+01
  -1.443828e+01   7.411076e+00
   2.235911e+01  -2.564507e+01
   4.667910e+01  -1.540401e+01
   4.802145e+01   1.446918e+01
   4.046555e+01   6.016017e+01
   1.368669e+00   6.972802e+01
  -7.964321e+01   4.487734e+01
  -1.023066e+02  -1.639355e+01
  -6.052325e+00   5.927575e+00
  -8.771041e+00  -4.918548e+00
   3.772214e+01   8.119830e+00
   1.409392e+01   2.730146e+01
  -7.327803e+01  -2.003631e+01
  -2.855914e+01  -9.929324e+00
  -7.851594e+00  -5.347325e+01
   3.652004e+01  -4.286355e+01
  -5.169404e+00   3.029340e+00
   3.256337e+01   1.222770e+01
  -1.850027e+01  -1.755173e+01
  -1.221519e+01  -3.361704e+01
   1.345946e+01  -4.254703e+01
   6.118482e+01   1.784252e+00
   5.680200e+01   3.915326e+01
   4.535816e+01   6.936316e+01
   3.328241e+01   2.679706e+01
  -4.273251e+01   3.693544e+01
  -2.384557e+01   3.198817e+01
  -3.547861e+01  -7.851315e+00
   4.443628e+00   1.453734e+01
   2.816603e+00  -1.374945e+01
  -2.918122e+00   1.445522e+01
   9.450337e+00   4.610933e+01
  -1.627959e+00  -1.433393e+00
  -1.601257e+00   2.234423e+01
  -2.717123e+01   3.064555e+01
  -9.272140e+00   5.476052e+00
  -5.782523e+01  -6.201257e+01
  -2.932196e+01  -1.494481e+01
  -4.515327e+00  -6.512992e+01
   6.421714e+01  -2.426176e+01
   7.568573e+01   1.047889e+01
   2.535357e+01  -1.486687e+01
   2.369514e+01   6.611287e+01
  -9.777566e+00   7.990480e+00
  -2.044031e+00  -3.930024e+01
  -4.904175e+00   2.618389e+01
   4.102043e+01   1.517841e+01
   5.397487e+01  -7.170060e+00
   5.396659e+00   2.861915e+01
  -4.696524e+01  -4.318840e+00
  -3.697182e+01  -3.755387e+01
   1.114660e+01  -3.416331e+01
   2.341435e+01   5.728995e-02
   3.766236e+01   1.474299e+01
  -8.335470e+00   2.019937e+01
  -3.645321e+01  -2.404753e+01
   6.452320e+00  -8.330183e+01
   8.778386e+01  -4.611274e+01
   5.903695e+01   2.851862e+01
   2.211155e+00   4.891163e+00
   2.075590e+01   2.163576e+01
  -1.550386e+01   2.881723e+01
  -9.174183e-01   2.669073e+01
  -6.620788e+00  -1.897654e+01
  -2.019893e+01   2.777255e+01
  -2.642557e+01  -2.585232e+01
  -1.018932e+01   1.138567e+01
  -2.452548e+01  -2.927304e+01
  -9.793497e+00  -2.264649e+01
   4.640243e+01   2.415700e+00
   1.812311e+01   3.701969e+01
  -3.643309e+01   6.410260e+01
  -5.472305e+01   1.209350e+00
   2.626591e+01  -1.935270e+01
   5.555377e+00   8.728063e-02
  -3.048777e+01  -1.150783e+01
  -4.568982e+00  -1.166873e+01
  -4.116098e+01  -3.289037e+01
  -1.277652e+01  -4.228934e+01
   2.497041e+01  -7.808602e-01
   1.307077e+01  -6.257862e-01
   2.599003e+01   1.807698e+01
  -5.099190e+01  -6.071815e+00
  -4.161899e+01  -6.676275e+00
  -1.061663e+01   1.335785e+01
  -3.735507e+01  -5.558339e+01
  -1.978659e+01  -2.036670e+01
   5.296918e+01   1.038972e+01
  -1.351494e+01   4.054277e+01
  -7.199773e+00   1.361311e+01
  -2.092604e+01   1.828477e+01
  -3.011659e+01   3.165972e+00
  -1.942522e+01   2.358625e+01
   1.164184e+01   1.031860e+01
  -1.318861e+01   5.273724e+01
  -9.415123e-01  -2.057567e+00
  -2.195597e+01  -1.809136e+01
  -1.213136e+01  -3.292273e+01
   4.041270e+01   1.302773e+01
  -1.421521e+00   1.841382e+01
   2.280340e+01   4.787427e+00
  -2.200327e+01   3.593425e+01
  -2.548012e+01   1.180780e+01
  -4.133780e-01  -1.215302e+01
  -6.857326e+00  -1.406162e+01
   6.724857e+01   2.068171e+01
   3.559362e+01   1.421749e+01
  -1.694679e+01  -6.501645e+00
  -2.603531e+01  -6.378946e+01
  -2.490647e+01   8.691163e+00
   1.556145e+01  -2.057065e+01
   4.931984e+01   5.447381e+00
   1.389464e+01   9.344827e+00
  -9.789776e+00   1.239855e+01
  -1.572657e+01  -2.480538e+01
  -1.638045e+01   2.510337e+01
   2.301803e+01  -1.196009e+01
   5.225179e+01   2.424610e+01
   5.526050e+01   1.097280e+01
   5.811141e+01   6.294118e+01
  -2.240616e+01   2.080496e+01
  -1.676954e+01  -1.039438e+01
   3.975459e+00   1.295484e+00
   1.606846e+01  -5.895478e+00
  -1.164483e+01  -3.366442e+01
   1.358228e+01  -2.701213e+01
   5.986693e+01  -5.890873e+01
   5.939595e+01  -7.322136e-01
   5.037377e+01   3.008826e+01
   1.591988e+00   1.528903e+01
  -1.211835e+01   2.607231e+01
  -2.708618e+01  -1.813745e+01
  -3.272000e+01  -8.732467e+00
   1.128219e+01  -2.895647e+00
  -4.343587e+00   2.706253e+00
   1.249421e+01   4.997133e+01
   2.815740e+00  -5.982669e+00
  -4.309114e+01  -1.089669e+01
  -5.048819e+01  -3.812271e+01
  -1.704861e+01  -1.686596e+01
   4.887589e+01   7.802376e+00
  -1.140742e+01   3.391936e+01
  -2.221261e+01   1.885598e+01
  -2.722393e+01  -1.506371e+01
  -2.310992e+01  -2.690582e+01
  -1.754315e+01  -3.245461e+01
   2.727821e+01  -2.385756e+01
   2.680881e+01   5.649333e+01
   2.443498e+01   1.537816e+01
  -4.114161e+00   1.535325e+01
  -4.606222e+01   1.941034e+01
  -2.525567e+01  -8.388416e+00
  -4.561457e+01  -1.260944e+01
   1.737404e+00  -2.514081e+01
   2.506429e+00  -3.131305e+01
   3.816007e+01   2.319131e+01
   6.964793e+01   2.404527e+01
   1.864598e+01   3.718396e+01
  -3.408184e+01   2.499452e+01
  -1.112143e+01   6.378504e+00
  -3.200628e+01   3.127196e+00
  -1.566045e+01   2.701018e+00
  -1.177033e+01  -1.951099e+01
  -1.660321e+01  -3.691054e+01
   2.919791e+01   3.859008e+01
   1.211662e+01  -5.075456e+01
   1.848148e+00  -3.982430e-01
  -7.850746e+00  -8.271577e+00
   2.135602e+01   3.983257e+01
  -9.669173e+00   4.322375e+00
  -1.826330e+01   3.530764e+01
  -5.871661e+00  -8.262750e+00
  -1.166081e+01  -4.227094e+01
   2.263469e+01  -2.277526e+01
  -4.270767e+00  -7.443258e+00
   1.229964e+00   1.196747e+01
   5.471885e-01   3.614963e+01
  -2.539605e+00   2.546112e+01
  -5.096041e+00   5.537361e+00
  -8.181997e+00  -6.223689e+00
  -1.819002e+01   1.486692e+01
   2.174346e+01  -2.814150e+00
   4.096816e+01   4.202058e+01
   8.833057e-01   1.335294e+01
  -1.491041e+00   1.670757e+00
   3.577724e+01  -5.608225e+01
   2.848188e+01  -2.291372e+01
   1.453959e+01   2.079082e+01
   1.244868e+01   3.233854e+01
   2.550418e+01   8.013203e+00
  -2.530409e+01  -9.302054e-01
  -3.718125e+01  -2.152067e+01
  -9.996108e+00  -2.907473e+01
   3.616297e+01   3.300267e+01
   5.623752e+00  -2.191301e+01
  -6.800053e+00   1.211476e+01
  -3.489767e+01   1.476999e+01
   5.802629e+00   1.470371e+01
  -8.857655e+00   4.107351e+01
  -9.242012e+00   6.660708e+00
  -4.515614e-01   3.993538e+01
  -5.247221e+01   9.727615e+00
  -4.269703e+01  -1.234362e+01
  -9.123291e+00  -2.934209e+01
   1.675737e+01  -2.161826e+01
   4.099281e+01  -5.515443e+01
  -1.180208e+01   6.647128e+00
   2.112390e+01  -2.212516e+01
   1.129437e+01  -1.550758e+01
  -6.580263e+00  -1.304998e+01
  -1.089345e+01  -2.047103e+01
  -9.536188e+00   3.875859e+00
   1.622639e+01   2.341447e+00
  -2.154413e+01   7.273181e+00
  -1.364967e+00  -6.900881e+00
  -1.915090e+01  -9.487237e+00
   4.294081e+01   2.140581e+01
  -3.288791e+01   2.074216e+01
  -3.963214e+01  -1.436683e-01
   5.467332e+01   1.744855e+01
  -6.813401e+00  -1.069450e+01
  -2.435313e+00   5.749592e+00
   6.179144e+01   6.115208e+00
   1.546772e+01   4.714224e+01
   1.386351e+01   2.552532e+01
   1.933487e+01   2.806243e+00
   6.099746e+00   1.419606e+01
  -4.145789e+01   1.573065e+01
  -4.635403e+01  -1.921663e+01
   2.529825e+01   1.685852e+01
  -1.037224e+01   1.395036e+01
  -4.117869e+01   3.650787e+01
  -2.324096e+00  -3.203351e+01
   2.619839e+00   9.524867e+00
   8.805954e+01   1.464809e+01
