
 $NMID
 id='ANONYMOUS ', fmtdat='(2E16.6)'
 volume=1.0
 tramp=1.0
 $END
  -4.004748e+03  -1.359220e+02
  -2.531366e+03  -2.369915e+03
   7.179862e+02  -2.577434e+03
   1.839866e+03  -9.501202e+02
   9.268990e+02   5.379496e+02
  -6.037117e+02   4.672768e+02
  -8.912805e+02  -3.579404e+02
  -4.720677e+01  -1.063112e+03
   7.909059e+02  -7.319651e+02
   8.796973e+02   1.274230e+02
   3.814858e+02   8.712123e+02
  -1.826321e+02   8.658096e+02
  -6.295086e+02   5.808706e+01
  -3.034706e+02  -6.869614e+02
   1.682417e+02  -6.604652e+02
   5.655945e+02  -4.026570e+01
   2.558356e+02   6.384368e+02
  -3.355772e+02   7.073404e+02
  -5.229992e+02   1.305171e+02
  -4.014531e+02  -2.974859e+02
  -1.923332e+01  -3.219342e+02
   2.870082e+02  -2.230449e+02
   2.180346e+02   9.295735e+00
  -3.781286e+01   1.408155e+02
  -4.425232e+02  -3.234442e+01
  -1.596483e+02  -3.613132e+02
   4.024863e+02  -3.902028e+02
   7.470193e+02   2.451643e+01
   4.520966e+02   5.356390e+02
  -3.481491e+02   4.442521e+02
  -7.436387e+02   1.768252e+00
  -3.691431e+02  -4.874702e+02
   2.667621e+02  -5.479892e+02
   5.491934e+02  -2.627735e+02
   4.580242e+02   2.938211e+02
   1.159233e+02   4.660161e+02
  -1.846272e+02   2.850951e+02
  -1.870057e+02  -2.124014e+02
   1.727425e+02  -4.154095e+02
   3.739659e+02   2.708724e+01
   2.487259e+02   7.056280e+02
  -2.742358e+02   7.249466e+02
  -5.891832e+02  -3.798443e+00
  -3.314543e+02  -5.582323e+02
   2.460301e+02  -3.381400e+02
   4.285931e+02   2.538658e+02
  -6.052334e+01   5.685800e+02
  -5.831050e+02   1.397463e+02
  -6.375034e+02  -4.063618e+02
  -2.306256e+02  -5.810161e+02
   3.398568e+02  -3.102206e+02
   6.231958e+02   6.895786e+01
   3.033932e+02   3.378216e+02
  -1.384510e+02   3.339245e+02
  -4.131268e+02   4.943409e+01
  -1.865130e+02  -2.081356e+02
   8.349170e+01  -6.960334e+01
   1.362630e+02   1.686851e+02
  -2.085833e+02   2.235447e+02
  -4.132116e+02  -2.198400e+01
  -2.122418e+02  -3.095830e+02
   1.928374e+02  -2.586907e+02
   3.062776e+02  -1.252469e+02
   1.922085e+02   6.037347e+01
   3.619376e+01   2.110501e+02
  -2.121274e+02   3.219926e+02
  -3.187027e+02   2.044871e+02
  -2.937646e+02  -1.564429e+02
  -2.247966e+01  -4.317594e+02
   8.626913e+01  -3.355813e+02
   6.540500e+01  -3.152051e+01
   6.250945e+01  -4.692109e+00
   6.489285e+01  -9.828527e+01
   2.026347e+02  -1.057086e+02
   1.983380e+02   9.724611e+01
   1.384273e+02   2.504721e+02
  -4.926659e+01   2.419144e+02
  -1.688127e+02   3.406065e+00
  -2.396540e+02  -2.274347e+02
  -1.622304e+01  -2.805276e+02
   2.139615e+02  -5.726714e+01
   3.158049e+02   1.181239e+02
   2.110615e+02   2.896365e+02
  -1.058664e+01   2.905347e+02
  -1.953227e+02   1.341491e+02
  -1.254619e+02   4.521738e+01
  -8.396592e+01   8.970883e+01
  -2.284762e+02   8.057813e+01
  -4.072662e+02  -4.461512e+01
  -2.975121e+02  -2.868563e+02
  -1.303775e+00  -3.620908e+02
   3.231517e+02  -3.294740e+02
   4.357301e+02  -1.365300e+02
   2.689798e+02   4.176211e+01
   3.988495e+01   2.263041e+02
  -8.750889e+01   1.971159e+02
  -1.280951e+01   5.588496e+01
   5.581681e+01  -1.175371e+02
   1.614465e+02   8.849768e+00
   4.969602e+01   1.820703e+02
  -1.585781e+02   1.626818e+02
  -1.777210e+02  -8.973910e+01
   4.604889e+01  -1.685258e+02
   1.912008e+02   9.422700e+00
   1.502825e+02   2.141204e+02
  -2.005769e+01   3.306823e+02
  -2.241315e+02   1.615467e+02
  -3.081310e+02  -2.769017e+00
  -2.985605e+02  -2.620667e+02
  -1.434862e+02  -2.865446e+02
   7.557836e+01  -1.511000e+02
   1.553556e+02  -8.229842e+01
   4.555538e+01   3.501002e+00
  -8.118623e+01  -4.517202e+01
  -1.289824e+01  -1.009604e+02
   1.015944e+02  -5.322200e+01
   1.893136e+02   1.750488e+01
  -1.950388e+00   7.721176e+01
  -7.101915e+01   3.259878e+01
  -6.044065e+01  -7.308557e+01
   7.576551e+01  -8.385163e+01
   2.555489e+02  -6.641994e+01
   2.776337e+02   4.996724e+01
   7.855123e+01   2.078158e+02
  -1.242557e+02   3.257479e+02
  -2.798638e+02   1.549654e+02
  -1.908316e+02  -3.613259e+01
   3.089628e+01  -1.346830e+02
   3.880675e+01   3.274243e+01
  -8.007083e+01   1.586365e+02
  -1.772849e+02   1.132122e+02
  -2.571516e+02  -7.826881e+01
  -1.094682e+02  -1.998908e+02
   5.835102e+01  -1.604328e+02
   1.280575e+02  -5.321097e+00
   5.313497e+01   2.652625e+01
  -2.715196e+01   3.251657e+01
  -1.000281e+02  -6.764439e+01
   4.598238e+01  -1.071126e+02
   1.563322e+02  -6.165807e+01
   1.904055e+02   1.091674e+02
   1.746289e+01   1.977501e+02
  -2.315407e+02   1.396636e+02
  -1.352122e+02   8.561399e+00
  -9.950791e+01  -9.319119e+01
   1.675942e+01  -7.255521e+01
   1.271602e+02  -3.057676e+01
   6.547243e+01   6.706912e+01
  -8.943726e+00   5.057856e+01
   3.234092e+01   6.570625e+01
   5.568689e+01   3.264935e+01
   7.143750e+01   9.176173e+01
  -1.510844e+01   1.346577e+02
  -1.179170e+02   1.199174e+02
  -2.349818e+02   9.463772e+00
  -1.933000e+02  -1.529809e+02
  -5.132247e+00  -2.139977e+02
   1.081258e+02  -1.612275e+02
   1.159054e+02  -3.711487e+01
   8.296139e+01   4.390994e+01
   3.768975e+01   1.456293e+01
   9.828043e+01  -3.193465e+01
   9.978891e+01  -3.951967e+01
   2.211191e+01   9.202458e+01
   3.233161e+01   6.294248e+01
  -1.242867e+02   8.662073e+01
  -5.814014e+01  -5.314786e+01
  -4.874232e+01  -8.402413e+01
   1.419953e+02  -1.046948e+02
   2.097070e+02  -8.363599e+00
   1.101052e+02   2.166895e+02
  -9.075705e+01   2.630881e+02
  -2.396098e+02   1.523827e+02
  -2.832763e+02  -2.772948e+01
  -1.334320e+02  -1.711497e+02
  -3.411768e+01  -1.350493e+02
   3.494555e+01  -1.058364e+02
   9.308537e+01  -1.336797e+02
   6.241707e+01  -7.872920e+01
   1.204442e+02  -6.103859e+01
   1.684461e+02   2.199118e+01
   1.377766e+02   1.447558e+02
   8.094485e+01   2.508782e+02
  -1.021757e+02   1.487713e+02
  -1.586115e+02  -8.285053e+00
  -1.449644e+02  -1.112748e+02
  -6.034155e+01  -1.411675e+02
   4.981563e+01  -1.173405e+02
   7.934659e+01  -1.360923e+01
   3.074584e+01   2.454096e+01
   2.107478e+00   4.340361e+01
   1.917040e+01   2.101709e+01
   1.039842e+02   3.210000e+01
   5.961865e+01   5.687384e+01
   1.841233e+01   9.891704e+00
  -1.313622e+02   7.948787e+00
  -1.720653e+02  -4.002279e+01
   3.627532e+00  -1.025250e+02
   1.350380e+02  -8.480547e+01
   1.387548e+02  -4.795647e+00
   2.798291e+01   2.752822e+01
  -3.904240e+01   6.468865e+01
  -8.010053e+01   2.246246e+01
   1.784528e+01  -6.071865e+01
   4.912048e+01  -3.444251e+01
   5.064326e+01   1.568448e+01
   8.028667e+01   7.656030e+01
   5.059912e+01   6.908088e+01
   6.409741e+01   6.211640e+00
   5.421897e+01  -3.580888e+01
   6.111497e+01   5.508847e+01
  -1.503990e+01   1.614494e+02
  -1.211859e+02   1.703373e+02
  -1.889570e+02   2.138105e+01
  -9.587123e+01  -7.359227e+01
  -4.020445e+01  -1.176118e+02
   8.941125e+01  -3.479625e+01
   2.746529e+01   1.866061e+01
  -5.660200e+01   4.595771e+01
  -1.211275e+02  -6.170709e+00
  -6.342426e+01  -1.368893e+02
   4.921170e+01  -9.210432e+01
   1.736424e+02  -7.504166e+01
   1.831324e+02   2.697238e+01
   1.092360e+02   5.455983e+01
  -2.585784e+01   3.837979e+01
  -2.960378e+01  -4.896572e+00
   4.966425e+01  -7.039883e+01
   7.184772e+01  -2.320379e+01
   2.108251e+01   1.197885e+02
  -1.135091e+02   1.482117e+02
  -1.201618e+02   8.770308e+01
  -1.393453e+02  -1.111861e+02
   7.039834e+00  -2.333114e+02
   7.817877e+01  -8.470827e+01
   1.035804e+02   1.359919e+01
   9.589203e+01   1.538435e+02
  -2.430944e+01   8.343120e+01
  -2.309860e+01   1.427569e+01
  -5.153462e+01  -4.872667e+01
  -1.265622e+01  -4.617047e+01
  -2.425148e+01   5.130620e-01
  -2.360564e+01  -5.767757e+01
  -2.106236e+01  -6.703038e+01
  -3.475969e+01  -1.137508e+02
   3.126418e+01  -4.083197e+01
   1.734430e+02   5.785737e+01
   1.543688e+02   8.692219e+01
   4.705569e+01   5.478007e+01
  -7.546143e+01   1.995595e+01
  -7.393774e+01   1.068429e+01
  -1.696160e+01  -1.309611e+01
   5.501475e+01   5.808317e+00
   3.674951e+01   2.982164e+01
  -1.335107e+01   7.101670e+01
   1.246636e-02   6.080984e+01
   6.683015e+01   1.821027e+01
   1.001195e+02   1.464776e+01
   3.215986e+01   1.036024e+02
  -9.257386e+01   1.137405e+02
  -1.748682e+02   4.992750e+01
  -1.729057e+02  -3.374802e+01
  -5.144402e+01  -2.186317e+02
   8.658764e+01  -1.217138e+02
   1.148539e+02  -4.311182e+01
   8.381498e+01   1.464079e+00
   3.188646e+01   8.609149e+01
   1.533372e+01  -1.682321e+01
   3.074719e+00   3.220963e+01
   1.440485e+01   7.540029e+01
   1.788033e+00   7.439954e+01
  -4.958484e+01   1.447075e+02
  -6.050544e+01   1.831247e+01
  -9.310659e+01  -1.019031e+02
  -1.431164e+01  -1.377763e+02
   1.071890e+02  -1.365692e+02
   1.144145e+02   3.736731e+01
   6.763022e+01   1.099025e+02
  -4.857748e+01   5.990045e+01
  -1.054520e+02   1.988651e+01
  -7.655295e+00  -5.293790e+01
   5.742713e+01  -8.255152e+01
   4.249342e+01  -5.123587e+01
  -5.388053e+01  -4.889631e+00
  -9.758439e+01   1.435285e+01
  -2.048263e+01  -4.342964e+01
   9.901327e+01  -4.902237e+01
   1.402647e+02  -1.095765e+02
   6.952266e+01  -4.654190e+01
   9.050097e-01   5.915072e+01
  -3.256112e+01   1.325512e+02
   1.038534e+01  -2.363501e+01
   2.377074e+01  -3.427578e+01
   6.427413e+01  -4.052027e+01
   6.372886e+01   4.978898e+01
   4.656844e+01   4.079070e+01
  -2.908075e+01   1.604402e+01
  -5.442332e+01   1.930024e+01
  -5.822968e+01  -2.876774e+01
  -3.020777e+01   1.691840e+01
   3.548799e+01   5.175062e+00
   1.368866e-01  -1.326129e+01
   1.262094e+01  -3.724384e+01
  -3.205358e+00  -3.120405e+01
   4.690331e+01  -3.475750e+01
   9.391174e+01   1.145206e+02
   2.592052e+01   4.987202e+01
  -1.592869e+01  -2.256466e+01
  -5.603193e+01  -7.790324e+01
  -1.354401e+01  -7.573226e+01
   4.677388e+01  -2.732568e+01
   1.109186e+02   1.057236e+01
   3.113915e+01   4.936701e+01
   6.867264e+00   4.490819e+01
  -8.318524e+01  -2.207422e+01
  -1.575970e+01   1.879894e+01
   2.191164e+01   2.253658e+00
   8.388777e+00   6.689558e+01
  -3.906902e+01   7.711427e+01
  -9.129911e+01   2.637720e+00
