
 $NMID
 id='ANONYMOUS ', fmtdat='(2E16.6)'
 volume=1.0
 tramp=1.0
 $END
  -2.947882e+03   4.555882e+01
  -2.094911e+03  -1.608981e+03
   8.622821e+01  -1.960332e+03
   1.240754e+03  -1.071401e+03
   8.393088e+02  -2.352762e+02
   8.766854e+01   2.139515e+02
  -3.031282e+02  -9.128453e+01
  -3.637152e+00  -5.115111e+02
   3.334091e+02  -5.305052e+02
   5.372370e+02  -8.037343e+01
   4.051442e+02   5.201776e+02
  -2.159472e+00   6.450050e+02
  -2.779228e+02   2.293183e+02
  -2.727411e+02  -3.794741e+02
   1.105313e+02  -4.317580e+02
   3.067936e+02  -6.352816e+01
   1.981069e+02   4.384558e+02
  -1.168020e+02   6.610945e+02
  -4.134278e+02   2.773899e+02
  -3.019350e+02  -2.393899e+02
  -1.230134e+02  -2.739689e+02
   5.695685e+01  -2.496047e+02
   8.013875e+01  -1.046682e+02
  -1.617399e+02  -7.965715e+01
  -1.863615e+02  -2.705178e+02
   2.146890e+01  -2.956771e+02
   4.672865e+02  -1.400770e+02
   5.521545e+02   1.389057e+02
   2.038293e+02   3.462923e+02
  -3.323173e+02   2.431723e+02
  -5.553569e+02  -9.113597e+01
  -2.031398e+02  -4.011376e+02
   2.684393e+02  -3.655138e+02
   5.103501e+02  -1.720249e+02
   3.888234e+02   1.213727e+02
   1.392515e+02   2.937953e+02
  -6.099282e+00   2.094681e+02
   1.784585e+01  -3.131035e+01
   9.254199e+01  -1.796653e+02
   1.959076e+02   1.731530e+02
  -6.310731e+00   4.800904e+02
  -2.287474e+02   4.441614e+02
  -3.226768e+02  -1.283752e+01
  -1.564382e+02  -3.464972e+02
   1.653671e+02  -1.192339e+02
   1.280803e+02   2.923887e+02
  -1.095368e+02   4.037355e+02
  -4.377520e+02   7.153964e+01
  -5.047866e+02  -3.686550e+02
  -1.543762e+02  -4.857285e+02
   2.819433e+02  -2.984052e+02
   4.729384e+02   1.409893e+01
   3.391508e+02   2.109943e+02
  -2.904734e+01   2.260721e+02
  -2.516187e+02   1.226215e+02
  -2.240161e+02  -1.595609e+01
  -5.499932e+01  -6.311983e+01
   1.114414e+01   4.560083e+01
  -1.069212e+02   7.565857e+01
  -2.095425e+02  -9.764720e+01
  -1.627585e+02  -2.252223e+02
   1.530946e+02  -2.669901e+02
   3.086098e+02  -1.097087e+02
   2.814109e+02   1.064523e+02
   3.284666e+01   2.724169e+02
  -2.352394e+02   3.154232e+02
  -3.519088e+02   1.522352e+02
  -2.127176e+02  -9.018854e+01
  -8.674807e+01  -3.830916e+02
   2.516921e-01  -3.467516e+02
   1.826069e+01  -1.449404e+02
   7.744339e+01  -1.102290e+02
   1.072079e+02  -1.267961e+02
   2.775383e+02  -3.153282e+01
   2.517161e+02   8.968235e+01
   9.671371e+01   2.470414e+02
  -1.051524e+02   2.306004e+02
  -1.516864e+02  -7.437809e+00
  -1.277302e+02  -1.794371e+02
   2.796256e+01  -1.993117e+02
   2.287606e+02  -3.985969e+01
   3.061111e+02   1.918631e+02
   1.560425e+02   2.899663e+02
  -1.887030e+01   2.683394e+02
  -1.630360e+02   1.743459e+02
  -1.449284e+02   1.008248e+02
  -2.009370e+02   1.286000e+02
  -2.601229e+02   2.714658e+01
  -4.210901e+02  -1.410379e+02
  -2.937749e+02  -3.070507e+02
   2.695169e+01  -4.285489e+02
   3.155430e+02  -3.748839e+02
   4.499110e+02  -1.109142e+02
   2.729466e+02   7.391049e+01
   6.015039e+01   1.929860e+02
  -7.132740e+01   2.123752e+02
   7.140542e+00   6.932656e+01
   1.221535e+02  -2.385839e+01
   1.279551e+02   5.981076e+01
  -2.578580e+00   1.767501e+02
  -1.214180e+02   1.298535e+02
  -1.324469e+02  -4.528123e+01
   3.642859e+00  -9.250910e+01
   1.510028e+02   3.695103e+01
   1.441742e+02   2.372227e+02
  -4.975343e+01   3.403569e+02
  -2.400573e+02   2.198133e+02
  -4.114217e+02  -1.320983e+01
  -3.420194e+02  -2.640132e+02
  -8.982191e+01  -2.600392e+02
   1.161165e+02  -1.459083e+02
   1.464190e+02  -7.349425e+00
  -1.445610e+01  -3.054162e+01
  -4.363269e+01  -8.285427e+01
   1.813664e+01  -1.193089e+02
   7.824616e+01  -5.722141e+01
   1.491313e+02   1.995840e+01
   4.864708e+01   1.066393e+02
  -7.089231e+01   6.812583e+00
  -4.860107e+01  -5.650662e+01
   1.386142e+02  -9.588431e+01
   2.954982e+02   3.688082e+01
   2.475163e+02   1.414422e+02
   3.046308e+01   2.592872e+02
  -2.037074e+02   2.237538e+02
  -3.237553e+02   7.124484e+01
  -1.406421e+02  -8.732152e+01
   4.866157e+01  -7.553733e+01
   8.794241e+01   2.333627e+01
  -9.706666e+01   1.104033e+02
  -1.842585e+02  -3.248819e+01
  -1.961136e+02  -1.285094e+02
  -8.212865e+01  -1.795325e+02
   1.064202e+02  -1.636241e+02
   8.580026e+01   1.112571e+00
   7.797101e+01  -3.818465e-01
  -4.105822e+01  -6.168995e+01
  -2.277216e+01  -8.848526e+01
   4.818744e+01  -1.230156e+02
   2.595337e+02  -4.566110e+01
   2.410968e+02   1.279062e+02
   2.237355e+01   1.753872e+02
  -1.296116e+02   1.206590e+02
  -1.071553e+02  -2.826821e+00
  -3.231554e+01  -6.956081e+01
   5.204562e+01  -8.565757e+01
   8.653042e+01   2.098256e+01
  -3.292403e+00   8.847710e+01
  -5.032136e+01   3.968561e+01
  -9.819412e-01  -4.247969e+01
   7.658288e+01   1.384128e+01
   9.187627e+01   9.329308e+01
   2.824059e+00   2.035386e+02
  -1.424642e+02   1.629320e+02
  -2.427762e+02   2.113697e+01
  -1.663270e+02  -1.699681e+02
  -5.706751e+01  -2.827937e+02
   1.151640e+02  -1.579518e+02
   1.134801e+02  -1.743891e+01
   8.888642e+01   2.741630e+01
   4.338537e+01  -1.761691e+01
   1.535372e+01   3.641174e+01
   1.081303e+02   2.462530e+01
   4.710880e+01   5.944437e+01
   6.884914e+00   9.483140e+01
  -1.079711e+02   5.499368e+01
  -9.732744e+01  -3.201797e+01
  -2.174239e+01  -1.449599e+02
   1.379082e+02  -7.039799e+01
   2.035546e+02   7.025127e+01
   1.013975e+02   2.117097e+02
  -1.698831e+02   1.779050e+02
  -2.969872e+02   5.106968e+01
  -2.771339e+02  -1.353490e+02
  -1.340264e+02  -1.883586e+02
   8.980467e+01  -1.884117e+02
   1.349444e+02  -7.159097e+01
   4.964741e+01  -2.190015e+01
   8.750339e+01  -8.076223e+01
   1.121408e+02  -7.372558e+01
   1.741242e+02   1.197979e+01
   1.115371e+02   1.606408e+02
   4.763106e+01   2.045726e+02
  -7.178604e+01   1.697844e+02
  -1.347270e+02   1.553518e+01
  -1.044351e+02  -1.463438e+02
   2.278218e+01  -1.784189e+02
   6.877208e+01  -9.798788e+01
   1.103990e+02   4.595310e+00
   1.280968e+01   5.863019e+01
  -1.396446e+01   8.003804e+01
   2.494267e+01   6.672795e+00
   6.694733e+01   2.260464e+01
   6.878981e+01   2.589909e+01
  -5.320631e+01   3.742828e+00
  -1.677458e+02   1.593115e+01
  -2.107168e+02  -4.304477e+01
  -2.951487e+00  -7.666924e+01
   1.560279e+02  -5.350883e+01
   1.504250e+02  -4.881492e+01
  -2.864850e-01   6.557250e+01
  -1.040535e+02   3.957722e+01
  -1.044843e+02  -4.704658e+01
  -4.887638e+01  -7.071158e+01
  -1.208516e+01  -3.319730e+01
   7.397140e+01   3.020292e+01
   7.381733e+01   4.722949e+00
   9.928273e+01   3.127495e+01
   5.341234e+01  -1.425820e+00
   9.438929e+01  -2.177150e+00
   6.001000e+01   8.848245e+01
  -1.097592e+01   1.984791e+02
  -1.322844e+02   1.665517e+02
  -2.046466e+02   2.099363e+01
  -1.342287e+02  -1.115208e+02
   1.789339e+01  -1.718425e+02
   5.835224e+01  -7.070928e+01
   7.836753e+01  -1.395890e+01
  -4.667700e+01   7.406226e+00
  -9.979083e+01  -8.231707e+01
  -5.507498e+01  -1.542788e+02
   1.000739e+02  -6.773226e+01
   1.354428e+02  -4.489967e+01
   1.493234e+02  -1.428959e+00
   3.780596e+00   1.064635e+02
  -3.623236e+00   3.202117e+01
  -5.602265e+01  -3.376446e+01
   4.849331e+01  -7.149562e+01
   1.177141e+02   3.703058e+01
   5.522739e+01   1.656612e+02
  -1.041604e+02   1.475527e+02
  -1.857019e+02   6.054258e+01
  -1.331182e+02  -7.448152e+01
  -2.521378e+01  -2.127842e+02
   1.144118e+02  -1.627174e+02
   4.950436e+01   8.947823e+00
  -1.363438e+00   9.256485e+01
   4.149363e+00   1.143799e+02
  -5.241383e+01  -1.123737e+01
  -3.139370e+01  -4.417180e+01
  -4.538880e+00   2.654390e+01
   1.688591e+01   5.051041e+01
   5.130812e+00   2.578437e+01
  -9.731069e+01  -3.495815e+01
  -4.542115e+01  -9.578432e+01
   4.338427e+01  -4.495961e+01
   1.233757e+02  -3.351085e+00
   1.184749e+02   5.599427e+01
   3.397773e+01   7.221801e+01
  -5.564442e+01   2.873599e+00
  -3.992454e+01  -1.937414e+01
  -2.754079e+01  -1.432651e+01
   2.024034e+01  -1.104816e+01
  -9.310315e+00  -5.735533e+00
   8.115029e+00  -5.324440e+00
   1.989181e+01   2.139293e+01
   6.302911e+01  -1.620929e+01
   1.085153e+02   4.783673e+01
  -1.384922e-01   8.225242e+01
  -1.386367e+02   1.294200e+02
  -2.150289e+02   7.144100e+01
  -1.840320e+02  -3.647893e+01
  -4.780631e+01  -2.058536e+02
   8.748041e+01  -1.719507e+02
   1.556912e+02  -4.454001e+01
   8.671716e+01   3.481757e+01
   4.344430e+01   7.332021e+01
  -2.639434e+01   3.374398e+01
   1.412858e+01   1.001510e+01
   6.902872e+00   6.115171e+01
   2.490969e+01   9.179502e+01
  -3.363755e+01   5.866067e+01
  -1.120103e+02  -1.089214e+01
  -7.516299e+01  -1.078269e+02
  -2.297111e+01  -8.640707e+01
   5.632042e+01  -5.855005e+01
   7.680886e+01   7.317735e+01
   1.969492e+01   9.830846e+01
  -5.747569e+01   4.601383e+01
  -1.092502e+02  -7.397868e-01
  -6.271375e+01  -4.641377e+01
   2.387407e+01  -6.344517e+01
   4.296761e-01  -6.636403e+01
  -5.983505e+01  -6.145076e+01
  -5.977134e+01   1.726183e+01
  -4.594541e+01  -2.835817e+00
   9.273506e+01  -8.333374e+01
   7.600026e+01  -8.754418e+01
   4.544273e+01   1.882892e+01
  -5.174357e+00   9.438434e+01
  -3.441675e+01   9.150804e+01
  -1.971860e+01   6.977690e+00
   2.292186e+01  -5.667025e+01
  -6.961877e+00  -5.209375e+01
   6.989090e+01   2.354655e+01
   6.434879e+01   2.745186e+01
   2.944252e+01   1.930869e+01
  -3.722713e+01  -1.374957e+01
  -3.541914e+01   2.400256e-01
  -1.817535e+01  -7.735037e+00
  -5.065599e+01   3.724347e+01
   1.540175e+01  -7.983813e+00
   3.182004e+00  -5.116955e+01
   5.427956e+00  -4.766508e+01
   5.022129e+01  -1.523834e+00
   4.620355e+01   3.973895e+01
   4.419956e+01   4.753225e+01
  -4.218583e+01   1.689643e+01
  -6.857107e+01   2.167378e+01
  -5.214913e+01  -2.604187e+01
   5.936036e+01  -1.760683e+01
   6.639956e+01  -1.814784e+01
   7.977430e+01   7.110169e+00
  -7.300809e+00   2.213361e+01
  -5.538558e+01   3.952013e+01
  -3.968380e+01  -1.670693e+01
   2.035407e+01   4.463179e+01
  -1.471392e+00   8.698299e+00
  -3.990924e+01   5.273145e+01
  -9.173985e+01   2.417361e+01
