
 $NMID
 id='ANONYMOUS ', fmtdat='(2E16.6)'
 volume=1.0
 tramp=1.0
 $END
  -2.576990e+03  -2.011663e+02
  -1.861192e+03  -1.344303e+03
   2.381512e+01  -1.625789e+03
   1.015869e+03  -1.020465e+03
   7.818453e+02  -1.382160e+02
  -3.795951e+01   2.194112e+02
  -3.964650e+02  -1.341612e+02
  -6.774508e+01  -5.699441e+02
   3.493544e+02  -5.114267e+02
   4.629938e+02  -3.736306e+01
   4.060074e+02   4.489374e+02
  -4.412121e+01   5.906349e+02
  -3.276206e+02   9.901677e+01
  -2.838383e+02  -3.763179e+02
   9.130367e+01  -5.012299e+02
   4.835267e+02  -1.251371e+02
   2.472671e+02   3.607577e+02
  -1.568569e+02   5.182488e+02
  -3.823841e+02   1.942999e+02
  -3.646620e+02  -1.265711e+02
  -5.426178e+01  -3.049975e+02
   6.421912e+01  -2.567598e+02
   4.435230e+01   1.234718e+01
  -1.184291e+02  -1.706728e-01
  -2.290368e+02  -1.198286e+02
  -6.101737e+01  -3.518967e+02
   3.531099e+02  -2.078394e+02
   5.234854e+02   6.620630e+01
   2.389478e+02   3.340653e+02
  -1.933583e+02   1.781902e+02
  -3.892650e+02  -1.603698e+02
  -2.061366e+02  -3.264506e+02
   1.714840e+02  -3.346519e+02
   4.098638e+02  -1.193904e+02
   3.016050e+02   1.307465e+02
   7.304397e+01   2.839238e+02
  -6.758237e+01   1.574614e+02
   4.362377e+00  -1.174574e+02
   9.367120e+01  -1.460692e+02
   2.131593e+02   1.113367e+02
   1.121518e+02   4.535923e+02
  -1.883279e+02   3.534533e+02
  -3.185877e+02   9.538203e-01
  -2.111606e+02  -2.844455e+02
   1.598565e+02  -1.075357e+02
   2.129226e+02   2.857406e+02
  -2.464491e+01   3.064916e+02
  -3.485242e+02   1.238069e+02
  -4.392531e+02  -2.160070e+02
  -1.652013e+02  -3.922303e+02
   2.438463e+02  -2.946667e+02
   3.965733e+02   1.473276e+01
   2.704108e+02   2.162428e+02
  -6.556091e+01   1.743741e+02
  -2.275903e+02   1.865270e+01
  -1.111956e+02  -3.486256e+01
   3.807512e+01   2.192553e+00
   2.405460e+01   7.760437e+01
  -1.345761e+02   5.291841e+01
  -2.567599e+02  -8.628770e+01
  -1.136829e+02  -1.571352e+02
   9.739488e+01  -2.013047e+02
   2.414643e+02  -7.272903e+01
   1.808472e+02   8.724246e+01
  -2.472268e+01   2.170518e+02
  -2.061947e+02   2.379660e+02
  -2.411753e+02   1.253443e+02
  -2.123144e+02  -6.498577e+01
  -5.795503e+01  -2.311555e+02
   9.033899e+00  -2.043783e+02
   1.603902e+00  -1.086877e+02
   4.435818e+00  -7.663044e+01
   3.719855e+01  -1.285104e+02
   1.877604e+02  -5.012779e+01
   1.727562e+02   1.197996e+02
   4.314181e+01   1.865571e+02
  -8.185190e+01   1.079919e+02
  -1.166225e+02  -1.955702e+01
  -1.196812e+02  -1.981877e+02
   5.110345e+01  -2.059156e+02
   1.720867e+02  -9.696779e+01
   2.111638e+02   1.149024e+02
   1.669963e+02   2.306858e+02
  -3.501624e+01   2.049749e+02
  -6.929096e+01   7.879213e+01
  -1.099161e+02   8.633075e+01
  -8.759736e+01   4.501391e+01
  -2.169249e+02   9.023134e+01
  -3.402246e+02  -3.105236e+01
  -2.603661e+02  -1.926744e+02
   3.623164e+01  -3.488219e+02
   3.119054e+02  -2.929252e+02
   3.091647e+02  -1.600087e+02
   1.993062e+02   7.338404e+01
   1.817213e+01   1.748945e+02
  -4.305408e+01   1.532555e+02
  -2.057791e+01  -2.550470e+00
   8.460865e+01  -9.108080e+01
   6.163276e+01   4.489191e+00
   4.423505e+01   6.403282e+01
  -4.336908e+01   7.612442e+01
  -6.039807e+01  -5.048153e+01
   1.573336e+01  -1.184520e+02
   1.200574e+02   3.414449e+01
   1.059399e+02   1.946338e+02
  -1.812603e+01   2.341853e+02
  -1.653911e+02   1.406430e+02
  -2.777700e+02  -6.772042e+01
  -2.184271e+02  -1.942375e+02
  -8.600568e+01  -1.733876e+02
   9.730274e+01  -1.597143e+02
   1.791456e+02  -1.062547e+00
   5.970979e+01   1.661605e+01
   6.850903e+00  -5.680270e+01
  -2.559777e+01  -1.020375e+02
   1.053609e+02  -7.518121e+01
   9.842056e+01   2.259572e+01
   4.555385e+01   6.298386e+01
  -6.518866e+01  -7.974510e+00
  -4.979738e+01  -5.628409e+01
   4.495311e+01  -6.152474e+01
   2.280411e+02  -2.391448e+01
   1.891956e+02   1.023384e+02
   1.545780e+01   1.811276e+02
  -1.267024e+02   1.700290e+02
  -2.010604e+02   4.482814e+01
  -1.207923e+02  -2.556803e+01
   1.700180e+01  -7.914818e+01
   2.111238e+01   2.421458e+01
  -9.218034e+00   6.545842e+01
  -1.257331e+02   5.715849e+01
  -1.661071e+02  -8.527806e+01
  -1.085911e+01  -1.000738e+02
   4.872057e+01  -9.869666e+01
   6.410467e+01   4.043232e+00
   1.622344e+01   7.503556e-02
  -6.465077e+01  -6.496719e+01
   6.795482e+00  -1.097402e+02
   1.183647e+02  -1.022150e+02
   1.845478e+02  -9.503479e+00
   1.368880e+02   8.667725e+01
  -2.770683e+01   1.010514e+02
  -1.049402e+02   7.588663e+01
  -9.966838e+01   1.328971e+01
  -5.616460e+01  -6.095586e+01
   3.789696e+01  -9.358693e+01
   7.299278e+01  -3.488368e+01
   7.507612e+00   2.424192e+01
  -2.824502e+01   8.795641e+00
   1.736222e+01  -8.311700e+00
   7.944572e+01   4.878065e+01
   5.174081e+01   4.820022e+01
   3.654744e+01   1.396458e+02
  -7.325421e+01   1.137667e+02
  -1.788355e+02   2.571593e+01
  -1.925550e+02  -1.420526e+02
  -4.436986e+01  -1.763418e+02
   7.570658e+01  -1.509600e+02
   1.269876e+02  -2.130878e+01
   7.295019e+01   4.874351e+01
   5.164066e+00   2.889140e+01
   2.581113e+01  -4.431223e+01
   7.167500e+01  -1.831688e+01
   7.041367e+01   5.743353e+01
  -3.368411e+01   1.246476e+02
  -1.335917e+02   1.512413e+01
  -6.346987e+01  -6.621568e+01
   2.184911e+01  -9.215102e+01
   1.355706e+02  -1.315113e+02
   1.992637e+02   2.470406e+01
   2.928803e+01   1.765696e+02
  -7.467559e+01   2.287610e+02
  -2.129737e+02   4.087308e+01
  -1.361044e+02  -9.379558e+01
  -2.849127e+01  -9.080740e+01
   2.744273e+01  -1.038982e+02
   8.578841e+01  -1.357920e+01
   2.360806e+01  -6.716721e+01
   6.386471e+01  -6.718568e+01
   3.027793e+01  -7.892317e+01
   8.002826e+01  -2.396452e+01
   1.208567e+02   1.063233e+02
   4.052467e+01   1.704883e+02
  -4.418864e+01   1.603336e+02
  -1.257054e+02   9.546407e+00
  -7.035418e+01  -1.537686e+02
   3.098507e+00  -7.177422e+01
   6.100471e+01  -3.626456e+01
   3.343402e+01   3.301401e+01
  -6.796914e+01   5.128605e+01
   1.567702e+01   1.873943e+01
   2.458836e+01   2.512244e+01
   6.117772e+01   3.557925e+01
   3.445832e+01   6.385898e+01
  -5.364207e+01   5.979108e+01
  -1.111400e+02   2.938449e+01
  -1.001616e+02  -8.285691e+01
   1.955784e+00  -7.836410e+01
   1.630342e+02  -7.906818e+01
   1.227283e+02  -6.454304e+00
   3.145942e+01   4.744308e+01
  -9.276603e+01   3.255471e+00
  -4.309349e+01  -6.681740e+01
  -4.711013e+00  -1.953012e+01
   4.418962e+01  -1.305487e+01
   1.354237e+01   1.891201e+01
   6.262604e+01   5.146619e+01
  -2.567036e+01   1.749805e+01
   2.351364e+01  -3.821462e+01
   4.595894e+01  -6.865197e+00
   9.664684e+00   5.760742e+01
  -3.834338e+01   1.208785e+02
  -1.003051e+02   1.503030e+02
  -1.606305e+02  -5.962649e+00
  -9.997816e+01  -1.426643e+02
   5.112095e+01  -6.765865e+01
   9.291901e+01  -2.627780e+01
   4.371308e+01  -2.077004e+01
  -6.212827e+01   1.128623e+01
  -7.493001e+01  -5.142194e+01
  -6.591244e+01  -6.159663e+01
   7.795319e+01  -9.068533e+01
   1.423605e+02  -7.632089e+01
   1.672295e+02  -1.520639e+01
   1.381456e+01   5.502513e+01
  -2.122665e+01   1.155219e+02
  -3.052440e+01   1.007408e+01
  -1.265856e+01  -2.683498e+01
   1.244555e+02  -2.115590e+01
   2.411048e+01   1.948629e+01
  -8.901757e+00   1.060222e+02
  -9.323518e+01   1.065252e+02
  -8.597562e+01  -7.618758e+01
  -5.374530e+01  -1.241729e+02
   7.845729e+01  -9.278802e+01
   1.305846e+02   1.192365e+01
   6.610593e+01   1.074996e+02
   1.071620e+01   9.139881e+01
  -8.312389e+01  -2.210252e-01
  -2.810708e+01  -5.988758e+01
  -3.170455e+01  -2.716725e+01
  -4.934767e+01   1.504647e+01
  -9.670834e+00  -9.667374e+00
  -4.187816e+01  -1.006017e+02
  -3.559467e+01  -1.044417e+02
   7.042214e+01  -4.467171e+01
   7.961261e+01   6.796727e+01
   9.106651e+01   6.365792e+01
  -1.895440e+01   7.751886e+01
  -6.789519e+01   1.691102e+01
  -8.870420e+01   1.714888e+00
  -3.343711e+01  -7.988989e+01
  -1.356933e+00  -2.606530e+01
   3.513971e+01  -1.737927e+01
   2.165819e+01   3.323849e+00
   9.915350e+00  -2.912070e+01
   1.385825e+02  -1.084073e+01
   8.460774e+01   4.968158e-01
   3.754535e+01   9.419000e+01
  -1.087822e+02   6.452413e+01
  -1.310065e+02   9.296372e+01
  -9.407082e+01  -7.410919e+01
   1.358455e+01  -1.174583e+02
   9.931292e+01  -1.582139e+02
   9.848795e+01  -8.403775e+01
   4.771021e+01  -1.409318e+00
   1.474158e+01  -1.156465e+01
   2.967694e+01  -8.561944e+00
   3.218119e+01  -3.996159e+00
   4.093568e+01   3.203633e+01
   1.529037e+01   4.196491e+01
  -5.987270e+01   3.118582e+01
  -8.055257e+01   4.254035e+00
  -8.027870e+01  -5.875620e+01
  -4.191442e+01  -9.457011e+01
   6.065048e+01  -4.828695e+01
   9.728515e+01   2.164290e+01
   6.387975e+01   8.889186e+01
  -2.804058e+01   8.649157e+01
  -1.465136e+02   1.634034e+01
  -6.240297e+01  -5.848895e+01
   3.042412e+01  -9.273172e+01
   3.553889e+01  -2.100694e+01
  -8.015569e+01  -3.059484e+01
  -3.401772e+01   1.376775e+01
  -6.307227e+01  -3.523916e+01
   1.250250e+02  -6.755314e+01
   1.232600e+02  -6.620210e+01
   5.782955e+01   1.920696e+01
  -8.503338e+00   6.528792e+01
  -3.799232e+01   1.842831e+01
   1.034554e+01   2.705950e+00
   1.949057e+01  -3.759079e+01
   5.561352e+01  -5.791961e+01
   2.843413e+01  -3.617732e+00
   1.309496e+01   3.197878e+01
  -1.597118e+01   3.804149e+01
  -1.084805e+01  -1.536393e+01
   2.772146e+00  -2.752935e+01
   1.630338e+01  -1.340888e+01
  -5.666518e+00   2.900517e+01
   6.060849e+01  -7.022668e+00
  -3.555087e+01  -1.881866e+01
   6.683806e+00  -4.240590e+01
  -6.726439e+00  -4.436539e-01
   1.579459e+01   2.666910e+01
   1.434959e+01  -6.282683e+00
   1.980498e+00   4.996234e+01
  -1.525959e+01  -2.022889e+01
  -3.532714e+01  -9.360625e+01
   9.221824e+01   1.268755e+01
   5.756950e+01   1.335090e+01
   3.618447e+01   7.208740e+01
   8.027458e+00   4.907014e+01
  -4.250646e+01   7.299361e+01
   3.532902e+01  -5.452137e+00
   3.678882e+01   3.039993e+00
   3.734055e+01   3.747810e+01
  -2.570253e+01   1.976249e+01
  -3.968292e+01   1.277525e+01
