
 $NMID
 id='ANONYMOUS ', fmtdat='(2E16.6)'
 volume=1.0
 tramp=1.0
 $END
   2.795479e+03  -1.080501e+02
   1.804272e+03   1.406300e+03
  -8.896342e+01   1.731813e+03
  -1.167949e+03   1.042533e+03
  -6.927348e+02   1.456805e+02
   6.336331e+01  -2.040256e+02
   2.522094e+02   1.469246e+01
   7.196471e+01   3.990977e+02
  -4.373799e+02   4.883503e+02
  -6.056748e+02   1.523795e+02
  -3.874296e+02  -4.593167e+02
   1.459182e+01  -5.562509e+02
   3.027803e+02  -2.713985e+02
   2.072254e+02   3.825755e+02
  -1.190809e+02   5.123707e+02
  -3.993571e+02   1.717270e+01
  -2.692739e+02  -3.963899e+02
   1.233410e+02  -5.071529e+02
   3.571872e+02  -1.746806e+02
   4.655158e+02   1.366010e+02
   1.342695e+02   3.298767e+02
  -6.526799e+01   2.519727e+02
  -8.938116e+01   4.609020e+01
   1.496099e+02   1.996429e+02
   3.052445e+02   2.954778e+02
   2.878371e+01   3.594407e+02
  -3.644711e+02   1.064809e+02
  -5.306792e+02  -1.486845e+02
  -1.571131e+02  -3.793094e+02
   3.453802e+02  -1.931396e+02
   4.685064e+02   1.153468e+02
   2.294224e+02   3.114219e+02
  -2.392506e+02   3.291777e+02
  -3.761154e+02   9.093604e+01
  -2.674307e+02  -1.112859e+02
   2.997177e+00  -2.098032e+02
   6.286982e+01  -1.185751e+02
  -4.488575e+01   9.540340e+01
  -1.674956e+02   1.217260e+02
  -1.866384e+02  -1.184491e+02
   1.964981e+01  -4.239154e+02
   1.999510e+02  -3.906484e+02
   2.931034e+02  -2.536254e+01
   8.003207e+01   3.520851e+02
  -1.096676e+02   1.477988e+02
  -1.270610e+02  -2.513289e+02
   4.871199e+01  -3.436729e+02
   2.996602e+02  -2.917882e+01
   3.934458e+02   3.007140e+02
   8.940631e+01   3.822031e+02
  -2.113347e+02   2.595987e+02
  -4.532190e+02  -5.028141e+01
  -2.745215e+02  -2.657442e+02
   8.882862e+00  -2.360800e+02
   2.196883e+02  -1.084301e+02
   1.863740e+02   4.595252e+01
   4.808029e+01  -1.837545e+01
  -1.976096e+01  -1.004228e+02
   8.952656e+01  -2.069299e+01
   2.371689e+02   9.462100e+01
   1.028733e+02   2.357350e+02
  -1.664892e+02   1.735230e+02
  -3.009430e+02   1.704248e+02
  -2.696660e+02  -9.994336e+01
  -6.228327e+00  -2.744701e+02
   2.446527e+02  -2.999877e+02
   3.409012e+02  -9.001637e+01
   1.776341e+02   1.595201e+02
   3.927863e+01   2.828442e+02
  -4.820929e+01   2.254475e+02
   3.306202e+01   1.081650e+02
  -1.134423e+01   1.027689e+02
  -1.612801e+02   8.440855e+01
  -2.069721e+02   5.812397e+01
  -2.043706e+02  -5.057429e+01
  -6.692739e+01  -2.144184e+02
   7.467496e+01  -1.450411e+02
   1.795035e+02   6.423064e+01
   1.402292e+02   2.353079e+02
  -1.310181e+02   2.144879e+02
  -2.391276e+02   7.899319e+01
  -2.409361e+02  -1.445091e+02
  -1.459917e+02  -2.128057e+02
   5.409848e+00  -2.068499e+02
   1.769419e+02  -1.822522e+02
   1.189166e+02  -1.217330e+02
   1.386149e+02  -4.698650e+01
   2.471094e+02  -6.734911e+01
   4.179504e+02   5.596269e+01
   2.690069e+02   3.195773e+02
  -5.146383e+01   3.704970e+02
  -3.658212e+02   3.387826e+02
  -4.146160e+02   1.227945e+02
  -2.180380e+02  -1.156885e+02
   3.588083e+00  -2.604650e+02
   1.061959e+02  -1.959180e+02
   3.025430e+01  -1.025341e+01
  -1.201540e+02   6.633138e+01
  -1.165337e+02  -2.419699e+01
  -6.813518e+00  -1.320471e+02
   1.170781e+02  -1.242110e+02
   1.200809e+02   1.088580e+01
   1.330650e+01   1.184295e+02
  -1.462439e+02   3.240590e+00
  -1.178547e+02  -1.417380e+02
  -6.064712e+00  -2.493076e+02
   2.055572e+02  -1.360660e+02
   3.101159e+02   7.721228e+01
   2.282773e+02   2.283705e+02
   4.471465e+01   2.238954e+02
  -1.281310e+02   1.110732e+02
  -1.486147e+02   1.135821e+01
  -1.604554e+01  -2.486444e+00
   7.099071e+01   5.445126e+01
   3.208555e+01   1.365136e+02
  -1.454548e+02   4.155583e+01
  -1.101131e+02  -3.415020e+01
  -4.321959e+01  -5.974129e+01
   7.002031e+01  -2.487810e+01
   5.399686e+01   6.296044e+01
  -1.011216e+02   7.437718e+01
  -2.756926e+02   1.844998e+01
  -1.735157e+02  -1.208943e+02
  -1.137458e+01  -2.079557e+02
   2.049866e+02  -2.167519e+02
   2.072932e+02  -9.405227e+01
   1.084310e+02   3.690324e+00
  -3.824623e+01   9.106448e+01
  -5.390288e+00  -8.482524e+00
   6.538991e+01  -4.596177e+01
   1.505290e+02   1.545337e+01
   1.709609e+02   1.388762e+02
   1.949561e+01   1.952119e+02
  -1.265120e+02   1.171452e+02
  -1.122498e+02   3.688036e+01
  -8.313954e+01  -5.966076e+01
  -3.589201e+01  -2.755982e+01
   1.716464e+01   6.023914e+01
  -7.306667e+01   7.619355e+01
  -1.975578e+02  -8.806883e+00
  -1.833747e+02  -1.728550e+02
  -1.794692e+01  -2.285034e+02
   1.446180e+02  -1.462654e+02
   1.090378e+02   4.364025e+01
   4.400419e+01   7.095343e+01
   1.430617e+00   4.828778e+01
  -1.194196e+02   7.190539e-01
  -5.662432e+00  -3.165503e+01
   2.692222e+01  -3.266961e+00
   1.224106e+01   3.315336e+01
  -8.715843e+01   1.252333e+01
  -7.608437e+01  -6.637472e+01
   9.156434e+00  -1.546564e+02
   1.343440e+02  -1.367972e+02
   2.004182e+02   1.605718e+01
   1.619273e+02   1.622578e+02
  -3.244477e+01   2.023421e+02
  -8.715504e+01   1.623532e+02
  -1.402532e+02   6.478424e+01
  -8.923756e+01  -1.148773e+02
  -5.914725e+01  -3.939221e+01
  -4.429316e+01  -8.852245e+00
  -6.800017e+01   8.360478e+00
  -4.130204e+01  -5.716151e+01
   5.215451e+01  -4.700890e+01
   1.360207e+02  -1.019619e+02
   7.949289e+01   4.816616e+01
  -3.439202e+01   1.297129e+02
  -1.030916e+02   7.424560e+01
  -1.393602e+02  -7.780616e+01
  -5.159076e+01  -2.335141e+02
   1.344130e+02  -1.997716e+02
   1.924424e+02  -4.851982e+01
   1.852908e+02   1.056821e+02
   7.951740e+01   1.569001e+02
  -3.969795e+00   1.182166e+02
  -6.730054e+01   8.401762e+01
  -6.769132e+01   8.419007e+01
  -9.216273e+01   6.631467e+01
  -6.926565e+01   1.222641e+02
  -1.413811e+02  -6.680537e+01
  -1.455265e+02  -1.274722e+02
  -2.873193e+01  -2.045212e+02
   9.329600e+01  -1.265110e+02
   1.530224e+02   1.712835e+01
   1.472319e+02   1.528035e+02
  -2.662579e+01   1.660345e+02
  -1.281233e+02   7.061783e+01
  -8.133734e+01   5.282857e+00
  -1.368991e+01  -5.124393e+00
  -7.029350e+00  -6.599030e+01
  -3.858677e+01  -5.631537e+01
  -8.185913e+01  -2.358145e+01
  -3.481899e+00  -5.411332e+01
   1.055222e+02  -3.422104e+01
   1.644724e+02  -1.386907e+01
   1.373992e+02   1.092671e+02
  -1.246807e+01   1.091445e+02
  -1.491477e+02   9.206294e+01
  -9.323053e+01   1.519391e+01
  -5.688045e+01  -7.881939e+01
   5.837541e+01  -3.874439e+01
   2.087501e+01   6.619226e+01
  -2.993685e+00   4.785612e+01
  -8.958724e+01   5.936759e+01
  -5.759121e+01   1.897487e+01
  -1.393314e+01  -3.558305e+01
  -2.857032e+01  -2.248109e+01
  -6.334940e+01   8.311701e-01
  -8.771094e+01   1.566270e+01
  -4.835915e+01  -1.194643e+02
   6.055770e+01  -1.278566e+02
   1.024806e+02  -9.761417e+01
   1.546083e+02   3.638204e+01
   1.138924e+02   9.887508e+01
   9.329205e+00   1.359036e+02
  -3.675764e+01   2.167394e+01
  -3.773605e+01   2.009961e+00
   4.765745e+01  -2.930964e+01
   1.399486e+02   6.401500e+01
   5.133769e+01   1.084658e+02
  -7.335105e+01   8.500009e+01
  -1.354776e+02   1.780354e-01
  -1.296296e+02  -3.335111e+01
   3.403682e+00  -9.008323e+01
   5.560508e+01  -1.442247e+00
   1.784848e+00   3.639147e+00
  -4.978079e+01   3.361898e+01
  -3.965985e+01  -4.224453e+01
  -4.720328e+01  -8.851433e+01
   5.287873e+01  -1.549094e+02
   1.340445e+02  -4.217230e+01
   8.324690e+01   9.204674e+01
  -1.697342e+01   1.327325e+02
  -1.041202e+02   8.129252e+01
  -9.225784e+01  -6.431023e+01
  -7.316565e+01  -6.841991e+01
  -1.434367e+01  -1.077183e+02
   4.660392e+01  -8.451292e+00
  -7.099600e+00   1.367107e+01
   1.596992e+01  -2.723632e+01
   4.043751e+01  -5.168212e+01
   2.731142e+01   4.051088e+00
   4.800496e+01   3.141641e+01
   6.127978e+01   6.824736e+01
  -3.619842e+01   6.283999e+01
  -9.216855e+01  -2.243960e+01
  -8.966559e+01  -7.808888e+01
   1.739678e+01  -4.417812e+01
   9.041396e+01   5.293796e+00
   5.849259e+01   1.637413e+01
  -1.965335e-01   6.612406e+01
  -1.917261e+01   6.798875e+00
  -3.309479e+01  -3.605097e+01
   8.372220e+00  -1.159231e+01
  -1.546362e+01  -1.450267e+01
  -5.328823e+01   6.779320e+00
  -8.073072e+01  -3.069352e+01
  -2.690957e+01  -8.452797e+01
   6.241978e+01  -8.231389e+01
   1.143653e+02  -5.769909e+01
   1.575016e+02   3.042707e+01
   4.085300e+00   1.346502e+02
  -5.062655e+01   1.081546e+02
  -5.264227e+01   5.328406e+01
  -9.454215e+01  -7.916458e+00
  -3.177909e+01  -2.607292e+01
  -6.451309e+00   2.141638e+00
   3.802863e+01   6.024098e+01
  -1.684941e+01  -2.823192e+01
  -4.542877e+01  -7.702080e+01
   4.399415e+01  -1.191189e+02
   4.719140e+01  -1.372067e+01
   4.472773e+01   8.737236e+01
  -2.594936e+01   2.742398e+01
  -7.343388e+01   1.347331e+01
  -1.071852e+02  -3.127893e+01
  -5.078108e+01  -5.670677e+01
   3.297464e+01  -6.394220e+01
   7.995726e+01   9.565256e+00
   3.422531e+01   4.017960e+01
  -4.174251e+01   2.156556e+01
  -6.253137e+01   1.146948e+00
  -4.814465e+00  -1.472338e+01
   4.477497e+01   1.592944e+01
   1.005608e+01   3.527675e+01
  -6.409520e+01   5.418199e+01
  -1.405231e+02   6.646945e+01
  -5.389496e+01   2.324365e+01
  -2.014905e+01  -4.355347e+01
   7.613510e+00  -6.187873e+01
  -4.707946e+00  -2.558826e+01
   1.092743e+01   4.471055e+01
  -2.987491e+01   5.582449e+01
   5.095432e+00   1.423782e+01
  -1.840849e+01  -6.830120e+00
   1.418981e+01   2.027435e+01
  -5.622748e+00   3.544189e+00
  -3.883891e+00  -1.043455e+01
   3.592223e+01  -1.538535e+01
   4.209429e+01  -6.259605e+01
   4.267971e+01  -4.770177e+01
   4.370194e+01  -1.691470e+00
   1.778235e+01   7.873672e+01
   2.097680e+01  -1.305020e+01
  -1.657015e+01  -5.216030e+00
  -5.248578e+01  -3.988847e+01
   4.007493e+01  -1.718417e+00
   4.948407e+01  -4.322061e+00
   4.290483e+01   9.960932e+01
  -6.008964e+01   4.923618e+01
  -5.112125e+01   5.372370e+00
  -6.933423e+01  -9.596215e+01
   5.259537e+01  -4.571354e+01
   6.074599e+01  -2.886472e+01
   4.152763e+01  -3.871031e+01
   7.065485e+00  -4.550865e+01
   2.915835e+01  -4.730041e+00
   3.888629e+01  -3.801575e+01
   3.924137e+01   8.137818e+00
