
 $NMID
 id='ANONYMOUS ', fmtdat='(2E16.6)'
 volume=1.0
 tramp=1.0
 $END
   2.690146e+03  -7.327078e+01
   1.998346e+03   1.096246e+03
   2.708721e+02   1.609766e+03
  -9.216890e+02   1.304726e+03
  -9.189644e+02   4.887896e+02
  -2.162294e+02  -1.113630e+02
   1.495510e+02  -5.058385e+01
   1.013952e+02   3.586727e+02
  -2.356891e+02   4.854808e+02
  -4.967831e+02   1.195194e+02
  -4.065346e+02  -3.539222e+02
  -1.757165e+02  -5.155947e+02
   1.244617e+02  -1.900686e+02
   2.063777e+02   2.363052e+02
  -7.823318e+01   4.322579e+02
  -2.935218e+02   7.360543e+01
  -2.776417e+02  -3.803172e+02
   1.070125e+02  -5.173181e+02
   3.982855e+02  -2.893616e+02
   4.642756e+02   9.330206e+01
   1.281583e+02   3.033208e+02
   1.565025e+01   2.810428e+02
   1.724641e+01   1.525506e+02
   1.592633e+02   1.041475e+02
   2.290656e+02   3.164362e+02
  -8.799181e+01   2.443675e+02
  -3.951941e+02  -3.779937e-01
  -4.207395e+02  -1.839868e+02
  -1.015929e+02  -2.066295e+02
   3.038951e+02  -8.053900e+01
   4.515031e+02   2.515656e+02
   1.350527e+02   3.333798e+02
  -2.394078e+02   2.613446e+02
  -3.347336e+02   7.183722e+01
  -2.978885e+02  -1.178036e+02
  -9.592964e+01  -2.064919e+02
  -5.693343e+01  -1.180824e+02
  -1.041121e+02   3.789144e+01
  -9.445408e+01   6.226500e+01
  -6.899414e+01  -1.919458e+02
   8.522204e+01  -3.418448e+02
   2.125922e+02  -3.220276e+02
   2.179383e+02  -9.972739e+00
   2.935590e+01   2.145736e+02
  -9.300685e+01   1.104688e+02
  -1.084727e+02  -2.202727e+02
   1.015372e+02  -2.841618e+02
   3.313979e+02  -2.515284e+00
   3.993196e+02   2.813563e+02
   1.679100e+02   3.965890e+02
  -2.252250e+02   2.698876e+02
  -4.324696e+02  -3.920958e+01
  -3.357674e+02  -1.418986e+02
  -6.434528e+01  -2.009163e+02
   1.743336e+02  -1.414419e+02
   1.915437e+02  -2.651470e+01
   2.820745e+01   6.960273e+00
   2.935771e+01  -8.185077e+00
   9.259491e+01  -6.890363e+01
   2.163503e+02   2.740668e+01
   1.609803e+02   1.893980e+02
  -1.489290e+02   2.730669e+02
  -3.167512e+02   1.891531e+02
  -2.912223e+02  -7.132322e+01
  -1.376632e+01  -3.113645e+02
   2.795389e+02  -3.515359e+02
   3.045754e+02  -9.055425e+01
   1.339920e+02   1.417465e+02
   3.242322e+01   2.923620e+02
  -1.267848e+01   2.055001e+02
  -3.029556e+01   1.426277e+02
  -8.455874e+01   1.007204e+02
  -1.463340e+02   1.082489e+02
  -2.109054e+02  -1.485881e+00
  -1.511087e+02  -1.199970e+02
  -4.544214e+01  -2.267779e+02
   1.122912e+02  -1.435772e+02
   1.269193e+02   5.415247e+01
   6.349761e+01   2.090751e+02
  -5.877316e+01   2.054284e+02
  -2.177207e+02  -1.828710e+00
  -2.885844e+02  -1.644622e+02
  -1.426214e+02  -2.700629e+02
   4.799928e+01  -2.324974e+02
   1.577879e+02  -1.589006e+02
   1.014445e+02  -7.007698e+01
   1.094591e+02  -3.392893e+01
   2.609356e+02  -2.889828e+01
   3.879829e+02   9.442668e+01
   3.115129e+02   2.486938e+02
   1.871185e+01   3.823921e+02
  -3.093668e+02   3.221819e+02
  -4.146356e+02   1.500402e+02
  -2.516972e+02  -1.407798e+02
  -2.251494e+01  -2.546402e+02
   1.031248e+02  -1.583583e+02
  -3.250071e+01  -3.029158e+01
  -1.038039e+02   5.816531e+01
  -7.299513e+01  -3.102639e+01
   9.574452e+00  -1.161983e+02
   6.199054e+01  -4.901825e+01
   9.737075e+01   6.384277e+01
   2.100631e+01   9.615403e+01
  -1.132557e+02  -4.564590e+01
  -1.455789e+02  -2.070444e+02
   5.839449e+01  -3.018313e+02
   1.976795e+02  -1.467334e+02
   2.722548e+02   8.636372e+01
   2.334843e+02   2.429060e+02
   5.662976e+00   2.354493e+02
  -1.109215e+02   7.007525e+01
  -1.327628e+02  -8.932962e+00
   5.316808e-01  -4.208585e+01
   7.131893e+01   4.784466e+01
  -1.867400e+01   8.327024e+01
  -1.187435e+02   7.531269e+01
  -1.200046e+02  -3.089567e+01
   2.524914e+01  -6.237156e+01
   9.696163e+01  -3.963429e+00
   2.034559e+01   9.751191e+01
  -1.498698e+02   1.304710e+02
  -3.307478e+02   2.624088e+01
  -2.446775e+02  -1.616951e+02
   3.591956e+00  -2.442631e+02
   1.919085e+02  -2.407243e+02
   2.744633e+02  -8.823361e+01
   1.261666e+02   3.615171e+01
  -2.848327e+01   7.448273e+01
   1.833679e+01   4.580645e+01
   7.188239e+01  -4.984261e+01
   1.973881e+02  -2.207708e+01
   1.175496e+02   1.240458e+02
   6.963681e+01   1.609903e+02
  -9.600004e+01   8.933960e+01
  -9.313325e+01  -2.237983e+00
  -2.892459e+01  -8.777301e+00
   4.293041e+01   3.375154e+01
   2.050564e+01   9.163959e+01
  -7.252922e+01   7.769770e+01
  -1.640572e+02  -1.111719e+01
  -1.163400e+02  -1.615199e+02
   4.257210e+01  -1.945923e+02
   1.610174e+02  -8.380327e+01
   1.978406e+02  -1.229083e+01
   4.207769e+01   5.715866e+01
  -5.234133e+01   1.415694e+02
  -8.501425e+01   6.441023e+01
   2.866513e+01  -1.715089e+01
   6.090931e+01   2.748423e+01
   7.167503e+00   3.699901e+01
  -9.231364e+01   4.293061e+01
  -9.163023e+01  -1.252232e+02
   2.030200e+01  -2.129712e+02
   1.370219e+02  -1.351474e+02
   2.572065e+02  -7.242924e+01
   1.887840e+02   1.427313e+02
   5.012992e+01   1.803748e+02
  -7.643909e+01   1.034324e+02
  -8.140049e+01   3.847968e+01
  -8.409029e+01  -4.371747e+01
   1.107980e+01  -1.142275e+00
  -2.897450e+01   1.652702e+01
  -7.527816e+01   2.447540e+01
  -9.503532e+01  -3.998084e+01
  -2.790769e+01  -7.162160e+01
   7.585732e+01  -7.482499e+01
   1.099514e+02   3.184878e+01
  -1.900693e+01   9.180156e+01
  -1.525562e+02   6.383283e+01
  -1.953939e+02  -8.503332e+01
  -2.773949e+01  -2.087773e+02
   1.993392e+02  -1.940707e+02
   2.348532e+02   1.371353e+01
   2.391612e+02   1.358530e+02
   6.410406e+01   1.544279e+02
  -5.367579e+01   8.760823e+01
  -5.280070e+01   7.527979e+01
  -2.043758e+01   5.480160e+01
  -4.371950e+01   1.091351e+02
  -1.075304e+02   9.210689e+01
  -1.688327e+02   7.810218e+00
  -1.274556e+02  -1.223294e+02
  -3.961144e+01  -1.852686e+02
   7.377676e+01  -1.761970e+02
   1.602538e+02  -1.605462e+01
   1.179160e+02   6.978920e+01
   1.669401e+01   1.333335e+02
  -8.719756e+01   1.015291e+02
  -1.165482e+02  -3.663314e+01
   7.689614e-02  -3.606004e+01
   3.699383e+01  -4.256599e+01
  -2.341930e+00   9.546631e+00
  -6.567524e+01  -2.768872e+01
   2.073749e+01   1.272976e+01
   1.225113e+02  -6.174323e+01
   1.650527e+02  -2.974469e+01
   1.564909e+02   8.333487e+01
   2.087499e+01   8.398939e+01
  -1.063456e+02   5.487741e+01
  -8.798689e+01   4.596667e+00
  -2.534701e+01  -5.586117e+00
   6.585679e+01   2.506830e+01
   5.068939e+01   3.619193e+01
   2.511244e+01   1.092692e+02
  -7.711840e+01   5.327178e+01
  -4.980537e+01  -9.883989e+00
  -4.074697e+01  -2.924537e+01
  -3.521039e+01  -7.092902e+01
  -5.524382e+01  -7.495229e+00
  -6.727126e+01   1.098373e+01
  -5.088597e+01  -5.383605e+01
   2.020546e+01  -1.303106e+02
   8.694068e+01  -1.586715e+02
   1.577076e+02  -3.354256e+01
   7.426377e+01   6.666517e+01
   5.480583e+01   1.503985e+02
  -2.910030e+01   6.841641e+01
  -6.759282e+01   3.315005e+01
   8.502804e+01  -3.095888e+01
   1.037605e+02  -2.984493e+01
   6.812149e+01   7.957981e+01
  -8.357605e+01   1.182576e+02
  -1.726199e+02   9.493035e+01
  -1.527133e+02  -6.086524e+00
  -1.837423e+01  -1.044777e+02
   6.492753e+01  -5.262883e+00
   6.584212e+01  -2.163936e+01
  -6.351967e+01  -5.891643e+00
  -1.493797e+02   2.883423e+00
  -4.541088e+01  -1.271324e+02
   5.173043e+01  -1.391678e+02
   1.159795e+02  -1.005370e+02
   1.083541e+02   4.022723e+01
   1.080133e+01   1.995073e+02
  -6.786976e+01   1.070524e+02
  -7.853039e+01   4.203403e+01
  -5.448632e+01  -9.803116e+01
  -3.198993e+01  -1.158619e+02
   1.685943e+00  -6.851310e+01
   4.469687e+01   2.794720e+01
   3.348627e+01  -8.215559e+00
   4.645420e+01   1.357099e+01
   5.126732e+01   2.523343e+01
   4.599451e+01   5.392528e+01
   1.682314e+01   7.018942e+01
  -9.449462e+01   5.047867e+01
  -1.200569e+02  -2.919379e+01
  -1.470095e+02  -2.516368e+01
   6.351730e+00  -7.009741e+01
   8.511196e+01  -3.156028e+01
   6.737621e+01   9.875108e+00
  -5.980448e+00   3.682703e+01
  -3.812730e+01   3.766339e+01
  -3.882873e+01   1.799780e+01
  -7.721667e+00  -2.551559e+01
  -3.038509e+01  -3.321433e+01
  -8.099803e+01   2.506420e+01
  -9.806454e+01  -2.935569e+01
  -1.067850e+01  -1.001986e+02
   6.987350e+01  -1.427375e+02
   1.783424e+02  -4.706120e+01
   1.272257e+02   4.806979e+01
   5.263711e+01   8.721101e+01
  -8.845470e+01   1.750500e+02
  -1.070938e+02   8.197300e+01
  -1.071168e+02   3.367667e+01
  -1.793982e+01  -5.898919e+01
   1.401990e+01   1.161312e+00
  -2.132118e+01  -1.483597e+01
  -2.303682e+01  -7.272119e+01
  -2.355371e+01  -1.033611e+02
   8.180951e+00  -5.561756e+01
   1.096785e+01  -5.828624e+00
   6.537114e+01   7.357362e+01
   1.465193e+01   1.001115e+02
  -4.529202e+01   1.437366e+00
  -1.354789e+02  -1.026921e+02
  -7.250599e+01  -9.994842e+01
   6.044129e+01  -8.671905e+01
   7.892943e+01  -9.401707e+00
   7.601304e+01   7.471552e+01
  -3.916273e+01   9.171826e+01
  -1.057474e+02   4.177573e+01
   2.704729e+01  -4.730125e+01
   7.306155e+01  -1.742939e+01
   4.472308e+01   1.542348e+01
  -7.356297e+01   8.507622e+01
  -7.735620e+01   2.531086e+01
  -4.622636e+01  -4.667287e+01
  -4.093668e+01  -5.978532e+01
   5.059250e+01  -7.225582e+01
   9.005482e+01  -3.435180e+00
   1.061802e+01   7.477840e+01
  -6.965847e+01   5.465977e+01
  -1.314515e+01   4.931552e+00
  -5.195915e+01  -4.724301e+01
   7.889476e+00  -1.658090e+01
  -1.155503e+01  -3.708210e+01
   1.232403e+01  -1.466803e+01
   2.206220e+01  -2.909923e+01
  -2.372060e+01  -5.990979e+01
  -4.935517e+00  -5.043513e+00
   2.354458e+01   4.915016e+01
   2.742974e+01   1.068212e+02
  -1.998857e+01   8.075572e+01
  -6.510904e+01  -1.505324e+01
  -1.510955e+01  -1.419120e+01
   2.784771e+01  -1.482313e+01
   1.305596e+02  -1.668655e+01
   3.560186e+01   2.741531e+01
  -4.216424e+01   5.919771e+01
  -9.388846e+01  -5.060315e+00
  -9.015418e+01  -6.593640e+00
   1.439184e+01  -2.805020e+01
   6.916149e+01  -5.867857e+00
   4.882956e+01  -1.896038e+00
  -4.938235e+01   1.550213e+01
  -7.095675e+01  -4.171024e+01
   1.730545e+01  -5.376761e+01
   8.865340e+01  -2.772207e+01
