
 $NMID
 id='ANONYMOUS ', fmtdat='(2E16.6)'
 volume=1.0
 tramp=1.0
 $END
  -2.741760e+03  -6.134809e+01
  -1.603438e+03  -1.474040e+03
   2.258078e+02  -1.765808e+03
   1.267532e+03  -7.942816e+02
   8.959334e+02   6.103117e+01
  -6.303105e+01   3.706652e+02
  -4.407392e+02  -1.541953e+01
  -9.990593e+01  -4.108631e+02
   4.424996e+02  -4.690521e+02
   5.060099e+02  -1.751110e+01
   3.899463e+02   5.362916e+02
  -2.729286e+00   6.232199e+02
  -3.364031e+02   1.145196e+02
  -1.896668e+02  -4.082503e+02
   1.787800e+02  -4.853777e+02
   3.074531e+02   7.687739e+01
   1.517816e+02   4.292451e+02
  -1.652995e+02   4.979758e+02
  -4.130586e+02   2.109465e+02
  -3.124273e+02  -1.635843e+02
  -4.725704e+01  -2.659130e+02
   1.864265e+02  -1.631958e+02
   1.352941e+02  -8.168235e+01
  -1.414097e+02  -1.176560e+02
  -3.227762e+02  -2.593419e+02
   7.960442e+01  -2.548114e+02
   4.565394e+02  -1.535514e+02
   5.176886e+02   1.936362e+02
   2.704919e+02   3.171896e+02
  -2.495858e+02   1.949392e+02
  -4.554617e+02  -1.313224e+02
  -1.661504e+02  -2.812455e+02
   1.425877e+02  -2.969889e+02
   2.967103e+02  -9.635357e+01
   2.108670e+02   1.203224e+02
   1.032646e+02   1.999680e+02
  -2.508102e+01   6.686189e+01
   2.795385e+00  -1.109025e+02
   1.858670e+02  -1.455586e+02
   1.843337e+02   1.319328e+02
   5.054327e+01   4.914956e+02
  -2.758840e+02   3.982246e+02
  -3.176432e+02   2.665204e-01
  -9.181270e+01  -3.499959e+02
   1.506934e+02  -9.685172e+01
   1.164580e+02   2.293093e+02
  -1.127488e+02   3.520849e+02
  -3.931116e+02   6.388371e+01
  -4.000266e+02  -3.226227e+02
  -8.772413e+01  -4.645622e+02
   2.137850e+02  -2.605125e+02
   4.202123e+02   1.069259e+02
   2.563335e+02   2.355447e+02
  -6.748876e+01   2.144068e+02
  -2.599114e+02   3.494746e+01
  -1.923047e+02  -5.963533e+01
   1.744110e+01  -1.404089e+02
   1.147489e+02   2.427504e+01
  -3.238690e+00   5.116061e+01
  -2.028221e+02  -2.902605e+01
  -9.203500e+01  -1.542001e+02
   9.599319e+01  -1.684841e+02
   2.630576e+02  -3.720098e+01
   1.968009e+02   9.305611e+01
  -4.650097e+01   2.151914e+02
  -2.445396e+02   2.552960e+02
  -2.974499e+02   1.149457e+02
  -2.152364e+02  -1.175024e+02
  -2.018107e+01  -3.104141e+02
   9.433497e+01  -2.839359e+02
   8.572514e+01  -1.971029e+02
   3.085143e+01  -3.119501e+01
   1.588310e+02  -9.582313e+01
   2.141338e+02   4.701783e+01
   1.662826e+02   1.192264e+02
   4.634629e+01   2.147141e+02
  -1.083477e+02   1.514923e+02
  -1.201884e+02  -3.946651e+01
  -5.446912e+01  -1.967717e+02
   1.012735e+02  -1.831307e+02
   1.574537e+02  -4.742332e+01
   2.307477e+02   1.912136e+02
   7.911127e+01   2.621873e+02
  -4.615428e+01   2.276681e+02
  -1.651136e+02   1.010383e+02
  -1.211860e+02   1.819431e+01
  -7.748969e+01   5.471068e+01
  -2.095238e+02   4.004786e+00
  -3.239105e+02  -5.238711e+01
  -2.073987e+02  -2.693251e+02
   7.085812e+01  -3.190329e+02
   3.745086e+02  -2.564148e+02
   3.869093e+02  -3.935410e+01
   2.172043e+02   6.045324e+01
  -1.511828e+01   1.764275e+02
  -8.025121e+01   1.381468e+02
   1.353037e+01   6.427557e+01
   1.223062e+02  -1.916330e+01
   1.277534e+02   2.336443e+01
   5.217915e+01   1.270728e+02
  -1.256307e+02   1.082489e+02
  -1.238013e+02  -8.039470e+01
   4.674439e+01  -7.791209e+01
   1.510650e+02   1.135934e+01
   1.327532e+02   2.145438e+02
  -5.829246e+01   2.901305e+02
  -1.197859e+02   1.817317e+02
  -2.635128e+02   1.292969e+00
  -1.877749e+02  -2.255979e+02
  -8.876643e+01  -2.030197e+02
   7.145584e+01  -9.695736e+01
   1.653932e+02   2.461624e+01
   4.814789e+01   4.284979e+01
  -5.263976e+01  -5.754055e+01
  -2.872524e+01  -8.897473e+01
   7.798596e+01  -1.776596e+01
   1.296306e+02   3.062508e+01
  -1.591325e+01   3.728613e+01
  -1.344905e+02  -8.942929e+00
  -5.225516e+01  -8.667900e+01
   1.775430e+02  -5.147630e+01
   2.379902e+02   3.209848e+01
   1.899771e+02   4.085781e+01
   1.563440e+01   1.810110e+02
  -2.184512e+02   1.788055e+02
  -2.302897e+02   1.118522e+02
  -1.297709e+02  -2.994444e+01
   4.826260e+01  -5.663985e+01
   4.103677e+01  -1.996186e-01
  -8.474415e+00   7.885268e+01
  -1.769190e+02   2.876598e+01
  -1.800180e+02  -1.033379e+02
  -1.653124e+01  -1.155631e+02
   5.709876e+01  -6.590490e+01
   6.267286e+01  -1.309044e+00
   4.777265e+01   5.040757e+01
  -3.676388e+01  -4.959888e+01
   1.847464e+01  -1.691742e+02
   7.336927e+01  -1.558249e+02
   8.968949e+01   4.405215e+01
   1.163811e+02   1.003673e+02
   3.163778e+00   1.446720e+02
  -1.082252e+02   7.332907e+01
  -1.395504e+02   8.729872e+00
  -5.638981e+01  -8.773830e+01
   5.251504e+01  -2.704559e+01
   9.079698e+01   2.529853e+01
  -2.009525e+01   6.839571e+01
  -2.529307e+01  -1.712012e+01
   6.003043e+01  -7.614842e+00
   4.830532e+01  -1.152402e+01
   6.411953e+01   2.822907e+01
   5.377315e+01   1.114346e+02
  -1.131820e+02   1.327444e+02
  -1.985978e+02  -5.551192e+00
  -1.341699e+02  -1.026667e+02
  -4.382633e+01  -1.656558e+02
   1.671835e+02  -1.333011e+02
   1.504239e+02  -1.497734e+00
   1.033628e+02   5.998089e+01
   2.479622e+01   2.522544e+01
   5.608013e+01  -1.200690e+01
   1.589608e+01   2.949809e+01
   6.373847e+01   3.915835e+01
  -8.285476e+01   9.369983e+01
  -1.093687e+02  -1.124414e+01
  -4.659125e+01  -2.487520e+01
   2.695633e+01  -1.400483e+02
   6.039386e+01  -1.580477e+01
   1.521086e+02   5.403970e+01
   3.427382e+01   1.609698e+02
  -1.056141e+02   1.579281e+02
  -1.944470e+02   9.858349e+01
  -1.868414e+02  -1.036266e+02
  -8.773613e+01  -1.570118e+02
   2.952578e+01  -1.393419e+02
   8.427381e+01  -4.618509e+01
   8.506812e+01  -5.528388e+01
   9.721864e+01  -4.797529e+01
   3.602469e+01  -7.757564e+01
   6.757125e+01   7.090839e+00
   1.326715e+02   1.338887e+02
   1.016363e+01   1.739113e+02
  -5.162052e+01   1.488914e+02
  -1.416686e+02   4.299596e+01
  -5.530017e+01  -8.132380e+01
   1.354710e+01  -1.286958e+02
   8.887489e+00  -7.400525e+01
   3.130163e+01   1.546532e+01
   4.063334e+00   4.862312e+01
   6.968598e-01   2.741689e+01
   2.063095e+01   4.964455e+00
   5.029660e+01  -7.592587e+00
   1.244595e+01   1.636538e+01
  -7.422453e+01   2.681207e+01
  -1.269777e+02  -2.931529e+00
  -1.079738e+02  -4.167938e+01
   2.728047e+00  -8.645100e+01
   1.375416e+02  -2.540417e+01
   1.313831e+02   6.535927e+00
   1.811813e+01   2.052611e+01
  -5.137751e+01   5.594279e+01
  -5.838993e+01  -4.117732e+01
   2.213561e+01  -4.526410e+01
   4.953998e+01  -1.750391e+01
   1.256382e+01   1.764155e+01
   4.823364e+01  -6.265647e+00
   4.519358e+01   1.482114e+01
   4.364261e+01  -1.942707e+01
   6.750835e+01   3.287703e+01
   6.442761e+01   4.131356e+01
  -5.379447e+00   1.078922e+02
  -4.721307e+01   1.101257e+02
  -1.217699e+02   4.499733e+01
  -1.098484e+02  -5.549498e+01
   1.112874e+01  -9.788093e+01
  -6.011518e-01  -2.551998e+01
   2.376564e+01   1.111756e+01
  -5.459293e+01   3.380237e+01
  -1.088062e+02  -5.435207e+01
  -7.641759e+01  -1.059106e+02
   9.212482e+01  -1.072085e+02
   1.072795e+02  -1.656670e+01
   1.193730e+02   1.511231e+01
   1.232128e+01   5.558945e+01
  -6.460684e+01  -3.381953e+00
  -4.327000e+01   9.985202e+00
   7.300116e+01  -5.640242e+01
   5.087980e+01   4.254265e+01
   3.921819e+01   9.735374e+00
  -2.840452e+01   1.287340e+02
  -1.282163e+02   1.085345e+01
  -8.754901e+01  -6.212968e+01
  -2.370018e+01  -1.338287e+02
   8.723409e+01  -6.672546e+01
   1.317111e+02   1.084215e+01
   2.367497e+01   6.417189e+01
  -5.663329e+01   6.425410e+01
  -7.975661e+00   4.002186e+00
  -2.227488e+01  -2.485792e+01
   2.469366e+01   1.351074e+01
   5.385134e+00   3.651229e+01
  -4.474999e+01   3.562174e+00
  -7.176369e+01  -1.957227e+01
  -5.568425e+01  -5.658654e+01
   9.840136e+01  -1.937310e+01
   1.318929e+02   2.080425e+01
   7.745074e+01   9.680198e+01
  -6.274969e+01   4.754366e+01
  -5.118458e+01   2.483544e+01
  -8.492805e+01   2.748864e+00
  -4.621159e+00  -1.811819e+01
   1.103460e+01  -2.998438e+01
   4.706976e+00  -5.002829e+01
   1.285399e+01   1.488815e+01
   8.785382e+00   5.704922e+01
   4.116628e+01   1.321968e+01
   4.307311e+01   2.086182e+01
   6.212235e+01   3.519059e+01
  -7.256075e+01   1.049878e+02
  -1.390172e+02   2.512386e+01
  -1.077413e+02  -7.029749e+01
  -6.988967e+00  -1.275917e+02
   8.731603e+01  -1.363752e+02
   1.016265e+02  -6.478140e+01
   3.635084e+01   3.464620e+01
  -2.418275e+01   5.377967e+01
  -5.473183e+01  -1.340418e+01
  -3.671569e+00  -4.009234e+01
   7.031947e+01  -1.150069e+01
   3.077751e+01   9.429181e+01
  -7.087857e+01   9.867911e+01
  -9.205441e+01   2.544791e+01
  -9.841287e+01  -2.956671e+01
  -1.282503e+01  -9.174470e+01
   4.072318e+01  -6.927974e+01
   8.240927e+01   5.914969e+01
   4.840482e+01   4.467348e+01
  -3.809006e+01   6.525516e+01
  -8.030615e+01   3.374671e+01
  -2.200379e+01  -1.685859e+01
   5.865329e+01  -6.417123e+01
  -1.223113e+01  -8.837968e+00
  -9.120756e+01   9.577606e+00
  -8.749358e+01  -1.887345e+01
  -6.346544e+00  -6.221191e+01
   1.785143e+01  -5.347913e+01
   7.073260e+01  -5.653356e+01
   7.346718e+01   2.192281e+01
   1.167530e+01   6.282105e+01
  -6.901126e+01   6.504064e+01
  -3.778832e+01   4.195067e+01
  -3.431058e+01  -6.077747e+01
   7.156403e+01  -3.651975e+01
   3.978696e+01   2.543219e+01
   2.606791e+01   6.547613e+01
  -3.553146e+01   3.406516e+01
  -3.108784e+01   2.148100e+01
  -2.188077e+01  -3.558565e+01
   2.563928e+01   1.711576e+01
   1.992875e+01  -1.228661e+01
  -7.694170e+00   5.550530e+01
  -4.139248e+01   1.628027e+01
  -8.585139e+00  -3.317210e+01
   1.444461e+01  -3.938740e+01
   1.516861e+00   3.438888e+01
   2.759576e+01   1.813615e+01
  -2.307018e+01   6.325411e+01
  -4.930462e+01  -6.525909e+00
  -3.445196e+01  -7.863628e+01
   4.803216e+01  -5.512877e+01
   2.992341e+01   4.249325e+01
   6.356838e+01   4.088588e+01
  -4.390614e+01   1.242238e+01
  -1.781651e+01  -2.600024e+01
  -6.045380e+01   2.288600e+01
   2.708903e+01  -3.447014e+01
   2.349876e+01  -3.670170e+01
   1.792756e+01  -3.000095e+01
  -3.644419e+01   3.651897e+01
