
 $NMID
 id='ANONYMOUS ', fmtdat='(2E16.6)'
 volume=1.0
 tramp=1.0
 $END
   2.566244e+03   1.535061e+02
   1.720242e+03   1.359365e+03
  -1.406056e+01   1.671781e+03
  -1.012634e+03   9.857536e+02
  -7.549253e+02   1.743099e+01
   1.285758e+02  -2.092204e+02
   4.602358e+02   1.488384e+02
   8.205588e+01   5.870764e+02
  -3.416964e+02   5.409164e+02
  -5.481407e+02   5.629043e+01
  -3.810600e+02  -5.100134e+02
   2.922879e+01  -6.198139e+02
   2.993888e+02  -9.802960e+01
   2.755070e+02   3.693477e+02
  -1.216709e+02   3.992882e+02
  -4.290749e+02   1.533702e+02
  -2.930658e+02  -3.797182e+02
   1.807713e+02  -4.711224e+02
   3.669451e+02  -1.499285e+02
   3.408256e+02   1.660584e+02
   5.038285e+01   2.986913e+02
  -1.049013e+02   2.130598e+02
  -9.615466e+01   9.198178e+01
   4.497673e+01   6.429547e+01
   2.452109e+02   1.137668e+02
   1.091137e+02   3.071126e+02
  -3.016939e+02   2.482784e+02
  -4.740217e+02  -1.858043e+01
  -2.566427e+02  -2.413499e+02
   2.402305e+02  -2.063594e+02
   4.191790e+02   8.746990e+01
   2.049952e+02   3.387748e+02
  -1.474585e+02   2.805862e+02
  -3.221174e+02   1.619696e+02
  -2.366238e+02  -1.175989e+02
  -5.250692e+01  -2.749187e+02
   1.390633e+02  -1.632266e+02
   3.510370e+00   9.625207e+01
  -1.382911e+02   1.345347e+02
  -2.346449e+02  -8.390448e+01
  -1.036585e+02  -3.645322e+02
   2.404671e+02  -4.395077e+02
   3.513990e+02  -2.397494e+01
   1.885862e+02   2.673722e+02
  -1.001917e+02   1.260436e+02
  -1.509909e+02  -1.399443e+02
   1.494421e+01  -2.944255e+02
   2.549071e+02  -9.009271e+01
   3.759679e+02   1.928064e+02
   1.737311e+02   3.564554e+02
  -1.597437e+02   2.225497e+02
  -3.681653e+02  -3.471403e+01
  -2.450225e+02  -2.044452e+02
   4.321080e+01  -1.961739e+02
   2.434407e+02  -6.799830e+01
   1.841491e+02   4.444303e+01
   8.603803e+00   7.301036e+01
  -6.735585e+01  -4.078540e+00
   2.071295e+01  -1.766157e+01
   1.654837e+02   4.063071e+01
   9.830394e+01   1.199001e+02
  -1.155475e+02   2.217116e+02
  -2.567150e+02   1.584733e+02
  -2.803052e+02  -7.496434e+00
  -1.950046e+01  -1.354722e+02
   1.539101e+02  -2.619966e+02
   2.035318e+02  -1.762796e+02
   1.706921e+02   2.539171e+01
   5.514212e+01   2.179395e+02
  -3.226080e+01   2.390434e+02
   1.916823e+00   4.886922e+01
   4.734526e+01  -1.616363e+01
   3.128634e-01   9.049632e+01
  -1.121944e+02   1.115728e+02
  -2.002474e+02  -4.152365e+01
  -7.052615e+01  -1.545046e+02
   2.467799e+01  -1.956313e+02
   1.102224e+02  -4.757133e+01
   1.171862e+02   1.914494e+02
  -6.296372e+01   1.951447e+02
  -2.019306e+02   1.023773e+02
  -2.545463e+02  -6.407067e+01
  -1.322738e+02  -2.526861e+02
  -2.564403e+01  -2.039623e+02
   1.334303e+02  -1.239401e+02
   8.361326e+01  -6.058065e+01
   4.822592e+01  -3.821361e+01
   1.333142e+02  -1.253690e+01
   2.602766e+02   3.742490e+01
   2.514553e+02   1.780339e+02
  -8.877375e+00   3.118884e+02
  -2.622974e+02   3.027238e+02
  -3.694903e+02   1.536098e+02
  -2.674154e+02  -7.235463e+01
  -5.888799e+01  -2.088786e+02
   8.051366e+01  -1.368391e+02
  -2.071282e+01  -6.931590e+01
  -1.017064e+02   5.173890e+01
  -8.563353e+01  -2.132270e+01
  -2.790086e+01  -1.356020e+02
   8.713142e+01  -1.498145e+02
   1.184643e+02   2.914312e+00
   2.774742e+01   1.302013e+02
  -9.637799e+01   5.064811e+01
  -7.054513e+01  -1.487320e+02
   4.597881e+01  -2.507635e+02
   1.996446e+02  -1.548031e+02
   2.684867e+02   4.734685e+01
   1.822423e+02   2.267552e+02
   2.262430e+01   1.951828e+02
  -1.889504e+02   1.418192e+02
  -1.195089e+02  -1.232018e+00
  -3.684237e+01  -7.871143e+01
   1.573570e+01   1.251252e+01
   3.465328e+01   4.733440e+01
  -1.166222e+02  -1.394544e+01
  -1.687904e+02   1.643376e+01
  -2.766804e+01  -1.386563e+01
   3.488003e+01  -4.722648e+01
   2.423522e+01   7.361754e+01
  -1.185619e+02   6.687448e+01
  -2.206833e+02   1.902193e+01
  -2.317823e+02  -1.488398e+02
  -3.647268e+01  -2.056042e+02
   1.589558e+02  -2.059677e+02
   2.023258e+02  -8.108174e+01
   7.890941e+01   1.695110e+01
   8.356286e+01   4.778529e+01
  -2.234244e+01  -2.053016e+01
   2.035992e+01  -1.622173e+01
   1.123251e+02  -5.297977e+01
   1.343521e+02   1.153721e+01
   9.621592e+01   1.485408e+02
  -5.891506e+01   1.374591e+02
  -9.521465e+01   7.308731e+00
  -6.262943e+01  -2.261201e+01
   2.098921e+01   1.626262e+01
   3.813420e+01   2.945497e+01
  -2.693417e+01   9.233061e+01
  -1.561350e+02   4.645576e+01
  -1.202072e+02  -8.148403e+01
  -5.559652e+01  -1.455499e+02
   8.421178e+01  -9.873202e+01
   1.562754e+02  -4.572160e+01
   4.560887e+01   5.048668e+01
  -7.508749e+00   6.360882e+01
  -7.450396e+01   5.952282e+01
  -1.235171e+01  -2.655179e+01
   8.313198e+00   8.629034e+00
  -4.142380e+01   3.148157e+01
  -7.288800e+01  -1.419618e+01
  -1.022937e+02  -8.626629e+01
   9.739927e-02  -1.246568e+02
   7.511176e+01  -1.692150e+02
   1.771415e+02  -7.245815e+00
   1.293787e+02   3.831997e+01
   1.071255e+02   1.704173e+02
  -6.055337e+01   1.573236e+02
  -1.097774e+02   4.383222e+01
  -7.004989e+01  -3.169007e+01
  -1.783697e+01  -4.463276e+01
  -2.745669e+01  -1.384256e+01
  -1.175885e+01  -9.101104e+00
  -5.020654e+01  -7.534406e+01
   4.381513e+01  -7.493913e+01
   9.857003e+01  -2.216244e+01
   7.503198e+01   5.720141e+01
   1.465078e+01   1.275951e+02
  -1.327811e+02   3.963751e+01
  -1.408015e+02  -4.480529e+01
  -4.043245e+01  -1.400985e+02
   8.345855e+01  -1.551620e+02
   1.674476e+02  -5.027164e+01
   1.460562e+02   3.036943e+01
   7.443109e+01   2.030291e+01
  -1.531256e+01   7.733380e+01
  -2.146915e+01   6.708419e+01
  -4.276855e+00   5.193101e+01
   9.236044e+00   5.858414e+01
  -3.634665e+01   4.722469e+01
  -7.085310e+01   5.044740e+01
  -1.069049e+02  -9.137171e+01
  -2.621754e+01  -1.762114e+02
   1.151182e+02  -1.460435e+02
   1.118855e+02  -3.116114e+01
   1.669141e+02   1.118888e+02
   1.188452e+01   1.275665e+02
  -4.454755e+01   5.875290e+01
   3.959696e+00  -6.952836e-01
   6.676430e+00  -2.141329e+01
   7.647243e+01  -2.118121e+01
   6.978276e+00   3.240627e+01
  -6.881849e+01  -7.302915e+00
  -2.231318e+01  -1.588258e+01
   6.843494e+00  -3.458334e+01
   1.111037e+02  -1.881624e+01
   8.669081e+01   5.328307e+01
  -2.665429e+01   5.084001e+01
  -8.671732e+01   3.791483e+01
  -8.887272e+01   5.785117e+01
  -7.104125e+00  -3.836624e+01
   3.986635e+01  -4.734990e+01
   4.497114e+01  -3.494182e+01
   3.198501e+01   4.850826e+01
  -6.513975e+01   3.969778e+01
  -2.511351e+01   7.455753e+00
  -7.498680e+01  -1.042330e+01
  -5.896261e+01  -1.813244e+01
  -3.588472e+01  -1.130221e+01
  -8.776141e+01  -8.619720e+00
  -4.032883e+01  -4.274854e+01
   7.417346e+00  -1.078385e+02
   1.326184e+02  -1.367179e+02
   1.182486e+02  -1.696883e+01
   8.034618e+01   4.732984e+01
  -1.287036e+01   1.009456e+02
  -8.811284e+01   4.256239e+01
  -3.890404e+01  -4.176877e+01
   1.037938e+02  -4.098271e+01
   9.499597e+01  -1.797159e+01
   5.775804e+01   1.095203e+02
  -4.518658e+01   9.562097e+01
  -1.217521e+02   4.638219e+01
  -7.435151e+01  -1.734532e+01
  -4.662727e+01  -2.793146e+01
   3.742319e+01  -2.114968e+01
   1.751883e+01   8.638373e+00
  -8.212248e-01  -4.385097e+00
  -5.256477e+01   1.489726e+01
  -5.823263e+01  -6.686895e+01
   2.520637e+01  -1.097107e+02
   1.642385e+02  -9.857365e+01
   1.108435e+02   4.800325e+01
   9.399481e+00   1.616903e+02
  -7.717735e+00   9.052612e+01
  -5.369793e+01   1.829242e+01
  -3.606279e+01  -3.275035e+01
  -4.988730e+00  -5.767260e+01
   5.087724e+00  -1.209835e+01
   2.356668e+01   3.372549e+01
  -2.379547e+00   6.974286e+00
   3.162761e+01  -4.852800e+01
   5.190971e+01   2.114911e+01
  -1.089399e+01   9.091536e+01
  -3.315589e+00   7.259059e+01
  -4.190266e+01   5.792539e+01
  -3.637982e+01  -2.947320e+01
  -6.191019e+01  -3.953637e+01
  -5.452135e+00  -3.002500e+01
   4.214233e+01  -2.984362e+01
   9.213693e+01   1.186307e+01
  -1.223454e+01   1.475545e+00
  -3.020986e+01   2.480026e+01
   1.167083e+01   2.139129e+01
   5.652297e+01  -2.179678e+01
  -2.542349e+01   2.748879e+01
  -7.007181e+01   3.455449e+00
  -9.923662e+01  -2.362965e+01
   7.854068e+00  -6.044793e+01
   5.618195e+01  -7.363272e+01
   1.313793e+02  -1.103533e+02
   1.081971e+02   2.433939e+01
   8.519669e+01   8.574567e+01
  -1.638382e+01   1.039610e+02
  -8.956721e+01   7.445578e+01
  -5.617511e+01   3.554560e+00
  -4.112388e+01  -4.063701e+01
  -6.329645e+00  -1.256611e+01
  -6.562766e+01   5.417674e+01
  -2.518258e+01  -5.554306e+01
  -6.448656e+00  -9.200570e+01
   6.747401e+01  -5.206635e+00
   8.042743e+01   6.233602e+01
   6.002664e+01   7.698761e+01
   1.493921e+01   1.291433e+02
  -7.378294e+01  -1.749298e+01
  -7.830147e+01  -2.859813e+01
  -2.613246e+01  -2.297046e+01
   1.828522e+01  -5.798696e+01
   4.044103e+01  -3.796215e+01
  -1.228150e+01   4.636060e+01
  -2.935182e+01   7.850528e+01
  -3.991390e+01  -9.206784e+00
   2.618083e+01  -6.441851e+01
   2.424993e+01   1.933123e+01
  -1.386631e+01   1.989576e+01
  -7.471457e+01   5.200525e+01
  -1.003462e+02   1.506198e+01
  -4.521502e+01  -1.218190e+01
   5.874398e+00  -6.826501e+01
   2.238144e+01  -3.110684e+01
   5.818883e+01  -6.973625e+00
  -1.177011e+01   3.655824e+01
  -2.590343e+01   6.104412e+01
   2.138010e+01   4.549326e+00
  -2.830836e+01   2.451957e+01
  -1.491657e+01  -3.143221e+01
   2.051211e+00  -3.416248e+01
   1.091675e+01   3.188210e+01
  -5.975768e+00   3.668614e+01
  -6.504245e+01  -2.889992e+01
  -1.983884e+01  -5.829187e+01
  -1.484610e+01   2.897842e+01
   2.000731e+01   3.584504e+01
  -4.958946e+01   2.969322e+01
  -5.845951e+01  -1.778745e+01
  -1.273098e+01  -4.265595e+01
   5.752474e+01  -4.852059e+01
   4.732765e+01  -4.711909e+01
   2.742727e+01   6.834731e+01
  -4.144530e+01   1.013813e+01
  -8.714025e+01   9.456960e+00
  -2.127326e+01  -1.159257e+01
   2.616536e+01  -1.239149e+01
   5.405311e+01  -5.272822e+01
   3.412853e+01  -4.451048e+01
  -3.930112e+01   2.027274e+01
  -5.870192e+01   2.305521e+01
  -8.610169e-01   3.768479e+00
   4.319577e+01  -6.271309e+00
