
 $NMID
 id='ANONYMOUS ', fmtdat='(2E16.6)'
 volume=1.0
 tramp=1.0
 $END
   3.930175e+02  -7.210429e+00
   6.399113e+01  -4.710865e+01
  -4.498987e-01  -3.070430e+01
  -3.094673e+01   6.417927e+01
   1.967848e+01  -5.447933e+01
   4.733617e+01   2.951473e+00
  -1.626767e+01  -2.041679e+01
  -1.261028e+01   1.285972e+00
  -1.726696e+01  -2.231030e+00
  -8.233051e+00   3.805878e+01
   4.796772e+01  -2.607083e+01
  -2.442861e+01  -8.630793e+00
  -7.334270e+00  -1.722273e+01
  -6.282624e+00   3.737217e+01
  -6.866617e+00  -4.916992e+00
   2.637540e+01   9.672886e+00
   1.848850e+01   1.176752e+01
   1.632203e+01  -4.768127e+00
  -3.666969e+01   1.715557e+01
   2.662056e+01   3.299369e+00
  -6.774595e+00  -4.104141e+00
  -6.741051e+00   2.113618e+00
  -1.232522e+01   1.091830e+00
   5.182145e+00  -1.285726e+01
   3.869905e+01   3.269332e+01
   9.414221e+00   7.485484e+00
  -1.966844e+00  -9.555011e+00
  -3.602020e+01  -3.249508e+01
   1.107292e+00   1.199719e+01
   1.627009e+01   1.616197e+01
   1.444382e+01   1.041641e+01
  -2.726214e+01  -1.324058e+01
  -4.194584e+00   8.754958e+00
   9.631101e+00   1.957676e+00
  -2.193830e+01   4.491425e+00
   6.374766e+00   3.663327e-01
  -9.477002e+00  -2.716428e+01
  -4.724279e+01  -3.116661e+01
   7.995684e+00   1.302199e+01
   1.076768e+01  -8.847556e+00
  -5.588087e+00  -1.837295e+01
  -3.066728e+01   1.584046e+01
  -9.989216e+00  -1.897257e+01
  -1.094835e+01   5.281822e+00
  -1.354798e+01  -1.257104e+01
   1.374127e+01   3.426032e+01
  -1.953156e+01   6.590462e+00
  -1.117445e+01   2.315133e+01
  -3.489456e+01   2.111296e+01
  -8.841105e+00   7.315123e+00
  -2.112218e-01  -2.491621e+01
   1.298373e+01  -3.595758e+01
   6.005482e+00   7.181890e+00
  -1.768442e+01   1.716584e+01
   2.767278e+01   1.290885e+01
  -1.706545e+00  -2.311772e+01
  -1.044064e+01  -2.402488e+01
   9.906477e+00   2.150977e+01
  -2.276630e+01   1.229573e+01
   2.369399e+00   1.477214e+01
  -1.805979e+01   4.729825e+00
  -5.811669e+00  -1.358108e+01
   1.356309e+01   2.980824e+00
  -6.450862e+01  -1.217427e+00
   2.787776e+01  -5.191087e-01
  -9.742082e-01  -3.859430e+00
   1.016213e+01  -2.027165e+01
  -1.736589e+01   2.214699e+01
   2.693414e+01   8.402767e+00
   1.164098e+01   3.429459e+01
  -1.214196e+01   2.158934e+01
   1.640142e+01  -2.238248e+01
   1.270985e+01   1.257912e+00
   2.876210e+00   1.743589e+01
   1.716283e+01   8.817023e+00
   1.588912e+01   1.704074e+01
  -1.227929e+01   3.620326e+01
  -1.515308e+01   7.004659e-01
   2.273166e+01  -1.738691e+01
  -3.390768e+00  -1.391939e+01
  -3.046807e+01  -2.536762e+01
   3.228224e+01  -2.833718e+01
  -3.308304e+01  -2.605787e+01
  -4.091053e-01   3.008791e+01
   6.228299e-01   2.538009e+01
   1.508600e+01  -2.606570e+01
  -8.446566e+00  -1.686878e+01
  -3.369280e+01  -3.655830e+01
  -1.233853e+01  -1.958962e+01
  -2.403209e+00   2.430468e+00
   2.198300e+01  -3.263986e+00
  -4.009686e+01   1.598991e+01
  -2.010612e+01   5.305901e+00
   1.973777e+00   2.930972e+01
   1.069165e+00   1.701870e+01
   5.100683e+00  -3.240765e+00
   3.666788e+00  -3.666385e+01
   7.573722e+00  -1.645431e+01
   1.347514e+01   2.748415e+00
   2.900758e+01  -1.760309e+01
   2.879081e+01   5.215794e+00
   1.422837e+01   3.842861e+01
  -2.024590e+01   3.472271e+01
  -4.838796e+01  -5.791233e+00
  -2.185905e+01  -1.853577e+01
  -2.371454e+01   2.140386e+01
  -1.062846e+01   1.535605e+01
   2.741560e+01   4.885311e+00
   2.595469e+01   1.937950e+01
   7.839491e+00  -2.440295e+00
   1.772224e+01  -2.108700e+01
   1.590480e+01   2.133346e+01
  -1.850767e+01  -2.709940e+01
  -1.774036e+01   8.945079e+00
  -2.405636e+00  -1.545616e+01
   3.278633e+01  -9.471062e+00
   2.150967e+01   4.060707e+00
  -3.229177e+01  -1.083235e+01
   2.563949e+01   4.084155e+01
   2.115638e+01  -1.156202e+00
  -1.760655e+01  -3.558527e+01
  -1.522384e+01   3.097159e+01
   2.167161e+01   3.187082e+01
   2.279688e+00   1.741809e+01
  -1.636617e+01  -1.683684e+01
  -1.299526e+01   1.191696e+01
  -2.927791e+01  -1.890853e+01
   2.024874e+01   2.553590e+01
   3.176687e+01   6.127704e+00
  -9.745933e+00  -8.134163e+00
  -8.920922e-01  -1.304673e+01
   1.747797e+01  -1.526149e+01
   2.658430e+01   4.029811e+00
   1.939694e+01   2.232127e+01
  -2.009151e+01  -2.466065e+01
   5.331989e+00   1.978157e+01
  -2.888735e+01  -1.391229e+00
  -2.979171e+01  -2.850861e+00
   4.513583e+00   8.871100e+00
  -2.687606e+01  -4.012262e+01
   1.797183e+01  -1.649033e+01
   2.225819e+01  -1.920780e+01
  -2.452583e+01  -1.043554e+01
   1.935841e+00   2.920033e+01
   5.089231e+00   7.993679e+00
   2.763049e+00  -9.733321e+00
   1.599585e+01  -1.156979e+01
   1.206313e+01   8.481425e+00
  -2.920632e+01   2.372675e+00
  -2.034000e+01  -1.192382e+01
  -1.282521e+01  -1.465401e+01
  -1.829533e+01   5.861398e+00
  -3.902634e+00  -2.821614e+00
   3.469869e+01   2.282305e+01
   1.484584e+01   1.416506e+01
   2.081159e+01   1.509013e+01
   9.109041e+00   7.508124e+00
   2.261125e+01  -2.340790e+01
  -2.552477e+01  -1.559437e+00
  -4.002577e+01  -2.027532e+01
  -1.453677e+01   9.871179e+00
  -9.983950e+00   1.189830e+01
  -2.470474e+00   1.558970e+01
  -1.412555e+01   1.316178e+01
  -1.804512e+01  -7.610311e+00
   5.129663e+01   2.710451e+00
  -2.333593e+01   8.312904e+00
  -6.221943e+00   2.934273e+01
  -2.224587e+01   1.646138e+00
   2.204983e+01  -3.275171e+01
  -7.372542e+00  -1.108017e+01
  -1.116713e+01  -2.270390e+00
   4.165258e+00  -2.930917e+01
  -3.027935e+01   1.535485e+01
   4.393685e+00   2.428660e+01
   1.965908e+01   5.354279e+00
   2.859004e+01   3.176443e+01
   5.203885e+00   1.472914e+01
   2.299271e+01  -4.537283e+01
  -1.014482e+01  -3.620137e+01
   5.953327e+01   1.170992e+01
   1.122939e+01   1.522498e+01
   1.285472e+00  -2.316566e+01
  -2.789724e+01  -1.953929e+00
   1.198810e+01  -1.079729e+01
  -1.433114e+01   2.104385e+01
  -1.354071e+01   2.904770e+00
  -2.778475e+00   2.172167e+01
  -1.013369e+00  -2.746704e+00
  -3.738415e+01  -2.047316e+01
   2.058531e+01  -2.668887e+01
  -3.005513e+01  -1.605186e+01
  -8.180858e+00  -1.174163e+01
   3.254108e+00   2.633962e+00
  -5.122820e+00  -6.526326e+00
  -3.410233e+01  -4.775134e+00
   2.470598e+01  -5.868464e+00
   2.810382e+01  -3.489205e+00
   2.262672e+01  -4.143734e+01
   3.365566e+01  -3.446977e+01
  -7.182648e-01   8.739067e+00
  -3.804595e+01   1.607856e+01
   3.223128e+01  -5.429280e+00
   8.504714e+00  -3.806909e+00
   2.530535e+01   2.254156e+01
  -1.766275e+01  -1.118068e+01
   1.370477e+01  -5.654262e+00
   2.513202e+01   3.790395e+00
  -2.479702e+01  -1.624476e-01
   3.189287e-02  -4.434212e+00
   4.775446e+01  -1.841397e+01
   1.212718e+01  -1.587016e+01
   9.680998e+00  -1.942011e+01
   3.003593e+01  -1.709285e+01
   1.226380e+01  -5.945320e+01
   1.838001e+01  -5.473535e+00
  -1.942981e+01   5.357902e-01
  -8.592984e+00   4.651707e+01
  -3.678893e+01   1.775462e+01
  -1.283546e+01   3.757782e+01
  -3.294920e+01   1.902960e+01
  -1.922845e+01  -3.239079e+01
  -2.628454e+01  -4.205107e+00
   2.931608e+01  -6.974263e-02
   3.273113e+00  -2.293406e+01
  -1.180792e+01  -4.400585e+01
  -1.104283e+01   7.595478e+00
  -1.366366e+00  -1.675680e+01
  -9.675896e+00   2.669006e+01
   6.304648e+00  -1.487803e+00
  -1.382248e+01   6.555674e+00
   2.002295e+01  -2.890948e+01
  -2.093555e+00   1.852060e+01
   4.669120e+00   2.148476e+01
   4.279234e+01   1.631956e+00
   1.679620e+00  -2.187127e+01
  -1.191889e+01  -4.721097e+00
  -1.712179e+01   9.376443e+00
   6.970109e+00   1.838248e+01
  -7.370097e+00   1.702923e+01
  -9.705026e+00  -8.796088e+00
  -4.255354e+01  -1.288569e+01
   1.727164e+01  -7.648134e-02
   2.262491e+01   1.688267e+01
  -3.066738e+01  -7.888277e+00
   6.298846e+00  -1.020374e+01
   1.159156e+01  -2.262398e+01
   8.598826e+00  -3.441361e+00
  -3.607047e+01  -2.305498e-01
   2.670745e+01  -1.701090e+01
   1.484303e+01   9.951339e+00
  -1.172680e+01  -3.293632e+00
  -1.577484e+01   7.762992e+00
   1.784746e+01   1.011353e+01
   1.641613e+01  -1.427345e+01
  -7.804912e+00  -9.676646e-01
  -5.370616e+00  -1.072752e+01
  -1.378193e+01  -1.620364e+01
   4.335511e+01   3.456854e+01
   1.489468e+01   5.164396e+00
   9.296425e+00  -3.358327e+01
   1.449051e+01  -1.299224e+00
   3.912670e+01   2.588248e+01
  -1.109242e+01  -1.761902e+00
  -2.222487e+01  -1.398948e+01
   6.568914e+00  -9.725181e+00
   1.025265e+01   4.458336e+00
   2.111666e+01   5.778051e+00
   4.144667e+00  -1.429992e+01
  -1.661664e+01   3.285736e+00
   2.223256e+01   2.752030e+01
  -2.201838e+01   1.522880e+01
   1.991264e+01  -1.808637e+01
   1.855240e+01  -1.565673e+00
  -5.648694e+00  -1.461114e+01
   3.238903e+00  -2.747909e+01
   7.852875e+00  -2.573243e+01
   2.157898e+01  -1.859268e+01
   4.618332e+00   1.564798e+01
   2.767848e+01  -1.771661e+01
   4.941040e-01  -1.177808e+01
  -1.548745e+01  -2.921993e+01
   2.469113e+01   2.976370e+01
   8.137970e+00   3.334761e+01
   3.055155e+01  -1.315943e+01
  -1.735048e+00  -1.667413e+00
  -7.199368e+00  -2.320168e+01
  -7.489051e+00   1.989862e+01
   4.463114e+00  -2.804579e+01
  -8.961651e+00  -2.124575e+01
  -2.684140e+01  -9.110758e+00
   2.008876e+00  -5.202761e+00
   1.683036e+01  -2.275117e+01
   1.593820e+01  -3.621224e-01
  -2.827807e+01   4.074521e+00
   1.619097e+01   1.415816e+01
   8.020768e+00   1.791881e+01
   9.836051e+00  -3.072546e+01
  -1.390145e+01  -1.137135e+01
  -1.145803e+00   6.178781e+00
   1.036013e+01  -1.472012e+01
  -4.259098e+00  -7.086907e+00
   1.475815e+01   3.314514e+01
  -1.176169e+01   8.525329e+00
   3.510397e+01   4.902951e+00
  -2.446833e+01  -4.101443e+01
   1.184395e+01   1.186739e+01
   4.420435e+00   2.788970e+01
   3.070603e+00  -4.679222e+00
   3.203820e+01   1.270463e+00
  -3.332447e+01   8.909020e-01
  -3.035886e+01   1.176083e+01
   1.521725e+01  -7.737566e+00
   2.021000e+01   1.349119e+01
  -1.010857e+01   3.349090e+01
  -2.541864e+01   3.901294e+01
   1.345118e+01  -1.027600e+01
   3.611765e+00   2.157385e+01
   9.533463e+00  -1.563651e+01
   2.430659e+00   2.449751e+00
