
 $NMID
 id='ANONYMOUS ', fmtdat='(2E16.6)'
 volume=1.0
 tramp=1.0
 $END
  -4.195161e+03  -6.854917e+01
  -2.564389e+03  -2.324203e+03
   3.487422e+02  -2.563873e+03
   1.883519e+03  -1.265789e+03
   1.005512e+03   4.077325e+02
  -2.898514e+02   5.034373e+02
  -6.957780e+02  -1.984547e+02
  -9.298289e+01  -8.721081e+02
   6.201585e+02  -6.910998e+02
   8.267193e+02  -3.981806e+01
   3.846134e+02   6.901645e+02
  -6.793832e+01   8.848777e+02
  -5.386371e+02   1.526838e+02
  -3.806515e+02  -5.720536e+02
   1.323615e+02  -6.961033e+02
   5.363635e+02   2.847840e+01
   3.322410e+02   5.728036e+02
  -2.864383e+02   6.585736e+02
  -5.781736e+02   1.981286e+02
  -4.402452e+02  -3.535754e+02
  -8.549790e+01  -4.745976e+02
   2.333860e+02  -2.856665e+02
   2.001084e+02   6.899362e+01
  -1.852411e+02  -2.798531e+01
  -3.946004e+02  -1.983828e+02
  -1.373543e+02  -4.041511e+02
   4.773989e+02  -3.745839e+02
   7.387234e+02   4.680625e+01
   3.651489e+02   4.741478e+02
  -4.044598e+02   3.850322e+02
  -6.537607e+02  -3.005004e+01
  -3.003508e+02  -3.976208e+02
   2.300290e+02  -5.438454e+02
   5.406634e+02  -1.906714e+02
   3.795851e+02   1.730712e+02
   1.294754e+02   4.346854e+02
  -1.846674e+02   2.728217e+02
  -1.280712e+02  -2.246465e+02
   1.085958e+02  -3.593216e+02
   3.093144e+02   7.789221e+01
   1.342395e+02   6.513327e+02
  -2.683262e+02   5.740478e+02
  -4.884835e+02   9.577028e-01
  -1.372735e+02  -4.666814e+02
   2.351800e+02  -2.761802e+02
   2.637812e+02   3.520156e+02
  -1.073347e+02   5.314250e+02
  -5.598815e+02   1.263476e+02
  -5.968943e+02  -3.608904e+02
  -2.335817e+02  -5.558946e+02
   2.967820e+02  -3.927467e+02
   5.968869e+02   3.060817e+01
   3.594839e+02   2.740794e+02
  -9.391984e+01   3.071636e+02
  -3.809464e+02   9.362592e+01
  -1.899497e+02  -1.387607e+02
   1.189225e+02  -5.281132e+01
   6.020299e+01   1.201452e+02
  -1.301202e+02   1.394143e+02
  -3.137263e+02  -4.992476e+01
  -1.754609e+02  -3.123858e+02
   1.969863e+02  -2.655754e+02
   3.491555e+02  -1.100490e+02
   2.519981e+02   1.041188e+02
   8.300291e+00   2.775188e+02
  -2.272095e+02   3.350975e+02
  -3.435743e+02   1.667772e+02
  -2.854638e+02  -1.644908e+02
  -6.571951e+01  -4.193366e+02
   1.064144e+02  -3.587467e+02
   3.912876e+01  -1.447592e+02
   2.919666e+01  -9.107228e+01
   1.172011e+02  -8.254601e+01
   2.185641e+02  -8.094527e+01
   2.958585e+02   1.054079e+02
   1.433046e+02   2.568746e+02
  -5.249642e+01   2.748542e+02
  -2.010818e+02   3.081634e+01
  -2.019167e+02  -2.032736e+02
  -3.132320e+01  -2.982790e+02
   2.176272e+02  -1.245230e+02
   3.593885e+02   1.390373e+02
   2.026502e+02   3.257146e+02
  -2.949391e+01   2.593671e+02
  -1.961817e+02   1.393417e+02
  -1.920185e+02  -2.899667e+01
  -1.115842e+02   6.923342e+01
  -2.145296e+02   7.686264e+01
  -3.979158e+02  -2.466285e+01
  -2.807550e+02  -2.372299e+02
   1.647957e+01  -4.681609e+02
   3.760346e+02  -4.291081e+02
   4.855980e+02  -1.678152e+02
   3.233813e+02   1.257355e+02
   5.470235e+01   3.006914e+02
  -7.030194e+01   2.232208e+02
  -2.310429e+01   6.104605e+01
   8.905223e+01  -6.543062e+01
   1.576439e+02   1.141408e+01
   1.180489e+02   1.566114e+02
  -1.246606e+02   1.323307e+02
  -2.020887e+02  -1.078352e+02
  -7.719802e+00  -1.430466e+02
   1.770045e+02   2.099062e+01
   2.197172e+02   2.143980e+02
  -9.201366e+00   3.661325e+02
  -2.036937e+02   2.073022e+02
  -3.461901e+02  -8.742920e+01
  -2.329835e+02  -2.519850e+02
  -1.078502e+02  -2.732623e+02
   1.784543e+02  -1.703354e+02
   1.577141e+02  -4.338514e+01
   6.060673e+01   1.431501e+01
  -2.492074e+01  -3.880783e+01
  -3.203215e+01  -1.162676e+02
   8.730078e+01  -6.546875e+01
   1.841548e+02   5.373757e+01
   6.598559e+01   8.051416e+01
  -9.602502e+01   4.349527e+01
  -5.316659e+01  -8.370499e+01
   1.550050e+02  -1.319680e+02
   2.850770e+02  -2.006410e+01
   2.167767e+02   1.317638e+02
  -1.045536e+01   2.473485e+02
  -1.734795e+02   2.740430e+02
  -2.310654e+02   1.322233e+02
  -1.873308e+02  -3.994854e+01
   3.523146e+01  -9.088979e+01
   9.367063e+01  -2.685092e+01
  -2.574923e+00   4.208663e+01
  -1.963549e+02   5.420652e+01
  -2.042382e+02  -6.820869e+01
  -5.734166e+01  -1.488424e+02
   1.086934e+02  -8.226625e+01
   1.709816e+02   8.688771e+00
   1.872337e+01   2.663736e+01
  -2.644256e+01   6.110767e+01
  -6.160374e+01  -1.070328e+02
   3.753762e+01  -1.094610e+02
   2.215026e+02  -2.305427e+01
   1.919621e+02   1.622487e+02
  -1.234382e+01   2.202999e+02
  -1.656901e+02   1.628369e+02
  -1.742918e+02  -2.252512e+01
  -5.964780e+01  -1.201429e+02
   4.850324e+01  -1.187238e+02
   1.172998e+02  -2.966325e+01
  -3.178053e+01   2.675015e+01
  -5.929563e+01  -2.395082e+00
  -1.666056e+00  -4.390056e+01
   9.989526e+01  -3.070359e-01
   1.110129e+02   6.453374e+01
   5.745179e+01   1.571413e+02
  -9.498841e+01   1.473953e+02
  -2.062071e+02   1.940961e+01
  -1.873079e+02  -1.280314e+02
  -9.384428e+01  -2.824614e+02
   7.954513e+01  -2.048743e+02
   1.183498e+02  -1.424341e+01
   1.097306e+02   4.553980e+01
   3.117200e+01   7.300671e+01
   9.677126e+01  -2.619020e+01
   6.103645e+01  -9.440026e+00
   4.606809e+01   2.989902e+01
  -3.126372e+01   8.139769e+01
  -1.710030e+02   9.820230e+01
  -1.023001e+02  -1.202566e+01
   1.527042e+00  -1.503871e+02
   1.411744e+02  -1.203466e+02
   2.130093e+02   8.242876e+01
   9.472051e+01   2.065032e+02
  -1.231548e+02   1.876631e+02
  -2.504798e+02   3.993887e+01
  -3.165209e+02  -1.136780e+02
  -8.715791e+01  -2.055686e+02
  -1.956472e+01  -1.329172e+02
   6.872527e+01  -9.194605e+01
   6.157947e+01  -3.652389e+01
   5.761791e+01  -4.937675e+01
   1.008030e+02  -9.181948e+01
   1.316426e+02  -5.510371e+00
   1.423454e+02   1.809391e+02
   1.355124e+01   2.747838e+02
  -6.026630e+01   1.813755e+02
  -2.021042e+02   1.270084e+01
  -1.665404e+02  -1.345230e+02
  -2.179778e+01  -1.883732e+02
   5.053438e+01  -9.158070e+01
   5.583494e+01  -2.112044e+01
  -1.466288e+01   2.894668e+01
  -4.194313e+01   7.100870e+01
   2.730277e+01   5.374383e+01
   8.771851e+01   5.662133e+01
   8.504229e+00   4.379914e+01
  -2.479329e+01   2.915955e+01
  -1.787818e+02   4.180021e+01
  -1.565681e+02  -2.816909e+01
  -4.385723e+00  -9.883333e+01
   7.939250e+01  -1.039344e+02
   1.331281e+02  -2.305252e+01
   6.311575e+01   1.423500e+01
  -1.509245e+01   5.574819e+01
  -6.822599e+01  -1.867795e+01
   3.634063e+01  -7.359159e+01
   2.223416e+01  -8.811513e+01
   2.383459e+01  -1.022509e+01
   6.022058e+01   6.109901e+01
   4.360839e+01   8.909463e+01
   6.667434e+01  -1.909397e+01
   5.769763e+01  -1.786958e+01
   7.149776e+01   8.591957e+01
   2.650424e+01   1.808978e+02
  -8.583924e+01   1.740403e+02
  -1.750265e+02   9.494981e+01
  -1.455110e+02  -1.130145e+02
  -3.742059e+01  -1.078658e+02
   1.063293e+02  -4.413936e+01
   7.043635e+01  -2.822286e+01
  -8.103135e+01   4.839042e+01
  -1.415026e+02  -3.592150e+01
  -9.354285e+01  -1.025468e+02
   5.542910e+01  -1.351446e+02
   1.974533e+02  -1.133235e+02
   1.284552e+02  -1.396286e+01
   6.841001e+01   1.164972e+02
  -6.780064e+01   9.258883e+01
  -4.542443e+01  -3.583067e+01
   3.883599e+01  -4.106983e+01
   5.649606e+01   3.733392e+01
   5.259011e+01   1.116441e+02
  -9.457317e+01   1.144528e+02
  -1.332051e+02   3.411972e-02
  -9.780706e+01  -1.128494e+02
   2.554080e+01  -1.515481e+02
   5.809965e+01  -1.069115e+02
   1.275793e+02   2.851589e+01
   6.867733e+01   1.014953e+02
  -3.630087e+01   1.007256e+02
  -5.020862e+01   1.944171e+00
  -4.833990e+01  -1.845837e+01
  -4.231440e+01   2.976093e+01
   2.245033e+01  -1.498302e+01
  -6.939524e+01  -6.985067e+00
  -5.527940e+01  -8.961722e+01
  -7.361656e+01  -8.156983e+01
   4.933185e+01  -6.025984e+00
   9.425772e+01   5.568628e+01
   1.480749e+02   5.828316e+01
   2.550384e+01   1.117819e+02
  -4.234799e+01   2.368062e+01
  -4.478971e+01   3.348697e+01
   5.566010e+01  -5.117260e+01
   3.949754e+01  -1.401017e+01
  -1.100392e+01  -3.146853e+01
   1.778981e+01   1.142701e+01
  -1.082601e+01  -2.051727e-01
   6.240881e+01  -5.460866e+01
   7.995602e+01   1.825908e+01
   1.296825e+01   3.559300e+01
  -9.343026e+01   1.361102e+02
  -1.711022e+02   4.353084e+01
  -1.160278e+02  -1.947583e+01
  -2.557238e+01  -1.255743e+02
   4.497749e+01  -1.563162e+02
   1.134973e+02  -1.351937e+01
   8.623000e+01   4.577252e+01
   4.895304e+01   3.804511e+01
   2.390022e+01  -1.284953e+01
   1.425915e+01  -5.299975e+00
   3.441017e+01   3.027096e+01
   4.281485e+01   7.634613e+01
  -3.782653e+01   8.261299e+01
  -1.448112e+02  -6.239056e+00
  -1.007448e+02  -1.299413e+02
  -6.687078e+01  -9.650260e+01
   4.197623e+01  -8.174825e+01
   9.230722e+01   6.384932e+01
   1.590772e+01   9.370824e+01
  -7.905934e+01   5.251986e+01
  -9.917562e+01  -3.530190e+01
  -1.291000e+01  -2.101981e+01
   7.505510e+01  -1.026291e+02
   7.114470e+01  -2.539533e+00
  -1.003834e+01   2.770554e+00
  -6.596873e+01   6.296986e+01
  -3.352643e+01  -4.907420e+01
   6.256550e+01  -6.866384e+01
   1.077727e+02  -6.691965e+01
   6.207253e+01   4.419133e+01
  -1.992671e+01   7.528879e+01
  -6.154791e+01   9.822476e+01
  -4.823638e+01  -7.308310e+00
  -5.943353e+01  -6.962996e+01
   6.135014e+00  -4.818198e+01
   6.817543e+01   1.488543e+01
   3.925051e+01   4.701375e+01
   2.267244e+00   2.398168e+01
  -2.617109e+01   4.557995e+00
  -4.873534e+01   4.416028e+01
   2.606580e+01   1.435723e+01
  -2.705229e+00   1.064624e+01
   1.471047e+01  -3.487913e+01
   1.040315e+01  -1.451571e+01
  -1.491143e+01  -3.037051e+01
   5.537736e+01  -4.299831e+01
   9.584572e+01   4.672616e+01
   2.537255e+01   5.447940e+01
  -6.645271e+00   3.225374e+01
  -7.592331e+01   1.839461e+01
   7.433893e+00  -9.739398e+01
   2.429798e+01  -8.623416e+01
   6.001279e+01   1.952826e+01
   3.359054e+01   6.574531e+01
  -1.268290e+01   6.642999e+01
  -6.783592e+01   1.435485e+00
  -2.568838e+01  -2.562531e+01
  -1.278599e+01  -3.382762e+01
   1.853280e+01   3.579636e+01
  -6.607353e-01   2.312920e+00
  -6.494017e+01   3.440379e+01
