
 $NMID
 id='ANONYMOUS ', fmtdat='(2E16.6)'
 volume=1.0
 tramp=1.0
 $END
  -2.986893e+03   1.679290e+02
  -2.025024e+03  -1.283498e+03
  -7.638036e+01  -1.890529e+03
   1.013296e+03  -1.206096e+03
   8.947509e+02  -3.395698e+02
   1.075279e+02   1.764507e+02
  -4.170993e+02  -3.198525e+01
  -1.128605e+02  -4.586672e+02
   2.793944e+02  -5.771022e+02
   3.872749e+02  -1.211459e+02
   4.527738e+02   3.200237e+02
  -1.300178e+00   6.753259e+02
  -2.710356e+02   2.237103e+02
  -2.668760e+02  -4.231124e+02
   6.144746e+01  -4.582657e+02
   3.698302e+02  -6.882447e+01
   3.004113e+02   3.703642e+02
  -3.772232e+00   5.480698e+02
  -4.136241e+02   3.371999e+02
  -3.731788e+02  -1.218487e+02
  -6.664790e+01  -2.694112e+02
   8.296395e+01  -1.623469e+02
   4.549240e+01  -3.460971e+01
  -1.587970e+02  -4.523186e+01
  -2.730404e+02  -2.460584e+02
  -3.112699e+01  -2.404000e+02
   3.319248e+02  -1.595805e+02
   4.285489e+02   9.435467e+01
   2.425976e+02   2.103153e+02
  -2.387246e+02   1.145649e+02
  -4.090718e+02  -1.215436e+02
  -1.353212e+02  -3.180881e+02
   2.301133e+02  -2.757311e+02
   3.980854e+02  -7.766457e+01
   2.734506e+02   9.297308e+01
   1.174432e+02   2.195616e+02
  -1.276393e+01   1.375879e+02
   8.882285e+00  -6.367201e+01
   1.110156e+02  -1.371637e+02
   1.496959e+02   1.064683e+02
   4.482538e+01   3.743611e+02
  -1.995523e+02   3.755161e+02
  -3.253038e+02   3.171352e+01
  -1.565786e+02  -2.633866e+02
   9.379584e+01  -1.417554e+02
   1.131056e+02   2.127892e+02
  -9.013673e+01   2.929254e+02
  -3.740730e+02   4.720180e+01
  -4.453894e+02  -2.639198e+02
  -1.683371e+02  -4.381413e+02
   2.984207e+02  -2.201920e+02
   4.054295e+02   5.020069e+00
   3.144599e+02   1.711353e+02
  -5.890668e+01   2.093034e+02
  -2.972455e+02   1.134755e+02
  -2.252441e+02  -4.120099e+01
  -2.538903e+00  -3.161418e+01
   5.312175e+01  -4.375589e+00
  -5.031934e+01   2.796045e+01
  -2.067229e+02  -9.419599e+00
  -1.212059e+02  -1.709611e+02
   1.559344e+02  -2.528042e+02
   3.535352e+02  -1.674449e+02
   2.499642e+02   1.095404e+02
  -1.780503e+01   3.235442e+02
  -2.377226e+02   3.007213e+02
  -2.819229e+02   1.654429e+02
  -2.109219e+02  -1.092812e+02
  -8.760487e+01  -3.386718e+02
   3.968629e+01  -3.171221e+02
   4.164577e+01  -8.822547e+01
   4.044252e+01  -6.815084e+01
   1.103859e+02  -1.500993e+02
   1.826952e+02  -6.206016e+01
   1.997219e+02   4.783488e+01
   1.773922e+02   1.563731e+02
  -1.041800e+02   1.819271e+02
  -1.181884e+02  -2.999471e+00
  -1.208592e+02  -1.403349e+02
  -4.481992e+00  -2.695902e+02
   1.909719e+02  -1.043816e+02
   2.990951e+02   1.309997e+02
   1.347730e+02   2.261608e+02
  -5.722203e+00   2.727806e+02
  -1.043004e+02   1.367268e+02
  -1.490952e+02   6.398159e+01
  -1.348719e+02   2.575712e+01
  -2.568818e+02   4.959265e+01
  -3.230307e+02  -7.792091e+01
  -2.257421e+02  -2.482846e+02
   3.589948e+01  -3.728996e+02
   3.100229e+02  -3.018896e+02
   3.900648e+02  -1.419567e+02
   2.055184e+02   7.093785e+01
   7.339738e+01   1.759189e+02
  -1.406958e+02   2.007037e+02
  -7.373124e+01  -1.111694e+01
   3.665469e+01  -4.058001e+01
   8.870753e+01   2.488759e+01
   1.006228e+01   7.079778e+01
  -8.936652e+01   8.997969e+01
  -1.553189e+02  -7.816994e+01
   1.433412e+01  -1.137562e+02
   1.199420e+02   9.030336e-02
   1.225829e+02   2.150631e+02
  -3.283691e+01   2.454981e+02
  -1.709402e+02   1.758603e+02
  -2.965103e+02  -3.537179e+01
  -2.514776e+02  -2.114576e+02
  -5.776327e+01  -2.393786e+02
   1.355114e+02  -6.619259e+01
   8.943691e+01   2.912809e+01
  -2.002267e+01   4.053667e+01
  -3.796092e+01  -5.587168e-01
  -4.673432e+01  -1.128037e+02
   8.466992e+01  -8.947571e+01
   9.952957e+01  -1.014188e+01
  -2.657832e+01   3.085937e+01
  -3.446430e+01  -4.475876e+01
  -9.234210e+00  -8.138936e+01
   1.504631e+02  -9.553045e+01
   2.583755e+02   2.909694e+01
   2.442345e+02   1.543702e+02
   4.705556e+01   2.082716e+02
  -1.885378e+02   2.160477e+02
  -2.028053e+02   1.171949e+02
  -5.415089e+01  -6.309153e+01
  -2.729554e+01  -2.917555e+01
   2.292508e+01  -3.289357e+01
  -6.003096e+01   8.645620e+00
  -1.463566e+02   4.594721e+01
  -1.900050e+02  -1.310869e+02
  -1.475230e+01  -1.011967e+02
   7.349985e+01  -6.108787e+01
   4.362705e+01  -2.215086e+01
   8.317368e+01   1.867449e+01
   3.700990e+01  -2.202926e+01
  -1.704792e+01  -9.224590e+01
   1.148948e+02  -8.279750e+01
   1.956531e+02   2.511196e+01
   1.123064e+02   1.078417e+02
  -9.496030e+00   1.915142e+02
  -8.201022e+01   1.413760e+02
  -1.333938e+02   1.746093e+01
  -3.521112e+01  -5.386499e+01
   6.147203e+01  -8.838720e+01
   3.448543e+01   5.397139e+00
  -1.774129e+01   2.023758e+01
  -3.497467e+01   5.579366e+01
   3.950618e+01  -1.925620e+00
   4.863191e+01   3.692435e+00
   4.146405e+01   9.970364e+01
  -5.458832e+01   1.685162e+02
  -1.347396e+02   1.075434e+02
  -2.257965e+02   2.954237e+01
  -2.017361e+02  -1.093875e+02
   2.485443e+01  -1.760588e+02
   8.959397e+01  -1.116254e+02
   8.351195e+01  -6.513696e+01
   6.558442e+01  -4.094146e+01
   1.342802e+01   6.616842e+01
   1.876851e+01  -1.406099e+01
   6.809591e+01   4.117382e+01
   4.915793e+01   7.408821e+01
  -2.485623e+01   1.151800e+02
  -3.820414e+01   7.556304e+01
  -1.075059e+02   6.338733e+00
   5.842432e+01  -7.116286e+01
   9.544449e+01  -8.678809e+01
   1.545909e+02   9.378917e+01
   4.886824e+01   1.761732e+02
  -1.497455e+02   2.074782e+02
  -1.669773e+02  -1.573135e+01
  -1.835994e+02  -4.849344e+01
  -8.571165e+01  -1.928024e+02
  -1.671594e+00  -9.248341e+01
   1.060842e+02  -8.160763e+01
   4.414982e+01  -9.479513e+01
   5.726925e+01  -6.279570e+01
   7.441938e+01  -9.612556e+01
   1.365735e+02   4.776266e+01
   1.117921e+02   1.244517e+02
   5.943919e+01   2.270236e+02
  -3.333003e+01   1.394846e+02
  -1.646965e+02  -4.567284e+00
  -8.373290e+01  -9.118317e+01
  -2.257442e+01  -9.206876e+01
   6.747141e+01  -1.112034e+02
   7.366928e+01  -2.347757e+01
   2.039404e+01   7.709515e+01
  -4.823703e-02   2.612256e+01
   3.337737e+01   3.633487e+01
   6.568065e+01   4.752523e+01
   7.266172e+01   6.429461e+01
  -8.356902e+01   2.239315e+01
  -1.261597e+02   2.683381e+01
  -8.871808e+01  -8.039608e+00
  -5.588455e+00  -6.356926e+01
   1.842504e+01  -6.107200e+01
   1.129063e+02  -3.436996e+01
   3.703397e+01  -2.197920e+01
  -3.824634e+01   7.914318e+01
  -4.974612e+01  -4.795684e+00
  -3.304827e+01  -7.835166e+01
   2.631106e+01  -7.674898e+01
   4.158685e+01   1.082816e+01
   1.220722e+02   1.694505e+01
   7.850501e+01   5.646478e+00
   8.815759e+01  -7.522649e+00
   6.086179e+01   1.135254e+01
   2.319506e+01   8.114406e+01
  -7.997377e+01   9.751473e+01
  -8.220326e+01   1.388467e+02
  -8.866838e+01   2.925163e+01
  -1.208608e+02  -8.233500e+01
   9.695413e+00  -1.041157e+02
   3.283543e+01  -1.046175e+02
   5.128187e+01   8.397524e+00
  -2.497863e+01  -4.024949e-02
  -1.321021e+02   5.913796e+00
  -1.272166e+02  -7.582537e+01
   5.168961e+01  -8.051568e+01
   2.034065e+02  -5.886621e+01
   1.131620e+02  -3.682078e+01
   6.702067e+00   6.295633e+01
  -2.402423e+01   1.167850e+01
  -7.223816e+01  -6.244564e-01
   4.916355e+01  -1.494622e+01
   3.408397e+01  -2.695151e+00
   2.880452e+01   8.267526e+01
   4.326463e+00   1.096595e+02
  -8.889300e+01   7.064841e+01
  -9.275564e+01  -5.566246e+01
  -3.487397e+01  -1.444280e+02
   5.070986e+01  -1.129356e+02
   7.328098e+01   3.603610e+00
   5.285438e+01   9.168841e+01
  -1.011867e+01   7.249322e+01
  -7.535918e+01   5.234375e+00
  -6.428893e+01  -4.905644e+01
  -1.548300e+01   3.044240e+01
   1.107243e+01  -2.715218e+01
  -3.924748e+01   6.213580e+00
  -3.691923e+01  -1.083823e+02
  -2.051090e+01  -8.386901e+01
   1.673573e+01  -7.756672e+01
   9.497912e+01   3.293618e+01
   1.006294e+02   9.691211e+01
  -2.393414e+01   7.959900e+01
  -4.564196e+01  -1.560077e+01
  -3.811915e+01  -1.998418e+01
  -3.684310e+01  -2.004750e+00
   2.191954e+01   1.098770e+01
  -2.289134e+01   1.516271e+01
  -2.698591e+01   1.625574e+01
  -1.359470e+01   3.577187e+01
   5.264476e+01  -1.532640e+01
   5.991025e+01   9.295742e+00
   6.157296e+01   3.543200e+01
  -4.300149e+01   1.112271e+02
  -1.587260e+02   5.991062e+01
  -1.126577e+02  -1.734601e+01
   4.435897e+01  -1.072988e+02
   3.516899e+01  -1.014931e+02
   1.309718e+02  -4.795224e+01
   6.253955e+01   2.867638e+01
   8.043033e+01   3.401412e+01
   7.000055e-01   1.814519e+01
   1.517704e+01   3.240931e+01
   2.204455e+01   1.984896e+01
  -4.099612e+01   7.292925e+01
  -8.545394e+00   5.651217e+01
  -2.586248e+01  -3.350938e+00
  -4.495256e+01  -1.101212e+02
  -4.785563e+00  -1.089428e+02
   7.597525e+01  -3.888412e+01
   8.461535e+01   2.460571e+01
   3.287661e+01   8.066942e+01
  -6.070791e+01   7.649344e+01
  -4.252727e+01  -2.057072e-01
  -1.661394e+01  -4.488843e+01
   3.424773e+00  -2.832869e+01
  -1.412131e+01  -3.250290e+01
  -1.500974e+01  -7.544553e+00
  -4.264039e+01   5.793552e+01
  -1.194785e+01   3.874003e+01
   2.252746e+01  -5.763371e+01
   6.110311e+01  -6.247257e+01
   5.065249e+01   3.659095e+01
   8.572097e+00   3.887517e+01
  -4.237289e+01   8.404980e+01
  -2.262729e+01   1.156699e+00
   7.699561e+00  -1.589479e+01
  -1.941790e+01  -5.357191e+00
   1.411213e+01   3.633242e+01
  -1.692093e+01   1.159197e+01
   7.220666e+01   2.005380e+01
  -1.825731e+01   6.080576e+01
   3.506817e+00   1.489275e+00
  -2.230019e+01   2.840462e+01
  -5.544196e+01  -4.830586e+01
   5.953984e+00  -3.009611e+01
  -4.547227e+00  -3.793907e+01
   5.442875e+00  -3.541859e+01
   2.411105e+01  -1.206862e+01
   1.768981e+01   7.392523e+01
  -2.641735e+01   2.401450e+01
  -2.003051e+01   3.366974e+01
  -5.372680e+00  -2.881371e+01
  -4.005289e+00  -4.114952e+01
   3.835024e+01  -5.489638e+01
   9.874488e+00   2.885725e+01
   3.328178e+01   3.926245e+01
  -1.730810e+01   2.213215e+01
  -8.493034e+01  -3.685213e+00
   2.416426e+00  -1.899068e+01
   4.051452e+01   3.103459e+00
   5.136444e+01   7.243799e+00
  -4.732656e+01   2.741645e+01
  -8.811878e+01   1.600161e+01
