
 $NMID
 id='ANONYMOUS ', fmtdat='(2E16.6)'
 volume=1.0
 tramp=1.0
 $END
  -2.816716e+03   8.028860e+01
  -2.103485e+03  -1.366932e+03
  -1.953498e+02  -1.797677e+03
   1.023903e+03  -1.286332e+03
   9.344077e+02  -3.439433e+02
   9.332239e+01   1.690168e+02
  -3.849494e+02   3.248930e+01
  -4.568542e+01  -3.643848e+02
   3.531737e+02  -5.689679e+02
   6.172695e+02  -1.930331e+02
   4.512631e+02   4.306477e+02
   3.166250e+01   6.276863e+02
  -2.166659e+02   2.802289e+02
  -3.374000e+02  -3.613766e+02
  -1.773650e+01  -5.077131e+02
   3.725332e+02  -1.632187e+02
   3.325033e+02   3.609195e+02
  -5.305593e+01   5.776670e+02
  -4.118087e+02   3.128071e+02
  -4.704427e+02  -2.419518e+01
  -1.106121e+02  -2.912492e+02
   8.998931e+01  -2.884066e+02
   1.568300e+01  -1.031953e+02
  -2.198569e+02  -1.249894e+02
  -2.610210e+02  -2.608408e+02
   4.919786e+01  -2.910646e+02
   4.915298e+02  -8.912002e+01
   5.158988e+02   2.096588e+02
   1.592619e+02   3.445784e+02
  -2.062848e+02   1.126762e+02
  -3.985449e+02  -1.145690e+02
  -1.960882e+02  -3.159211e+02
   1.652646e+02  -3.099131e+02
   3.380297e+02  -1.686050e+02
   2.914425e+02   1.417650e+02
   6.113949e+01   2.445954e+02
  -4.271008e+01   1.648992e+02
   9.377191e+01  -5.745848e+01
   1.545690e+02  -1.460328e+02
   1.912113e+02   7.101040e+01
  -5.654118e+01   4.302412e+02
  -1.913209e+02   3.970247e+02
  -2.508207e+02   5.525195e+01
  -9.807855e+01  -2.628582e+02
   8.635470e+01  -1.249815e+02
   1.478290e+02   2.189879e+02
  -4.720100e+01   2.835675e+02
  -3.398611e+02  -1.197785e+01
  -3.960826e+02  -3.134110e+02
  -2.474787e+02  -4.380226e+02
   2.844320e+02  -2.193112e+02
   4.914832e+02   2.318692e+01
   3.816698e+02   1.627901e+02
  -1.642021e+01   1.915345e+02
  -2.319598e+02   8.424663e+01
  -1.735641e+02  -1.498540e+01
  -4.588378e+01   2.351551e+01
   1.726654e+01   1.607589e+01
  -4.682074e+01   3.424463e+01
  -1.542166e+02  -7.002865e+01
  -1.209216e+02  -2.020102e+02
   1.455312e+02  -2.222709e+02
   3.186177e+02  -1.167254e+02
   2.512293e+02   1.310186e+02
  -3.840372e+01   4.057111e+02
  -3.267099e+02   3.862027e+02
  -3.177956e+02   1.765992e+02
  -1.923228e+02  -1.517089e+02
  -3.635842e+01  -3.485459e+02
   4.360151e+01  -2.879780e+02
   5.934602e-01  -1.593335e+02
   6.965574e+01  -1.141338e+02
   1.965841e+02  -6.934324e+01
   2.304935e+02  -4.927602e+01
   1.996476e+02   1.728847e+02
   2.736321e+01   2.477539e+02
  -9.001603e+01   2.056175e+02
  -2.171582e+02  -6.375404e+01
  -1.303433e+02  -2.837247e+02
   7.005886e+01  -3.102303e+02
   2.392161e+02  -6.446509e+01
   2.836013e+02   2.096618e+02
   1.841986e+02   2.733455e+02
  -1.997414e+01   2.856598e+02
  -1.354013e+02   1.463294e+02
  -1.960116e+02   6.898735e+01
  -1.945132e+02   1.193136e+02
  -2.602961e+02   1.798409e+01
  -3.816403e+02  -9.288606e+01
  -2.842928e+02  -3.126811e+02
   1.856132e+01  -4.283485e+02
   3.216073e+02  -4.067024e+02
   4.591909e+02  -1.472913e+02
   2.925503e+02   6.601053e+01
  -2.915522e+01   2.219604e+02
  -5.380296e+01   1.850990e+02
  -3.033339e+01   3.942997e+01
   1.044601e+02  -3.116724e+01
   1.070960e+02   5.669006e+01
   3.411453e+01   1.343543e+02
  -8.325088e+01   8.099159e+01
  -8.316832e+01  -3.037731e+01
   4.145844e+01  -1.197379e+02
   1.398196e+02  -1.851762e+01
   1.474692e+02   2.287570e+02
  -5.922054e+01   3.151478e+02
  -1.972229e+02   1.951208e+02
  -3.558379e+02  -9.826583e+00
  -2.372366e+02  -2.730900e+02
  -5.026089e+01  -2.982738e+02
   9.991739e+01  -1.420297e+02
   1.677851e+02   1.239860e+01
   2.932820e+01   5.174259e+01
  -4.729348e+01  -6.613677e+01
  -1.670388e+01  -1.205257e+02
   9.897269e+01  -6.803643e+01
   1.346113e+02   4.589627e+01
   2.377022e+01   5.279777e+01
  -1.194182e+02   7.074125e+00
  -5.792764e+01  -9.850549e+01
   1.091167e+02  -6.811976e+01
   2.900889e+02   1.522965e+01
   3.077115e+02   1.685453e+02
   4.887299e+01   2.495946e+02
  -1.793062e+02   2.105531e+02
  -2.724057e+02   1.381794e+02
  -1.038488e+02  -5.763547e+01
   4.177390e+01  -1.026898e+02
   6.569867e+01   3.426804e+00
  -7.031640e+01   7.455043e+01
  -1.647519e+02   4.224208e+01
  -1.594929e+02  -2.916468e+01
  -6.846150e+01  -1.578017e+02
   1.028989e+02  -1.145234e+02
   8.842227e+01  -1.404292e+01
   5.166620e+01  -2.083671e+01
   3.091916e+00  -3.648330e+01
  -4.819619e+01  -9.074470e+01
   9.675285e+01  -1.552838e+02
   2.268367e+02   1.547510e+01
   1.912933e+02   1.135114e+02
   1.493924e+01   2.028287e+02
  -1.591315e+02   1.692198e+02
  -2.127081e+02  -1.644255e+01
  -7.127789e+01  -6.133726e+01
   3.567173e+01  -4.299871e+01
   9.037497e+01  -4.739613e+01
   9.908520e+00  -1.150533e+01
  -6.178250e+01  -1.053856e+01
   2.154420e+01  -1.739342e+00
   9.153488e+01   2.682110e+01
   1.477686e+02   8.660048e+01
  -8.882149e+00   1.532880e+02
  -1.072150e+02   1.020830e+02
  -2.905872e+02  -6.798083e+01
  -1.728503e+02  -1.430179e+02
  -2.353903e+01  -1.877561e+02
   8.437529e+01  -1.619021e+02
   1.307476e+02  -2.470914e+01
   9.796688e+01   3.184280e+01
   7.242002e+00   8.471393e+00
   5.801861e+00   3.996845e+01
   1.190495e+01   2.798116e+01
   5.958902e-01   6.459131e+01
  -5.196616e+01   1.152454e+02
  -1.326262e+02   2.433820e+01
  -6.249017e+01  -1.099931e+02
   1.931433e+01  -1.542082e+02
   1.851862e+02  -1.327036e+02
   1.939418e+02   9.355983e+01
   1.159953e+02   1.991448e+02
  -9.940292e+01   2.211399e+02
  -2.198686e+02   6.037752e+01
  -2.201700e+02  -9.573235e+01
  -7.167844e+01  -1.633368e+02
   4.762217e+01  -1.061822e+02
   1.108509e+02  -7.026106e+01
   5.368405e+01  -4.142555e+01
   2.720046e+01  -7.301839e+01
   7.313424e+01  -1.092667e+02
   1.546045e+02   1.454810e+01
   7.682518e+01   1.105238e+02
   2.954495e+01   1.992966e+02
  -6.035724e+01   1.848887e+02
  -1.432678e+02   3.323921e+00
  -9.988102e+01  -1.891611e+02
  -4.391164e+01  -1.542883e+02
   5.054051e+01  -7.960093e+01
   8.351480e+01   9.094092e+01
   9.089980e+00   7.700328e+01
  -2.660476e+01  -3.517170e+00
   8.338931e+00  -2.330220e+01
   7.780648e+01   1.221409e+01
   4.952420e+01   4.515131e+01
  -4.508759e+01   3.900476e+01
  -1.305334e+02   2.064696e+01
  -1.098193e+02  -8.003018e+01
   1.730923e+01  -7.691292e+01
   8.561513e+01  -8.249167e+01
   1.211774e+02  -1.580882e+01
   1.898032e+01   1.389172e+01
  -4.873013e+01  -1.448906e+01
  -4.672023e+01  -1.758847e+01
  -1.563300e+01  -5.851291e+01
   4.828381e+01  -5.153810e+01
   8.664570e+01   5.740877e+01
   5.889800e+01   3.053717e+01
   2.688479e+01  -3.781220e+00
   5.480405e+01   9.037407e-01
   9.121727e+01  -1.547874e+01
   7.036819e+01   6.955807e+01
  -3.910329e+01   1.633455e+02
  -1.659453e+02   1.324579e+02
  -2.004277e+02   6.231464e+00
  -1.288775e+02  -9.632250e+01
  -3.482923e+01  -1.225393e+02
   6.201600e+01  -2.485561e+01
   4.433984e+01   4.906208e+01
  -5.894275e+01   4.790470e+01
  -1.665660e+02  -5.147818e+01
  -9.676829e+01  -1.359926e+02
   4.884778e+01  -1.291272e+02
   1.844997e+02  -4.754089e+01
   1.470016e+02   3.716346e+01
   5.629184e+01   8.885803e+01
  -6.408323e+01   3.113849e+01
  -5.589036e+01  -3.618625e+01
   5.134052e+01  -1.696539e+01
   1.247835e+02   2.847665e+01
   5.252478e+01   1.310716e+02
  -7.362451e+01   1.647164e+02
  -1.592131e+02   9.162060e+01
  -1.251758e+02  -3.752127e+01
  -3.441509e+01  -1.122122e+02
   1.134651e+02  -1.116432e+02
   9.443074e+01   1.803264e+01
   3.058573e+01   8.444129e+01
  -6.044252e+01   8.502548e+01
  -7.607559e+01   1.682191e+01
  -2.542872e+01  -5.759444e+00
  -5.707020e+01   2.065158e+01
  -4.053970e+01  -7.303708e+00
  -2.422356e+01  -2.346116e+01
  -5.600743e+01  -9.341280e+01
  -3.582418e+01  -1.038976e+02
   8.834814e+01  -5.897545e+01
   1.512171e+02   4.753797e+01
   1.262168e+02   6.715070e+01
   1.771884e+01   7.666363e+01
  -9.421384e+01  -8.601345e+00
  -9.728762e+01   6.619023e+00
  -1.600805e+01  -3.181646e+01
   3.093780e+01  -5.953238e+00
  -8.628577e-01  -2.894843e+01
  -4.138532e+01  -3.491441e+01
  -2.587829e+00   3.180662e+01
   7.199191e+01  -1.811166e+01
   1.283179e+02   4.734287e+01
   5.023723e+01   5.689691e+01
  -7.074894e+01   1.197161e+02
  -2.133749e+02   8.822461e+01
  -1.440150e+02  -6.002481e+01
  -1.581748e+01  -1.320503e+02
   6.904864e+01  -1.484534e+02
   8.512024e+01  -4.727818e+01
   5.225938e+01   2.353348e+01
   1.087963e+01   2.136134e+01
  -2.075848e+01   2.920411e+01
   5.143586e+01  -8.113119e+00
   6.843860e+01   6.296283e+01
   2.708880e+01   1.216158e+02
  -6.900596e+01   1.102211e+02
  -9.356588e+01   2.285302e+01
  -9.715635e+01  -1.045530e+02
   3.267879e+01  -1.771412e+02
   7.247453e+01  -3.741671e+01
   8.860889e+01   7.266459e+01
  -3.706440e+00   1.218182e+02
  -3.318004e+01   4.459443e+01
  -7.220418e+01  -5.098372e+01
  -3.073668e+01  -8.418924e+01
   5.829580e+01  -9.388168e+01
   5.499550e+01  -4.442206e+01
   3.492137e-01   3.014312e+01
  -2.457428e+01   5.097096e+00
  -4.390693e+01   5.810987e+00
   7.209620e+01  -3.132281e+01
   1.662728e+02   2.920621e+01
   4.634436e+01   5.452344e+01
  -5.933855e+00   8.218569e+01
  -7.621032e+01   4.940907e+01
  -7.546116e+01  -3.804428e+01
  -4.597681e+01  -5.188252e+01
   5.601158e+00  -7.625754e+01
   4.323974e+01   3.004641e+01
   1.708738e+01   7.606995e+01
  -3.133883e+00   4.952583e+01
  -2.245579e+01   6.806874e-01
  -3.561363e+01  -2.965658e+01
  -6.254188e+01   9.961525e+00
   4.241835e+00   4.094696e+01
   1.342197e+01   1.360770e+00
   6.409108e+00  -9.067126e+01
   2.666908e+01  -2.220581e+01
   2.737986e+01  -1.494588e+01
   3.374545e+01   2.490655e+01
   5.097942e+01   6.278616e+01
  -7.340974e+01   7.471081e+01
  -7.304712e+01  -6.795904e+01
  -6.189428e+01  -6.168026e+01
   6.841447e+01  -3.647707e+01
   8.486736e+01   4.055690e+01
   1.816698e+01   5.164757e+01
  -4.986465e+00   2.008225e+01
  -5.217799e+01   2.286085e+01
   3.410192e+01  -1.141034e+01
   3.434665e+01  -1.683029e+01
   3.480163e+01   1.682232e+00
  -5.079308e+01   4.747528e+01
  -9.827718e+01   3.925809e+01
