
 $NMID
 id='ANONYMOUS ', fmtdat='(2E16.6)'
 volume=1.0
 tramp=1.0
 $END
   2.703316e+03  -1.005903e+02
   1.804649e+03   1.378471e+03
  -4.924908e+01   1.737955e+03
  -1.171804e+03   1.062596e+03
  -8.572294e+02   9.886583e+01
   4.061894e+00  -1.216893e+02
   2.698716e+02   8.116105e+01
  -2.175477e+01   4.701190e+02
  -5.051860e+02   5.945730e+02
  -6.756386e+02   3.297075e+01
  -3.547167e+02  -4.639466e+02
  -1.360235e+02  -5.893872e+02
   3.122795e+02  -1.632943e+02
   2.192039e+02   3.126601e+02
  -1.388517e+02   4.755567e+02
  -3.181828e+02   2.185336e+01
  -2.751326e+02  -4.755417e+02
   1.510360e+02  -5.177555e+02
   4.105358e+02  -3.123088e+02
   3.500506e+02   1.072860e+02
   8.234794e+01   2.601716e+02
  -1.186323e+02   1.978086e+02
  -4.381774e+01   1.757898e+01
   2.244650e+02   1.272971e+02
   2.350304e+02   3.300277e+02
   4.616249e+01   2.254986e+02
  -3.705817e+02   6.944912e+01
  -4.259275e+02  -1.881318e+02
  -2.069664e+02  -2.877732e+02
   2.527643e+02  -1.839347e+02
   4.378168e+02   1.583507e+02
   1.653513e+02   3.038161e+02
  -2.252723e+02   2.517814e+02
  -3.957231e+02   8.222790e+01
  -2.610170e+02  -2.086689e+02
   4.705940e+00  -2.847762e+02
   4.068415e+01  -1.969803e+02
  -8.519883e+00   1.105843e+02
  -1.671098e+02   1.845297e+02
  -1.473895e+02  -9.493654e+01
  -1.116885e+00  -3.973058e+02
   2.487201e+02  -3.348183e+02
   3.255032e+02   1.435678e+00
   1.107579e+02   3.261572e+02
  -1.256367e+02   1.439182e+02
  -2.198267e+02  -1.728055e+02
   1.024982e+02  -3.196339e+02
   3.924860e+02   4.078144e+01
   3.939267e+02   3.287929e+02
   1.110403e+02   4.091434e+02
  -3.045683e+02   2.057095e+02
  -4.396031e+02  -1.009840e+02
  -2.888339e+02  -2.172351e+02
   5.059300e+01  -1.537173e+02
   2.507404e+02  -9.524451e+01
   1.606223e+02   4.518034e+01
   1.931157e+00   5.049900e+01
  -8.828597e+01  -1.950713e+01
   1.112821e+02  -8.634748e+01
   2.078233e+02   8.362153e+01
   1.082867e+02   1.575893e+02
  -1.409419e+02   1.823738e+02
  -3.057825e+02   1.381839e+02
  -1.995247e+02  -4.794972e+01
   7.940205e+01  -2.245787e+02
   2.106089e+02  -2.803425e+02
   2.984855e+02  -1.262032e+02
   1.673168e+02   1.735254e+02
   6.054991e+01   2.903086e+02
  -9.584833e+01   2.553533e+02
  -8.210639e+01   9.530724e+01
  -9.983800e+00   5.527055e+01
  -1.226173e+02   9.633053e+01
  -1.895795e+02  -2.590151e+00
  -2.135620e+02  -1.566398e+02
  -8.415455e+01  -2.524181e+02
   6.584000e+01  -1.635098e+02
   1.497464e+02   2.723875e+01
   6.273507e+01   2.369011e+02
  -5.279752e+01   1.709874e+02
  -1.735513e+02  -4.859721e+00
  -2.279016e+02  -1.280170e+02
  -1.608224e+02  -2.915012e+02
   8.918677e+01  -1.823378e+02
   1.592813e+02  -8.682536e+01
   1.325457e+02  -4.954389e+01
   1.152358e+02  -4.726006e+01
   2.360061e+02   5.114535e+01
   3.211284e+02   1.058455e+02
   2.845185e+02   3.019918e+02
   9.559294e+00   3.794141e+02
  -3.276199e+02   3.217523e+02
  -3.872330e+02   1.286217e+02
  -2.144849e+02  -1.714073e+01
   3.938857e+01  -2.400126e+02
   1.050264e+02  -1.268082e+02
   1.058747e+01  -6.922486e+01
  -8.150048e+01   9.132723e+01
  -1.185669e+02  -3.076214e+01
   1.527191e+01  -1.661315e+02
   1.020913e+02  -6.073104e+01
   8.540616e+01   3.282416e+00
  -2.854650e+01   1.082961e+02
  -1.319621e+02  -3.367448e+01
  -9.955417e+01  -1.979041e+02
   7.178733e+00  -2.956118e+02
   1.693863e+02  -2.292600e+02
   3.068672e+02   5.548022e+01
   2.098992e+02   2.322137e+02
   8.502263e+01   2.442141e+02
  -9.939422e+01   9.481918e+01
  -1.296176e+02  -1.822085e+01
  -6.099987e+01  -1.738625e+01
   4.325707e+01   8.684546e+01
  -3.421109e+01   1.025988e+02
  -1.200277e+02   2.101971e+01
  -1.276864e+02  -1.021649e+01
  -1.207209e+01  -7.444282e+01
   5.511127e+01   3.578423e+00
   2.921920e+00   1.047372e+02
  -1.578973e+02   3.570907e+01
  -2.357524e+02  -1.540769e+01
  -2.453257e+02  -1.360964e+02
  -2.497469e+01  -2.246880e+02
   2.299518e+02  -1.656814e+02
   2.034259e+02  -7.414044e+01
   7.946990e+01   3.495989e+01
  -7.004139e+01   8.983652e+01
  -4.766185e+01  -1.574058e+01
   5.871285e+01  -4.583925e+01
   1.829859e+02  -7.384147e+01
   1.421608e+02   1.217460e+02
   8.293281e+01   1.625253e+02
  -3.484014e+01   9.912770e+01
  -1.115018e+02   2.666576e+01
  -4.686049e+01  -2.569210e+01
  -1.711251e+01   2.324184e+01
   2.824599e+01   9.704273e+01
  -5.947279e+01   1.244044e+02
  -1.920555e+02   7.392005e+00
  -1.152246e+02  -1.347268e+02
   2.214339e+01  -1.344343e+02
   1.277227e+02  -1.011276e+02
   1.607884e+02   2.276129e+01
   8.788645e+01   1.169305e+02
  -9.152058e+01   9.499751e+01
   5.977901e+00   2.978410e+01
  -1.932496e+00   2.313477e+01
   4.340576e+01  -8.852976e+00
  -1.850075e+01   1.532475e+01
  -6.235363e+01  -5.184822e+01
  -7.116018e+01  -5.092171e+01
   2.213522e+01  -1.150811e+02
   1.005632e+02  -1.422656e+02
   2.874776e+02   3.593098e+00
   1.497122e+02   1.353235e+02
   2.056904e+01   1.541324e+02
  -5.754439e+01   1.611412e+02
  -6.455946e+01  -1.464559e+01
  -7.483134e+01  -7.530463e+01
  -4.066912e+01  -2.244707e+01
  -1.096815e+02   8.593289e+00
  -5.531574e+01   2.214510e+01
  -3.236542e+01  -3.485356e+01
  -5.011105e+00  -9.638334e+01
   1.005464e+02  -6.256394e+01
   1.832719e+01   9.149580e+00
   9.792720e+00   1.178632e+02
  -1.738758e+02   1.281402e+02
  -2.013460e+02  -6.721319e+01
  -4.005544e+01  -1.537482e+02
   7.598773e+01  -1.217642e+02
   2.340235e+02  -1.135967e+02
   2.430331e+02   1.044026e+02
   5.465647e+01   1.445648e+02
  -1.857060e+01   1.346683e+02
  -9.571804e+01   3.568762e+01
  -4.664860e+01   4.652092e+01
  -6.320644e+01   8.346817e+01
  -6.970176e+01   4.891368e+01
  -7.981306e+01  -4.281003e+01
  -9.075792e+01  -1.365256e+02
  -4.085772e+01  -2.188434e+02
   9.096322e+01  -1.693323e+02
   1.457575e+02  -5.566927e+00
   1.255486e+02   9.448676e+01
   4.873579e+01   1.348680e+02
  -9.455220e+01   1.223343e+02
   1.685952e+01  -3.917208e+01
   4.553585e+01  -7.587327e+01
   3.258910e+01  -5.664418e+01
  -4.957398e+01  -3.489910e+00
  -7.724274e+01  -1.319454e+01
  -5.561678e+00  -8.173019e+01
   4.894307e+01  -6.102598e+01
   1.616185e+02  -3.265213e+01
   1.504879e+02   6.350183e+01
   2.527965e+01   9.762268e+01
  -1.443382e+02   7.516459e+01
  -1.512884e+02  -1.811684e+01
  -8.045263e+01   3.212105e+00
   2.071249e+01  -3.888089e+01
   8.923739e+01  -9.876513e+00
   3.192347e+01   2.230662e+01
  -9.781760e+01   4.200385e+01
  -7.501039e+01   7.500320e+00
  -1.171482e+01  -3.483696e+01
  -4.818763e+01  -4.432887e+01
  -8.271158e+01   3.023633e+01
  -9.759451e+01   5.284471e+01
  -3.446597e+01  -3.847724e+00
  -1.578072e+01  -1.448747e+02
   1.366091e+02  -9.292066e+01
   1.424911e+02  -4.237702e+01
   1.217836e+02   1.295459e+02
  -1.919255e+01   1.103939e+02
  -5.629891e+01   2.347910e+01
  -9.668734e+01   1.763404e+00
   4.231992e+01  -7.106260e+01
   9.858466e+01   2.597771e+01
   4.361159e+01   8.443381e+01
  -3.963299e+01   1.209850e+02
  -1.498758e+02   3.436979e+01
  -1.222826e+02  -7.953220e+01
  -2.904517e+01  -8.540158e+01
   7.312327e+01  -3.051834e+01
   2.628278e+01  -1.158583e+01
  -5.992139e+01   4.511480e+01
  -1.078081e+02   5.534203e+00
  -5.261190e+01  -9.547160e+01
   6.846559e+01  -1.415673e+02
   1.557236e+02  -6.139652e+01
   8.641379e+01   9.252317e+01
  -5.232252e+00   1.441401e+02
  -1.066922e+02   8.425151e+01
  -1.221651e+02  -4.912583e+01
  -4.733909e+00  -1.080899e+02
   1.238736e+01  -1.091233e+02
   6.117813e+01  -3.856246e+00
   7.926532e+01   1.655077e+01
   1.208758e+01   6.665927e+00
  -7.770848e+00   2.226859e+01
   5.159694e+00  -7.486986e+00
   5.202469e+01   6.324304e+00
   2.674065e+01   1.077634e+02
  -6.238536e+01   4.997307e+01
  -1.138488e+02  -3.831955e+01
  -1.512997e+02  -4.534032e+01
   1.951150e+01  -2.382057e+01
   7.364327e+01  -4.338403e+00
   1.154996e+02  -6.600439e-01
   1.176702e+01   1.931007e+01
  -2.057533e+01   1.539007e+01
  -9.261230e+00   3.581409e+01
   3.505893e+01  -8.049585e+00
  -8.581757e-01   2.225086e+00
  -5.602211e+01  -9.123249e+00
  -6.479861e+01  -3.066338e+01
   1.184619e+01  -1.045831e+02
   6.236075e+01  -9.006447e+01
   1.510889e+02  -7.594717e+01
   9.118827e+01   9.716887e+01
  -2.678863e+01   1.008024e+02
  -9.806151e+01   1.312530e+02
  -1.030680e+02   9.751455e+01
  -4.518777e+01  -1.830819e+01
   1.617974e+01  -8.602450e+01
  -2.749472e-02  -2.411574e+01
  -3.033057e+01  -2.024203e+01
  -4.342545e+01  -6.165045e+01
   1.802603e+00  -8.120681e+01
   3.420429e+00  -9.819643e-01
   1.013703e+02   3.898236e+01
   8.456175e+01   9.624290e+01
  -2.578190e+00   1.411333e+02
  -4.031734e+01   7.077243e+01
  -1.102159e+02  -4.406393e+01
  -2.421546e+01  -1.236461e+02
   1.007608e+02  -4.057202e+00
   1.179051e+02   1.223452e+01
   1.683880e+01   2.084743e+01
  -3.487276e+01   6.696116e+01
  -4.026168e+01  -3.876899e+00
   6.688322e+01  -2.612134e+01
   4.988089e+01  -4.075081e+00
   6.089276e+01   4.480220e+01
  -6.199464e+01   7.085081e+01
  -1.482558e+02   1.598713e+01
  -5.458506e+01  -2.993603e+01
   1.973380e+01  -8.132285e+01
   8.424384e+01  -1.009307e+02
   3.364905e+01  -1.303152e+00
  -1.886441e+01   1.114320e+01
  -7.071214e+00   7.919653e+01
  -3.681484e+01   1.666582e+01
   2.040862e+00  -7.011140e+01
   1.667106e+01  -4.691144e+01
   6.213768e+01   1.113028e+00
   9.730522e-01   6.099051e+01
   2.761999e+01   4.583573e+00
   1.085472e+01   1.928016e+01
   7.419622e+00   2.959267e+00
  -2.421852e+01   4.144021e+01
   3.768993e+01   2.006405e+01
  -9.838427e+00   1.520542e+01
  -8.536377e+00  -4.274389e+01
   7.702498e+00  -4.551009e+01
   7.007640e+01  -2.492652e+01
   1.238141e+01   3.985449e+01
   2.024321e+01   6.259029e+01
  -3.146713e+01   2.647924e+01
  -5.755273e+01  -3.566116e+00
  -5.634058e+01  -9.161760e+01
  -2.477889e+00  -6.373301e+01
   4.903226e+01  -1.630549e+01
   3.423612e+01   7.124889e+00
  -7.245841e+00   2.587133e+01
  -3.893670e+01   2.185262e+01
   1.307281e+01   4.784748e+01
   7.127656e+01   2.955844e+01
