
 $NMID
 id='ANONYMOUS ', fmtdat='(2E16.6)'
 volume=1.0
 tramp=1.0
 $END
  -3.571695e+03  -2.279345e+02
  -2.455371e+03  -1.834539e+03
   2.463003e+02  -2.365680e+03
   1.605485e+03  -1.359711e+03
   9.702505e+02   1.343925e+01
  -1.805607e+02   4.451784e+02
  -6.085852e+02  -1.946305e+02
  -1.855459e+02  -8.439069e+02
   5.527848e+02  -7.597026e+02
   7.671871e+02  -4.049318e+01
   5.165598e+02   6.916870e+02
  -7.153925e+01   7.481246e+02
  -4.342646e+02   2.031929e+02
  -2.996593e+02  -5.043835e+02
   1.211998e+02  -6.497109e+02
   5.016378e+02  -1.476596e+02
   2.801080e+02   4.689013e+02
  -9.295042e+01   5.652741e+02
  -4.714259e+02   2.501167e+02
  -3.903363e+02  -3.032487e+02
  -2.827148e+01  -4.038507e+02
   1.942298e+02  -2.522057e+02
   1.203274e+02  -7.845853e+01
  -1.462332e+02  -5.568796e+01
  -3.235849e+02  -1.788316e+02
  -9.708458e+01  -3.349758e+02
   4.314664e+02  -2.547897e+02
   6.692229e+02   1.052861e+02
   2.981981e+02   3.709421e+02
  -3.774690e+02   2.946298e+02
  -6.126521e+02  -1.239562e+02
  -2.280619e+02  -3.998292e+02
   2.816745e+02  -3.949949e+02
   4.454615e+02  -9.898728e+01
   3.174562e+02   2.309546e+02
   8.071087e+01   3.634788e+02
  -9.677479e+01   2.621540e+02
  -2.174679e+01  -1.357925e+02
   1.141143e+02  -2.946199e+02
   2.336766e+02  -2.405950e+01
   1.113350e+02   5.089150e+02
  -2.212201e+02   5.593478e+02
  -4.070382e+02   7.583172e+01
  -2.022060e+02  -3.827867e+02
   1.190335e+02  -2.581392e+02
   2.356653e+02   2.525890e+02
  -6.540781e+01   4.342860e+02
  -4.691788e+02   1.212737e+02
  -5.593369e+02  -3.578259e+02
  -2.041360e+02  -5.397973e+02
   2.689959e+02  -3.113560e+02
   5.785475e+02   5.724145e+01
   4.003937e+02   3.006850e+02
  -2.609791e+01   2.659795e+02
  -3.109666e+02   7.968825e+01
  -2.369000e+02  -9.136255e+01
  -5.563991e+00  -5.580771e+01
   1.551829e+02   3.439367e+01
  -6.093214e+01   6.340145e+01
  -2.310958e+02  -5.470683e+01
  -7.565649e+01  -2.281440e+02
   2.086975e+02  -2.357757e+02
   3.530657e+02  -1.161449e+02
   2.479789e+02   7.073192e+01
  -2.936199e+01   2.723534e+02
  -2.025803e+02   3.587591e+02
  -3.395362e+02   1.908938e+02
  -2.450667e+02  -1.623837e+02
  -8.792083e+00  -4.103857e+02
   3.384771e+01  -3.497210e+02
   1.611689e+01  -1.381013e+02
  -1.001242e+01  -7.234600e+01
   1.931606e+01  -1.315571e+02
   1.546707e+02  -1.205515e+02
   2.552005e+02   5.047405e+01
   8.091345e+01   1.758808e+02
  -9.622097e+01   2.013567e+02
  -1.674607e+02   7.571284e+00
  -1.244956e+02  -2.443675e+02
   3.210570e+01  -2.284986e+02
   1.812915e+02  -9.560632e+01
   3.147441e+02   1.315435e+02
   2.243456e+02   3.315179e+02
  -9.924173e+01   3.049788e+02
  -2.187986e+02   1.851373e+02
  -9.845815e+01   2.374646e+01
  -8.515940e+01   2.531617e+01
  -2.263816e+02   8.656938e+01
  -3.822304e+02  -8.692156e+01
  -2.880084e+02  -2.774912e+02
   3.813478e+00  -4.098743e+02
   2.854080e+02  -4.298746e+02
   4.326973e+02  -2.296705e+02
   3.447287e+02   5.695686e+01
   2.115543e+00   2.760414e+02
  -9.604411e+01   1.903864e+02
   1.939665e+00   2.777361e+01
   1.407272e+02  -9.923317e+01
   1.044830e+02   3.834692e+01
   2.246490e+01   1.371239e+02
  -5.908027e+01   1.630346e+02
  -1.068898e+02   8.489222e+00
  -4.792330e+01  -1.222699e+02
   1.129501e+02   2.780963e+01
   1.591639e+02   2.260650e+02
   1.747636e+01   2.769126e+02
  -2.047736e+02   2.006089e+02
  -2.594307e+02  -5.282426e+01
  -2.138993e+02  -2.172892e+02
  -8.971896e+01  -2.124093e+02
   1.226757e+02  -1.400691e+02
   1.495110e+02  -4.001454e+01
   5.315021e+01   6.429160e+01
  -5.320842e+01  -1.879907e+01
   1.347760e+01  -1.124447e+02
   1.199725e+02  -1.450047e+02
   1.577578e+02   2.963174e+01
   8.313498e+01   8.285261e+01
   6.934511e+00   1.699510e+00
   2.098119e+00  -5.219076e+01
   1.150329e+02  -6.432399e+01
   2.821687e+02   7.757666e+00
   2.679527e+02   1.295100e+02
   1.008573e+02   2.242208e+02
  -1.420669e+02   2.563244e+02
  -2.601893e+02   8.173984e+01
  -1.580447e+02  -5.899067e+01
  -2.480262e+01  -6.127097e+01
   4.314485e+01  -2.679879e+01
  -7.037188e+00   5.456872e+01
  -1.844845e+02   6.952926e+01
  -1.613567e+02  -1.172690e+02
  -9.012618e+01  -2.009050e+02
   1.046866e+02  -1.247927e+02
   1.534978e+02  -5.771067e+01
   5.080667e+01  -1.784360e+01
  -4.346449e+01   1.491782e+00
  -3.341219e+01  -1.114587e+02
   4.740149e+01  -8.708911e+01
   2.078613e+02  -4.972385e+01
   1.874962e+02   7.013569e+01
   1.330860e+01   1.622322e+02
  -1.581750e+02   1.618049e+02
  -1.575653e+02   5.003000e+00
  -1.152108e+02  -6.288041e+01
   9.235355e+01  -5.505701e+01
   9.174564e+01  -1.008467e+01
  -3.989222e+01   3.648723e+01
  -4.701228e+01  -5.278383e+01
   2.889679e+01  -4.669529e+01
   8.942008e+01   2.573488e+01
   8.985729e+01   6.231998e+01
  -2.065430e+01   1.372433e+02
  -1.023501e+02   1.668687e+02
  -1.907021e+02  -1.771747e-03
  -1.985156e+02  -1.461167e+02
  -3.526122e+01  -1.955078e+02
   1.314579e+02  -1.232669e+02
   1.298122e+02   9.360432e+00
   6.624320e+01   7.656903e+01
   3.145487e+01   2.990154e+01
   6.496428e+01  -1.159807e+01
   6.097688e+01   2.673821e+01
   5.790926e+01   4.946471e+01
  -6.456472e+01   8.644521e+01
  -1.294364e+02   4.109181e+01
  -8.803541e+01   1.501644e+01
  -9.096768e+00  -9.528883e+01
   1.328799e+02  -4.276650e+01
   2.073972e+02   9.895999e+01
   7.523135e+01   2.065541e+02
  -1.549308e+02   2.268265e+02
  -2.515258e+02   5.988072e+01
  -2.271346e+02  -1.216759e+02
  -3.740476e+01  -1.197219e+02
   5.061197e+01  -1.252786e+02
   1.755729e+02  -6.038850e+01
   8.100739e+01  -5.686295e+01
   9.775766e+01  -9.857687e+01
   1.063668e+02  -9.787473e+00
   1.564950e+02   6.448790e+01
   6.027687e+01   1.802364e+02
   1.707778e+01   1.950558e+02
  -6.073335e+01   1.779989e+02
  -1.631172e+02   3.474503e+00
  -1.186606e+02  -7.410019e+01
  -2.082532e+01  -1.679169e+02
   8.634645e+01  -6.293838e+01
   3.145615e+01   2.537723e+01
  -3.681058e+01   3.910664e+01
  -6.306273e+01   9.862198e-01
   5.171193e+01  -1.774767e+01
   9.307668e+01   1.981464e+01
   5.598489e+01   4.155127e+01
  -6.882299e+01   7.862150e+00
  -1.695749e+02  -1.666908e+01
  -1.795389e+02  -8.017399e+01
  -2.673179e+01  -1.082874e+02
   8.277278e+01  -1.023590e+02
   1.493361e+02  -2.707501e+01
   9.864173e+01   6.664328e+01
  -8.068174e+01   1.339574e+01
  -6.695759e+01  -8.366707e+00
  -1.076762e+01  -4.914039e+01
   4.702211e+01  -5.789430e+01
   4.056743e+01  -2.636854e+00
   1.551021e+01   7.385057e+01
   7.545863e+01   5.246824e+01
   1.665196e+01   1.938022e+01
   1.683503e+01   4.017705e+01
   5.484333e+01   5.335175e+01
  -4.761817e+00   1.282932e+02
  -1.217767e+02   1.736743e+02
  -1.729322e+02   4.948846e+01
  -1.177656e+02  -8.548646e+01
  -6.005025e-01  -1.302199e+02
   8.226942e+01  -2.095180e+01
   8.702770e+01   7.270021e+00
  -7.609523e+01   3.998058e+01
  -1.498591e+02  -9.179842e+01
  -9.590695e+01  -1.274993e+02
   8.160144e+01  -8.172455e+01
   1.885442e+02  -3.010341e+01
   1.527548e+02   3.366985e+01
   5.868891e+01   4.659583e+01
  -4.729269e+01   4.552213e+01
  -1.347384e+01  -4.553305e+00
   6.485831e+01  -4.741942e+01
   8.756463e+01   9.218878e-01
   2.563675e+01   1.676996e+02
  -9.367749e+01   1.816747e+02
  -1.174892e+02   7.145338e+01
  -1.005466e+02  -1.251557e+02
   9.007382e+00  -1.828593e+02
   6.753331e+01  -9.529947e+01
   8.997881e+01   4.406643e+01
   9.311130e+00   8.148592e+01
   7.205039e+01   9.424537e+01
  -5.677324e+01  -3.549095e+00
  -6.238125e+01  -6.861929e+00
   8.025661e+00  -3.185284e+01
   5.347739e+01   3.544498e+01
  -4.899172e+01  -2.216045e+01
  -1.019612e+02  -7.512986e+01
  -2.623802e+01  -1.645222e+02
   8.045349e+01  -4.973351e+01
   1.337627e+02   1.315774e+01
   1.356342e+02   3.436758e+01
   2.159771e+01   1.190125e+01
  -8.698594e+01   7.277393e+00
  -8.833595e+01  -3.361817e+01
  -6.785657e+01  -2.720554e+01
   2.013726e+01   1.709944e+01
   3.965883e+01  -1.910647e+00
  -4.817750e+01   2.220778e+01
  -2.787626e+00  -1.998221e+01
   2.680888e+01  -4.068435e+01
   9.415121e+01   4.546346e+01
   1.469824e+01   2.777643e+01
  -1.169200e+02   1.485538e+02
  -1.730565e+02   1.233320e+02
  -1.258806e+02  -1.225214e+02
  -1.855286e-01  -1.748908e+02
   7.938098e+01  -1.183021e+02
   1.615700e+02  -6.459074e+01
   6.272307e+01   3.045646e+01
   4.198908e+01   8.568026e+01
  -8.325427e+00   1.825883e+00
  -3.299302e+01  -2.257683e+01
   2.298410e+01   1.982703e+01
   2.008655e+01   7.666069e+01
   8.964680e+00   3.860248e+01
  -1.086527e+02  -1.713065e+01
  -7.362397e+01  -1.037339e+02
   4.524617e+01  -7.937343e+01
   1.099608e+02  -2.804721e+01
   9.756253e+01   8.815707e+01
   2.751359e+01   1.266842e+02
  -5.614641e+01   4.932263e+01
  -8.651014e+01  -5.348014e+01
  -5.247625e+01  -3.677678e+01
   2.652648e+01  -7.603839e+01
   6.821380e+01  -1.895098e+01
   5.733489e+00   5.176879e+01
  -2.562130e+01   3.734818e+01
   2.164175e+01  -6.977704e+00
   8.914132e+01  -7.494592e+01
   1.113056e+02  -5.544243e+01
   1.018240e+02   1.732084e+01
   1.271767e+01   6.004000e+01
  -7.814049e+01   9.390402e+01
  -5.740170e+00  -1.745095e+01
   1.749196e+01  -9.652204e+01
   2.345365e+01  -5.481736e+01
   1.608655e+01   2.790624e+01
   1.032948e+01   4.297096e+01
  -7.390253e+01   2.107713e+01
  -7.103497e+01  -1.638632e+01
  -2.334661e+01  -2.702960e-02
   1.596060e+01  -1.912692e+01
   3.163874e+01  -2.272233e+01
  -4.026399e+01  -1.471260e+01
  -2.732327e+01  -4.954785e+01
   1.956028e+00  -2.457062e+01
   2.731569e+01  -2.301529e+01
   3.643088e+01   1.264492e+01
   3.847633e+01   6.846050e+01
  -3.420173e+00   5.488190e+01
  -5.623920e+01  -3.740453e+01
  -3.906699e+01  -7.319331e+01
   9.961879e+01  -5.596902e+01
   1.089890e+02   1.838877e+01
   8.645825e+01   4.105621e+01
  -2.911502e+01   7.248685e+01
  -5.803013e+01   1.797153e+01
  -5.323984e+01   6.313049e+00
   2.365106e+01  -4.272077e+00
   5.267750e+01   3.457518e+01
  -7.430937e+00   1.365907e+01
  -2.764393e+01   9.655351e+00
