
 $NMID
 id='ANONYMOUS ', fmtdat='(2E16.6)'
 volume=1.0
 tramp=1.0
 $END
  -5.078920e+02   6.528610e+01
  -1.613399e+02  -8.916507e+01
   3.320199e+01  -9.729309e+01
   6.905451e+01  -4.575754e+01
   6.626224e+01  -4.314868e+01
   1.123027e+01   7.371699e+00
  -3.266682e+00  -3.371544e+01
   9.281774e+00   1.066176e+01
   3.211223e+00  -4.834370e+01
   8.731302e-01  -2.418184e+01
   2.051259e+01   4.362879e+01
   3.086920e+00   2.691472e+01
  -2.435611e+01   1.757836e+01
  -7.719881e+00  -4.294390e+01
   6.446211e+00  -2.144889e+01
   3.161855e+01   1.101689e+01
  -1.224017e+01   1.963597e+01
   1.996534e+01   1.753676e+01
  -2.443225e+01  -9.110426e+00
  -2.091118e+01   1.789432e+01
  -1.709843e+01   1.368794e+01
  -4.715531e+00   1.199397e+01
  -2.436218e+01  -4.186258e+01
   2.125725e+01  -3.927621e+01
  -1.434907e+01   4.450438e+00
   7.694255e-01   1.711551e+01
   1.269896e+00   4.328427e+01
   4.552162e+01  -5.444969e-01
   4.695989e+01  -1.850698e+00
  -3.280755e+00  -7.590215e+00
  -3.050313e+01   1.984415e+01
  -1.848206e+01   9.686378e+00
  -8.946009e+00   9.814223e+00
   1.935585e+00   2.451227e+01
   1.520853e+01   1.343910e+01
   1.677846e+01  -1.375173e+01
   1.552937e+01   3.040199e+01
   9.050216e+00  -8.023632e+00
  -3.713676e-01  -1.176727e+01
  -3.415650e+01   1.028808e+01
   1.037709e+01   3.945652e+01
   3.111483e+01   8.285819e+00
   2.057483e+01  -1.184550e+01
   1.230682e+01  -4.004999e+00
  -8.529955e+00  -2.171374e+01
  -4.833303e+00   4.810086e+00
   1.347656e+01   1.422190e+01
   4.703459e+00   3.467141e+00
   1.019101e-01  -3.745314e+00
  -2.554648e+01   1.706808e+01
  -1.012643e+01  -1.402628e+01
   2.041023e+01   4.772798e+00
   3.093020e+00  -2.103904e+01
   5.831797e+00  -8.035783e+00
  -2.509533e+01  -1.372241e+01
  -2.414948e+01  -7.034887e+00
  -1.779479e+01   1.199885e+01
  -4.611307e+00  -3.570458e+01
  -1.717821e+01  -6.663419e+00
  -2.156342e+01   1.234422e+00
   2.105864e+01  -2.472613e+01
   1.886768e+01   4.389136e-02
  -1.114160e+01   4.659846e+00
   4.884985e+00   8.301064e+00
  -7.017429e+00  -1.836094e+01
  -1.487218e+00  -1.651021e+01
  -1.156712e+01   9.157688e+00
  -4.031583e+00   1.897783e+01
  -2.157372e+01   1.007985e-01
  -3.485934e+00  -2.002824e+01
  -1.242558e+01  -3.630326e+01
   1.923341e+01  -6.457015e+00
   5.187225e+00   3.488640e+00
  -9.749509e+00   2.599554e+01
   1.059365e+01   1.370047e+01
   1.691104e+01   1.862724e+01
  -1.112862e-01  -7.160957e+00
   8.590610e+00  -1.309209e+01
  -3.955433e+01  -6.177947e+00
   1.580957e+00   1.309550e+01
  -1.573990e+01  -4.633769e+01
   1.367390e+01  -3.119077e+01
   1.650238e+01   1.066479e+01
   2.711863e+01   3.200012e+00
   2.445678e+01   1.751232e+01
  -4.412933e+00   2.340117e+01
  -1.575372e+01   9.848958e+00
   1.885933e-01  -1.338856e+01
   3.479310e+00   3.708669e+00
   1.977990e+00   6.857533e+00
  -1.667279e+01  -3.230696e+00
   5.613297e+00  -1.399189e+01
  -6.373811e+00   6.643959e+00
   3.507158e+01  -1.934712e+01
  -2.338782e+01   1.789209e+01
   1.541972e+01   4.676147e+01
   9.916758e+00  -1.358689e+01
  -1.525589e+01   3.064315e+01
   2.342803e+01  -1.584150e+01
   1.581005e+01  -3.028080e+00
   6.535561e+00   1.985310e+01
   2.098672e+01   9.628079e+00
  -1.610639e+01  -1.056092e+01
   2.757554e+01  -2.971833e-03
  -1.768234e+01   2.138172e+01
   2.931492e+01   2.212830e+00
   1.113040e+01   2.298844e+01
   1.095796e+01   9.258687e+00
  -6.019932e+00  -2.028763e+01
   9.073895e+00  -1.128630e+01
  -1.312458e+01  -7.739607e+00
   6.275880e+00  -3.423180e+01
   3.308516e+01  -7.917673e-01
   7.135295e+00  -8.448449e+00
  -2.105841e+01   1.297019e+01
  -1.875754e+01   5.926970e+00
  -8.834298e+00   1.471973e+01
   2.010931e+01   6.248332e+00
   1.624320e+01   1.260516e+00
   9.967123e+00   1.008655e+01
  -3.351009e+00   3.391010e+00
  -7.249773e+00  -3.656883e+00
  -7.473816e-01   6.604738e+00
  -1.290283e+01   1.520143e+01
  -2.035052e+01   1.633551e+01
   5.677697e+00   9.950992e+00
   6.739824e+00   3.395940e+01
   3.095420e+00   1.618562e+01
  -4.155390e+00   6.193840e+00
   1.294462e+01  -2.490438e+01
  -9.584800e+00  -3.127008e+01
  -3.832808e+01  -1.560447e+01
  -1.865353e+01   1.627536e+01
   1.734101e+01   1.359655e+01
  -5.419044e+00   1.959866e+01
  -3.847732e+00  -2.889632e+00
   8.365016e+00   2.050199e+01
   2.165224e+01  -1.628374e+01
   4.696927e+00  -1.466198e+01
  -6.087462e-01  -1.450734e+01
  -4.790176e+00  -4.345183e+01
  -7.000460e+00  -4.194004e+00
   3.234344e+01  -2.367614e+01
   1.964019e+01   2.445854e+01
   2.236530e+01  -1.605154e+01
   1.830961e+01   6.640742e+00
  -1.349345e+01   2.497876e+01
  -2.945643e+01  -1.123962e+01
   2.297901e+01   9.113302e+00
  -1.909336e+01  -1.623451e+01
   3.326597e+01   2.103432e+01
  -2.353163e+01  -1.556754e+01
  -5.294678e+00  -1.645448e+01
  -2.702642e+00   6.940022e+00
  -8.178930e+00  -1.462061e+01
   2.495211e+01   2.680830e+01
  -3.205238e+01   1.483421e+00
   4.328722e+00   8.385207e+00
   1.047963e+01  -1.083790e+01
   2.369668e+00  -2.583305e+00
   3.680566e+01   4.880423e-01
   9.493688e+00  -5.711420e+00
   2.892368e+01  -7.006667e+00
  -2.466668e+01  -5.007875e-01
  -1.275863e+01   1.816882e+00
   1.527734e+01   1.096838e+01
  -2.598194e+00   2.795124e+01
   1.944635e+01   8.709455e+00
   6.932523e+00  -1.706003e+01
  -1.723962e+00  -1.407184e+01
   3.562102e+01  -2.976172e+01
  -5.874929e+00  -1.468490e+01
  -2.704080e+01   1.349561e+01
  -4.910793e+01   8.997761e-01
  -2.406532e+01   1.240664e+01
  -2.147550e+01   6.040198e+00
   5.272497e+01  -2.793177e+01
  -2.079147e+01  -5.908524e+00
  -6.577427e+00   3.860116e+01
   6.626875e+00   1.549702e+01
  -4.997012e+01  -1.713479e+01
  -7.956522e+00  -4.324798e+00
   7.209669e+00  -1.094604e+01
   5.551723e+00   2.529894e+01
  -7.011911e+00  -8.999766e+00
   1.654007e+01   2.923648e+01
   9.734670e+00  -3.358736e+01
  -2.154483e+01   1.999701e+01
   4.949216e+00   9.382242e+00
   2.018860e+01  -4.071646e+01
  -1.081284e+01   7.531663e+00
  -3.523406e+01  -1.168688e+01
  -4.911641e+00   1.054014e+01
   1.173455e+01  -1.457636e+00
   5.644153e+00   5.711088e+01
   1.344041e+00   7.108892e+00
  -1.835872e+01   2.620182e+00
   2.281149e+01   2.486704e+01
  -1.951124e+01  -1.734072e+01
   2.326743e+00   5.399173e+00
  -2.444982e+01  -1.335617e+01
  -1.837124e+01   3.095219e+01
   3.470554e+01   8.962384e+00
   1.940989e+01   3.006335e+01
  -2.820531e+01  -6.490691e+00
  -4.949124e+01  -9.754947e+00
  -1.375854e+01   2.845889e+01
   2.179328e+01  -1.003174e+01
   6.911615e+00  -3.493354e+01
   2.694926e+01   1.280386e+01
   1.426263e+00  -6.685117e+00
   4.959584e+00  -1.676514e+01
  -8.996674e+00  -1.691560e+01
  -1.096553e+01   1.265992e+01
   1.646762e+01  -9.423098e+00
   1.135396e+01  -6.846466e+00
  -1.357603e+01   2.369883e+01
   4.141391e+01   1.217406e+01
   1.142085e+01  -1.388138e+01
  -1.837365e+01  -3.037551e+00
   2.471295e+01   6.148729e+00
   2.996166e+01  -1.250608e+01
   2.147388e+01   1.112481e+01
  -2.418963e+01  -1.954878e+01
   6.738737e+00   3.128770e+01
   2.135667e+01  -5.066949e+00
   7.373160e+00   2.307847e+01
   1.932101e+01   2.877616e+01
   9.908135e+00  -2.112476e+01
  -1.026953e+01  -1.000978e+01
  -1.032321e+01   1.299087e+01
   2.511273e+01  -9.422427e+00
   1.312711e+01  -2.199969e+01
   2.489921e+01   1.126894e+01
  -2.749788e+00   1.204179e+01
  -1.848625e+01  -1.792647e+00
   1.627776e+01   1.654879e+01
  -3.151778e+00  -8.107842e+00
   1.893998e+01   1.061463e+01
  -3.285048e+01  -5.342058e+01
  -1.951818e+01  -2.467807e+01
   1.442872e+01  -1.014641e+01
  -1.620130e+01  -9.585707e+00
  -1.111008e+00  -1.940976e+01
  -3.078859e+01   9.620839e+00
   1.938227e+01   3.865018e+01
  -3.304674e+01   1.930261e+01
  -1.182146e+01  -1.852083e+01
  -6.942018e+00  -4.626149e+00
   1.790500e+01  -5.530879e+00
  -1.842967e+00  -2.532859e+00
  -2.484334e+00  -7.649531e+00
   2.047196e+01  -1.736721e+01
  -1.797445e+01  -1.172137e+01
   7.719879e-01   3.085879e+01
  -1.310909e+01   1.311786e+01
  -2.476256e+01   2.963776e+01
  -7.797255e+00  -1.832334e+01
  -3.087064e+00  -1.740770e+00
  -1.436696e+01   1.999791e+00
  -5.597266e+00  -1.161943e+01
   9.904222e+00   5.196316e-01
  -3.428524e+01   9.498102e+00
  -3.363224e+01   2.923561e+00
  -7.410262e+00   2.942915e+00
  -7.634683e+00   1.935874e+01
  -1.668395e+01   1.770240e+01
   1.961025e+01  -7.365414e+00
  -2.433516e+01  -3.129492e+00
  -3.204537e+01  -4.033304e+00
  -1.615417e+00  -1.255965e+01
   4.958231e-01  -3.265983e+01
   2.403935e+01   1.346329e+00
   1.488279e+01  -3.737339e+00
  -1.831205e+01   3.318364e+01
  -1.571484e+01  -2.072444e+00
   1.961590e+01  -1.010973e+01
   7.134152e+00  -1.769734e+00
  -2.274549e+00  -3.068511e+01
  -1.155617e+01   2.017013e+01
   8.740310e+00  -5.039544e+00
   1.413564e+01  -7.317571e-01
  -3.906519e+00   5.338189e-02
   6.767189e-01  -2.730191e+01
   2.454082e+01   6.074260e+00
   3.042230e+01  -2.635126e-01
  -1.004236e+01   2.402262e+01
   6.537404e+00  -1.421678e+01
   1.131119e+01  -7.957516e+00
   1.498579e+01   7.992917e+00
  -9.201046e+00   1.697763e+01
   1.389380e+01  -1.053599e+01
  -1.230232e-02  -3.375224e+01
  -5.365000e+00   1.583300e+01
  -2.290322e+00  -3.335683e+01
  -9.032833e+00  -7.730749e+00
   7.331171e+00   7.981744e+00
   6.985915e+00   1.598746e+01
  -5.715391e+00  -4.206201e+00
   1.730310e+01  -1.807545e+01
  -4.154765e+00  -1.103735e+01
  -8.516639e+00  -2.877323e+01
  -1.087737e+01  -7.559644e+00
  -6.454878e+00  -1.109154e+01
   3.712417e+01  -1.593351e+01
   2.598116e+01   3.275768e+01
   1.929559e+01   1.261583e+01
   1.175887e+01  -7.299768e+00
   3.761494e+00  -2.841343e+01
   6.483035e+00   1.920635e+00
  -8.660891e+00   1.069415e+01
   6.204380e-01   1.042987e+01
  -2.104339e+00  -1.484951e+01
  -4.320157e+00  -1.129453e+01
  -2.792623e+00   8.798321e+00
   4.346350e+01   6.562107e+00
  -4.476979e+00   5.987159e+00
   2.515239e+01   1.392845e+01
  -3.159889e+01  -1.417202e-01
   2.221080e+00  -3.286246e+01
