
 $NMID
 id='ANONYMOUS ', fmtdat='(2E16.6)'
 volume=1.0
 tramp=1.0
 $END
   3.361094e+03  -4.817328e+01
   2.186267e+03   1.497238e+03
   1.213277e+01   2.262444e+03
  -1.095390e+03   1.421207e+03
  -1.008064e+03   1.726489e+02
  -7.716486e+01  -2.857629e+02
   4.090090e+02   1.904644e+01
   6.760383e+01   4.568022e+02
  -4.111214e+02   7.455262e+02
  -6.619838e+02   2.260749e+02
  -4.740966e+02  -5.492870e+02
  -7.573290e+01  -7.498654e+02
   3.106414e+02  -2.771068e+02
   2.376828e+02   4.314858e+02
  -6.336225e+01   4.776172e+02
  -3.771016e+02   1.604859e+02
  -3.546256e+02  -4.959546e+02
   2.144661e+02  -6.656155e+02
   4.675946e+02  -2.793091e+02
   4.007783e+02   2.156663e+02
   6.897216e+01   3.666567e+02
  -1.612310e+02   2.276827e+02
  -9.748578e+01   2.299829e+01
   1.724005e+02   3.653020e+01
   2.813265e+02   2.600521e+02
  -5.420683e+01   4.508000e+02
  -4.230440e+02   1.392877e+02
  -6.294761e+02  -2.001944e+02
  -2.498586e+02  -3.263146e+02
   3.011229e+02  -1.878352e+02
   5.131901e+02   1.175054e+02
   1.759129e+02   3.665187e+02
  -2.730552e+02   3.530291e+02
  -4.289775e+02   1.373023e+02
  -3.751434e+02  -1.057531e+02
  -1.141304e+02  -3.547420e+02
  -2.928319e+01  -1.885807e+02
  -4.702591e+01   1.046270e+02
  -1.271483e+02   1.012448e+02
  -1.860044e+02  -6.961420e+01
  -5.970948e+01  -5.003397e+02
   2.452153e+02  -4.452474e+02
   3.007147e+02  -1.675163e+01
   9.504911e+01   3.240510e+02
  -1.467513e+02   1.536000e+02
  -2.499165e+02  -1.881186e+02
   4.079818e+01  -4.222890e+02
   3.921805e+02  -1.071742e+02
   4.880370e+02   2.758027e+02
   1.803411e+02   4.752758e+02
  -2.747349e+02   3.027231e+02
  -6.116422e+02  -1.195397e+01
  -4.064450e+02  -2.265979e+02
   5.297433e+01  -1.875798e+02
   2.850958e+02  -8.670405e+01
   2.900867e+02   3.621146e+01
   1.863217e+01  -2.146856e+01
  -9.399952e+01  -1.166934e+02
   7.124505e+01  -6.936027e+01
   2.382109e+02   5.087355e+01
   1.518284e+02   1.921948e+02
  -1.537298e+02   2.604268e+02
  -3.447989e+02   1.919380e+02
  -2.373008e+02  -5.825039e+01
   4.255273e+00  -3.110727e+02
   3.461497e+02  -3.488647e+02
   3.390775e+02  -1.573091e+02
   1.897543e+02   1.394802e+02
   5.542563e+01   3.683430e+02
  -5.584960e+01   3.673911e+02
  -2.791020e+01   1.572201e+02
  -5.273350e+01   1.466943e+02
  -1.563665e+02   9.463660e+01
  -2.943902e+02   3.859675e+01
  -2.516749e+02  -1.456756e+02
  -8.201215e+01  -2.333729e+02
   7.117168e+01  -2.346833e+02
   1.855968e+02   3.559971e+01
   1.339967e+02   2.158721e+02
   7.119957e+00   2.241780e+02
  -2.312412e+02   4.662131e+01
  -2.779636e+02  -1.527124e+02
  -1.276158e+02  -2.650571e+02
   6.928821e+01  -2.489975e+02
   1.333875e+02  -1.194186e+02
   1.186918e+02  -8.491805e+01
   1.058846e+02  -1.208615e+02
   2.996875e+02  -1.088738e+02
   3.974722e+02   1.081608e+02
   3.138983e+02   3.444969e+02
   3.717423e+00   3.978926e+02
  -3.817968e+02   4.320833e+02
  -4.213992e+02   1.971275e+02
  -3.269793e+02  -9.559347e+01
  -2.419929e+01  -2.811531e+02
   1.029877e+02  -1.463436e+02
   4.800807e+01  -5.948932e+01
  -1.460393e+02   4.231845e+01
  -1.161796e+02  -2.887359e+00
  -3.103356e+01  -1.992036e+02
   1.409470e+02  -1.301813e+02
   1.601167e+02   9.397339e+01
  -2.053778e+01   1.568655e+02
  -2.075402e+02   2.820213e+00
  -1.412722e+02  -2.563570e+02
   1.672360e+01  -3.423270e+02
   1.849101e+02  -1.712496e+02
   3.582861e+02   2.944266e+01
   3.219112e+02   2.272072e+02
   5.280187e+01   2.824157e+02
  -9.114759e+01   1.036217e+02
  -1.441525e+02   3.092665e+00
  -5.389232e+01  -1.728525e+01
   5.204366e+01   9.267119e+01
   5.473261e-01   9.235705e+01
  -1.658120e+02   6.094371e+01
  -9.188468e+01  -7.682235e+01
  -1.747893e+01  -8.390214e+01
   1.429499e+02   5.861168e+01
   1.266225e+01   1.227741e+02
  -1.194047e+02   9.343488e+01
  -3.180093e+02  -3.592147e+01
  -2.553839e+02  -1.530293e+02
  -6.340088e+01  -2.356723e+02
   1.988489e+02  -1.919749e+02
   2.544801e+02  -1.517794e+02
   1.279736e+02   3.918871e+01
  -3.992416e+01   3.133255e+01
  -3.822537e+01  -5.525907e+00
   4.615529e+01  -9.232661e+01
   2.201212e+02  -3.636794e+01
   2.264474e+02   1.024408e+02
   4.082332e+01   2.299267e+02
  -1.235476e+02   1.553017e+02
  -1.654983e+02  -4.392658e+00
  -3.315864e+01  -6.113655e+01
   5.384649e+01  -2.691565e+01
   2.566350e+01   1.035976e+02
  -1.319240e+02   8.243852e+01
  -1.637022e+02   4.213662e+01
  -1.275526e+02  -1.340726e+02
   9.414198e-01  -1.712104e+02
   1.741261e+02  -1.078612e+02
   1.850092e+02   1.605340e+00
   8.302642e+00   8.780751e+01
  -5.841075e+01   1.138653e+02
  -1.251946e+02   5.049407e+01
  -9.358136e+00  -4.583870e+01
   5.316208e+01  -5.032069e+01
  -6.515789e+01   6.903475e+01
  -8.629438e+01  -1.140663e+01
  -1.210155e+02  -1.003980e+02
  -1.667717e+01  -2.406855e+02
   1.231838e+02  -1.311263e+02
   2.071378e+02  -8.914201e+00
   1.981483e+02   1.596163e+02
   2.910840e+01   1.569741e+02
  -7.384816e+01   1.548554e+02
  -1.513201e+02  -1.430937e+01
  -1.173711e+02  -2.668002e+01
  -3.447137e+01  -8.701608e+01
  -8.517369e+01   3.194360e+01
  -3.726160e+01  -1.129642e+01
  -5.049622e+01  -5.453123e+01
   9.821203e+01  -1.520405e+02
   1.420457e+02  -7.820960e+01
   1.128190e+02   6.015469e+01
  -4.355169e+01   1.155371e+02
  -1.868597e+02   5.703236e+01
  -1.329633e+02  -4.223130e+01
  -6.355526e+01  -1.834991e+02
   1.030305e+02  -1.283975e+02
   2.048229e+02  -9.817739e+01
   2.048751e+02   3.255760e+01
   8.696133e+01   1.624283e+02
   6.127062e+00   9.261890e+01
  -6.010039e+01   1.072373e+02
  -1.107770e+01   6.327036e+01
  -7.046885e+01   1.016605e+02
  -6.829807e+01   1.154931e+02
  -1.147380e+02  -1.086449e+01
  -1.560572e+02  -8.764680e+01
  -6.901478e+01  -2.488676e+02
   1.102554e+02  -1.558343e+02
   1.665391e+02  -1.782621e+01
   1.440204e+02   1.468305e+02
  -2.061052e+01   1.748518e+02
  -4.392093e+01   5.689763e+01
  -3.456808e+01  -3.377243e+01
   2.341978e+01   6.085826e+00
   1.739952e+01  -6.331426e+01
  -2.628734e+01  -3.021441e+01
  -1.126541e+02  -2.076446e+01
  -2.732774e+01  -4.998038e+01
   1.045550e+02  -4.338916e+01
   1.938044e+02  -3.138079e+01
   1.419556e+02   7.335089e+01
  -2.072711e+01   1.057073e+02
  -1.056504e+02   7.445374e+01
  -1.214336e+02  -2.725808e+01
  -3.496581e+01  -1.640249e+01
   5.075001e+01  -3.145220e+01
   7.629346e+01   4.383954e+01
  -1.515422e+01   7.815886e+01
  -5.377940e+01   5.550778e+01
  -9.463331e+01   7.105828e+00
  -7.413076e+01  -4.438637e+01
  -1.344380e+01  -4.960815e+01
  -1.650544e+01   1.104875e+01
  -6.606242e+01  -9.380308e-01
  -3.897660e+01  -3.524035e+01
   4.058582e+01  -1.184899e+02
   1.298608e+02  -1.824396e+02
   1.456512e+02  -9.797964e+00
   9.441370e+01   1.107109e+02
  -2.297819e+01   1.457086e+02
  -4.922472e+01   6.886365e+01
  -1.148846e+02  -2.194167e+01
   6.635762e+01   1.668497e+01
   1.297471e+02  -7.995122e+00
   8.466083e+01   8.256575e+01
  -8.180529e+01   1.007033e+02
  -1.603714e+02   1.054068e+02
  -1.924473e+02  -2.860974e+01
  -3.050952e+00  -9.524842e+01
   2.491008e+01  -4.940495e+01
   3.207859e+01  -3.389223e+00
  -1.494480e+01  -6.015688e+00
  -1.035748e+02  -4.042492e+00
  -9.481498e+01  -1.194399e+02
   9.617828e+01  -1.149942e+02
   1.473443e+02  -6.021755e+01
   1.484654e+02   1.022710e+02
   3.589212e+01   1.955175e+02
  -5.733888e+01   1.328069e+02
  -1.107921e+02  -3.560152e+01
  -5.539672e+01  -8.449870e+01
   3.474887e+01  -1.065056e+02
   8.271016e+01   6.863551e+00
  -1.406539e+01   5.094710e+01
  -8.755779e+00  -5.370296e+00
   7.786329e-01  -4.267247e+01
   9.042692e+01  -2.339207e+01
   8.114206e+01   4.171430e+01
   4.475356e+01   9.992349e+01
  -3.137266e+01   1.937417e+01
  -1.859794e+02  -9.504488e+00
  -1.118322e+02  -8.465538e+01
  -1.551065e-01  -2.086634e+01
   7.796704e+01  -5.625366e+01
   7.977423e+01   1.818207e+01
   2.812209e+01   3.407550e+00
  -7.117772e+01   3.741886e+01
  -9.585978e+01  -1.266027e+01
   2.727538e+01  -3.110627e+01
   2.100086e+01   9.942986e+00
  -6.321793e+01  -1.464583e+01
  -1.122182e+02  -3.793067e-02
  -2.285258e+01  -9.430270e+01
   8.714931e+01  -1.239431e+02
   2.030645e+02  -8.227257e+01
   1.658115e+02   7.005710e+01
  -1.075521e+01   1.245456e+02
  -8.059080e+01   1.402827e+02
  -1.176068e+02   8.995391e+01
  -9.447374e+01   5.329075e+00
  -2.653550e+01  -1.052908e+01
   2.123627e+01  -4.911584e+01
  -3.646715e+01  -2.876559e+01
  -5.901212e+01  -6.103759e+01
  -1.201178e+01  -9.868095e+01
   4.359969e+01  -6.995829e+01
   1.017174e+02  -5.769960e+00
   8.026960e+01   1.275568e+02
  -2.177477e+01   1.379990e+02
  -7.481700e+01   3.988325e+01
  -9.627113e+01  -4.684514e+01
  -2.671317e+01  -7.968118e+01
   5.205886e+01  -4.305180e+01
   5.835736e+01   7.539613e+01
   5.538748e+00   4.504785e+01
  -5.507936e+01   8.387329e+01
  -2.470044e+01  -4.728974e+00
   2.859490e+01  -5.711966e+01
   8.263701e+01  -8.160039e-01
   1.082259e+01   6.276875e+01
  -6.514429e+01   1.098453e+02
  -9.947894e+01   4.637130e+01
  -5.561803e+01  -2.590576e+01
  -5.621808e+01  -7.502090e+01
   3.653060e+01  -1.044370e+02
   6.584923e+01   7.105209e+00
  -1.261210e+01   8.582158e+01
  -6.002146e+01  -1.314323e+01
  -6.344218e+01  -3.837572e+01
  -7.768717e+00  -7.110282e+01
   3.497862e+01  -3.618743e+01
   3.572501e+01   8.417406e+00
   2.771026e+00   2.260971e+00
  -2.602833e+01  -2.679205e+01
  -3.417184e+01  -2.211328e+01
  -3.235580e+01  -1.851817e+01
   6.855443e+01   1.767255e+01
   3.480604e+01   3.631773e+01
  -6.903204e+01  -1.521960e+01
  -4.865767e+01  -3.565539e+01
  -3.900335e+01  -1.321921e+02
   7.302094e+01  -6.716868e+01
   6.419582e+01  -1.798824e+01
  -1.851774e+00   1.707922e+01
  -4.395761e+01   5.138427e+01
  -8.684810e+01  -9.104961e+00
  -4.799500e+01  -1.943548e+01
   5.578714e+01  -4.484893e+01
   8.879216e+01  -5.668835e+01
   1.420133e+01   1.981022e+01
  -5.236229e+01   1.582018e+01
  -5.543001e+01  -2.721429e+01
   2.248241e+01  -3.191624e+01
   5.965704e+01  -7.998278e+01
