
 $NMID
 id='ANONYMOUS ', fmtdat='(2E16.6)'
 volume=1.0
 tramp=1.0
 $END
   2.998789e+03   1.373424e+01
   1.677183e+03   1.546921e+03
  -6.518383e+01   1.821969e+03
  -1.052592e+03   1.142788e+03
  -9.092447e+02   2.390094e+02
  -1.849966e+01  -1.749568e+02
   2.658479e+02   1.450075e+02
   3.590155e+01   4.956827e+02
  -3.831977e+02   5.274605e+02
  -5.780190e+02   1.140044e+02
  -3.397786e+02  -4.034445e+02
   4.747289e+01  -5.323935e+02
   2.773725e+02  -8.565795e+01
   2.530010e+02   4.219165e+02
  -1.244339e+02   4.032873e+02
  -4.268308e+02   1.254634e+02
  -4.072688e+02  -4.217740e+02
   1.973105e+02  -5.479029e+02
   4.711733e+02  -3.196322e+02
   4.733828e+02   1.887705e+02
   8.984976e+01   3.501294e+02
  -8.254711e+01   2.667038e+02
   3.881825e+01   9.945929e+01
   1.967169e+02   4.383248e+01
   2.488187e+02   2.162946e+02
  -5.125109e+01   2.869934e+02
  -3.849177e+02   1.370359e+02
  -4.991399e+02  -2.515478e+02
  -1.719539e+02  -3.695802e+02
   2.899916e+02  -1.420934e+02
   4.462066e+02   1.559274e+02
   1.812941e+02   3.716745e+02
  -2.228217e+02   3.414159e+02
  -3.625955e+02   1.684991e+02
  -3.051799e+02  -1.537591e+02
  -1.058555e+02  -2.506899e+02
  -2.021103e+01  -9.232584e+01
  -4.383191e+01   7.762570e+01
  -1.171032e+02   1.498949e+02
  -2.070091e+02  -1.474714e+02
  -2.296319e+01  -4.714695e+02
   1.908711e+02  -3.886740e+02
   3.294534e+02  -5.726577e+01
   1.796405e+02   1.961134e+02
  -4.979183e+01   1.442772e+02
  -1.797524e+02  -2.198847e+02
   1.455226e+02  -3.312923e+02
   3.950949e+02  -3.448096e+01
   4.475233e+02   3.358490e+02
   1.218614e+02   3.943190e+02
  -2.197277e+02   2.189924e+02
  -4.439464e+02  -9.696054e+01
  -3.312360e+02  -1.531058e+02
   1.298746e+01  -1.505925e+02
   2.492408e+02  -5.608764e+01
   2.244321e+02   5.034900e+01
  -1.500444e+01   3.816074e+00
  -5.814233e+01  -9.415226e+01
   6.733901e+01  -6.291932e+01
   1.302241e+02   4.546753e+01
   7.183360e+01   1.798169e+02
  -1.403897e+02   1.876960e+02
  -3.480053e+02   8.523691e+01
  -2.624727e+02  -8.453123e+01
   2.456936e+01  -3.168350e+02
   2.530486e+02  -3.104226e+02
   3.625029e+02  -1.410673e+02
   1.707686e+02   1.702622e+02
   3.355962e+01   2.553414e+02
  -6.959117e+01   2.296919e+02
  -4.364927e+01   1.542038e+02
  -2.218073e+01   7.652486e+01
  -1.025461e+02   4.278830e+01
  -2.208871e+02   3.231615e+01
  -1.471009e+02  -1.294252e+02
  -4.096819e+01  -2.489434e+02
   1.349245e+02  -1.581944e+02
   2.144061e+02  -2.704626e+01
   1.178206e+02   2.036819e+02
  -8.530965e+01   2.449306e+02
  -2.137719e+02   6.293251e+01
  -2.265325e+02  -1.582070e+02
  -1.279075e+02  -2.808506e+02
   2.167609e+01  -2.207163e+02
   1.367086e+02  -9.765330e+01
   1.795377e+02  -9.040485e+01
   1.485284e+02  -4.631248e+01
   2.853071e+02  -6.339098e+01
   3.612704e+02   1.022619e+02
   2.581737e+02   2.778626e+02
  -1.437494e+01   3.971903e+02
  -3.308016e+02   3.765240e+02
  -4.349456e+02   1.174285e+02
  -2.644643e+02  -1.056604e+02
  -4.791834e+00  -2.282134e+02
   9.629788e+01  -2.057712e+02
   5.833584e+01  -3.503859e+01
  -5.726269e+01   2.425238e+01
  -9.479177e+01   1.492695e+01
  -9.637565e+00  -8.274814e+01
   1.191966e+02  -9.308524e+01
   8.835580e+01   9.122723e+01
  -6.792874e+01   7.821198e+01
  -1.667712e+02  -1.007335e+01
  -1.208925e+02  -1.751744e+02
   7.507885e+00  -3.306273e+02
   2.157252e+02  -1.878549e+02
   3.333836e+02   4.576763e+01
   2.207030e+02   2.630219e+02
  -1.052297e+01   2.588679e+02
  -1.127183e+02   1.141805e+02
  -1.610763e+02  -9.640752e-01
  -1.342567e+01   7.212195e+00
   4.208359e+01   2.476354e+01
  -8.527908e+00   1.332480e+02
  -1.311960e+02   1.001449e+02
  -7.815349e+01  -4.731778e+01
  -3.460140e+01  -1.255074e+01
   5.202033e+01   4.044459e+01
   4.208536e+01   5.026260e+01
  -1.022950e+02   1.496639e+02
  -2.681790e+02  -6.617243e+00
  -2.201058e+02  -1.053739e+02
  -4.768133e+01  -2.403328e+02
   2.008868e+02  -2.693061e+02
   2.467425e+02  -9.922433e+01
   1.348080e+02   3.681518e+00
   3.981159e+01   3.497248e+01
  -1.154483e+02   2.821479e+01
   5.785779e+01  -5.917157e+01
   1.811282e+02  -3.628845e+01
   1.452252e+02   6.549559e+01
   2.861989e+01   1.790538e+02
  -2.717003e+01   1.525783e+02
  -9.946588e+01   1.424600e+01
  -1.394746e+01   2.253581e+01
   3.140706e+01   4.724258e+01
   1.915833e+01   5.228009e+01
  -7.494992e+01   1.164546e+02
  -2.242346e+02  -8.208549e+00
  -1.122253e+02  -1.583132e+02
   9.363500e+00  -1.738797e+02
   1.376526e+02  -1.464579e+02
   2.236614e+02  -4.313819e+01
   4.352619e+01   7.002267e+01
  -1.056961e+02   6.662948e+01
  -6.364116e+01   3.006144e+00
   3.672629e+00  -1.543536e+00
   1.422178e+00  -2.330866e+01
  -3.923861e+01   2.620749e+01
  -1.281880e+02  -4.675870e+01
  -1.246915e+02  -8.888880e+01
  -1.143454e+01  -1.900123e+02
   1.447134e+02  -1.033830e+02
   2.741129e+02   2.979585e+01
   1.929306e+02   1.522370e+02
   5.284534e+01   1.782232e+02
  -9.775662e+01   1.737610e+02
  -1.266073e+02   4.401490e+01
  -7.042614e+01  -8.208918e+00
  -2.297838e+01  -4.059422e+01
  -6.780012e+01   1.671435e+00
  -3.783362e+01  -1.465784e+01
  -6.080241e+00  -5.195787e+01
   3.497991e+01  -7.314754e+01
   8.946876e+01  -7.548491e+01
   9.193171e+01   4.211677e+01
  -7.561191e+00   1.849721e+02
  -1.547153e+02   8.185623e+01
  -1.650041e+02  -7.169402e+01
  -7.183438e+01  -2.117363e+02
   1.405159e+02  -1.973131e+02
   2.492247e+02  -1.217855e+02
   2.202219e+02   5.994225e+01
   6.626535e+01   1.685196e+02
  -1.220435e+00   7.859679e+01
  -8.490140e+01   1.356371e+02
  -9.877267e+01   1.100951e+02
  -1.048827e+02   7.611590e+01
  -8.986776e+01   9.237271e+01
  -1.375776e+02  -5.311317e+01
  -7.151946e+01  -1.773502e+02
  -4.787261e+01  -2.298679e+02
   4.416418e+01  -1.547045e+02
   1.482286e+02   9.436089e-01
   1.056651e+02   1.259180e+02
   2.719265e+01   1.570691e+02
  -1.215650e+02   5.827774e+01
  -9.159373e+00  -4.162683e+01
  -5.995366e+01  -4.922191e+01
   4.268036e+01  -4.277346e+01
  -4.929616e+00  -1.138273e+01
  -9.647961e+01  -1.925484e+01
  -6.196765e+01  -5.237149e+01
   9.417436e+01  -7.141373e+01
   1.884687e+02   2.420772e+01
   1.325642e+02   6.396506e+01
  -2.225491e+00   1.003601e+02
  -1.251508e+02   7.627765e+01
  -1.789694e+02  -1.661583e+00
  -7.897252e+00  -5.737495e+01
   6.204272e+01   2.289359e+01
   5.379531e+01   5.428646e+01
  -2.844218e+01   8.461162e+01
  -1.015044e+01   6.236298e+01
  -5.675278e+01  -7.415810e+01
  -1.603224e+01  -1.692816e+01
  -5.349980e+01  -7.165985e+01
  -9.247502e+01  -9.730670e+00
  -9.575170e+01   1.047886e+01
  -4.277796e+01  -1.218168e+02
  -1.305079e+01  -1.666778e+02
   1.359031e+02  -1.547425e+02
   2.204606e+02  -9.284437e+01
   1.171576e+02   6.437081e+01
   2.556989e+01   1.321403e+02
  -1.073975e+02   5.632379e+01
  -5.614310e+01   8.741135e-01
   4.695531e+01  -5.547492e+00
   1.786199e+02   2.848446e+01
   9.479842e+01   1.098952e+02
  -1.352338e+02   9.430818e+01
  -1.505932e+02   1.942959e+01
  -1.537097e+02  -3.541217e+01
  -4.817818e+01  -7.511113e+01
   2.543398e+01  -2.447396e+01
   1.760914e+01  -1.212410e+01
  -2.955439e+01   7.722066e+00
  -2.512814e+01   5.595642e+00
  -2.432338e+01  -1.315927e+02
   4.345612e+01  -1.548114e+02
   1.732968e+02  -7.402433e+01
   1.319215e+02   1.103505e+02
   4.200426e+01   2.234446e+02
  -8.550242e+01   1.344876e+02
  -5.019502e+01  -2.204892e+01
  -5.039466e+01  -1.362369e+02
   7.213070e-01  -7.531218e+01
   1.326731e+02   1.687823e+01
   1.711578e+01   5.784554e+01
  -4.208387e+01   3.521826e+01
   1.283186e+01  -1.184050e+01
   5.210765e+01   5.432587e+01
   9.421543e+01   8.191246e+01
   2.799911e+01   1.084186e+02
  -4.918361e+01   3.818029e+01
  -1.305819e+02  -5.520854e+01
  -1.034749e+02  -7.751783e+01
  -4.148761e+01  -3.361279e+01
   5.243570e+01  -1.431571e+01
   6.241684e+01   2.011162e+01
   4.367309e+00   3.491079e+01
  -5.066100e+01   2.217380e+01
  -2.284763e+01  -1.249181e+01
   3.610595e+01  -2.275379e+01
  -5.844246e+00  -6.790636e+00
  -4.661371e+01  -1.680261e+01
  -7.065230e+01  -9.653053e+00
  -1.314107e+01  -8.263168e+01
   5.582568e+01  -9.143819e+01
   1.427962e+02   1.122036e+01
   1.618082e+02   1.002313e+02
   3.803319e+01   1.929010e+02
  -6.636492e+01   1.258515e+02
  -1.068363e+02   5.291059e+01
  -1.091990e+02  -3.516530e+01
  -1.973073e+01  -1.084703e+01
   6.305959e+01  -6.322000e+01
  -2.651334e+01  -3.813918e+01
   1.724149e+01   7.709355e+00
   5.670430e+01  -1.188322e+02
   1.445019e+01  -7.494610e+01
   7.891639e+01  -5.989722e+01
   4.598245e+01   9.092171e+01
  -1.529164e+01   9.972308e+01
  -7.466023e+01   4.160232e+01
  -1.017603e+02  -5.607415e+01
  -2.656093e+01  -1.334284e+02
   1.153824e+01  -8.969221e+01
   1.035844e+02   2.468035e+01
   5.515887e+01   7.902743e+01
  -3.624362e+01   5.278775e+01
  -4.429997e+01   4.932235e+01
  -4.962898e+01  -1.370890e+01
   6.203043e+01   1.306315e+01
   4.079622e+01   2.409110e+01
  -4.229928e+01   6.689039e+01
  -1.221729e+02   5.091309e+01
  -8.964219e+01  -1.821432e+01
   9.593500e+00  -7.791369e+01
   6.714698e+01  -7.225125e+01
   4.999006e+01  -1.551318e+01
   3.780145e+01   9.694920e+01
  -1.216884e+01   8.340524e+01
  -6.559196e+01   9.908796e-01
  -4.624692e+01  -5.945900e+01
   1.146687e+01  -5.076155e+01
   1.438038e+01  -2.086271e+01
   6.120181e+01   4.195678e+01
   2.964018e+01   3.650706e+00
  -7.716740e+01  -1.386724e+01
   2.366390e+01  -2.431852e+01
  -9.040635e+00   4.383658e+01
  -1.169987e+01   6.431890e+01
  -3.587497e+01  -1.599765e+01
  -8.330460e+01  -4.026665e+00
  -4.646110e+01  -1.150687e+02
   8.517154e+01  -4.101116e+01
   9.820484e+01  -6.500912e+00
  -3.835781e+01   4.801709e+01
  -6.180696e+01   1.057849e+02
  -5.769212e+01  -7.779866e+01
  -4.401355e+01  -6.025576e+01
   3.472210e+01  -4.582467e+01
   6.898972e+01  -3.181528e+01
   8.444426e+01  -2.235284e+01
  -2.434123e+01   3.917498e+01
   1.772044e+00  -9.969440e+00
  -5.987149e+00   1.998600e+01
   6.492321e+01   2.557487e+01
