
 $NMID
 id='ANONYMOUS ', fmtdat='(2E16.6)'
 volume=1.0
 tramp=1.0
 $END
  -3.208361e+03  -3.902217e+01
  -1.885950e+03  -1.615148e+03
   2.075328e+02  -1.857239e+03
   1.201650e+03  -8.089516e+02
   7.230273e+02  -5.272635e+01
  -1.725069e+02   2.218512e+02
  -4.423283e+02  -2.697263e+02
   5.342718e+01  -5.908997e+02
   4.672508e+02  -4.509938e+02
   6.107785e+02   5.361445e+01
   2.665377e+02   4.210633e+02
  -9.605666e+01   5.062427e+02
  -3.488927e+02   7.755617e+01
  -1.543591e+02  -4.136791e+02
   2.012923e+02  -5.756141e+02
   3.333817e+02   9.973588e+00
   1.792838e+02   3.921520e+02
  -1.809912e+02   4.883216e+02
  -4.474190e+02   1.236755e+02
  -4.064756e+02  -2.631810e+02
  -1.454114e+02  -2.414997e+02
   1.340093e+02  -1.307614e+02
   1.270296e+02  -1.025366e+02
  -4.220869e+01  -1.119732e+01
  -2.742877e+02  -2.600188e+02
  -9.154478e+01  -3.210758e+02
   3.797666e+02  -2.661161e+02
   6.166022e+02   1.863848e+02
   1.986247e+02   3.772768e+02
  -2.679061e+02   2.612525e+02
  -4.737220e+02  -7.483997e+01
  -1.681961e+02  -3.106167e+02
   2.702687e+02  -2.976527e+02
   3.590401e+02  -6.408914e+01
   2.255357e+02   1.883082e+02
  -4.765683e+01   2.845235e+02
  -4.734728e+01   1.529712e+02
   3.843753e+00  -1.398357e+02
   1.640776e+02  -2.057195e+02
   2.484302e+02   1.175363e+02
   5.211768e+01   4.423429e+02
  -2.040539e+02   3.792958e+02
  -3.267659e+02  -2.550524e+01
  -1.517622e+02  -3.354787e+02
   2.737774e+02  -8.074845e+01
   1.335634e+02   2.390267e+02
  -1.505913e+02   3.372198e+02
  -3.856039e+02   7.858695e+01
  -4.695766e+02  -3.209859e+02
  -1.045112e+02  -4.070818e+02
   3.038527e+02  -1.975802e+02
   4.244427e+02   9.555346e+01
   2.450023e+02   2.688642e+02
  -1.222756e+02   1.811637e+02
  -2.622442e+02   3.218100e+01
  -1.467263e+02  -4.131233e+01
   2.147747e+01  -5.659325e+01
   5.305116e+01   1.000877e+02
  -9.931077e+01   3.051862e+01
  -1.930033e+02  -3.914800e+01
  -7.850227e+01  -1.467858e+02
   1.228913e+02  -1.810143e+02
   3.245170e+02  -8.912963e+01
   1.682810e+02   5.829205e+01
  -2.043465e+01   2.321080e+02
  -2.033860e+02   3.212452e+02
  -3.097344e+02   1.368738e+02
  -2.039730e+02  -1.719367e+02
  -5.378762e+01  -3.091848e+02
   8.039018e+01  -2.704252e+02
  -2.209301e+01  -1.490187e+02
  -3.052012e+01  -8.246536e+01
   1.111995e+02  -7.804596e+01
   2.185327e+02  -8.596068e+01
   2.480693e+02   1.414420e+02
   8.801462e+01   2.337251e+02
  -7.144008e+01   1.026944e+02
  -1.784887e+02   5.908244e+01
  -1.565976e+02  -1.674622e+02
   7.295356e+01  -1.742959e+02
   2.421479e+02  -8.549687e+01
   2.803607e+02   1.459294e+02
   1.250691e+02   3.152074e+02
  -9.404400e+01   2.568264e+02
  -1.547185e+02   1.398330e+02
  -9.899112e+01   2.661450e+01
  -1.168046e+02   1.213345e+01
  -2.033780e+02   6.564009e+01
  -3.342928e+02  -1.022117e+02
  -2.283911e+02  -2.083711e+02
   1.006656e+01  -3.432288e+02
   2.556866e+02  -3.650625e+02
   3.747084e+02  -1.654115e+02
   2.303088e+02   6.274237e+01
   4.646414e+01   2.124068e+02
  -5.435588e+01   2.094554e+02
  -9.960295e+01   2.332346e+01
   1.045562e+02   3.036426e+00
   9.997624e+01   1.357538e+01
  -1.346495e+01   1.411229e+02
  -1.389694e+02   7.977505e+01
  -1.735858e+02  -6.417830e+01
   3.310319e+01  -8.065868e+01
   1.648669e+02  -1.365418e+01
   1.211188e+02   2.457161e+02
  -6.933740e+01   2.762355e+02
  -1.618724e+02   1.418614e+02
  -2.941381e+02  -4.374091e+01
  -2.314669e+02  -1.874022e+02
  -7.303483e+01  -2.293044e+02
   1.219260e+02  -1.050866e+02
   1.314925e+02   1.997730e+01
   4.723220e+01   6.907687e+01
  -7.246006e+01  -3.037638e+01
  -3.152905e+01  -1.295010e+02
   1.215267e+02  -1.158376e+02
   1.218673e+02   1.304506e+01
   5.947626e+01   3.439155e+01
  -7.532319e+01   3.479502e+01
  -1.625426e+01  -4.661645e+00
   1.487524e+02  -4.847809e+01
   2.526968e+02  -1.706045e+01
   1.646910e+02   1.573687e+02
   5.169378e+00   2.066369e+02
  -2.394507e+02   1.591148e+02
  -1.980448e+02   1.162378e+02
  -1.699924e+02  -4.909267e+01
   2.495402e+01  -1.047305e+02
   1.899448e+01   7.118918e+00
  -2.859066e+01   3.075959e+01
  -2.023585e+02   5.363594e+01
  -1.452906e+02  -8.577024e+01
  -3.264039e+01  -1.609737e+02
   8.899437e+01  -1.078115e+02
   8.641538e+01   5.078837e+01
   7.139642e+01   9.479444e-01
  -2.667796e+01  -3.168052e+01
  -1.732794e+01  -4.859214e+01
   8.697959e+01  -8.604685e+01
   1.611947e+02  -1.755890e+01
   1.402253e+02   1.022327e+02
   5.760096e+00   1.151128e+02
  -9.063918e+01   1.098553e+02
  -1.233307e+02   4.478345e+01
  -1.917427e+01  -4.106425e+01
   8.699679e+01  -7.273444e+01
   5.646385e+01  -4.503676e+01
   6.445422e+01   2.998259e+01
  -4.327075e+01   3.267995e+01
   9.003184e+01  -1.520531e+01
   6.478573e+01   3.715507e+01
   1.198439e+02   6.506413e+01
   4.107524e+00   1.397376e+02
  -1.396454e+02   1.007867e+02
  -2.279696e+02   2.391382e+01
  -2.236357e+02  -1.008395e+02
  -4.315122e+01  -1.243451e+02
   6.094990e+01  -1.603783e+02
   5.497746e+01   1.873501e+01
   9.539409e+01   4.447318e+01
  -9.843429e+00   4.108166e+01
   2.296343e+01  -5.591914e+01
   6.627153e+01   1.423029e+01
   4.394247e+01   4.272458e+01
   1.105346e+01   5.506508e+01
  -1.079431e+02   3.691072e+01
  -7.685685e+01  -7.292771e+01
   4.026006e+01  -7.473163e+01
   1.400572e+02  -8.111651e+01
   1.778824e+02   1.127335e+01
   4.331471e+01   1.606327e+02
  -4.202224e+01   1.881732e+02
  -2.166916e+02   6.377511e+01
  -1.944544e+02  -4.786353e+01
  -7.324301e+01  -8.327613e+01
   7.909516e+01  -1.207075e+02
   5.618563e+01  -9.491714e+01
   2.245444e+01  -9.398567e+01
   3.447723e+01  -4.737417e+01
   1.041080e+02  -7.489898e+01
   1.020923e+02   2.333202e+01
   5.180176e+01   9.390136e+01
  -2.798359e+01   1.555509e+02
  -7.510427e+01   1.069438e+02
  -9.147958e+01   1.541020e+00
  -9.530229e+01  -6.254372e+01
   1.719558e+01  -1.325271e+02
   6.997134e+01  -1.309742e+02
   5.761925e+01  -2.821356e+01
   5.963325e+01  -3.672874e+00
   7.354994e+01   3.384841e+01
   5.377110e+01   6.998500e+01
   1.222890e+02   5.332991e+00
   3.142557e+01   7.800861e+00
  -4.899351e+01   4.460996e+01
  -1.217596e+02   1.618606e+00
  -7.555314e+01  -4.206092e+01
  -8.039361e+00  -9.115485e+01
   1.018468e+02  -3.951722e+01
   9.169354e+01   2.461768e+01
   6.659264e+00  -1.381261e+01
  -4.578780e+01   3.099109e+01
  -7.655045e+01  -1.552740e+01
  -3.168143e+01  -3.022319e+01
   2.064157e+01  -3.959203e+01
   3.877871e+01  -4.356684e+01
   1.822512e+01   4.676931e+01
   1.661973e+01  -2.670376e+01
   3.610267e+01  -4.785796e+01
   4.057394e+01  -3.887754e+01
   5.524975e+01   3.599399e+01
  -2.671792e+01   1.008220e+02
  -1.046503e+02   1.118177e+02
  -1.007377e+02  -3.099507e+01
  -1.241616e+02  -1.089126e+02
  -4.578760e+01  -9.388227e+01
   6.130889e+01  -5.129604e+01
   3.735608e+01  -7.839326e+01
  -6.664029e+01  -1.185575e+01
  -9.448230e+01  -5.876614e+01
  -4.002012e+01  -5.999614e+01
   4.646558e+01  -1.210860e+02
   1.562281e+02  -1.068732e+00
   9.886970e+01   4.355903e+01
   2.907044e+01   6.021994e+01
  -4.171616e+01   1.820561e+01
  -4.276679e+01  -4.012396e-01
   2.660198e+01   4.128100e+00
   5.236820e+01  -1.172186e+01
   3.948134e+00   3.972647e+01
  -6.837585e+01   1.314897e+02
  -1.135466e+02   4.426166e+01
  -3.194699e+01  -6.962789e+01
  -1.504920e+01  -1.729116e+02
   5.962547e+01  -1.166263e+02
   9.878396e+01  -2.876978e+00
   5.451131e+01   6.179604e+01
   5.729624e+01   3.928129e+01
  -1.275961e+01  -2.791373e+01
  -7.297675e+00  -4.194437e+01
   3.009479e+01  -2.032349e+01
   7.077826e+01  -2.822721e+01
  -2.892833e+01   1.502265e+01
  -9.370338e+01  -6.802710e+01
  -9.355919e+00  -1.033796e+02
   2.574305e+01  -2.852533e+01
   9.458713e+01   3.903884e+01
   1.131978e+02   6.170498e+01
  -2.451793e+01   5.789923e+01
  -4.215669e+01   2.339380e+01
  -4.337812e+01  -1.328030e+01
  -6.414225e+00  -2.484760e+01
   3.361503e+01  -3.791845e+00
   2.706096e+01  -1.660740e+01
  -2.474671e+01   1.350897e+01
   3.617317e+01  -3.716777e+01
   6.305021e+01   3.531921e+00
   4.425953e+01  -3.727926e+00
   1.603923e+01   1.069267e+02
  -6.861148e+01   7.289469e+01
  -1.316691e+02   3.260670e+01
  -1.129300e+02  -3.452352e+01
  -3.546476e+01  -1.166669e+02
   3.874340e+01  -1.062312e+02
   6.441737e+01  -6.915115e+01
   2.543692e+01  -4.014223e+01
  -1.169551e+01   2.812814e+00
  -5.126145e+01  -5.608655e+00
   5.603298e+00   2.073094e+01
   2.867299e+01   4.972324e+01
  -2.909586e+01   7.175574e+01
  -3.668391e+01   6.072843e+01
  -6.756585e+01  -6.117226e+00
  -3.314071e+01  -1.229678e+02
  -1.424640e+01  -9.418711e+01
   9.040740e+01  -3.493609e+01
   9.149675e+01   7.409152e+01
  -7.828042e+00   9.522831e+01
  -4.477365e+01   6.695798e+01
  -8.503458e+01   1.941752e+01
  -1.853662e+01  -2.205965e+01
   2.558544e+01  -1.465862e+01
   6.510135e+00  -4.010983e+01
  -4.019155e+01   2.292312e+01
  -6.040023e+01   2.377825e+01
  -2.495266e+01  -6.340014e+01
   5.866467e+01  -5.054252e+01
   5.114655e+01  -4.478366e+01
   4.794144e+01   1.107157e+02
  -4.524852e+01   4.691719e+01
  -4.228754e+01   1.871716e+01
   9.056123e+00  -3.905957e+01
   1.349802e+01  -6.008629e+01
   8.779288e+00   3.264976e+00
   3.876671e+01  -1.445551e+01
   2.139432e+01   2.176315e+01
  -4.640017e-01   6.158751e+01
  -3.798124e+01   1.149259e+01
   2.054160e+00  -4.322943e+00
  -9.750223e+00  -3.445107e+00
   3.361144e+01   3.782310e+01
  -4.728816e+01   1.876515e+01
   9.966069e+00  -1.285808e+01
  -2.557523e+01  -2.138930e+01
   5.847616e+00  -7.880188e+01
   2.582117e+01   7.453827e+00
   5.859781e+01   6.499002e+01
  -6.435923e+01   1.105900e+01
  -4.349695e+01  -5.535495e+00
  -2.123381e+01  -4.388652e+01
   4.552897e+01  -1.955295e+01
   2.344388e+01   3.136915e+01
   2.674125e+01   7.581495e+01
  -4.031815e+01   7.181992e+01
  -7.001067e+01  -3.198993e+01
  -3.183713e+01  -1.818980e+01
   2.269960e+01  -2.228804e+01
   4.002976e+01   1.225146e+00
  -2.721093e-01   2.952031e+01
  -6.682973e+01  -1.632493e+01
