
 $NMID
 id='ANONYMOUS ', fmtdat='(2E16.6)'
 volume=1.0
 tramp=1.0
 $END
   1.696706e+03   1.276544e+02
   1.038360e+03   6.094647e+02
   1.362081e+02   9.178553e+02
  -4.097484e+02   7.156761e+02
  -5.289457e+02   3.900251e+02
  -1.572090e+02  -7.541425e+01
   1.246604e+02  -1.188923e+01
   1.281148e+02   2.112895e+02
  -5.911797e+01   3.727194e+02
  -3.157070e+02   1.619932e+02
  -2.392867e+02  -1.884839e+02
  -2.150796e+01  -2.472569e+02
   1.125239e+02  -8.921782e+01
   1.514641e+02   1.641912e+02
  -2.796530e+01   2.169764e+02
  -2.099510e+02   6.150571e+01
  -1.441836e+02  -2.426972e+02
   7.702326e+01  -3.101885e+02
   2.897557e+02  -2.019244e+02
   2.676047e+02   1.157590e+02
   1.094733e+02   1.704395e+02
  -5.211197e+01   1.915975e+02
  -5.621040e+00   1.272798e+02
   1.143946e+02   9.517937e+01
   1.046802e+02   1.769589e+02
  -4.872854e+01   1.287783e+02
  -2.199879e+02   2.616270e+01
  -2.776656e+02  -9.276935e+01
  -1.679783e+02  -9.783671e+01
   1.877518e+02  -9.531174e+01
   2.234795e+02   1.234953e+02
  -5.055869e+01   2.704904e+02
  -1.511330e+02   1.304173e+02
  -2.207758e+02   5.520781e+01
  -1.425512e+02  -9.129065e+01
  -8.734639e+01  -1.283834e+02
  -4.816542e+01  -9.922517e+01
  -8.214132e+01   1.134142e+01
  -6.888565e+01   7.261081e+01
  -6.878859e+01  -7.092270e+01
   5.815877e+00  -2.706675e+02
   5.546329e+01  -2.093963e+02
   9.119236e+01  -4.047448e+00
  -2.031166e-01   7.030507e+01
  -4.396634e+01  -2.136330e+01
  -4.403097e+01  -1.875468e+02
   9.382542e+01  -1.931813e+02
   2.698580e+02  -7.708651e+00
   2.034807e+02   2.104536e+02
   1.283552e+02   2.773522e+02
  -1.737372e+02   9.771691e+01
  -2.593884e+02  -4.609377e+01
  -1.600881e+02  -1.244873e+02
  -2.830481e+01  -5.211602e+01
   1.096916e+02  -4.961245e+01
   9.626778e+01  -3.568345e+01
   4.144832e+01  -7.930908e+01
   1.262368e+01  -4.451516e+00
   8.539374e+01   2.921754e+01
   1.461954e+02   2.043955e+01
   6.727854e+01   1.018529e+02
  -7.046084e+01   1.443464e+02
  -2.258407e+02   1.069292e+02
  -1.795459e+02  -6.790654e+01
  -1.360709e+01  -2.063210e+02
   1.810728e+02  -2.286311e+02
   2.152073e+02  -5.308408e+01
   1.085086e+02   9.041651e+01
   7.895035e+00   1.631285e+02
  -6.293157e+00   1.844562e+02
   9.660497e+00   1.628419e+02
   4.411411e+01   1.124373e+02
  -1.347526e+02   9.375796e+01
  -1.732249e+02  -1.507507e+01
  -1.182127e+02  -1.106242e+02
   1.786369e+01  -1.070587e+02
   7.600975e+01  -1.299096e+02
   1.036221e+02   3.228959e+01
   6.782238e+00   1.609741e+02
  -3.090114e+01   6.098335e+01
  -1.432781e+02   3.170260e+01
  -1.661127e+02  -8.771117e+01
  -1.087531e+02  -1.565557e+02
   1.089454e+01  -1.948998e+02
   6.923270e+01  -1.132094e+02
   9.856682e+01  -8.168629e+01
   1.126800e+02  -7.399479e+01
   2.046936e+02   5.500425e+00
   2.511148e+02   4.585222e+01
   1.800482e+02   2.023374e+02
  -5.301869e+01   2.817946e+02
  -2.027175e+02   2.437555e+02
  -2.841460e+02   1.125635e+02
  -1.555535e+02  -3.143047e+01
  -3.479659e+01  -1.457093e+02
   3.751847e+00  -6.925079e+01
  -2.932296e+01   1.423982e+01
  -6.574352e+01  -2.820309e+01
  -3.131000e+01  -4.247376e+01
   2.822363e+01  -1.165183e+02
   3.095097e+01  -4.327021e+01
   1.039730e+01   2.284378e+01
  -7.348520e+01   7.239254e+01
  -1.506673e+02  -2.999097e+01
  -6.124539e+01  -1.481676e+02
  -4.161041e+00  -2.299558e+02
   1.167980e+02  -1.321058e+02
   2.187044e+02   2.457848e+01
   1.364186e+02   1.285226e+02
   3.666229e+01   1.321157e+02
  -7.062955e+01   7.103684e+01
  -5.985057e+01   1.886138e+01
  -8.681129e+01  -3.681199e+01
   5.243384e+00   6.181713e+01
   3.883576e+00   1.009383e+02
  -8.383263e+01  -1.111125e+01
  -4.278301e+01  -3.363493e+01
   1.874813e+01   6.526804e+00
   6.200733e+01   3.223157e+01
   6.092472e+00   7.837238e+01
  -1.154231e+02   9.560480e+01
  -2.370456e+02  -3.667244e+01
  -2.239065e+02  -9.522867e+01
  -4.867595e+01  -1.676518e+02
   1.472172e+02  -1.707134e+02
   1.777088e+02  -5.302308e+01
   9.750853e+01   2.227672e+01
   2.090564e+01  -9.726925e+00
  -4.185885e+01   2.467142e+01
   5.272762e+01   2.278286e+01
   1.372066e+02  -1.536378e+01
   1.232266e+02   3.448141e+01
  -5.603684e+00   1.186109e+02
  -1.013705e+02   7.028567e+01
  -4.624490e+01  -1.621454e+01
  -2.650803e+01  -1.649586e+01
   5.832594e+01  -4.669770e+00
   4.966516e+01   7.897549e+01
  -3.427862e+01   9.621772e+01
  -1.684896e+02   2.671761e+01
  -1.225822e+02  -2.214439e+01
  -4.486748e+01  -5.722811e+01
   1.176817e+02  -3.414222e+01
   1.184407e+02   1.201186e+01
   7.383912e+01   3.036029e+01
   2.366739e+00   5.481279e+01
  -4.758820e+01   3.559522e+01
   3.008857e+01   1.021808e+01
   4.104592e+01   3.988308e+01
   5.585277e+00   1.580289e+01
  -7.391204e+01  -3.830142e+01
  -8.149970e+01  -8.054009e+01
   7.049793e-01  -1.028810e+02
   8.702167e+01  -9.069188e+01
   1.601473e+02  -3.601463e+00
   1.182777e+02   9.201446e+01
   5.613918e+01   3.286499e+01
  -5.655888e+01   7.823327e+01
  -5.388264e+01   2.268764e+01
  -5.005939e+01  -2.732016e+01
  -1.418807e+01   2.884947e+00
  -7.370076e+01   6.528418e+01
  -6.726227e+01   4.166166e+01
  -5.481682e+01  -6.865970e+01
   2.450082e+01  -7.667098e+01
   5.013880e+01  -3.134507e+01
   4.584926e+01   4.037784e+00
  -1.002309e+01   5.584387e+01
  -1.321496e+02   5.886307e+01
  -1.003110e+02  -7.660845e+01
   1.625244e+01  -1.623622e+02
   1.096583e+02  -1.385436e+02
   1.633225e+02  -8.259701e+01
   1.137763e+02   6.513513e+01
   7.400621e+01   1.267755e+02
  -4.527981e+01   1.178392e+02
  -3.039873e+01   4.009692e+01
  -3.806943e+01   5.275378e+01
  -9.019762e+00   8.079929e+01
  -9.352199e+01   3.715044e+01
  -1.086113e+02  -4.725716e+01
  -5.902147e+01  -6.704159e+01
  -4.208277e+01  -6.952340e+01
   2.415024e+00  -9.143797e+01
   6.125342e+01   3.183064e+01
   2.694872e+01   9.760486e+01
  -3.432806e+01   1.024202e+02
  -2.611806e+00   7.802048e+01
  -3.775830e+01  -4.348560e+00
   8.637458e+00  -4.733449e+01
   1.882814e+01  -1.759477e+01
  -8.031696e+00   7.702534e+00
  -4.660580e+01  -3.125146e+01
  -4.845073e+01  -2.095704e+00
   6.437553e+01  -6.034291e+01
   1.149578e+02  -3.069232e+01
   8.328136e+01   7.801113e+01
  -7.968808e+00   6.680282e+01
  -1.003553e+02   2.814507e+01
  -7.034164e+01  -9.097534e+00
  -1.591384e+01  -2.098760e+00
   4.954923e+01  -3.726840e+01
   4.970877e+01   5.272257e+01
  -2.840943e+00   2.611886e+01
  -7.182164e+01   5.939302e+01
  -7.407520e+01   3.888530e+01
  -8.413979e+01  -5.486120e+00
  -6.143424e+01   5.881232e+00
  -6.418694e+01  -2.760299e+01
  -2.777839e+01   3.873119e+00
  -2.701340e+01  -7.321141e+01
   4.043483e+01  -8.218423e+01
   7.651398e+01  -7.242202e+01
   1.522615e+02  -1.350311e+01
   1.339057e+02   7.740603e+01
  -2.429372e+01   3.837730e+01
  -5.826557e+01   3.440252e+01
  -4.409954e+01   1.887922e+01
   3.199410e+01  -1.801086e+01
   9.187126e+01   3.437238e+01
   1.250696e+01   4.766307e+01
  -5.104108e+01   5.157135e+01
  -1.451775e+02   1.666932e+01
  -1.425507e+02  -4.919583e+01
  -3.893113e+01  -7.708177e+01
   9.024324e+01   1.922567e+00
  -4.248278e+00   2.466490e+00
  -4.988939e+01   2.647630e+01
  -5.180627e+01  -3.153277e+01
  -4.840283e+01  -4.574919e+01
   1.412896e+00  -1.021239e+02
   9.897095e+01  -1.106096e+01
   1.248471e+02   2.810757e+01
   4.370519e+01   7.744453e+01
  -5.130402e+01   3.572290e+01
  -5.379437e+01  -5.138944e+01
  -4.806079e+01  -3.750041e+01
  -1.279640e+01  -7.033005e+01
   3.501525e+01   6.689566e+00
   4.232142e+01   2.856197e+00
   4.444746e+01   4.175345e+00
   1.149437e+01   9.397820e+00
  -8.075523e+00   3.939335e+01
   2.584759e+01   5.172244e+01
  -4.150444e+00   3.873565e+01
  -3.898790e+01   3.206868e+01
  -8.568749e+01   8.676726e+00
  -7.014583e+01  -4.581254e+00
  -1.603415e+01  -7.345125e+01
   1.369488e+01  -2.672657e+01
   4.057488e+01  -9.001248e+00
   1.797272e+01  -2.101649e+01
  -4.361615e+01  -3.079131e+01
  -3.754499e+00   7.286747e+00
   6.571388e+00  -1.812924e+01
  -1.449315e+01   6.598334e+00
  -3.843295e+01   2.709950e+01
  -7.930342e+01  -2.092438e+01
   3.078513e+01  -4.321856e+01
   7.882593e+01  -6.811967e+01
   8.063766e+01  -1.252024e+01
   8.641757e+01   8.628153e+01
  -2.816101e+01   1.253096e+02
  -3.502351e+01   9.019844e+01
  -6.631852e+01   1.981123e+01
  -3.821117e+01  -4.825070e+01
  -1.469091e+01  -3.147351e+01
  -1.824020e+01   9.173114e+00
  -4.679563e+01  -6.785579e+01
   1.265413e+01  -1.645513e+01
  -9.231646e+00  -9.267785e+01
   4.459134e+01  -6.268262e+01
   7.166835e+01   3.487300e+01
   7.111254e+01   5.254191e+00
   1.534903e+01   8.295783e+01
  -3.394083e+01   2.232598e+01
  -5.872812e+01  -7.732183e+01
  -1.917368e+00  -3.049552e+01
   6.926603e+01  -5.562973e+00
   7.601878e+01  -1.213059e+01
   1.081063e+01   6.641076e+01
  -4.064489e+01   8.413220e+01
  -7.383948e+00   7.605009e+01
   1.143788e+01   8.178117e+00
   2.107293e+01  -1.011168e+01
   2.163078e+01  -2.791186e+01
  -3.767224e+01   2.975121e+01
  -3.830357e+01   4.726179e+01
   8.325903e+00  -9.821754e+00
   5.685151e+01  -2.457952e+01
   7.023437e+01  -3.766917e+01
   3.142587e+01  -4.521470e+01
  -1.610757e+01   5.053465e+01
  -2.912264e+01   6.854773e+01
   3.848318e-01   3.784187e+00
  -2.433875e+01  -1.254232e+01
   2.586151e+01  -1.174304e+01
  -2.904483e+00   1.962049e+01
  -9.760788e+00   3.963898e+00
  -2.935400e+00   4.585188e+00
   4.410106e+00  -1.029696e+01
   4.091078e+01  -1.298747e+01
  -2.992641e+00  -7.298109e+00
   1.582680e+01  -6.707779e+00
   1.567350e+01  -8.160920e-01
  -3.161569e+00  -7.606326e+00
   3.428091e+01  -4.718353e+01
   9.931785e+00  -7.838235e+00
   8.035625e+00   3.492215e+01
   4.296560e+01   3.551392e+01
  -6.391558e+01   1.185088e+01
  -9.218916e+01  -4.089842e+01
  -5.782723e+01  -2.064567e+00
   1.297573e+01  -7.558704e+00
   4.331737e+01  -9.273482e+00
   8.411920e+00   3.332587e+00
  -3.441469e+01   7.152179e+00
  -1.935444e+01   5.122808e+01
  -7.167301e+00   1.646628e+00
   2.977414e+01  -4.051758e+01
