
 $NMID
 id='ANONYMOUS ', fmtdat='(2E16.6)'
 volume=1.0
 tramp=1.0
 $END
  -3.101667e+03  -4.886164e+00
  -2.148453e+03  -1.641316e+03
  -1.767733e+02  -1.868814e+03
   1.130040e+03  -1.168557e+03
   9.382438e+02  -2.503119e+02
   8.124788e+01   2.473741e+02
  -2.927171e+02  -4.725901e+01
   3.541025e+01  -4.969389e+02
   4.374582e+02  -5.075478e+02
   6.303758e+02  -3.494059e+01
   4.279122e+02   5.262546e+02
  -1.746641e+00   6.290249e+02
  -2.642154e+02   1.757794e+02
  -2.606308e+02  -3.685815e+02
   1.476246e+02  -5.176085e+02
   3.205109e+02  -9.082590e+01
   2.940607e+02   4.506946e+02
  -1.115501e+02   6.613621e+02
  -4.595131e+02   2.883838e+02
  -4.622166e+02  -1.503034e+02
  -1.595672e+02  -3.408370e+02
   7.677632e+00  -2.263987e+02
   4.525501e+01  -9.863483e+01
  -1.857352e+02  -1.240811e+02
  -2.549385e+02  -3.261319e+02
   6.320408e+00  -3.562376e+02
   4.574830e+02  -1.238783e+02
   6.543826e+02   2.073317e+02
   2.216938e+02   4.155613e+02
  -2.685266e+02   1.751537e+02
  -4.265771e+02  -1.058928e+02
  -1.253124e+02  -2.796506e+02
   2.904114e+02  -3.239692e+02
   4.470648e+02  -1.512958e+02
   3.354575e+02   2.148815e+02
   2.710769e+01   2.954989e+02
  -5.393994e+01   1.800790e+02
   8.076542e+01  -5.940680e+01
   1.770461e+02  -1.051105e+02
   1.882416e+02   1.539719e+02
  -8.434734e+01   4.949316e+02
  -3.332606e+02   4.132902e+02
  -3.562203e+02   2.862013e+01
  -1.171402e+02  -3.096000e+02
   1.440524e+02  -1.260759e+02
   1.800274e+02   2.748361e+02
  -1.074006e+02   3.694579e+02
  -4.130534e+02   4.992527e+01
  -4.243422e+02  -3.201298e+02
  -1.700982e+02  -4.492099e+02
   2.229038e+02  -2.366732e+02
   4.944521e+02   9.556815e+01
   3.057824e+02   2.365478e+02
  -5.642457e+01   2.122859e+02
  -2.921682e+02   8.725638e+01
  -2.046504e+02  -6.922260e+01
  -4.139762e+00   4.407591e+01
  -6.990555e+00   7.880404e+01
  -1.109983e+02   2.680756e+01
  -1.996726e+02  -3.886162e+01
  -4.492511e+01  -1.889646e+02
   1.948056e+02  -2.625457e+02
   3.982415e+02  -1.245323e+02
   2.313972e+02   1.252097e+02
  -4.302404e+01   3.245185e+02
  -2.511175e+02   3.658465e+02
  -3.117294e+02   1.255055e+02
  -2.285174e+02  -1.398514e+02
  -3.072768e+01  -3.683474e+02
  -2.298122e+01  -2.746887e+02
  -3.829844e+01  -1.575020e+02
   2.674423e+01  -1.325419e+02
   1.187980e+02  -1.116855e+02
   2.473965e+02  -1.620451e+01
   2.061977e+02   1.572397e+02
   1.024700e+02   2.047848e+02
  -9.174987e+01   1.532259e+02
  -2.106715e+02  -4.536985e+01
  -1.429068e+02  -2.309467e+02
   1.661057e+01  -2.089392e+02
   2.495892e+02  -3.390645e+01
   3.008324e+02   1.770081e+02
   1.432374e+02   3.237575e+02
  -6.484804e+01   2.344980e+02
  -1.728151e+02   1.732512e+02
  -1.648157e+02   4.503718e+01
  -1.539744e+02   4.761610e+01
  -3.398580e+02   1.476090e+01
  -4.060839e+02  -1.140959e+02
  -3.005975e+02  -2.742352e+02
   3.072480e+01  -4.357224e+02
   3.277425e+02  -4.089036e+02
   4.110840e+02  -1.156599e+02
   2.150340e+02   9.097489e+01
   2.904459e+01   1.856966e+02
  -4.379474e+01   1.791280e+02
  -1.879781e+00   2.455157e+01
   1.226047e+02  -3.208486e+01
   1.544804e+02   4.510167e+01
   8.000114e+01   9.604562e+01
  -1.151866e+02   1.087391e+02
  -1.151058e+02  -6.160301e+01
  -7.454447e+00  -8.414234e+01
   1.185262e+02   2.854657e+01
   1.024462e+02   2.172782e+02
  -1.653164e+01   2.718707e+02
  -2.118808e+02   1.791050e+02
  -3.193293e+02  -6.619228e+01
  -3.084803e+02  -2.658753e+02
  -4.841627e+01  -2.712439e+02
   1.447480e+02  -1.399877e+02
   1.686967e+02  -2.477276e+01
   3.164701e+01   1.989036e+01
  -3.722959e+01  -7.710256e+01
   5.210158e+01  -8.920560e+01
   1.172825e+02  -8.986673e+01
   1.269541e+02   6.888119e+00
  -1.379138e+01   4.511002e+01
  -8.910537e+01  -1.016468e+01
  -1.362618e+01  -7.837935e+01
   1.838090e+02  -8.596373e+01
   2.206524e+02   4.425734e+01
   1.929688e+02   1.364331e+02
   3.827604e+01   2.712403e+02
  -2.275887e+02   2.187070e+02
  -2.445009e+02   3.563308e+01
  -8.330252e+01  -8.023588e+01
   5.078571e+01  -6.610963e+01
   3.626208e+01   2.469387e+01
  -6.603774e+01   1.063483e+02
  -1.390134e+02   2.448414e+01
  -1.687865e+02  -9.555819e+01
  -8.964358e+01  -1.921757e+02
   6.786986e+01  -1.483894e+02
   5.502172e+01   4.882001e+01
   2.681809e+01   5.411183e-01
  -7.933323e+01  -5.522732e+01
  -3.980749e+01  -1.267418e+02
   7.368248e+01  -1.658164e+02
   2.689007e+02  -7.391953e+00
   1.676139e+02   1.300352e+02
   1.771967e+01   1.987078e+02
  -1.550697e+02   1.063883e+02
  -2.078151e+02  -2.425013e+01
  -6.442761e+01  -8.282727e+01
   8.107648e+01  -7.748141e+01
   1.296044e+02  -3.183112e+01
   1.603187e+01   2.296205e+01
  -6.361484e+01   1.596568e+01
   5.242067e+00  -4.413913e+01
   7.392225e+01  -1.974312e+01
   8.993345e+01   7.577525e+01
   2.720066e+01   1.486278e+02
  -1.382980e+02   1.263316e+02
  -2.622768e+02  -1.582939e+01
  -1.653909e+02  -1.890341e+02
   2.941915e+01  -1.752391e+02
   8.805889e+01  -1.661456e+02
   1.192460e+02   9.766723e+00
   6.030877e+01   7.210817e+01
  -1.773483e+01   3.103568e+01
   2.861148e+01  -2.060653e+01
   7.976333e+01  -3.828020e+01
   5.906243e+01   8.960016e+01
  -1.073792e+01   9.879191e+01
  -1.344736e+02   7.496258e+01
  -5.563026e+01  -5.494413e+01
  -1.192409e+00  -1.188081e+02
   1.816344e+02  -7.740257e+01
   2.135704e+02   1.458535e+01
   6.297367e+01   1.816977e+02
  -1.519835e+02   1.954864e+02
  -2.567965e+02   6.399242e+01
  -2.361717e+02  -7.096349e+01
  -9.600160e+01  -1.879683e+02
   4.320790e+01  -1.853294e+02
   1.056960e+02  -9.470018e+01
   9.625657e+01  -5.111531e+01
   2.876714e+01  -5.831787e+01
   8.888247e+01  -4.882117e+01
   1.301466e+02   2.652439e+01
   1.057973e+02   1.480011e+02
   1.890048e+01   2.040578e+02
  -7.724225e+01   1.200968e+02
  -1.394928e+02   2.791252e+00
  -8.846808e+01  -1.161642e+02
   5.209707e+00  -1.188879e+02
   7.522306e+01  -2.903103e+01
   3.412670e+01   6.194840e+01
  -3.178544e+01   3.479165e+01
  -6.084420e+01   5.367852e+01
   2.701190e+01  -7.618801e+00
   8.237920e+01   2.591909e+01
   5.571993e+01   3.957210e+01
  -9.411013e+01   6.109136e+01
  -1.550711e+02  -2.255743e+01
  -1.227750e+02  -1.108958e+02
   1.349147e+01  -1.479181e+02
   9.193962e+01  -6.524567e+01
   1.328818e+02   5.985174e+00
   4.883384e+01   1.104980e+02
  -4.616884e+01   5.850451e+01
  -4.069448e+01  -5.664049e+01
  -3.727291e+01  -1.123926e+02
   4.635378e+01  -1.111028e+02
   7.850778e+01  -4.215064e+00
   9.098912e+01   7.189427e+01
   7.782087e+01   1.060393e+02
   3.344944e+01   1.902010e+01
   5.502107e+01  -2.391612e+01
   2.173820e+01   5.922829e+01
  -3.466972e+00   1.410295e+02
  -1.390150e+02   1.636563e+02
  -1.790681e+02   5.968757e+01
  -1.415625e+02  -7.628486e+01
  -9.344834e+00  -9.034709e+01
   3.912338e+01  -1.013307e+02
   7.104195e+01  -3.082367e+01
  -1.187810e+01  -2.280076e+01
  -1.218531e+02  -1.127521e+01
  -7.007171e+01  -6.898711e+01
   7.491119e+01  -7.050740e+01
   1.648230e+02  -3.450481e+01
   1.417740e+02   4.914510e+01
   3.717587e+01   8.101899e+01
  -4.622496e+01   4.426061e+01
  -5.030987e+01   2.169627e+01
   1.915714e+01  -2.824488e+01
   9.850728e+01   4.493199e+01
  -2.057395e+00   1.516879e+02
  -1.029621e+02   1.488194e+02
  -1.472174e+02   3.270896e+01
  -1.025978e+02  -1.104384e+02
  -1.277289e+01  -2.045444e+02
   1.487542e+02  -1.264670e+02
   9.018163e+01   1.324662e+01
  -8.493039e+00   1.507210e+02
   2.248109e+01   9.512912e+01
  -7.575336e+01  -2.059114e+01
  -5.426935e+01  -2.491923e+01
  -1.949491e+01   1.544233e+01
  -1.195030e+01   3.342190e+01
   4.076696e-01   7.218993e+00
  -3.090578e+01  -4.774118e+01
  -1.283128e+01  -8.301548e+01
   6.281287e+01  -7.003006e+01
   1.004144e+02   1.561366e+01
   1.150995e+02   5.394666e+01
   6.617471e+00   3.612830e+01
  -3.407164e+01   1.970774e+01
  -7.247687e+01  -1.340609e+01
  -1.075859e+01   1.238289e+01
   5.122572e+00   4.743543e+00
   1.841849e+01  -3.415022e+01
   1.398188e+01   4.455651e-01
   2.580204e+01   2.568024e+01
   8.907649e+01  -5.573379e-01
   1.073713e+02   1.269641e+01
   6.501078e+00   1.011019e+02
  -1.098492e+02   7.233900e+01
  -1.777239e+02   8.986803e+01
  -1.447170e+02  -7.308686e+01
  -7.923776e+01  -1.592372e+02
   2.691099e+01  -1.779247e+02
   6.808783e+01  -8.961107e+01
   8.264968e+01   3.150515e+01
   4.786845e+01   3.360011e+01
  -5.988769e+00   2.129587e+01
   1.331647e+01  -2.537859e+01
   9.945765e+01  -6.067011e+00
   1.267973e-01   6.949275e+01
  -4.997351e+01   6.667478e+01
  -1.084733e+02  -2.970680e+01
  -4.791866e+01  -8.326952e+01
  -7.391036e+00  -1.341271e+02
   5.492498e+01  -2.379041e+01
   1.115867e+02   5.413764e+01
   5.522751e+01   8.392216e+01
  -6.091582e+01   5.344666e+01
  -7.730202e+01   3.200132e+01
  -6.431615e+01  -3.807122e+01
   2.466525e+01  -2.215297e+01
   2.420462e+01   3.186921e+00
  -1.976421e+01   1.727806e+01
  -7.658094e+01  -1.885120e+01
  -2.904465e+01  -6.545315e+01
   4.250177e+01  -4.809356e+01
   1.059419e+02  -1.252964e+01
   7.399450e+01   3.126808e+01
   1.562071e+01   7.817734e+01
  -8.906971e+01   8.063654e+01
  -2.549087e+01  -2.487802e+01
   3.651343e+01  -5.246614e+01
   1.915310e+01  -9.518991e+01
  -1.554283e+01   4.442890e+01
   2.518231e+00   4.430613e+01
  -2.203329e+00   5.834832e+01
  -2.973235e+01   1.120302e+01
  -1.121578e+01  -5.834492e+00
  -2.530229e+01  -8.074926e+00
   7.520817e+00  -4.456118e+00
  -4.082373e+00   1.565833e+01
   1.995119e+00  -5.640314e+00
  -3.251549e+01  -2.850925e+01
   7.900472e+01  -8.703629e+00
   4.882329e+01   2.851341e+01
   6.174705e+01   7.398913e+01
  -8.804867e+00   2.734619e+01
  -6.449351e+01  -4.462646e+00
  -6.271720e+01  -2.106251e+01
   4.250732e+01  -8.408195e+01
   8.309546e+01   7.857024e+00
   4.883138e+01   3.730077e+01
  -5.973661e+01   6.741611e+01
  -6.479794e+01   2.820635e+01
  -5.503023e+01   1.268854e+01
   1.198863e+00  -1.859620e+01
   3.748975e+01  -1.263207e+01
  -4.404742e+01   4.898332e+01
  -6.355888e+01   4.749145e-01
