
 $NMID
 id='ANONYMOUS ', fmtdat='(2E16.6)'
 volume=1.0
 tramp=1.0
 $END
   2.739551e+03   1.565176e+02
   1.865027e+03   1.329249e+03
   2.846935e+01   1.673533e+03
  -1.069576e+03   1.158763e+03
  -8.567291e+02   3.062103e+02
  -1.551667e+02  -2.083880e+02
   2.660371e+02   8.221510e+00
   9.927396e+01   5.303912e+02
  -3.291725e+02   5.678342e+02
  -4.900022e+02   1.760515e+02
  -4.644841e+02  -3.670245e+02
   6.104973e-01  -5.414105e+02
   2.437346e+02  -1.738086e+02
   2.034521e+02   3.075871e+02
  -1.651501e+01   4.516401e+02
  -3.029876e+02   1.174607e+02
  -2.569181e+02  -3.901151e+02
   4.532659e+01  -5.991145e+02
   4.580845e+02  -2.604852e+02
   3.894975e+02   1.266529e+02
   1.505514e+02   3.070042e+02
  -3.901420e+01   2.715482e+02
  -7.205379e+01   8.437353e+01
   2.348666e+02   9.177232e+01
   2.360104e+02   2.155569e+02
  -4.032526e+01   2.402447e+02
  -4.340922e+02   1.659631e+02
  -5.703777e+02  -9.661695e+01
  -2.950743e+02  -2.990360e+02
   2.496932e+02  -1.805214e+02
   4.556173e+02   1.311484e+02
   1.301213e+02   2.658470e+02
  -1.961346e+02   2.444307e+02
  -3.423221e+02   1.197491e+02
  -2.918384e+02  -1.259809e+02
  -4.939659e+01  -2.891618e+02
  -3.888645e+00  -2.295293e+02
  -9.218629e+01   3.057064e+01
  -1.339473e+02   1.970289e+02
  -1.261434e+02  -8.359346e+01
  -3.607026e+01  -4.138472e+02
   1.572496e+02  -4.178181e+02
   2.778773e+02  -2.116160e+01
   9.461786e+01   2.383773e+02
  -1.084046e+02   5.554263e+01
  -1.175250e+02  -2.578261e+02
   1.062523e+02  -3.621699e+02
   3.997405e+02  -8.730245e+01
   4.980062e+02   3.455085e+02
   1.809555e+02   4.371766e+02
  -2.275268e+02   2.459864e+02
  -3.884334e+02   1.045981e+01
  -3.274778e+02  -1.330520e+02
   7.316658e+00  -1.664557e+02
   2.881566e+02  -4.974916e+01
   2.582932e+02   4.587884e+01
   3.091202e+01   2.614011e+01
  -6.476214e+01  -2.186062e+01
   6.088482e+01  -8.357977e+00
   2.284655e+02   3.619435e+00
   1.540725e+02   1.546257e+02
  -1.191674e+02   2.473885e+02
  -3.255304e+02   1.036762e+02
  -2.754240e+02  -2.844564e+01
  -3.149323e+00  -2.497789e+02
   2.698343e+02  -2.677874e+02
   3.380778e+02  -1.233505e+02
   2.420918e+02   1.492749e+02
   6.810780e+01   3.012310e+02
  -6.182191e+01   2.789062e+02
  -3.203777e+01   1.536512e+02
   2.219089e+01   1.093840e+02
  -1.191902e+02   8.212410e+01
  -2.341868e+02   5.226856e-01
  -1.759782e+02  -1.551826e+02
  -1.104127e+02  -2.516108e+02
   8.225518e+01  -1.891386e+02
   1.707933e+02   3.687288e+01
   1.440744e+02   2.044314e+02
  -3.706006e+01   1.539112e+02
  -1.594753e+02   2.504736e+01
  -2.225985e+02  -1.310458e+02
  -1.158759e+02  -2.234695e+02
   7.817247e+01  -1.525987e+02
   9.731907e+01  -1.202712e+02
   7.782129e+01  -6.323956e+01
   1.223944e+02  -2.835378e+01
   2.540064e+02  -4.858276e+01
   4.226782e+02   1.318797e+02
   2.927554e+02   2.706496e+02
  -3.183383e+01   3.990853e+02
  -3.531486e+02   2.984784e+02
  -4.395495e+02   1.775806e+02
  -2.429295e+02  -7.610732e+01
   3.189236e+01  -1.694253e+02
   9.480673e+01  -1.215721e+02
  -2.189006e+01  -1.294835e+01
  -1.074555e+02   2.393846e+00
  -9.187046e+01  -4.030090e+01
   2.311920e+01  -1.518678e+02
   1.199633e+02  -9.953340e+01
   8.520429e+01   5.557787e+01
  -1.015793e+02   1.577943e+02
  -1.508284e+02  -3.089032e+01
  -1.703653e+02  -1.794301e+02
  -2.095837e+00  -3.530120e+02
   2.087653e+02  -1.923545e+02
   2.948720e+02   2.474398e+01
   1.917740e+02   2.330388e+02
   2.096994e+01   2.511810e+02
  -9.072329e+01   1.437206e+02
  -8.793594e+01   9.039334e+00
  -2.237420e+01  -1.016805e+01
   2.592444e+01   3.783858e+01
  -3.392894e+00   8.022775e+01
  -1.427317e+02   5.957103e+01
  -1.303551e+02  -1.189422e+01
  -6.969929e+01  -5.955518e+01
   7.110136e+01   4.584375e+01
   5.311144e+01   7.604474e+01
  -1.234153e+02   8.017843e+01
  -2.904511e+02  -8.133207e+00
  -2.050826e+02  -1.871318e+02
  -1.902798e+01  -2.776573e+02
   1.626745e+02  -2.662562e+02
   2.254359e+02  -4.649671e+01
   1.532551e+02   2.356725e+01
   1.398726e+01   6.323526e+01
  -2.611297e+01  -3.177965e+01
   4.689983e+01  -9.004120e+01
   1.496231e+02  -4.109051e+01
   1.497628e+02   1.258376e+02
   6.927414e+01   1.633297e+02
  -1.199126e+02   8.975125e+01
  -1.130158e+02   8.886229e+01
  -3.316879e+01  -1.936235e+01
   1.008053e+01   3.770641e+01
   1.207317e+01   1.203272e+02
  -1.081047e+02   6.477856e+01
  -1.703711e+02  -1.613874e+00
  -1.401564e+02  -9.105186e+01
  -6.243701e+00  -1.548170e+02
   1.714329e+02  -1.149759e+02
   1.310064e+02  -9.609462e+00
   3.723746e+01   6.134561e+01
  -1.044613e+02   8.096342e+01
  -7.831644e+01   1.574535e+01
   2.284999e+01  -3.439501e+01
   5.980612e+01  -1.689925e+01
   4.300872e+01  -7.738684e+00
  -8.005890e+01   4.551133e+00
  -1.078190e+02  -1.206435e+02
  -3.730301e+01  -1.830140e+02
   1.289575e+02  -1.384463e+02
   2.790383e+02  -8.082668e+00
   1.994644e+02   1.536466e+02
   4.621034e+01   1.868743e+02
  -8.935570e+01   1.854885e+02
  -9.289861e+01   5.963643e+01
  -1.000475e+02  -2.040740e+01
  -3.241497e+01  -2.456959e+00
  -3.553433e+01   4.090241e+01
  -1.015161e+02  -4.521520e+01
  -6.798810e+01   1.501246e+01
   2.721203e+01  -7.960757e+01
   1.118929e+02  -4.270515e+01
   8.529188e+01  -2.718514e+01
   1.251231e+01   6.624720e+01
  -1.825119e+02   4.132279e+01
  -1.630747e+02  -5.665016e+01
  -4.672037e+01  -2.376965e+02
   1.063699e+02  -1.221800e+02
   2.076445e+02  -4.077693e+01
   2.293658e+02   6.381248e+01
   7.187576e+01   1.343663e+02
  -3.258803e+01   1.293428e+02
  -8.313207e+01   7.846681e+01
  -2.263440e+01   8.009761e+01
  -5.323239e+01   7.743290e+01
  -6.923732e+01   7.147017e+01
  -1.122494e+02  -5.938475e+01
  -6.768392e+01  -1.135895e+02
  -2.749600e+01  -2.170785e+02
   1.105249e+02  -1.320837e+02
   1.594854e+02   4.380987e+00
   4.441273e+01   1.030015e+02
  -2.055641e+01   1.332354e+02
  -5.648032e+01   8.335045e+01
  -3.267216e+01  -1.490943e+01
   3.814005e+01  -1.211342e+02
   1.221491e+01  -2.681076e+01
  -1.808084e+01  -4.012048e+01
  -4.254603e+01   6.829521e+00
  -3.764861e+01  -8.910106e+00
   5.929873e+01  -2.378543e+01
   9.332998e+01  -3.518478e+00
   1.178532e+02   6.137004e+01
   3.255423e+01   7.138467e+01
  -1.244422e+02   6.290067e+01
  -1.064714e+02   2.546070e+01
  -2.597288e+01  -6.523911e+01
   5.555545e+01  -3.601506e+01
   1.435481e+02   3.918347e+01
   3.513904e+01   8.257374e+01
  -9.589095e+00   4.540766e+01
  -4.428341e+01   6.573955e-01
  -4.733632e+01  -7.714999e+00
  -6.739402e+01  -3.758112e+01
  -9.264973e+01   1.070090e+00
  -6.506210e+01   2.789560e+01
  -8.483044e+00  -5.677856e+01
   1.362703e+01  -1.135790e+02
   7.608702e+01  -1.466684e+02
   2.190975e+02  -3.413640e+01
   1.183001e+02   1.007495e+02
   2.944279e+01   1.016619e+02
  -9.275367e+01   7.390221e+01
  -4.941288e+01   3.038719e+01
   9.264555e+01  -5.149956e+01
   1.191906e+02   3.686997e+01
   2.952002e+01   1.520630e+02
  -5.273876e+01   9.350705e+01
  -1.782498e+02   2.745335e+01
  -1.492801e+02   9.134570e+00
  -6.937298e+01  -7.943923e+01
   4.416791e+01  -5.356785e+01
   1.412959e+01   2.066830e+01
  -8.090589e+01   5.679949e+01
  -5.873604e+01   7.412259e+00
  -7.426590e+01  -1.028286e+02
   1.148686e+01  -1.591075e+02
   1.393271e+02  -9.223101e+01
   6.784514e+01   7.713068e+01
   3.071899e+01   1.843257e+02
  -8.177223e+01   1.023641e+02
  -9.715096e+01   7.633763e+00
  -3.233855e+01  -1.163338e+02
   4.735604e+01  -9.868982e+01
   5.303693e+01  -4.462571e+01
   3.187775e+01   1.739115e+01
   1.579486e+01  -2.465288e+00
  -6.659503e+00   2.466236e+01
   6.340995e+01  -1.495115e+01
   5.679872e+01   8.788567e+01
   4.813576e+01   9.635969e+01
   1.011371e+00   3.689697e+01
  -9.274900e+01  -4.709989e+00
  -1.105714e+02  -2.928336e+01
  -4.223434e+00  -1.360978e+01
   7.282414e+01  -2.034671e+01
   7.512458e+01   3.300871e+01
   4.951960e+01  -2.603131e+00
   8.250352e+00   3.938996e+00
  -5.012693e+01   2.236315e+01
  -2.103290e+00   2.265237e+01
  -1.250533e+01   5.634273e+00
  -7.579761e+01   1.375837e+01
  -1.071643e+02  -1.926732e+01
   5.125304e+01  -6.779414e+01
   8.196512e+01  -6.959034e+01
   1.828694e+02  -1.763146e+01
   1.676921e+02   7.648452e+01
   6.459394e+01   1.523833e+02
  -7.226302e+01   1.442912e+02
  -1.303845e+02   1.045550e+02
  -1.192271e+02   5.933280e+00
  -8.484990e+01  -2.565632e+01
   3.142236e+00  -1.485058e+01
  -1.060141e+01  -2.227553e+01
  -3.472847e+01  -3.458256e+01
  -2.273792e+01  -6.739151e+01
   4.632882e+01  -4.519248e+01
   8.590209e+01  -2.347412e+01
   4.762318e+01   5.803874e+01
   3.233754e+01   1.190430e+02
  -4.839658e+01   8.307315e+00
  -1.055046e+02  -3.538017e+01
  -2.902849e+01  -6.186796e+01
   7.732821e+00  -3.632295e+01
   5.352705e+01  -2.408897e+01
   4.180637e+01   3.267302e+01
  -8.886143e+01   5.229793e+01
  -1.476084e+01   6.303598e+00
   5.603145e+01  -4.974943e+01
   4.824495e+01  -5.810495e-01
  -4.219745e+00  -1.981350e+00
  -3.838170e+01   3.637973e+01
  -8.079839e+01   6.312552e+01
  -6.069353e+01  -4.819162e+01
  -1.864880e+01  -4.426441e+01
  -3.294702e+01  -9.142447e+01
   3.864679e+01  -5.561367e+01
  -3.471472e+00   2.315071e+00
  -3.901479e+01   3.922847e+01
  -3.193918e+01   3.611574e+01
   4.392565e+00  -3.854601e+01
   1.231112e+01  -1.434196e+01
   7.906486e+00  -1.486276e+00
   3.051278e+01  -1.199943e+01
   1.980708e+01  -5.376727e+01
  -5.324740e+00  -5.273875e+01
  -2.141948e+01   1.719749e+01
   3.485367e+01  -2.791430e+01
   7.659159e+00   2.496868e+01
  -1.422501e+01   4.575190e+01
  -5.561284e+01  -1.332475e+01
  -5.287591e+00  -3.678162e+01
   3.491140e+00  -3.801320e+01
   3.947589e+01   2.886654e+01
   2.522452e+01   4.137452e+01
  -6.410177e+01   3.551478e+01
  -1.236600e+02  -3.049264e+01
  -2.553725e+01  -2.793737e+01
   1.359970e-01   1.035368e+00
   3.337250e+00  -6.909440e+01
   1.391515e+01  -3.149742e+01
  -4.586905e+01  -1.356782e+01
   2.274554e+01  -4.569630e+00
   2.443393e+01   2.092312e+00
   2.690294e+01   2.262661e+01
