
 $NMID
 id='ANONYMOUS ', fmtdat='(2E16.6)'
 volume=1.0
 tramp=1.0
 $END
   3.425452e+03  -1.476845e+01
   2.365727e+03   2.205654e+03
  -4.767979e+02   2.594916e+03
  -1.862936e+03   1.078207e+03
  -1.090774e+03  -4.354925e+02
   5.283677e+02  -6.040700e+02
   8.223319e+02   3.225995e+02
   4.638534e+01   1.004725e+03
  -6.604798e+02   7.577737e+02
  -8.071652e+02   6.290906e+00
  -4.603387e+02  -7.410671e+02
   1.216167e+02  -8.900627e+02
   5.933185e+02  -1.445324e+02
   3.372037e+02   6.173418e+02
  -1.498819e+02   6.940265e+02
  -4.409050e+02  -3.448627e+01
  -2.674243e+02  -5.707420e+02
   3.159238e+02  -5.981381e+02
   5.159436e+02  -1.539312e+02
   4.160970e+02   3.126712e+02
   3.569838e+01   4.411554e+02
  -2.206505e+02   2.427530e+02
  -1.333698e+02  -3.815149e+01
   1.588194e+02  -9.685354e+01
   3.285997e+02   1.882344e+02
   1.415479e+02   4.271115e+02
  -4.346304e+02   3.614352e+02
  -7.615205e+02  -4.346088e+01
  -3.810071e+02  -4.798635e+02
   3.042946e+02  -3.806178e+02
   6.138759e+02   7.639029e+01
   2.503560e+02   4.105275e+02
  -2.493292e+02   4.092099e+02
  -4.933525e+02   1.469890e+02
  -3.344051e+02  -2.138551e+02
  -1.813190e+01  -3.639631e+02
   1.604855e+02  -1.889515e+02
   1.034445e+02   1.692914e+02
  -1.195953e+02   3.982144e+02
  -3.716524e+02  -2.087032e+01
  -1.853395e+02  -5.552297e+02
   2.954052e+02  -6.208997e+02
   4.988491e+02  -3.819099e+01
   1.996718e+02   3.947822e+02
  -2.715911e+02   3.086481e+02
  -3.780225e+02  -2.868692e+02
   7.573399e+01  -5.121952e+02
   4.868349e+02  -1.262706e+02
   5.285746e+02   3.798335e+02
   1.656859e+02   5.504550e+02
  -3.674592e+02   3.347084e+02
  -5.462471e+02  -2.381586e+01
  -3.754758e+02  -3.327632e+02
   4.755658e+01  -3.457537e+02
   3.376484e+02  -1.133554e+02
   2.390317e+02   1.418910e+02
  -7.277958e+01   1.230233e+02
  -9.994387e+01  -1.325710e+02
   8.635971e+01  -1.725405e+02
   2.587519e+02   8.084187e+01
   1.087327e+02   2.718865e+02
  -2.090245e+02   2.826552e+02
  -3.205604e+02   3.114147e+01
  -1.650954e+02  -2.112754e+02
   5.489113e+01  -2.693926e+02
   2.030562e+02  -2.826865e+02
   3.043196e+02  -1.572716e+02
   2.484636e+02   1.286647e+02
   7.502578e+01   3.731062e+02
  -1.160032e+02   3.661006e+02
  -8.364571e+01   7.328676e+01
  -4.840258e+01   3.456429e+00
  -7.536998e+01   6.975109e+01
  -1.867180e+02   1.261859e+02
  -2.043185e+02  -9.566599e+01
  -9.303962e+01  -2.624140e+02
   4.531888e+01  -2.189033e+02
   2.406891e+02  -1.620876e+01
   2.176483e+02   2.701617e+02
  -6.705694e+00   2.454861e+02
  -2.215005e+02   8.871561e+01
  -3.042591e+02  -1.486034e+02
  -2.035183e+02  -3.192157e+02
   4.136132e+01  -2.503168e+02
   2.052020e+02  -1.106940e+02
   1.380482e+02  -1.746235e+01
   9.414350e+01  -1.524893e+02
   2.417050e+02  -1.105820e+02
   3.706013e+02   3.038164e+01
   3.411448e+02   2.509159e+02
   3.230178e+01   4.547438e+02
  -4.017751e+02   3.795689e+02
  -4.331107e+02   1.728821e+02
  -2.932215e+02  -7.949718e+01
  -5.399926e+01  -3.080596e+02
   9.171691e+01  -2.512122e+02
   8.561123e+01  -6.100756e+01
  -1.351932e+02   1.153010e+02
  -1.320093e+02  -2.427745e+00
  -1.569623e+01  -1.976854e+02
   1.269244e+02  -1.384227e+02
   1.458150e+02   6.861787e+01
   1.051618e+01   1.083123e+02
  -1.927595e+02  -3.483564e+01
  -1.056280e+02  -2.175812e+02
  -8.318444e+00  -3.101375e+02
   1.865275e+02  -1.591419e+02
   3.150005e+02   9.178507e+01
   2.606420e+02   2.128100e+02
   8.891347e+01   2.597425e+02
  -3.009912e+01   1.400368e+02
  -1.236749e+02   1.576046e+01
  -4.774628e+01  -4.128890e+00
   7.029312e+01   3.317510e+01
   1.642267e+01   1.243033e+02
  -1.100113e+02   7.137477e+01
  -7.288684e+01  -1.951365e+01
  -1.150974e+01  -8.316914e+01
   9.781702e+01  -2.517898e+01
   3.532506e+01   5.494220e+01
  -1.682244e+02   8.113549e+01
  -2.652031e+02  -1.269357e+01
  -2.398774e+02  -1.512815e+02
  -3.658065e+01  -2.844422e+02
   1.821426e+02  -2.216329e+02
   2.607960e+02  -1.128060e+02
   1.363852e+02   7.726511e+01
  -1.633478e+01   7.628379e+01
  -8.916265e+01   6.170549e+00
   2.871533e+01  -1.168490e+02
   1.909445e+02  -7.252034e+01
   1.744037e+02   1.192267e+02
   8.282234e+01   2.050739e+02
  -5.324491e+01   1.586472e+02
  -1.193044e+02  -9.182357e+00
  -8.781254e+01  -7.372280e+01
   1.778714e+01   1.701951e+01
   6.661567e+00   8.364357e+01
  -5.539759e+01   1.267486e+02
  -1.990512e+02   8.783884e-01
  -1.476538e+02  -1.244423e+02
  -1.629169e+01  -2.367720e+02
   1.161771e+02  -1.937598e+02
   2.046054e+02  -3.280684e+01
   5.599087e+01   1.040384e+02
  -9.022531e+01   1.188342e+02
  -1.055176e+02   3.523746e+01
  -3.922297e+01  -3.895858e+01
   6.243443e+01   2.844022e+01
   2.099088e+00   1.398313e+01
  -4.849266e+01  -2.347303e+01
  -9.014488e+01  -1.291504e+02
  -1.578484e+01  -1.704532e+02
   1.051575e+02  -1.516745e+02
   2.110974e+02  -8.545653e+00
   2.185311e+02   1.461929e+02
   6.014969e+01   1.890110e+02
  -8.460861e+01   1.832209e+02
  -1.338343e+02   1.348733e+01
  -1.076316e+02  -5.632624e+01
  -6.926501e+01  -2.665163e+01
  -4.670169e+01  -1.007081e+01
  -1.162256e+02  -3.376536e+01
  -5.384767e+01  -2.947090e+01
   6.176009e+01  -7.795458e+01
   1.765123e+02  -6.319032e+01
   1.000387e+02   4.557501e+01
   1.241239e+01   8.696849e+01
  -1.762233e+02   7.737200e+01
  -1.711137e+02  -4.167808e+01
  -4.411313e+01  -2.309434e+02
   8.473175e+01  -1.871944e+02
   1.905290e+02  -9.245161e+01
   2.478671e+02   8.167319e+01
   8.108958e+01   1.795836e+02
  -2.120475e+01   9.476678e+01
  -6.544138e+01   4.602394e+01
  -8.779667e+01   6.300375e+01
  -2.621432e+01   4.209124e+01
  -3.522364e+01   1.135461e+02
  -1.203643e+02  -4.780013e+01
  -1.076030e+02  -1.177577e+02
  -1.453454e+01  -2.489997e+02
   4.215605e+01  -1.665303e+02
   1.233549e+02  -6.674736e-01
   9.252870e+01   1.441134e+02
   1.023743e+00   1.267063e+02
  -4.240751e+01   7.323943e+01
  -5.674180e+01   2.363278e+00
  -4.522784e+01  -6.132418e+01
   1.867991e+00  -6.367887e+01
  -2.111799e+01  -7.882999e+01
  -7.191641e+01  -5.436910e+01
   4.359490e+00  -5.984412e+01
   6.569167e+01  -3.750252e+01
   1.464489e+02  -1.240980e+01
   1.163883e+02   5.108838e+01
  -9.820398e+00   5.449096e+01
  -1.278972e+02   1.063662e+02
  -1.192728e+02   3.388733e+01
  -5.118187e+01  -5.657488e+01
   1.712609e+01  -5.442645e+01
   1.622050e+01   1.649269e+00
   3.176055e+00   8.791346e+01
  -8.967007e+01   7.061940e+01
  -4.050574e+01  -1.607726e+01
  -5.173526e+01  -4.687320e+01
  -3.751195e+01  -8.417198e+01
  -7.146206e+01  -5.531233e+01
  -8.082909e+01   4.242222e+00
  -7.458888e+00  -5.443437e+01
   5.555205e+01  -1.328652e+02
   1.005656e+02  -1.045612e+02
   1.720775e+02  -2.741588e+01
   1.529322e+02   1.260236e+02
   1.018120e+01   3.328462e+01
  -9.674386e+01   3.553376e+01
  -1.449477e+01  -3.502061e+01
   7.509684e+01  -3.530656e+01
   1.115246e+02   2.278614e+01
   6.384598e+01   5.266385e+01
  -6.707528e+01   1.156271e+02
  -1.463839e+02   9.270554e+01
  -1.839322e+02  -2.584392e+01
  -9.351687e+01  -6.151989e+01
   3.834474e+01  -5.978176e+01
   3.927395e+01   2.751749e+01
  -1.504793e+01  -1.461077e+01
  -6.344623e+01  -2.693100e+01
  -2.693951e+01  -1.080765e+02
   7.549040e+01  -1.575747e+02
   1.374414e+02  -3.807179e+01
   9.150868e+01   9.021797e+01
   5.218244e+00   1.421406e+02
  -4.111563e+01   1.029382e+02
  -7.084860e+01  -1.526392e+01
  -4.584154e+01  -1.306644e+02
   4.855557e+00  -1.428088e+02
   7.286662e+01  -2.535772e+01
   3.807647e+01   6.398586e+01
   3.492163e+01   1.675832e+01
  -2.043720e+01   4.473940e+00
   4.597783e+01   3.651882e+01
   4.526605e+01   6.543113e+01
  -3.552105e+01   9.904414e+01
  -6.782379e+01   8.875036e+01
  -1.094905e+02  -1.435993e+01
  -1.258213e+02  -3.489279e+01
  -4.614139e+00  -5.913019e+01
   3.942164e+01  -1.176067e+01
   8.451901e+01  -1.240260e+01
   2.148226e+01  -6.238403e+00
  -5.456202e+01  -1.140108e+01
  -1.710332e+01   5.220914e+01
   3.288269e+01   2.395989e+01
  -9.898975e+00  -5.721391e+00
  -5.002664e+01   1.597381e+01
  -6.509916e+01  -2.221712e+01
  -4.477703e+01  -5.956877e+01
   1.323503e+02  -1.183397e+02
   2.060813e+02  -8.018449e+01
   1.579026e+02   4.987266e+01
   9.517437e+00   1.468957e+02
  -7.569357e+01   9.250697e+01
  -1.233202e+02   1.323005e+01
  -6.370428e+01  -1.099774e+01
   1.421117e+01  -2.255678e+01
   1.350019e+01  -3.978121e+01
  -9.349034e+00  -2.105639e+01
  -1.731391e+01  -5.103726e+01
  -1.726083e+01  -8.600193e+01
   1.789081e+01  -5.195902e+01
   5.179028e+00   4.276121e+01
   1.006886e+02   1.131246e+02
   1.509050e+01   1.131970e+02
  -7.156682e+01   5.518431e+01
  -1.161730e+02  -7.653864e+01
  -5.061110e+01  -1.094692e+02
   1.243773e+01  -7.830650e+01
   8.560603e+01   4.861021e+00
   3.763401e+01   4.348875e+01
  -8.856032e+00   3.692272e+01
  -2.476338e+01  -3.777707e+01
   1.753450e+01   2.134508e+01
   8.316665e+01  -8.653286e+00
  -2.132054e+01   3.359336e+01
  -6.145969e+01   8.262208e+01
  -1.059455e+02   5.602295e+01
  -5.156005e+01  -3.205184e+01
   9.394482e+00  -8.058773e+01
   7.656683e+01  -1.397601e+02
   5.807121e+01  -3.246492e+01
   3.389331e+00   4.202118e+01
  -4.237767e+01   9.382849e+01
  -2.134783e+01   2.951553e+01
  -3.254568e+00  -4.857225e+01
   5.369884e+01  -1.310189e+01
   3.190875e+01   1.415572e+01
   5.580687e+01   7.071243e+01
   8.251962e+01  -7.126316e+00
   1.732553e+01  -2.097693e+01
  -1.396437e+01   3.802279e+01
  -7.804911e+00   3.315484e+01
   2.224464e+01   1.201690e+01
   8.336697e+00   7.569799e+00
  -8.209435e+01  -4.121410e+01
  -3.548196e+01  -3.729099e+01
   2.803638e+01  -1.125221e+01
   6.424812e+01  -2.677374e+01
   1.012023e+01   4.681917e+01
  -3.648043e+01   5.446302e+01
  -1.014210e+02  -3.335095e+01
  -3.359509e+01  -8.543743e+01
   1.990381e+01  -9.133842e+01
   1.190094e+02  -7.274959e+01
   3.410879e+01   1.556028e+01
  -2.114136e+01   1.065713e+01
  -4.037429e+01  -2.241955e+01
   4.496709e+01  -9.841775e+00
   9.848166e+01  -1.187976e+01
