
 $NMID
 id='ANONYMOUS ', fmtdat='(2E16.6)'
 volume=1.0
 tramp=1.0
 $END
   9.596100e+02   6.292215e+01
   5.735886e+02   4.639490e+02
   6.237894e+01   5.684291e+02
  -2.815028e+02   4.520548e+02
  -3.339849e+02   1.628830e+02
  -1.111244e+02  -4.301015e+01
   4.473057e+01   1.870467e+01
   4.022930e+01   7.754302e+01
  -1.011377e+02   1.568318e+02
  -1.709014e+02   6.018030e+01
  -1.104955e+02  -1.248558e+02
  -1.467565e+01  -1.572958e+02
   4.461405e+01  -6.607929e+01
   7.686385e+01   7.571990e+01
   1.224926e+01   1.217098e+02
  -2.896530e+01  -7.417039e+00
  -4.836530e+01  -1.261725e+02
   8.808528e+01  -2.027069e+02
   1.466194e+02  -1.341809e+02
   1.448107e+02   5.654582e+01
   6.637522e+01   1.164414e+02
  -4.101871e+01   7.464760e+01
  -4.700058e+01   3.294575e+01
   7.071175e+01   3.677987e+01
   4.747794e+01   9.790204e+01
  -3.893289e+01   7.727131e+01
  -1.399852e+02   4.222342e+01
  -1.646428e+02  -8.120989e+01
  -3.298280e+01  -1.206105e+02
   1.153231e+02  -5.451828e+01
   1.601858e+02   3.682770e+01
   3.029662e+01   1.265137e+02
  -6.806326e+01   1.013905e+02
  -1.498866e+02   5.413842e+01
  -1.391001e+02  -2.265851e+01
  -1.644295e-01  -7.134616e+01
  -6.126608e+00  -7.360066e+01
   3.216506e+00   1.134614e+01
  -2.929509e+01   5.619437e+01
  -3.278842e+01  -7.770750e+00
   2.636367e+01  -7.624192e+01
   4.814547e+01  -8.282017e+01
   9.337120e+01   3.334808e+01
   5.423316e+01   9.640395e+01
  -6.392219e+01   5.103268e+01
  -6.654794e+01  -1.034040e+02
   1.765716e+01  -1.508231e+02
   1.662326e+02  -5.068078e+01
   1.934449e+02   9.171012e+01
   8.333351e+01   1.787828e+02
  -8.155130e+01   1.033669e+02
  -2.027265e+02  -1.391873e+01
  -1.198903e+02  -9.892720e+01
  -3.408156e+01  -1.170349e+02
   7.073713e+01  -7.820902e+01
   5.189266e+01  -4.981414e+01
   1.948648e+01   1.585323e+01
   3.282619e+01   1.698574e+01
   2.549492e+01  -1.802695e+01
   5.211669e+01   5.145271e+00
   4.165615e+01   4.861934e+01
  -2.541739e+01   6.852082e+01
  -1.066507e+02   1.744971e+01
  -8.357119e+01  -5.745347e+01
  -1.010312e+01  -1.509995e+02
   1.161745e+02  -1.347035e+02
   1.948965e+02  -2.034913e+01
   1.113802e+02   7.150036e+01
   3.027004e+01   1.470777e+02
  -1.758584e+01   1.588430e+02
   5.930933e+00   1.164514e+02
  -1.817458e+01   1.094114e+02
  -9.237350e+01   1.131089e+02
  -1.236584e+02   5.543783e+01
  -1.132946e+02  -7.758938e+01
  -4.754449e+01  -1.504511e+02
   2.558746e+01  -7.404058e+01
   6.409512e+01   1.247963e+01
   4.448850e+01   5.557590e+01
  -5.350417e+01   3.750551e+01
  -4.714650e+01  -1.484890e+01
  -7.252909e+01  -4.829942e+01
  -1.004990e+02  -8.201706e+01
   2.118545e+01  -8.763058e+01
   1.894264e+01  -7.823576e+01
   5.889465e+01  -4.281822e+01
   8.934037e+01  -2.948972e+01
   1.078638e+02   3.253406e+00
   1.393301e+02   5.693693e+01
   8.943677e+01   9.691304e+01
   4.490518e+00   1.326660e+02
  -1.157438e+02   9.876210e+01
  -1.622721e+02   9.236215e+01
  -1.540341e+02  -4.723330e+01
  -4.091401e+01  -1.042204e+02
   2.227403e+01  -7.303787e+01
   2.253645e+00  -1.629369e+01
  -7.128195e-01  -1.846143e+01
  -3.889118e+01  -1.712471e+01
  -6.290405e+00  -2.449697e+01
   2.445730e+01   1.018121e+01
  -2.939573e+01  -5.651265e+00
   1.672126e+01  -5.895272e+00
  -4.051783e+01   2.761452e+00
  -3.424184e+01  -6.920732e+01
  -2.047270e+01  -9.742045e+01
   4.521180e+01  -6.430765e+01
   8.254860e+01   3.807362e+01
   1.032136e+02   1.033696e+02
   4.331451e+00   6.307977e+01
  -5.510704e+01   3.354767e+01
  -3.920674e+01  -2.720526e+01
  -3.680887e+01  -3.760876e+01
   3.044116e+01   9.437681e+00
   6.270263e+00   4.578332e+01
  -9.291761e+00   2.428291e+01
  -3.079406e+01   1.696064e+00
  -9.516281e+00   7.184127e+00
   2.451719e+01   1.852184e+01
   3.212880e+00   3.416907e+01
  -3.125590e+01   1.649209e+01
  -6.195877e+01   8.409581e+00
  -5.987206e+01  -7.317007e+01
   3.344174e+00  -8.442056e+01
   5.163053e+01  -6.179662e+01
   6.201752e+01  -3.993203e+01
   1.869600e+01   1.828140e+01
  -3.786204e+01   6.617488e+01
  -2.285842e+01  -8.106242e+00
  -1.026115e+01  -2.910608e+01
   5.002952e+01  -1.979123e+01
   5.615122e+01   2.246638e+01
   3.980280e+01   3.095185e+01
  -1.940145e+01   8.454263e-01
  -3.230552e+01  -1.908592e+01
   4.270358e+00   9.554567e+00
  -2.867929e+00   1.624985e+00
   2.076264e+01   3.574835e+01
  -2.972001e+01   6.066533e+01
  -1.154828e+02   1.994798e+01
  -8.781534e+01  -3.094295e+01
  -2.969532e+01  -8.044296e+01
   3.690701e+01  -5.191956e+01
   4.759866e+01  -1.360067e+01
   2.424501e+01  -1.221054e+01
   5.756866e-01   1.619802e+01
  -5.028365e+01  -2.063465e+01
   1.028894e+01  -2.912503e+01
   3.160522e+01  -1.691586e+01
   2.779208e+01   2.218684e+01
  -2.935935e+01   1.580536e+01
  -2.647547e+01  -1.264077e+01
  -1.708177e+01  -4.643579e+01
   6.026328e+01  -7.723796e+01
   7.448704e+01  -1.994562e+01
   8.270523e+01   5.445141e+01
   8.506081e+00   1.007536e+02
  -4.698462e+01   8.094983e+01
  -7.710055e+01   3.882480e+01
  -7.442981e+01   4.939191e+00
  -6.441303e+01  -1.946859e+01
  -4.570941e+01  -3.656287e+01
   2.772692e+01   1.582773e+01
   1.319588e+01  -2.154356e+01
   4.062467e+01  -1.907245e+01
   6.497209e+01  -9.932997e+00
   5.170728e+01   1.299296e+01
  -3.862452e+00   7.469125e+01
  -8.114965e+01   5.226427e+01
  -7.355858e+01  -5.948830e+01
  -4.544750e+01  -6.181580e+01
   9.692620e+00  -7.531670e+01
   9.613281e+01  -3.760577e+01
   8.345910e+01   1.472320e+01
  -9.718429e+00   3.931243e+01
  -3.988407e+00   1.603801e+01
   1.958258e+01   1.142982e+01
  -6.472977e-01   6.489774e+01
  -1.587472e+01   8.084123e+00
  -4.606992e+01  -2.006779e+01
  -7.221149e+00  -3.829195e+01
  -6.965884e+01  -5.782548e+01
   1.628475e+01  -5.444256e+01
   2.011840e+00  -2.695100e+01
   5.489124e+01  -1.989549e+01
   3.619324e+01   5.971575e+01
  -1.347631e+01   4.869042e+01
  -1.909613e+01   4.530074e+01
  -2.343515e+01  -6.367893e+00
   1.869270e+00  -2.472204e+01
   1.186391e+01  -6.105197e+01
  -4.144160e+01  -4.565128e+01
  -1.821789e+00  -7.058531e+00
   2.825263e+01   2.097561e+01
   4.333061e+01   1.197173e+01
   5.054000e+01  -1.203945e+01
   2.229347e+01   2.596085e+01
   1.747641e+01   2.863881e+01
  -4.771174e+01   1.475313e+01
  -2.458729e+01   9.998022e+00
  -3.483990e+00  -1.225011e+01
  -8.690206e+00   4.639749e+00
   1.640865e+01   2.737300e+01
   1.121396e+01  -1.449144e+01
   7.928585e+00   2.319507e+00
  -1.895069e+01  -2.417328e+00
   1.577227e+01  -1.816786e+01
   1.529848e-02  -7.377902e+00
   2.032905e+01  -1.251630e+01
   4.758714e+00   2.252422e+01
   1.614793e+00  -6.159331e+00
   5.096128e+00  -2.816122e+01
   7.086812e+01  -6.497670e+01
   5.891917e+01   3.601881e+01
   8.897456e+00   2.463287e+01
   3.947448e+00   5.084913e+01
  -4.674506e+01   1.788102e+01
  -2.220511e+00  -3.005732e+00
  -1.541377e-02   4.565151e+00
   5.098371e+01  -2.057084e+01
   3.166731e+01   1.599815e+01
  -2.819892e+01   9.126617e+00
  -7.935203e+01   4.802227e+00
  -4.586082e+01  -3.033269e+01
   1.564058e+01  -5.018179e+01
   2.080076e+01  -2.390673e+01
  -1.648399e+01  -2.197105e+01
  -1.086762e+01  -2.927118e+01
  -6.256089e+01   1.363765e+01
   2.287543e+01  -4.242987e+01
   7.101356e+00  -5.649980e+01
   2.477973e+01  -2.417806e+01
   6.698600e+01   1.436867e+01
   8.465571e+00   3.502992e+01
  -3.228451e+01   2.125902e+01
  -3.086800e+01  -4.386082e+01
  -2.871300e+01  -3.313763e+01
   1.520340e+00  -3.815410e+01
   5.546402e+00  -5.089889e+00
   2.120284e+01   6.530278e+00
   3.171416e+01  -1.960004e+01
  -2.391761e+01   5.691951e+00
   2.103155e+01   1.040816e+01
   1.528188e+01   5.591450e+01
   1.509385e+01   3.114243e+01
  -4.824239e+01   6.092401e+01
  -3.083585e+01  -3.184740e+01
  -9.085443e+01  -4.006053e+01
  -3.197237e+01  -3.269607e+01
   4.263033e+01  -7.434115e+01
   6.349944e+01   6.740562e-02
   3.079372e+01   2.210327e+01
  -1.743992e+00   1.836101e+01
   2.564932e+01   2.812554e+01
  -3.022613e+01   2.463248e+01
  -6.174841e+00   7.801316e+00
   1.890487e+00  -3.749326e-01
  -3.754391e+01  -2.642323e+00
  -1.934185e+01  -2.798319e+01
   4.021961e+01  -6.547643e+01
   9.253490e+01  -5.689315e+01
   6.426876e+01   3.703237e+01
   3.979727e+01   8.198178e+01
  -1.250499e+01   6.759574e+01
  -4.892507e+01   4.807653e+01
  -6.075944e+01  -7.300508e+00
  -4.489907e+01  -2.702787e+01
  -1.873102e+00  -3.518474e+01
  -1.118317e+01  -1.394759e+01
   5.744219e+00   2.629453e+01
  -3.229266e+00   2.280796e+00
   2.086290e+01  -1.219582e+01
   2.158320e+01   3.688046e+00
  -1.799901e+01   3.770473e+01
   2.626979e+01   5.299059e+00
  -3.040005e+01   3.118744e+01
  -7.735909e+00  -2.176848e+01
   1.414541e+01  -8.437678e+00
   2.503746e+00  -2.493139e+00
  -2.305951e+00  -8.110344e+00
   7.442670e+00  -1.784262e+01
  -3.222498e+01  -2.407116e+01
  -3.489789e+01   1.934198e+00
   5.163496e+00   4.236998e+01
   2.953284e+01   1.291381e+01
   4.276401e+01   8.234166e+00
   1.121481e+00   2.237671e+01
  -7.169671e+01   1.840927e+01
  -5.744310e+01  -2.537654e+01
  -2.598736e+01  -3.744067e+00
   3.502939e+00  -7.767681e+00
   1.083093e+01  -4.161585e+01
  -5.454872e+00  -3.233621e+01
  -8.498450e+00   2.112880e+01
   3.243364e+01   8.194551e+00
  -1.458779e+01   6.342770e+00
   2.915396e+00   2.666002e+01
  -1.351895e+01   2.103325e+01
   1.982584e+01  -1.791754e+01
  -3.332901e+01   2.522401e+01
  -8.500652e+00   7.929982e+00
  -3.148879e+01  -2.961200e+01
   9.054138e-01   4.207158e+00
  -1.701174e+01   2.398344e+01
  -1.680199e+01   4.688973e+00
  -4.591457e+01  -7.345355e+01
  -2.226425e+01  -1.965996e+01
   6.500877e+00   2.786251e+01
   4.128790e+01  -3.275270e+01
   4.395687e+01   8.978125e-01
  -2.505334e+01   1.817795e+01
  -8.081360e+01  -2.095809e+01
  -2.600555e+01   2.733823e-01
   6.050828e+00   8.016215e+00
   6.643826e+01  -2.526504e+01
   2.938884e+01  -3.927009e-01
  -2.419538e+01   1.443286e+01
   4.290964e+00   1.735125e-01
  -1.330537e+01  -6.332038e+00
   1.235253e+01  -5.243845e-01
