
 $NMID
 id='ANONYMOUS ', fmtdat='(2E16.6)'
 volume=1.0
 tramp=1.0
 $END
  -2.712266e+03   9.457623e+01
  -2.037917e+03  -1.600129e+03
   8.281689e+01  -2.025452e+03
   1.272486e+03  -9.985681e+02
   7.659853e+02   8.559141e+01
  -1.440105e+02   2.676236e+02
  -5.253370e+02  -1.698074e+02
  -3.547995e+01  -6.450855e+02
   5.171312e+02  -5.885578e+02
   6.560314e+02   1.857174e+01
   3.831703e+02   5.953618e+02
  -3.176368e+01   6.587667e+02
  -3.952262e+02   2.201478e+02
  -2.559113e+02  -5.132702e+02
   9.482217e+01  -5.751633e+02
   4.095919e+02  -1.309249e+02
   2.918451e+02   4.258984e+02
  -1.534009e+02   5.549005e+02
  -4.199336e+02   2.530139e+02
  -3.687822e+02  -2.089502e+02
  -4.815388e+01  -3.518576e+02
   1.738966e+02  -2.465941e+02
   1.336774e+02  -3.091516e+01
  -1.951359e+02  -2.880574e+01
  -2.665513e+02  -1.059655e+02
  -1.132885e+02  -2.993996e+02
   3.365841e+02  -2.453849e+02
   5.968365e+02   1.524503e+02
   3.212673e+02   3.790656e+02
  -2.526456e+02   2.332116e+02
  -4.723551e+02  -3.363485e+01
  -2.502849e+02  -3.224989e+02
   2.070831e+02  -4.271843e+02
   4.542898e+02  -1.989962e+02
   3.854087e+02   1.835431e+02
   6.490759e+01   3.668011e+02
  -5.229795e+01   1.967056e+02
  -1.573610e+01  -1.786692e+02
   1.536536e+02  -3.172149e+02
   2.594894e+02   3.208029e+01
   1.033141e+02   5.365813e+02
  -2.480479e+02   4.279589e+02
  -3.349197e+02   6.758498e+00
  -1.236340e+02  -3.270755e+02
   2.072436e+02  -1.479893e+02
   2.393509e+02   2.926491e+02
  -3.913853e+01   4.119074e+02
  -4.308488e+02   1.109435e+02
  -4.707721e+02  -3.011790e+02
  -1.648158e+02  -4.771906e+02
   2.977910e+02  -2.629768e+02
   4.713415e+02   7.581517e+01
   3.323152e+02   3.267323e+02
  -1.032136e+02   2.007277e+02
  -3.109640e+02   2.555022e+01
  -1.917361e+02  -8.021720e+01
   2.029315e+01  -7.469393e+01
   5.398613e+01   1.161587e+02
  -1.152211e+02   9.031550e+01
  -2.487585e+02  -3.652550e+01
  -1.028883e+02  -1.964733e+02
   1.375475e+02  -2.014131e+02
   2.716850e+02  -9.824732e+01
   2.200151e+02   9.107398e+01
   5.864266e+01   2.491303e+02
  -2.479629e+02   3.087881e+02
  -3.077806e+02   1.321555e+02
  -2.181037e+02  -1.628073e+02
  -9.313436e+01  -3.412702e+02
   8.004178e+01  -2.776416e+02
   3.163690e+01  -1.494781e+02
   4.734750e+01  -3.517670e+01
   1.080802e+02  -1.143394e+02
   2.018680e+02  -3.680111e+01
   1.774484e+02   1.144491e+02
   1.413021e+02   2.441944e+02
  -1.217328e+02   1.780218e+02
  -2.229722e+02   1.642974e+01
  -1.129770e+02  -2.389260e+02
   8.002722e+01  -2.718950e+02
   2.274256e+02  -5.932221e+01
   2.981849e+02   1.720286e+02
   1.476694e+02   2.636940e+02
  -5.921687e+01   2.524261e+02
  -1.877823e+02   1.119142e+02
  -1.539006e+02   6.008834e+01
  -1.241754e+02   3.106275e+01
  -1.812559e+02   2.367370e+01
  -3.507783e+02  -5.298926e+01
  -2.307187e+02  -1.982004e+02
  -1.768398e+00  -3.951714e+02
   3.024057e+02  -4.052416e+02
   4.001714e+02  -1.484168e+02
   2.615032e+02   6.661208e+01
   2.074442e+01   2.395030e+02
  -1.127414e+02   1.688535e+02
  -5.879642e+01   1.092448e+01
   1.005291e+02  -1.091838e+02
   1.222989e+02   2.826940e+01
   7.312007e+01   1.102681e+02
  -9.436244e+01   1.073596e+02
  -4.786524e+01  -5.134158e+01
   9.062159e+00  -1.541414e+02
   1.312790e+02  -3.071317e+01
   7.882071e+01   1.878225e+02
  -2.614346e+01   2.938832e+02
  -2.056354e+02   1.687921e+02
  -2.767987e+02  -9.474169e+01
  -2.377143e+02  -2.022626e+02
  -6.027711e+01  -2.444763e+02
   8.377139e+01  -1.259219e+02
   1.261487e+02   2.324291e+01
   4.356540e+01   3.807916e+01
  -5.874111e+01  -6.152483e+01
  -1.802523e+01  -1.632817e+02
   1.410462e+02  -4.467626e+01
   1.572726e+02   7.429597e+00
   3.898363e+00   3.068536e+01
  -9.028298e+01  -1.602325e+01
  -3.555826e+01  -1.066175e+02
   9.427142e+01  -1.363384e+02
   2.055662e+02  -1.160529e+01
   2.415469e+02   1.846497e+02
   2.351107e+01   2.754764e+02
  -1.592290e+02   2.060902e+02
  -2.263234e+02   5.308723e+01
  -1.013363e+02  -5.252890e+01
   4.297171e+01  -1.018670e+02
   1.210714e+02   1.277976e+01
  -1.322688e+01   1.076907e+02
  -1.645964e+02   6.669244e+01
  -1.332987e+02  -1.137953e+02
  -4.029853e+01  -1.372974e+02
   7.171866e+01  -1.030552e+02
   9.993530e+01   1.503995e+01
   1.569861e+01   3.815837e+01
  -5.015558e+01  -1.485183e+01
  -2.776584e+01  -5.018917e+01
   6.118023e+01  -6.154296e+01
   1.533671e+02   2.745844e+00
   1.525862e+02   1.535627e+02
   1.380862e+00   1.672681e+02
  -1.340374e+02   1.419789e+02
  -1.584968e+02  -1.069441e+01
  -5.063157e+01  -1.177236e+02
   5.884392e+01  -1.368040e+02
   8.445960e+01  -3.639781e+01
   1.340962e+01  -5.970205e+00
   2.260492e+01   3.603364e+01
  -1.843542e+01  -3.303435e-01
   6.012648e+01   4.203701e+01
   2.447790e+01   8.463109e+01
   2.225553e+01   1.254811e+02
  -1.142021e+02   1.442786e+02
  -2.425030e+02   1.630573e+01
  -1.479025e+02  -1.316998e+02
   9.785847e+00  -1.830536e+02
   1.015335e+02  -1.538204e+02
   1.079981e+02  -6.105507e+00
   1.141429e+02   5.256191e+01
   5.302730e+01   1.604404e+01
   3.403413e+01  -8.564640e+00
   5.972656e+01  -1.692932e+01
   1.425005e+00   2.443124e+01
  -2.002345e+00   6.936433e+01
  -7.157235e+01   7.693253e+01
  -8.030589e+01   2.951161e+00
   1.550411e+01  -1.052292e+02
   1.743104e+02  -7.202992e+01
   1.596593e+02   7.386915e+01
   3.951468e+01   1.903185e+02
  -1.146357e+02   1.733185e+02
  -1.683450e+02   8.760009e+01
  -1.732726e+02  -9.251239e+01
  -6.066352e+01  -1.623379e+02
   2.661190e+01  -8.795892e+01
   4.425886e+01  -4.106097e+01
   4.835116e+01  -1.065271e+02
   6.634296e+01  -9.145621e+01
   4.678991e+01  -7.381959e+01
   8.746455e+01   5.494841e+01
   1.178604e+02   1.819146e+02
   2.581878e+01   2.120113e+02
  -5.489258e+01   1.333073e+02
  -1.550900e+02  -1.070030e+01
  -1.141343e+02  -9.469472e+01
  -6.046831e+01  -1.723186e+02
   7.709548e+01  -1.254505e+02
   3.523241e+01   4.652041e+00
   1.457251e+01   1.160147e+01
  -1.406825e+01  -1.449975e+01
   3.643269e+01  -1.696306e+01
   3.971636e+01   2.503394e+01
   5.207491e+00  -7.221273e-02
  -5.016659e+01   8.012943e+01
  -1.563816e+02   4.084025e+01
  -1.026721e+02  -5.608264e+01
   3.419100e+01  -8.843067e+01
   1.816615e+02  -1.328516e+01
   1.400155e+02   4.781198e+01
   4.666859e+01   8.925655e+00
  -7.999692e+01   5.712800e+01
  -5.378100e+01  -3.890390e-03
   1.055757e+01  -5.907071e+01
   9.681269e+00   2.882239e+00
   3.947168e+01  -2.319077e+01
   4.027374e+01   7.053637e+01
   1.133943e+02   1.748069e+01
   4.079727e+01   2.446288e+01
   2.049347e+01  -1.617546e+01
   4.204673e+01   4.600277e+01
  -7.768820e+01   1.534946e+02
  -1.410632e+02   1.046775e+02
  -1.567712e+02   3.754315e+01
  -1.220040e+02  -1.179566e+02
   1.338384e+01  -1.082477e+02
   7.709389e+01  -2.159262e+01
   4.052582e+01  -2.717423e+01
  -1.893735e+01  -2.589823e+01
  -1.259274e+02  -4.323387e+00
  -4.967454e+01  -7.648026e+01
   7.092267e+01  -3.955053e+01
   1.453567e+02  -1.827135e+01
   1.479348e+02   6.309105e+01
   2.477614e+01   7.322533e+01
  -4.274709e+01   6.325149e+01
  -1.736493e+01  -1.174635e+01
   3.074529e+01  -7.074998e+00
   8.325908e+01   4.743163e+01
  -3.098837e+00   9.416951e+01
  -6.445253e+01   9.499621e+01
  -1.327352e+02   5.390110e+01
  -7.647406e+01  -6.442772e+01
  -4.063815e+01  -1.688509e+02
   8.239111e+01  -1.145204e+02
   9.497872e+01   2.303910e+01
   8.634930e+01   1.418827e+02
   6.002257e+00   8.525924e+01
  -4.971660e+01  -2.756057e+01
  -2.277536e+01  -4.246856e+01
  -1.864722e+01   1.913379e+01
   1.616153e+01   4.404185e+01
  -7.581436e+01   1.549964e+01
  -8.439344e+01  -8.940652e+01
  -6.407224e+01  -4.516652e+01
   2.572478e+01  -5.142275e+01
   1.505371e+02   7.880629e+00
   1.149214e+02  -1.804361e+00
   1.854850e+01   2.532690e+01
  -5.264702e+01   2.589549e+01
  -3.035954e+01  -1.925230e+01
  -5.332542e+00  -6.359922e+01
   2.852768e+01  -1.932999e+01
   3.212127e+01   3.221389e+00
   3.269605e+01   2.459590e+01
   4.440932e+01   5.391119e+00
   5.725645e+01   5.943448e+01
   4.632671e+01   1.105255e+01
   3.932950e+01   8.034777e+01
  -1.495449e+02   1.283782e+02
  -1.130292e+02   4.123844e+01
  -9.834681e+01  -3.496853e+01
  -3.237164e+01  -5.743360e+01
   6.091932e+01  -1.060024e+02
   7.639516e+01  -6.778860e+01
   4.601531e+00   2.896498e+01
   4.291730e+01   2.337615e+01
   2.654489e+01  -2.916530e+01
  -1.090037e+01  -3.692328e+01
   3.382678e+01   1.654857e+01
   2.006555e+01   1.176998e+02
  -2.949226e+01   5.171139e+01
  -4.907962e+01  -4.220717e-02
  -1.071667e+02  -9.611857e+01
   3.746491e+00  -3.717622e+01
   4.241354e+01  -8.710118e+00
   6.000132e+01  -1.047720e+01
   1.174990e+01   1.064319e+02
  -6.614432e+01   9.195662e+01
  -1.464437e+02  -2.748721e+01
  -3.462331e+01  -1.036982e+02
   3.013743e+01  -5.044580e+01
  -4.344455e+00   1.348086e+01
  -6.063760e+01   5.377497e+00
  -8.440157e+01  -1.995826e+00
  -8.180799e+00  -9.940691e+01
   5.783379e+01  -8.038984e+01
   7.740148e+01  -7.413758e+00
   4.513203e+01   6.592602e+01
  -1.958502e+00   3.080772e+01
  -6.697712e+01   5.398002e+01
  -4.224649e+01   1.742686e+01
   3.316614e+00  -4.808232e+00
   1.667692e+01  -2.309712e+01
   8.545625e+01   1.583788e+01
   3.326194e+01   6.439738e+01
   1.337650e+01   6.633799e+00
  -4.380120e+01  -7.094199e+01
  -4.014248e+01   8.647829e-01
  -6.089875e+01   2.025411e+00
  -1.947824e+01   3.223895e+01
  -3.040385e+00  -6.254271e+01
  -2.662062e+01  -3.051650e+01
  -2.247619e+01  -1.312349e+01
   1.327874e+01   7.514081e+00
  -3.812480e+00   8.160030e+01
   1.494924e+01   4.628372e+01
  -4.119887e+01   2.220418e+01
  -2.176931e+01  -5.754217e+01
  -4.319741e+01  -6.092720e+01
   3.059246e+01  -5.487815e+01
   6.172208e+01   1.626831e+01
   1.245885e+01   4.710055e+01
  -5.350473e+01   4.994478e+01
  -1.145178e+02   2.769248e+00
   3.349573e+00  -4.523371e+01
   2.219317e+01  -3.843877e+01
   6.398086e+01   3.218675e+01
   1.035535e+01   3.590104e+01
  -6.864846e+01   2.487511e+01
