
 $NMID
 id='ANONYMOUS ', fmtdat='(2E16.6)'
 volume=1.0
 tramp=1.0
 $END
   2.650176e+03   2.331479e+02
   1.543801e+03   1.473821e+03
  -1.871917e+02   1.606753e+03
  -1.246706e+03   8.401834e+02
  -6.652603e+02  -3.899200e+01
   8.006680e+01  -2.025078e+02
   2.086184e+02   1.484338e+02
  -4.272932e+01   4.967888e+02
  -4.117243e+02   4.747943e+02
  -4.867104e+02   8.243502e+01
  -3.127443e+02  -5.105463e+02
  -8.340525e+00  -4.440696e+02
   2.688208e+02  -1.144410e+02
   1.812800e+02   4.420621e+02
  -1.046430e+02   4.384020e+02
  -3.088968e+02   8.251132e+01
  -2.106844e+02  -4.972944e+02
   1.380002e+02  -4.834431e+02
   3.023745e+02  -1.816746e+02
   3.266493e+02   1.817843e+02
   9.811161e+01   3.306316e+02
  -1.247029e+02   2.073641e+02
  -5.022355e+01   4.653227e+01
   1.760239e+02  -2.459480e+01
   2.793392e+02   1.330248e+02
  -2.975703e+01   3.072742e+02
  -3.753425e+02   1.275540e+02
  -5.404219e+02  -1.554693e+02
  -1.686185e+02  -3.587998e+02
   3.385734e+02  -1.833624e+02
   5.181464e+02   1.003506e+02
   1.867947e+02   3.128935e+02
  -2.619337e+02   3.164103e+02
  -4.026790e+02   1.527703e+02
  -2.180350e+02  -7.565791e+01
  -3.829915e+01  -2.081988e+02
   1.000718e+02  -1.074636e+02
   2.855227e+01   1.350345e+02
  -2.109757e+02   1.405641e+02
  -2.557147e+02  -9.738622e+01
  -9.470993e+01  -4.363071e+02
   1.749868e+02  -3.945351e+02
   3.434010e+02  -2.408392e+01
   1.219178e+02   2.962984e+02
  -1.323427e+02   1.609224e+02
  -1.576513e+02  -2.318456e+02
   1.103681e+02  -3.725670e+02
   3.623626e+02  -2.764958e+01
   3.938881e+02   3.414174e+02
   1.124712e+02   4.669401e+02
  -3.022904e+02   2.769906e+02
  -4.600104e+02  -3.920116e+01
  -2.832766e+02  -2.685990e+02
   1.002879e+02  -2.643533e+02
   2.648590e+02  -8.028233e+01
   1.835972e+02   4.537650e+01
  -1.386543e+01  -7.722650e+00
  -4.619161e+00  -5.348858e+01
   1.078880e+02  -4.064657e+01
   2.452002e+02   3.618409e+01
   1.043820e+02   1.812145e+02
  -1.413298e+02   1.985295e+02
  -2.537572e+02   1.159544e+02
  -2.048523e+02  -4.676854e+01
   9.171876e+01  -2.104392e+02
   1.971514e+02  -2.280501e+02
   2.596642e+02  -1.483778e+02
   1.791558e+02   1.479873e+02
   3.595598e+01   3.113384e+02
  -4.875958e+01   2.532691e+02
  -2.707486e+01   1.391933e+02
  -6.475315e+01   5.325519e+01
  -8.218213e+01   1.287408e+02
  -2.046817e+02   5.038734e+01
  -1.743889e+02  -9.376224e+01
  -1.236295e+02  -1.925885e+02
   2.640558e+01  -2.079281e+02
   1.384170e+02   3.686996e+01
   9.780558e+01   2.378614e+02
  -6.890256e+01   2.637785e+02
  -2.146423e+02   6.827319e+01
  -2.605118e+02  -1.432071e+02
  -1.403699e+02  -2.286643e+02
   2.526306e+01  -2.131971e+02
   1.760360e+02  -1.015567e+02
   1.725774e+02  -2.829382e+01
   1.483274e+02  -3.837480e+01
   2.407173e+02  -4.679027e+01
   3.053874e+02   1.410869e+02
   2.774522e+02   2.490996e+02
  -1.277156e+01   3.518201e+02
  -2.887124e+02   3.525835e+02
  -4.280424e+02   1.365525e+02
  -2.786933e+02  -6.276778e+01
  -1.003571e+01  -2.307643e+02
   6.796436e+01  -1.305715e+02
  -1.734301e+01  -5.484610e+01
  -1.586351e+02   4.416450e+01
  -1.112362e+02  -4.731563e+01
  -3.877426e+00  -1.408994e+02
   1.568037e+02  -1.341682e+02
   1.225293e+02   7.466130e+01
  -1.746584e+01   1.023243e+02
  -1.607640e+02  -3.903777e+01
  -1.180561e+02  -2.082932e+02
   3.253091e+01  -2.304244e+02
   1.747124e+02  -1.170389e+02
   2.624360e+02   1.188486e+02
   1.679729e+02   1.947244e+02
  -8.268428e+00   2.746888e+02
  -1.873357e+02   5.382684e+01
  -1.467729e+02   2.135068e+01
  -4.748969e+01  -6.465246e+01
   6.484454e+01   2.710566e+01
   3.182449e+01   1.004443e+02
  -9.930059e+01   5.793388e+01
  -1.106525e+02  -1.396074e+01
  -7.330064e+01  -7.016325e+01
   5.410666e+01  -3.235567e+01
   6.144887e+01   9.040782e+01
  -1.575475e+02   1.026516e+02
  -2.382190e+02   4.852883e+00
  -1.744112e+02  -1.327300e+02
  -2.153868e+01  -2.270376e+02
   1.607953e+02  -1.864529e+02
   1.791628e+02  -8.602542e+01
   6.429694e+01   4.826921e+01
  -3.812492e+01   6.246997e+01
   5.699178e+00  -2.279430e+00
   7.705226e+01  -5.486320e+01
   1.246736e+02  -2.220140e+01
   1.088631e+02   5.731805e+01
   1.121241e+02   1.807366e+02
  -4.320655e+01   1.670416e+02
  -7.170959e+01   1.097828e+01
  -6.148747e+01  -5.493670e+01
  -4.059323e+00  -1.111467e+01
   1.994968e+01   9.000655e+01
  -6.195050e+01   9.964779e+01
  -1.763220e+02   9.017989e+00
  -1.994376e+02  -9.892027e+01
  -1.516739e+01  -2.080542e+02
   1.340934e+02  -1.297677e+02
   1.408286e+02  -3.602499e+00
   6.008866e+01   7.290840e+01
  -2.473600e+01   9.881187e+01
  -5.988671e+01   1.979759e+01
   3.821143e+01  -9.173720e+00
  -5.301959e+00   7.457780e+00
  -1.416840e+01   6.398779e+01
  -9.553655e+01   1.000829e+01
  -1.046243e+02  -5.220352e+01
  -3.440523e+01  -1.725616e+02
   1.102937e+02  -1.538451e+02
   1.971689e+02   5.605168e+00
   1.620225e+02   1.321680e+02
   1.951902e+01   1.515973e+02
  -1.678048e+01   1.323387e+02
  -7.230099e+01   4.763952e+01
  -6.970797e+01  -6.199016e+01
  -9.309394e+00  -2.936421e+01
  -3.075883e+01   7.339320e+00
  -7.135568e+01  -7.086684e+00
  -8.563877e+01  -7.571204e+00
  -3.748049e+01  -5.368442e+01
   1.191517e+02  -4.944159e+01
   1.211137e+02  -2.702696e+01
   1.783607e+01   3.614835e+01
  -1.492215e+02   5.231471e+01
  -1.723133e+02  -2.444847e+01
  -4.101063e+01  -1.258879e+02
   8.923071e+01  -1.593768e+02
   1.789754e+02  -4.755635e+01
   2.265869e+02   1.068519e+02
   4.497010e+01   1.432824e+02
  -5.849298e+01   9.709364e+01
  -1.059786e+02   7.954957e+01
  -1.019806e+02   3.797813e+01
  -6.517546e+01   5.712442e+01
  -4.304680e+01   4.479433e+01
  -8.699359e+01  -6.058633e+00
  -8.588367e+01  -9.940256e+01
  -1.492881e+01  -1.917161e+02
   5.458711e+01  -1.604189e+02
   1.091447e+02  -3.288623e+01
   4.205070e+01   8.807933e+01
   1.091900e+01   1.219605e+02
  -6.151645e+01   6.945560e+01
  -2.150811e+01  -5.391079e+01
  -3.742832e+00  -7.251119e+01
   6.999587e+01  -4.681954e+01
  -4.698624e+00  -1.407652e+01
  -6.892330e+01   2.798876e+01
  -7.723561e+01  -2.017170e+01
   4.343711e+01  -4.395401e+01
   9.650158e+01  -2.360148e+01
   1.002555e+02   6.807591e+01
  -1.436583e+01   8.401587e+01
  -1.097655e+02   8.111813e+00
  -9.171218e+01   1.095519e+01
  -2.088783e+01  -2.535995e+01
  -5.634356e+00  -2.050936e+01
   3.699464e+01   2.512132e+01
  -3.193709e+00   5.350164e+01
  -5.698847e+00  -1.346513e-01
  -5.182598e+01  -4.973773e+01
  -6.880978e+01  -6.644601e+01
  -4.554990e+01  -5.277370e+01
  -3.880416e+01  -5.071783e+01
  -3.875371e+01  -3.450403e-01
  -8.073441e+00  -6.173700e+01
   5.933955e+01  -1.002419e+02
   9.502809e+01  -7.278548e+01
   7.420826e+01   1.209100e+01
   6.301659e+01   8.980038e+01
   6.866107e-01   9.335507e+01
  -1.009221e+02   1.651592e+01
  -6.464263e+01  -3.717868e+01
   5.727263e+01  -2.617491e+01
   1.550895e+02   2.238988e+01
   4.862661e+00   6.312169e+01
  -1.247094e+02   1.085576e+02
  -1.326552e+02   2.922821e+01
  -1.175125e+02  -2.521909e+00
  -6.835691e+01  -8.242453e+01
   4.621632e+01  -7.340255e+01
   1.992522e+01   1.415194e+01
  -3.566256e+01  -2.854809e+01
  -1.333075e+02  -4.329674e+00
  -8.818849e+01  -1.267942e+02
   1.096457e+02  -1.052012e+02
   1.102092e+02  -7.568941e+01
   9.469721e+01   7.523789e+01
   2.125564e+01   1.491008e+02
  -5.094448e+01   6.129741e+01
  -1.032765e+02  -2.596058e+01
  -1.027474e+02  -9.504203e+01
   5.246185e+00  -7.630721e+01
   4.151814e+01  -8.099862e+00
   1.059931e+01   4.189122e+01
   5.510661e+01  -3.261953e+01
  -2.707775e+00  -1.659312e+01
   1.430483e+01   4.029496e+01
   4.099665e+01   7.524217e+01
   2.206349e+01   1.027208e+02
  -7.162744e+01   6.418991e+01
  -1.099653e+02  -3.428302e+01
  -1.568496e+02  -7.257279e+01
  -7.198512e+00  -7.997369e+01
   8.628931e+01  -4.083234e+01
   7.701185e+01  -2.876916e+01
   5.424967e+01   2.657033e+01
  -4.269592e+01   5.604142e+01
  -2.755881e+01   3.306465e+01
   2.579097e+01  -1.133121e+01
  -3.552763e+01  -3.437513e+01
  -5.125795e+01  -4.520676e+01
  -5.881052e+01  -7.813734e+00
  -2.293215e+00  -8.210651e+01
   8.874672e+01  -5.513229e+01
   1.447804e+02  -7.807743e+01
   1.222596e+02   4.488911e+01
   1.463991e+01   1.209091e+02
  -1.165419e+01   1.073151e+02
  -7.957596e+01   6.141018e+01
  -5.648753e+00  -4.996230e+00
   1.313519e+01   6.999701e+00
  -2.104235e+00   2.130752e+01
   1.049757e+01   2.195072e+01
  -5.091718e+00   1.115136e+01
   1.515201e+01  -2.993974e+01
   2.279618e+01  -8.222871e+01
   8.106417e+01   2.236020e+01
   7.364499e+01   1.351616e+02
  -2.517410e+01   8.236800e+01
  -2.461363e+01   5.743033e+00
  -9.978039e+01  -4.282913e+01
  -7.018035e+01  -1.029528e+02
   4.896475e+01  -5.808712e+01
   1.511762e+02  -1.047216e+01
   9.639738e+00   5.822089e+01
  -1.169683e+01   1.018139e+01
  -1.802599e+01   1.052257e+01
  -6.436502e+00   6.845518e-01
   5.484538e+01   1.983865e+01
   1.713499e+01   4.604782e+01
  -6.484105e+01   8.385910e+01
  -8.154965e+01   4.085596e+01
  -7.410522e+01  -8.883086e+00
   2.675313e+00  -1.005997e+02
   3.969466e+01  -4.451866e+01
   1.665514e+01  -3.384855e+01
  -3.824414e+01   5.428576e+01
  -1.178584e-01   2.250421e+00
  -7.340704e+00  -4.804630e+01
   1.991680e+01  -3.255108e+01
   4.417481e+01  -1.416938e+01
   3.756776e+00   3.832792e+01
  -1.622616e+01   2.613297e+01
  -9.994165e+00   2.507584e+01
   2.849075e+01  -4.849983e+01
   9.136438e+00  -7.208236e+00
  -1.530897e+01   3.151056e+01
  -4.894432e+01   2.004805e+01
  -3.646949e+01   1.808653e+00
  -1.353361e+01   7.088747e+00
  -7.169115e+01  -2.214506e+01
   5.848644e+01  -2.224020e+01
   6.116076e+01   2.181535e+01
   4.299866e+01   6.513156e+01
  -2.556306e+01   6.206106e+01
  -2.328277e+01  -1.696460e+01
  -8.919014e+00  -4.615078e+01
   2.421342e+01  -5.053435e+01
   8.105933e+00   2.378352e+00
  -5.194903e+00  -2.502337e+01
  -1.759791e+01  -2.615878e+01
   1.354814e+01  -4.243421e+01
   1.319518e+01  -3.613218e+01
   1.930956e+01   1.318199e+01
