
 $NMID
 id='ANONYMOUS ', fmtdat='(2E16.6)'
 volume=1.0
 tramp=1.0
 $END
   2.425778e+03  -5.404413e+01
   1.521153e+03   1.215557e+03
   8.719691e+01   1.541247e+03
  -7.991840e+02   1.062636e+03
  -8.096744e+02   2.450052e+02
  -1.694173e+02  -1.739693e+02
   2.204613e+02   5.764696e+01
   1.118678e+02   2.543733e+02
  -2.971959e+02   4.462520e+02
  -4.510835e+02   7.243080e+01
  -3.640880e+02  -3.011609e+02
  -8.868279e+01  -4.335131e+02
   1.999167e+02  -1.830423e+02
   1.575340e+02   2.542741e+02
  -1.035257e+02   3.636422e+02
  -2.872665e+02   4.871068e+01
  -3.186008e+02  -4.376444e+02
   5.470855e+00  -5.130602e+02
   3.097294e+02  -3.386589e+02
   3.931568e+02   4.772411e+01
   1.433054e+02   2.750291e+02
  -6.180499e+01   1.969478e+02
   6.497110e+01  -2.133374e+01
   1.267528e+02   1.982634e+02
   2.348522e+02   2.667049e+02
  -1.684041e+01   2.846476e+02
  -4.246729e+02   9.699240e+01
  -4.279695e+02  -1.960547e+02
  -1.234225e+02  -2.797306e+02
   1.818679e+02  -1.048974e+02
   2.998779e+02   1.352280e+02
   1.127294e+02   2.999647e+02
  -2.343112e+02   1.940075e+02
  -3.557163e+02   7.775692e+01
  -2.171236e+02  -1.421467e+02
  -1.054282e+01  -2.289705e+02
   9.383779e+00  -1.332746e+02
  -6.009040e+01   8.822626e+01
  -9.525108e+01   4.726966e+01
  -9.233216e+01  -1.419702e+02
   8.021092e+01  -3.478575e+02
   1.739737e+02  -2.591974e+02
   1.636103e+02   5.600254e+00
   3.170745e+01   2.112399e+02
  -1.490546e+02   5.643914e+01
  -9.439239e+01  -2.870796e+02
   1.569438e+02  -2.760565e+02
   3.323891e+02  -1.469776e+00
   3.883544e+02   2.967412e+02
   1.347275e+02   3.368783e+02
  -2.327944e+02   2.151292e+02
  -4.657959e+02  -4.446231e+01
  -2.695504e+02  -1.906973e+02
   8.003985e+01  -1.512650e+02
   2.035114e+02  -3.288686e+01
   1.529952e+02  -1.642990e+01
   4.709992e+01   7.643723e+00
  -7.122550e+00  -9.044976e+01
   1.097748e+02   2.755610e+01
   1.434430e+02   4.307127e+01
   2.518041e+01   1.837190e+02
  -1.658990e+02   2.296519e+02
  -2.408171e+02   1.414213e+02
  -2.025252e+02  -4.028593e+01
   2.101560e+01  -2.502906e+02
   2.069463e+02  -3.380161e+02
   2.556127e+02  -1.627069e+02
   1.857190e+02   8.125484e+01
   5.822037e+01   2.761248e+02
   7.787891e+00   2.410762e+02
  -8.385878e+00   1.230349e+02
  -9.907581e+00   1.188325e+02
  -1.864261e+02   1.145662e+02
  -2.034476e+02   3.487712e+00
  -1.687243e+02  -1.075186e+02
  -5.509079e+01  -1.767159e+02
   5.009443e+01  -1.451192e+02
   1.510530e+02   4.293341e+01
   5.386182e+01   2.043630e+02
  -6.181696e+01   1.911955e+02
  -1.884089e+02   2.573539e+01
  -2.534680e+02  -1.443439e+02
  -1.576145e+02  -2.937088e+02
   4.641725e+01  -2.399791e+02
   1.303612e+02  -1.860818e+02
   1.150835e+02  -1.185315e+02
   9.692188e+01  -6.811886e+01
   2.139885e+02  -5.446350e+01
   3.273400e+02   7.759235e+01
   1.959210e+02   2.358934e+02
  -1.265301e+01   3.055442e+02
  -2.990972e+02   2.803564e+02
  -4.089457e+02   9.493642e+01
  -2.580808e+02  -3.458773e+01
  -2.565884e+01  -2.267512e+02
   5.971447e+01  -1.887931e+02
  -1.621945e+01  -6.230872e+01
  -4.200964e+01  -1.537256e+01
  -6.394446e+01  -4.338536e+01
   1.625064e+01  -9.401691e+01
   1.063002e+02  -1.859521e+01
   4.970234e+01   8.215103e+01
  -2.686090e+01   1.263868e+02
  -1.811714e+02   2.532606e+01
  -1.901404e+02  -2.175790e+02
   1.990835e+01  -3.269503e+02
   2.144131e+02  -1.626166e+02
   3.092383e+02   3.691924e+01
   2.262255e+02   2.244349e+02
   4.647719e+01   2.491308e+02
  -1.481321e+02   9.855308e+01
  -1.428430e+02  -6.850077e+00
  -5.546884e+00  -5.017772e+01
   1.502141e+01   7.094488e+00
   1.586338e+01   1.190811e+02
  -7.610602e+01   7.024909e+01
  -1.521786e+02  -8.147670e+01
  -1.789116e+01  -5.545259e+01
   8.993957e+01  -4.834879e+00
   6.098231e+01   6.444902e+01
  -7.854987e+01   6.678103e+01
  -2.302363e+02  -4.541457e+01
  -2.466700e+02  -1.520072e+02
   2.333996e+01  -2.165715e+02
   2.056863e+02  -1.542718e+02
   1.511468e+02  -1.107865e+02
   1.325796e+02   1.234983e+01
  -3.783458e+01   2.921337e+01
  -6.764420e+01  -9.121227e+00
   2.518369e+01  -7.473828e+01
   1.420604e+02  -4.620671e+01
   1.008776e+02   7.435399e+01
   5.020483e+00   1.302847e+02
  -7.569404e+01   1.040605e+02
  -1.101564e+02   3.133008e+01
  -3.445368e+01  -5.527853e+01
   4.515360e+01  -6.343075e+01
   1.008802e+01   1.237690e+02
  -9.696147e+01   1.400293e+02
  -1.661007e+02   1.089238e+01
  -1.430350e+02  -1.097861e+02
  -1.948079e+01  -1.762546e+02
   9.597398e+01  -1.392669e+02
   1.284695e+02  -4.720883e+01
   5.178534e+01   3.363718e+01
  -1.056585e+01   8.401331e+01
  -3.127962e+01   4.140642e+01
   1.335483e+00  -5.914730e+00
   9.293276e+01   4.429940e+01
  -1.660762e+01   3.198587e+01
  -6.788893e+01   2.186162e+01
  -1.162580e+02  -7.834466e+01
  -2.698883e+01  -8.524168e+01
   1.151201e+02  -1.169242e+02
   1.754205e+02  -2.330739e+01
   1.947417e+02   1.320974e+02
   7.438064e+01   1.824969e+02
  -9.885012e+01   1.204480e+02
  -8.334097e+01   4.328856e+00
  -6.540586e+01  -8.803815e+01
  -5.538284e+01  -8.186152e+01
  -5.746149e+01  -2.509561e+01
  -9.903161e+01  -4.260201e+00
  -4.037811e+01  -6.450936e+01
   9.663956e+00  -9.719315e+01
   9.802931e+01  -8.763929e+01
   1.120161e+02   2.244626e+01
   1.471090e+01   1.336148e+02
  -1.443775e+02   8.314186e+01
  -1.660681e+02  -3.281069e+01
  -1.035029e+02  -2.085684e+02
   1.188763e+02  -1.738703e+02
   2.198309e+02  -7.402845e+01
   2.164583e+02   6.996753e+01
   7.793770e+01   1.512371e+02
  -2.734116e+01   1.493927e+02
  -9.066209e+01   3.930700e+01
  -1.191548e+02   1.119220e+02
  -6.292053e+01   1.043591e+02
  -5.847354e+01   6.254391e+01
  -1.471710e+02   1.575219e+01
  -1.065650e+02  -1.429664e+02
   3.528686e+01  -1.319178e+02
   5.105219e+01  -1.295983e+02
   1.591886e+02  -4.088010e+01
   1.204836e+02   8.694891e+01
   3.846354e+01   1.212170e+02
  -6.202055e+01   6.925669e+01
  -7.629681e+01   1.292099e+01
   3.520045e+00  -6.485604e+01
   7.916800e+01  -4.974947e+01
  -2.616021e+01  -4.147222e+01
  -5.671085e+01  -1.357141e+00
  -3.908425e+01  -4.246811e+01
   7.598512e+01  -5.606859e+01
   1.013435e+02   7.558517e+00
   1.316639e+02   1.247093e+01
  -3.715064e+01   1.119538e+02
  -1.401279e+02   4.200682e+01
  -1.295895e+02   2.539278e+01
  -4.761402e+01  -3.107846e+01
   5.786047e+00   9.312749e+00
   1.730236e+01   1.562408e+01
   2.220612e+01   4.422895e+01
  -2.112337e+01   5.199949e+01
  -6.550794e+01   2.426861e+00
  -6.031234e+01  -3.169513e+01
  -4.778636e+01  -6.313440e+01
  -6.501402e+01  -1.384299e+01
  -7.013706e+00   5.455205e+01
  -4.050262e+01  -3.733538e+01
   4.256565e+01  -1.334857e+02
   8.336301e+01  -7.390121e+01
   1.299563e+02   5.007237e+00
   1.329735e+02   1.271106e+02
  -1.696766e+01   1.356017e+02
  -4.643440e+01   7.092043e+01
  -5.705246e+01   4.557718e+01
  -3.823115e+01   2.419481e+01
   1.577139e+02   1.868016e+00
   7.315219e+01   7.183540e+01
  -4.941141e+01   9.664187e+01
  -1.147366e+02   1.322992e+01
  -8.137390e+01  -3.870667e+01
  -4.458547e+01  -1.018716e+02
   9.960584e+01  -3.668659e+01
   5.548690e+01  -2.076699e+01
  -4.363968e+01   1.343124e+01
  -7.223808e+01  -4.574187e+01
  -3.616248e+01  -7.814567e+01
   4.439151e+01  -1.103707e+02
   1.176365e+02  -1.029150e+02
   1.278551e+02   4.985082e+01
  -2.687725e+01   1.759614e+02
  -2.866217e+01   1.068783e+02
  -8.311604e+01  -4.724604e+01
  -6.042307e+01  -9.985649e+01
   5.163783e+01  -7.980737e+01
   3.300469e+01   2.738822e+01
   1.635671e+01   3.120456e+01
   2.607823e+01  -1.839648e+00
  -5.747378e+01  -2.421873e+01
  -6.941205e+00   1.103517e+00
   3.700628e+01   8.129103e+01
   4.863507e+01   1.023663e+02
  -3.055659e+01   5.160379e+01
  -1.179045e+02  -3.692745e+01
  -8.748505e+01  -6.189426e+01
  -4.877462e+01  -4.461140e+01
   7.160580e+01  -2.978316e+01
   9.067913e+01  -4.157430e+01
   2.625363e+01  -2.053176e+01
  -1.597780e+01   3.821367e+01
  -2.736001e+00   1.710208e+01
   2.641869e+01   4.866782e+00
   5.188527e+01  -3.137233e+01
  -5.427716e+01   8.800153e+00
  -5.892741e+01  -2.573723e+01
  -1.447396e+01  -7.896457e+01
   6.499062e+01  -9.201286e+01
   1.611776e+02  -6.835781e+01
   1.690996e+02   1.788167e+01
   1.731336e+01   1.340299e+02
  -3.850668e+01   1.238196e+02
  -1.157414e+02   2.979091e+01
  -6.254819e+01  -3.824133e+01
  -2.001589e+01  -6.518420e+01
   2.217831e+01  -1.063656e+01
   3.257472e+01   2.490321e+01
  -2.079057e+01  -8.166041e+01
  -4.457268e+01  -1.072974e+02
  -1.302075e+01  -1.130161e+02
   2.865906e+01   3.029862e+00
   3.775689e+01   7.623395e+01
   7.197749e+00   8.777636e+01
  -6.532939e+01  -1.990971e+01
  -1.176557e+02  -1.100734e+02
   1.497473e+01  -1.289059e+02
   9.760489e+01  -6.280093e+01
   1.029029e+02   2.169392e+01
   5.262620e+01   9.243366e+01
  -1.797838e+00   6.133674e+01
   2.038585e+01   2.270706e+01
   2.121159e+01   1.313878e+00
   2.495542e+01   1.911799e+00
   6.483118e+00   3.852086e+01
  -1.006907e+02   5.486220e+01
  -9.036160e+01   5.324171e+01
  -9.935820e+01  -3.056502e+01
   1.471689e+01  -7.834051e+01
   4.590138e+01  -6.241527e+01
   1.188016e+01  -4.183256e+01
   2.359549e+01   6.599432e+01
  -2.683914e+01   5.305429e+01
   1.312544e+01  -3.032075e+01
  -1.058764e+01  -9.622073e+01
  -3.513238e+01  -1.261436e+01
   8.376219e+01   4.217464e+01
   4.130019e+01   4.597867e+01
  -1.218301e+01   2.467232e+01
   6.360625e+00  -2.275062e+01
   1.476097e+01  -1.175054e+02
  -8.523043e+00   8.864308e+01
   1.858622e+01   4.896761e+01
  -2.745545e+01  -2.078473e+01
  -6.244077e+01  -4.397855e+01
  -3.161550e+01  -6.207220e+01
   3.078012e+01  -4.582728e-01
   8.886923e+01  -1.573413e+00
   4.887478e+01   3.386596e+01
  -8.920260e+01   1.864837e+01
  -1.018382e+02   1.487819e+01
  -6.598675e+01  -5.071514e+00
  -2.146502e-01  -4.871416e+01
   7.650499e+01  -4.006251e+01
   3.121096e+01  -2.861137e+01
  -6.026951e+01  -7.035132e-01
  -3.136309e+01   4.188075e+00
   2.039150e+01  -4.988672e+01
   7.635568e+01  -3.367129e+01
