
 $NMID
 id='ANONYMOUS ', fmtdat='(2E16.6)'
 volume=1.0
 tramp=1.0
 $END
  -2.259141e+03   1.944014e+02
  -1.696623e+03  -1.068766e+03
  -2.001243e+02  -1.510469e+03
   7.139443e+02  -1.035468e+03
   6.643538e+02  -3.063682e+02
   1.245613e+02  -4.800243e+01
  -1.405980e+02  -2.667667e+01
  -9.272653e+00  -3.510906e+02
   2.804704e+02  -4.198688e+02
   4.851477e+02  -3.338846e+01
   2.651283e+02   3.391130e+02
  -5.407365e+01   4.767106e+02
  -2.073474e+02   1.258665e+02
  -1.906326e+02  -3.433105e+02
   3.720015e+01  -3.958057e+02
   3.517883e+02  -1.094650e+02
   3.500884e+02   3.108678e+02
  -4.231630e+01   5.260645e+02
  -3.780657e+02   2.213366e+02
  -3.682394e+02  -1.234057e+02
  -8.477285e+01  -2.236530e+02
   3.987555e+01  -2.140510e+02
  -2.116443e+01  -6.571046e+01
  -1.276064e+02  -6.907898e+01
  -2.391752e+02  -2.517111e+02
   3.669813e+01  -2.741256e+02
   3.975989e+02  -9.311515e+01
   3.709504e+02   1.023352e+02
   1.175048e+02   2.168490e+02
  -2.999860e+02   7.069279e+01
  -3.592441e+02  -1.440859e+02
  -7.717086e+01  -2.922370e+02
   2.509571e+02  -3.176507e+02
   3.739880e+02  -1.056813e+02
   2.261673e+02   1.359095e+02
   7.453877e+01   2.417633e+02
  -1.900005e+01   8.782762e+01
   7.675496e+01  -7.025028e+01
   1.211189e+02  -5.056312e+01
   4.503476e+01   1.277789e+02
  -6.269071e+01   2.984070e+02
  -1.581686e+02   2.843446e+02
  -1.913684e+02  -2.401094e+01
  -3.804179e+01  -2.058097e+02
   7.334986e+01  -9.759584e+01
   9.876533e+01   2.119110e+02
  -1.259410e+02   3.023949e+02
  -3.386453e+02   8.683304e+01
  -3.777156e+02  -2.568509e+02
  -1.575938e+02  -3.632798e+02
   2.353584e+02  -2.084142e+02
   3.724039e+02   2.511482e+00
   2.654909e+02   1.650759e+02
   1.096261e+01   1.945197e+02
  -2.102908e+02   8.673905e+01
  -1.705113e+02   1.007728e+01
  -2.821236e+00   3.022385e+01
   4.445256e+01   6.904429e+01
  -7.601098e+01   5.308277e+01
  -2.145090e+02  -4.461588e+01
  -1.364295e+02  -1.581833e+02
   1.250241e+02  -1.795790e+02
   2.944008e+02  -1.384347e+02
   2.700860e+02   4.577041e+01
  -7.958120e+00   2.605642e+02
  -2.787192e+02   3.359508e+02
  -3.293374e+02   1.699431e+02
  -1.623474e+02  -1.694473e+02
  -4.663202e+01  -2.880324e+02
   4.128727e+01  -2.402486e+02
   6.263086e+01  -1.364737e+02
   2.232900e+01  -8.424506e+01
   1.574317e+02  -1.201001e+02
   2.147465e+02  -4.092645e+01
   1.849515e+02   1.294271e+02
   1.178452e+02   1.968142e+02
  -9.499734e+01   1.182227e+02
  -1.384725e+02  -2.887263e+01
  -7.865020e+01  -1.958498e+02
   8.781162e+01  -2.054738e+02
   2.165623e+02  -2.845207e+01
   2.536826e+02   1.440582e+02
   1.243882e+02   2.999178e+02
  -3.113632e+01   2.223556e+02
  -1.448570e+02   1.491893e+02
  -1.302313e+02   5.780864e+01
  -9.615164e+01   5.896186e+01
  -2.490594e+02   3.584071e+01
  -3.300400e+02  -8.771449e+01
  -2.272119e+02  -2.696562e+02
   4.910720e+01  -3.330685e+02
   3.067053e+02  -2.511842e+02
   3.644137e+02  -1.276370e+02
   2.338816e+02   8.449408e+01
   3.750829e+01   1.809021e+02
  -2.619076e+01   1.319386e+02
  -4.542575e+01   4.718730e+01
   7.212435e+01   1.131262e+01
   6.789963e+01   8.498224e+01
  -2.534665e+01   1.445471e+02
  -9.160144e+01   6.813164e+01
  -1.343900e+02  -8.507163e+01
   3.478922e+01  -1.246904e+02
   1.372420e+02   1.009835e+01
   9.291985e+01   1.987724e+02
  -8.994246e+01   2.370070e+02
  -2.103233e+02   1.514236e+02
  -2.659729e+02  -3.663705e+00
  -2.121593e+02  -2.081889e+02
  -6.270711e+01  -2.527028e+02
   1.157643e+02  -1.197311e+02
   9.259356e+01  -2.744665e+01
   1.815836e+01   1.994887e+01
  -2.569402e+01  -1.067982e+02
   4.903121e+01  -1.016108e+02
   1.287808e+02  -4.563816e+01
   1.295157e+02   5.403800e+01
  -2.063090e+00   6.723160e+01
  -3.196883e+01  -6.429489e+00
  -3.812417e+00  -9.973010e+01
   1.494431e+02  -3.957414e+01
   2.659561e+02   5.426885e+01
   2.438815e+02   1.696409e+02
   1.228923e+01   2.246836e+02
  -1.896439e+02   1.653258e+02
  -1.719843e+02   7.438182e+01
  -1.105167e+02  -4.432742e+01
   1.159756e+01  -8.474663e+01
   4.244133e+01   5.427627e+00
  -3.746752e+01   6.922166e+01
  -1.569744e+02  -2.535651e+01
  -1.198635e+02  -6.206371e+01
   4.923445e+00  -1.360014e+02
   1.256038e+02  -9.353262e+01
   9.444047e+01   1.032833e+00
   5.949720e+01   3.469679e+01
  -1.265260e+00  -4.369563e+00
   1.651893e+01  -5.064719e+01
   8.696845e+01  -1.146888e+02
   2.033790e+02   2.107009e+01
   1.459598e+02   1.325493e+02
  -3.351476e+01   1.992384e+02
  -2.042286e+02   1.699676e+02
  -1.143004e+02  -4.666604e+01
  -4.916411e+01  -1.158563e+02
   3.881746e+01  -5.458187e+01
   6.121276e+01  -2.430827e+01
  -5.525349e+01   4.132452e+00
  -3.865215e+01  -1.415237e+01
   3.410323e+01  -9.070473e+01
   6.973473e+01  -4.017375e+01
   9.095751e+01   1.019390e+02
  -1.837900e+01   1.517367e+02
  -1.007241e+02   1.299954e+02
  -1.781094e+02  -1.157211e+01
  -1.060055e+02  -1.771891e+02
  -7.966340e+01  -2.268888e+02
   1.073559e+02  -1.509609e+02
   1.199019e+02  -1.511136e+01
   4.448133e+01   1.578331e+01
  -2.748821e+00   2.846765e+01
   3.250981e+01   1.067231e+00
   8.066950e+01   3.474164e+01
   4.247518e+01   8.122762e+01
  -5.134874e+01   8.983052e+01
  -7.577614e+01   4.254854e+01
  -1.057144e+02  -8.730057e+01
   3.504338e+00  -9.056031e+01
   1.440386e+02  -8.469534e+01
   1.673955e+02   5.708173e+01
   3.879097e+01   1.983205e+02
  -9.810343e+01   2.007292e+02
  -2.291647e+02   6.599989e+01
  -2.448975e+02  -7.554969e+01
  -9.492736e+01  -1.350957e+02
   3.283736e+01  -1.268000e+02
   9.927112e+01  -7.387786e+01
   5.959535e+01  -3.827374e+01
   1.031741e+02  -9.850542e+01
   1.405248e+02  -7.967764e+01
   1.509888e+02   4.285773e+01
   1.250436e+02   1.322406e+02
   1.391518e+01   2.168788e+02
  -7.645049e+01   1.270899e+02
  -1.504390e+02   1.240236e+01
  -1.142048e+02  -8.840267e+01
  -9.797743e+00  -1.248961e+02
   5.423406e+01  -6.553491e+01
   7.140905e+01   2.393574e+01
  -4.718914e+01   3.588533e+01
  -5.321578e+01   1.552920e+01
  -5.285280e+00  -9.305914e+00
   1.028985e+02   3.557370e+01
   1.370444e+01   8.574365e+00
  -8.784299e+01   3.926468e+01
  -1.749845e+02  -1.272928e+01
  -8.491650e+01  -3.001352e+01
   8.384902e+01  -7.675131e+01
   1.110209e+02  -4.736008e+01
   8.822987e+01  -1.301703e+01
   1.960634e+01   5.544968e+01
  -9.178739e+01   4.772114e+01
  -6.794981e+01  -1.312880e+01
  -4.791453e+01  -1.284695e+02
   5.386938e+01  -5.392408e+01
   1.072582e+02   1.079327e+01
   6.116589e+01   2.270130e+01
   3.509117e+01   1.013450e+02
   2.844087e+01  -9.242011e+00
   4.328838e+01  -7.128536e-01
   6.443863e+01   4.024327e+01
   1.386005e+01   1.425240e+02
  -1.267156e+02   1.412705e+02
  -1.145814e+02  -3.752468e+01
  -1.075029e+02  -5.302186e+01
   2.384866e+01  -7.521289e+01
   7.202948e+01  -8.850455e+01
   3.648552e+01   1.155647e+01
  -7.669810e+01   3.598511e+01
  -1.247829e+02  -7.129821e+01
  -4.552802e+01  -9.297546e+01
   8.485411e+01  -9.369454e+01
   1.124648e+02  -3.998153e+01
   5.653252e+01   4.100814e+01
   8.330975e+00   8.030586e+01
  -7.556895e+01   3.592038e+01
  -4.164319e+01  -2.607763e+01
   8.353045e+01  -5.473830e+01
   8.952810e+01   5.108943e+01
   4.478204e+00   1.218103e+02
  -5.294792e+01   8.626996e+01
  -1.048427e+02   8.173356e+01
  -1.216963e+02  -2.877602e+01
  -4.412891e+00  -1.572665e+02
   6.574830e+01  -1.114613e+02
   1.451097e+02   1.027312e+01
   5.948157e+01   1.495558e+02
  -2.164137e+01   9.557931e+01
  -3.199586e+01   3.813812e+01
   2.852619e+00  -3.726628e+01
  -1.411848e+01   7.991480e+01
  -3.495752e+01   4.076487e+01
  -3.356337e+01  -5.082589e+01
  -8.603553e+01  -6.462296e+01
  -5.065220e+01  -8.418592e+01
   8.488319e+01  -1.614540e+01
   1.269475e+02   2.424106e+01
   1.080366e+02   6.147066e+01
  -5.612132e+01   4.078605e+01
  -7.952282e+01   1.519152e+01
  -7.921640e+01  -7.257156e+00
  -3.116232e+01   1.091688e+01
   1.694098e+01  -7.109074e+01
  -4.825934e+00   1.016081e+01
  -2.814113e+01  -6.298364e+00
  -9.098962e+00   3.175502e+01
   6.036115e+01  -1.557056e+01
   1.048923e+02   2.685960e+01
   1.409588e+00   4.010833e+01
  -8.691947e+01   1.153248e+02
  -1.625911e+02   8.466401e+01
  -1.575244e+02  -7.210726e+01
   6.011316e+00  -1.648609e+02
   4.844366e+01  -1.622170e+02
   7.973395e+01  -8.559254e+01
   8.024051e+01   8.352222e+01
   6.137137e+01   3.483840e+01
   3.593906e+01   1.775731e+01
   3.220252e+01   1.098774e+01
   8.684788e+01   7.756529e+01
   2.062518e+01   2.637996e+01
   5.817751e+00   5.661481e+01
  -4.792978e+01  -4.192871e+01
  -6.725258e+01  -8.854939e+01
  -7.312264e+00  -9.115603e+01
   5.420493e+01  -3.725141e+01
   1.129596e+02   4.346867e+01
   4.560370e+01   4.827221e+01
  -1.960253e+01   3.811121e+01
  -4.299710e+01   1.164623e+01
  -3.512691e+01  -9.393551e+01
   5.053437e+01  -6.135355e+01
   6.540318e+01  -1.290807e+01
  -1.406618e+01   2.639799e+00
  -4.337893e+01  -5.333471e+01
   4.564270e+01  -1.553587e+01
   4.017555e+01  -4.917723e+01
   8.900920e+01  -6.105158e+01
   5.550274e+01   5.568804e+00
   5.919270e+00   1.150625e+02
  -6.330841e+01   4.211740e+01
   2.298978e+00   4.176606e+01
   2.398251e+01  -4.577870e+01
  -6.964152e+00  -5.744971e+01
   1.903882e+01   4.293670e+01
  -6.706928e+00   5.679945e+01
  -3.694122e+01   1.020333e+02
  -6.036851e+01  -2.324974e+00
  -6.627701e+01  -5.243340e+01
  -1.263806e+01  -1.940692e+01
   8.597926e-01  -1.889768e+01
  -5.116383e+01  -2.319448e+01
   2.810899e+01   1.048066e+01
  -1.935488e+01  -6.863760e+01
   4.227862e+01  -4.075875e+01
   5.068776e+01   5.830991e+01
  -8.350360e-01   7.353148e+01
  -6.525366e+01   2.873252e+01
  -8.932944e+01  -2.382396e+01
  -2.677746e+01  -5.559196e+01
   7.060746e+01  -5.086129e+00
   6.257788e+01   6.745601e+00
   3.940938e+01   4.450270e+01
  -6.790054e+01   3.373819e+01
  -7.173681e+01  -1.518065e+01
  -6.659714e+01   6.119126e+00
   7.541492e+01   2.527346e+01
   3.942963e+01   4.455666e+01
  -3.233417e+00   1.123716e+01
  -7.000601e+01   3.248221e+01
