
 $NMID
 id='ANONYMOUS ', fmtdat='(2E16.6)'
 volume=1.0
 tramp=1.0
 $END
   1.948222e+03  -1.023818e+02
   1.411340e+03   9.523079e+02
   1.202654e+02   1.254193e+03
  -6.919465e+02   8.311034e+02
  -6.508863e+02   2.314035e+02
  -9.715554e+01  -6.549903e+01
   1.115331e+02  -3.466926e+01
  -1.478996e+01   2.522084e+02
  -2.277503e+02   3.685970e+02
  -4.017770e+02   7.276692e+01
  -3.272008e+02  -2.756089e+02
  -7.634856e+01  -3.907713e+02
   1.190838e+02  -9.847014e+01
   1.064988e+02   2.890064e+02
  -1.203498e+02   4.158710e+02
  -3.206131e+02   6.225086e+00
  -2.461003e+02  -3.545914e+02
   6.235932e+01  -4.260151e+02
   2.815333e+02  -2.520198e+02
   3.292013e+02   8.534066e+01
   1.479139e+02   2.413947e+02
  -9.338972e+01   1.524431e+02
  -1.006008e+00   1.204350e+02
   1.525580e+02   1.420853e+02
   1.948982e+02   2.527089e+02
  -5.523520e+01   2.774635e+02
  -3.630573e+02   3.169314e+01
  -4.066347e+02  -1.783053e+02
  -1.295236e+02  -2.666958e+02
   2.034879e+02  -1.431725e+02
   2.851488e+02   1.145251e+02
   3.230749e+01   2.423049e+02
  -2.236387e+02   2.577408e+02
  -3.137090e+02   7.471869e+01
  -2.044392e+02  -1.312406e+02
  -5.340387e+01  -1.797570e+02
  -2.783598e+01  -1.223725e+02
  -1.160315e+02   2.021946e+01
  -9.073550e+01   6.155967e+01
  -7.580839e+01  -1.078065e+02
   3.832067e+01  -3.085843e+02
   2.063666e+02  -2.654360e+02
   1.886253e+02   2.300022e+01
   2.844449e+01   1.618951e+02
  -1.240613e+02   4.323537e+01
  -1.339986e+02  -1.916662e+02
   9.017432e+01  -2.272914e+02
   2.994580e+02  -6.312432e+01
   2.958328e+02   2.936908e+02
   1.312772e+02   2.891296e+02
  -1.975315e+02   1.218149e+02
  -3.419931e+02  -7.091025e+01
  -2.329844e+02  -1.857289e+02
   7.829416e+01  -1.241971e+02
   1.935004e+02  -2.516267e+01
   1.184709e+02   1.890286e+01
  -8.794762e-01  -2.984736e+01
  -2.480182e+01  -3.897790e+01
   7.485241e+01  -5.017547e+01
   1.189235e+02   1.511679e+01
   6.335009e+01   1.498386e+02
  -5.285334e+01   2.282006e+02
  -1.938407e+02   1.287404e+02
  -2.020087e+02  -7.301638e+01
  -5.651302e+00  -3.540610e+02
   1.767146e+02  -3.604636e+02
   3.196945e+02  -7.075376e+01
   2.085520e+02   1.754897e+02
   4.125903e+01   2.533865e+02
  -3.439949e+01   2.413855e+02
  -3.967990e+01   1.721740e+02
   3.445937e+00   1.070184e+02
  -1.598012e+02   6.556816e+01
  -2.264799e+02  -3.451114e+01
  -1.512236e+02  -1.236368e+02
  -5.047918e+01  -2.181989e+02
   1.039716e+02  -1.785506e+02
   1.479021e+02   4.135866e+01
   1.096918e+02   2.142585e+02
  -3.980490e+01   1.928734e+02
  -1.747024e+02   4.763990e+00
  -1.971195e+02  -1.435468e+02
  -9.442413e+01  -1.894745e+02
   2.698987e+01  -1.648761e+02
   1.036413e+02  -5.901587e+01
   8.604836e+01   3.244706e+01
   7.193518e+01  -6.896865e+01
   1.955729e+02  -3.581098e+01
   2.971191e+02   3.126764e+01
   2.249356e+02   1.514544e+02
  -1.785782e+01   3.225206e+02
  -2.849548e+02   2.872345e+02
  -3.723630e+02   1.253479e+02
  -1.971841e+02  -9.159215e+01
  -1.763319e+01  -1.928681e+02
   5.505978e+01  -1.133121e+02
  -1.229290e+01  -2.558864e+01
  -8.467207e+01   1.419170e+00
  -7.350595e+01  -6.314849e+01
   3.691858e+00  -8.121923e+01
   6.005473e+01  -1.863331e+01
   4.332153e+01   7.969597e+01
  -2.034168e+01   6.463996e+01
  -1.430952e+02  -2.243855e+01
  -1.534060e+02  -1.927617e+02
   2.938512e+01  -2.469152e+02
   1.782284e+02  -1.559889e+02
   2.382406e+02   1.809311e+01
   1.822081e+02   1.748199e+02
   5.644010e+01   2.024571e+02
  -5.469929e+01   1.345626e+02
  -1.499211e+02  -4.183986e+01
  -6.323441e+01  -3.353621e+01
   3.398352e+01   3.977663e+01
  -6.832548e+01   6.989557e+01
  -1.493262e+02   3.111825e+01
  -1.087863e+02  -2.975006e+01
   9.734519e+00  -4.028765e+01
   9.429730e+01   1.135694e+01
   1.384269e+01   3.197309e+01
  -1.215744e+02   6.178320e+01
  -2.406942e+02  -7.623441e+01
  -1.424788e+02  -1.752303e+02
   4.964897e+01  -1.762112e+02
   1.980098e+02  -1.424670e+02
   1.509530e+02  -5.296897e+01
   5.752387e+01   5.547092e+01
  -6.557469e+01   6.395336e+01
  -5.290792e+01  -1.306335e+01
   5.886637e+01  -7.802087e+01
   1.389632e+02  -4.260250e+01
   1.502244e+02   7.408453e+01
   4.554686e+01   1.206064e+02
  -9.291410e+01   3.258115e+01
  -5.911443e+01   4.069331e+01
  -2.783965e+01  -2.900191e-01
   1.988823e+01   1.113268e+01
   7.845133e+01   1.316376e+02
  -9.645946e+01   1.160981e+02
  -1.461919e+02  -2.289687e+00
  -1.133872e+02  -1.147246e+02
   1.090824e+01  -1.381608e+02
   8.663423e+01  -8.989345e+01
   9.056633e+01  -3.606086e+01
   7.282525e+01   1.942586e+00
  -2.926988e+01   3.572494e+01
  -6.594158e+01   3.365342e+01
   2.294870e+01  -3.295341e+01
   6.124138e+01  -4.835340e+01
   4.431565e+01   1.589228e+01
  -5.154527e+01   4.448856e+01
  -1.016755e+02  -1.545261e+01
  -1.509110e+01  -1.393260e+02
   1.071280e+02  -1.228413e+02
   1.730582e+02   1.414140e+01
   1.289378e+02   1.723041e+02
   2.007464e+01   1.302101e+02
  -5.112402e+01   9.608240e+01
  -9.120676e+01   1.039334e+01
  -6.652615e+01  -5.370136e+01
  -5.887502e+01  -3.958812e+01
   5.888908e-01   2.640517e+01
  -3.169194e+01   2.152924e+01
  -2.264097e+01  -5.962426e+01
   3.144825e+01  -9.914178e+01
   1.028225e+02  -3.344270e+01
   9.509333e+01   4.955912e+01
  -5.604471e+01   1.161415e+02
  -9.920409e+01   4.486231e+01
  -1.287387e+02  -9.544151e+00
  -2.268472e+01  -1.311335e+02
   1.109979e+02  -1.372924e+02
   1.757341e+02  -4.459508e+01
   1.382406e+02   9.760205e+01
   3.392791e+01   1.449128e+02
  -6.241761e+01   1.046597e+02
  -9.425590e+01   3.156862e+01
  -4.485860e+01   2.282696e+01
  -4.081051e+01   6.402245e+01
  -8.026208e+01   3.962585e+01
  -9.837844e+01   4.539637e+01
  -1.080447e+02  -1.073365e+02
  -2.024202e+01  -1.848996e+02
   1.033079e+02  -9.848281e+01
   1.382658e+02   5.230426e+01
   6.922961e+01   1.162447e+02
  -2.757323e+01   1.373337e+02
  -4.183812e+01   5.162895e+01
  -5.838957e+01  -4.667379e+01
   1.200871e+01  -7.744519e+01
   2.077627e+01  -3.221868e+01
  -3.175260e+01   2.054176e+01
  -7.830575e+01   3.503977e+01
  -6.546861e+01  -6.235676e+01
   3.291825e+01  -5.145031e+01
   1.093861e+02   2.799867e+01
   1.164099e+02   9.344365e+01
  -5.248070e+00   7.545455e+01
  -1.354025e+02   7.879933e+01
  -1.615676e+02  -3.754095e+01
  -2.046043e+01  -1.481407e+01
   4.825064e+01  -1.984674e+01
   5.513715e+01   2.316313e+01
   4.112946e+01   5.300080e+01
  -3.082594e+01   4.864675e+01
  -8.671373e+01  -1.535469e+01
  -1.335130e+01  -3.619979e+00
  -6.996684e+01  -1.748871e+01
  -9.745002e+01   1.392288e+01
  -6.537472e+01  -5.935175e+00
  -5.460794e+01  -5.247453e+01
  -1.757097e+01  -1.348237e+02
   1.030001e+02  -1.652393e+02
   1.215672e+02  -5.984657e+01
   1.092214e+02   1.127056e+02
   5.354880e-01   1.358710e+02
  -4.653235e+01   9.040637e+01
  -2.640237e+01   1.287598e+01
   7.174756e+01  -2.946826e+01
   8.756965e+01   2.317781e+01
   7.151610e+01   2.197339e+01
  -5.459072e+01   6.227665e+01
  -1.196412e+02  -1.264763e+01
  -1.136105e+02  -5.937613e+01
  -1.679906e+01  -5.184164e+01
   5.890628e+01  -2.858911e-01
   7.027044e+01   3.257824e+01
  -4.169872e+01   3.177171e+01
  -9.504290e+01  -5.413101e+00
  -6.215065e+01  -3.505280e+01
   2.916768e+01  -1.157480e+02
   8.569561e+01  -4.287561e+01
   8.054418e+01   5.653417e+01
  -1.330226e+01   1.331205e+02
  -7.459345e+01   7.652392e+01
  -3.763893e+01  -4.415528e+01
  -1.348226e+01  -7.123914e+01
   1.669802e+01  -4.914987e+01
   3.625383e+01   3.116550e+01
   1.642549e-01   5.665279e+01
  -1.613322e+01  -4.392895e+01
   2.008815e+01  -3.223373e+01
   4.145784e+01  -1.365620e+01
   4.970802e+01   6.577144e+01
   1.026255e+01   6.636602e+01
  -4.176532e+01   9.154828e+00
  -1.005781e+02  -2.172986e+01
  -7.401185e+01  -6.861010e+01
  -1.986936e+01  -4.553945e+01
   4.219936e+01  -2.478659e+01
   2.321236e+01  -7.156855e+00
   3.357239e+01   1.508065e+01
  -6.979894e+00   3.717826e+01
   2.512310e+01  -1.295156e+01
   2.070597e+01  -8.039121e+00
  -4.581356e+00  -3.768875e+01
  -3.664982e+01  -1.714742e+01
  -8.606560e+01  -7.260426e+01
  -3.167548e+00  -7.734113e+01
   6.258666e+01  -8.395361e+01
   1.351456e+02  -3.064646e+01
   1.403082e+02   6.594710e+00
   5.145044e+01   7.587696e+01
  -7.233800e+01   1.144626e+02
  -1.206825e+02   6.399420e+01
  -2.075030e+01  -4.176369e+01
   4.295650e+00  -3.976278e+01
  -2.539922e+01   2.714801e+01
  -2.399978e+01   4.426171e+01
  -5.098321e+01  -5.131255e+01
   2.684611e+01  -3.450452e+01
   8.082147e+00  -4.976417e+01
   4.009708e+01   6.765813e+00
   3.076758e+01   4.166039e+01
   1.776411e+00   4.730028e+01
  -3.660891e+01   3.517063e+00
  -6.922021e+01  -5.297743e+01
  -1.321825e+01  -5.547656e+01
   5.108389e+01  -7.430338e+01
   8.079858e+01  -5.149849e+01
   1.657797e+01   5.327262e+01
  -2.696500e+01   4.993443e+01
  -1.274059e+01  -5.541059e+00
   4.584998e+01  -2.467781e+01
   2.969081e+01  -4.347071e+01
   2.479482e+01   1.216606e+01
  -2.959599e+01   6.576132e+01
  -9.146344e+01   4.289390e+01
  -2.803255e+01  -1.023797e+01
  -1.838244e+01  -4.774516e+01
   2.788955e+01  -4.465095e+01
   1.976605e+01   3.621435e+01
  -1.938983e+01   4.221411e+01
  -1.533740e+00   8.271151e+01
  -1.055069e+00   3.116505e+01
  -6.662130e+01  -2.826377e+01
   5.242210e+00  -4.507873e+01
   6.992869e+01   7.989272e-01
   3.901385e+01   2.858061e+01
  -8.635718e+00   3.489080e+01
  -1.445641e+01  -1.132909e+01
   1.276447e+01  -2.778030e+01
   2.187849e+01   2.766245e+01
   5.268451e+01  -1.103879e+00
  -1.884972e+01  -2.337809e-01
  -4.763988e+01  -6.581238e+00
  -2.352180e+01  -6.481464e+01
  -1.933761e+01  -2.730526e+00
   9.901858e+00   1.418093e+01
   6.012279e+00   3.084283e+01
  -2.467525e+01   5.144566e+01
  -4.817510e+01  -3.711941e+01
  -1.543046e+01  -6.489344e+01
   5.347357e+01  -1.893587e+01
   5.488453e+01  -2.049801e+01
   3.526810e-01   1.633564e+01
  -1.512333e+01   3.858577e+00
   8.595924e+00   1.420601e+01
   1.803780e+01  -2.244141e+01
   2.111786e+01  -6.948467e+01
