
 $NMID
 id='ANONYMOUS ', fmtdat='(2E16.6)'
 volume=1.0
 tramp=1.0
 $END
   1.406619e+03  -9.944920e+01
   9.947926e+02   7.309615e+02
   1.153081e+02   9.502579e+02
  -4.617037e+02   6.820388e+02
  -4.904804e+02   2.763936e+02
  -1.826645e+02  -1.078197e+01
   1.130338e+02   5.220775e+01
   2.772601e+00   1.902062e+02
  -1.501834e+02   2.385752e+02
  -3.179971e+02   1.349159e+02
  -2.228662e+02  -1.851378e+02
  -1.758696e+01  -3.028835e+02
   1.111879e+02  -5.692419e+01
   1.022880e+02   1.633542e+02
  -8.616373e+01   2.451156e+02
  -1.552398e+02  -1.842310e+01
  -1.141907e+02  -2.483149e+02
  -1.653085e+01  -2.751686e+02
   2.269635e+02  -2.083089e+02
   3.106616e+02   5.930611e+01
   1.508756e+02   1.941841e+02
  -6.965041e+01   9.016329e+01
  -7.230187e+01  -1.335394e+01
   1.347083e+02   6.886781e+01
   1.311778e+02   1.532274e+02
  -1.625235e+01   1.804493e+02
  -2.924559e+02   1.060873e+01
  -3.091309e+02  -1.413518e+02
  -8.180743e+01  -1.977181e+02
   1.682360e+02  -6.464463e+01
   2.036270e+02   1.578650e+00
   1.008506e+02   1.347034e+02
  -1.369282e+02   2.009688e+02
  -2.748471e+02   9.875065e+01
  -1.218684e+02  -7.029387e+01
  -4.040136e+01  -1.462299e+02
   3.421506e+00  -6.729270e+01
  -1.052641e+02   4.129636e+01
  -1.020977e+02   3.233251e+01
  -8.716620e+01  -9.063997e+01
   5.860708e+01  -2.277039e+02
   1.177180e+02  -1.902056e+02
   1.255105e+02  -3.950701e+01
   6.801921e+01   1.205362e+02
  -1.705101e+01   6.263689e+01
  -7.329536e+01  -1.165935e+02
   9.191012e+01  -1.791787e+02
   2.178616e+02  -8.326147e+00
   2.580472e+02   2.304078e+02
   9.789584e+01   2.634321e+02
  -1.071457e+02   1.466146e+02
  -2.866108e+02  -5.989422e+01
  -2.060684e+02  -9.647384e+01
  -1.366598e+00  -1.175151e+02
   1.672033e+02  -5.365963e+01
   1.134670e+02  -5.222793e+01
  -1.062201e+01  -3.358629e+00
  -7.977007e+00  -1.927646e+01
   9.251924e+01  -1.281808e+01
   1.355371e+02   4.043516e+00
   9.353944e+01   8.387808e+01
  -8.827583e+01   1.451299e+02
  -1.924346e+02   9.697650e+01
  -1.260967e+02  -3.474742e+01
   3.835258e+00  -1.971672e+02
   1.438940e+02  -2.501340e+02
   1.963129e+02  -7.045590e+01
   1.115341e+02   9.418790e+01
   4.912728e+01   1.562415e+02
  -9.244560e+00   1.324062e+02
  -1.985426e+00   9.070917e+01
  -4.142524e+01   4.925456e+01
  -8.862117e+01   1.002655e+02
  -1.127132e+02  -4.904277e+00
  -9.388788e+01  -8.358380e+01
  -3.037610e+01  -1.333491e+02
   5.253353e+01  -1.306255e+02
   1.155015e+02   4.960125e+01
   3.081870e+01   1.414720e+02
  -7.409384e+01   1.331450e+02
  -1.301873e+02   9.435350e+00
  -1.710622e+02  -1.015451e+02
  -6.190295e+01  -1.445514e+02
   2.969919e+01  -1.372995e+02
   2.638012e+01  -9.153383e+01
   9.806060e+01  -5.901085e+01
   9.799185e+01  -3.290562e+01
   1.666510e+02   5.970987e-01
   2.162004e+02   7.706476e+01
   1.471513e+02   2.058883e+02
  -3.134085e+01   2.601163e+02
  -1.931475e+02   2.047833e+02
  -2.745487e+02   7.147356e+01
  -1.417752e+02  -6.536727e+01
   2.250269e+00  -1.488909e+02
   6.767290e+01  -6.992963e+01
   3.516962e+01  -2.295834e+01
  -5.642779e+01   2.455191e+01
  -6.960343e+01   1.140899e+00
  -1.757893e+01  -4.785681e+01
   7.708100e+01  -1.880005e+01
   2.466993e+01   3.821458e+01
  -4.416238e+01   1.081073e+02
  -1.331123e+02   2.731428e+01
  -1.104021e+02  -7.405012e+01
  -7.820568e+01  -2.225124e+02
   1.079671e+02  -1.075417e+02
   2.043816e+02   1.063450e+01
   1.493381e+02   1.349143e+02
   3.294133e+01   1.231318e+02
  -7.241269e+01   7.807074e+01
  -6.009727e+01  -9.798757e+00
  -2.390730e+01   9.024747e+00
   2.499814e+01   8.026577e+00
   2.889834e+01   3.942329e+01
  -5.538291e+01   4.095943e-01
  -6.645733e+01  -5.596150e+01
   3.231563e+00  -7.073418e+01
   5.823843e+01   2.705867e+01
   6.473919e-01   3.369696e+01
  -7.684900e+01   8.254200e+01
  -1.600770e+02  -4.643342e+01
  -1.444028e+02  -1.013069e+02
  -7.999428e+00  -1.675880e+02
   1.188042e+02  -1.350250e+02
   1.389389e+02  -5.446557e+01
   6.820600e+01   2.694336e+01
  -4.133329e+01   4.857702e+01
   1.964133e-01  -4.320200e+00
   6.601193e+01  -1.415502e+01
   1.057695e+02  -2.760038e+00
   1.070120e+02   5.178439e+01
   2.489997e+01   9.155226e+01
  -4.060729e+01   6.751713e+01
  -5.372058e+01   2.081807e+01
  -2.609625e+01  -1.374558e+01
   2.048028e+01   8.569150e+00
  -1.207315e+01   6.975711e+01
  -3.601863e+01   8.011713e+01
  -6.490587e+01  -2.075973e+01
  -1.367832e+02  -4.636901e+01
  -2.776717e+01  -1.110543e+02
   8.091779e+01  -5.441578e+01
   8.805722e+01   6.078244e+00
   2.553359e+01   4.768357e+01
  -5.704979e+01   4.803566e+01
  -9.827909e+01   2.960326e+01
  -4.443419e+01  -2.062727e+01
  -5.320956e-01  -1.936285e+01
  -2.497088e+01   2.196694e+01
  -6.572935e+01  -2.539013e+01
  -2.957679e+01  -7.495964e+01
   1.196101e+01  -1.190919e+02
   1.026758e+02  -1.017824e+02
   1.606411e+02  -6.593436e+01
   1.120733e+02   7.034001e+01
   1.501274e+01   9.493033e+01
  -3.775585e+01   8.779206e+01
  -1.061396e+02   1.484612e+01
  -4.134351e+01  -1.710542e+01
  -4.608480e+01  -2.198953e+01
  -4.144698e+01  -8.878901e+00
  -4.367159e+01  -9.219067e+00
  -4.015735e+01  -4.732980e+01
   2.454386e+01  -1.079427e+02
   5.267907e+01  -9.014091e+01
   8.598291e+01   4.138358e+01
   3.937101e+01   6.843255e+01
  -8.410082e+01   9.285707e+01
  -1.188203e+02  -6.864719e+01
  -2.453808e+01  -1.512059e+02
   8.117708e+01  -1.525580e+02
   2.264569e+02  -5.265773e+01
   1.628993e+02   6.895985e+01
   3.589510e+01   1.061049e+02
   2.521106e+01   7.260121e+01
  -3.007693e+01   6.717519e+01
  -5.487315e+01   8.355799e+01
  -3.333449e+01   5.035184e+01
  -6.729786e+01   5.496297e+01
  -6.346628e+01  -4.049862e+01
  -5.324144e+01  -1.099328e+02
  -1.515966e+01  -1.218032e+02
   6.625737e+01  -6.050526e+01
   1.048941e+02  -5.234162e+00
   8.409473e+01   7.538729e+01
   3.856596e+01   7.750539e+01
  -5.636346e+01   3.408351e+01
  -5.317829e+01  -1.664638e+01
  -7.730630e+00  -1.571044e+01
   1.204949e+01   5.630439e+00
  -2.069944e+01  -1.108430e+01
  -5.932595e+01  -7.342847e+00
  -2.797019e+01  -3.377569e+01
   1.341215e+01  -4.369704e+01
   9.742218e+01   2.120869e+01
   8.831512e+01   2.679458e+01
  -1.913567e+01   4.612997e+01
  -5.691493e+01   9.188446e+00
  -3.146997e+01  -2.221774e+01
  -4.265304e+00  -1.404878e+01
   5.712555e+01  -3.438732e+01
   4.945992e+01   5.417759e+01
   3.999151e+01   4.572446e+01
  -5.877780e+00   4.781447e+01
  -5.144536e+01   1.316938e+01
  -6.748623e+01  -8.769501e+00
  -7.440634e+01  -5.090981e+01
  -4.077038e+01  -2.684305e+01
  -8.573182e+00  -1.856320e+01
   1.887490e+01  -3.749652e+01
  -1.844311e-01  -1.140792e+02
   7.764481e+01  -1.285789e+02
   1.716940e+02  -1.930640e+01
   1.284016e+02   8.429694e+01
  -1.606148e+00   8.736273e+01
  -4.033565e+01   2.406304e+01
  -5.365122e+01   5.583358e+01
   7.914589e+01  -6.129440e+00
   8.782507e+01   1.534799e+01
   3.168288e+00   1.316872e+02
  -2.885559e+01   8.158707e+01
  -1.286478e+02  -1.441264e+01
  -8.454636e+01  -5.174354e+01
   6.277347e+00  -2.164588e+01
   3.996279e+01  -3.082171e+01
   2.536154e+01  -1.051568e+01
   2.708719e+00   2.721703e+01
  -8.091393e+01  -3.200890e+01
  -4.318763e+01  -8.025087e+01
   3.369305e+01  -5.569731e+01
   7.695788e+01  -5.363660e+01
   1.139825e+02   5.977291e+01
   1.837101e+01   1.291026e+02
  -4.921589e+01   7.086328e+01
  -6.374253e+01  -2.491643e+01
  -2.649580e+01  -6.255691e+01
   3.549388e+01  -9.534381e+01
   1.096809e+01  -5.964548e+00
   7.829483e+00   7.723291e+00
  -1.388893e+01   2.719923e+01
   1.166169e+01  -2.346124e+01
   4.902351e+01   3.057609e+01
   3.610133e+01   8.821796e+01
   1.296836e+01   8.244681e+01
  -3.725496e+01   3.381662e+01
  -8.497890e+01   8.034911e-02
  -1.085371e+02  -1.345623e+01
  -5.367120e+01  -1.714169e+01
   5.501352e+01  -7.820184e+00
   5.246456e+01   3.187296e+00
  -9.019693e+00   3.233142e+01
  -1.238096e+01   4.084654e+01
   9.674201e+00   7.953941e+00
  -1.281591e+01   2.094337e+01
   5.524618e+01   2.824758e+01
  -5.685631e+00  -1.752086e+00
  -6.517580e+01   2.602622e+01
  -8.861044e+01  -1.603116e+01
   4.990222e+01  -7.489460e+01
   9.364265e+01  -4.029016e+01
   7.371278e+01  -1.523363e+00
   8.186649e+00   5.251075e+01
  -5.655720e+01   1.221034e+02
  -9.670786e+01   6.482324e+01
  -1.105749e+02  -1.074582e+01
  -5.271961e+01  -3.609921e+01
   1.991816e+00  -4.068580e+01
   2.384280e+00  -3.853932e+01
  -4.518302e+01  -5.384844e+01
  -3.634993e+01  -3.620898e+01
   2.758518e+00  -7.303707e+01
   4.038614e+01   1.507920e+01
   6.970881e+01   4.124878e+01
   1.261331e+01   6.762696e+01
  -2.111194e+01   4.210932e+01
  -8.123572e+01   1.324603e+01
  -7.385811e+01  -3.240588e+01
   1.992775e+00   4.552162e-01
   7.833624e+01  -2.170786e+01
   6.427331e+00   1.961516e+01
  -3.457292e+01  -1.755126e+01
  -3.855984e+01   1.436016e+01
   3.220564e+01   3.125583e+01
   4.681969e+01  -2.982984e+00
   3.809897e+01   2.263861e+01
  -3.916193e+01   3.356516e+01
  -8.041448e+01   3.849196e+01
  -7.440931e+01  -2.251759e+01
   3.932764e+01  -4.534746e+01
   6.035847e+01  -1.384411e+01
  -2.844341e+00   1.091231e+00
  -3.640524e+01   4.831553e+01
  -1.576760e+01   8.979694e+01
  -1.438310e+01  -1.692005e+01
  -5.604284e+01   2.230403e-01
  -4.429425e+01  -1.750319e+01
   4.178330e+01   1.884627e+01
   2.167119e+00   2.159325e-01
  -3.040888e+01   6.823999e+00
  -1.771291e+01  -9.913006e+00
  -1.290583e+01  -2.736992e+01
  -3.537196e+01  -2.499611e+00
   2.802990e+01   3.855772e+01
   1.967943e+01  -2.097525e+00
  -1.414917e+01  -2.544193e+01
  -1.525701e+01  -1.634820e+01
   7.869267e+00  -3.542067e+01
   5.716188e+01  -3.305116e-01
   4.824950e+01   5.115686e+01
  -3.671830e+01   2.776142e+01
  -7.145800e+01  -3.515198e+01
  -3.474558e+01  -3.413188e+01
   5.115034e+00  -3.098228e+01
   4.213759e+01  -9.645705e-01
   1.475434e+01   2.835810e+01
  -2.236558e+01   3.436671e+01
  -3.199491e+00   2.737665e+01
  -1.176685e+00  -3.169403e+01
   4.832661e+01  -4.343395e+01
