
 $NMID
 id='ANONYMOUS ', fmtdat='(2E16.6)'
 volume=1.0
 tramp=1.0
 $END
   9.287335e+02   7.103873e+01
   5.977662e+02   4.738128e+02
   5.600235e+01   6.339120e+02
  -2.891197e+02   4.332720e+02
  -3.020785e+02   1.637251e+02
  -3.300435e+01  -9.506299e+00
   4.831757e+01   2.941203e+01
   8.471039e+00   1.012573e+02
  -1.303008e+02   1.360848e+02
  -1.971842e+02   4.902068e+01
  -1.206683e+02  -1.260469e+02
  -2.406155e+01  -1.595055e+02
   4.165477e+01  -5.818248e+01
   6.699743e+01   8.529364e+01
  -1.116706e+02   1.594346e+02
  -1.152249e+02   6.469671e+00
  -1.034960e+02  -1.138189e+02
  -4.153865e+00  -2.163663e+02
   1.314686e+02  -1.149245e+02
   1.613316e+02   3.880634e+01
   8.662447e+01   1.048222e+02
   1.163472e+00   8.411449e+01
   6.551644e+00   5.818318e+01
   8.634741e+01   6.060774e+01
   7.120646e+01   1.346170e+02
  -3.606362e+01   1.138849e+02
  -1.778382e+02   9.120028e+00
  -1.541882e+02  -8.291316e+01
  -3.928636e+00  -1.127493e+02
   1.372606e+02  -1.491275e+01
   1.457473e+02   6.106680e+01
   1.646593e+01   1.297916e+02
  -7.138096e+01   1.154908e+02
  -1.657090e+02   7.903980e+01
  -1.096367e+02  -6.288874e+00
  -3.078741e+01  -7.047931e+01
  -3.878622e+01  -6.444879e+01
  -6.067016e+01   4.366606e+01
  -7.907610e+01   4.799626e+00
  -4.189962e+01  -6.099772e+01
   2.392745e+01  -1.323562e+02
   2.538575e+01  -9.724874e+01
   6.268244e+01  -2.915843e+01
   2.999620e+01   7.512482e+01
  -2.552515e+01   3.562357e+01
  -2.191206e+01  -8.301088e+01
   5.256332e+01  -7.924802e+01
   1.649880e+02   4.471384e+01
   1.430073e+02   1.040723e+02
   2.570160e+01   1.387288e+02
  -9.933405e+01   7.127193e+01
  -1.814059e+02  -3.066449e+01
  -9.084381e+01  -6.452205e+01
   3.846867e+01  -7.475284e+01
   9.490282e+01  -1.242485e+01
   4.732284e+01  -2.302958e+01
   1.572691e+00   1.357058e+01
   7.415641e+00  -2.890468e+01
   5.931510e+01  -2.772429e+01
   7.723128e+01   3.437676e+00
   5.786382e+01   1.114018e+02
  -4.493578e+01   1.005622e+02
  -1.421797e+02   4.425933e+01
  -1.282073e+02  -3.850635e+01
  -1.887485e+01  -1.419840e+02
   1.137577e+02  -1.185240e+02
   1.555074e+02   3.080135e+00
   8.874222e+01   1.019417e+02
   1.854235e+01   1.428841e+02
  -4.459656e+01   1.510100e+02
   5.925385e+00   7.063408e+01
  -3.131870e+01   1.995975e+01
  -8.000037e+01   6.715102e+01
  -8.523763e+01  -1.779643e+00
  -7.653691e+01  -4.972908e+01
   1.819308e+01  -9.258967e+01
   6.283310e+01  -5.812789e+01
   9.237317e+01   1.991609e+01
   2.999258e+01   7.505970e+01
  -5.830789e+01   9.131805e+01
  -1.314859e+02  -1.587268e+01
  -1.087031e+02  -7.191421e+01
  -2.623612e+01  -7.967142e+01
   3.602238e+01  -8.735019e+01
   4.736048e+01  -2.734563e+01
   6.535741e+01  -3.338837e+01
   1.024767e+01  -2.044842e+01
   9.203388e+01   7.257726e+00
   1.585720e+02   2.326095e+01
   1.216866e+02   1.527587e+02
   1.026228e+00   1.574405e+02
  -1.605898e+02   1.121390e+02
  -1.823374e+02   2.165136e+01
  -8.590635e+01  -9.581373e+01
   1.016960e+00  -9.819438e+01
   5.889768e+01  -1.071721e+02
   2.375348e+01   9.731908e+00
  -2.715925e+01   1.764602e+01
  -3.024720e+01  -1.868304e+01
  -7.375439e+00  -4.180103e+01
   6.108361e+01  -3.069638e+01
  -1.282078e+01   4.906669e+01
  -1.227509e+01   5.066263e+01
  -7.547285e+01  -2.454646e+01
  -2.325631e+01  -1.190974e+02
   4.286716e+01  -1.582685e+02
   1.162522e+02  -8.134986e+01
   1.990087e+02   3.120121e+01
   1.161196e+02   1.178046e+02
   1.692178e+01   1.055316e+02
  -7.389266e+01   5.014106e+01
  -5.553670e+01   1.515742e+01
  -1.269979e+01  -4.290753e+01
   4.664674e+01  -8.655100e+00
   7.005419e+00   1.819693e+01
  -9.154639e+01  -8.938983e+00
  -6.077167e+01  -2.414585e+01
  -1.522528e+01  -4.441489e+01
   2.933831e+01  -1.669351e+01
   1.569217e+01   1.125439e+01
  -6.139413e+01   2.602543e+01
  -1.101613e+02   9.982427e-02
  -6.043231e+01  -8.909689e+01
  -2.099415e+01  -1.097910e+02
   1.076575e+02  -7.649955e+01
   1.086470e+02  -3.392419e+01
   6.646600e+01   4.411650e+01
   1.156102e+01  -4.406282e+00
  -1.037478e+01  -2.592944e+01
   2.876873e+01  -2.696724e+01
   8.176121e+01   2.207843e+00
   4.695100e+01   5.759464e+01
  -8.753738e+00   8.581877e+01
  -7.256504e+01   1.317052e+01
  -1.309917e+01  -1.607497e+01
  -2.341107e+01  -1.535065e+01
   1.655269e+01   1.563630e+01
   2.041330e+01   2.512794e+01
  -2.732601e+01   1.332103e+01
  -9.367149e+01  -8.167352e+00
  -6.202112e+01  -5.475734e+01
  -6.145165e+00  -5.957523e+01
   3.844351e+01  -5.669037e+01
   6.874774e+01  -2.608268e+01
   3.473876e+01   1.959751e+01
  -6.641543e+01   4.904668e+01
  -2.657518e+01  -9.695128e-01
   3.078139e-02  -2.524516e+00
   9.059010e+00   6.890779e+00
   3.474232e+01   7.278567e+00
  -4.673163e+01  -6.776373e+00
  -2.131485e+01  -1.435152e+01
  -2.539184e+01  -6.240647e+01
   6.610331e+01  -7.663787e+01
   7.469818e+01  -4.237574e+00
   8.095264e+01   3.061816e+01
   2.365925e+01   5.660486e+01
  -5.079144e+01   7.114776e+01
  -6.277881e+01   1.165520e+01
  -4.982475e+01  -3.304451e+01
  -6.452593e+01  -1.344894e+01
  -3.269807e+01  -9.688804e+00
  -2.448570e+01  -3.112397e+01
  -2.003828e+01  -2.759769e+01
   1.606504e+01  -2.196098e+01
   6.001509e+01  -1.249074e+01
   5.338272e+01   8.796612e+01
  -1.401495e+01   4.913750e+01
  -6.455561e+01   2.067459e+01
  -8.149229e+01  -1.283918e+01
  -2.851472e+01  -6.434754e+01
   6.370051e+01  -4.183963e+01
   1.087559e+02  -1.367864e+01
   7.311606e+01   5.199944e+01
   3.276997e+01   4.610305e+01
  -3.280057e+01   3.451629e+01
  -1.621698e+01  -9.888399e+00
  -1.600686e+01   5.148891e+01
  -4.632409e+01   2.166479e+01
  -6.038834e+01   2.813833e+01
  -3.835446e+01  -8.007617e+01
  -4.417223e+01  -3.679039e+01
   8.275722e-01  -7.161904e+01
   4.745826e+01  -4.449324e+01
   6.437934e+01  -1.635745e+00
   8.868549e+00   5.089774e+01
  -2.264288e+01   6.269850e+01
  -2.147735e+01   4.296580e+01
  -8.469840e+00   2.401446e+01
   3.153031e+01   3.711330e+01
   3.760895e+01   3.327700e+01
  -4.782770e+00  -2.555294e+00
  -2.427500e+01  -6.148339e-02
  -4.189203e+01  -9.431613e+00
  -5.143720e+00   1.577851e+01
   5.352340e+01  -7.980736e+00
   4.092622e+01   5.459709e+01
   2.051171e-01   5.316264e+00
  -9.108145e+01   3.477190e+01
  -5.016412e+01   9.242599e+00
  -4.272197e+01  -3.058282e+01
  -3.893955e+01  -7.390196e+01
   4.205743e+01   9.493899e-01
  -3.546781e+01   1.701523e+01
  -2.276124e+01   3.467052e+01
  -6.465562e+01  -1.458270e+01
  -3.662978e+01  -4.901038e+01
  -2.578098e+01  -4.768731e+01
  -4.117456e+00   9.768677e-01
  -5.838886e+00   1.061821e+01
  -1.709793e+01  -2.461671e+01
   2.223105e+01  -4.264945e+01
   6.301859e+01  -6.658917e+01
   7.768442e+01  -2.613805e+00
   4.706448e+01   3.543807e+01
   6.655392e+00   5.036911e+01
  -3.059742e+01   1.396075e+01
  -6.905131e+00   2.073283e+01
   4.312160e+01   4.115060e+01
   4.182612e+01   5.039463e+01
  -3.104460e+01   2.919146e+01
  -5.589491e+01   2.510141e+01
  -9.110087e+01   1.259619e+01
  -3.582683e+01  -4.405534e+01
  -2.975954e+01  -3.112112e+01
   3.404692e+01  -6.363767e+00
  -3.477891e+01  -7.879623e+00
   1.473571e+00   2.707256e+01
  -2.381624e+01  -1.430535e+01
   3.693302e+00  -4.287422e+01
   3.394895e+01  -6.072318e+01
   7.345615e+01  -2.375873e+01
   4.057782e+01   3.451628e+01
   4.122205e+01   9.703009e+01
   1.633960e+00   7.947130e+01
  -5.920954e+01  -1.790471e+01
  -5.778089e+01  -5.506454e+01
  -3.065790e+01  -4.214279e+01
   9.626707e+00  -2.711322e+01
   3.153417e+00   1.867948e+01
  -5.512042e+00   2.363201e+01
  -5.316015e+01  -3.151518e+01
  -6.202956e+00   2.071393e+01
   1.607525e+00   6.764832e+01
   1.584566e+01   3.005887e+01
  -6.419153e+01   5.716040e+00
  -4.746389e+01  -1.604624e+01
  -5.458021e+01  -4.374201e+01
   2.698291e+01  -8.657121e+00
   5.236763e+01   8.853201e+00
   7.424220e+01   3.099501e+00
   8.883438e+00   1.310462e-01
  -2.288971e+01   4.151735e+00
   1.201388e+01   1.071078e+01
   3.556486e+01   2.709942e+01
   3.028993e+01  -1.148826e+00
  -8.681176e+00  -2.881972e+00
  -4.067700e+01   2.567947e+01
  -3.700896e+01  -2.222753e+01
   1.320663e+01  -4.899110e+01
   4.977274e+01  -6.793625e+01
   4.526607e+01   1.082607e+01
  -3.012626e+01   8.532353e+01
  -2.371247e+01   4.172372e+01
  -5.907916e+01   5.308381e+01
  -3.229998e+01  -3.060624e+01
  -1.081129e+01  -1.416271e+01
  -9.864148e+00  -2.087206e+01
  -2.540586e+01  -1.124736e+00
  -8.271886e+00  -1.161392e+01
   2.153938e+01  -4.559673e+01
   2.250453e+01  -8.592506e+00
   4.866923e+01   2.834382e+01
   2.334555e+01   2.370596e+01
  -1.730399e+01   1.539097e+01
  -3.884143e+01   4.203541e+00
  -4.115407e+01  -1.425502e+01
  -3.022001e-01  -3.116298e+01
   4.482557e+01  -2.110330e+01
   3.131427e+01  -2.753902e+00
  -1.903482e+01  -1.084748e+01
  -1.982574e+01   5.165022e+01
  -4.334901e+01  -2.008187e+01
  -1.152988e+01   2.283803e+01
   3.734126e+01   3.022708e+01
   1.245107e+01  -3.402728e+00
  -4.506890e+01   7.440512e+00
  -2.773658e+01   4.049852e+01
  -3.026853e+01   2.480446e+00
  -3.411232e+01  -1.077107e+01
   1.060012e+00  -4.015438e+01
  -2.066833e+01  -1.844282e+01
   9.541820e+00  -1.978288e+01
   1.377949e+01   2.065822e+01
  -2.582745e+01   1.773985e+00
   5.346576e+00  -3.917425e+01
  -1.369295e+01   2.232667e+01
   6.117694e+01   2.622486e+01
  -1.998704e+00  -6.190638e+00
   1.080483e+00   2.234135e+01
   3.461666e+01   4.841591e+00
   4.318401e+00   1.146949e+01
  -1.890768e+01   2.439697e+01
  -1.035826e+01   2.380045e+01
  -1.898441e+01   1.536565e+01
  -3.816920e+01  -4.698677e+01
   5.851612e+00  -2.591478e+01
   1.737670e+01  -9.287862e+00
   4.983192e+01   1.022395e+01
  -9.401233e+00   2.399965e+01
  -2.250416e+01   1.672249e+01
  -4.329983e+01  -7.662764e+00
  -2.267722e+01  -1.246653e+01
   4.246740e+01  -2.189166e+01
   3.786159e+01  -1.615218e+01
   1.712297e+01   6.329875e+00
   2.346753e+01   2.722101e+01
   9.242283e+00   2.078601e+01
  -1.160044e+00  -1.206396e+01
   2.017352e+00  -4.749064e+00
