
 $NMID
 id='ANONYMOUS ', fmtdat='(2E16.6)'
 volume=1.0
 tramp=1.0
 $END
  -2.338986e+03   1.837097e+02
  -1.668841e+03  -1.054536e+03
  -2.144142e+02  -1.386159e+03
   6.145216e+02  -1.035471e+03
   7.482990e+02  -5.711309e+02
   3.039816e+02   7.857774e+01
  -1.168713e+02   4.158220e+01
  -8.921061e+01  -2.298472e+02
   2.966089e+02  -3.686599e+02
   4.258519e+02  -2.198106e+01
   2.889770e+02   3.644186e+02
   6.774297e+01   3.417480e+02
  -1.776206e+02   1.848869e+02
  -1.864328e+02  -2.558715e+02
   1.064341e+02  -3.535876e+02
   3.507208e+02  -1.044580e+02
   2.761982e+02   2.936580e+02
  -7.545783e+01   5.356811e+02
  -3.457622e+02   2.882262e+02
  -3.955881e+02  -4.478269e+01
  -1.311060e+02  -2.691959e+02
   4.441616e+00  -1.540382e+02
   2.693446e+01  -5.108607e+01
  -2.093443e+02  -1.499870e+02
  -2.120248e+02  -3.497728e+02
   1.221618e+02  -3.122858e+02
   3.520997e+02  -5.142810e+01
   3.789090e+02   1.781881e+02
   4.145100e+01   2.737943e+02
  -2.602426e+02   3.000041e+01
  -3.058772e+02  -1.475157e+02
  -1.081157e+02  -2.566748e+02
   1.851809e+02  -2.018063e+02
   3.794148e+02  -7.927598e+01
   2.389314e+02   5.628909e+01
   2.621524e+01   1.587209e+02
   3.240147e+01   7.934857e+01
   6.935184e+01  -4.198041e+01
   1.386581e+02  -5.555032e+00
   8.294966e+01   1.371583e+02
  -9.202376e+01   3.393353e+02
  -2.084564e+02   3.162066e+02
  -1.563479e+02  -1.358508e+00
  -2.498435e+01  -2.290457e+02
   4.122501e+01  -4.589628e+01
   5.047456e+01   2.557424e+02
  -9.882038e+01   2.673769e+02
  -3.317429e+02   4.146214e+01
  -3.339797e+02  -3.126634e+02
  -1.056880e+02  -4.271088e+02
   2.240218e+02  -1.815260e+02
   3.935071e+02   2.214016e+01
   2.773726e+02   1.503938e+02
  -2.833808e+01   1.000159e+02
  -1.805870e+02   6.898544e+01
  -1.811713e+02   1.114153e-02
  -4.704506e+01  -8.691070e+00
   3.476849e+01   1.765304e+01
  -3.401003e+01   2.077011e+00
  -1.353883e+02  -6.682296e+01
  -9.973615e+01  -1.490357e+02
   8.108521e+01  -1.844805e+02
   2.994289e+02  -1.262583e+02
   2.602716e+02   1.125163e+02
  -1.300510e+01   3.375218e+02
  -2.628959e+02   3.053202e+02
  -3.545748e+02   1.413236e+02
  -1.951902e+02  -1.275350e+02
  -4.944513e+01  -3.265930e+02
   2.907675e+01  -1.871577e+02
   2.556559e+01  -1.234647e+02
   6.178123e+01  -1.490805e+02
   1.890964e+02  -1.422607e+02
   2.099372e+02   1.989612e+01
   1.558213e+02   1.707736e+02
   5.230381e+01   2.686924e+02
  -8.871127e+01   1.602332e+02
  -1.159271e+02  -8.793563e+01
  -1.161374e+02  -1.967436e+02
   3.657594e+01  -2.016252e+02
   1.880123e+02  -8.643030e+01
   2.840835e+02   1.018656e+02
   1.140826e+02   2.339436e+02
  -4.679412e+01   1.934652e+02
  -1.047631e+02   1.676891e+02
  -1.336058e+02   1.125713e+02
  -1.202074e+02   4.410082e+01
  -2.692804e+02  -2.386525e+01
  -3.245631e+02  -8.992694e+01
  -2.210591e+02  -2.267503e+02
   6.901176e+00  -3.464362e+02
   2.945773e+02  -3.415376e+02
   3.530085e+02  -1.578628e+02
   2.460653e+02   4.850161e+01
   6.439678e+01   1.589553e+02
  -3.056024e+01   1.549892e+02
   1.446623e+01   2.220258e+01
   3.527481e+00  -3.311205e+01
   1.212907e+02  -4.608948e+00
   4.327475e+01   6.488165e+01
  -4.124070e+01   5.241537e+01
  -2.081339e+01  -4.280774e+01
   3.856697e+01  -9.918823e+01
   1.336820e+02   3.555264e+01
   1.123008e+02   1.967748e+02
  -3.691264e+01   2.850000e+02
  -1.807822e+02   1.777102e+02
  -2.709657e+02  -2.638219e+01
  -2.398651e+02  -2.361025e+02
  -5.071843e+01  -2.346782e+02
   1.161379e+02  -1.010285e+02
   1.267271e+02   1.959746e+01
   3.179757e+01   1.571461e+00
  -4.079177e+00  -7.546046e+01
   4.703594e+01  -6.036642e+01
   1.168662e+02  -2.425917e+01
   8.785860e+01   3.384423e+01
   5.995518e+01  -5.488170e-02
  -3.467554e+01  -2.350445e+01
  -1.751097e+01  -6.936479e+01
   1.698839e+02  -6.176357e+01
   2.646035e+02   3.108043e+01
   2.673427e+02   1.306602e+02
   4.759605e+01   2.263817e+02
  -2.229014e+02   1.852258e+02
  -1.682830e+02   9.489054e+01
  -6.835787e+01  -3.982030e+01
   5.662645e+00  -2.687250e+01
   1.839436e+01   4.135783e+00
  -6.757365e+01   7.213842e+01
  -1.423842e+02  -9.916657e-01
  -1.389935e+02  -5.697660e+01
  -2.111031e+01  -1.433300e+02
   4.248584e+01  -1.144749e+02
   8.778508e+01  -2.713464e+01
  -9.905288e+00   3.378318e+01
  -9.876742e+01  -4.871706e+01
   1.539309e+01  -1.434769e+02
   9.175184e+01  -5.417386e+01
   1.645007e+02  -7.446817e+00
   1.493635e+02   1.386590e+02
  -7.214211e-01   1.643942e+02
  -1.130218e+02   1.008545e+02
  -1.379029e+02   4.304563e+01
  -5.833910e+00  -7.774548e+01
   1.860131e+01  -9.368635e+01
   5.205588e+01  -1.115315e+02
   1.428717e+01  -1.646311e+01
  -2.504807e+01   4.177499e+01
   3.675578e+01  -6.794164e+00
   1.066357e+02  -1.494695e+01
   1.042655e+02   7.953079e+01
   1.205792e+00   1.738081e+02
  -1.693102e+02   1.016695e+02
  -2.083984e+02   8.381688e+00
  -2.146135e+02  -1.454746e+02
   3.960684e+00  -2.258687e+02
   5.706631e+01  -1.287807e+02
   7.477869e+01  -5.528098e+01
   8.222778e+01   1.740485e+01
   1.747086e+01   1.610809e+00
   3.036097e+01  -1.328006e+01
   1.190387e+02  -1.797641e+01
   3.537803e+01   3.048032e+01
   6.504325e+00   1.359290e+02
  -6.564217e+01   6.298078e+01
  -8.056021e+01  -5.233905e+01
   4.482008e+01  -1.159711e+02
   1.555160e+02  -7.223474e+01
   1.873747e+02   1.045670e+02
   3.298850e+01   2.396082e+02
  -1.305786e+02   1.915627e+02
  -2.030440e+02   6.048963e+01
  -1.908737e+02  -6.448461e+01
  -7.679323e+01  -1.346655e+02
   8.667212e-01  -7.763172e+01
   1.244249e+02  -8.757997e+01
   4.992626e+01  -6.505696e+01
   2.171054e+00  -9.862926e+01
   4.511770e+01  -1.049824e+02
   9.598946e+01   2.687043e+01
   1.051891e+02   8.861335e+01
   7.439846e+01   1.778176e+02
  -4.947819e+01   1.632086e+02
  -1.219053e+02   6.883074e+01
  -9.874026e+01  -3.801223e+01
  -3.648581e+00  -8.420748e+01
   7.578999e+01  -4.806224e+01
   5.717739e+01   3.938167e+01
   1.727002e+01   4.922799e+01
  -3.602073e+01   6.156287e+01
   2.719002e+01   1.622195e+01
   9.824850e+01   5.192874e+00
   5.560546e+01   6.951036e+01
  -2.876217e+01   7.388043e+01
  -1.518600e+02  -2.997045e+01
  -1.525587e+02  -4.831515e+01
  -9.251197e+00  -8.910949e+01
   8.737324e+01  -1.045662e+01
   1.438377e+02  -2.862693e+01
   1.089030e+01   3.154409e+01
  -3.149723e+01   2.509855e+01
  -4.990368e+01  -2.802109e+01
  -1.522842e+01  -8.603042e+01
   7.957426e+01  -9.389785e+01
   3.461889e+01  -4.102578e+01
   2.979092e+01   3.774305e+01
  -3.521638e+01   8.963128e+01
  -2.914620e+00   1.303575e+01
   2.618750e+01  -1.996573e+01
   1.815917e+00   5.983304e+01
  -5.370510e+01   1.343972e+02
  -1.348070e+02   1.432813e+02
  -1.802654e+02   1.173753e+01
  -1.008843e+02  -4.958818e+01
   1.143870e+01  -1.335369e+02
   7.640346e+01  -6.230599e+01
   5.434396e+01  -3.931680e+01
  -5.101763e+01  -6.288153e+00
  -1.039568e+02  -8.446749e+00
  -9.045876e+01  -1.002729e+02
   9.222066e+01  -7.417652e+01
   1.642749e+02  -6.497608e+00
   1.171997e+02  -9.100118e+00
   2.063465e+01   8.899939e+01
  -4.611842e+01   8.562933e+01
  -3.964247e+01   6.680425e+00
   5.893582e+01   1.750916e+01
   8.731661e+01   4.002102e+00
   3.244821e+01   4.234613e+01
  -8.594775e+01   1.074147e+02
  -1.152994e+02   4.060720e+01
  -9.810971e+01  -8.054319e+01
  -2.987521e+01  -1.411401e+02
   4.675618e+01  -1.343082e+02
   9.258102e+01   2.104853e+01
   7.664630e+01   9.627519e+01
  -2.018657e+01   4.972682e+01
  -4.625231e+01  -8.489158e+00
  -3.943870e+01  -5.068333e+01
   7.155312e+00  -2.008661e+01
   1.117391e+01  -2.827057e+01
   4.742682e+00  -1.094138e+01
  -5.209190e+01  -4.669042e+01
  -4.758783e+01  -8.260704e+01
   7.688066e+01  -5.591790e+01
   8.278361e+01   1.494999e+01
   1.224512e+02   6.635520e+01
   5.374002e+01   6.788258e+01
  -9.191783e+01   3.972206e+01
  -8.867735e+01   1.565883e+01
  -4.168900e+01   2.632082e+01
   1.549074e+01  -4.062012e+01
   5.984698e+01  -7.388884e+01
   5.902484e+00  -2.135735e+01
  -6.401115e+01  -4.532786e+01
   3.096717e+01   2.020348e+01
   7.189565e+01   3.215665e+01
   3.489903e+01   7.443598e+01
  -7.259351e+01   1.108711e+02
  -1.228566e+02   7.405713e+01
  -1.097447e+02  -5.897274e+01
  -2.730257e+01  -1.675595e+02
   1.192311e+02  -1.021792e+02
   1.057456e+02  -7.595299e+01
   8.615275e+01   4.185195e+01
   2.856743e+01   9.189608e+01
   5.535909e+01   9.421678e+01
   1.012289e+01   1.282932e+01
   2.652770e+01   1.184015e+01
   4.681812e+01   5.955291e+01
  -5.897676e+01   6.357019e+01
  -7.424108e+01  -4.112166e+01
  -9.548685e+01  -4.128411e+01
  -2.995575e+01  -1.069167e+02
   8.059472e+01  -3.707034e+01
   1.154195e+02   4.065272e+01
   6.069683e+01   1.968260e+01
  -4.811920e+01   2.771736e+01
  -6.878103e+01   4.490820e+01
  -4.557120e+01  -3.057460e+01
   1.204499e+01  -6.283332e+01
   2.296133e+01  -1.636502e+01
  -6.631818e+01   2.803957e+01
  -2.335275e+01   8.642557e+00
   2.062622e+01  -6.748561e+01
   7.001988e+01  -5.567784e+01
   1.083468e+02  -4.092524e+01
   6.966032e+01   1.085692e+01
  -1.033518e+01   1.249098e+02
  -5.514450e+01   1.074841e+02
  -2.056317e+01   5.995219e+01
   2.290083e+01  -7.693740e+01
   3.149947e+01  -6.089326e+01
   4.416746e+01   3.512469e+01
   2.748811e+01   6.134833e+01
  -1.394665e+01   1.033042e+02
  -3.803888e+01  -3.903957e+00
  -2.602159e+01  -6.929766e+01
  -1.923777e+01  -1.984332e+01
   5.392055e+01   9.416358e+00
   1.556909e+00   2.216630e+01
  -1.226902e+00  -3.965782e+01
  -5.076285e+01  -3.740626e+01
  -1.856118e+01  -9.488011e+00
   6.526828e+01   3.651513e+01
   1.947231e+01   6.270777e+01
  -1.941415e+01   2.800731e+01
  -3.747251e+01   1.213594e+01
  -3.842889e+01  -4.924609e+01
   3.622404e+01  -2.831056e+01
   1.036736e+02  -1.325079e-01
   7.078651e+01   3.597153e+01
   4.026078e-01   2.650900e+01
  -5.450760e+01   2.854756e+01
   4.284139e+00   1.424573e+01
  -2.184339e+01   3.033999e+01
   2.902868e+01  -1.405445e+01
  -4.570363e+01  -1.879157e+01
  -4.441748e+01  -5.081059e+00
