
 $NMID
 id='ANONYMOUS ', fmtdat='(2E16.6)'
 volume=1.0
 tramp=1.0
 $END
   1.660884e+03  -7.008138e+00
   1.111955e+03   7.616793e+02
   1.495824e+02   1.080325e+03
  -4.666937e+02   8.575253e+02
  -5.429074e+02   2.825309e+02
  -2.290862e+02   5.440064e+01
   4.423006e+01   2.722057e+01
   2.683425e+01   1.907680e+02
  -1.901180e+02   2.672313e+02
  -3.267857e+02   1.067004e+02
  -3.017674e+02  -1.835063e+02
  -4.511593e+01  -3.202645e+02
   8.993443e+01  -1.584123e+02
   8.164718e+01   1.638149e+02
   3.062808e+01   2.962719e+02
  -2.006917e+02   1.117726e+02
  -1.782439e+02  -1.751150e+02
  -4.547269e+01  -3.628454e+02
   1.918143e+02  -2.463540e+02
   3.081659e+02   6.362729e+01
   1.415255e+02   1.340477e+02
  -3.041060e+01   1.343174e+02
  -2.096749e+01   1.057014e+02
   1.488144e+02   1.749988e+02
   1.402671e+02   1.887058e+02
  -8.052921e+01   2.032380e+02
  -2.640182e+02   4.896108e+01
  -3.646095e+02  -1.354733e+02
  -1.269827e+02  -1.856642e+02
   2.061192e+02  -6.428346e+01
   3.131424e+02   8.129251e+01
   1.120460e+02   2.286490e+02
  -1.677768e+02   1.308967e+02
  -1.985489e+02   8.869525e+01
  -1.527018e+02  -5.992410e+01
  -6.420192e+01  -1.435729e+02
  -1.341573e+01  -9.269821e+01
  -1.085410e+01   5.647223e+01
  -1.373874e+02   3.471706e+01
  -9.608494e+01  -1.501465e+02
   2.858623e+01  -2.592650e+02
   1.390742e+02  -2.033166e+02
   1.406188e+02   1.196749e+01
   9.929445e+01   1.679152e+02
  -3.330491e+01   1.192016e+02
  -8.493215e+01  -1.384762e+02
   3.505434e+01  -2.292853e+02
   2.267294e+02  -2.124160e+01
   2.450832e+02   2.396496e+02
   7.499131e+01   3.015422e+02
  -1.864355e+02   1.348638e+02
  -3.214529e+02  -1.703221e+01
  -2.239894e+02  -1.042073e+02
   1.248874e+01  -1.147436e+02
   1.818133e+02  -1.098648e+02
   1.704363e+02  -7.122562e+01
   6.535785e+01   1.172187e+01
  -2.178754e-01  -1.804790e+01
   4.271555e+01  -2.433100e+00
   1.040994e+02  -2.163373e+01
   4.977742e+01   5.178988e+01
  -4.693202e+01   1.389074e+02
  -1.785625e+02   7.797060e+01
  -1.891427e+02  -6.410698e+01
  -1.138100e-01  -2.247258e+02
   1.399888e+02  -2.111171e+02
   1.902512e+02  -7.725299e+01
   1.598892e+02   6.099163e+01
   6.894252e+01   1.776695e+02
   6.467773e+01   1.490052e+02
   1.166918e+01   1.152783e+02
  -3.965553e+01   1.092864e+02
  -1.379111e+02   9.603001e+01
  -1.722377e+02   8.649469e+00
  -9.542175e+01  -7.278887e+01
  -3.548209e+01  -1.141525e+02
   7.463597e+01  -7.442045e+01
   1.081193e+02   4.704919e+01
   4.555965e+01   1.635294e+02
  -3.440913e+01   1.382735e+02
  -1.490568e+02   5.732924e+01
  -1.814276e+02  -1.000715e+02
  -1.343011e+02  -1.622513e+02
  -2.935312e+01  -1.380660e+02
   1.107867e+02  -1.007102e+02
   8.868658e+01  -1.459574e+02
   1.149400e+02  -7.624564e+01
   1.902092e+02  -3.497583e+01
   2.812048e+02   5.689376e+01
   2.209977e+02   1.610207e+02
  -7.024499e+01   2.945452e+02
  -2.637536e+02   2.345395e+02
  -3.171893e+02   9.580453e+01
  -1.616036e+02  -8.034457e+01
  -6.492303e+00  -1.454222e+02
   6.146090e+01  -1.120957e+02
   6.781752e+00  -3.241238e+01
  -1.341557e+02  -9.994478e+00
  -2.920699e+01  -3.339718e+01
   2.003851e+01  -6.934971e+01
   1.064710e+02  -1.494969e+01
   4.300567e+01   5.245915e+01
  -1.594895e+00   9.425812e+01
  -1.841981e+02  -3.436249e+00
  -7.727375e+01  -1.137491e+02
   4.115901e+00  -2.487886e+02
   1.699659e+02  -1.401946e+02
   2.194309e+02   6.067561e+01
   1.872760e+02   2.072681e+02
  -4.449031e+00   1.893970e+02
  -6.887185e+01   1.061930e+02
  -7.480955e+01  -1.564902e+01
  -1.369110e+00   7.853832e+00
   3.077758e+01  -1.514478e+00
   8.784688e-01   2.502218e+01
  -1.238111e+02   1.797112e+01
  -9.910274e+01  -2.319636e+01
   2.260842e+01  -5.926385e+01
   5.101733e+01  -4.438349e+01
   4.819856e+00   5.391029e+01
  -1.104321e+02   3.170061e+01
  -2.136761e+02  -3.443249e+01
  -2.025484e+02  -1.610907e+02
   1.276255e+01  -1.772706e+02
   1.242769e+02  -1.277101e+02
   2.161766e+02  -3.055100e+01
   9.215124e+01   1.981036e+01
  -7.424553e+01   7.357621e+01
  -1.807909e+01  -2.766373e+00
  -4.543966e+00  -7.562076e+01
   1.525154e+02   1.094831e+01
   1.326140e+02   3.715925e+01
  -2.079647e+01   1.080572e+02
  -1.311655e+01   5.750674e+01
  -1.079063e+02  -4.201937e+01
   3.088379e+00  -3.322195e+01
   5.533656e+01  -1.439449e+01
   1.440195e+01   5.474319e+01
  -4.184450e+01   1.086887e+02
  -1.131357e+02   4.141373e+01
  -1.089950e+02  -9.298491e+01
  -2.546014e+01  -1.622374e+02
   9.261389e+01  -8.878931e+01
   1.165658e+02  -1.989813e+01
   6.909815e+01   1.888832e+01
  -3.674670e+00   6.041081e+01
  -1.186104e+01   1.620834e+01
   7.759729e+00  -4.067623e+01
   6.008923e+01   2.151759e+01
   3.014115e+01   2.887039e+00
  -6.438395e+01   1.003474e+01
  -1.394365e+02  -2.896680e+01
  -2.705389e-01  -1.560971e+02
   9.743688e+01  -1.197435e+02
   1.306520e+02  -8.962852e+00
   1.254026e+02   8.645668e+01
   3.038907e+01   1.229783e+02
  -5.827639e+01   1.052787e+02
  -4.864881e+01   1.838348e+01
  -4.344925e+01  -3.768520e+01
  -5.768429e+01   2.191276e+01
   1.081825e+01   6.470183e+01
  -6.219814e+01  -4.072018e+01
  -3.768618e+01  -5.442960e+01
   3.389234e+01  -1.234316e+02
   9.809201e+01  -6.561073e+01
   9.342759e+01   8.361236e+00
  -1.045570e+01   6.297550e+01
  -6.533493e+01   6.695359e+01
  -1.310147e+02  -5.023534e+01
  -5.562323e+01  -1.281743e+02
   1.084006e+02  -1.443017e+02
   1.874694e+02  -7.648390e+01
   1.559345e+02   4.907832e+01
   3.327210e+01   9.571659e+01
  -8.389541e+01   1.148137e+02
  -5.654266e+01   4.854999e+01
   1.429780e+01   3.173149e+01
   7.041612e+00   7.293010e+01
  -7.038100e+01   6.823680e+01
  -1.430584e+02  -1.043013e-01
  -5.367281e+01  -1.260385e+02
  -6.884041e+01  -1.814685e+02
   1.101562e+02  -1.146403e+02
   9.675659e+01  -2.559186e+01
   1.033199e+02   9.181189e+01
  -1.922813e+01   1.019494e+02
  -2.308195e+01   7.282611e+01
  -2.964144e+01  -5.369770e-01
   1.591263e+01  -2.616672e+01
   5.058282e+01  -1.009535e+01
  -9.342068e+00   3.080984e+01
  -2.871049e+01   2.891870e+01
   5.961304e+00   2.282988e+01
   4.331903e+01  -3.355122e+01
   1.473892e+02  -2.265044e+01
   1.204347e+02   6.474500e+01
   3.004664e+01   2.708180e+01
  -1.043861e+02   2.547481e+01
  -1.117382e+02   1.901294e+01
  -5.411306e+00  -5.030932e+01
   6.881720e+01  -1.445341e+01
   7.846121e+01   8.328673e-01
   2.420142e+01   1.731374e+01
  -2.328194e+01   2.106992e+01
  -5.547323e+01  -2.553145e+01
  -5.335953e+01  -2.587475e+01
  -4.550321e+01  -1.231582e+01
  -7.586171e+00  -9.639429e+00
  -3.097870e+01  -2.718262e+01
  -1.739626e+01  -5.597012e+01
   2.880691e+01  -1.216789e+02
   9.337219e+01  -1.411482e+02
   1.417398e+02  -2.851137e+01
   7.060415e+01   1.064281e+02
   2.921214e+01   1.538748e+02
  -9.508165e+01   6.994099e+01
  -1.013203e+02   8.345343e+00
   2.861481e+01   3.469344e+01
   7.621703e+01   6.048031e+01
   2.370768e+01   1.006186e+02
  -3.912743e+01   8.116391e+01
  -1.256046e+02   4.164299e+01
  -1.096594e+02  -5.529299e+01
  -3.478082e+00  -4.674127e+01
   7.050605e+01  -1.639769e+01
   2.355979e+01   2.040768e+00
  -1.520129e+00  -1.303557e+01
  -6.628608e+01  -3.191338e+01
  -3.133161e+01  -7.326083e+01
   6.135190e+01  -6.709711e+01
   1.019590e+02  -3.583139e+01
   1.304126e+02   9.037801e+01
   2.818827e+01   1.454840e+02
  -3.228214e+01   8.715484e+01
  -4.502450e+01   1.134470e+01
  -8.156172e+01  -8.416671e+01
  -6.671976e+00  -6.816743e+01
   7.724059e+01   1.848062e+01
   3.085545e+01   4.839780e+01
   9.946074e+00   5.228849e+01
  -5.643063e+00  -2.497344e+01
   1.274295e+01  -1.973063e+01
  -1.143985e+01   3.342205e+01
   4.994689e+01   5.582767e+01
  -5.107925e+01   7.462812e+01
  -9.981687e+01  -3.300848e+01
  -1.165225e+02  -9.478634e+00
  -5.051013e+01  -3.332819e+01
   3.716219e+00  -3.618603e+01
   6.682082e+01   4.001536e+00
   6.001840e+00  -2.254321e+01
  -2.078632e+01  -1.366067e+01
  -1.507229e+01  -3.190236e+00
  -3.859695e+01  -1.710237e+00
   2.315111e+01  -6.391219e+01
   2.368501e+01   3.226235e+01
  -5.738760e+01  -2.885162e+01
  -1.175822e+01   8.618079e+00
   2.642925e+01  -8.027555e+01
   1.160887e+02  -1.068760e+02
   5.223652e+01   1.934684e+01
   3.779037e+01   9.602802e+01
  -4.179077e+01   9.085997e+01
  -4.285667e+01   7.374085e+01
  -5.172038e+01  -2.082996e+01
  -4.234119e+01  -6.989145e+01
   9.020469e-01   2.792712e+01
  -3.362799e+01  -3.228165e+01
   1.083344e+01  -5.978781e+01
   7.804597e-01  -4.290175e+01
   2.793135e+01  -7.748896e+01
   3.176526e+01  -3.218220e+01
   5.589099e+01   5.598095e+01
   7.659586e+01   5.728204e+01
  -4.255511e+01   2.191535e+01
  -7.286139e+01  -5.732074e+01
  -1.792076e+01  -7.746994e+01
   5.963244e+01  -5.124642e+01
   1.395590e+01  -1.301581e+01
  -7.056436e+00   6.721969e+01
  -5.874378e+01   6.319949e+01
  -4.581640e+01  -6.031184e+00
   2.179901e+01  -3.206499e+00
   2.875258e+01  -2.315661e+01
  -1.585757e+01   3.616419e+01
  -7.051818e+01   8.428238e+00
  -9.606778e+01   5.315203e+01
  -6.478313e+01  -2.393324e+00
  -4.974376e+01  -1.251062e+01
   4.413958e+01  -4.080107e+01
   2.428494e+01  -3.785336e+01
  -2.607156e+01   4.562065e+01
  -4.259136e+01   1.683642e+01
  -3.398559e+01  -1.066139e+00
  -9.217801e+00  -3.175383e+01
   5.724720e+00  -3.471534e+01
  -3.416802e+01  -3.400452e+00
   4.354082e+00  -9.229638e+00
   1.875365e+01   4.195682e+01
  -1.923719e+01  -1.989871e+01
   2.975122e+01  -2.243388e+01
  -1.288464e+01   3.497644e+01
   5.389359e+01   4.082704e+01
   5.529503e+00  -2.049177e-01
  -2.073199e+01  -1.786764e+01
  -2.031326e+01  -3.907014e+01
   6.121877e+01  -1.231816e+01
   2.474126e+01   3.690414e+01
   1.752952e+01   1.893148e+01
  -3.513218e+01  -1.410362e+01
  -9.382752e+01  -3.317309e+01
  -7.303747e+00  -5.142515e+01
   2.318697e+01  -2.297293e-01
   1.848302e+01  -3.276995e+01
   5.834103e+00   7.116625e+00
   1.102555e+01   3.274439e+01
  -1.300085e-01   3.487252e+01
   2.451029e+01   2.293867e+01
   4.805693e+01   1.203869e+01
