
 $NMID
 id='ANONYMOUS ', fmtdat='(2E16.6)'
 volume=1.0
 tramp=1.0
 $END
  -2.090602e+03   2.529358e+02
  -1.589202e+03  -1.021564e+03
  -2.323885e+02  -1.372751e+03
   8.155828e+02  -9.978466e+02
   7.416604e+02  -2.545220e+02
   2.261759e+02   4.033592e+01
  -2.139981e+02   5.573038e+01
  -8.833036e+01  -3.314818e+02
   2.829456e+02  -3.807863e+02
   4.097859e+02  -1.863187e+02
   3.098354e+02   3.147575e+02
   5.974558e+01   4.492205e+02
  -1.204201e+02   2.227827e+02
  -1.585746e+02  -2.723885e+02
   6.644917e+01  -3.570766e+02
   2.727623e+02  -5.359805e+01
   3.456228e+02   3.464793e+02
  -2.253518e+01   4.820994e+02
  -2.715877e+02   2.178588e+02
  -3.556885e+02  -4.575149e+01
  -2.571378e+02  -2.427378e+02
   1.126881e+02  -1.952230e+02
   5.411108e+01  -7.656911e+01
  -1.768946e+02  -1.535243e+02
  -2.049575e+02  -2.612048e+02
   7.257730e+01  -1.953477e+02
   3.783863e+02   3.021618e+01
   3.755834e+02   1.612861e+02
   1.213867e+02   1.916858e+02
  -2.396770e+02   1.015196e+02
  -2.583729e+02  -7.754662e+01
  -6.399627e+01  -2.031932e+02
   1.975669e+02  -1.461472e+02
   2.748412e+02  -7.028292e+01
   1.697969e+02   5.961695e+01
   3.541116e+01   1.656327e+02
   7.704716e-01   1.012609e+02
   1.048678e+02  -3.132799e+01
   1.514480e+02  -1.144772e+02
   6.095581e+01   1.251708e+02
  -5.413063e+01   2.924371e+02
  -1.397589e+02   2.191549e+02
  -1.416555e+02   3.457495e+01
  -5.933203e+01  -1.480056e+02
   1.263180e+02  -6.834618e+01
   1.273590e+02   1.991225e+02
  -1.042912e+02   2.484263e+02
  -3.279864e+02   4.295016e+01
  -2.779914e+02  -2.631849e+02
  -1.081831e+02  -3.328233e+02
   2.085939e+02  -1.896886e+02
   4.023825e+02   7.900274e+00
   2.553955e+02   1.610112e+02
   5.710816e+01   1.527287e+02
  -2.019116e+02   1.239926e+02
  -2.265644e+02   7.142186e+01
  -8.191127e+01   1.634935e+01
  -2.656838e+00  -3.723371e+01
  -1.881292e+01  -2.243643e+01
  -1.655613e+02  -6.946250e+01
  -1.380224e+02  -1.094231e+02
   9.898260e+01  -2.077356e+02
   3.047414e+02  -9.288884e+01
   2.500495e+02   8.856117e+01
  -5.948754e+01   2.714817e+02
  -2.203412e+02   3.022727e+02
  -2.759875e+02   8.653324e+01
  -1.871483e+02  -1.688018e+02
  -4.443634e+01  -2.797328e+02
   1.824069e+01  -2.511000e+02
   3.014483e+01  -1.353315e+02
   1.012958e+02  -9.421935e+01
   2.161183e+02  -7.046408e+01
   2.002166e+02  -1.828191e+01
   1.112219e+02   9.417538e+01
   2.322094e+01   1.506546e+02
  -5.410291e+01   1.346005e+02
  -1.271247e+02  -4.845931e+00
  -1.032199e+02  -1.659383e+02
   3.546909e+01  -1.878114e+02
   1.809415e+02  -2.744076e+01
   2.266086e+02   6.718970e+01
   1.720001e+02   1.674233e+02
  -9.906798e+00   1.601725e+02
  -9.808733e+01   1.106819e+02
  -1.198318e+02   1.059574e+02
  -8.745906e+01   1.094875e+02
  -2.394033e+02   5.378052e+01
  -3.826705e+02  -3.811074e+01
  -2.636473e+02  -2.508992e+02
  -1.411947e+01  -3.523663e+02
   2.837405e+02  -2.741510e+02
   4.044326e+02  -1.525297e+02
   2.211373e+02   5.633682e+01
   3.977874e+01   1.955257e+02
  -2.825016e+01   1.229943e+02
   1.730812e+01   2.103784e+01
   1.276555e+02  -3.335841e+01
   5.537143e+01   3.023023e+01
  -1.496232e+01   6.372222e+01
  -5.021964e+01   4.358721e+01
  -4.960400e+00  -5.658509e+00
   5.650118e+01  -3.598257e+01
   6.792281e+01   3.783951e+01
   6.945487e+01   1.403025e+02
  -1.090219e+01   2.344322e+02
  -1.926600e+02   1.465179e+02
  -3.027392e+02  -4.087109e+01
  -2.234437e+02  -1.565257e+02
  -1.546758e+01  -1.726360e+02
   1.298604e+02  -1.026408e+02
   8.237152e+01  -3.181118e+01
   2.368437e+01   6.724961e+00
  -4.413416e+01  -1.030259e+02
   1.740151e+01  -1.215770e+02
   1.704197e+02  -2.774945e+01
   1.158085e+02  -2.440755e+01
  -5.652054e+00   6.126153e+01
  -9.734147e+01  -2.493125e+01
  -1.048952e+01  -5.947283e+01
   1.701714e+02  -5.650389e+00
   2.382130e+02   5.058352e+01
   2.329328e+02   1.662307e+02
  -5.528794e+00   1.984086e+02
  -2.020837e+02   1.426768e+02
  -1.765786e+02   6.931658e+01
  -8.686488e+01  -2.256837e+00
   5.120111e+01  -9.211183e+00
   6.856637e+01   4.114686e+00
  -5.396488e+01   6.306799e+01
  -1.449842e+02  -1.952760e+01
  -1.629834e+02  -8.001531e+01
  -4.959877e+01  -1.332341e+02
   3.835515e+01  -7.707874e+01
   9.078022e+01   5.396829e+00
  -2.760249e+01   5.267343e+01
  -5.807904e+01  -4.151267e+01
  -3.835539e+01  -1.387382e+02
   1.478579e+02  -6.278245e+01
   1.591108e+02  -2.886288e+00
   1.314360e+02   1.293843e+02
  -4.154305e+01   2.015200e+02
  -1.477214e+02   1.095372e+02
  -1.582647e+02   2.693826e+01
  -5.723827e+01  -7.347174e+01
   5.979784e+01  -4.840334e+01
   2.540988e+01  -2.345560e+01
  -2.698931e+01   1.674119e+01
  -1.167667e+01  -3.479729e+01
   9.551346e+00  -2.086848e+01
   7.445324e+01   2.548067e+01
   7.012768e+01   6.526759e+01
  -4.635025e+00   1.319168e+02
  -1.563321e+02   9.881833e+01
  -1.694545e+02  -5.081923e+01
  -1.176006e+02  -1.372338e+02
   1.074750e+01  -1.766026e+02
   1.041968e+02  -7.182998e+01
   4.866138e+01   2.745839e+01
   3.888945e+01   3.754212e+01
  -2.669359e+00   2.840738e+01
   8.568158e+01  -7.109127e+00
   5.011297e+01  -2.186892e+01
   7.219880e+01   2.438109e+01
  -6.842408e+01   8.953784e+01
  -9.903752e+01   7.192202e+01
  -1.170565e+02  -1.541096e+01
   1.238660e+01  -8.323067e+01
   1.094939e+02  -3.892276e+01
   1.396298e+02   2.331126e+01
   5.832599e+01   1.662276e+02
  -1.265215e+02   9.880326e+01
  -2.031602e+02   5.467388e+01
  -1.725625e+02  -3.941369e+01
   4.686412e-02  -9.680809e+01
   6.278018e+01  -8.122922e+01
   2.757746e+01  -5.489874e+01
   3.574097e+01  -5.931504e+01
   2.981404e+01  -7.902706e+01
   2.176749e+01  -6.881930e+01
   8.353817e+01  -3.812081e+01
   1.067845e+02   1.240647e+02
   3.837857e+01   1.618466e+02
  -1.020697e+02   1.134945e+02
  -1.087849e+02  -1.245906e+01
  -1.131180e+02  -7.021598e+01
   2.767503e+01  -1.453004e+02
   9.521279e+01  -4.433562e+01
   5.299221e+01   2.308375e+01
   1.210569e+01   2.061591e+01
  -5.971962e+01   2.783944e+01
   2.755798e+01  -1.372723e+01
   1.113461e+02  -1.229919e+01
   4.307713e+01   4.149187e+01
  -1.067915e+02  -4.005779e+01
  -1.377750e+02  -2.413505e+01
  -1.037985e+02  -1.113723e+02
   2.028205e+01  -4.540844e+01
   1.056729e+02  -8.639508e+01
   1.104726e+02  -1.086376e+01
   6.763944e+00   7.695350e+01
  -5.075452e+01   5.098931e+01
  -5.953691e+01  -6.952127e+01
  -3.484831e+01  -6.910013e+01
   2.923042e+01  -6.262776e+01
   5.328964e+01   4.030247e+01
   2.197079e+01   2.033524e+01
   2.336132e+01   3.616898e+01
   2.259291e+01  -5.765479e+00
   9.029360e+01   8.889083e+00
  -5.878595e+00   4.246092e+01
  -3.023723e+00   1.003312e+02
  -1.519084e+02   9.620668e+01
  -1.354593e+02  -4.250761e+00
  -1.121321e+02  -6.044790e+01
   4.971297e+01  -8.986766e+01
   4.617788e+01  -5.558763e+01
   2.286163e+01   2.828619e+01
  -5.812720e+01  -1.307721e+01
  -8.565365e+01  -4.301476e+01
  -3.553050e+01  -2.632915e+01
   4.617741e+01  -6.476875e+01
   1.429756e+02   1.766126e+01
   8.146522e+01   8.612216e+01
   2.171701e+01   5.950219e+01
  -5.486718e+01   2.175217e+01
  -7.877418e+01  -2.850551e+01
   2.163389e+01   2.875831e+01
   5.429118e+01   5.988958e+00
   5.343783e+00   1.171127e+02
  -6.437951e+01   5.092363e+01
  -7.732980e+01   7.263747e+01
  -9.707293e+01  -1.002709e+02
   2.435168e+01  -1.738079e+02
   1.253271e+02  -1.130966e+02
   9.239702e+01  -5.086088e+01
  -1.884823e+01   5.589405e+01
  -2.788311e+01   9.033133e+01
  -1.466696e+01   1.746215e+01
  -2.748533e+01  -2.416103e+01
  -1.257349e+01   5.548309e+01
   2.955056e+01   5.571263e-01
  -5.910490e+01  -1.243739e+00
  -4.503695e+01  -9.746937e+01
  -2.864230e+01  -3.030791e+01
   3.168869e+01  -9.310064e+00
   9.127960e+01   7.776107e+01
   1.059092e+02   3.286314e+01
   9.151834e+01   9.981077e-01
  -2.558821e+01   1.196931e+01
  -5.471207e+01   1.203741e+01
   2.597614e+01   2.893937e+01
   2.034135e+01  -3.844526e-01
  -8.263125e+00   2.523692e+01
  -4.323947e+01   3.332958e+01
  -1.958201e+00   4.895345e+01
   1.965046e+01  -1.606596e+01
   7.567675e+01  -1.860586e+01
   1.589645e+01   3.087516e+01
  -5.536976e+01   6.310992e+01
  -1.205815e+02   7.857851e+01
  -7.810756e+01  -4.940773e+01
   4.167145e+00  -9.880752e+01
   6.943394e+01  -1.148959e+02
   9.601672e+01  -3.832795e+01
   4.515427e+01  -1.624329e+01
   1.292867e+01   3.482652e+00
   1.962892e+01   1.168124e+01
   4.289402e+01   1.654418e+01
   5.277813e+01   3.389553e+01
   2.398521e+01   4.797889e+01
  -2.264665e+01   7.105731e+01
  -4.388201e+01   1.911656e+01
  -4.995212e+01  -2.840395e+01
   4.383735e-02  -8.017846e+01
   5.999269e+00  -5.447081e+01
   8.172975e+01   5.792897e+01
   4.190606e+01   7.019613e+01
  -6.095599e+01   7.365080e+01
  -7.649417e+01  -1.700210e+00
  -5.857352e+01  -4.626078e+01
   4.753995e+01  -7.610168e+01
   2.648569e+01  -5.670600e+01
  -5.219178e+01  -3.751963e+01
  -1.289617e+01   1.112371e+01
   2.499321e+01  -3.671266e+01
   1.015717e+02  -3.981114e+01
   1.334295e+02  -5.441347e+01
   5.684485e+01   2.673683e+01
   3.585982e+01   3.440946e+01
  -2.483599e+01   9.894283e+01
  -5.706080e+01   2.325869e+01
  -2.826428e+01  -5.121120e+01
  -8.534642e+00  -8.304634e+00
   5.985098e+01   1.569573e+01
  -1.764926e+00   4.489843e+01
  -1.973091e+00   6.092518e+01
  -4.373869e+01   2.090208e+01
  -6.024124e+01   2.074013e+01
  -4.208264e+01  -3.006403e+01
  -1.117951e+01  -2.422023e+01
   1.101364e+01  -1.414626e+01
   2.239150e+01  -1.472064e+01
  -1.741603e+01  -8.045497e+01
   1.866483e+01  -5.167255e+01
   9.998717e+01   4.698542e+01
   3.077327e+01   2.205531e+01
   2.791240e+01   3.740297e+01
  -4.249449e+01  -1.607893e+01
  -6.678459e+01  -2.790503e+00
   3.844001e+01   7.555976e+00
   7.584889e+01   7.212163e+00
   6.699684e+01   2.713699e+01
  -4.330004e+01   6.819033e+01
  -6.696493e+01   5.215953e+01
  -3.837229e+01   6.798458e-01
   3.183664e+01   8.094740e+00
   2.720579e+01  -1.265450e+01
  -3.576854e+01   2.846094e+01
  -5.623011e+01   4.021875e+01
