
 $NMID
 id='ANONYMOUS ', fmtdat='(2E16.6)'
 volume=1.0
 tramp=1.0
 $END
   1.429611e+03   1.324734e+01
   9.325714e+02   6.663773e+02
   6.603313e+01   9.352470e+02
  -5.625133e+02   6.261301e+02
  -4.999526e+02   1.120594e+02
  -9.309118e+01  -9.656114e+01
   1.624833e+02   8.415656e-01
   3.222105e+01   2.436414e+02
  -2.083721e+02   2.716807e+02
  -2.771953e+02   3.442158e+01
  -2.089431e+02  -2.312708e+02
  -2.775934e+01  -2.973196e+02
   1.508110e+02  -5.529707e+01
   8.042405e+01   2.009193e+02
  -5.289128e+01   2.158781e+02
  -1.711488e+02  -3.236765e+00
  -1.497594e+02  -2.564668e+02
   1.628927e+00  -3.034174e+02
   2.791552e+02  -1.603842e+02
   2.145692e+02   8.653911e+01
   7.778267e+01   2.218971e+02
  -8.662151e+01   1.891495e+02
  -6.303190e+01   4.839040e+01
   6.870642e+01   5.577540e+01
   3.812916e+01   1.509270e+02
  -7.311466e+01   1.909270e+02
  -2.328776e+02   9.747925e+01
  -2.719877e+02  -7.710948e+01
  -1.258480e+02  -1.693363e+02
   1.417984e+02  -1.193633e+02
   2.307680e+02   9.356913e+00
   8.169525e+01   1.756361e+02
  -1.194674e+02   1.457064e+02
  -1.644288e+02   8.543893e+01
  -9.398675e+01  -5.015601e+01
  -5.206636e+01  -1.343554e+02
  -2.196005e+01  -5.657335e+01
  -4.101704e+01   3.853677e+01
  -6.463406e+01   8.117346e+01
  -6.912202e+01  -7.159232e+01
  -8.317787e+00  -2.396310e+02
   6.605510e+01  -1.918492e+02
   1.054852e+02  -1.294990e+01
   3.019399e+01   1.265789e+02
  -6.214429e+01   9.373026e+01
  -6.042393e+01  -1.383962e+02
   6.336030e+01  -2.086545e+02
   2.138302e+02  -3.521632e+01
   2.186479e+02   1.606215e+02
   1.045531e+02   2.471574e+02
  -1.382295e+02   1.568798e+02
  -2.549860e+02   3.325124e+00
  -1.815768e+02  -1.206247e+02
   9.476893e+00  -1.185988e+02
   1.407506e+02  -7.685641e+01
   1.269973e+02   1.063664e+01
   1.852190e+01   6.138988e+01
  -7.174480e-01   2.797662e+00
  -1.133970e+01   1.537207e+01
   1.121949e+02   1.034513e+01
   7.468583e+01   1.106770e+02
  -5.446721e+01   8.699514e+01
  -2.011432e+02   7.416825e+01
  -1.397324e+02  -3.838141e+01
  -2.818396e+01  -1.349513e+02
   1.396711e+02  -1.692649e+02
   2.026606e+02  -8.867535e+01
   1.098999e+02   1.078189e+02
   4.568892e+01   1.585580e+02
   3.553653e+01   1.721108e+02
  -1.771766e+00   1.055815e+02
  -6.311929e+01   8.876532e+01
  -1.132799e+02   9.384286e+01
  -1.136092e+02   1.805096e+00
  -9.685691e+01  -6.505742e+01
  -3.908751e+01  -1.539632e+02
   6.221056e+01  -1.209026e+02
   1.177925e+02   4.260382e+01
   8.285519e+01   1.381475e+02
  -8.306717e-01   1.179382e+02
  -1.310880e+02   6.233187e+01
  -1.790599e+02  -9.393863e+01
  -8.164664e+01  -1.315095e+02
   4.631024e+01  -1.338170e+02
   7.792429e+01  -6.228154e+01
   5.345499e+01  -6.596487e+01
   7.077153e+01  -3.519539e+01
   1.328417e+02  -2.650096e+01
   2.729140e+02   6.183135e+01
   1.611306e+02   1.485272e+02
  -2.470980e+00   1.916372e+02
  -1.740658e+02   1.557370e+02
  -2.109490e+02   6.686141e+01
  -1.412269e+02  -7.181369e+01
  -2.857603e+01  -1.326708e+02
   3.629877e+01  -1.190100e+02
   5.857045e+01  -3.127613e+01
  -5.393890e+01   1.388771e+01
  -5.452239e+01  -1.585414e+01
   9.979222e+00  -6.186971e+01
   6.140063e+01  -6.994744e+01
   5.219729e+01  -8.062566e+00
  -3.460774e+01   1.645111e+01
  -1.158998e+02   4.831892e+01
  -8.444704e+01  -1.150976e+02
   1.069632e+01  -1.964255e+02
   8.284871e+01  -1.194218e+02
   1.592027e+02   3.293340e+01
   1.849307e+02   1.235077e+02
   2.292834e+00   1.419835e+02
  -7.506415e+01   3.290390e+01
  -9.012372e+01  -1.211206e+01
  -3.415939e+01  -1.947153e+00
   3.452376e+01   1.958166e+01
  -2.320777e+01   6.624891e+01
  -6.292936e+01   1.877173e+01
  -7.631757e+01   6.510900e+00
  -2.358663e+01  -2.746546e+01
   6.178374e+01  -2.812864e-01
   3.046086e+01   3.326593e+01
  -7.800206e+01   4.667242e+01
  -1.559123e+02  -1.429712e+01
  -9.657403e+01  -1.025320e+02
   6.407430e-01  -1.475459e+02
   1.389698e+02  -9.140474e+01
   1.513097e+02  -1.908716e+01
   9.553214e+01   6.933892e+01
  -6.429114e+01   5.525764e+01
  -3.654198e+01  -8.640390e+00
   2.612452e+01  -6.116472e+01
   9.200749e+01  -5.829798e+01
   1.045662e+02   7.687021e+01
  -1.624077e+01   1.421167e+02
  -4.942033e+01   4.908340e+01
  -6.239272e+01  -2.804886e+01
  -8.542253e+00  -5.901200e+01
   4.125110e+01   3.301377e-01
   3.641205e+01   5.309261e+01
  -5.294216e+01   7.371242e+01
  -1.127345e+02   1.458736e+01
  -1.061277e+02  -5.733848e+01
  -1.142023e+01  -1.005470e+02
   4.086434e+01  -7.851775e+01
   7.110683e+01   2.352510e+01
   1.299221e+01   6.551656e+01
  -3.868395e+01   5.924018e+01
  -4.981329e+01  -1.768790e+01
  -3.528745e+01   1.389321e+01
   3.028797e+01  -2.123853e+01
   6.616250e+00   6.474240e+00
  -5.918427e+01   3.804700e+01
  -5.639660e+01  -2.417986e+01
  -2.166252e+01  -1.070286e+02
   1.155628e+02  -1.640275e+02
   1.542350e+02   4.673556e+00
   8.173621e+01   6.968176e+01
  -1.580697e+01   1.068988e+02
  -5.728690e+01   1.073804e+02
  -5.941785e+01   7.225214e+00
  -4.452673e+01  -2.261470e+01
   1.753204e+01  -4.594805e+00
  -8.133782e+01   2.785230e+00
  -3.552428e+01   1.069024e+01
  -5.194693e+01  -1.563096e+01
  -1.463523e+01  -9.639105e+01
   1.011029e+02  -3.474039e+01
   5.964331e+01   3.228167e+01
  -1.879561e+01   5.304311e+01
  -5.514910e+01   8.195639e+01
  -1.429830e+02  -9.486489e+01
  -4.505658e+01  -1.665609e+02
   9.338726e+01  -9.273962e+01
   1.441733e+02  -2.485346e+01
   1.242186e+02   1.412339e+01
   1.026469e+02   8.738959e+01
  -3.750089e+01   7.063087e+01
  -2.638241e+01   4.456595e+01
  -4.216763e+00   6.010546e+01
  -3.541498e+00   1.406190e+01
  -7.811500e+01   4.770739e+01
  -2.833459e+01   7.039249e+00
  -5.785399e+01  -1.127766e+02
  -3.572218e+01  -1.511518e+02
   8.482566e+01  -6.696614e+01
   7.924804e+01  -1.548610e+01
   6.701046e+01   9.711461e+01
   1.275072e+01   8.515297e+01
  -6.265443e+01   2.396005e+01
  -5.541027e+01   5.556723e+01
  -2.269522e+01  -3.792501e+01
   4.095697e+00   3.876429e+01
  -5.911080e+01   6.962539e+01
  -3.865554e+01  -1.372744e+01
  -3.312751e+01   9.665127e-01
   1.854001e+01  -4.128103e+01
   9.391875e+01  -1.723804e+01
   5.609973e+01   4.836845e+01
  -2.450015e+01   7.585746e+01
  -9.125274e+01   1.325264e+01
  -7.298046e+01  -1.902087e+01
  -4.648887e+01  -2.461763e+01
   2.350805e+01  -2.312378e+01
   5.314211e+01  -1.005061e+01
  -1.670636e+01   4.401783e+01
  -1.310087e+01   3.175746e+01
  -2.377570e+01  -9.764710e+00
  -1.843997e+01  -6.655599e+01
   2.198323e+01  -7.161464e+01
   2.479889e+01  -3.103145e+00
  -4.062483e+01   3.800839e+01
  -5.614167e+01   2.315216e+01
  -3.413931e+01  -9.351523e+01
  -1.196581e+01  -9.751080e+01
   7.884942e+01  -3.574354e+01
   7.686084e+01   3.981101e+01
  -5.077868e+00   8.023072e+01
  -5.177084e+01   3.589369e+01
  -1.143890e+01  -3.425779e+01
   8.616405e+00   8.818460e+00
   6.591423e+01   1.903285e+01
   3.512396e+00   8.202611e+01
  -8.991991e+01   3.806199e+01
  -7.015995e+01   6.078403e+00
  -8.557624e+01  -3.610443e+01
  -1.644356e+01  -3.230943e+01
   4.782481e+01  -1.488426e+01
   7.985287e+00  -1.975126e+01
  -1.535240e+01   7.412784e+00
  -5.232587e+01  -3.969006e+01
  -1.303576e+01  -7.666780e+01
   5.274649e+01  -6.683028e+01
   1.180462e+02  -2.248588e+01
   6.857167e+01   7.408783e+01
   2.025824e+01   9.901018e+01
  -5.575715e+00   7.932887e+01
  -1.035450e+02  -1.914354e+01
  -6.338881e+01  -1.006783e+02
  -1.679254e+01  -6.706663e+01
   4.285698e+01  -3.239231e+01
   2.953847e+01  -1.738018e+01
  -1.876899e+00   2.842259e+01
  -2.204115e+01  -2.048335e+01
   7.730124e+00   9.777603e+00
  -8.689263e+00   5.863959e+01
   3.239579e+01   6.157231e+01
  -4.355306e+01   3.442726e+01
  -9.282465e+01  -1.853933e+01
  -8.557249e+01  -1.343540e+00
   2.295068e+00  -5.862203e+01
   6.301297e+01  -5.052180e+01
   5.910177e+01   1.648158e+01
   2.826333e+01   1.334317e+01
  -5.125775e+01   3.923754e+01
  -1.120268e+01  -5.340611e+00
  -4.887692e-02  -2.546306e+01
   1.670432e+01   1.534635e+01
  -5.530311e+00  -1.666875e+01
  -6.027172e+01  -4.234333e+01
   1.183576e+01  -4.804783e+01
   7.766565e+01  -4.719792e+01
   9.695430e+01  -6.302199e+01
   5.791292e+01  -2.609724e+01
   2.014138e+01   4.355469e+01
  -4.261764e+01   5.007493e+01
  -1.727710e+01   3.439614e+01
  -5.862410e+01  -1.435513e+01
  -2.867824e+01  -2.805761e+01
  -3.003432e+01  -5.606864e+00
  -3.742911e+00   4.725577e+01
  -4.627054e+01  -5.915065e+00
  -3.580292e+01  -8.972063e+01
   1.097702e+01  -4.383675e+01
   2.309412e+01  -1.331400e+01
   3.124373e+01   3.209664e+01
   5.647865e+00   7.668305e+01
  -3.531873e+01   4.414482e+01
  -5.226372e+01  -5.673150e+01
  -2.526812e+01  -6.913312e+01
   5.200313e+00  -3.313976e+01
   4.057362e+01  -2.573762e+01
   2.652300e+01   4.239343e+01
  -2.449335e+00   3.241564e+01
  -4.222129e+01  -3.006256e+01
  -3.690753e+01  -3.324269e+01
   6.373453e+01  -1.669724e+01
   3.415675e+01  -1.710156e+01
   6.476690e+00   3.959282e+01
  -5.913281e+01   4.758144e+01
  -5.718076e+01  -1.383578e+01
   1.388534e+01  -2.181511e+01
   3.043247e+01  -7.976292e+01
   2.141395e+01   8.977850e+00
  -3.968634e+00   2.336324e+01
  -1.540260e+01   3.652887e+01
  -5.299137e+01  -6.280078e+01
  -1.991849e+01  -3.318775e+01
  -8.315211e+00  -5.772300e+01
   4.558045e+01  -1.385037e+01
   3.634558e+00  -6.702215e+00
   1.325959e+01   2.870936e+01
  -5.489340e+00  -1.837383e+01
  -9.528268e-01  -4.658700e+00
   5.417429e+01   2.878255e+00
   7.495980e+00   1.686064e+01
   5.290916e+01   1.207988e+01
  -1.544143e+01   2.058672e+01
  -2.469585e+01  -4.065225e+01
   1.716140e+01  -4.191116e+00
   1.055782e+01   2.365510e+01
   3.115436e+01   6.894365e+01
  -3.056534e+01   5.790373e+01
  -4.386326e+01  -1.022753e+01
  -3.539409e+01  -1.067195e+01
   4.552500e+01  -5.181407e+01
   5.122322e+01  -9.791650e+00
  -2.750424e+01   1.282950e+01
  -2.384261e+01   1.637824e+01
   4.680153e+00  -2.125766e+01
   1.971901e-01  -4.575096e+01
   2.537844e+01  -5.395943e+01
