
 $NMID
 id='ANONYMOUS ', fmtdat='(2E16.6)'
 volume=1.0
 tramp=1.0
 $END
   3.150229e+03   8.513549e+01
   1.987918e+03   1.340424e+03
  -9.865948e+01   1.795085e+03
  -1.134955e+03   1.070881e+03
  -8.860189e+02   1.867524e+02
   5.741182e+01  -2.763155e+02
   3.801047e+02   5.182771e+01
   4.206850e+01   4.564580e+02
  -3.985777e+02   5.047950e+02
  -6.443970e+02   1.469026e+02
  -3.768502e+02  -4.810466e+02
  -6.804921e+01  -5.810945e+02
   3.159744e+02  -7.170116e+01
   1.930428e+02   3.081262e+02
  -9.453291e+01   5.010708e+02
  -3.461171e+02   3.843082e+01
  -2.086723e+02  -3.769521e+02
   1.173051e+02  -5.997970e+02
   4.847009e+02  -2.267992e+02
   4.214330e+02   2.517239e+02
   1.453063e+02   2.833163e+02
  -2.105962e+02   2.326167e+02
  -9.342113e+01   6.865244e+01
   1.252007e+02   8.644300e+01
   2.573457e+02   2.702974e+02
  -3.618466e+00   2.763189e+02
  -4.595595e+02   1.555055e+02
  -6.226564e+02  -2.203843e+02
  -1.911869e+02  -4.118251e+02
   3.104048e+02  -2.494295e+02
   5.037800e+02   1.478197e+02
   1.378903e+02   2.599501e+02
  -2.603798e+02   3.442674e+02
  -4.273696e+02   8.012272e+01
  -3.280701e+02  -2.014644e+02
  -1.311745e+01  -2.754453e+02
   4.748285e+01  -9.014949e+01
  -7.036578e+01   1.298723e+02
  -2.518046e+02   1.702999e+02
  -2.095171e+02  -1.237258e+02
   4.960087e+00  -5.314384e+02
   2.235711e+02  -4.367874e+02
   3.053411e+02  -1.484850e+01
   1.336602e+02   2.687746e+02
  -6.525525e+01   1.143870e+02
  -1.494922e+02  -2.324019e+02
   1.123072e+02  -3.545089e+02
   3.761805e+02  -3.654827e+01
   3.984743e+02   3.548468e+02
   1.290169e+02   4.737499e+02
  -3.160115e+02   2.329853e+02
  -4.819758e+02  -1.016495e+02
  -2.620986e+02  -2.225594e+02
   9.483457e+01  -2.124020e+02
   2.563920e+02  -1.333089e+01
   1.538290e+02   5.581235e+01
  -1.393518e+01   3.003580e+01
  -5.557369e+01  -7.995835e+01
   8.369878e+01  -7.322000e+01
   2.179680e+02  -1.884847e+00
   8.332452e+01   1.974564e+02
  -1.852164e+02   2.021971e+02
  -3.077415e+02   9.570210e+01
  -2.201113e+02  -6.239751e+01
   3.868713e+01  -2.591911e+02
   2.950015e+02  -2.987378e+02
   3.155936e+02  -1.072421e+02
   1.766308e+02   1.261124e+02
   1.002267e+01   2.918713e+02
  -1.838668e+01   2.334055e+02
   2.463643e+00   1.432793e+02
  -2.093636e+01   8.283636e+01
  -9.656324e+01   9.332951e+01
  -2.249364e+02   7.696258e+01
  -2.010205e+02  -1.090132e+02
  -6.490320e+01  -2.074264e+02
   3.287202e+01  -1.962425e+02
   1.682396e+02   3.071478e+01
   1.117891e+02   2.025212e+02
  -7.377199e+01   1.889983e+02
  -1.622032e+02   4.751832e+01
  -2.654383e+02  -1.185236e+02
  -1.545458e+02  -2.877074e+02
   7.804818e+01  -2.622248e+02
   1.698343e+02  -1.597171e+02
   1.139301e+02  -3.099644e+01
   9.206318e+01  -1.914192e+01
   2.834625e+02  -3.813244e+01
   3.976303e+02   1.043404e+02
   2.511416e+02   2.507912e+02
  -3.671529e+01   3.288524e+02
  -3.242244e+02   3.071660e+02
  -4.404310e+02   7.426088e+01
  -2.755570e+02  -1.025611e+02
   6.760452e+00  -1.995321e+02
   8.213987e+01  -2.049578e+02
   2.994633e+01  -1.875046e+01
  -1.018716e+02   4.597638e+01
  -9.092292e+01  -6.554064e+00
   1.988804e+01  -1.382476e+02
   1.204890e+02  -8.869713e+01
   1.571043e+02   2.072755e+01
  -3.794119e+01   1.720747e+02
  -1.706702e+02  -4.799179e+00
  -1.544603e+02  -2.093914e+02
   5.833116e+01  -3.473679e+02
   2.229175e+02  -2.169379e+02
   3.261974e+02   5.546295e+01
   2.032086e+02   2.564160e+02
   2.461189e+01   2.885642e+02
  -1.238923e+02   1.061857e+02
  -1.686672e+02   3.578186e+01
  -4.566324e+01  -2.992058e+01
   5.408835e+01  -3.337778e+00
  -3.758627e+01   1.730695e+02
  -9.686089e+01   5.287298e+01
  -1.072087e+02  -7.039882e+01
  -1.861557e+01  -5.910983e+01
   1.139225e+02  -3.766264e+01
   5.956237e+01   9.862483e+01
  -2.017993e+02   6.932553e+01
  -2.758305e+02  -5.783732e+01
  -2.062243e+02  -1.459112e+02
  -4.152750e+01  -2.440451e+02
   1.635311e+02  -1.901785e+02
   2.169768e+02  -9.929202e+01
   1.172790e+02   4.932054e+00
   3.066506e+00   2.421819e+01
  -4.716168e+01   1.939827e+01
   2.609936e+01  -7.285985e+01
   1.814661e+02   4.526471e+00
   1.728306e+02   1.663641e+02
   5.066415e+01   2.109539e+02
  -1.176303e+02   9.370572e+01
  -1.476612e+02   1.421847e+01
  -6.353825e+01  -2.370174e+01
   8.508369e+00  -2.472236e+01
   3.369253e+01   1.313314e+02
  -5.459761e+01   8.283885e+01
  -1.648009e+02   1.173951e+01
  -1.697573e+02  -1.215102e+02
  -4.000207e+01  -1.945490e+02
   1.106901e+02  -1.237034e+02
   1.550367e+02  -7.688362e+00
   3.717606e+01   8.720550e+01
  -5.365626e+01   4.749764e+01
  -6.770552e+01   2.394560e+01
   7.414614e+00  -2.317557e+01
   7.967048e+01  -1.545896e+01
   3.436561e+01   3.344095e+01
  -4.281534e+01   2.714441e+01
  -7.378560e+01  -8.307805e+01
  -2.334414e+01  -1.791984e+02
   1.186491e+02  -9.404509e+01
   2.341986e+02   1.628349e+01
   1.463357e+02   1.607335e+02
   1.287018e+01   2.037011e+02
  -1.165915e+02   1.460072e+02
  -1.188617e+02   5.610403e+01
  -1.428378e+02  -7.899757e+01
  -4.688648e+01  -4.474499e+01
  -6.311935e+01   2.206040e+00
  -1.005870e+02   9.636783e+00
  -2.862905e+01  -4.562951e+01
   1.142578e+02  -6.298943e+01
   1.141013e+02  -1.627586e+01
   1.177473e+02   4.020634e+01
  -3.101613e+00   1.213603e+02
  -1.239851e+02   6.995568e+01
  -1.825626e+02  -4.089172e+01
  -8.879080e+01  -1.727939e+02
   1.168250e+02  -2.640470e+02
   2.886689e+02  -5.689930e+01
   2.662071e+02   1.311243e+02
   6.021022e+01   1.432503e+02
  -3.118995e+01   1.209370e+02
  -8.519285e+01   1.110824e+02
  -9.726852e+01   7.637625e+01
  -4.496266e+01   9.973709e+01
  -1.053069e+02   9.860488e+01
  -1.493553e+02  -8.594285e+00
  -1.485732e+02  -1.453779e+02
  -2.139994e+01  -2.133464e+02
   7.541284e+01  -1.620059e+02
   1.307753e+02   2.973800e+01
   1.166371e+02   1.068704e+02
   4.379555e+01   1.497563e+02
  -3.405017e+01   6.716636e+01
  -5.007029e+01  -2.637776e+01
   1.954974e+00  -4.227422e+01
   6.962688e+01  -1.358160e+01
  -1.468568e+01  -5.994624e+00
  -9.271252e+01  -2.089663e+01
  -2.125611e+01  -3.009718e+01
   1.086682e+02  -8.462243e+00
   1.674724e+02  -8.392844e+00
   1.329097e+02   1.191100e+02
   7.285364e+00   1.224378e+02
  -1.375065e+02   8.352154e+01
  -1.318336e+02   1.639282e+01
  -6.780289e+01  -7.190592e+01
   4.771733e+01  -2.585089e+01
   4.884873e+01  -2.565789e+01
   1.728912e-01   2.376244e+01
  -6.070623e+00   2.409041e+01
  -2.766363e+01  -3.519654e+01
  -1.548703e+01  -7.673941e+01
  -5.397213e+01  -1.083240e+01
  -3.438431e+01  -8.114999e-01
  -1.456663e+01   4.616510e+01
  -9.443512e+00  -4.563433e+01
   1.300929e+01  -1.048716e+02
   1.387716e+02  -1.032601e+02
   1.391235e+02   9.216739e+00
   8.843187e+01   7.352876e+01
  -1.628795e+01   1.560927e+02
  -9.577243e+01   6.009754e+01
  -8.914182e+01  -7.212419e+01
   2.109684e+01  -1.522922e+01
   1.108690e+02   6.509957e+01
   5.073803e+01   1.006016e+02
  -7.910536e+01   5.334570e+01
  -1.616623e+02  -2.852209e+01
  -1.157963e+02  -3.483372e+01
  -6.032859e+01  -8.475824e+01
   7.720125e+01  -3.468086e+01
   5.570880e+01   1.494014e+01
  -1.114431e+01  -1.077277e+01
  -9.869666e+01  -3.734734e+01
  -3.181330e+01  -1.085267e+02
   8.414932e+01  -1.027432e+02
   1.031020e+02  -1.098747e+02
   8.902955e+01   1.116437e+02
  -2.953252e+01   1.690055e+02
  -5.735695e+01   1.496621e+02
  -1.002962e+02  -1.385123e+00
  -3.466047e+01  -1.636869e+02
   2.723178e-03  -1.245853e+02
   6.471978e+01  -1.969257e+01
   3.589263e+01   2.537206e+01
   7.608694e+00   5.315902e+01
  -3.768021e+01   1.677960e+01
   1.373820e+01   9.885142e+01
   6.454357e+01   1.346043e+02
   2.299078e+00   5.822700e+01
  -4.393617e+01   1.454564e+01
  -1.528150e+02  -3.850153e+01
  -1.247486e+02  -4.965666e+01
  -5.431516e+00  -5.909574e+01
   8.285025e+01  -4.317082e+01
   8.039306e+01   5.655187e+00
  -6.095886e+00  -3.899902e+01
  -6.584849e+01   3.739884e+01
  -2.067811e+01   5.772481e+01
   6.147017e+01  -3.814423e+01
  -4.877112e+00   2.447627e+00
  -9.342624e+01   1.945553e+01
  -4.683660e+01   9.061446e+00
  -3.895387e+01  -1.079302e+02
   9.701148e+01  -1.393605e+02
   2.015277e+02  -1.041121e+02
   1.275140e+02   4.000434e+01
   1.319039e+01   1.492465e+02
  -8.944878e+01   8.843597e+01
  -8.366071e+01   4.243676e+01
  -3.809368e+01   1.483723e+01
  -5.389464e+01  -1.465774e+01
  -2.318024e+01  -2.143611e+01
  -1.123345e+00   5.059406e+00
   7.273590e+00  -3.855647e+01
   3.964292e+00  -8.946349e+01
   7.936660e+01  -4.392923e+01
   8.538349e+01   6.084084e+01
   6.274038e+01   7.825392e+01
   2.468982e+01   1.455188e+02
  -1.279613e+02  -2.309514e+01
  -9.613807e+01  -8.357264e+01
  -9.323245e+01  -1.129888e+02
   7.747091e+01  -7.300981e+01
   1.131338e+02  -4.923062e+00
   4.574597e+01   3.133575e+01
  -5.093430e+01   3.972817e+01
  -4.709599e+01   3.508436e+01
   4.313136e+01   2.905837e-01
   7.750209e+01  -1.979699e+01
   4.310806e+01  -5.832523e+00
  -6.956161e+01   5.959199e+01
  -1.022381e+02   4.568622e+01
  -8.133970e+01  -6.042561e-01
  -4.578775e+00  -8.013535e+01
   7.409814e+01  -9.228435e+01
   3.093366e+01  -2.892295e+00
   2.526863e+01   1.233627e+01
   1.526459e+00   9.587205e+00
  -1.947255e+01  -3.478860e+01
  -1.419797e+01  -8.582744e+00
  -1.154713e+01  -3.526499e+01
   2.269396e+01   3.235942e+01
   7.025540e+01   2.954212e+01
   1.941325e+01   3.267803e+01
  -1.793394e+01  -1.451255e+01
   1.503568e+01   1.715075e+00
   4.778239e+01   2.410265e+01
   9.749862e+01   4.774885e+01
   2.356298e+00  -4.391578e+00
  -6.855671e+00  -5.381155e+01
  -2.699605e+01  -6.747736e+01
   2.350381e+01  -2.528109e+01
   5.091563e+01   5.303164e+01
  -1.659579e+00   6.807704e+01
  -6.835333e+01   1.344115e+01
  -9.396069e+01  -3.616723e+01
  -1.076421e+02  -2.817934e+01
   1.164061e+01  -2.703552e+01
   4.542871e+01  -3.895350e+01
   2.988974e+01  -6.539578e+00
  -4.001496e+01   2.363601e+01
  -9.261348e+01  -3.782054e+01
   2.822536e+01  -1.896693e+01
   8.001193e+01  -3.017399e+01
