
 $NMID
 id='ANONYMOUS ', fmtdat='(2E16.6)'
 volume=1.0
 tramp=1.0
 $END
  -2.830508e+03  -3.810057e+01
  -1.899033e+03  -1.475515e+03
   3.838181e+01  -1.808411e+03
   1.183505e+03  -1.026092e+03
   6.720549e+02  -8.619542e+01
  -1.283402e+02   1.237400e+02
  -4.949121e+02  -1.334062e+02
  -5.944190e+01  -6.312800e+02
   3.813997e+02  -5.591457e+02
   6.194235e+02   1.137393e+01
   3.241462e+02   4.481036e+02
  -1.023453e+02   5.215978e+02
  -2.861659e+02   1.725649e+02
  -2.456173e+02  -4.570185e+02
   1.237720e+02  -5.268477e+02
   4.271980e+02  -7.077524e+01
   2.176453e+02   4.698027e+02
  -1.229291e+02   5.254631e+02
  -3.380455e+02   1.783513e+02
  -4.338696e+02  -1.700704e+02
  -5.018489e+01  -3.225927e+02
   6.685612e+01  -1.953124e+02
   1.034460e+02  -9.769899e+01
  -4.916600e+01  -1.608788e+02
  -1.778910e+02  -2.280481e+02
   1.618265e+01  -3.193984e+02
   4.331243e+02  -2.037177e+02
   5.730365e+02   1.098854e+02
   1.959470e+02   2.898367e+02
  -2.496883e+02   2.360273e+02
  -4.737487e+02  -3.888155e+01
  -2.112712e+02  -2.798263e+02
   1.915360e+02  -3.474841e+02
   4.417967e+02  -2.073807e+02
   2.593383e+02   1.194364e+02
   1.011666e+02   2.739415e+02
  -5.324686e+01   2.162609e+02
  -9.360280e+01  -6.115521e+01
   8.197314e+01  -1.654660e+02
   1.904855e+02  -1.554071e+01
   5.272947e+01   4.408602e+02
  -2.182733e+02   3.765351e+02
  -3.623943e+02  -1.699526e+01
  -1.034146e+02  -3.483632e+02
   2.015136e+02  -1.881951e+02
   1.693963e+02   2.342366e+02
  -8.556273e+01   3.596032e+02
  -3.866637e+02   8.975395e+01
  -4.244807e+02  -2.871450e+02
  -1.596504e+02  -3.594833e+02
   2.466075e+02  -2.623328e+02
   4.828938e+02   1.722221e+01
   3.169778e+02   2.255478e+02
  -2.852187e+01   2.786899e+02
  -2.904220e+02   1.027874e+02
  -2.092299e+02  -7.164376e+01
  -1.074344e+01  -2.519622e+01
   2.814438e+01   5.657222e+01
  -1.210552e+02   1.100477e+02
  -1.643687e+02  -5.156997e+01
  -6.909643e+01  -2.043303e+02
   1.670478e+02  -2.387050e+02
   2.860735e+02  -8.170335e+01
   2.112360e+02   6.202654e+01
  -1.585546e+01   2.995310e+02
  -2.476742e+02   3.015160e+02
  -2.854408e+02   1.266910e+02
  -1.912437e+02  -1.571570e+02
   1.307723e+01  -2.962189e+02
   1.124623e+01  -2.855761e+02
  -2.298582e+01  -1.708754e+02
  -5.207228e+00  -4.801643e+01
   1.409994e+02  -1.030895e+02
   1.646012e+02  -3.445713e+01
   1.971710e+02   8.636971e+01
   5.469593e+01   2.179582e+02
  -5.930168e+01   1.886218e+02
  -1.621079e+02  -2.068289e+01
  -1.227971e+02  -1.867917e+02
   6.316934e+01  -2.273660e+02
   1.586151e+02  -6.687886e+01
   2.624487e+02   1.006849e+02
   1.525890e+02   1.886029e+02
  -1.083724e+02   2.791242e+02
  -1.661382e+02   1.092051e+02
  -1.238060e+02   5.378200e+01
  -1.360887e+02   7.143958e+01
  -1.940551e+02   5.630704e+01
  -3.341063e+02  -7.897814e+01
  -2.510176e+02  -2.344095e+02
   1.172216e+01  -3.738746e+02
   3.427827e+02  -3.367158e+02
   4.333116e+02  -1.406566e+02
   3.119167e+02   7.347162e+01
  -1.697481e+01   1.886612e+02
  -9.763917e+01   2.101564e+02
  -5.690107e+01  -8.136016e+00
   1.538089e+02  -6.702377e+01
   1.242274e+02  -4.915812e+01
   3.945844e+01   1.510461e+02
  -1.104067e+02   9.672158e+01
  -1.291205e+02  -4.405741e+01
  -2.562298e+01  -1.238298e+02
   1.246293e+02   4.628539e+01
   1.711274e+02   2.036895e+02
  -4.387319e+00   3.496224e+02
  -2.084951e+02   1.749268e+02
  -3.151547e+02  -1.560638e+01
  -1.914064e+02  -1.863409e+02
  -3.479312e+01  -2.297239e+02
   1.295853e+02  -9.650781e+01
   1.583398e+02  -5.374875e+01
  -3.956702e+00   1.956719e+00
  -6.219756e+01  -6.604145e+01
   2.869250e+01  -1.515427e+02
   1.280476e+02  -1.233036e+02
   1.427968e+02   1.885100e+01
   2.557610e+00   4.879045e+00
  -6.526915e+01  -3.098168e+01
  -8.225066e+01  -5.837697e+01
   1.187905e+02  -4.950021e+01
   2.851161e+02  -1.060719e+01
   2.002028e+02   1.471037e+02
   6.103848e+01   2.312513e+02
  -1.088400e+02   2.007438e+02
  -2.510802e+02   9.204809e+01
  -1.013869e+02  -4.551410e+01
   4.541918e+01  -1.127989e+02
   7.381582e+01   4.868751e+01
  -6.756436e+01   7.259370e+01
  -1.159924e+02   5.309797e+00
  -1.765195e+02  -7.667717e+01
  -6.775770e+01  -1.503774e+02
   2.321869e+01  -8.717465e+01
   9.398755e+01  -5.832272e+01
   3.185131e+01  -5.306831e+00
  -5.482190e+01  -1.756450e+01
  -3.558123e+01  -1.007872e+02
   7.449109e+01  -1.099387e+02
   1.912314e+02  -1.812459e+01
   1.923911e+02   1.102788e+02
  -2.673262e+01   1.814428e+02
  -9.737756e+01   1.021741e+02
  -1.698347e+02   3.923446e+01
  -5.027153e+01  -1.012119e+02
   2.891184e+01  -1.224273e+02
   4.851411e+01  -6.172517e+01
  -3.876274e+00   6.683232e+01
  -7.859520e+01   3.205535e+01
  -3.473914e+01  -4.690321e+00
   9.770050e+01  -1.869081e+01
   1.116172e+02   4.184177e+01
   6.121296e+01   1.181245e+02
  -8.951590e+01   1.042682e+02
  -1.896038e+02  -9.540196e+00
  -1.719967e+02  -6.189544e+01
  -6.083443e+01  -1.655217e+02
   1.966068e+01  -1.630846e+02
   1.097793e+02  -1.690386e+01
   8.572820e+01   3.002743e+01
   2.915912e+01  -2.470656e+01
   2.669025e+01  -1.066005e+01
   8.626652e+01   3.530604e+01
   7.477035e+01   5.347036e+01
  -3.410909e+01   1.023601e+02
  -8.600209e+01   3.473942e+01
  -6.917884e+01   2.416393e+01
   5.531349e+01  -1.223041e+02
   1.299361e+02  -8.210456e+01
   1.810969e+02   5.384361e+01
   5.334104e+01   1.856842e+02
  -1.361515e+02   2.201072e+02
  -2.478203e+02   5.722630e+01
  -2.251768e+02  -8.186818e+01
  -5.764369e+01  -9.762637e+01
   6.085081e+01  -1.079351e+02
   6.148193e+01  -6.678679e+01
   5.963622e+01  -8.166936e+01
   6.146541e+01  -7.053116e+01
   4.431468e+01  -5.468857e+01
   1.175033e+02   1.519282e+01
   1.005347e+02   1.147995e+02
   2.833420e+01   2.015430e+02
  -1.218390e+02   1.514180e+02
  -1.412659e+02   3.718471e+00
  -8.273509e+01  -1.280928e+02
  -4.003633e+01  -1.797617e+02
   2.025883e+01  -7.068813e+01
   4.849826e+01   1.718407e+01
   1.558303e+01   7.639954e+01
  -3.848376e+01   4.024550e+01
   2.795440e+00   4.967940e+01
   8.327662e+01  -2.055165e+01
   5.943848e+01  -4.226359e+01
  -8.320948e+01  -3.754895e+00
  -1.560484e+02   1.238756e+01
  -1.186872e+02  -8.929640e+01
  -8.672081e+00  -4.590494e+01
   1.701609e+02  -8.608998e+01
   1.546668e+02  -1.721483e+00
   3.549419e+00   1.026055e+02
  -9.669189e+01   5.917901e+01
  -1.179391e+02  -3.402713e+00
  -4.320321e+01  -1.028124e+02
   4.273687e+01  -8.888098e+01
   1.089780e+02  -4.163862e+01
   6.975082e+01   4.250754e+01
   4.821575e+01   9.426172e+01
  -1.328265e+01  -1.005170e+01
   4.077268e+01  -2.777278e+01
   6.122345e+01   5.973093e+01
   2.108216e+01   1.278164e+02
  -1.310873e+02   1.496679e+02
  -1.365568e+02   7.722716e+01
  -8.314837e+01  -4.133148e+01
   2.122689e+01  -1.296616e+02
   7.885143e+01  -1.040729e+02
   7.252537e+01   4.122176e+01
  -7.757739e+01   2.519889e+01
  -1.520587e+02   6.394474e+01
  -9.376274e+01  -5.333459e+01
   7.711898e+01  -9.875352e+01
   1.933000e+02  -9.585043e+01
   1.475236e+02  -9.308620e+00
   7.468975e+01   8.157703e+01
  -1.468897e+01   4.237305e+01
  -3.553662e+01  -5.431518e+00
   3.085040e+01  -2.399760e+00
   5.428788e+01  -1.188940e+01
   8.397940e+01   2.940268e+01
  -3.498889e+01   9.111990e+01
  -1.455680e+02   7.081580e+01
  -9.845570e+01  -1.259704e+02
  -1.324536e+01  -1.896215e+02
   5.403293e+01  -1.911452e+02
   1.677921e+02   1.179125e-01
   9.909782e+01   1.036038e+02
   1.451073e+01   1.034780e+02
  -4.738265e+01   5.447206e+01
  -6.471035e+01  -2.861958e+01
   2.158021e+00  -4.019012e+01
  -1.699909e+01  -7.599939e+00
  -5.064657e+01   8.025366e+00
  -5.960106e+01  -9.301612e+01
   1.526128e+01  -1.139383e+02
   7.347239e+01  -4.969908e+01
   1.181917e+02   8.899767e+00
   8.023781e+01   8.597709e+01
   2.227511e+01   5.181491e+01
  -1.046972e+02   3.840507e+01
  -6.176425e+01   8.235238e+00
  -2.913850e+01   1.726429e+01
   3.092796e+01  -4.186315e+01
  -1.311535e+01  -4.828993e+01
  -5.371041e+01  -2.086752e+01
   1.656970e+01   1.003028e+01
   8.845068e+01   1.287339e+01
   1.121966e+02   6.907730e+01
   1.317009e+01   7.986351e+01
  -7.422034e+01   9.873706e+01
  -1.704565e+02   9.735125e+01
  -1.306974e+02  -2.585816e+01
  -4.575469e+01  -1.619065e+02
   6.137398e+01  -1.553916e+02
   9.830834e+01  -5.448526e+01
   8.512778e+01  -1.634191e+01
   1.806365e+01   6.901753e+01
   1.234086e+01  -1.532985e+01
   1.799966e+01   4.566781e+00
   3.417634e+01   4.581326e+01
   1.875935e+01   1.043908e+02
  -2.210582e+01   1.293726e+02
  -5.903848e+01  -4.466024e+01
  -1.127298e+02  -1.118618e+02
   1.035398e+01  -1.612823e+02
   4.940928e+01  -6.335340e+01
   1.094776e+02   7.252845e+01
   4.371593e+01   8.583483e+01
  -5.047506e+01   2.918397e+01
  -3.281375e+01   3.428780e+01
   8.691219e+00  -7.823804e+01
  -9.979891e+00  -2.747035e+01
   4.023330e+01  -2.195824e+01
  -1.242747e+01   6.395847e+01
  -7.960609e+01  -1.156163e+01
  -6.423364e+01   2.501968e+01
   2.792846e+01  -5.933475e+01
   6.663404e+01  -1.757346e+01
   4.769090e+01  -3.070723e+00
  -5.684361e+01   9.361021e+01
  -7.754169e+01   8.916495e+01
  -3.861147e+01   6.049543e+01
   5.355598e+01  -5.024763e+01
   4.197149e+01  -6.953513e+01
   3.489392e+01   3.980401e+01
   3.233184e+01   6.120633e+01
  -1.664528e+01   7.999824e+01
  -3.645122e+01   6.092817e+01
  -4.194570e+01   2.305107e-01
  -5.693045e+01   3.712973e+00
  -4.369162e+01   3.418520e+01
  -1.083689e+01  -3.367711e+01
  -1.922283e+01  -1.572079e+01
   2.577754e+01  -4.717069e+01
   1.883397e+01  -2.493645e+00
   4.330134e+01   6.753190e+01
   4.813474e+01   4.523761e+01
  -4.894058e+01   6.105697e+01
  -3.859475e+01   4.933773e+00
  -1.585403e+01  -9.617865e+01
   1.570584e+00  -3.843663e+01
   8.738598e+01  -1.549372e+01
   6.071642e+01   5.334745e+01
  -5.874836e+01   4.264113e+01
  -5.799793e+01  -1.300600e+01
  -2.562361e+01  -3.674625e+00
   3.462173e+01  -8.625183e+00
   3.910147e+01   1.537487e+01
  -7.626453e+01   2.857355e+01
  -7.683061e+01  -5.717252e+00
