
 $NMID
 id='ANONYMOUS ', fmtdat='(2E16.6)'
 volume=1.0
 tramp=1.0
 $END
   2.681437e+03  -1.874065e+02
   2.065181e+03   1.339819e+03
   1.095366e+02   1.831373e+03
  -9.963272e+02   1.041417e+03
  -8.574063e+02   1.879941e+02
  -1.030053e+02  -1.734499e+02
   2.043903e+02   9.420543e+01
   4.088577e+01   3.938435e+02
  -3.791763e+02   4.519653e+02
  -5.227656e+02   8.538272e+01
  -3.803565e+02  -4.899042e+02
  -7.168848e+01  -6.020701e+02
   2.413662e+02  -2.185185e+02
   2.579244e+02   3.430876e+02
  -4.515649e+01   5.021841e+02
  -3.625562e+02   1.175013e+02
  -3.165007e+02  -3.965318e+02
   7.293155e+01  -5.296702e+02
   3.986892e+02  -2.624087e+02
   3.766416e+02   1.429848e+02
   1.201190e+02   3.126942e+02
  -4.714824e+01   2.438029e+02
  -3.676467e+01   1.548758e+02
   1.562694e+02   1.100999e+02
   2.376681e+02   2.878323e+02
   7.742741e+01   3.644532e+02
  -3.627790e+02   6.200676e+01
  -4.944003e+02  -1.528654e+02
  -1.868729e+02  -2.889906e+02
   3.036957e+02  -1.656764e+02
   5.129370e+02   1.113396e+02
   1.903152e+02   3.064987e+02
  -2.663493e+02   2.772430e+02
  -3.887566e+02   1.357422e+02
  -3.087158e+02  -1.525024e+02
  -4.656446e+01  -2.691668e+02
   2.769711e+01  -1.589390e+02
  -1.156471e+01   8.508608e+01
  -1.474434e+02   1.186935e+02
  -2.031010e+02  -1.617472e+02
  -1.395023e+01  -4.515034e+02
   2.403706e+02  -3.556323e+02
   3.237724e+02   2.145485e+01
   8.020513e+01   2.603725e+02
  -9.407245e+01   7.421704e+01
  -1.181278e+02  -2.477176e+02
   9.841011e+01  -3.468545e+02
   3.707332e+02  -2.044618e+01
   4.023055e+02   3.864107e+02
   1.155611e+02   4.799974e+02
  -2.064156e+02   2.106332e+02
  -4.936861e+02  -7.066305e+01
  -3.169868e+02  -1.769978e+02
   1.645804e+01  -1.656626e+02
   2.592211e+02  -8.882808e+01
   1.868243e+02  -1.766560e+00
  -1.758038e+01  -1.606849e-01
  -6.959663e+01  -5.501787e+01
   9.911893e+01  -3.502295e+00
   1.898135e+02   3.215133e+01
   1.089902e+02   1.946592e+02
  -1.504586e+02   1.853616e+02
  -3.220907e+02   1.524285e+02
  -2.225511e+02  -8.768266e+01
   5.527752e+01  -3.597780e+02
   2.713200e+02  -4.003599e+02
   3.288481e+02  -1.204416e+02
   2.289298e+02   1.618112e+02
   7.171209e+01   3.948784e+02
  -5.667554e+00   2.907776e+02
  -6.427769e+01   1.537546e+02
  -4.475795e+00   1.046660e+02
  -1.446322e+02   1.505580e+02
  -2.441955e+02   5.904105e+01
  -2.503718e+02  -9.981314e+01
  -9.330351e+01  -1.777800e+02
   1.057431e+02  -1.670120e+02
   1.741460e+02   2.831601e+01
   1.134007e+02   2.217286e+02
  -4.081450e+01   2.415574e+02
  -2.345412e+02   7.946740e+01
  -3.055684e+02  -1.386025e+02
  -1.655945e+02  -2.918186e+02
   7.854639e+01  -2.169412e+02
   1.707957e+02  -1.095689e+02
   1.663386e+02  -4.951695e+01
   9.264823e+01  -1.824953e+01
   2.318302e+02  -6.634537e+01
   3.862740e+02   4.599043e+01
   2.855473e+02   3.001378e+02
   1.961887e+01   4.149254e+02
  -3.437517e+02   3.998901e+02
  -4.099601e+02   1.592043e+02
  -2.809967e+02  -1.085953e+02
  -3.317351e+01  -2.444024e+02
   9.308938e+01  -1.853852e+02
   3.187789e+01  -5.485484e+01
  -1.185312e+02   6.617699e+01
  -8.320658e+01  -1.508957e+01
  -2.848618e+01  -1.239003e+02
   1.138023e+02  -1.318127e+02
   1.471824e+02   8.275971e+01
  -7.936051e+00   9.503198e+01
  -1.458772e+02   1.225269e+01
  -1.333213e+02  -2.015495e+02
  -1.539187e+01  -2.677733e+02
   2.555145e+02  -1.981004e+02
   3.471143e+02   3.107872e+01
   2.523382e+02   2.758300e+02
   6.257720e+01   2.455477e+02
  -9.615528e+01   1.433545e+02
  -1.541612e+02   4.929092e+00
  -5.324990e+01   2.048321e+01
   5.959784e+01   1.116982e+02
  -5.887906e+01   1.753498e+02
  -1.300702e+02   9.687679e+01
  -1.801992e+02  -4.781725e+01
  -3.385750e+01  -1.237320e+02
   4.963212e+01  -1.691718e+01
   3.422818e+01   1.071585e+02
  -1.693812e+02   1.195529e+02
  -2.451756e+02  -1.728860e+01
  -2.293055e+02  -1.705227e+02
  -5.055316e+01  -2.595567e+02
   2.510457e+02  -2.194320e+02
   2.646536e+02   2.669227e+00
   1.045822e+02   9.544924e+01
  -1.015213e+02   1.419695e+02
  -3.387668e+01  -2.308806e+00
   8.040787e+00  -8.462451e+01
   1.912443e+02   4.878719e-01
   1.250796e+02   1.532168e+02
   5.554012e+01   1.695486e+02
  -1.226560e+02   9.352357e+01
  -1.241510e+02  -3.153010e+01
  -5.131776e+01  -7.361670e+01
   7.338100e+01  -7.750303e+00
   2.610822e+01   1.082071e+02
  -9.582190e+01   1.172379e+02
  -1.779581e+02   7.462492e+00
  -1.620149e+02  -1.540620e+02
   3.558577e+01  -2.367387e+02
   1.804784e+02  -1.144245e+02
   1.587593e+02   4.865061e+01
   3.750671e+01   8.202940e+01
  -6.645967e+01   7.322417e+01
  -8.324870e+01   9.871936e+00
   4.606551e+01  -7.025468e+01
   3.717626e+01  -1.593826e+00
  -2.401964e+01   2.886434e+01
  -6.724901e+01   5.110924e+01
  -1.483967e+02  -9.603335e+01
  -1.688641e+01  -1.872141e+02
   1.397527e+02  -1.649310e+02
   2.429855e+02   4.063116e+01
   1.211382e+02   1.456155e+02
  -7.215680e+00   2.049752e+02
  -9.008632e+01   9.206947e+01
  -1.034916e+02   3.441692e+01
  -1.106558e+02  -5.133337e+01
  -2.000063e+01  -5.936603e+01
  -1.556291e+01  -1.901215e+01
  -5.940189e+01   2.710757e+01
  -7.735918e+01  -5.166441e+01
   3.456850e+01  -1.366523e+02
   1.429968e+02  -6.369570e+01
   1.275774e+02   4.889528e+01
   8.817718e+00   1.750781e+02
  -1.792059e+02   8.443446e+01
  -1.949552e+02  -4.627673e+01
  -3.697230e+01  -2.003340e+02
   1.095974e+02  -1.795552e+02
   2.069504e+02  -3.632854e+01
   2.444250e+02   7.709085e+01
   6.647883e+01   1.471975e+02
  -2.771549e+01   9.541249e+01
  -7.873260e+01   4.225885e+01
  -7.531954e+01   7.137324e+01
  -4.604681e+01   8.339862e+01
  -1.090866e+02   9.812228e+01
  -1.749379e+02  -4.840439e+01
  -9.992098e+01  -1.435186e+02
  -2.916256e+01  -2.100209e+02
   8.294595e+01  -1.420582e+02
   1.409094e+02   8.779863e+00
   1.484178e+02   8.593879e+01
   1.343974e+01   1.476226e+02
  -1.096164e+02   6.195519e+01
  -3.931119e+01  -2.586227e+01
   4.328752e+01  -3.842965e+01
   3.381805e+01  -8.175054e+01
  -6.157782e+01  -1.974113e+01
  -6.807662e+01  -5.084299e+00
  -5.059320e+01  -2.857006e+01
   9.532700e+01  -2.271552e+01
   1.264911e+02  -1.569300e+00
   1.399390e+02   2.469291e+01
  -1.182585e+01   6.038551e+01
  -1.519998e+02   7.267826e+01
  -1.526433e+02   1.942665e+01
  -3.861461e+01  -9.409177e+01
   4.308050e+01  -3.295347e+01
   8.234480e+01   3.150724e-01
   3.477621e+01   1.137029e+02
  -1.594844e+01   5.077169e+01
  -8.115306e+01  -4.151830e+01
  -6.684969e+01  -5.544290e+01
  -8.295933e+00  -2.838065e+01
  -4.787453e+01  -4.312619e+01
  -3.029547e+00   2.209347e+01
   1.109590e+00  -6.529633e+01
   5.095657e+01  -1.585319e+02
   9.427651e+01  -1.220727e+02
   2.006348e+02  -3.278929e+01
   1.058686e+02   1.250908e+02
  -6.332207e+00   1.165313e+02
  -1.049871e+02   7.428155e+01
  -6.896625e+01  -2.578379e+01
   8.371175e+01  -2.450401e+01
   9.847082e+01   5.748655e+01
  -6.227034e+00   1.106752e+02
  -8.594013e+01   9.660971e+01
  -1.387884e+02   7.994684e+01
  -1.625934e+02  -3.343853e+01
  -6.977316e+01  -8.951607e+01
   3.462474e+01  -5.129993e+01
   4.301921e+01   2.889901e+00
  -3.876361e+01  -1.750905e+00
  -1.174152e+02  -2.391986e+01
  -6.484686e+01  -1.372102e+02
   1.594531e+02  -1.651745e+02
   1.322924e+02  -5.127727e+01
   9.768411e+01   9.163632e+01
   1.577611e+00   2.081571e+02
  -7.272182e+01   1.121460e+02
  -1.220800e+02  -2.864836e+01
  -5.623661e+01  -1.361654e+02
   3.145173e+01  -8.977629e+01
   7.121135e+01  -1.922467e+00
   8.205750e+01  -2.912559e+01
   7.277128e+00   2.325128e+01
   8.736437e+00  -2.897714e+01
   7.856279e+01  -5.401202e+00
   8.368579e+01   9.581244e+01
   3.165048e+01   1.065538e+02
  -3.884124e+01   5.759152e+01
  -1.124358e+02  -4.060423e+00
  -1.344665e+02  -5.644142e+01
  -2.035273e+01  -1.119069e+02
   5.499680e+01  -3.410443e+01
   9.692732e+01  -1.093997e+01
  -1.412042e+00  -1.589502e+01
  -2.246245e+01   3.761859e+01
  -1.050384e+00  -2.470350e+01
   3.263554e+01  -3.239194e+01
   1.917378e+01   6.767565e+00
  -7.535379e+01   2.249874e+00
  -1.051606e+02  -6.952239e+01
  -6.140658e+01  -7.971038e+01
   6.910075e+01  -1.196007e+02
   1.945710e+02  -7.104056e+01
   9.909113e+01   4.436177e+01
   8.318342e+01   1.154109e+02
  -2.728223e+01   1.457889e+02
  -1.198992e+02   7.470522e+01
  -7.241391e+01   4.582390e+00
  -2.372671e+01  -1.551121e+01
   9.377417e+00   1.790355e+01
  -5.204470e+01   5.536492e+01
  -8.720986e+01  -7.598021e+01
  -4.154747e+01  -1.017302e+02
   1.112758e+01  -6.115796e+01
   5.378248e+01  -5.027632e+01
   9.095629e+01   6.140693e+01
   7.425114e+01   5.482483e+01
  -7.031259e+01   1.844417e+01
  -7.656170e+01  -8.096248e+01
  -3.024609e+01  -7.689765e+01
   5.950523e+01  -4.740858e+01
   1.527738e+02  -1.077783e+01
   2.740971e+01   8.177996e+01
  -5.481991e+01   3.836527e+01
  -1.655392e+01  -4.548629e+00
  -8.104334e+00  -6.914611e+00
   4.541269e+00  -4.923256e+01
  -1.983267e+01  -7.186519e+00
  -4.306341e+01   8.302741e+01
  -1.112801e+02   4.519907e+01
  -1.029548e+02  -1.124968e+01
  -2.157131e+01  -7.762812e+01
   3.700514e+01  -8.008420e+01
   5.256050e+01  -3.935558e+01
   6.199690e+00   1.910063e+01
  -1.188518e+01  -5.599680e-01
   1.503644e+01   4.749352e+00
  -3.217327e+01  -3.958129e+01
   2.312901e+01  -9.061626e+01
   4.782987e+01  -2.299154e+01
  -1.665386e+01   7.697485e+00
   8.397725e+00   3.139165e+01
   1.436342e+01  -5.515164e+01
   1.123152e+01  -2.423617e+01
   1.368770e+01   3.203917e+01
   6.173659e+00   5.958714e+01
  -2.750064e+01  -6.270427e+00
  -3.274596e+01  -5.900216e+01
  -1.079022e+01  -7.666640e+01
  -7.941383e+00  -2.954831e+01
   1.075348e+02   4.935627e+01
   3.264975e+01   4.813059e+01
  -4.866069e+01   4.606241e+01
  -1.195329e+02  -2.525473e+01
  -9.207279e+01  -5.412231e+01
   2.057092e+01  -1.105246e+01
   1.022661e+02  -4.110698e+00
  -3.150134e+01   4.627141e+00
  -5.430011e+01  -3.234914e+01
   4.480566e+00  -3.944976e+01
  -2.868513e+00  -5.084090e+01
   9.593207e+01  -4.056679e+01
