
 $NMID
 id='ANONYMOUS ', fmtdat='(2E16.6)'
 volume=1.0
 tramp=1.0
 $END
   5.023243e+02   1.428798e+01
   3.487243e+02   2.448594e+02
   2.060659e+01   2.862862e+02
  -1.622190e+02   1.838620e+02
  -1.941022e+02   5.765739e+01
  -2.734752e+01  -3.274063e+01
   4.820574e+01   1.978485e+01
   6.099262e+01   7.497943e+01
  -8.536602e+00   1.210527e+02
  -8.433972e+01   5.546985e+01
  -8.772762e+01  -7.175049e+01
  -2.639316e+01  -1.089450e+02
   1.630705e+01  -4.906011e+01
   2.927231e+01   5.323872e+01
  -3.300111e+01   1.234813e+02
  -3.291234e+00   1.943921e+01
  -1.577075e+01  -5.784648e+01
   6.892154e+00  -7.639126e+01
   6.640713e+01  -3.293658e+01
   4.403154e+01   6.966956e+00
   2.159258e+01   5.163616e+01
   2.731294e+01   4.101511e+01
   1.594990e+01   6.232462e+00
   4.348008e+01   2.718408e+01
   4.172542e+01   2.297501e+01
   1.448522e+01   2.966189e+01
  -6.383868e+01   1.753559e+01
  -6.885579e+01  -1.971126e+01
  -5.484995e+01  -4.660752e+01
   2.963908e+01   1.506793e+01
   6.444214e+01   2.696163e+01
  -5.129411e+00   2.633259e+01
  -3.766108e+01   1.707070e+01
  -2.993801e+01   9.464197e+00
  -4.023079e+01  -2.332123e+01
  -2.476279e+01  -1.688854e+01
   2.764580e+01  -1.427544e+01
  -1.543204e+01   2.496252e+01
  -1.016918e+01   1.845982e+01
  -1.029074e+01  -2.809354e+01
   3.536873e+01  -5.107230e+01
   1.839461e+01  -5.496676e+01
   3.972942e+01   1.017204e+01
   2.622696e+01   4.144646e+01
  -3.259268e+01  -1.968586e+00
   1.023873e+01  -6.740570e+01
   1.060727e+01  -7.540574e+01
   4.044623e+01  -8.988200e+00
   6.323286e+01   8.758569e+01
   2.354091e+01   1.241360e+01
  -4.486947e+01   2.352854e+01
  -6.829478e+01  -1.069499e+01
  -3.160285e+01  -3.359095e+01
  -1.677383e+01  -1.736341e+01
   3.099001e+01  -5.956013e+00
   2.114438e+01   1.055354e+00
  -9.414121e+00   1.814278e+01
  -1.425648e+01   1.282763e+01
   9.630473e-01   1.358089e+01
   2.102982e+01   2.388204e+01
   3.154868e+01   3.198888e+01
  -2.108959e+01   3.938131e+01
  -4.509287e+01   3.921467e+01
  -1.087177e+01  -6.786072e+00
  -3.398775e+00  -8.627681e+01
   5.212815e+01  -5.498763e+01
   1.206140e+02  -7.176347e+00
   5.035035e+01   3.510726e+01
  -1.208404e+01   6.280445e+01
   2.578259e+00   5.334669e+01
  -5.100052e+00  -1.288775e+01
  -3.765123e+01   5.924959e-02
   7.364416e+00   7.364173e+01
  -2.937768e+01   1.200049e+01
  -2.001517e+01  -4.056081e+00
  -2.105707e+01  -5.568475e+00
   2.117648e+01  -2.066363e+01
   1.970929e+01   2.626186e+01
  -4.612696e+00   3.855976e+01
   2.487057e+00   2.017337e+01
  -3.737206e+01   2.837576e+00
   8.206166e-01  -2.248568e+01
   1.878237e+01  -1.189893e+01
   1.343445e+01  -1.823533e+01
   1.450356e+01  -6.858629e+00
   3.284509e+00  -1.666446e+00
   1.803812e+01  -9.695152e+00
   3.943865e+01  -1.680214e+01
   2.653055e+01   2.451850e+00
   6.140981e+01   3.360340e+01
   1.896941e+01   8.887135e+01
  -5.177457e+01   4.904653e+01
  -6.888398e+01   1.296607e+01
  -2.420576e+01  -4.351240e+01
   7.238251e+01  -4.440150e+01
   2.746551e+01  -6.927195e+00
   1.360816e+01   4.078172e+01
  -1.381319e+01   2.831420e+01
  -4.259960e+01  -3.711951e+01
   1.655211e+01  -1.611093e+01
   5.244705e+01  -2.796167e+01
   2.375546e+01   9.927083e+00
   1.270504e+01   4.321169e+01
  -7.869061e+00   1.972771e+01
  -3.752525e+01   4.747493e+00
  -2.438199e+01  -6.156298e+01
   3.966426e+01  -5.639558e+01
   5.998524e+01   1.030988e+01
   3.676084e+01   2.616926e+01
   3.299403e+00   2.764630e+01
  -8.181952e+00   4.879482e+01
   2.849392e+00  -3.700943e+01
   1.309292e+01  -1.062509e+01
   2.394711e+01  -1.453936e+01
   2.253292e+01   2.335119e+01
  -1.449550e+01   3.086262e+01
  -2.499010e+01  -6.377454e+00
   2.968486e+01  -1.007613e+01
   1.258199e+01  -3.031362e+01
   3.643423e+01   1.713284e+01
  -3.969479e+00   2.632602e+01
  -1.130842e+01  -1.053335e+01
  -4.621684e+01  -1.225318e+00
  -1.095515e+01  -4.090868e+01
   2.134764e+01  -2.652930e+01
   1.625905e+01  -3.054986e+01
   4.735768e+01   1.035436e+01
  -4.258830e+00   2.608675e+01
  -3.584609e+00   3.777243e+00
   1.514599e+01  -4.438702e+01
   2.959385e+01  -3.255637e+01
   4.769377e+01   1.547317e+01
  -1.076024e-01   2.912204e+01
  -2.048917e+01   9.873033e+00
  -1.109042e+01  -8.820690e+00
  -2.247993e+00  -6.793098e+00
  -9.802824e-01  -2.930956e+01
  -2.567117e+01  -1.496174e+01
   1.191465e+01  -1.963417e+01
  -4.324087e+01  -2.574221e-01
  -3.843440e+01  -2.658751e+01
   1.966035e+01  -3.355939e+01
   5.965601e+01   6.493370e+00
   6.469864e+00  -2.342829e+01
   2.324672e+01  -3.271291e+01
   2.262062e+01   1.635663e+01
  -1.522539e+00  -8.721514e+00
  -1.985802e+01   8.237088e+00
   2.097413e+01   2.456392e+01
   3.604090e+00   8.998191e+00
   3.370195e+00  -1.870969e+01
   4.796114e+01  -1.472841e+01
   1.455533e+01  -4.137523e+01
   1.732116e+01  -2.835657e+01
   1.404825e+01  -1.586196e+01
   2.899818e+01   3.177358e+01
   7.959696e+00   6.118024e+01
   7.933461e+00   3.347055e+01
  -1.242082e+01  -1.053462e+01
   1.023157e+01  -7.263278e+00
   3.861291e+00  -2.640359e+01
  -3.716726e+00   1.510141e+00
  -2.416959e+01   9.448638e+00
  -2.238196e+01  -9.609571e+00
   4.621850e+01   2.302070e+01
   5.513220e+01   1.570473e+01
   4.629208e+01   1.128870e+01
  -2.372874e+01   4.400143e+00
   5.177892e+00   3.759011e+00
  -4.858191e+01  -7.014320e+00
  -1.170978e+01  -3.170180e+01
   2.879507e+01   7.674717e+00
   4.366393e+01  -1.238463e+01
   5.872747e+01  -3.747333e+00
   1.284982e+01  -1.015398e+00
  -2.131994e+01   2.832168e+01
  -2.199790e+01   2.016027e+01
  -9.850718e+00  -1.816222e+01
   5.760515e+00   2.452937e+01
  -5.436943e-01  -1.578312e+01
   2.481786e+01  -2.253917e+01
   1.888521e+01  -4.189798e+01
   1.238634e+01  -8.753009e+00
  -4.015383e-01   1.761869e+00
   2.606294e+00   2.505837e+01
   2.535973e+01   3.817694e+01
  -9.067759e-01   1.454339e+01
  -1.064745e+01  -7.089513e+00
   8.524770e-01  -3.759722e+01
   6.968648e+00  -2.941404e+01
   1.469369e+01  -4.752045e+01
   1.587083e+01   1.876569e+01
  -3.531911e+01   6.459099e+00
  -2.439286e+01  -2.837541e+01
   1.233168e+01  -2.758591e+01
   3.324387e+01  -2.882215e+00
   2.954852e+01   1.242812e+01
   6.763554e+00   3.067399e+01
  -1.873564e+01   1.616012e+01
  -4.204870e+01   4.752298e+00
  -1.917962e+01  -3.974363e+01
   5.296255e+00  -7.597416e+00
   1.319431e+00   1.519165e+01
   1.351721e+01   3.495111e+01
   2.758698e+00  -1.249938e+00
   9.533400e+00   1.512433e-01
  -2.498932e+01  -7.689190e+00
  -3.142466e+01  -1.198481e+01
  -3.853637e+01  -1.589343e+01
  -4.913888e+00   3.381141e+00
   2.645937e+01  -2.918887e+00
   1.802630e+01  -3.611136e+01
  -6.806645e+00  -3.054970e+01
   1.551699e+01   2.317277e+01
  -1.904326e+01   9.632916e+00
  -1.237507e+01   1.141231e+01
  -4.460159e+01  -1.434836e+01
  -6.790036e+00  -3.661169e+00
   3.073791e+01  -1.243122e+01
   1.332618e+01  -3.974969e+00
   3.980074e+01   2.741297e+01
  -3.587199e+01   8.868034e+00
  -4.086301e+01   9.253511e-01
  -2.287387e+01  -4.200037e+01
  -2.233252e+00  -1.539582e+01
   1.322768e+01  -1.886619e+01
  -8.953927e-01  -1.089842e+00
   2.737667e+01  -1.369980e+01
  -3.260066e+01  -2.528650e+01
  -1.839929e+01  -4.307034e+01
   3.398948e+01  -9.396869e+00
   3.595937e+01  -1.660879e+01
   3.124249e+01   4.264750e+01
   8.714157e+00   1.809817e+01
   1.985748e+01   2.201753e+01
  -4.653312e+00  -2.094965e+01
  -1.247689e+01  -4.376856e+01
  -5.490847e+00   5.369808e+00
   1.391576e+01   3.244706e+01
  -4.022232e+00  -2.289877e+01
   1.492574e+01   2.750100e+01
  -9.451375e+00  -2.862679e+01
   5.448871e-01  -1.526219e+01
   2.483620e+01  -2.343089e+01
  -2.310448e+01   3.212960e+00
  -1.833162e+01   4.170535e+01
  -2.577028e+00  -1.602881e+01
   1.640749e+01  -1.699157e+00
  -8.746770e+00  -3.472470e+01
  -1.485906e+00  -1.327150e+01
   1.043680e+01   1.062850e+01
   2.426424e+01   1.010152e+01
  -1.615278e+01  -2.374112e+00
   1.640506e+01  -2.519934e+01
   3.862358e+01  -5.969288e+00
   1.063739e+01   3.097923e+01
  -5.770155e+01  -2.303744e+01
  -5.476678e+01   6.810822e+00
  -7.292361e+00  -4.979591e+00
   3.846831e+01  -3.608344e+01
  -1.012100e-01  -4.119215e+01
   2.059216e+01   1.663569e+01
   1.107307e+01  -1.052523e+01
  -8.403048e-01   1.859817e+01
  -2.346059e+01   1.279644e+01
  -6.148464e+00  -1.844777e+00
   5.170902e+00  -3.992963e+01
   1.940980e+01  -4.154383e+00
  -3.352287e+01  -4.615000e-01
  -2.054266e+01  -1.928073e+01
   2.915679e+01  -1.815876e+01
  -1.889396e+01  -1.889609e+01
   7.222467e+00  -2.775105e+00
  -1.462391e+01  -1.604122e+01
  -2.808998e+01   4.681140e+00
   5.994147e+00  -3.933775e+00
  -1.776541e+01   1.103122e+01
   2.672932e+00  -2.198156e+01
   6.156415e+00  -9.151347e+00
   4.736446e+01  -6.240195e+00
  -1.438913e+01   8.987059e+00
  -2.246587e+01   8.933406e+00
  -1.693366e+00   9.987082e+00
   2.285291e+01   2.323519e+01
   2.117861e+01  -1.431639e+01
   6.340447e-02   8.416822e+00
  -1.592124e+01  -1.763363e+00
  -3.807767e+01   1.718724e+01
  -6.445340e+00  -5.193028e-01
   1.257721e+01   1.433663e+01
  -2.938709e+01   4.907225e+00
   2.108121e+01  -4.769251e+00
   1.619117e+01   3.221663e+01
  -6.270636e+00  -1.861947e+00
  -1.944319e+01  -5.984056e+00
  -2.679802e+01  -1.454133e+01
   1.303090e+01  -1.134577e+01
  -1.271654e+01  -5.269299e-01
  -9.238073e+00  -1.562502e+01
  -1.520635e+01   3.858170e+01
   1.361599e+00  -2.121518e+01
  -2.012164e+01   7.411387e+00
  -4.261026e+01   2.563895e+00
  -2.100919e+00   1.495750e+01
   8.939130e-01   1.505803e+01
  -2.302388e+01   9.718737e+00
   5.040497e+00   4.316374e+00
  -8.995018e+00  -5.056374e+01
   1.279639e+01  -3.175871e+00
   1.606243e+01   2.181338e+01
  -7.327934e+00  -1.251365e+01
  -1.101069e+01   2.995515e+00
  -1.932227e+01   1.440040e+01
   2.533784e+01  -1.626291e+01
  -2.038395e-01  -2.875815e+01
   1.979140e+01  -2.965055e+01
   3.439627e+00   9.156286e+00
   9.312468e+00  -7.216557e+00
  -1.805128e+01  -2.027599e+01
  -2.500540e+00   1.151822e+01
