
 $NMID
 id='ANONYMOUS ', fmtdat='(2E16.6)'
 volume=1.0
 tramp=1.0
 $END
   1.013365e+03  -1.068985e+02
   7.474201e+02   3.845288e+02
   2.061357e+02   6.520318e+02
  -2.370776e+02   5.608711e+02
  -3.691524e+02   2.603960e+02
  -1.619312e+02  -3.128142e+00
  -7.880463e-01  -4.442390e+01
   3.024432e+01   6.613497e+01
  -1.253049e+02   1.504807e+02
  -1.491340e+02   4.398182e+01
  -1.760529e+02  -1.125762e+02
  -3.012829e+01  -1.900918e+02
   9.573894e+01  -9.171046e+01
   1.257967e+02   1.013204e+02
  -2.009739e+01   2.109723e+02
  -1.112384e+02   8.912258e+01
  -1.450020e+02  -1.601135e+02
  -1.590580e+01  -2.249628e+02
   1.535949e+02  -1.868321e+02
   1.428784e+02   1.056319e+01
   6.543029e+01   1.509402e+02
  -4.004640e+01   1.082392e+02
   1.582055e+01   6.454524e-01
   9.599315e+01   2.207174e+01
   9.163982e+01   1.332549e+02
  -7.585774e+01   1.717105e+02
  -2.416712e+02   4.650465e+01
  -2.209528e+02  -1.022577e+02
  -5.978902e+01  -1.066852e+02
   9.650922e+01  -8.862183e+01
   1.058269e+02   8.458714e+00
   1.601359e+01   5.809844e+01
  -1.083587e+02   5.729197e+01
  -1.498191e+02   7.020337e+01
  -8.981618e+01  -2.601761e+01
  -4.797423e+01  -7.343904e+01
  -1.550566e+01  -4.682908e+01
  -2.110106e+01  -1.050302e+01
  -7.781884e+01   2.546622e+01
  -4.935416e+01  -6.572190e+01
   3.877715e+00  -1.137552e+02
   7.292878e+01  -1.311925e+02
   5.877708e+01  -1.062766e+01
   1.176469e+01   5.911209e+01
  -5.470486e+00   8.269272e+01
  -6.895843e+01  -7.874886e+01
   5.486911e+01  -1.301565e+02
   1.159580e+02  -1.661728e+01
   1.676420e+02   9.810287e+01
   9.383020e+01   1.695019e+02
  -8.562094e+01   1.475818e+02
  -1.853420e+02   4.043416e+01
  -1.280699e+02  -2.529448e+01
  -3.074282e+01  -6.347881e+01
   1.003434e+02  -5.338528e+01
   6.655613e+01  -1.697929e+01
   3.972852e+01  -1.924011e+01
  -2.785578e+01  -4.968325e-01
   3.987744e+01   6.593377e+00
   8.484338e+01   1.040082e+01
   6.340405e+01   2.379060e+01
  -3.229441e+01   7.099507e+01
  -1.376528e+02   8.020929e+01
  -1.156493e+02  -3.750913e+01
  -1.218182e+00  -1.074576e+02
   1.260308e+02  -1.293172e+02
   1.568938e+02  -3.679793e+01
   1.087253e+02   4.804494e+01
   1.431278e+01   9.310322e+01
   3.497356e+01   7.717065e+01
   3.035951e+01   1.150448e+02
   5.824855e+00   8.728722e+01
  -7.676542e+01   5.486814e+01
  -9.433030e+01  -6.835493e+00
  -1.018189e+02  -8.601371e+01
   4.026122e+00  -1.445841e+02
   1.241160e+02  -4.289874e+01
   9.926481e+01  -3.959432e-02
   2.930811e+01   8.599271e+01
  -2.878679e+01   7.729301e+01
  -3.686015e+01   2.355650e+00
  -7.676842e+01  -4.419199e+01
  -5.740519e+01  -7.702332e+01
  -1.703624e+00  -6.065991e+01
   5.511467e+01  -6.601172e+01
   1.941779e+01  -6.275011e+01
   2.967709e+01  -5.193807e+01
   8.681590e+01  -2.377286e+01
   1.213831e+02   4.872404e+00
   1.353935e+02   6.564470e+01
   2.481191e+01   1.062634e+02
  -1.088031e+02   1.309407e+02
  -1.106557e+02   9.136893e+01
  -5.852354e+01  -8.855421e+00
   1.762059e+01  -3.515293e+01
   1.061011e+01  -5.405123e+01
  -9.026728e+00  -3.462823e+01
  -5.279315e+01   2.487107e+00
  -2.599483e+01   1.240196e+00
  -3.467754e+01  -1.872000e+01
  -1.234599e+01  -1.202331e+01
  -2.285256e+01   3.055690e+01
  -1.462608e+00   3.973329e+01
  -3.862626e+01   5.671914e+00
  -5.171010e+01  -6.957845e+01
  -4.026511e+00  -9.873057e+01
   8.749816e+01  -1.054823e+02
   1.500038e+02   5.360589e+01
   9.223123e+01   9.506343e+01
  -3.762129e+00   6.159294e+01
  -4.509571e+01   3.329308e+01
  -2.852482e+01  -3.227306e+01
   3.411484e+01  -6.259704e+00
   6.678824e+01   2.651619e+01
   2.035229e+01   1.941723e+01
  -6.991225e+00   2.158617e+01
  -2.349386e+01  -5.820964e+00
   4.429395e+00  -1.669211e+01
  -2.157246e+01  -1.579273e+01
   9.725112e+00   4.546468e+01
  -2.679580e+01   8.404975e+01
  -9.337489e+01  -9.796036e+00
  -1.125060e+02  -6.606865e+01
  -1.816838e+01  -1.074269e+02
   7.216960e+01  -7.800710e+01
   6.056217e+01  -3.533946e+01
   3.532961e+01   1.272075e+01
  -4.726945e+01   1.874347e+01
  -7.394818e+01  -5.517355e+00
   5.844047e+00  -1.889606e+01
   4.527661e+01   3.002603e+01
   4.514430e+01   8.650952e+00
   6.987323e+00   3.654638e+01
  -6.413634e+01   2.516466e+01
  -5.375211e+01   4.785667e+00
   2.194421e+01   1.314372e+01
  -3.787773e+00  -1.083674e+01
   9.787351e+00   5.114152e+01
  -3.774958e+01   2.164926e+01
  -4.425193e+01   2.191565e+01
  -4.726848e+01  -2.760203e+01
  -8.802529e+00  -5.762557e+01
   8.120441e+01  -4.154331e+01
   8.192816e+01  -1.973380e+01
   2.751610e+01   4.022013e+01
  -2.266804e+01   2.996354e+01
  -3.646564e+01   1.137215e+01
   8.049844e+00  -2.746789e+01
   3.463105e+01  -1.179301e+01
   3.973330e+01  -3.409163e+01
  -2.234357e+01   1.677956e+01
  -4.664355e+01  -2.666547e+01
  -1.529454e+01  -5.403922e+01
   5.321154e+01  -7.271838e+01
   9.700189e+01  -9.387736e+00
   1.061162e+02   6.096907e+01
   4.839687e+01   9.259256e+01
  -1.628969e+01   4.731496e+01
  -6.200951e+01   2.655192e+01
  -2.272415e+01  -1.047161e+00
  -1.325138e+01  -2.488323e+01
  -8.196001e+00  -4.712882e+01
  -2.584024e+01  -1.593357e+01
  -8.426517e+00  -1.247172e+01
   4.452939e+01  -5.721061e+01
   4.820296e+01   9.253268e+00
   6.969739e+01   1.387977e+01
  -1.966681e+00   8.307034e+01
  -5.556240e+01   6.374818e+01
  -8.817045e+01  -1.396827e+01
  -4.399235e+01  -2.944585e+01
   7.015336e+01  -8.359390e+01
   6.647484e+01   1.803538e+00
   5.589649e+01   5.904377e+01
   7.304395e-01   5.421061e+01
  -3.582143e+01   5.616021e+01
  -1.700174e+01   3.740931e+01
   2.061043e+01   9.003747e-01
   2.111707e+01  -1.406315e+01
  -1.416443e+01   4.685726e+00
  -5.617216e+01   3.998098e+00
  -8.696324e+00  -3.745119e+01
   2.713497e+01  -8.712628e+01
   4.002001e+01  -6.125609e+01
   9.884874e+01  -3.897538e+01
   7.963807e+01   5.369221e+01
   1.957745e+01   1.006046e+02
  -4.403754e+01   5.440233e+01
  -6.318531e+01  -1.590861e+01
  -1.221624e+01   1.674647e+00
  -1.557256e+01  -4.058669e+01
   2.460600e+01   4.104334e+01
  -2.703629e+01   8.840267e+00
  -3.961559e+01   1.972306e+01
   1.968812e+00   7.002078e+00
   6.443837e+01   3.414257e+01
   7.887291e+01   3.923774e+01
  -4.912888e+01   1.284614e+01
  -5.467403e+01  -8.765770e+00
  -5.096513e+01  -8.316837e+00
  -5.792363e+01  -2.095513e+01
   5.506328e+01  -5.864825e+01
   5.912668e+01  -2.098307e+01
   3.894458e+01   1.536656e+01
  -1.844780e+01   3.895748e+01
  -1.602994e+01  -9.479780e+00
  -6.999078e+01  -1.747335e+01
  -6.123462e+01   9.155731e+00
  -1.377127e+01  -5.456055e+00
  -2.917423e+01   1.217527e+01
  -3.815548e+01  -7.774787e+00
  -1.824669e+01  -3.885416e+01
   2.583776e+01  -2.424544e+01
   5.308638e+01   1.059072e+00
   5.856911e+01   5.785865e+01
   5.374931e+01   9.414466e+01
  -6.517765e+01   4.707134e+01
  -2.445718e+01  -8.485892e+00
   5.120107e+00  -7.049249e+01
   5.090042e+01  -5.399512e+01
   1.776244e+01   3.680986e+01
  -5.200253e+01   3.567884e+01
  -6.997690e+01   2.113205e+01
  -6.265758e+01  -1.283196e+01
  -3.621029e+00  -4.053144e+01
   4.395659e+01  -8.277391e+00
   2.823412e+01   1.319139e+01
  -1.555851e+01  -1.259979e+00
  -5.877776e+01   3.019219e+01
  -4.795015e+00  -5.982554e+01
   6.400602e+00  -6.258110e+01
   7.078832e+01  -3.498278e+01
   2.759596e+01   4.985274e+01
   5.776487e+00   7.017634e+01
   1.220095e+01   8.835488e+01
   4.915638e+00   2.414897e+01
  -7.368920e-01  -4.512169e+01
   1.627452e+01  -5.645785e+01
   5.042022e+01  -4.177975e+01
   7.623595e+00   1.031221e+00
   2.385965e+01  -1.723588e+01
  -1.221771e+01  -3.499935e+01
   1.024874e+01  -1.516632e+01
   4.334727e+01   5.580985e+01
   1.241280e+01   3.546926e+01
  -1.149907e+00   1.219279e+01
  -4.632946e+01   2.836327e+01
  -5.634514e+01  -9.877830e-01
  -4.050596e+01  -9.794357e+00
   1.720894e+01  -1.534200e+01
   2.412101e+01   9.109958e+00
   6.175953e+00  -4.677977e+00
  -2.738490e+01   2.690388e+00
  -1.700729e+01  -2.277855e+01
   2.765209e+01  -3.263931e+01
   2.851633e+01   4.538781e+00
   6.878906e+00  -1.880800e+01
  -4.006866e+01  -2.847822e+01
  -1.134956e+01  -2.256184e+01
   2.197093e+01  -4.577262e+01
   5.733415e+01  -3.575259e+00
   7.246105e+01   4.456828e+01
   5.892240e+00   4.712400e+01
  -5.581103e+01   4.523471e+01
  -5.158474e+01   2.261273e+01
   9.635634e+00   5.388782e+00
   1.506466e+01  -2.912884e+00
  -1.712997e+01   2.512184e+00
   2.195190e+01  -2.865211e+01
  -3.384247e+01   5.297705e+00
  -1.340913e+01  -7.722591e+01
  -1.272529e+01  -3.242007e+01
   6.113823e+00   4.550361e+00
   2.722633e+01   3.914958e+01
   1.322519e+01   5.948328e+01
   1.785328e+01   8.143133e+00
  -7.149491e+01  -2.168993e+01
  -4.184609e+01  -5.981018e+01
   1.279045e+01  -5.611870e+00
   4.235198e+01  -2.096928e+00
   8.133057e+00   2.109128e+01
  -3.085753e+01  -1.024030e+01
  -7.207797e+00   2.264777e+01
   2.595145e+01   1.331131e+01
   3.209416e+01  -7.074137e+00
  -2.198254e+01   4.872342e+01
  -5.882016e+01   4.401897e+01
  -6.569852e+01   2.499684e+01
  -3.901034e+00  -2.117099e+01
   2.123784e+01   5.439619e+00
   1.658301e+01   1.021463e-02
   2.502149e+01  -6.391584e+00
  -1.343520e+01  -1.574117e+01
  -1.676263e+01   1.425653e+01
  -2.562931e+01   2.519778e+01
   4.192030e+00   2.165091e+01
  -1.474509e+01  -2.087500e+01
   2.377427e+01   3.481157e+00
   4.076889e+01   4.658231e-02
  -2.170116e+01   2.579264e+01
  -4.080347e+00   3.323455e-01
   9.686815e+00  -4.919046e+00
  -2.665918e+01  -4.226511e+00
  -1.324521e+00   2.623633e+01
  -2.958507e+00   2.802453e+01
  -2.934093e+01  -1.790315e+01
  -3.202060e+01  -3.244715e+01
   1.756734e+00  -7.617729e+01
   4.071581e+01  -5.757363e+00
   2.421630e+01   1.491240e+00
  -1.889658e+01  -2.891715e+01
  -2.773058e+01  -1.087942e+01
  -2.768634e+01  -4.368900e+00
  -5.105656e+00   1.356145e+01
  -8.016346e+00   3.039256e+01
   1.034946e+01  -2.190792e+01
  -1.596661e+01  -3.479260e+01
  -5.695087e+01  -3.219049e+01
  -1.998820e+01   6.473194e+00
   3.131281e+01   1.915840e+01
