
 $NMID
 id='ANONYMOUS ', fmtdat='(2E16.6)'
 volume=1.0
 tramp=1.0
 $END
  -4.847038e+02  -5.305322e+01
  -2.644054e+02  -1.561241e+02
  -4.633098e+00  -9.471886e+01
   7.301313e+01  -7.566143e+01
   4.759888e+01   8.941195e+00
   1.794243e+01  -8.283121e+01
  -1.758852e+01   1.582264e+01
   1.129809e+01  -2.646858e+01
   2.079979e+01  -2.232852e+01
  -2.243547e+00   1.924194e+01
   3.020609e+01   3.527527e+01
   8.367481e+00   2.965943e+01
   3.414218e+01  -1.881385e+01
   7.047020e+00  -2.484741e+01
  -2.268748e+01   1.978322e+01
  -2.261028e+01   2.818334e+00
  -2.535652e+00   2.179431e+01
  -4.577662e+01   6.013487e+01
  -2.754665e+01   3.762470e+01
  -1.330304e+01  -8.126428e+00
   2.042727e+01  -3.339177e+01
   1.883223e+01  -2.852858e+01
   5.006965e+00  -4.473581e+01
   5.655061e+00  -4.662613e+01
  -3.436144e+01  -2.792687e+01
  -1.346863e+01  -2.361816e+01
   3.665633e+01   7.487406e+00
   4.991553e+01   2.037198e+01
   1.042862e+01  -1.958559e+01
   2.957677e+01  -3.008493e+01
  -1.316322e+01  -1.005597e+01
  -8.256900e+00   9.029505e+00
   2.858637e+01   9.172466e+00
   2.308236e+01   6.401567e+00
   3.544018e+01   1.421367e+01
   1.463815e+01   1.184116e+01
   5.094037e+01  -1.528823e+01
   6.383091e+00  -3.784735e+00
  -2.673289e+01  -1.873904e+01
  -3.323609e+01   4.791262e+01
  -8.444155e+00   4.678573e+01
  -1.270191e+01   3.804846e+01
  -6.790483e+00   4.447486e+00
   1.829636e+01   7.602835e+00
  -1.478149e+01  -2.095456e+00
   7.500360e+00   1.863042e+00
  -1.917878e+01   1.501178e+01
   1.958689e+00  -1.222774e+01
  -3.880082e+01   1.518207e+01
  -2.158769e+01  -6.004266e+00
  -2.491815e+01   7.180279e+00
   1.669491e+01  -1.620133e+00
   2.397395e+01   3.289200e+01
   6.339829e+00  -1.831996e+01
   2.106387e+01   6.848998e+00
  -2.921936e+01   1.495998e+01
   3.404194e+00  -7.599161e+00
   1.921000e+01   1.104708e+01
  -3.350387e+01  -1.409375e+01
   7.755153e+00  -1.084045e+01
   4.662672e+00   5.895394e+01
  -6.188041e+00  -8.362874e-02
   1.083597e+01  -3.231388e+00
  -1.191525e+01  -2.178288e+01
  -3.623934e+01   7.370729e+00
  -4.070162e+01   1.782104e+01
  -5.651218e+00   9.576136e+00
   9.917248e+00  -2.594255e+01
   1.678966e+01  -2.814933e+01
  -1.199923e+00  -3.288089e+01
  -4.301680e+00  -3.377513e+01
   7.098681e+00   3.948114e+00
   2.562580e+01  -1.509990e+01
   6.071057e+01   2.653149e+01
   1.816420e+01  -5.615170e+00
   1.486937e+01   2.168619e+01
   3.373809e+00   1.158820e+01
  -1.051503e+01   1.170999e+01
  -7.044707e+00  -1.023053e+01
  -8.839096e+00   3.194707e+01
   6.863366e+00   5.587006e+00
   2.328932e+00   1.672823e+01
   1.472218e+01   1.778011e+01
  -5.183713e+00   3.234717e+01
   3.358985e+00   3.198286e+01
   8.504961e+00  -6.678681e+00
  -5.523395e+01  -1.717694e+01
  -2.366505e+01  -1.075724e+01
  -3.890158e+01  -4.815519e+00
  -1.362872e+01  -1.708847e+01
  -6.336253e+00  -3.978553e+01
   4.183238e+01  -5.371585e+01
   1.359411e+01  -6.137357e+00
  -1.482726e+01  -6.180675e+00
  -9.182614e+00  -2.547035e+01
  -5.945778e+00  -3.102620e+00
   1.669488e+01   5.946316e-01
   4.715063e+01   5.814755e+00
   4.780047e+01  -7.807368e+00
   8.164803e-01  -3.265897e+01
   8.550893e+00  -7.591318e+00
   2.677425e+01  -1.296135e+01
  -2.652803e-03  -6.226943e-01
  -7.258652e+00   3.022200e+01
  -6.671417e+00  -1.999680e+01
  -1.297216e+01   2.541845e+01
   1.084851e+01  -8.042501e+00
  -7.750361e+00  -1.483645e+01
  -2.631052e+01   4.598823e+00
   1.695175e+01  -1.813972e+01
  -1.124974e+01   6.855238e+00
   5.761091e+00   1.360187e+01
  -6.838336e-01  -2.422801e+01
   3.748420e+01  -1.630211e+01
   3.811674e+00  -1.878785e+00
  -5.750744e-01  -1.089264e+01
  -4.892013e+00  -3.281930e+00
  -9.391825e+00  -1.178453e+01
  -9.803290e+00  -2.565156e+01
   1.674832e+01  -5.641962e-01
   2.702647e+01  -1.177738e+01
   5.312621e+01   2.177221e+01
   4.367825e+01   4.355454e+01
   2.820696e+00   2.992141e+01
  -4.638232e+01   2.318191e+00
  -3.159159e+01   3.350031e+01
  -5.025587e+01  -3.052939e+01
  -1.121449e+01  -8.425712e+00
   5.579179e-01  -2.385620e+01
   3.675909e+00  -4.945158e-01
   1.835341e+00  -3.486499e+00
   7.217532e+00   1.224914e+01
   9.329942e+00   9.618929e+00
  -1.729144e+01  -2.012123e+01
   7.066625e+00   1.260683e+01
   4.624034e+01   7.236037e+00
   3.109983e+00   4.551677e+00
   1.088209e+01  -1.363030e+01
   2.990128e+01   1.862523e+00
   1.757712e+01   2.393059e+01
   2.995889e+01   1.349044e+01
   2.915617e+01   4.023979e+01
  -2.347662e+01   4.223117e+01
  -2.350682e+01  -3.972817e+00
   4.753773e+00   7.097137e-02
   1.746174e+00  -1.066296e+01
  -1.827097e+01  -6.544196e+00
  -1.330540e+01   1.664750e+01
   4.640568e+00   2.668192e+01
  -7.502835e+00   1.994402e+01
   1.148273e+01   1.730167e+01
  -2.765474e+01   7.454799e+00
  -8.921313e+00  -2.201013e+00
  -5.434907e+01   4.025012e+01
  -2.293688e-01  -2.318663e+01
  -4.321354e+01  -2.504558e+01
   2.253770e+01  -1.499055e+00
  -7.653122e+00  -1.685159e+01
   5.474430e+00  -2.847090e+01
   3.064421e+01  -1.350511e+01
   1.278974e+01   2.731089e-01
  -8.069038e+00  -1.593244e+01
  -1.969392e+01   2.512265e+00
   1.591098e+00  -8.505602e+00
  -2.646730e+01   2.061552e+00
  -2.670679e+01   1.745167e+01
  -2.517981e+00   2.742683e+01
   4.223960e+00   7.113696e+00
  -5.608799e+00   3.434856e+01
  -1.795071e+01  -6.549517e+00
   9.466981e+00  -3.859615e+01
   2.382404e+01  -6.331341e-03
  -3.578119e+01  -1.158575e+01
  -2.012849e+01  -2.601408e+01
  -1.340081e+01   4.354371e-01
   5.790431e+00  -2.013689e+00
  -1.210809e+01  -1.717343e+01
  -1.652590e+00  -1.254148e+01
  -4.043002e+00  -4.182764e+00
   3.786229e+00   1.797975e+00
  -1.023907e+00  -5.274808e+00
   1.416686e+01   3.185331e+01
  -8.034144e+00  -1.141080e+01
   1.012551e+01   2.962618e-01
   1.931731e+01  -3.707157e+01
   9.742483e+00   7.495174e-02
  -9.179456e+00  -3.444088e+01
   2.991536e+01  -2.828234e+01
   6.850307e+00   1.428400e+01
   9.204087e+00   3.508327e+01
  -5.552978e+00  -1.843047e+01
  -2.481771e+01   1.276102e+01
   3.834661e+00  -1.585418e+01
   1.133622e+01  -1.543359e+01
  -3.242897e+00   1.840552e+00
  -9.606726e+00   8.337608e+00
   6.849932e+00  -1.969386e+01
   8.272227e+00  -2.467705e+01
   2.802322e+01  -1.699836e+01
  -1.044534e+01   7.652459e+00
  -8.740037e+00  -3.522189e+01
  -2.521285e+00   1.406016e+01
  -6.769406e+01  -4.619104e+00
  -1.683385e+01   1.300356e+00
   1.817959e+00   9.519337e-01
   1.591008e+01   2.639110e+00
   1.322457e+01   1.664005e+01
   3.362786e+01   9.675260e+00
   3.533397e+01   2.062781e+01
   1.067684e+00   8.476767e+00
  -2.174586e+01  -5.575649e+00
  -4.045084e+01   3.079584e+01
  -7.464387e+00   2.065209e+00
  -5.316450e+01  -8.347278e+00
  -3.217035e+01  -4.686607e+01
  -2.271104e+00  -3.212765e+01
  -4.588537e+00   2.251171e+01
  -6.788180e+00   3.331996e+01
  -2.679269e+01   1.717977e+01
  -3.441377e+01  -2.098059e+01
   1.002825e+00   3.566193e+01
  -1.276933e+01   6.196410e+00
   8.945815e+00  -1.826720e+01
  -2.594489e+01  -2.744533e+00
  -2.030617e+01   3.101062e+00
  -1.141634e+01  -9.539455e+00
   9.780697e+00   9.787497e+00
  -5.896801e+00  -2.895658e+01
  -7.396302e+00   1.741214e+00
  -1.034423e+01  -1.990883e+00
  -2.588512e+00   8.388986e+00
  -1.007982e-01   1.356699e+01
   1.278354e+01  -2.556203e+01
   1.912965e+01   1.745425e+01
  -1.201653e+01   1.421678e+01
   1.142304e+01  -3.662540e+00
  -7.579843e+00  -1.398793e+01
   1.689312e+01   3.705964e+01
   1.781996e+01  -7.409438e+00
   2.961403e+01   2.446847e+01
   1.839515e+01  -1.954812e+01
  -2.138610e+01  -1.555037e+01
   8.628412e+00   1.923966e+00
  -4.025837e+00  -1.176530e+01
  -1.954988e+01  -4.873992e+01
  -5.500901e+00  -1.823620e+01
   3.657181e+01   2.126438e+01
   3.437482e+01   1.246823e+01
  -2.285906e+01   9.275971e+00
  -9.924756e+00   2.633497e+01
  -7.791611e-01   8.697391e+00
  -1.076768e+01   2.958426e+00
   3.014957e+01   1.276040e+01
  -6.920270e+00  -2.726450e+00
  -2.189446e+00  -1.442204e+01
   3.775347e+01   1.163676e+01
   1.022485e+01  -1.489617e+01
   2.660910e+00  -2.078391e+01
  -7.181687e+00  -1.541540e+01
  -8.713945e+00   2.508572e+01
  -2.824056e+01  -1.470018e+01
  -1.152837e+01  -2.593703e+01
  -2.955659e+01  -1.836389e+01
   1.487136e+01   1.102964e+01
   7.599279e+00  -1.529129e+01
   2.422830e+01  -1.329486e+01
   1.403966e+01   2.006765e+01
   1.183870e+01  -1.155867e+00
   3.456241e+01  -1.322192e+01
  -5.017256e+00   6.937560e+00
  -3.855274e+01  -2.492693e+01
  -3.121276e+01  -1.182620e+01
  -2.486878e+00   1.236840e+01
   2.843179e+01  -1.850966e+01
  -3.222143e+00  -1.734618e+01
  -2.602908e+01   3.580048e+01
  -4.221067e+00   7.073680e+00
  -3.534500e+00  -1.346824e+01
   1.248609e+01   8.960179e+00
  -2.837452e+01  -2.626882e+01
  -1.587590e+01   1.975751e+01
  -1.895233e+01  -8.581115e+00
  -1.174958e+01  -4.045060e+01
  -2.809750e+01  -8.627475e+00
   2.027993e+01  -1.176928e+01
   6.915037e+01   3.040509e+01
  -1.354228e+01  -1.386843e+01
  -4.725605e+00  -2.267680e+01
  -2.282617e+01  -4.692512e+00
   2.364157e+01   1.853036e+01
   1.296747e+01   3.015588e+01
   1.086120e+01  -8.669399e+00
  -2.154967e+01   1.124581e+01
   7.559212e+00  -3.326232e+00
   3.286681e+01  -1.068152e-01
   1.031515e+01  -1.424472e+01
   2.915427e+01   6.975249e-02
  -1.359939e+01   1.514471e+01
   2.325148e+01  -7.910918e+00
  -9.350590e+00  -1.016719e+01
  -2.481695e+00  -3.256200e+00
  -2.055237e+01   6.551287e+00
   8.766535e+00  -2.431882e+01
  -1.895065e+00  -1.224260e+01
   1.024936e+01  -1.545740e+00
  -1.923030e+00   2.265631e+01
   7.079880e+00   4.759097e+01
   1.436916e+00   2.028025e+01
  -1.741861e+01   1.699223e+01
  -5.257161e+00   2.703297e+01
   7.808105e+00   1.053961e+01
   4.710753e+00  -3.986188e+01
  -1.912530e+01   1.091218e+01
  -2.804043e+01   3.063898e+01
   3.136841e+01   1.141230e+01
  -1.105956e+00   2.085628e+01
   9.967532e-01   2.109506e+01
   4.834971e+00  -1.734266e+01
   3.319236e+00   1.245247e+01
   3.807292e+00   9.919922e+00
