
 $NMID
 id='ANONYMOUS ', fmtdat='(2E16.6)'
 volume=1.0
 tramp=1.0
 $END
   4.054447e+03   1.447002e+02
   2.475594e+03   2.268415e+03
  -4.199523e+02   2.664651e+03
  -1.766165e+03   1.174722e+03
  -1.005080e+03  -3.170095e+02
   4.198692e+02  -4.854696e+02
   7.023920e+02   3.535129e+02
   6.434305e+01   9.494731e+02
  -7.357400e+02   6.603708e+02
  -7.925310e+02  -9.999460e+01
  -4.339095e+02  -7.225701e+02
   7.039566e+01  -7.800929e+02
   5.822290e+02  -1.468997e+02
   4.075204e+02   6.708966e+02
  -1.690253e+02   7.425017e+02
  -6.282961e+02  -7.235010e+01
  -2.759063e+02  -5.896831e+02
   2.737136e+02  -5.788773e+02
   6.125901e+02  -1.461188e+02
   4.110466e+02   3.695167e+02
  -9.140584e-01   4.248220e+02
  -2.473361e+02   2.035063e+02
  -1.164070e+02  -5.868133e+01
   1.543287e+02  -2.076331e+01
   3.346365e+02   1.420099e+02
   1.715811e+02   4.018838e+02
  -4.736118e+02   3.128210e+02
  -7.936537e+02  -1.763370e+02
  -4.085174e+02  -4.728915e+02
   4.004282e+02  -4.047834e+02
   7.458848e+02   1.071540e+02
   2.834452e+02   4.358144e+02
  -2.988749e+02   4.960042e+02
  -4.917639e+02   1.509324e+02
  -3.494806e+02  -1.851543e+02
  -6.077809e+01  -4.844992e+02
   1.645382e+02  -2.137681e+02
   1.772954e+02   1.750397e+02
  -1.135305e+02   3.903222e+02
  -4.210367e+02   6.906511e+00
  -2.787332e+02  -5.730260e+02
   2.533412e+02  -6.127287e+02
   5.735761e+02  -5.727304e+01
   3.064929e+02   4.250483e+02
  -2.795122e+02   2.434531e+02
  -3.373071e+02  -3.596779e+02
   8.118578e+01  -5.710519e+02
   4.952103e+02  -1.254583e+02
   5.743436e+02   4.031334e+02
   1.224242e+02   5.532311e+02
  -3.840664e+02   3.718255e+02
  -5.427680e+02  -6.011897e+01
  -3.451859e+02  -4.146260e+02
   3.774958e+01  -3.784754e+02
   3.820204e+02  -4.582120e+01
   2.523473e+02   9.441505e+01
  -6.286046e+01   3.385874e+01
  -1.162857e+02  -1.619047e+02
   1.940115e+02  -1.840555e+02
   3.532884e+02   6.433696e+01
   1.892088e+02   3.483326e+02
  -1.656681e+02   2.677402e+02
  -2.833577e+02   1.083653e+02
  -2.134693e+02  -5.880375e+01
   8.030412e+00  -2.494945e+02
   2.333547e+02  -2.914761e+02
   3.386802e+02  -1.625019e+02
   2.768812e+02   1.280277e+02
   3.435718e+01   3.546732e+02
  -3.880627e+01   3.472523e+02
  -2.692992e+01   8.379657e+01
   1.065948e+00   7.134763e+01
  -7.529977e+01   1.204693e+02
  -1.576634e+02   1.601085e+02
  -2.802838e+02  -7.203252e+01
  -1.373987e+02  -2.663914e+02
   6.319939e+01  -2.520216e+02
   1.866524e+02  -3.238610e+01
   1.452537e+02   2.681090e+02
  -3.598956e+01   2.799834e+02
  -2.826897e+02   6.968504e+01
  -3.882076e+02  -1.431994e+02
  -1.807262e+02  -2.925876e+02
   3.613101e+01  -2.858157e+02
   1.669557e+02  -1.229948e+02
   1.310586e+02  -3.973311e+01
   8.610979e+01  -5.418226e+01
   2.167518e+02  -1.117721e+02
   3.567784e+02   3.455588e+01
   3.350362e+02   2.799752e+02
   1.926971e+01   4.168465e+02
  -3.863599e+02   4.008057e+02
  -4.794300e+02   2.112180e+02
  -3.689547e+02  -4.840428e+01
  -2.801721e+01  -2.583973e+02
   9.814914e+01  -2.311248e+02
   1.388211e+01  -5.666974e+01
  -1.325184e+02   5.603574e+01
  -1.605128e+02  -6.706175e+01
  -3.193635e+01  -1.854314e+02
   2.140956e+02  -1.955693e+02
   1.518016e+02  -6.866892e+00
  -1.150181e+01   1.404296e+02
  -8.758738e+01   2.901582e+01
  -1.308449e+02  -1.867601e+02
   1.372806e+01  -3.175621e+02
   2.618691e+02  -1.801686e+02
   3.381538e+02   8.034999e+01
   2.359561e+02   2.180576e+02
   7.474752e+00   2.341103e+02
  -1.629283e+02   1.423197e+02
  -1.388251e+02  -4.373541e+00
  -1.250761e+01   6.606335e+00
   5.022166e+01   6.060957e+01
  -7.243507e+00   1.185265e+02
  -1.564776e+02   9.524219e+01
  -1.732626e+02   3.950113e+00
  -6.897421e+01  -4.907764e+01
   7.441455e+01  -7.341644e+00
   6.936484e+01   1.152551e+02
  -1.438994e+02   5.089947e+01
  -3.496884e+02  -3.508615e+01
  -2.984631e+02  -1.813238e+02
  -7.146352e+01  -2.701484e+02
   1.885882e+02  -2.352556e+02
   3.179365e+02  -1.185391e+02
   1.599797e+02   3.018143e+01
  -5.796783e+01   7.732616e+01
  -4.651023e+01   5.853803e+00
   3.208864e+01  -7.366467e+01
   2.227490e+02  -6.973041e+01
   2.544479e+02   6.427164e+01
   9.454565e+01   2.032515e+02
  -6.898079e+01   1.440331e+02
  -1.330484e+02   2.978579e+01
  -4.634262e+01  -7.370770e+01
   3.818424e+01  -1.381212e+00
   3.577596e+01   7.685993e+01
  -8.223471e+01   1.642423e+02
  -1.953642e+02   2.838677e+01
  -1.643400e+02  -9.883544e+01
  -7.427046e+00  -2.079777e+02
   1.608843e+02  -1.339182e+02
   2.053403e+02   5.988942e+00
   1.207830e+01   6.864534e+01
  -7.778176e+01   7.598771e+01
  -1.037175e+02   4.417474e+00
   1.354008e+01   1.241181e+00
   2.213671e+01  -3.598836e+01
  -2.551606e+01  -2.332731e+01
  -8.469424e+01  -1.116218e+01
  -9.158958e+01  -6.528758e+01
  -3.603815e+01  -1.244670e+02
   1.245213e+02  -1.227499e+02
   2.229028e+02  -9.011230e+01
   1.717593e+02   1.243911e+02
   5.569456e+01   1.861366e+02
  -7.213738e+01   1.713505e+02
  -7.001382e+01   2.344156e+01
  -2.951442e+01  -1.154641e+01
  -2.307150e+01  -6.722146e+00
  -4.862265e+01   1.590630e+01
  -5.351380e+01  -3.629706e+00
  -5.242360e+01  -2.740028e-01
   4.649908e+01  -2.786503e+01
   1.062147e+02   1.807113e+00
   1.141421e+02   2.696639e+01
  -1.100411e+01   1.345917e+02
  -1.484264e+02   5.796806e+01
  -1.953243e+02  -2.780180e+00
  -4.540925e+01  -2.109227e+02
   4.696858e+01  -2.336894e+02
   2.574248e+02  -4.501895e+01
   2.314893e+02  -3.711774e+00
   7.528287e+01   1.628115e+02
   1.554613e+01   1.030757e+02
  -1.188863e+02   9.831866e+01
  -7.878498e+01   9.861575e+01
  -3.079723e+01   7.629051e+01
  -9.412713e+01   4.923250e+01
  -1.363943e+02  -5.145209e+01
  -8.878054e+01  -1.699458e+02
  -3.374349e+01  -2.331384e+02
   1.119982e+02  -2.028567e+02
   1.530823e+02  -2.923832e+01
   1.354719e+02   9.671886e+01
   1.483732e+01   1.331833e+02
  -7.380261e+01   6.571836e+01
  -4.854518e+01   1.080294e+01
   5.263247e+01  -8.008341e+00
   3.705040e+01  -6.370420e+01
  -4.460213e+00  -1.324771e+00
  -8.827245e+01  -2.669185e+01
  -4.329562e+01  -2.973177e+01
   4.733782e+01  -6.219037e+01
   1.188996e+02   2.370747e+01
   1.244113e+02   4.104167e+01
  -2.203829e+01   7.215744e+01
  -8.314139e+01   9.181419e+01
  -1.276865e+02   2.206416e+01
  -5.848801e+00  -4.897002e+01
   6.282397e+01  -8.354971e+00
   4.591692e+01   2.244303e+00
  -3.040329e+01   4.089274e+01
  -6.003338e+01   2.057742e+01
  -6.410481e+01   2.163945e+01
  -6.858172e+01  -7.212003e+01
  -6.502747e+01   6.842364e+00
  -5.498853e+01   1.573225e+01
  -7.336177e+01  -2.203746e+01
  -2.432115e+01  -6.693699e+01
   4.966473e+00  -1.807577e+02
   1.040775e+02  -1.300007e+02
   1.490221e+02  -4.246733e+00
   1.124886e+02   6.698072e+01
   1.731167e+01   8.068578e+01
  -1.116369e+02   6.130230e+01
  -5.284049e+01   5.836573e+00
  -1.675503e+01  -1.904627e+01
   8.887714e+01   5.805185e+01
   7.210080e+01   1.158042e+02
  -6.794136e+01   9.180392e+01
  -1.841571e+02   4.651621e+01
  -1.233829e+02  -3.374358e+01
  -2.406788e+01  -6.480297e+01
   8.677027e+01  -5.797176e+01
   1.793348e+01   2.436730e+01
  -4.810451e+01   1.887309e+01
  -8.109253e+01  -9.741141e+00
  -8.078424e+01  -1.022139e+02
   5.550740e+01  -1.325829e+02
   1.926251e+02  -6.980569e+01
   1.251793e+02   4.299848e+01
   4.145249e+01   1.791660e+02
  -1.251925e+02   1.296364e+02
  -1.444492e+02  -2.465222e+01
  -2.226205e+01  -1.386701e+02
   2.394811e+01  -1.148526e+02
   4.254041e+01  -4.410534e+01
   3.592589e+01   5.216053e+01
  -1.076583e+01  -1.622694e+01
  -5.585471e+01  -1.161267e+01
   5.577721e+01   2.604122e+01
   1.491132e+01   1.003612e+02
   2.228732e+01   1.304185e+02
  -6.829288e+01   3.535619e+01
  -1.340787e+02  -5.932223e+01
  -1.611226e+02  -6.566230e+01
   3.539958e+01  -1.705121e+01
   1.034749e+02  -2.484824e+01
   1.216936e+02   2.384597e+01
   2.832078e+00   1.253166e+01
  -7.123244e+01   4.654101e+01
  -4.607845e+01  -6.023828e+01
   3.564256e+01  -3.492970e+01
   1.405448e+01   4.147560e+01
  -9.635994e+01   5.614292e+01
  -1.139764e+02  -3.334995e+01
  -6.693141e+01  -7.862717e+01
   1.129125e+02  -1.183364e+02
   2.000745e+02  -7.465623e+01
   1.655248e+02   2.728728e+01
   7.655130e+00   1.044614e+02
  -7.835398e+01   1.198912e+02
  -1.115380e+02   4.885915e+00
  -5.991974e+01   1.919177e+01
  -4.163769e+01  -7.021647e+01
  -2.855474e+01   1.021822e+01
   9.258855e+00  -1.490713e+01
  -3.558117e+01  -7.124628e+01
   2.399511e+01  -9.611681e+01
   3.126412e+01  -1.119059e+02
   5.920609e+01   2.398371e+01
   9.239878e+01   8.523664e+01
  -2.363500e+01   1.465747e+02
  -3.655786e+01   2.035324e+01
  -1.204542e+02  -4.772427e+01
  -5.684078e+00  -1.182309e+02
   7.718676e+01  -7.520653e+01
   9.626112e+01   7.601956e+00
   9.411981e-01   1.059674e+02
  -4.232757e+01   7.805897e+01
  -2.209923e+01   2.713012e+01
   4.815856e+01   2.374806e+01
   8.317912e+01   3.204508e+01
   3.813845e+01  -3.001866e+00
  -5.533951e+01   8.012538e+01
  -1.238766e+02   2.537452e+01
  -8.779726e+01   1.853052e+01
  -1.221227e+01  -5.991851e+01
   3.477211e+01  -7.796542e+01
   6.235139e+01   7.497293e+00
   5.318034e+01   5.930049e+01
   2.467215e+00   3.072760e+01
  -2.133611e+01   3.816604e+00
  -1.261308e+01  -3.984204e+01
   7.005488e+00  -5.692674e+01
   4.213698e+01   2.324251e+01
   7.211563e+01   5.535946e+01
  -1.541536e+01  -2.175909e+01
   3.597748e+00  -4.822170e+01
  -5.567560e+01  -5.504615e+01
   1.444522e+01   8.802418e+01
   2.178217e+01   3.064908e+01
  -7.178199e+01   3.640868e+01
  -3.820033e+01  -5.806494e+01
   2.571740e+00  -7.900315e+01
   6.251797e+01  -1.877438e+01
   8.744066e+01   3.012622e+01
   1.725669e+01   5.679876e+01
  -7.792341e+01   3.526203e-01
  -5.900955e+01  -2.139088e+01
  -3.309832e+01  -6.038306e+01
   3.134433e+01   1.108743e+01
   8.920240e+01  -1.465103e+01
   6.901276e+01  -2.894492e+01
   6.441650e+00  -2.192578e+00
  -3.318581e+01   1.401444e+00
  -2.482826e+01  -3.084382e+01
   3.537158e+01  -5.431340e+01
