
 $NMID
 id='ANONYMOUS ', fmtdat='(2E16.6)'
 volume=1.0
 tramp=1.0
 $END
  -2.656681e+03   1.988861e+02
  -1.793993e+03  -1.244145e+03
  -5.260345e+01  -1.604860e+03
   9.260762e+02  -9.893012e+02
   7.885880e+02  -2.224308e+02
   1.102403e+02   9.351770e+01
  -3.523963e+02  -6.676237e+01
   1.928758e+01  -4.205573e+02
   3.663400e+02  -4.442246e+02
   5.173403e+02  -6.631174e+01
   3.744213e+02   3.813853e+02
   3.699525e+01   5.085959e+02
  -1.947609e+02   1.980130e+02
  -1.782592e+02  -3.078097e+02
   2.009555e+02  -4.171363e+02
   3.149297e+02  -4.109125e+01
   2.320970e+02   4.510335e+02
  -1.326751e+02   5.430435e+02
  -4.304909e+02   2.608376e+02
  -4.422905e+02  -8.190222e+01
  -1.420120e+02  -3.244158e+02
   1.210295e+02  -2.624442e+02
   3.653984e+00  -3.467613e+01
  -1.221436e+02  -5.962953e+01
  -2.442680e+02  -2.091398e+02
  -1.595168e+01  -2.681098e+02
   2.827791e+02  -1.577254e+02
   5.156583e+02   1.201311e+02
   1.026228e+02   2.438683e+02
  -2.937746e+02   2.135687e+02
  -4.171467e+02  -8.255210e+01
  -1.212036e+02  -3.019134e+02
   2.361910e+02  -3.215148e+02
   3.889834e+02  -1.318794e+02
   2.544082e+02   1.609480e+02
   8.851227e+01   3.291708e+02
   3.268381e+00   4.850357e+01
   3.064430e+01  -1.099551e+02
   1.049460e+02  -7.499536e+01
   1.872851e+02   1.874640e+02
   5.746477e+01   3.932039e+02
  -1.587847e+02   3.340871e+02
  -2.435629e+02  -5.591013e+00
  -1.280663e+02  -1.905503e+02
   1.454325e+02  -2.569657e+01
   1.278739e+02   2.200947e+02
  -9.483829e+01   2.926599e+02
  -3.387620e+02   9.993323e+01
  -4.163552e+02  -2.762621e+02
  -1.720825e+02  -3.875909e+02
   2.710946e+02  -2.649323e+02
   4.943976e+02   2.676506e+01
   2.990150e+02   2.026931e+02
  -1.993197e+01   2.249315e+02
  -2.360658e+02   9.259962e+01
  -1.751143e+02   1.502244e+01
  -2.061020e+01  -2.247826e+01
   3.219559e+01   6.821299e+00
  -1.322826e+02   6.476292e+01
  -1.406139e+02  -9.238223e+01
  -6.139611e+01  -2.269165e+02
   1.140270e+02  -1.749277e+02
   3.085308e+02  -1.261584e+02
   2.852151e+02   7.060815e+01
  -3.040139e+01   2.789607e+02
  -2.891285e+02   2.945427e+02
  -3.398503e+02   1.729551e+02
  -2.088089e+02  -9.654847e+01
  -6.516626e+00  -3.502467e+02
   3.018916e+01  -2.954316e+02
  -1.703533e+01  -1.359951e+02
  -2.547533e+00  -1.252107e+02
   1.366480e+02  -9.776807e+01
   2.268997e+02   1.537864e+00
   2.318251e+02   9.436726e+01
   9.670365e+01   2.302356e+02
  -1.098782e+02   1.911808e+02
  -1.498677e+02  -5.108547e+01
  -9.640595e+01  -1.958701e+02
   8.678256e+01  -2.359963e+02
   1.847033e+02  -1.103747e+02
   2.651570e+02   1.163378e+02
   1.231280e+02   2.029795e+02
  -1.211581e+01   2.159883e+02
  -5.901496e+01   1.664553e+02
  -7.142869e+01   6.534683e+01
  -8.334015e+01   4.715852e+01
  -2.816618e+02   2.449110e+01
  -3.630857e+02  -9.157644e+01
  -2.997324e+02  -2.690999e+02
   1.416575e+01  -3.166955e+02
   3.431882e+02  -3.333775e+02
   4.115476e+02  -8.445023e+01
   2.381508e+02   9.948322e+01
  -1.424670e+01   1.716302e+02
  -1.079680e+02   1.377486e+02
   1.007671e+01   1.255724e+01
   8.141506e+01  -6.627572e+01
   1.318093e+02   5.192545e+01
   2.502869e+01   1.395206e+02
  -9.092157e+01   1.543862e+02
  -6.222571e+01  -1.669540e+01
   2.400455e+01  -1.061184e+02
   1.471820e+02   7.971977e+00
   1.898103e+02   2.598364e+02
  -2.091084e+01   3.645697e+02
  -2.327690e+02   2.096561e+02
  -3.378230e+02  -1.965800e+01
  -2.643189e+02  -2.382526e+02
  -5.437011e+01  -2.379803e+02
   7.857959e+01  -3.413695e+01
   9.156364e+01   2.527357e+01
   2.426306e+01   1.126483e+00
  -6.882950e+01  -7.181394e+01
   1.346053e+01  -1.267362e+02
   1.613489e+02  -1.165745e+02
   1.408063e+02   4.843323e+01
   5.192003e+01   7.213689e+01
  -8.163288e+01  -7.075922e+00
  -6.279623e+01  -4.187508e+01
   1.218957e+02  -6.610920e+01
   2.970401e+02  -3.422315e+01
   1.886532e+02   1.798457e+02
   5.504477e+00   2.491990e+02
  -1.706919e+02   2.308408e+02
  -2.263569e+02   8.712034e+01
  -8.190776e+01  -3.769312e+01
   2.545755e+01  -3.159815e+01
   5.309998e+01   9.451980e+01
  -2.693854e+01   1.217289e+02
  -1.514193e+02   7.626523e+01
  -1.905455e+02  -6.600591e+01
  -9.602781e+01  -1.773055e+02
   9.209369e+00  -1.362789e+02
   6.753259e+01   1.074161e+01
   7.481500e+00  -5.098780e+00
  -3.664150e+01  -6.089212e+01
  -3.404494e+01  -1.471781e+02
   8.540866e+01  -1.895278e+02
   2.625139e+02   2.774546e+01
   2.046322e+02   1.689823e+02
   3.363560e+01   1.949729e+02
  -1.551903e+02   1.401811e+02
  -1.767999e+02   1.919711e+01
  -5.429448e+01  -1.300354e+02
   7.902442e+01  -1.054635e+02
   9.467235e+01  -4.550310e+00
   3.718323e+01   4.736221e+01
  -7.030130e+01   6.686577e+01
   2.428997e+01  -4.569921e+01
   1.879475e+01   1.912999e+00
   4.932718e+01   9.185099e+01
   4.157458e+00   1.600604e+02
  -1.273817e+02   1.372149e+02
  -2.054079e+02   4.902003e+01
  -1.382322e+02  -8.380884e+01
  -7.551814e+00  -2.351168e+02
   1.205422e+02  -1.256747e+02
   1.088181e+02  -3.466825e+01
   7.717644e+01   5.521167e+01
   2.623970e+01   4.024922e+01
   7.052394e+01  -2.716698e+01
   8.424182e+01  -3.294548e+01
   5.612041e+01   8.842038e+01
  -4.492786e+01   5.055059e+01
  -7.706712e+01   5.024741e+01
  -1.144363e+02  -5.653309e+01
   2.715171e+01  -5.214017e+01
   1.480566e+02  -6.664903e+01
   1.826122e+02   1.189564e+02
   4.987005e+01   1.711313e+02
  -1.310402e+02   2.040305e+02
  -2.634011e+02   8.648803e+01
  -2.045769e+02  -6.865331e+01
  -1.292818e+02  -1.580827e+02
  -1.583757e+01  -1.105556e+02
   9.749098e+01  -9.305991e+01
   5.687963e+01  -7.504520e+01
   3.934800e+01  -1.193312e+02
   1.281702e+02  -9.149674e+01
   1.304326e+02   3.737413e+01
   9.207335e+01   1.253755e+02
   1.579556e+01   2.355834e+02
  -9.174507e+01   1.377373e+02
  -7.054764e+01  -2.126030e+01
  -2.924735e+01  -1.093613e+02
  -1.850985e+01  -1.377709e+02
   6.648150e+01  -6.066136e+01
   4.554266e+01   5.175967e+01
  -1.089057e+01   7.967649e+01
  -3.048092e+01   4.410358e+01
   1.258648e+01   6.534412e+00
   7.830735e+01  -3.862466e+01
   6.667293e+00   4.367784e+01
  -6.270520e+01   5.883718e+01
  -2.186588e+02  -1.563174e+01
  -1.544339e+02  -1.076646e+02
  -5.689887e+00  -1.248273e+02
   1.330824e+02  -8.488438e+01
   1.473758e+02   1.822418e+01
   3.566700e+00   6.248665e+01
  -9.304360e+01   6.222783e+01
  -7.080088e+01  -1.797403e+01
  -1.534969e+01  -1.201433e+02
   4.497897e+01  -9.448417e+01
   3.773892e+01   1.248662e+01
   3.970009e+01   5.559727e+01
   4.101571e+01  -6.926595e+00
   3.135312e+01  -4.315030e+01
   7.005325e+01   1.071829e+01
   8.992069e+01   1.651886e+01
  -5.003689e+01   1.346771e+02
  -1.359493e+02   1.233002e+02
  -1.269624e+02   1.920675e-01
  -1.543233e+02  -5.334411e+01
   4.358044e+01  -1.278631e+02
   9.842392e+01  -5.833067e+01
   6.019801e+01   5.623721e+01
  -4.666456e+01   3.880852e+00
  -9.297292e+01  -1.072286e+02
  -5.935143e+01  -1.243282e+02
   9.718857e+01  -1.841079e+01
   2.077392e+02  -3.109758e+01
   1.504947e+02   4.292676e+01
  -2.038342e+00   9.399445e+01
  -1.989115e+01   8.311732e+01
  -4.846922e+01   2.473599e+01
   4.900301e+01  -2.364807e+01
   9.862593e+01   3.823045e+01
   3.877063e+01   9.787896e+01
  -4.579770e+01   1.624835e+02
  -7.713597e+01   3.675631e+01
  -9.100947e+01  -7.637872e+01
  -1.432684e+01  -1.443736e+02
   7.798499e+01  -9.988972e+01
   2.802155e+01   4.443816e+01
   3.550322e+01   8.205763e+01
  -5.044176e+01   8.721448e+01
  -6.690862e+01  -1.194122e+01
  -4.078986e+01  -4.474410e+01
  -6.400203e+00  -7.800021e+00
   1.553871e+01   2.889888e+01
  -2.554856e+01  -2.035924e+01
  -5.632421e+01  -6.432242e+01
  -6.119230e+01  -6.736752e+01
   4.850780e+01  -3.881577e+01
   1.462819e+02   2.008479e+00
   1.362772e+02   5.120657e+01
   5.130797e+01   3.217427e+01
  -1.194296e+02   4.352296e+01
  -1.065980e+02   1.238795e+00
   2.911876e+01  -3.163101e+01
   1.225973e+01   3.199190e+00
   4.052853e+00  -3.159892e+01
  -1.380878e+01   3.288278e+00
   2.820320e+01  -5.409661e+01
   6.211627e+01   1.143765e+01
   7.010912e+01  -3.608206e+01
   2.809868e+01   8.877325e+01
  -1.112484e+02   1.106642e+02
  -1.467191e+02   6.678963e+01
  -1.374612e+02   1.912471e+00
  -1.710077e+01  -1.140558e+02
   8.139238e+01  -1.183076e+02
   1.449661e+02  -8.132556e+01
   4.568520e+01  -3.689277e+01
   9.032054e+01   2.869379e+01
  -1.087276e+00  -2.979687e+00
  -6.656444e+00   4.276801e+01
   1.167006e+01   2.763362e+01
   5.272717e+01   1.086365e+02
   1.435522e+00   1.010850e+02
  -9.844355e+01   1.880344e+01
  -8.053515e+01  -7.471577e+01
  -2.657657e+01  -8.309609e+01
   8.853370e+01  -6.042240e+01
   1.088775e+02   7.630865e+01
   9.918339e+00   5.950677e+01
  -6.560363e+01   1.057508e+02
  -5.444679e+01   1.759320e+01
   7.642302e+00  -4.476016e+01
   4.061401e+01  -5.404207e+01
  -2.500201e+01  -8.973826e+01
   5.406781e+00  -3.519457e+01
  -2.318912e+01  -2.664345e+01
  -9.258052e+00  -2.988593e+01
   6.000491e+01   4.974765e-01
   1.242155e+02   1.400761e+01
   5.832008e+01   6.135457e+01
  -7.405719e+00   5.358945e+01
  -2.055437e+01   4.250037e+01
  -6.808465e+01   4.849568e+00
   2.108965e+01  -1.644233e+01
   1.082187e+00  -9.986936e+00
   1.598363e+01   5.739846e+01
   3.161927e+01   3.207285e+01
  -8.959255e+00   1.211750e+01
  -3.998024e+01  -9.738826e+00
  -5.098949e+01  -6.447274e+01
   2.982375e+00  -2.411638e+01
   6.636110e+00   2.268448e+01
   3.533011e+00   5.170278e+00
  -9.209784e+00  -1.536090e+01
   2.266368e+01  -4.955117e+01
   5.019440e+01   4.751219e+00
   5.061608e+01  -5.187085e+00
   7.598893e+01   1.120455e+01
  -1.870354e+01   1.740211e+01
  -1.004332e+01  -2.192957e+00
   1.572270e+01  -6.228075e+01
   3.940936e+01  -4.861297e+01
   6.274452e+01   5.990790e+00
   3.915803e+01   1.053370e+02
  -2.474939e+01   7.132448e+01
  -3.543114e+01   8.911863e+00
  -1.220168e+01  -1.234051e+01
   1.251685e+01   9.507932e+00
   2.963160e+01  -8.917142e+00
   1.616249e+01   3.107885e+01
  -5.477442e+01   3.529992e+01
