
 $NMID
 id='ANONYMOUS ', fmtdat='(2E16.6)'
 volume=1.0
 tramp=1.0
 $END
   1.864505e+03   2.694448e+02
   1.038316e+03   7.560294e+02
   2.648981e+02   1.066539e+03
  -4.433679e+02   9.829982e+02
  -5.007336e+02   2.963620e+02
  -1.866605e+02   9.638521e+00
   1.225440e+02  -7.208774e+01
   2.029359e+01   2.794036e+02
  -1.121376e+02   3.409325e+02
  -3.516679e+02   1.480832e+02
  -3.139709e+02  -2.284701e+02
  -1.110969e+02  -2.674108e+02
   1.092831e+02  -1.113947e+02
   5.507178e+01   1.585721e+02
  -7.560724e+01   2.589454e+02
  -1.268894e+02   2.473100e+00
  -1.833105e+02  -2.904900e+02
   6.810919e+01  -3.705969e+02
   2.330277e+02  -1.311542e+02
   2.332217e+02   7.992181e+01
   9.918724e+01   1.552363e+02
   3.421703e+01   2.236177e+02
   8.490514e+00   1.215072e+02
   4.276144e+01   5.430197e+01
   1.915771e+02   1.428087e+02
   1.817530e+01   2.013107e+02
  -2.359346e+02   4.399609e+01
  -2.972457e+02  -7.290595e+01
  -9.768198e+01  -1.505276e+02
   1.834794e+02  -9.144492e+01
   2.752232e+02   8.711623e+01
   9.199627e+01   2.106765e+02
  -1.274246e+02   1.675888e+02
  -2.498488e+02   1.109958e+02
  -1.587075e+02  -5.404468e+01
   1.522931e+01  -1.034608e+02
   1.680041e+00  -9.410789e+01
  -8.957292e+01   1.650878e+01
  -1.141760e+02   3.573288e+01
  -4.958616e+01  -6.642948e+01
   1.412554e+01  -2.246771e+02
   8.127681e+01  -2.134298e+02
   1.613520e+02   4.722614e+01
   3.037976e+01   1.353073e+02
  -3.204499e+01   5.373112e+01
  -7.997909e+01  -1.581074e+02
   6.978680e+01  -2.107671e+02
   2.321187e+02   9.085169e+00
   2.025254e+02   2.067394e+02
   5.347483e+01   2.160638e+02
  -1.773686e+02   1.201545e+02
  -2.353715e+02  -2.565007e+01
  -1.792324e+02  -9.476943e+01
   2.386736e+01  -9.365963e+01
   1.397493e+02  -3.685473e+01
   1.047267e+02  -3.331329e+01
   2.906556e+01  -3.791314e+01
  -3.761082e+01  -7.141238e+00
   7.837570e+01  -1.974258e+01
   8.622137e+01   2.068254e+01
   1.393649e+01   7.492329e+01
  -6.506097e+01   6.367688e+01
  -1.837174e+02   9.007254e+01
  -1.480791e+02   1.449178e+01
   3.459265e+01  -2.238415e+02
   1.833401e+02  -2.359834e+02
   2.038445e+02  -8.435188e+01
   8.837323e+01   1.031380e+02
   3.253888e+01   2.049410e+02
   5.427021e+01   1.912590e+02
   1.467348e+00   1.888171e+02
   1.663474e+01   1.479094e+02
  -9.776441e+01   1.090898e+02
  -1.400329e+02   6.549329e+00
  -1.344778e+02  -6.111229e+01
  -4.908309e+01  -1.314103e+02
   5.152313e+01  -7.320577e+01
   9.854443e+01   8.790767e+01
   8.895114e+01   1.376430e+02
  -3.002570e+01   1.016996e+02
  -1.081172e+02  -1.579045e+01
  -1.353564e+02  -8.049559e+01
  -8.164302e+01  -1.525897e+02
  -1.256482e+01  -1.400948e+02
   1.062194e+02  -8.930050e+01
   9.592395e+01  -5.682718e+01
   1.023836e+02  -7.666087e+01
   1.816289e+02   7.196779e+00
   2.769107e+02   8.208011e+01
   1.931428e+02   2.003361e+02
  -1.710832e+01   2.787433e+02
  -2.547196e+02   2.340286e+02
  -2.739141e+02   9.116905e+01
  -1.426363e+02  -4.673686e+01
   6.692160e+00  -1.489539e+02
   5.680398e+01  -8.563083e+01
  -3.363399e+01   1.439542e+00
  -7.250840e+01   1.061832e+01
  -6.199019e+01  -4.304503e+01
   3.816033e+01  -7.262167e+01
   4.331082e+01  -4.698950e+01
   9.479700e+00   9.686907e-01
  -2.908515e+01   4.459503e+01
  -8.683954e+01  -2.001571e+01
  -8.449083e+01  -1.563442e+02
   3.477583e+01  -2.487845e+02
   1.405435e+02  -1.798613e+02
   2.614460e+02   4.142025e+01
   1.838389e+02   1.199391e+02
  -1.789304e+01   1.508011e+02
  -6.229791e+01   2.883849e+01
  -7.281678e+01  -2.962413e+01
   2.462969e+01   1.709399e+01
   4.032387e+01   5.973929e+01
  -1.472629e+01   5.861280e+01
  -6.965601e+01   2.507136e+01
  -5.482332e+01   2.480140e+01
  -2.974829e+01  -6.513047e+00
   3.874615e+01   7.122040e+01
   5.549682e+00   6.999208e+01
  -8.208387e+01   1.220814e+01
  -2.037453e+02  -7.479014e+00
  -1.192974e+02  -9.877674e+01
   2.093187e+00  -1.697171e+02
   1.403098e+02  -1.189761e+02
   1.178869e+02  -2.260572e+01
   5.668756e+01   1.400925e+01
   1.159586e+01  -9.237787e+00
  -1.429840e+01  -4.774087e+01
   3.429681e+01  -6.085652e+01
   1.038055e+02  -3.112732e+01
   8.888339e+01   1.195625e+02
   5.357769e+00   1.016695e+02
  -3.624667e+01   9.220878e+01
  -3.687525e+01   1.165110e+01
  -2.240477e+01   1.819243e+01
   2.530293e+01   1.839564e+01
   6.714142e-01   1.108445e+02
  -1.274635e+02   6.391882e+01
  -1.169228e+02  -1.615490e+01
  -9.459330e+01  -4.659715e+01
  -2.225229e+01  -1.099698e+02
   5.811640e+01  -8.679464e+01
   9.082559e+01  -5.126680e+01
   7.396986e+01  -3.394872e+01
  -6.688566e+01   4.120213e+01
   2.190040e-01  -2.012208e+01
   1.284609e+01  -3.047380e+01
   3.200867e+01   1.397106e+01
   1.273582e+01   3.931688e+01
  -4.053976e+01  -3.302506e+01
  -5.720470e+01  -4.363116e+01
   4.243470e+01  -5.642964e+01
   1.170720e+02  -4.915700e+01
   1.365727e+02  -3.269564e+00
   8.228642e+01   9.758927e+01
  -2.884092e+01   1.123960e+02
  -2.566164e+01   7.572500e+01
  -2.240744e+01   7.872846e+01
  -2.766783e+01  -1.421412e+01
  -5.032683e+01  -4.138224e+01
  -9.355781e+01   1.717355e+01
  -4.121222e+01   5.314708e+00
  -4.395820e+01  -5.244665e+01
   2.973672e+01  -7.855879e+01
   3.776522e+01  -3.932435e+01
   9.744429e+01   7.846337e+01
  -6.350987e+01   7.269466e+01
  -1.069978e+02   5.780722e+01
  -1.105829e+02  -5.769759e+01
  -1.075633e+01  -2.022887e+02
   1.312022e+02  -1.333224e+02
   1.591632e+02  -4.225093e+01
   1.200638e+02   8.455851e+01
   1.495639e+01   9.249016e+01
  -4.591981e+01   8.620796e+01
  -2.617689e+01   6.735810e+00
  -3.764935e+01   2.916789e+01
   3.317579e+01   3.868110e+01
  -5.381069e+01  -7.293207e+00
  -6.257869e+01   5.180393e+01
  -7.448175e+01  -5.154426e+01
   1.660332e+01  -9.469909e+01
   3.146048e+01  -6.535441e+01
   1.115301e+02  -3.269861e+01
   7.965505e+01   8.020178e+01
   1.344318e+01   9.810496e+01
   4.883760e+00   9.079270e+01
  -7.588474e+00   5.109607e+01
   2.449682e+00   8.033529e+00
  -3.179589e+01  -1.517066e+01
  -5.922964e+01  -6.040036e+00
  -7.410774e+01  -3.544828e+01
  -5.119853e+00  -5.483228e+01
   4.215706e+01  -3.578378e+01
   8.229275e+01   1.608318e+01
   9.446410e+01   9.263579e+01
  -2.759007e+01   5.726822e+01
  -9.057447e+01   7.124405e+01
  -5.188310e+01   6.164228e+00
   3.524039e+01  -1.795323e+01
   2.304157e+01  -4.996791e+01
   5.442111e+01   3.412955e+01
   1.192081e+00   8.557003e+01
  -3.890711e+01   7.047425e+01
  -5.933228e+01  -6.046371e+01
  -3.422725e+01  -2.493102e+01
  -6.679035e+01  -2.060176e+01
  -1.738849e+01  -2.184358e+01
  -2.046532e+00  -1.770344e+01
  -2.913135e+01  -4.106537e+01
   8.015809e+00  -9.438946e+01
   7.541129e+01  -2.300944e+01
   1.115752e+02  -1.105356e+01
   1.011977e+02   9.717008e+01
  -4.395063e+01   8.357222e+01
  -5.821246e+01   5.130105e+01
  -1.932874e+01  -1.721264e+01
   4.591322e+01  -3.667094e+01
   7.921300e+01   5.089379e+01
   3.841301e+01   8.770368e+01
  -4.167778e+01   6.136394e+01
  -7.868530e+01   4.789645e+01
  -1.073999e+02  -4.138435e+01
   1.773961e+01  -4.861039e+01
   5.230158e+01  -6.120506e+01
   2.978928e+01   2.814623e+01
  -8.136805e+01   6.500586e+01
  -7.371867e+01   5.577691e+01
  -9.781906e+00  -4.336776e+01
   2.125325e+01  -9.343630e+01
   1.133503e+02  -1.477953e+01
   2.937194e+01   5.556292e+01
  -8.955712e-02   1.186176e+02
  -2.971021e+01   9.781727e+01
  -3.130101e+01  -3.530189e+01
  -1.244731e+01  -7.522221e+01
   1.167200e+01  -1.319900e+02
   6.068254e+01  -2.774458e+01
   4.431295e+01   8.701626e+01
   4.573738e+01  -1.358548e+01
   8.891967e+00  -2.337414e+01
  -1.854839e+01   4.028204e+01
   6.624095e+01   6.676958e+01
   9.145917e+00   3.848375e+01
  -2.384052e+01   1.677453e+00
  -1.050642e+02  -1.561780e+01
  -6.376653e+01  -6.572185e+01
  -2.842142e+01  -5.026003e+01
   3.627223e+01   1.629055e+00
   4.693055e+01  -5.600767e+01
   1.596293e+00  -4.907419e+01
  -7.404830e+00  -4.176172e+01
   2.900813e+01   5.037583e+01
  -2.865163e+01   1.072784e+01
  -2.721918e+01  -3.395087e+01
  -6.411977e+01   3.354530e+00
  -5.179159e+01  -2.653705e+01
  -1.176943e+01  -2.326455e+01
   7.521147e+01  -1.054048e+02
   1.351030e+02  -4.149747e+01
   8.139634e+01   3.028724e+01
   1.872251e+00   1.138974e+02
  -6.317273e+01   1.030355e+02
  -3.950053e+01   5.295908e+00
  -5.838671e+01  -1.843785e+01
  -5.561304e+00  -3.251693e+01
  -5.978992e+00   4.944573e-01
   3.135752e+01  -1.971721e+01
  -2.879901e+01  -5.227121e+01
  -1.068940e+01  -7.193148e+01
   1.529775e+01  -6.334186e+01
  -6.251254e-01   3.494871e+01
   1.715921e+01   6.218215e+01
  -4.426667e+00   7.584535e+01
  -3.253785e+01   3.888337e+01
  -5.582287e+01  -6.487378e+01
  -5.966535e+01  -8.277630e+01
  -5.349683e+00  -1.526123e+01
   1.060969e+02   2.222594e+01
   3.672845e+01   4.932961e+01
  -3.525686e+01   2.536788e+01
  -3.727372e+01   4.039683e+01
   6.454056e+01  -2.266791e+01
   2.292372e+01   3.109447e+01
   7.068640e+00   5.563291e+00
  -8.287069e+01   5.633024e+01
  -7.404124e+01   2.882300e+01
  -5.557634e+01  -2.509606e+00
   8.687470e+00  -6.954927e+01
   4.897870e+01  -6.861704e+01
   1.987725e+01  -2.479071e+01
  -1.890376e+01   1.731829e+01
  -2.626014e+01   5.962585e+00
  -1.189275e+01   1.889789e+01
   1.164603e+01  -2.801672e+01
  -4.430846e+01  -1.865677e+01
   2.007888e+01  -2.438478e+01
   4.059776e+01   6.737363e+01
   3.244322e+01   5.435671e+01
  -1.232441e+01  -1.060285e+01
  -7.736978e+00   5.293155e+01
  -3.228953e+01   3.408842e+01
  -1.983370e+00   2.773264e+01
  -4.485492e+00   4.373740e+01
  -3.603844e+01  -4.874407e+01
   3.307063e+01  -3.698406e+01
   3.568527e+01   3.627338e+01
   7.747040e+01   4.198042e+01
   3.577206e+00   7.033301e+01
  -3.516646e+01   7.706779e+01
  -8.741163e+01   3.534249e+01
  -3.032661e+01  -7.377009e+01
   5.589154e+01   1.288644e+01
   4.976112e+01   1.243756e+00
   2.293042e+01   2.523587e+01
  -5.389699e+01   1.147520e+01
  -5.521679e+01  -1.550138e+01
   3.271012e+01   2.154714e+01
  -1.130208e+01  -2.014431e+01
