
 $NMID
 id='ANONYMOUS ', fmtdat='(2E16.6)'
 volume=1.0
 tramp=1.0
 $END
  -1.310051e+03  -7.372889e+01
  -9.478508e+02  -6.343795e+02
  -2.100749e+02  -8.515947e+02
   4.854879e+02  -6.926810e+02
   5.161124e+02  -2.540633e+02
   1.269403e+02   2.313012e+01
  -8.078334e+01   7.907370e+01
  -1.252127e+01  -2.081270e+02
   1.479706e+02  -2.583558e+02
   2.461079e+02  -9.778896e+01
   1.976859e+02   2.161926e+02
   2.528897e+01   3.220777e+02
  -6.508238e+01   1.210857e+02
  -8.836007e+01  -1.465206e+02
  -8.986027e+00  -2.266142e+02
   1.856665e+02   1.589559e+00
   1.568388e+02   2.158185e+02
  -2.268522e+01   2.880418e+02
  -2.268917e+02   1.663846e+02
  -1.921206e+02  -6.375991e+01
  -1.313238e+02  -1.833469e+02
   3.465910e+01  -1.574031e+02
   4.546192e+01  -2.607407e+01
  -1.305282e+02  -1.506370e+01
  -1.304365e+02  -1.932613e+02
   8.497232e+01  -1.460459e+02
   2.493745e+02  -7.490921e+01
   2.331255e+02   8.680954e+01
   9.732703e+00   9.914516e+01
  -2.169969e+02   3.283423e+01
  -1.979663e+02  -1.029087e+02
  -4.044693e+01  -1.544081e+02
   1.680725e+02  -1.200257e+02
   2.327258e+02   8.408911e+00
   1.339854e+02   6.710790e+01
   8.943081e+00   9.783223e+01
   1.293898e+01   5.558818e+01
   1.226648e+02  -2.692153e+01
   1.634434e+02  -5.206514e+00
   6.357347e+01   1.374874e+02
  -6.410739e+01   1.860941e+02
  -1.325752e+02   1.265766e+02
  -1.189352e+02  -5.078855e+01
  -5.112887e+00  -1.571121e+02
   4.669276e+01  -2.286183e+01
   4.485505e+01   1.623872e+02
  -6.537307e+01   1.693351e+02
  -2.201274e+02  -2.342085e+01
  -2.470973e+02  -2.034182e+02
  -7.804329e+01  -2.172518e+02
   1.376138e+02  -7.963491e+01
   2.313380e+02   3.355292e+01
   9.817957e+01   1.319570e+02
  -1.979861e+01   6.380891e+01
  -1.441560e+02   1.247736e+01
  -6.050160e+01  -3.825934e+01
   1.770009e+01  -4.171436e+01
  -7.305567e+00   1.426022e+01
  -4.668173e+01   5.526798e+01
  -8.614115e+01  -2.201054e+01
  -5.096195e+01  -1.171426e+02
   9.811867e+01  -1.385672e+02
   1.709625e+02  -6.818791e+01
   9.952522e+01   4.130852e+01
  -3.756448e+01   2.041358e+02
  -1.713504e+02   2.064814e+02
  -1.817155e+02   9.566082e+01
  -9.290722e+01  -4.284828e+01
  -4.404273e+01  -1.385054e+02
   8.475785e+00  -1.465025e+02
  -4.519102e+01  -9.091749e+01
  -1.121619e+01  -1.146942e+02
   9.767615e+01  -6.351199e+01
   1.401202e+02  -1.333873e+01
   1.099479e+02   7.558614e+01
   2.859503e+01   1.271888e+02
  -6.900171e+01   6.951456e+01
  -6.131211e+01  -3.406887e+00
  -8.145469e+01  -8.480366e+01
  -2.869400e+00  -1.050838e+02
   1.113938e+02   8.409842e+00
   1.401734e+02   8.092475e+01
   8.962996e+01   1.323472e+02
   4.061301e+01   1.187583e+02
  -6.566164e+01   4.959080e+01
  -6.695177e+01   3.170822e+01
  -9.847913e+01   4.091323e+01
  -1.631880e+02   6.802815e+00
  -2.232550e+02  -1.131313e+02
  -1.750295e+02  -1.754434e+02
  -4.615491e+00  -2.333265e+02
   2.246775e+02  -2.115573e+02
   2.588905e+02  -1.234629e+02
   1.418571e+02   4.673857e+01
   7.968739e-01   1.119875e+02
  -2.750614e+01   8.306286e+01
   1.908168e+01   4.819550e+01
   9.133071e+01   6.978050e+00
   6.425170e+01   3.430381e+01
  -2.932987e+01   5.060710e+01
  -2.348791e+01   4.467056e+01
  -4.002168e+01  -3.548159e+01
   3.569987e+01  -7.369762e+01
   2.845393e+01   4.105008e+01
   1.511035e+00   1.021529e+02
  -7.238927e-01   1.688544e+02
  -1.226638e+02   7.828901e+01
  -2.186006e+02  -7.304838e+01
  -1.378496e+02  -1.213413e+02
  -3.416082e+01  -1.329342e+02
   9.977560e+01  -8.776104e+01
   7.214030e+01   1.037796e+01
   5.751010e+01  -3.550991e+00
   2.996267e+01  -1.078426e+01
   2.133799e+01  -5.942042e+01
   7.600314e+01  -5.907701e+01
   5.329125e+01  -1.817195e+00
   2.538852e+00  -8.876133e+00
  -2.698604e+01   3.390188e+00
   2.400515e+01  -5.144433e+01
   9.973818e+01  -2.113578e+01
   1.734444e+02   4.779358e+00
   1.594906e+02   6.069419e+01
  -2.196530e+01   1.359619e+02
  -1.011197e+02   8.996560e+01
  -1.289265e+02   9.418765e+01
  -5.435792e+01  -2.567774e+01
   2.948813e+01  -5.631682e+01
   2.651764e+01  -1.325013e+01
  -8.358201e+00   4.957605e+01
  -6.095437e+01   7.054445e+00
  -6.448696e+01  -3.756800e+01
  -3.161504e+01  -1.223515e+02
   3.225763e+01  -5.077978e+01
   9.293215e+01   8.587056e-01
   4.403586e+01  -6.980204e+00
   1.599880e+01   3.171313e+00
  -7.668407e+00  -1.743452e+01
   3.996665e+01  -4.251877e+01
   9.073648e+01  -1.783611e+01
   1.058580e+02   7.976070e+01
   1.196750e+01   8.347326e+01
  -5.855044e+01   7.228309e+01
  -1.024941e+02  -4.552477e+01
  -7.562979e+00  -2.070005e+01
   1.080782e+01  -3.313123e+01
   8.378464e+00  -2.425811e+01
   2.100070e+01   1.287171e+01
  -4.305164e+01   2.803335e+01
  -8.958994e+00  -3.951657e+01
   5.954253e+01  -4.555300e+01
   6.661882e+01   2.449329e+01
  -2.308410e+01   5.513255e+01
  -9.042955e+01   5.788274e+01
  -1.043982e+02   1.295720e+01
  -4.791601e+01  -7.700556e+01
  -1.542391e+00  -7.852472e+01
   8.647157e+01  -9.231348e+01
   3.738508e+01  -2.510549e+01
   4.890833e+01   5.484148e+01
   4.322515e+01  -1.949513e+00
   4.724984e+01  -1.930839e+01
   7.310458e+00  -1.547620e+01
   1.955229e+01   3.799912e+01
  -4.361266e+00   2.777420e+01
  -6.745308e+01   4.091236e+01
  -5.961977e+01  -4.135162e+01
  -1.490702e+01  -6.269555e+01
   7.586956e+01   1.763221e+01
   1.083249e+02   2.350985e+01
   3.707205e+01   1.238840e+02
  -5.738674e+01   6.063908e+01
  -1.601771e+02   2.061017e+01
  -1.165889e+02  -7.456538e+01
  -2.331771e+01  -1.112422e+02
   2.053384e+01  -1.164592e+02
   5.436058e+01  -6.904211e+01
   5.016594e+01  -1.816334e+01
   7.013497e+01  -2.723148e+01
   5.548625e+01  -4.954814e+01
   1.183955e+02  -4.243449e+00
   8.422987e+01   9.413986e+01
  -1.650125e+01   1.123207e+02
  -7.463068e+01   1.055634e+02
  -9.039515e+01   2.491153e+01
  -8.491832e+01  -5.014172e+01
  -2.519941e+01  -1.045268e+02
   4.208557e+01  -5.171681e+01
   1.593636e+00   5.475736e+01
   3.398073e-01   4.046873e+01
   5.630869e+00   5.126776e+01
  -2.252688e+01  -4.458218e+00
   3.553539e+01   1.959679e+00
  -3.133540e+00  -1.999331e+01
  -3.653006e+01  -7.494010e+00
  -8.921223e+01  -2.819619e+01
  -5.253338e+01  -2.928189e+01
  -9.199489e+00  -9.970939e+00
   6.807809e+01  -5.807441e+01
   9.253260e+01  -3.627653e+01
   1.809830e+01   2.433783e+01
  -4.987892e+01  -9.138130e+00
  -8.545494e+01   1.879232e+01
  -2.067784e+01  -5.905208e+01
   1.843474e+01  -6.524360e+01
   6.566025e+01  -2.023393e+01
   3.555487e+01   2.306412e+01
   3.260696e+01   3.644493e+01
   2.947489e+01   2.412354e+01
   3.006130e+01  -6.595150e+00
   5.988023e+01   6.252039e+01
  -3.025313e+01   7.415592e+01
  -6.649952e+01   1.156441e+02
  -1.304470e+02   5.826267e+01
  -1.060890e+02  -4.213532e+01
  -2.995462e+01  -1.120849e+02
  -1.416110e+01  -6.199219e+01
  -8.604502e+00   2.613010e+01
  -4.909224e+01   5.281897e+01
  -7.752296e+01  -6.544092e+00
  -3.656510e+01  -7.252209e+01
   6.961346e+01  -7.314178e+01
   8.397918e+01  -2.611948e+01
   1.078119e+02   2.432289e+01
   1.650451e+01   7.510464e+01
  -6.447151e+00   2.437590e+01
  -7.356619e+01   2.807988e+01
   2.711018e+00  -1.771159e+00
   2.144309e+00   1.037706e+01
   2.335753e+01   5.200922e+01
  -5.969652e+01   4.815664e+01
  -1.123139e+02   3.331698e+01
  -5.577970e+01  -5.179703e+01
   5.841014e+01  -9.864445e+01
   6.069949e+01  -6.301856e+01
   5.802065e+01   5.959785e+01
   3.005779e+01   1.002812e+02
   3.195133e+01   8.260232e+01
   3.416102e+00   1.640933e+01
  -3.203745e+01  -1.032173e+01
   1.929834e+01  -1.226004e+01
   1.246100e+01   1.782865e+00
  -5.396502e+01  -9.970242e+00
  -7.387748e+01  -5.962313e+01
  -3.001007e+01  -1.049891e+02
  -8.168216e+00  -9.415598e+00
   3.833375e+01   1.490250e+01
   1.598204e+01   2.021268e+01
   2.676482e+01  -1.693436e+01
   6.937493e+00   2.700306e+01
  -2.613172e+01   2.422194e+01
  -2.266595e+01  -3.858767e+01
   1.251716e+01   8.841815e+00
   3.740841e+01  -3.065016e+01
  -1.135540e+01   2.094156e+00
  -4.850203e+01   4.145081e+01
   1.351110e+01   2.191039e+01
   4.478745e+01  -1.884080e+00
   2.414178e+01   4.343428e+01
  -1.160091e+01   2.298542e+01
  -1.181753e+02   1.277383e+01
  -5.192704e+01  -5.244692e+01
  -3.493763e+01  -1.040833e+02
   3.236851e+01  -6.325949e+01
   8.549403e+01  -4.678809e+01
   7.616337e+01  -3.167232e+01
   6.804115e+00   1.570150e+01
   3.303625e+01   2.605607e+01
   6.627114e+01   1.610890e+01
   4.157610e+01   3.699735e+01
   1.726916e+01   6.704059e+01
  -6.719423e+00   6.092464e+01
  -3.952547e+01   1.508474e+01
  -3.348473e+01  -6.373440e+01
  -4.920745e+01  -4.294104e+01
   2.585865e+01  -5.034187e+01
   6.678133e+01  -5.535515e+00
   8.391964e+01   4.132373e+01
  -3.118449e+01  -1.632077e+01
  -2.131054e+01  -2.273633e+01
   2.491773e+01  -3.770401e+01
   4.756289e+01  -1.945051e+01
   5.651850e+01  -4.498843e+00
  -2.785301e+01   1.150571e+01
  -4.733846e+01   4.229395e+01
  -3.932030e+01   1.451579e+00
   2.873648e+00  -5.406089e+01
   3.659786e+01  -4.920886e+00
   2.757671e+01   2.359922e+01
   2.857103e+01   6.117288e+01
   1.892811e+01   3.159082e+01
   2.427456e+01  -2.041934e+01
  -4.990085e+01  -5.948401e+01
   1.999147e+01  -3.080884e+01
   3.592776e+01  -1.751317e+01
  -3.526339e+00   2.717695e+01
  -9.436813e+00   3.656244e+01
  -3.610957e+01   2.371838e+01
  -3.984166e+01   2.973308e+01
  -3.944992e+01   1.408212e+01
   2.009958e+01   1.190870e+01
   3.758568e+00  -3.902849e+01
  -3.892263e+01  -9.439527e-01
  -2.022286e+01  -3.298157e+01
   2.679216e-01  -5.032713e+00
   4.020467e+01   2.022115e+01
  -2.623999e+01   2.141094e+01
   4.892516e+00   4.040048e+01
  -3.641978e+01  -5.078958e+00
   2.460829e+01  -2.895483e+01
   3.105868e+01  -1.024048e+01
   3.260534e+01   1.663591e+01
   2.706349e+01   2.015724e+01
  -3.635989e+01   3.822652e+01
  -6.167326e+01   4.800693e+01
   1.634028e+00   3.962583e+01
   2.617027e+01  -1.904920e+01
   3.410891e+01  -1.096846e+01
   3.991662e+01   5.050312e+00
  -4.171983e+01   2.108639e+01
