
 $NMID
 id='ANONYMOUS ', fmtdat='(2E16.6)'
 volume=1.0
 tramp=1.0
 $END
  -3.048954e+03  -7.790150e+01
  -1.852344e+03  -1.943044e+03
   4.935420e+02  -2.099884e+03
   1.682438e+03  -7.298525e+02
   7.196536e+02   5.830141e+02
  -5.353092e+02   4.927169e+02
  -7.893983e+02  -3.279343e+02
  -9.487522e+00  -8.622955e+02
   6.620979e+02  -6.217369e+02
   7.475872e+02   7.503438e+01
   3.756527e+02   7.613199e+02
  -1.795879e+02   7.086181e+02
  -4.730514e+02  -2.434202e+00
  -2.802152e+02  -5.742275e+02
   2.745430e+02  -6.334108e+02
   4.954064e+02   4.820234e+00
   1.676631e+02   5.803534e+02
  -2.643552e+02   5.185482e+02
  -4.842251e+02   1.661941e+02
  -3.221847e+02  -2.623679e+02
  -3.690632e+01  -3.056301e+02
   1.077019e+02  -2.791567e+02
   1.544181e+02  -9.618798e+00
  -6.081626e+01   1.682256e+02
  -3.915407e+02  -7.671593e+01
  -2.469472e+02  -3.816997e+02
   3.061536e+02  -3.972098e+02
   7.304529e+02   1.888243e+01
   3.976186e+02   4.855632e+02
  -3.124215e+02   4.823628e+02
  -6.709171e+02  -1.750231e+01
  -3.350368e+02  -4.301856e+02
   1.713773e+02  -3.987752e+02
   4.077838e+02  -1.551681e+02
   2.933982e+02   1.581871e+02
   8.238370e+01   4.094880e+02
  -1.985351e+02   2.180934e+02
  -2.025928e+02  -1.960109e+02
   1.118066e+02  -4.422878e+02
   3.461342e+02  -1.248610e+01
   1.958957e+02   5.829934e+02
  -2.457562e+02   6.274038e+02
  -4.865142e+02   3.368597e+01
  -2.254977e+02  -4.741848e+02
   2.044877e+02  -2.894227e+02
   2.769734e+02   2.603208e+02
  -8.108057e+01   4.685093e+02
  -4.537204e+02   1.384464e+02
  -4.799212e+02  -3.315162e+02
  -1.380475e+02  -4.566563e+02
   3.275385e+02  -2.463697e+02
   4.868000e+02   1.056450e+02
   2.931109e+02   3.163120e+02
  -1.334899e+02   3.175349e+02
  -3.654093e+02   2.642995e+01
  -1.745218e+02  -1.864486e+02
   9.052884e+01  -1.582410e+02
   1.168171e+02   1.273047e+02
  -1.108414e+02   1.664977e+02
  -3.051651e+02  -4.301192e+01
  -1.284774e+02  -2.258952e+02
   1.141203e+02  -2.037620e+02
   2.194810e+02  -7.744045e+01
   1.327244e+02   9.287517e+01
   3.273603e+01   1.561318e+02
  -1.179167e+02   2.683335e+02
  -2.279342e+02   1.677945e+02
  -2.096011e+02  -9.762204e+01
   4.475228e+00  -3.114329e+02
   7.030180e+01  -3.095166e+02
   8.725047e+01  -4.886801e+01
  -1.152695e+01   1.576590e+01
   5.839617e+01  -1.780672e+01
   1.793465e+02  -1.025665e+02
   1.903253e+02   1.036431e+02
   1.240444e+02   2.171553e+02
  -7.097690e+01   2.528762e+02
  -1.651015e+02   4.641439e+01
  -1.636407e+02  -2.001737e+02
  -1.279558e+01  -2.969053e+02
   2.129796e+02  -1.430079e+02
   3.050359e+02   1.425150e+02
   1.287509e+02   2.141109e+02
  -7.530143e+01   1.990245e+02
  -1.412633e+02   9.869923e+01
  -7.759263e+01   5.920583e+01
  -9.064228e+01   6.858228e+01
  -2.200582e+02   7.399922e+01
  -3.507532e+02  -1.111147e+02
  -1.951125e+02  -2.308485e+02
  -3.490024e+00  -2.949633e+02
   3.042000e+02  -2.966906e+02
   3.410163e+02  -1.701940e+02
   2.577413e+02   1.030805e+02
   9.505348e+01   2.112177e+02
  -1.477187e+02   1.950436e+02
  -1.424465e+02   2.046649e+01
   8.520567e+01  -1.361526e+02
   1.693961e+02   4.441994e+00
   7.323158e+01   1.646031e+02
  -1.434208e+02   1.257743e+02
  -1.936863e+02  -7.342771e+01
  -5.807115e+00  -2.148810e+02
   1.257826e+02  -2.099650e+01
   1.170810e+02   1.258304e+02
  -2.440283e+01   2.530966e+02
  -1.632467e+02   1.730147e+02
  -2.695275e+02  -1.667160e+01
  -1.945345e+02  -1.844496e+02
  -7.328951e+01  -2.312234e+02
   9.472402e+01  -1.296239e+02
   1.738201e+02   2.501403e+01
   2.610207e+01   4.122366e+01
  -7.079700e+01   3.101404e-01
  -2.508116e+01  -8.526203e+01
   7.037568e+01  -8.260845e+01
   1.647450e+02   4.695400e+01
  -9.177720e+00   7.071313e+01
  -1.087006e+02   2.238645e+01
  -5.432609e+01  -7.470716e+01
   1.600911e+02  -1.120645e+02
   2.096112e+02  -4.529399e+01
   1.785274e+02   1.184506e+02
   4.971373e+01   1.847075e+02
  -1.347761e+02   2.020072e+02
  -2.351334e+02   6.026175e+01
  -1.224274e+02  -5.784336e+01
  -1.840829e+01  -8.309578e+01
   8.641724e+01  -2.089132e+01
   1.620806e+01   6.615907e+01
  -1.313129e+02   5.090753e+01
  -2.119796e+02  -3.603568e+01
  -8.291492e+01  -1.763630e+02
   7.561951e+01  -1.255813e+02
   1.418494e+02  -5.772481e+01
   7.578792e+01   4.288063e+01
  -9.167643e+00   2.184137e+01
  -6.031680e+01  -2.856705e+01
   7.281461e+01  -1.010428e+02
   1.944062e+02   1.143761e+01
   1.641699e+02   1.135714e+02
  -3.572097e+01   1.509435e+02
  -1.269919e+02   1.295490e+02
  -1.426257e+02  -1.588885e+01
  -2.832363e+01  -8.305018e+01
   3.767640e+01  -9.456676e+01
   4.542327e+01  -6.630966e+01
   3.789116e+01   1.220943e+01
   7.315632e+00  -6.525743e+00
  -2.209888e+01  -1.742147e+01
   3.708979e+01   3.918747e+01
   1.926414e+01   3.617997e+01
   8.900637e+00   7.387570e+01
  -2.581426e+01   1.144205e+02
  -1.043190e+02   4.091468e+01
  -1.834473e+02  -4.549779e+01
  -2.889690e+01  -1.600094e+02
   6.883366e+01  -1.138523e+02
   5.388523e+01  -5.162452e+00
   1.263163e+01   4.221430e+01
   1.425137e+01   7.139080e+00
   1.714060e+01  -4.627981e+01
   3.566786e+01  -1.768359e+01
   7.153201e+01   2.924671e+01
  -1.900552e+01   3.153792e+01
  -8.271345e+01   2.406496e+01
  -8.812753e+01   2.275774e+00
   2.798507e+01  -4.203515e+01
   1.039353e+02  -4.092339e+01
   1.070528e+02   2.752871e+01
   5.612716e+01   1.662214e+02
  -2.477475e+01   1.779896e+02
  -2.085610e+02   1.019176e+02
  -1.723186e+02  -6.675472e+01
  -4.072376e+01  -9.159129e+01
   1.131549e+00  -7.830708e+01
   9.871996e+01  -2.928126e+01
   5.699016e+01  -8.534979e+01
   4.144353e+01  -8.942984e+01
   7.431004e+01  -4.263156e+00
   1.105220e+02  -8.931637e+00
   2.783251e+01   3.625103e+01
   5.884106e+01   1.716879e+02
  -4.657190e+01   1.221100e+02
  -8.510854e+01   3.507729e+01
  -1.340897e+02  -9.071625e+01
  -1.822912e+01  -1.288971e+02
   4.267230e+01  -1.052298e+02
   5.936067e+01   5.204338e+01
  -2.073797e+00   7.129612e+01
  -1.301228e+01  -2.635672e+01
   3.196361e+01   1.822498e+01
   1.289888e+02  -3.821783e+01
   5.276588e+01   6.934482e+01
  -2.323083e+01   2.724024e+01
  -9.393413e+01  -2.099897e+00
  -6.180954e+01   8.334790e+00
  -3.387684e+01  -2.339904e+01
   5.563703e+01  -5.701628e+01
   8.352180e+01  -6.053085e+00
   4.089589e+00   2.961442e+01
  -2.076816e+01   7.471022e+01
  -6.519761e+01   7.039976e+00
  -1.618104e+01  -4.196570e+01
   3.336018e+01  -5.269990e+01
   9.051464e+00  -2.551193e+01
   2.571155e-01   3.326479e+00
   3.249485e+01   1.543073e+01
   4.491600e+01  -3.138618e+01
   8.427516e+01  -1.714541e+01
   6.792223e+01   6.356189e+01
  -1.416894e+01   6.881979e+01
  -7.083446e+01   9.948624e+01
  -7.745351e+01   2.110201e+01
  -7.600107e+01  -9.124804e+01
   5.448410e+00  -6.581749e+01
   6.390275e+01  -3.372772e+01
   3.506322e+01   1.821230e+01
  -5.542581e+01   1.661963e+01
  -1.195063e+02  -6.819314e+01
  -1.352898e+01  -8.804264e+01
   8.110911e+01  -4.539729e+01
   1.420713e+02  -4.372821e+01
   1.166702e+02   7.337533e-01
   7.701974e+00   8.051290e+01
  -3.659255e+01   6.655626e+01
  -2.765344e+01   3.510232e+00
   2.117534e+01  -4.929366e+01
   8.718517e+01   1.320373e+01
   5.137306e+01   5.447945e+01
  -1.258334e+02   8.015669e+01
  -1.280502e+02   4.382033e+01
  -1.021058e+02  -6.144465e+01
   2.337254e+00  -1.180243e+02
   6.939379e+01  -1.381216e+02
   8.052321e+01  -1.501656e+01
   5.544704e+01   5.181176e+01
   4.618691e+01   8.255981e+01
  -2.330586e+01  -4.982871e+00
  -5.909899e+01  -1.115606e+01
  -2.899529e+01   9.998919e+00
  -7.995257e+00   1.224397e+01
  -5.277573e-01  -1.175048e+01
   7.474082e+00  -3.115029e+01
  -3.694634e+01  -5.326725e+01
   2.875791e+01   1.158014e+01
   8.592882e+01   6.964593e+01
   9.215069e+01   7.774603e+01
  -5.894760e+00   3.564377e+01
  -6.947577e+01  -2.416851e+01
  -3.117856e+01  -3.874304e+01
  -9.270120e+00  -1.972402e+01
   3.417221e+01   2.331296e+01
   7.683573e+00   3.919420e+01
  -2.724981e+00   2.096466e+01
  -1.069451e+01   3.022586e+01
   2.827257e+01  -1.969025e+01
   5.868806e+01  -3.033605e+01
  -3.590773e-01   6.906216e+01
  -6.924782e+01   8.920207e+01
  -1.299165e+02  -1.325562e+01
  -1.135583e+02  -6.162984e+01
  -3.081044e+01  -1.228915e+02
   8.485199e+01  -8.330774e+01
   5.397491e+01  -1.806934e+01
   4.703812e+01   3.666602e+01
   1.718852e+00  -3.070784e+01
  -1.636527e+01  -4.348084e+01
  -3.018618e+01  -4.878875e+01
   7.994695e+01   1.491220e+01
  -2.303461e+01   5.917668e+01
  -9.481063e+00   8.035617e+01
  -8.432039e+01   4.414432e+01
  -2.543843e+01  -1.157378e+02
  -9.917334e+00  -1.311540e+02
   2.581105e+01  -2.419083e+01
   1.390100e+01   3.760482e+01
   3.056924e+01   6.398823e+01
  -2.011205e+01   4.870539e+01
  -7.221353e+01  -5.613159e+01
  -1.533245e+01  -9.326977e+01
   2.122528e+01  -8.752856e+01
   6.817337e+01  -6.339915e+01
   1.959251e+00   6.527705e+00
  -4.884279e+01   3.953366e+01
   2.083151e+01   5.449377e+00
   5.348931e+01  -3.318645e+01
   6.544744e+01  -1.297131e+01
  -3.763804e+00   1.009329e+01
  -1.876649e+01   3.793467e+01
  -4.221320e+01   8.366348e+01
   2.141956e+01   3.442839e+01
   7.177666e+00  -1.198174e+01
  -2.878694e+01  -2.638206e+01
   3.474534e+01   1.132116e+01
  -9.818797e+00   3.104925e+01
   5.356468e+00   7.574631e-01
   9.096253e+00  -1.673993e+01
  -2.291385e+01  -2.450179e+01
   1.348944e+00   1.772398e+01
   3.719076e+00  -2.279007e+01
  -4.874771e+01   3.254548e+01
   2.320960e+00  -5.504182e+01
   6.508616e+01  -2.624383e+01
   5.121996e+01   3.609799e+01
   7.226988e+00   7.138369e+01
  -3.850281e+01   2.629575e+01
  -2.100344e+01   1.711882e+01
  -3.563818e+01  -1.346882e+01
   1.397158e+01  -3.630499e+01
   5.866176e+01  -5.544889e+01
   1.309687e+02   2.134181e+01
   3.842099e+01   3.780490e+01
  -4.777820e+01   9.326263e+01
  -7.492969e+01   2.263820e+01
  -1.091124e+01  -2.426233e+01
  -3.066747e+01   2.439698e+01
   3.276952e+01   3.124502e+01
  -1.384786e+01   4.922637e+01
  -8.781424e+01   3.986172e+01
