
 $NMID
 id='ANONYMOUS ', fmtdat='(2E16.6)'
 volume=1.0
 tramp=1.0
 $END
   3.019802e+03  -1.416623e+02
   2.045307e+03   1.491700e+03
  -3.343233e+01   1.653204e+03
  -1.090605e+03   1.075568e+03
  -9.382403e+02   2.351279e+02
  -6.281857e+01  -9.488812e+01
   2.700462e+02   9.616887e+01
  -3.714607e+01   4.388581e+02
  -3.205553e+02   3.809375e+02
  -5.013658e+02   9.971229e+01
  -3.828335e+02  -5.023647e+02
  -2.432263e-01  -5.248271e+02
   1.708884e+02  -9.078370e+01
   2.103378e+02   3.279414e+02
  -1.275597e+02   4.306381e+02
  -3.622392e+02   1.065443e+02
  -3.060030e+02  -3.929300e+02
   7.380215e+01  -4.931361e+02
   3.398872e+02  -2.523330e+02
   4.342995e+02   6.541298e+01
   1.089380e+02   3.550617e+02
  -9.153371e+01   2.755607e+02
  -4.081879e+01   4.994763e+01
   4.206056e+01   9.176274e+01
   1.926606e+02   2.138889e+02
  -7.383470e+01   2.728115e+02
  -3.851632e+02   1.309289e+02
  -4.989169e+02  -2.331537e+02
  -8.508467e+01  -3.014088e+02
   2.451265e+02  -2.091340e+02
   3.986198e+02   6.983825e+01
   1.751395e+02   2.913295e+02
  -1.477512e+02   2.658373e+02
  -3.217983e+02   1.623476e+02
  -2.814727e+02  -7.434777e+01
  -8.629433e+01  -2.340326e+02
  -8.099772e+01  -1.749582e+02
  -1.817156e+01   9.093842e+00
  -1.580252e+02   1.563893e+02
  -1.513749e+02  -1.464821e+02
  -1.671628e+01  -4.569717e+02
   2.061440e+02  -3.633243e+02
   2.268684e+02   2.857129e+01
   5.996537e+01   2.517744e+02
  -1.234151e+02   9.372434e+01
  -1.646714e+02  -2.644465e+02
   8.378118e+01  -3.106626e+02
   3.534382e+02  -5.594587e+01
   3.688406e+02   3.258105e+02
   1.546571e+02   3.849332e+02
  -2.584805e+02   1.666349e+02
  -4.509068e+02  -2.612494e+01
  -2.291555e+02  -1.828149e+02
   2.175504e-01  -2.072028e+02
   2.183654e+02  -1.177377e+02
   1.702944e+02  -7.698885e+00
   3.427411e+01   5.876315e+01
   1.673934e+01   6.900277e+00
   1.134859e+02  -3.472475e-01
   1.315456e+02   3.786369e+01
   5.219913e+01   1.107490e+02
  -1.175168e+02   2.107847e+02
  -2.330747e+02   1.184393e+02
  -2.197878e+02  -5.658309e+01
   2.192143e+01  -2.310369e+02
   2.855745e+02  -3.165745e+02
   3.069986e+02  -2.267940e+02
   2.505296e+02   9.705211e+01
   4.699147e+01   3.576658e+02
  -6.906420e+01   2.732882e+02
  -1.677729e+01   1.302254e+02
  -4.964754e+01   8.032428e+01
  -1.780090e+02   8.965997e+01
  -1.821598e+02   4.543856e+01
  -1.744047e+02  -9.184609e+01
  -1.222508e+02  -1.805209e+02
   3.980539e+01  -1.639462e+02
   1.474979e+02   3.425537e+01
   1.327042e+02   1.827730e+02
  -7.491968e+00   1.826189e+02
  -2.249145e+02   2.359244e+01
  -2.483195e+02  -1.649388e+02
  -1.919291e+02  -2.406524e+02
   3.665417e+01  -2.637730e+02
   1.990429e+02  -1.526891e+02
   1.036291e+02  -7.847832e+01
   1.495262e+02  -4.035911e+01
   2.405200e+02   2.824111e+01
   3.994659e+02   1.296133e+02
   2.663872e+02   2.825571e+02
  -4.496335e+01   3.924677e+02
  -3.004785e+02   3.304469e+02
  -4.002885e+02   1.262592e+02
  -2.382103e+02  -6.144835e+01
   1.454401e+01  -2.065582e+02
   1.040013e+02  -2.030021e+02
  -4.104630e+01  -3.254913e+01
  -1.159762e+02   7.685923e+01
  -1.221933e+02   4.073653e+01
   1.740862e+01  -1.355479e+02
   1.067385e+02  -1.317456e+02
   6.642973e+01   8.442036e+01
  -2.039496e+01   8.245110e+01
  -1.089665e+02   1.805350e+01
  -1.520504e+02  -2.178833e+02
   5.141023e+01  -3.274193e+02
   2.194660e+02  -1.471114e+02
   3.622549e+02   8.052609e+01
   2.398344e+02   2.303268e+02
   8.055918e+01   2.167842e+02
  -1.161620e+02   1.012053e+02
  -1.040760e+02   1.244132e+01
  -1.310087e+01  -9.387733e+00
   8.384301e+01   6.295884e+01
  -1.759449e+01   5.605644e+01
  -9.496501e+01   7.425439e+01
  -1.022143e+02   2.378225e+01
  -5.470721e+00  -2.597177e+01
   5.115392e+01   4.707451e+01
   6.874520e+01   4.090339e+01
  -1.340524e+02   5.797127e+01
  -2.875306e+02   2.801608e+01
  -2.275811e+02  -1.101029e+02
  -3.205059e+01  -2.227020e+02
   2.042880e+02  -1.774465e+02
   2.043395e+02  -1.214100e+02
   1.837726e+02  -5.992881e-01
  -2.091029e+01   7.509842e+01
  -4.995994e+01   2.781029e+00
   6.797731e+01  -5.636471e+01
   1.928288e+02  -4.041870e+01
   1.175613e+02   8.073816e+01
  -1.948999e+01   1.859772e+02
  -1.130863e+02   1.195344e+02
  -1.152953e+02   9.422352e+00
  -4.671606e+01  -9.517830e+01
   4.392449e+01  -1.228379e+01
   4.547031e+01   8.848580e+01
  -4.884595e+01   1.291718e+02
  -1.760824e+02  -2.409616e+01
  -1.914718e+02  -1.425301e+02
  -1.023927e+01  -1.765492e+02
   1.302954e+02  -1.725963e+02
   1.319314e+02   1.406766e+01
   3.977381e+01   1.407594e+02
  -1.490445e+01   6.944470e+01
  -1.117320e+02   2.637090e+01
  -3.503911e+01  -1.849901e+01
   4.578132e+01  -2.256746e+01
  -5.725935e+00   4.060030e+01
  -1.502585e+02   1.690609e+01
  -9.392404e+01  -5.625519e+01
  -8.466698e+00  -1.889198e+02
   1.460939e+02  -1.316848e+02
   2.049934e+02  -1.599630e+01
   1.581690e+02   1.133753e+02
   3.106003e+00   1.740262e+02
  -4.882373e+01   1.336700e+02
  -1.161204e+02   8.589703e+00
  -2.586465e+01  -2.050674e-01
   1.541187e+01  -2.230248e+01
   2.428203e+00   1.818905e+01
  -5.717830e+01   2.890555e+01
  -6.646566e+01  -1.687384e+01
  -6.630663e-01  -8.056011e+01
   1.097170e+02  -1.071694e+02
   6.739664e+01   1.017353e+02
  -4.968488e+01   1.359520e+02
  -1.425459e+02   4.625403e+01
  -2.380908e+02  -1.017657e+02
  -2.070395e+01  -2.159697e+02
   1.391003e+02  -2.069214e+02
   2.571321e+02  -8.884564e+01
   2.058873e+02   4.100374e+01
   7.693485e+01   2.147385e+02
  -5.474883e+01   1.762246e+02
  -3.142887e+01   1.181332e+02
  -1.192229e+01   1.973198e+01
  -5.624025e+01   1.131397e+02
  -1.097342e+02   7.164044e+01
  -8.528101e+01  -8.075972e+01
  -1.105081e+02  -1.324527e+02
   1.668155e+01  -1.862557e+02
   1.260224e+02  -1.483637e+02
   1.357638e+02  -2.279257e+01
   1.216666e+02   1.392210e+02
   2.165006e+01   1.502617e+02
  -6.276778e+01  -2.589577e+00
  -6.284252e+01   1.120121e+01
   5.138208e+01  -5.826931e+01
   3.686688e+01  -4.395710e+01
  -1.118597e+01  -3.429037e+01
  -6.878901e+01  -3.077369e+00
  -5.876748e+01  -2.659917e+01
   5.094569e+01  -1.585891e+01
   1.706890e+02  -2.323605e+01
   7.733392e+01   7.404591e+01
   2.020376e+00   1.162294e+02
  -9.008434e+01   1.163323e+02
  -1.338630e+02  -9.176616e+00
  -5.904065e+01  -7.610255e+01
   3.426358e+01  -8.214434e+01
   5.645765e+01   6.770670e+01
   1.622759e+01   3.326875e+01
  -4.027311e+01   5.282628e+01
  -6.025496e+01   1.917816e+00
  -3.515370e+01  -9.324487e+01
  -3.691369e+01  -4.960902e+01
  -1.887501e+01   3.926554e+01
  -7.772645e+01  -9.900537e+00
  -3.487379e+01  -6.579123e+00
   2.209336e+01  -1.195396e+02
   1.319779e+02  -1.190877e+02
   1.080429e+02  -4.676416e+01
   1.363743e+02   6.870898e+01
  -8.605180e+00   1.318528e+02
  -7.514771e+01   4.577386e+01
   1.689228e+01  -5.055917e+01
   9.379251e+01  -5.226966e+01
   1.101286e+02   1.676498e+01
   1.014827e+02   1.364897e+02
  -7.129741e+01   1.107779e+02
  -1.573353e+02   1.088354e+02
  -1.782231e+02  -4.541028e+01
  -2.884242e+01  -9.332748e+01
   5.621116e+01  -3.000429e+01
   4.761744e+01   2.078061e+00
  -3.827072e+01   3.039931e+01
  -8.771185e+01  -4.233267e+01
  -4.956925e+01  -9.411092e+01
   5.276512e+01  -1.820422e+02
   1.825671e+02  -3.779833e+01
   1.046821e+02   6.718931e+01
  -4.283305e+01   1.490751e+02
  -8.390195e+01   1.279229e+02
  -6.797437e+01   2.629314e+01
  -2.540451e+01  -9.662228e+01
   3.820381e+01  -9.898670e+01
   2.390005e+01  -3.380544e+01
   4.512601e+01   1.603212e+01
   1.157461e+01   2.473477e+01
  -2.777507e+01   9.652932e+00
   1.019651e+01   1.452428e+01
   7.400850e+01   1.008458e+02
  -6.540921e+00   1.132980e+02
  -1.029891e+02   4.918450e+01
  -1.486370e+02  -9.047428e+01
  -9.374191e+01  -1.062797e+02
  -1.572875e+00  -3.677760e+01
   1.018953e+02  -2.111988e+01
   8.373008e+01   3.406335e+01
  -3.025774e+01   6.315708e+00
  -1.575109e+01  -4.821051e+01
  -2.691166e+01  -2.540633e+01
   5.220075e+01  -7.360231e+00
  -4.243372e+01   6.822428e-01
  -2.480928e+01  -2.694468e+00
  -7.658850e+01   1.967471e+01
  -3.209292e+01  -5.640658e+01
   7.678848e+01  -1.215593e+02
   1.785093e+02  -4.439227e+01
   1.556043e+02   6.837574e+01
   4.944662e+01   7.723273e+01
  -6.156398e+01   8.843044e+01
  -1.206995e+02   5.501810e+01
  -7.353714e+01  -7.251243e+00
  -4.379845e+01   1.099349e+01
  -3.040074e+01   2.191650e+01
  -9.317642e+00   2.844644e+01
  -5.531168e+00  -3.638911e+01
  -3.751990e+01  -7.671202e+01
   3.554525e+01  -9.317428e+01
   9.307164e+01  -6.857200e+01
   5.486525e+01   5.510123e+01
   1.928130e+01   1.345505e+02
  -6.594887e+01   1.145379e+02
  -1.152182e+02  -4.216449e+01
  -1.495305e+01  -9.493443e+01
   9.456523e+01  -4.195243e+01
   6.294712e+01   4.321221e+01
  -9.788473e-01   1.890747e+01
  -3.401770e+01   8.999598e+01
  -5.263984e+01   5.858867e+00
  -3.103297e+01   3.972838e+01
   5.776007e+01  -2.348839e+01
   5.673305e+01   3.043914e+01
  -1.102235e+02   4.647306e+01
  -1.052015e+02   1.339331e+01
  -3.565547e+01  -1.147491e+01
   1.692194e+00  -8.048718e+01
   6.838985e+01  -2.428072e+01
   3.412373e+01   2.561275e+01
   3.319918e+01   2.810176e+01
  -2.436980e+01   1.969278e+01
  -1.884570e+00  -5.578152e+00
  -2.785921e+00  -6.841828e+01
   1.351670e+00  -2.645960e+01
   1.441339e+01   8.690623e+00
  -1.811465e+01   1.471469e+01
   2.415556e+01   1.475940e+01
  -1.499265e+01  -7.079121e+00
  -2.039106e+01   1.568522e+01
  -9.433302e+00   1.321405e+01
   2.064603e+01   4.964037e+01
  -7.348290e+01   3.621566e+00
  -4.591011e+01  -5.857769e+01
  -2.978826e+01  -9.740585e+01
   6.210947e+01   1.138272e+01
   6.490886e+01   7.877409e+00
   5.838882e+00   3.185551e+01
  -4.545489e-01   1.835749e+01
  -7.588682e+01   3.118618e+01
  -5.969014e+01  -5.283633e+01
   5.709887e+01  -6.478856e-01
   3.713357e+01  -3.650135e+01
   1.512486e+01   1.945566e+01
  -6.261003e+01  -3.117695e+01
  -2.456124e+01  -2.798077e+01
   2.121747e+01  -3.824802e+01
   6.910934e+01  -1.523645e+01
