
 $NMID
 id='ANONYMOUS ', fmtdat='(2E16.6)'
 volume=1.0
 tramp=1.0
 $END
   2.419590e+03   1.636900e+02
   1.655781e+03   1.268506e+03
  -4.949392e+01   1.611170e+03
  -1.037281e+03   9.058649e+02
  -6.793392e+02   1.458104e+02
   5.564308e+00  -7.071218e+01
   2.879281e+02   4.712837e+01
   1.159940e+02   4.245207e+02
  -3.501910e+02   4.742753e+02
  -5.449580e+02   1.084663e+02
  -3.191113e+02  -4.384547e+02
   6.337445e+01  -5.708799e+02
   1.962702e+02  -7.535353e+01
   2.363677e+02   3.583150e+02
  -9.551614e+01   4.372921e+02
  -3.545625e+02   1.175532e+01
  -2.220910e+02  -4.649108e+02
   1.034296e+02  -4.926922e+02
   3.839642e+02  -2.237431e+02
   2.957256e+02   1.831324e+02
   7.012138e+01   3.343482e+02
  -1.252724e+02   1.996524e+02
  -7.370460e+01   5.326070e+01
   8.627099e+01   4.428038e+01
   2.673199e+02   1.195144e+02
   9.592774e+01   3.210374e+02
  -3.642874e+02   1.710021e+02
  -5.032396e+02  -1.594604e+02
  -2.020703e+02  -3.338074e+02
   3.034664e+02  -1.380610e+02
   4.812076e+02   1.203035e+02
   1.863049e+02   3.120318e+02
  -1.792284e+02   3.230245e+02
  -3.671494e+02   1.386304e+02
  -2.986497e+02  -1.142297e+02
  -4.733622e+01  -2.725314e+02
   6.084647e+01  -1.430820e+02
  -3.592731e+01   1.164548e+02
  -1.611886e+02   2.063011e+02
  -1.996702e+02  -8.152101e+01
  -5.564393e+01  -4.757997e+02
   1.664270e+02  -3.454397e+02
   3.155926e+02   8.018933e+01
   8.603088e+01   2.886293e+02
  -1.692485e+02   1.048683e+02
  -1.950702e+02  -2.185125e+02
   9.788136e+01  -2.504490e+02
   3.925725e+02  -2.815246e+01
   3.843867e+02   3.407836e+02
   9.032518e+01   4.311135e+02
  -2.586666e+02   2.102819e+02
  -4.457890e+02  -6.124742e+01
  -2.213214e+02  -2.930045e+02
   1.018502e+02  -2.383208e+02
   2.561053e+02   1.795124e+01
   1.620519e+02   1.205664e+02
   2.249709e+00   2.656141e+01
  -6.848703e+01  -8.625417e+01
   5.080624e+01  -4.814956e+01
   1.425570e+02   1.072521e+01
   3.196183e+01   1.573075e+02
  -1.642098e+02   1.652101e+02
  -2.802648e+02   9.895494e+01
  -1.698412e+02  -9.254399e+01
   5.713375e+01  -2.651363e+02
   2.595472e+02  -3.305143e+02
   3.442618e+02  -1.262192e+02
   2.133989e+02   1.864749e+02
  -4.839906e+00   3.365446e+02
  -8.153276e+01   2.247346e+02
   7.142505e+00   1.254988e+02
   3.181149e+01   8.098574e+01
  -8.144457e+01   5.547193e+01
  -2.358645e+02   8.312860e+01
  -2.571311e+02  -5.785098e+01
  -9.139213e+01  -2.478917e+02
   1.210562e+02  -1.971103e+02
   1.766325e+02   3.560094e+01
   9.842064e+01   2.336999e+02
  -5.128319e+01   2.577964e+02
  -2.320376e+02   9.958824e+01
  -2.895332e+02  -1.289187e+02
  -1.387553e+02  -2.369057e+02
   4.244624e+01  -2.491600e+02
   1.443466e+02  -1.492866e+02
   1.306510e+02  -5.605861e+01
   1.148059e+02  -4.633576e+01
   2.270996e+02   2.157671e+01
   2.652775e+02   5.754512e+01
   2.470069e+02   1.687940e+02
   2.718871e+01   3.733558e+02
  -2.991076e+02   3.223237e+02
  -4.242213e+02   1.500815e+02
  -2.742218e+02  -1.007409e+02
  -9.885006e+00  -1.948571e+02
   1.239995e+02  -1.142954e+02
  -2.023963e+01  -5.494466e+01
  -1.195608e+02   8.828168e+01
  -7.242149e+01  -3.196412e+01
  -1.751301e+01  -1.386700e+02
   8.683769e+01  -9.371665e+01
   4.047181e+01   6.880380e+01
  -3.766270e+01   8.395682e+01
  -1.306907e+02  -2.936920e+01
  -9.503939e+01  -1.832601e+02
   1.631931e+01  -2.755025e+02
   1.921938e+02  -1.388305e+02
   2.971114e+02   4.924843e+01
   2.640608e+02   2.147958e+02
   6.596865e+01   2.510642e+02
  -9.876671e+01   1.712375e+02
  -1.095648e+02   5.105100e+01
  -4.066001e+01   3.668030e+00
   4.985406e+01   5.597833e+01
   1.744757e+01   7.089435e+01
  -1.341358e+02   3.409949e+01
  -1.085879e+02   6.184775e+00
  -2.859766e+01  -6.138611e+01
   4.902925e+01  -5.097912e+00
   6.422260e+01   7.322438e+01
  -1.022030e+02   8.329430e+01
  -2.532895e+02   3.617017e+00
  -2.055030e+02  -1.447356e+02
   2.347625e+00  -2.102651e+02
   1.936201e+02  -1.638426e+02
   2.615256e+02  -5.438769e+01
   1.109313e+02   6.974342e+01
  -4.062219e+01   8.486090e+01
  -9.449302e+01   4.714888e+01
   1.615953e+01  -4.835777e+01
   1.700194e+02   8.197726e+00
   1.429438e+02   6.049350e+01
   5.437323e+01   1.764687e+02
  -6.130617e+01   9.995528e+01
  -1.197037e+02   4.593062e+01
  -2.872749e+01  -1.871590e+00
   2.841960e+01  -1.544470e+00
   3.169069e+01   8.420872e+01
  -1.026434e+02   9.526593e+01
  -1.861822e+02  -8.612534e+00
  -1.322176e+02  -8.174967e+01
  -9.859534e+00  -1.524627e+02
   1.070897e+02  -1.277814e+02
   1.189323e+02  -5.741243e+01
   3.979430e+00   4.963683e+01
  -5.137632e+01   7.983882e+01
  -2.759796e-01   2.099720e+01
   3.114541e+00  -4.556194e+01
   7.507202e+00  -4.559392e+01
  -4.049873e+01   5.356394e+01
  -1.010204e+02   5.529995e-01
  -1.072894e+02  -4.830453e+01
  -3.058930e+01  -1.066823e+02
   1.674680e+02  -9.796018e+01
   1.922851e+02  -3.303563e+01
   1.447150e+02   7.704763e+01
  -1.986102e+01   1.961972e+02
  -9.988486e+01   1.307755e+02
  -8.957380e+01   2.836160e+01
  -5.017371e+01  -6.535882e+01
  -7.376655e+01  -4.954751e+01
  -4.018015e+01  -4.815389e+00
  -1.031978e+02  -2.385624e+01
  -6.051475e+01  -6.959661e+01
   2.457167e+01  -1.237633e+02
   1.372641e+02  -5.942477e+01
   9.338188e+01   5.995370e+01
  -4.266808e+01   1.351390e+02
  -1.386813e+02   1.003789e+02
  -1.972174e+02  -7.535397e+01
  -1.404894e+02  -1.716846e+02
   6.211415e+01  -1.832258e+02
   1.914471e+02  -8.641818e+01
   1.990886e+02   7.303662e+01
   9.636295e+01   1.415993e+02
  -2.003678e+01   1.330465e+02
  -4.588584e+01   5.255922e+01
  -7.450932e+01   5.434588e+01
  -3.196593e+01   7.640470e+01
  -5.552483e+01   8.684064e+01
  -8.386949e+01   2.832225e+01
  -6.086071e+01  -8.532138e+01
  -3.673308e+01  -1.692996e+02
   9.868498e+01  -1.042532e+02
   1.080234e+02   6.347499e+00
   8.867734e+01   7.016150e+01
  -6.044999e+00   1.092260e+02
  -1.187447e+02   9.956970e+01
  -4.240795e+01   1.499589e+01
   1.350913e+01  -1.072561e+01
   7.224610e+01  -8.258221e+01
  -4.175196e+01  -2.834149e+01
  -8.916518e+01   1.459511e+01
  -1.576967e+01  -5.145003e+00
   6.047802e+01  -3.704777e+00
   1.586120e+02  -1.733958e+01
   1.435254e+02   5.203969e+01
   1.585090e+01   4.811500e+01
  -1.247857e+02   1.039483e+02
  -1.477786e+02   2.577503e+01
  -5.655692e+01  -4.973313e+01
   4.820172e+01  -5.509486e+01
   9.355897e+01   1.368591e+01
   6.564304e+01   2.306635e+01
  -7.986199e+01   4.624761e+01
  -8.733911e+01   8.526249e+00
  -4.440265e+01  -3.318289e+01
  -3.253714e+01  -1.754852e+01
  -5.194843e+01  -2.634611e+01
  -9.155944e+01   1.652346e+01
  -5.945292e+01  -2.748863e+01
   5.872543e+01  -6.331095e+01
   9.791434e+01  -1.046469e+02
   1.862945e+02  -4.317647e+01
   1.264224e+02   7.237660e+01
   7.408150e+00   7.466227e+01
  -5.337296e+01   6.414339e+01
  -1.656306e+01  -2.787686e+00
   5.126503e+01  -2.692205e+01
   9.646276e+01   3.926387e+01
   8.265955e+01   1.042555e+02
  -8.180516e+01   1.421734e+02
  -1.777924e+02   3.582192e+01
  -1.303417e+02  -8.092908e+00
  -2.522938e+01  -7.355763e+01
   6.154215e+01  -8.496180e+01
   2.095268e+01  -9.607727e+00
  -1.155640e+01   1.922669e+01
  -8.284035e+01  -3.854807e+01
   6.064644e+00  -1.566647e+02
   5.893757e+01  -1.399996e+02
   1.072346e+02  -4.879606e+01
   7.882625e+01   2.605610e+01
   3.414974e+01   1.337468e+02
  -2.275359e+01   1.057993e+02
  -4.393148e+01  -6.984501e+00
   1.570223e+01  -4.801689e+01
   1.165127e+01  -5.899842e+01
   7.513822e+01  -1.977239e+01
   7.019998e+00   2.909931e+01
   7.680996e+00   2.408639e+01
  -2.031640e+01   5.734029e+01
   4.836207e+01   1.666113e+01
   3.944362e+01   1.035967e+02
   2.742158e+01   1.043127e+02
  -5.043567e+01   2.611315e+01
  -1.703331e+02  -8.331538e+01
  -1.874466e+02  -4.147850e+01
  -4.200814e+01  -3.223389e+01
   9.404000e+01  -4.908680e+01
   6.482671e+01  -8.407386e+00
   6.700703e+01   7.885557e+00
   1.009002e+01   3.375325e+01
  -3.068039e+00   1.372778e+01
   1.426548e+01   7.496196e+00
  -3.355312e+01  -8.878042e+00
  -5.553220e+01  -2.332146e+01
  -4.132896e+01  -3.115678e+01
   1.999679e+01  -7.599399e+01
   9.643530e+01  -1.379997e+02
   1.302519e+02  -2.739340e+01
   8.532352e+01   5.081600e+01
  -2.557580e+01   1.565431e+02
  -6.708203e+01   1.266994e+02
  -9.761809e+01   3.853221e+01
  -3.654178e+01  -3.285606e+01
   1.083470e+01  -2.915880e+01
   3.008215e+01  -2.828483e+01
   5.004267e+00  -6.846400e+00
  -1.912622e+01  -4.298035e+01
   7.588593e-01  -8.776439e+01
  -1.751731e+00  -3.633177e+01
   4.304707e+01  -1.286018e+01
   6.666135e+01   1.130003e+02
   9.565521e+00   8.977695e+01
  -2.025071e+01   2.516171e+01
  -7.885001e+01  -8.049002e+01
  -4.457764e+01  -8.320172e+01
   7.830743e+01  -5.629709e+01
   9.566438e+01  -1.783835e+01
   3.393147e+01   1.585990e+01
  -1.649241e+01   6.054623e+00
  -2.926064e+01  -1.553256e+01
   4.982411e+01   3.789190e+01
   2.908481e+01  -1.290528e+01
   5.363384e+00   2.029169e+01
  -7.829979e+01   6.033743e+01
  -1.118456e+02   3.456759e+01
  -6.519504e+01  -5.194120e+01
   1.859977e+01  -4.867289e+01
   8.060916e+01  -7.679195e+01
   2.086878e+01  -3.489552e+01
   3.006613e+01   3.114661e+01
  -4.487780e+01   7.223950e+01
  -1.023416e+01  -1.297902e+01
  -4.107463e+01  -1.718413e+01
  -2.568029e+01   7.247054e+00
   7.474691e+00   3.573302e+01
   2.720081e+01   2.206419e+01
   5.169286e+01   1.079009e+01
   5.148217e+00  -3.832095e+01
  -2.878410e+01  -3.008165e+01
   3.561542e+01   2.382189e+01
  -4.222160e-01   4.617082e+01
  -1.410921e+00   1.990794e+01
   3.777643e-01  -4.084184e+01
   1.994250e-01  -1.913554e+01
   1.065843e+02  -2.358033e+01
   4.434349e+01   5.161318e+01
   6.428513e+00   3.519597e+01
  -5.978631e+01   4.035883e+01
  -7.528989e+01  -6.940423e+00
  -6.344086e+01  -3.459690e+01
   6.014694e+01  -2.839926e+01
   5.401890e+01  -6.355922e+01
   2.361686e+01  -2.492657e+01
  -3.715269e+01   1.749615e+01
  -3.205490e+01  -1.976024e+01
  -1.354050e+01   3.948316e+00
   9.927450e+01  -5.730920e+01
