
 $NMID
 id='ANONYMOUS ', fmtdat='(2E16.6)'
 volume=1.0
 tramp=1.0
 $END
   8.620080e+02   6.608844e+01
   5.968776e+02   4.525136e+02
   9.059222e+01   6.218131e+02
  -2.604258e+02   4.501717e+02
  -3.226903e+02   1.910386e+02
  -8.250949e+01  -2.249674e+01
   3.696046e+01  -9.328585e+00
   4.075631e+01   1.348849e+02
  -8.816368e+01   1.451894e+02
  -2.014763e+02   2.037016e+01
  -1.642956e+02  -1.197563e+02
  -3.403297e+01  -1.907894e+02
   5.996700e+01  -3.514162e+01
   1.103159e+02   1.068470e+02
  -5.129926e+01   1.743455e+02
  -1.316842e+02   4.201607e+00
  -9.364991e+01  -1.510821e+02
   7.230037e+01  -1.792298e+02
   1.241044e+02  -7.694936e+01
   1.065361e+02   6.364243e+01
   2.187751e+01   8.873766e+01
  -5.099264e+01   9.521415e+01
   2.753268e+00   5.268402e+01
   8.581799e+01   1.996985e+01
   7.010391e+01   9.609544e+01
  -9.660206e+00   1.168108e+02
  -1.094949e+02   7.167214e+01
  -1.639646e+02  -7.333579e+01
   2.774231e+00  -1.614668e+02
   1.438743e+02  -2.196911e+01
   1.442962e+02   8.958450e+01
   7.598178e+01   1.485552e+02
  -6.919908e+01   6.721079e+01
  -1.156195e+02  -1.385029e+01
  -6.389644e+01  -7.347264e+01
  -1.208524e+01  -4.366178e+01
  -1.949014e+01  -2.430642e+01
  -1.885777e+01  -1.268614e+01
  -4.611222e+01   3.523885e+01
  -5.803813e+01  -3.164771e+01
   1.595592e+00  -8.707179e+01
   5.473423e+01  -9.766310e+01
   7.279128e+01   9.220443e+00
   1.446656e+01   8.186857e+01
  -4.909267e+01   2.186400e+01
  -4.580550e+01  -7.607389e+01
   2.586702e+01  -8.670858e+01
   1.759936e+02   1.992698e+01
   1.628305e+02   1.191850e+02
   5.761008e+01   1.434126e+02
  -1.194282e+02   8.942672e+01
  -1.960538e+02  -4.265829e+00
  -1.118588e+02  -9.134791e+01
   1.112853e+01  -1.072534e+02
   1.169009e+02  -3.676842e+01
   6.997217e+01   1.808607e+01
   9.644161e-01  -4.606952e+00
  -1.487508e+00   1.782825e+01
   1.216379e+01  -4.621055e+00
   3.859744e+00  -9.125108e+00
   1.417570e+01   3.342570e+01
  -5.002906e+01   3.374920e+01
  -8.220755e+01   2.201459e+01
  -8.612283e+01  -2.952027e+01
  -1.635076e+01  -7.021176e+01
   1.053967e+02  -9.050027e+01
   1.563456e+02  -3.431757e+01
   8.026775e+01   4.362631e+01
  -5.868124e+00   1.184284e+02
  -5.507169e+01   1.374036e+02
  -9.060359e+00   8.120821e+01
  -4.918984e+00   4.183670e+01
  -4.669456e+01   5.111075e+01
  -1.173936e+02   2.198658e+01
  -7.858497e+01  -9.009330e+01
  -2.692230e+01  -8.785699e+01
  -2.450672e+01  -4.279030e+01
   5.142492e+01  -2.255825e+00
   2.297537e+01   7.319382e+01
  -1.722918e+01   6.430778e+01
  -3.583421e+01   3.196664e+01
  -7.114180e+01  -3.010024e+01
  -6.066554e+01  -1.042894e+02
  -7.294144e+00  -8.103621e+01
   3.171910e+01  -8.864723e+01
   4.041321e+01  -5.920895e+01
   9.657621e+01  -3.237142e+01
   1.571241e+02  -1.477377e+01
   1.326652e+02   1.726668e+01
   8.864685e+01   9.277508e+01
  -7.891356e+00   1.545758e+02
  -9.625302e+01   1.182741e+02
  -1.174094e+02   4.972667e+01
  -1.216856e+02  -2.079432e+01
  -3.919085e+00  -5.075591e+01
   4.719037e+01  -3.314060e+01
  -1.502637e+01  -4.715253e+00
  -3.412539e+01   6.426998e+00
  -4.016504e+01  -1.139571e+01
  -1.392595e+01  -2.802170e+01
   3.599821e+01  -1.237836e+01
   1.035485e+01   4.209381e+01
  -5.089769e+01   1.518834e+01
  -3.832396e+01   1.515081e+00
  -2.266883e+01  -7.297103e+01
  -4.217225e+01  -1.171602e+02
   6.583653e+01  -5.658912e+01
   7.189621e+01   6.670961e+00
   7.058348e+01   7.022122e+01
   3.403962e+01   7.344315e+01
  -5.745873e+01   7.848700e+01
  -5.077769e+01   7.494628e+00
  -2.433899e+01   1.063362e+00
  -1.420811e+01   3.342630e+01
   2.162902e+01   7.142540e+01
  -3.351125e+01   1.247963e+01
  -2.189423e+01  -9.274377e+00
   4.271369e+01  -4.788150e+01
   2.936311e+01   3.912935e+00
   3.800867e+01   5.212410e+01
  -3.018080e+01   5.079963e+01
  -1.107374e+02  -1.436491e+01
  -9.245645e+01  -7.226111e+01
  -6.668236e+00  -1.051773e+02
   9.971864e+01  -3.951055e+01
   9.599422e+01   1.813796e+01
   6.338853e+01   7.534862e+01
  -1.380883e+01   5.030772e+01
  -6.173559e+01  -9.764073e+00
   1.983001e+01  -2.010794e+00
   4.349424e+01  -2.276397e+01
   6.782041e+01   2.459505e+01
   2.443539e+01   4.392203e+01
  -2.300927e+00   2.816668e+01
  -5.362927e+00  -9.409247e+00
  -2.085136e+01   1.254900e+01
   2.008219e+01   3.116945e+01
  -9.806753e+00   5.500580e+00
  -5.068922e+01   3.126731e+01
  -7.397236e+01   1.819476e+01
  -4.890545e+01  -9.988889e+01
  -3.433027e+00  -8.671463e+01
   6.566326e+01  -4.697666e+01
   1.929143e+01   1.711367e+01
   6.051687e+01   1.527303e+01
  -3.124664e+00   3.006933e+01
   8.646146e+00   4.101122e+01
   2.665195e+01   2.016885e+00
   7.545375e+00   3.028984e+01
   3.249888e+00  -9.486443e+00
  -4.813457e+01  -2.670369e+01
  -1.592209e+00  -7.123130e+01
   3.013501e+01  -4.429094e+01
   6.764010e-01  -4.429098e+01
   8.279889e+01  -1.462814e+01
   6.204063e+01   5.426822e+01
   1.079337e+01   4.603917e+01
  -5.099067e+01   3.989054e+01
  -3.780334e+01   1.475592e+01
   1.370333e+00  -1.212485e+01
   1.104123e+01  -1.182966e+01
  -3.937155e+01   8.382790e+00
  -2.254787e+01  -6.321521e+00
  -3.621615e+01  -3.935859e+00
   1.494839e+01  -2.952538e+01
   5.736763e+01   7.378344e+00
   2.059925e+01   9.772011e+00
  -1.349506e+01   4.005550e+01
  -6.851275e+01  -4.595530e+00
  -5.381854e+01  -2.119198e+01
  -9.150763e+00  -9.205220e+01
   5.483793e+01  -1.026293e+02
   7.227196e+01  -1.143571e+01
   7.722079e+01   5.555447e+01
   5.648265e+01   5.075331e+01
  -4.415993e+01   3.087898e+01
  -2.992438e+01   1.844779e+01
  -4.068749e+01   7.620653e+00
  -3.564439e+01  -1.124692e+00
  -2.408580e+01   9.837557e+00
  -2.429433e+01  -2.250909e+00
   1.558674e+01  -7.880517e+01
   2.740657e+01  -1.123996e+02
   6.239430e+01  -5.049050e+01
   8.902601e+01   1.598449e+01
   5.498216e+01   7.517238e+00
  -1.802453e+00   4.324803e+01
  -4.394679e+01   2.028215e+01
  -1.937116e+01   1.688666e+01
  -2.023463e+01   3.056371e-01
  -1.212722e+01  -9.471275e+00
   6.607857e+00   2.279289e+01
  -2.193426e+01  -1.090834e+01
   2.386211e+01  -3.496883e+01
   5.858962e+01   4.282684e+00
   6.579499e+01   1.004682e+01
   6.215941e+01   4.566890e+01
  -5.708796e+00   5.686705e+01
  -6.567306e+01   4.256021e+01
  -3.615850e+01  -2.792186e+01
   1.116003e+01  -2.304547e+01
   1.725012e+01  -2.822381e+01
   1.012537e+01  -5.897089e+00
   4.682493e+01   3.520720e+01
  -1.088089e+01   4.978720e+01
  -4.488873e+01  -1.263053e+01
  -5.038000e+00  -7.772857e+00
  -1.558064e+01  -8.776395e+00
  -2.508788e+01   2.088354e+01
  -2.819677e+01   2.589266e+01
  -2.255816e+01  -3.586314e+01
   3.040102e+01  -5.664026e+01
   3.221193e+01  -3.430112e+01
   9.631496e+01   3.214928e+01
   6.973967e+01   2.827291e+01
   1.785193e+00   8.922261e+00
  -2.138422e+01   4.720966e+01
  -3.361755e+01  -2.806418e+01
   1.582925e+00  -1.444569e+01
   5.611608e+01   3.065265e+00
   6.129056e+00   6.411408e+01
  -3.819006e+01   2.936116e+01
  -5.639084e+01   1.545130e+01
  -4.779916e+01  -7.649037e+00
   1.047674e+01  -5.706514e+01
  -7.510650e+00  -2.832488e+01
   3.486169e+01   2.918561e+01
   2.074497e+01   2.280260e+01
  -1.530444e+01  -8.763355e+00
   1.299756e+00  -5.107256e+01
   3.641959e+01  -8.054084e+01
   5.495049e+01  -5.283940e+01
   1.936515e+00   4.123328e+01
  -8.132536e+00   5.926995e+01
  -2.912105e+01   1.641474e+01
  -3.211175e+01   2.430105e+01
   8.211024e+00  -2.391331e+01
  -4.152875e+01  -2.597413e+01
  -5.785845e-01   1.192353e+01
   5.788273e+00   7.599607e+00
  -1.136270e+01  -1.976425e+01
  -3.134128e+01  -3.150961e+01
  -5.347317e+00   5.079325e+01
   3.440378e+01   5.145246e+01
   1.808506e+01   4.219526e+01
  -1.266664e+01   3.264179e+01
  -2.317360e+01  -2.777873e+01
  -4.043063e+01  -2.466482e+01
   1.043678e+01   9.856579e+00
   3.126779e+01  -7.796659e+00
   5.041096e+01  -3.407610e+00
   1.926387e+01  -4.277570e+00
  -2.185925e+01  -1.645939e+01
   3.194471e+01   2.390782e+00
   7.904836e-02  -4.344250e+00
  -2.024061e+01  -2.213896e+00
  -7.101390e+00   9.893187e+00
  -5.762337e+01  -1.229132e+01
  -2.619283e+01  -1.582870e+01
   3.568281e+01  -3.952365e+01
   3.161633e+01  -3.707100e+01
   5.339383e+01   3.078929e+01
   5.084587e+00   3.934241e+01
  -1.758148e+01   3.127518e+01
  -6.697443e+01   2.729622e+01
  -4.614220e+01  -1.209200e+01
  -3.975651e+01  -1.538301e+01
  -7.605129e+01  -1.539506e+01
   5.411380e+00  -1.033499e+01
  -1.893301e+01  -3.016001e+01
   1.831687e+01  -3.474294e+01
   4.358808e+00  -3.091153e+01
   5.337515e+01   2.876565e+00
   5.379757e+01   5.734965e+01
   2.784261e+01   4.640758e+01
  -2.608368e+01   2.562532e+00
  -2.344195e+01  -2.184437e+01
   1.581898e+01  -6.000758e+01
   1.779841e+01   3.854872e+00
   1.368174e+01  -1.390277e+01
   3.019177e+01   2.384056e+01
  -3.015222e+00   2.598398e+01
  -2.701320e+01   2.490604e+01
   4.198294e+01   2.336155e+01
   3.462600e+01  -6.051047e+00
   5.696229e+00  -1.649638e+01
  -9.372994e+00   4.445680e+01
  -3.734900e+01  -6.701254e+00
  -2.440571e+01   1.156760e+01
   3.108065e+01  -4.687318e+01
   4.101727e+01  -5.243512e+01
  -4.047283e-01   4.992897e-01
   1.521185e+01   2.611246e+01
   2.832959e+01   2.355632e+01
  -1.938855e+01   2.140453e+01
  -5.763943e-01   3.173322e+00
  -4.157042e+01  -2.502435e+01
  -1.953567e+01  -4.352670e+01
  -1.754563e+01   2.630392e+01
  -1.516242e+01  -1.100670e+01
  -3.666981e+01   1.460483e+00
  -3.186524e+00  -8.924545e+00
  -3.946927e+00  -1.172304e+01
  -3.912824e+00   2.493455e+01
  -4.287791e+01   3.400761e+01
  -2.155173e+01   9.180872e+00
   2.812182e+01  -3.215476e+01
  -4.510502e+01  -3.565781e+01
   2.936715e+01   2.470429e+00
   1.173909e+01   6.500795e+00
  -3.410141e+01   8.841119e+00
  -5.021435e+01   1.059096e+00
  -4.244015e+01   8.647216e+00
   1.903610e+01  -1.796729e+01
   1.391982e+01  -8.255493e+00
  -3.246998e+01   1.547496e+01
   1.157081e+01   1.593692e+01
   5.500750e+00   3.949013e+01
   2.230191e+00   8.901084e+00
   2.322489e+01  -1.410020e+01
