
 $NMID
 id='ANONYMOUS ', fmtdat='(2E16.6)'
 volume=1.0
 tramp=1.0
 $END
   1.436212e+03   2.913139e+01
   7.280456e+02   7.865956e+02
  -1.662934e+02   9.301295e+02
  -6.804326e+02   3.836450e+02
  -3.588487e+02  -1.340082e+02
   7.571768e+01  -1.920423e+02
   2.562772e+02   1.203100e+02
   1.577357e+01   3.569347e+02
  -3.668070e+02   2.523836e+02
  -3.864801e+02   1.313012e+01
  -1.803620e+02  -3.014909e+02
   2.426644e+01  -2.008028e+02
   1.889965e+02  -3.611843e+01
   1.009071e+02   1.777132e+02
  -1.045247e+02   2.246782e+02
  -2.333286e+02   1.897729e+01
  -2.087552e+02  -2.315616e+02
   6.152258e+01  -1.885132e+02
   2.459631e+02  -4.421293e+01
   1.897206e+02   1.444805e+02
   2.909898e+01   1.811404e+02
  -1.048743e+02   1.460552e+02
  -9.701185e+01  -3.462238e+01
   1.295218e+01  -3.840322e+01
   1.972985e+02   2.160600e+01
   8.778088e+01   1.670048e+02
  -1.382448e+02   1.799328e+02
  -2.823772e+02  -2.833540e+01
  -1.749641e+02  -2.188109e+02
   1.351153e+02  -1.093177e+02
   2.443163e+02   9.142142e+00
   1.143585e+02   1.785178e+02
  -1.009661e+02   1.468903e+02
  -1.809657e+02   3.873407e+01
  -1.082414e+02  -1.435272e+02
   3.155015e+01  -1.342059e+02
   8.584827e+01  -7.460940e+01
   6.476989e+01   9.837256e+01
  -4.669279e+01   1.134238e+02
  -1.488785e+02   1.469049e+01
  -6.617653e+01  -2.178227e+02
   9.466047e+01  -1.760468e+02
   2.079434e+02   3.412295e+00
   9.995433e+01   1.843768e+02
  -9.487680e+01   8.467870e+01
  -1.783095e+02  -8.486573e+01
   3.072246e-01  -1.853361e+02
   2.020823e+02  -7.690208e+01
   2.000308e+02   1.316561e+02
   4.376173e+01   1.625641e+02
  -1.176409e+02   1.320777e+02
  -2.050463e+02  -2.938483e+01
  -1.041651e+02  -1.288631e+02
   5.411650e+01  -1.282631e+02
   1.778156e+02   1.551144e+01
   9.716687e+01   3.667792e+01
  -6.570896e+01   8.302310e+00
  -5.934191e+01  -7.699429e+01
   2.017945e+01  -1.006634e+02
   1.775476e+02   1.686245e+01
   7.882001e+01   8.845056e+01
  -6.300907e+01   1.378242e+02
  -1.582132e+02   2.486794e+01
  -1.081111e+02  -4.265786e+01
   2.997818e+01  -1.420549e+02
   8.097230e+01  -1.188935e+02
   1.193029e+02  -3.318422e+01
   1.048099e+02   7.072814e+01
  -6.998302e+00   1.617995e+02
  -2.967115e+01   8.359811e+01
  -3.941283e+01  -4.247055e+00
   2.812145e+00   1.820528e+01
   1.440358e+00   5.078610e+01
  -7.909364e+01   1.072227e+02
  -7.305460e+01  -1.973690e+01
  -5.834808e+01  -6.915310e+01
   3.879231e+01  -6.499229e+01
   3.354026e+01  -2.051208e+01
   8.864465e+01   9.631746e+01
   3.955350e+01   9.626548e+01
  -7.938253e+01   3.757075e+01
  -6.123909e+01  -5.514346e+01
  -3.988048e+01  -8.458898e+01
   1.995420e+01  -1.043644e+02
   1.389336e+02  -3.456062e+01
   8.877808e+01   5.507582e+01
  -4.914374e+00  -2.119422e+01
   5.199705e+01  -2.818680e+01
   1.320871e+02   4.097189e+01
   7.731913e+01   5.834638e+01
  -4.070590e+01   1.366184e+02
  -1.288249e+02   1.405101e+02
  -1.850688e+02   1.009688e+02
  -8.032212e+01  -4.480953e+01
  -2.187198e+01  -8.850900e+01
   3.148676e+01  -1.108073e+02
   4.332277e+01  -5.787225e+01
   1.237380e+01   4.598976e+01
  -4.991497e+01   2.287733e+01
  -7.505022e+00  -6.387234e+01
   6.864877e+01  -4.884989e+01
   7.018930e+01   2.127410e+01
  -4.039544e+01   9.429595e+01
  -7.111405e+01   2.079270e+01
  -6.715545e+01  -6.017016e+01
   4.670054e+01  -1.429013e+02
   8.499482e+01  -1.036082e+02
   1.198318e+02  -2.624422e+01
   7.552824e+01   6.638120e+01
   2.616005e+01   1.332695e+02
  -4.797629e+01   4.371090e+01
  -9.702592e+01  -3.039284e+01
  -2.991181e+01   1.987570e+01
  -1.809871e+01   5.680533e+01
   4.197862e+01   6.050136e+01
  -5.628027e+01   1.563107e+01
  -9.313915e+01  -6.598010e-01
  -3.784654e+00  -2.680422e+01
   5.759722e+01  -1.859429e+01
   2.334675e+01   3.962435e+01
  -6.146618e+01   7.210245e+00
  -6.216247e+01   3.989777e+01
  -1.462289e+02  -4.253327e+01
  -3.826853e+01  -8.584875e+01
   5.356474e+01  -9.235020e+01
   1.083328e+02  -6.717100e+01
   8.320071e+01  -3.370508e+01
   2.508705e+01   7.888000e+00
  -7.376329e+00   3.725797e+01
   2.822397e-01  -2.425183e+01
   9.228164e+01  -1.614171e+01
   8.211323e+01   4.777074e+01
   2.508302e+01   1.255393e+02
  -1.238976e+00   4.647577e+01
  -5.305815e+01  -1.482838e+01
  -2.926040e+01  -1.182671e+01
  -3.500303e+01  -4.668368e+00
  -2.222173e+01   1.309428e+01
  -1.357960e+01   1.498986e+01
  -1.247715e+02   4.847527e+01
  -1.095375e+02  -7.293890e+01
  -4.507929e+01  -7.350644e+01
   5.668711e+01  -7.168911e+01
   5.008526e+01  -4.033179e+01
   4.101638e+00   1.308188e+01
   8.147808e+00  -8.375408e+00
  -8.834545e-01  -3.025738e+01
   6.128642e+00  -7.965289e+00
  -2.600318e+01  -2.697969e+00
  -5.475469e+00  -1.725776e+01
   1.876654e+01   8.555666e+00
  -4.188290e+00  -1.668426e+01
   2.988014e+01  -9.486964e+01
   5.222454e+01  -4.251459e+01
   6.739821e+01  -6.902823e+00
   1.138191e+02   7.112692e+01
   2.297783e+00   1.113303e+02
  -5.075387e+01   6.873946e+01
  -2.848666e+01  -2.291752e+01
  -2.450598e+01   9.506633e+00
  -6.715441e+01  -6.544828e+00
  -4.658317e+01   1.106221e+01
   2.799481e+00   9.632677e-01
   4.939319e+00   4.379918e+01
   2.765805e+01  -4.410911e+01
   5.406985e+01   5.319196e-01
   3.755686e+01   5.206598e+01
  -1.549293e+01   1.776423e+01
  -5.078871e+01  -3.156663e+00
  -5.639220e+01   1.078161e+01
  -2.065181e+01  -6.610183e+01
   7.238170e+01  -1.023192e+02
   8.928985e+01  -1.818924e+00
   5.819313e+01   1.890419e+01
   6.134094e+01   5.187993e+01
   3.141684e+01   5.152247e+01
  -4.360323e+01   1.235528e+01
  -1.671261e+01  -5.156830e+00
   1.020921e+01   5.598056e+01
  -1.863926e+01   4.684001e+00
  -3.783386e+01  -3.687967e+01
  -7.133893e+01  -6.728780e+01
   1.746896e+01  -6.227628e+01
   6.071918e+01  -1.217771e+02
   7.545348e+01  -4.677292e+01
   2.309995e+01   5.004438e+01
  -2.493620e+01   3.484034e+01
  -7.466699e+01  -2.154862e+01
  -1.194733e+01   8.736729e+00
   2.122598e+01  -6.910137e+01
   4.180879e+01  -4.290892e+01
  -1.118372e-01  -2.165302e+00
   6.016988e+00   2.373235e+01
   6.257783e+00  -7.407571e+00
  -5.988616e+00  -1.880301e+01
   4.838359e+01   1.575556e+01
   7.063483e+01   2.544318e+01
   9.635631e+00   5.056618e+01
  -7.161622e+01   3.033664e-01
  -4.676113e+01  -5.250899e+00
   1.526264e+01   2.156344e+01
   9.544221e-01  -6.750095e+00
  -1.996196e+01   3.550615e+01
   2.845444e-01  -1.531278e+01
  -5.153768e+01  -8.371872e+00
  -4.830474e+01   2.428219e+01
   2.112543e+00   6.464203e+00
  -1.394122e+01   2.387969e+01
  -1.378887e+01  -4.270458e+01
  -2.919189e+01  -2.386628e+01
  -1.330032e+01  -6.565069e+00
   1.739358e+01  -1.330123e+01
   1.096145e+02  -4.638498e+01
   7.050160e+01  -1.931646e+01
   2.177832e+01   3.466659e+01
  -2.455803e+01   2.969398e+01
  -8.687568e+01  -3.064905e+01
  -4.595421e+01  -7.957314e+00
  -5.709828e+00  -2.446200e+01
   1.044385e+02  -3.444361e+01
   5.158344e+01   4.442507e+01
  -8.170494e+00   8.708779e+00
  -5.472571e+01  -6.196305e+00
  -3.413086e+01  -1.566013e+01
   2.636252e+01  -4.433769e+01
   2.550002e+01  -4.473828e+01
   2.981906e+01  -2.015047e+00
  -2.224121e+00  -4.037280e+01
  -4.645667e+01  -5.322593e+01
  -1.325633e+00  -2.410718e+01
   4.437665e+01  -7.671954e+01
   6.793841e+01  -4.910766e+01
   4.368859e+01   4.886027e+01
   4.388521e-02   7.120713e+00
  -5.249707e+01   1.715273e+01
  -5.131556e+01   2.366208e+01
   1.306834e+01  -2.965648e+01
  -1.375996e+00  -5.283518e+01
  -3.546669e+01   2.714429e+01
   1.568953e+01  -1.712446e+01
  -3.424057e+01  -2.202816e+01
   1.140081e+01  -5.210543e+01
   1.577025e+01   2.610374e+01
   1.470045e+00  -1.559500e+01
   4.316125e+01   2.553282e+01
   4.091114e+00  -2.531675e+00
  -1.689561e+01  -1.758672e+01
  -2.102957e+01  -1.090918e+01
   4.487462e+01  -4.111321e+01
   1.345977e+01  -3.049389e+01
   2.898413e+01   1.067892e+01
   5.625737e+00  -2.556795e+01
   4.182538e+01  -3.548110e+00
  -2.150476e+01  -1.503448e+01
   1.859387e+01   3.892671e+01
  -3.796524e+01   2.340868e+01
  -2.284447e+01  -1.384601e+00
  -5.936469e+01  -3.000958e+00
   7.102637e-01  -1.823976e+01
   6.417886e+01  -2.776048e+01
   3.853204e+01  -2.411054e+01
  -5.628994e+00   1.495544e+01
  -2.256071e+01   3.905180e+01
  -5.539973e+01   1.527462e+01
  -1.253347e+01  -3.728180e+01
   1.092426e+01  -3.022580e+01
   3.564525e+00   3.957198e+01
   9.589828e+00   3.970757e+01
  -8.344270e+00   4.297601e+01
  -1.151735e+01  -2.822944e+01
   2.850230e+01  -3.481575e+01
   4.119772e+01  -1.397320e+00
   4.069437e+01  -1.157508e+01
   2.844584e+01   3.329760e+01
  -4.187894e+01   4.713340e+00
  -3.209310e+01  -3.177125e+01
   4.100788e+00   3.321594e+00
   1.026223e+01  -4.377809e+01
   2.346669e+00   2.060090e+01
   1.249033e+00   1.311739e+01
  -1.117291e+01   1.592926e+01
  -2.085217e+01   1.296753e+01
  -5.673739e+01  -1.992028e+01
   5.920204e+00   4.346512e+00
  -1.928764e+01   9.474707e+00
  -3.864739e+01  -6.739745e+01
  -2.055236e+01  -6.729728e+00
  -4.896763e+01   3.199519e+01
  -2.847519e+01   7.211692e+00
  -1.123084e+01  -5.026512e+01
  -8.015592e+00   6.496462e-01
   3.276173e+01   9.163928e+00
   3.439872e+01   4.033468e+01
  -4.219733e+01   1.678518e+01
  -3.529496e+01   2.961098e+01
   2.066988e+01   1.011782e+01
   3.634644e+01   2.893973e+01
  -2.499565e+01   4.337798e+00
   4.226209e+01   5.190491e+01
  -1.067061e+01   1.465624e+01
  -1.390160e+01   2.956486e+01
   2.869240e+01   1.479779e+01
  -2.449782e+01   1.864838e+01
  -2.141366e+01   2.157232e+01
  -2.378290e+01  -3.645452e+00
  -9.582691e+00  -2.150532e+01
  -1.318630e+01  -2.839814e+01
   3.555051e+01   6.522725e+00
   1.555808e+00   2.704869e+01
  -4.228357e+01   7.030545e-02
   8.410315e+00  -2.110198e+01
  -2.586265e+01  -3.505646e+01
   6.483500e+00   9.303698e+00
   5.825909e+00  -1.095064e+01
   1.895105e+01  -1.301846e+01
   1.792862e+01   1.542238e+01
   8.935262e+00   8.623958e+00
  -2.514210e+01  -3.112417e+01
  -2.840426e+01   2.953664e+00
   6.838029e+00   2.154309e+01
