
 $NMID
 id='ANONYMOUS ', fmtdat='(2E16.6)'
 volume=1.0
 tramp=1.0
 $END
  -3.152031e+03  -9.325116e+01
  -1.949041e+03  -2.107355e+03
   5.940375e+02  -2.242942e+03
   1.758876e+03  -7.212347e+02
   7.698763e+02   6.339198e+02
  -5.638812e+02   4.589226e+02
  -7.402939e+02  -3.784910e+02
   5.017847e+01  -9.229817e+02
   7.204104e+02  -6.785387e+02
   8.277101e+02   2.503242e+01
   4.296447e+02   6.252722e+02
  -2.626233e+02   6.711777e+02
  -5.561561e+02   1.000671e+02
  -3.238985e+02  -6.092871e+02
   2.106211e+02  -5.689657e+02
   5.305800e+02  -7.811962e+01
   2.255166e+02   4.339127e+02
  -1.915790e+02   5.153103e+02
  -4.947206e+02   1.137828e+02
  -2.939145e+02  -2.764275e+02
   1.897467e+01  -3.843514e+02
   2.824233e+02  -1.470911e+02
   1.353675e+02  -1.296821e+01
  -1.032573e+02   6.728255e+01
  -3.783151e+02  -1.118605e+02
  -1.139772e+02  -4.020996e+02
   4.295181e+02  -3.765723e+02
   6.933769e+02   4.216406e+01
   3.530080e+02   3.997315e+02
  -3.233408e+02   3.433038e+02
  -5.583864e+02   2.855482e+01
  -2.678169e+02  -3.961887e+02
   2.689461e+02  -3.722092e+02
   4.246509e+02  -9.186506e+01
   2.854564e+02   1.614161e+02
   7.694803e+01   3.845188e+02
  -1.802505e+02   2.723954e+02
  -1.749474e+02  -1.997874e+02
   1.184366e+02  -4.461431e+02
   3.874823e+02  -1.194335e+01
   2.709003e+02   5.314078e+02
  -2.757472e+02   6.213333e+02
  -5.376752e+02  -5.486712e+00
  -1.965612e+02  -4.651519e+02
   2.188106e+02  -2.502796e+02
   2.921400e+02   2.015721e+02
  -3.586201e+01   4.216840e+02
  -4.888102e+02   1.130365e+02
  -4.605689e+02  -3.627483e+02
  -1.245957e+02  -5.056669e+02
   3.375782e+02  -2.776480e+02
   5.044532e+02   7.904959e+01
   3.120531e+02   2.719176e+02
  -6.638597e+01   3.429446e+02
  -3.339631e+02   8.467516e+01
  -1.633546e+02  -1.206941e+02
   8.390847e+01  -6.362125e+01
   6.652800e+01   1.013928e+02
  -1.428122e+02   1.270700e+02
  -2.579281e+02  -5.554287e+01
  -6.974528e+01  -2.289436e+02
   1.402813e+02  -2.217086e+02
   2.458596e+02  -1.055628e+02
   1.921309e+02   9.002776e+01
   1.767272e+01   2.521740e+02
  -1.981623e+02   2.809942e+02
  -2.964600e+02   1.018861e+02
  -2.469448e+02  -1.317627e+02
  -4.388009e+01  -3.027162e+02
   1.147269e+02  -3.062608e+02
   1.347719e+02  -8.393561e+01
  -1.871458e+01   3.590678e+01
   2.388698e+01  -3.042906e+01
   1.888871e+02  -1.538799e+02
   2.839739e+02  -2.765024e+01
   1.475380e+02   1.997926e+02
  -2.231014e+01   2.000134e+02
  -1.284107e+02  -2.581861e+01
  -1.142195e+02  -1.968197e+02
   4.879226e+01  -2.678535e+02
   2.162830e+02  -7.100063e+01
   2.643602e+02   1.042910e+02
   1.364221e+02   2.601727e+02
  -7.422266e+01   2.430411e+02
  -1.552937e+02   8.875511e+01
  -1.292866e+02   2.356327e+01
  -4.474210e+01   2.485927e+01
  -1.875574e+02   3.104211e+01
  -3.378978e+02  -5.780485e+01
  -2.919603e+02  -2.638735e+02
  -1.076806e+01  -3.687618e+02
   2.574236e+02  -3.659767e+02
   3.720628e+02  -1.521227e+02
   2.862564e+02   7.702024e+01
   3.621478e+01   2.450799e+02
  -8.794527e+01   1.885097e+02
  -3.358266e+01   3.884108e+00
   9.657846e+01  -5.872643e+01
   1.710470e+02  -2.286619e+01
   3.973142e+01   1.660982e+02
  -8.604479e+01   9.805897e+01
  -1.549245e+02  -3.932870e+01
   4.623543e+01  -1.407855e+02
   1.470287e+02  -4.375636e+01
   1.166390e+02   2.221319e+02
  -5.868353e+01   2.767062e+02
  -2.415773e+02   1.242473e+02
  -2.562662e+02  -6.655203e+01
  -2.136426e+02  -1.850617e+02
  -7.473177e+01  -1.819539e+02
   9.532193e+01  -1.167360e+02
   1.294970e+02   3.636370e+01
   2.747904e+01   1.596367e+01
  -9.929242e+01  -2.210979e+00
   1.376040e+01  -1.111101e+02
   8.212391e+01  -1.178400e+02
   1.310612e+02   4.886313e+01
   4.946715e+01   2.645910e+01
  -4.226247e+01   4.925170e+01
  -6.531105e+01  -3.805978e+00
   7.161181e+01  -1.048458e+02
   2.335116e+02  -1.382533e+01
   1.928551e+02   1.033019e+02
   3.099436e+01   1.994183e+02
  -1.144642e+02   1.836413e+02
  -1.942294e+02   1.022932e+02
  -1.358521e+02  -1.416973e+01
  -2.571122e+01  -7.714639e+01
   5.055549e+01  -1.926251e+01
  -2.945835e+01   2.467283e+01
  -1.408791e+02   8.471406e+01
  -1.403294e+02  -6.686209e+01
  -1.218586e+02  -1.502945e+02
   6.327185e+01  -1.559204e+02
   1.294213e+02  -9.027072e+01
   7.107480e+01  -1.770545e+01
  -3.407619e-02  -3.424826e+01
   2.345203e+00  -6.095189e+01
   8.424480e+01  -9.191246e+01
   1.757812e+02  -2.664632e+01
   1.476623e+02   1.136832e+02
   8.089368e+00   1.194721e+02
  -1.613041e+02   1.130690e+02
  -1.691529e+02   2.695068e+01
  -4.601825e+01  -1.412493e+02
   3.020979e+01  -1.313457e+02
   7.052819e+01  -6.334534e+01
   3.841652e+01   7.476527e+00
   1.706144e+01   2.225690e+01
   2.119455e+01   9.668816e+00
   6.506759e+01   5.193101e+01
   5.093497e+01   4.376325e+01
   1.916767e+00   1.507694e+02
  -1.029569e+02   1.165914e+02
  -1.705545e+02   4.434421e+00
  -1.611451e+02  -1.400766e+02
  -4.868380e+01  -2.130918e+02
   1.276374e+02  -1.441320e+02
   1.640809e+02  -2.875558e+01
   4.575558e+01   9.540224e+01
   1.149046e+01   1.068408e+01
   2.108235e+01   3.544802e+01
   3.162198e+01  -2.805177e+01
   4.208173e+01   4.472402e+01
  -3.253869e+01   7.677545e+01
  -1.081788e+02   3.488855e+01
  -1.004003e+02  -4.229214e+01
  -1.575063e+00  -1.069492e+02
   1.408852e+02  -5.250220e+01
   1.717467e+02   1.707598e+01
   6.957568e+01   1.541941e+02
  -8.259282e+01   1.973703e+02
  -2.255330e+02   1.086463e+02
  -1.783416e+02  -7.128295e+01
  -7.538136e+01  -1.839372e+02
   2.425525e+00  -1.249414e+02
   7.315131e+01  -6.138476e+01
   3.952699e+01  -7.697927e+01
   6.730415e+01  -1.090299e+02
   5.587844e+01  -4.648706e+01
   1.343390e+02   3.269404e+01
   9.987615e+01   1.149267e+02
  -7.002180e+00   1.620582e+02
  -1.576158e+02   1.325169e+02
  -1.311249e+02   4.258002e+01
  -6.197385e+01  -6.464790e+01
  -6.222234e+01  -1.317079e+02
   4.760776e+01  -1.068782e+02
   1.578764e+01  -3.932473e+00
   2.129519e+01   9.384639e+00
   3.001764e+00   4.958221e+01
   2.996471e+01  -4.943899e+00
   2.752907e+01  -3.014795e+00
   4.499055e+01   3.909099e+01
  -3.466175e+01   5.112918e+01
  -1.155099e+02  -2.037876e+01
  -8.291508e+01  -9.095614e+00
  -2.999606e+01  -5.520929e+01
   1.312934e+02  -2.949113e+01
   7.503988e+01   1.970320e+01
   5.073252e+01   8.368839e+01
   3.219694e+01   7.832362e+00
  -7.496901e+01  -1.042219e+01
  -3.573358e+01  -6.221019e+01
   4.384715e+01  -4.253662e+01
   4.722993e+01   1.577801e+01
   1.983162e+01   1.336322e+01
   1.440487e+01   3.988706e+01
   2.075824e+01   7.847288e-01
   6.100810e+01  -1.607891e+01
  -2.433356e+01   7.933194e+01
  -1.244053e+01   1.187599e+02
  -9.145706e+01   1.260817e+02
  -1.538427e+02  -3.734721e+00
  -1.291081e+02  -1.030514e+02
   1.360823e+01  -9.744124e+01
   9.893165e+01  -4.751766e+01
   5.772709e+01  -4.278269e+01
  -2.527365e+01  -1.201372e+01
  -9.328315e+01  -1.863128e+01
  -6.182765e+01  -1.855324e+01
   8.482764e+01  -9.180256e+01
   1.609379e+02  -5.600460e+01
   6.948694e+01  -2.311235e+01
   1.785237e+01   4.503214e+01
  -3.059476e+01   2.278413e+01
  -9.310438e+01   3.252474e+01
   5.301642e+01  -2.930986e+01
   9.972859e+01   1.561879e+01
   1.060888e+01   6.230658e+01
  -9.953034e+01   1.197032e+02
  -1.653949e+02   7.952686e+01
  -6.510496e+01  -4.185032e+01
   4.470066e+00  -1.081771e+02
   4.159604e+01  -1.221844e+02
   7.705852e+01  -4.374322e+01
   6.059232e+01   8.307465e+01
   5.729532e+01   7.098440e+01
  -4.267290e+01   3.033200e+01
  -8.687587e+00  -4.008996e+00
  -2.435463e+01  -3.031525e+00
  -3.533130e+00   5.113559e+01
  -4.445333e+01   9.030621e+00
   1.765220e+01  -8.522680e+01
  -6.210427e+01  -9.504601e+01
  -2.166353e+01   7.535093e+00
   5.904675e+01   6.392219e+01
   5.354131e+01  -2.547702e+00
   1.055524e+01   1.590145e+01
  -5.656143e+01   2.054011e+01
  -4.330080e+01   7.063339e+00
   6.383339e+01   1.263424e+01
   2.228130e+01  -1.663262e+01
   4.959315e+01  -4.571074e+01
  -1.717911e+00   1.070415e+01
   4.702910e+01   7.367401e+01
   9.362078e+01  -2.578686e+01
   9.423729e+01  -2.959198e+01
   1.855648e+01   1.491224e+01
  -5.736218e+01   1.396605e+02
  -1.511715e+02  -2.190252e+00
  -1.011764e+02  -6.111915e+01
   9.598068e+00  -1.339332e+02
   1.021665e+01  -8.147907e+01
   6.269352e+01  -2.826798e+01
   7.313731e+01   1.247670e+01
   2.834643e+01   2.028902e+01
   4.629389e+00  -2.610406e+01
   2.804144e+01   1.294870e+01
   9.123683e+01   2.865539e+01
  -8.438149e+00   6.023750e+01
  -2.608065e+01   4.151116e+01
  -1.814581e+01   3.154434e+01
  -1.072590e+02  -1.154708e+02
   3.250509e+00  -1.551459e+02
   6.599385e+01  -3.816257e+01
   1.328663e+02   5.853047e+01
   3.720743e+01   7.612006e+01
  -8.520142e+01  -1.034115e-01
  -9.220950e+01   2.168125e+01
  -2.737258e+01  -7.534340e+01
  -9.260218e+00  -6.091381e+01
   4.559796e+01  -4.157899e+01
  -4.567756e+01  -6.708367e-01
  -5.922278e+01   5.636002e+01
  -3.580307e+01   4.933540e+01
   1.991793e+01  -2.637355e+01
   8.513496e+01  -3.999541e+01
   6.030258e+01  -6.261237e+00
  -3.403950e+01   6.605789e+01
  -8.102855e+00   8.043693e+01
   9.516884e+00  -2.685969e+01
   1.010490e+01  -3.070740e+01
  -3.017525e+01  -5.292582e+01
   1.726757e+01  -1.411277e+01
   2.380710e+01   1.752873e+01
   8.100939e+00   2.981358e+01
  -4.669814e+01   8.207820e+00
  -3.370482e+01  -1.133734e+01
  -3.401665e+01  -5.638262e+01
  -6.470741e+00  -3.689310e+01
   6.151841e+00  -3.543333e+01
   7.369017e+00  -3.010024e+01
  -8.893662e+00   3.087478e+00
   1.787893e+01   4.426099e+00
   2.298352e+01   3.330929e+01
  -2.708074e+01   5.336703e+01
  -2.820127e+01   2.588549e+01
  -4.323722e+01  -4.891826e+01
  -1.162061e+01  -4.366416e+01
   5.289741e+01  -4.687139e+01
   2.220147e+01  -1.749600e+01
   3.523615e+01  -6.863869e+00
  -1.225965e+01   2.905057e+00
  -6.338052e+00   2.929431e+01
  -4.583644e+01   3.016465e-01
   4.183592e+01   8.186538e+01
  -5.346160e-01   3.386583e+01
  -3.887707e+01   4.933347e+01
  -6.935848e+01   3.473339e+01
