
 $NMID
 id='ANONYMOUS ', fmtdat='(2E16.6)'
 volume=1.0
 tramp=1.0
 $END
  -3.222237e+03  -1.685892e+01
  -2.143925e+03  -1.534526e+03
  -4.353664e+01  -1.888509e+03
   1.305643e+03  -1.291320e+03
   9.373410e+02  -1.382653e+02
   4.649925e+01   2.094702e+02
  -4.275354e+02  -1.785145e+02
  -1.216809e+02  -5.860397e+02
   5.189258e+02  -5.556268e+02
   6.573621e+02  -1.039078e+02
   4.306824e+02   5.207931e+02
  -5.266653e+01   7.066750e+02
  -3.789953e+02   2.043586e+02
  -1.972953e+02  -4.789341e+02
   2.079725e+02  -5.857624e+02
   4.907645e+02  -9.057350e+01
   3.674998e+02   5.910344e+02
  -9.697099e+01   6.421750e+02
  -4.302499e+02   2.811769e+02
  -4.047758e+02  -1.202641e+02
  -1.056619e+02  -3.520247e+02
   1.847871e+02  -2.236079e+02
   7.308403e+01  -7.913024e+00
  -2.007548e+02  -9.856156e+01
  -2.157308e+02  -2.223292e+02
   6.287075e+01  -3.756530e+02
   5.644255e+02  -1.408858e+02
   5.969264e+02   1.731327e+02
   2.802502e+02   3.811438e+02
  -3.406862e+02   1.714690e+02
  -4.382946e+02  -8.177867e+01
  -1.912220e+02  -3.385397e+02
   2.729539e+02  -3.453224e+02
   5.078831e+02  -7.595344e+01
   2.721387e+02   1.970533e+02
   1.385077e+02   3.392180e+02
  -4.844275e+01   1.461977e+02
   7.840914e+01  -7.592524e+01
   1.977883e+02  -1.120819e+02
   2.367362e+02   9.647565e+01
   7.894234e+01   4.973884e+02
  -2.558625e+02   5.071391e+02
  -3.472357e+02  -4.527873e+01
  -1.366105e+02  -2.858414e+02
   1.384424e+02  -1.196937e+02
   1.551578e+02   2.774313e+02
  -9.972864e+01   4.098231e+02
  -4.292628e+02   1.958058e+01
  -5.025019e+02  -3.970830e+02
  -1.350242e+02  -4.827459e+02
   2.891844e+02  -2.813710e+02
   4.884051e+02   1.612117e+01
   3.705595e+02   2.527452e+02
  -1.518709e+01   2.586113e+02
  -2.705270e+02   6.863912e+01
  -2.349809e+02  -2.452355e+01
   4.864095e+01  -2.771249e+01
   6.647773e+01   8.629417e+01
  -9.070766e+01   3.736232e+01
  -2.476365e+02  -1.027652e+02
  -1.292442e+02  -1.730473e+02
   1.602570e+02  -2.200986e+02
   4.146183e+02  -6.671043e+01
   2.776598e+02   1.167809e+02
  -4.276765e+01   3.232883e+02
  -2.629440e+02   3.711805e+02
  -3.918112e+02   1.355007e+02
  -2.548996e+02  -1.119447e+02
  -4.528237e+01  -3.744061e+02
   5.568071e+01  -3.018670e+02
  -2.484161e+00  -2.061592e+02
   7.404798e+00  -1.332143e+02
   9.013757e+01  -1.244280e+02
   2.835203e+02  -7.639998e+01
   2.217029e+02   9.641130e+01
   1.082105e+02   2.944022e+02
  -7.258140e+01   1.773350e+02
  -1.955598e+02  -3.691838e+00
  -1.107623e+02  -2.093735e+02
   4.242339e+01  -2.576935e+02
   2.531440e+02  -4.694414e+01
   2.680676e+02   1.944546e+02
   1.340577e+02   2.963324e+02
  -1.197770e+02   1.982268e+02
  -1.916378e+02   1.309174e+02
  -1.432755e+02   6.798224e+01
  -1.376585e+02   4.966026e+01
  -2.563525e+02   3.171466e+01
  -4.097086e+02  -1.694705e+02
  -2.904541e+02  -3.090320e+02
   3.601032e+01  -4.356397e+02
   3.852298e+02  -3.728868e+02
   4.889636e+02  -1.435888e+02
   2.559471e+02   9.362070e+01
  -4.991167e+01   2.683770e+02
  -1.389526e+02   1.712414e+02
  -1.778195e+01   9.187263e+01
   6.344672e+01  -2.538008e+00
   1.135348e+02   1.904906e+01
   1.095068e+01   1.115201e+02
  -1.019763e+02   6.127070e+01
  -1.419473e+02  -6.062308e+01
   3.533891e+01  -1.111853e+02
   1.780582e+02  -1.113876e+01
   1.526176e+02   2.202519e+02
   1.016926e+00   3.236016e+02
  -2.612702e+02   1.830882e+02
  -3.949582e+02  -7.707653e+01
  -2.614343e+02  -2.460012e+02
  -4.922623e+01  -2.738572e+02
   1.362586e+02  -1.595074e+02
   1.821674e+02   3.083609e+01
   5.142926e+01   4.403253e+01
  -3.804599e+01  -8.671112e+01
  -1.218752e+01  -1.644073e+02
   1.537042e+02  -1.232051e+02
   1.531314e+02   4.734451e+01
   5.431464e+01   7.746551e+01
  -6.680844e+01  -6.088938e-01
  -1.647788e+01  -7.762411e+01
   1.322171e+02  -8.467780e+01
   3.020428e+02   5.870899e+00
   3.002865e+02   1.777456e+02
   7.005452e-01   2.599720e+02
  -2.481916e+02   2.625561e+02
  -2.974033e+02   9.455677e+01
  -1.696302e+02  -3.669945e+01
   2.397415e+01  -1.118299e+02
   4.404319e+01  -5.512892e+00
  -8.114057e+01   4.401673e+01
  -1.909296e+02   2.713206e+01
  -1.578240e+02  -1.028690e+02
  -4.578310e+01  -2.168851e+02
   1.070009e+02  -1.753343e+02
   1.390742e+02  -3.647583e+01
   8.586554e+01   6.709271e+01
  -4.040318e+01  -2.316470e+01
  -1.713693e+01  -1.091039e+02
   1.456929e+02  -1.189161e+02
   1.713777e+02   3.423563e-01
   1.412078e+02   1.285126e+02
   3.326001e+01   1.362088e+02
  -1.295712e+02   9.406278e+01
  -1.330517e+02   1.414413e+01
  -4.010234e+01  -7.349993e+01
   6.056871e+01  -9.464048e+01
   4.785387e+01  -1.780388e+01
   1.734943e+01   2.214708e+01
  -4.898484e+01   5.584100e+01
   3.916159e+00   1.593583e+01
   8.899269e+01   4.309450e+01
   6.210911e+01   1.055747e+02
  -2.284182e+01   1.396038e+02
  -1.433136e+02   1.102132e+02
  -2.486417e+02  -2.375222e+01
  -1.687213e+02  -1.633009e+02
   4.402158e+01  -2.498918e+02
   1.361655e+02  -1.143634e+02
   1.397360e+02  -8.359838e+01
   3.692621e+01   6.213518e+01
   1.391987e+01   2.679847e+01
   8.033810e+01   3.118504e+01
   8.915726e+01   1.022237e+01
   5.752418e+01   6.645073e+01
  -4.723701e+01   9.202908e+01
  -1.351180e+02   6.336467e+01
  -1.040096e+02  -1.779257e+01
   5.974763e+01  -1.016733e+02
   1.398030e+02  -6.967056e+01
   2.205735e+02   7.712493e+01
   2.656205e+01   1.689158e+02
  -1.525416e+02   1.814420e+02
  -3.279404e+02   3.198807e+01
  -2.263133e+02  -6.222140e+01
  -9.678962e+01  -1.686239e+02
   5.727659e+01  -1.912692e+02
   9.042093e+01  -4.620415e+01
   4.307974e+01  -5.507460e+01
   5.613429e+01  -3.926405e+01
   8.965916e+01  -8.899785e+01
   1.449659e+02   3.263429e+01
   1.080557e+02   1.414213e+02
   3.334317e+01   2.298042e+02
  -8.269544e+01   1.769701e+02
  -2.382633e+02  -1.620700e+01
  -1.489388e+02  -9.453626e+01
   1.982119e+01  -2.006756e+02
   8.043181e+01  -4.102088e+01
   9.240862e+01  -4.215092e+00
   1.515487e+01   6.102634e+01
  -6.061237e+00   5.841258e+01
   7.002145e+01   2.431098e+01
   1.373418e+02   1.852884e+01
   1.646883e+01   1.064992e+01
  -1.266083e+02   4.892813e+01
  -2.160147e+02  -3.493983e+01
  -1.146662e+02  -9.507065e+01
  -9.829931e+00  -9.746347e+01
   1.366951e+02  -9.368111e+01
   1.172701e+02   3.606644e+01
   6.950604e+01   2.991367e+01
  -2.233384e+01   9.401469e+01
  -4.983827e+01  -8.064779e+01
  -3.331726e+01  -4.326616e+01
   3.892413e+01  -7.142712e+01
   1.122433e+02   5.843755e+00
   6.081199e+01   6.558133e+01
   4.090134e+01   1.250435e+01
   2.097357e+01   1.301266e+01
   7.752924e+01   7.554762e+00
   4.075712e+01   9.384162e+01
  -6.070861e+01   1.968040e+02
  -1.131592e+02   1.683617e+02
  -1.549920e+02   9.068525e+01
  -1.546417e+02  -8.855048e+01
  -1.575149e+01  -1.495818e+02
   1.056337e+02  -8.167696e+01
   9.182909e+01  -4.114064e+01
  -2.950692e+01  -7.682657e+00
  -1.255988e+02  -3.699983e+01
  -6.394978e+01  -8.567335e+01
   8.032112e+01  -7.410644e+01
   2.150316e+02  -3.498513e+01
   1.540540e+02   4.163764e+01
   3.638519e+01   1.299857e+02
  -6.858915e+01   1.033981e+02
  -7.701628e+01   8.650463e+00
   4.804929e+01  -4.226624e+01
   6.580129e+01   2.018214e+01
  -4.604695e+00   1.353937e+02
  -4.212806e+01   1.317367e+02
  -1.111570e+02   3.046016e+01
  -1.406241e+02  -9.181438e+01
  -9.933320e+00  -1.743935e+02
   8.412783e+01  -1.465633e+02
   9.777588e+01  -9.795759e+00
   2.393585e+01   1.358290e+02
  -3.303367e+00   1.735746e+02
  -4.167174e+01   5.098170e+01
  -6.377275e+01  -6.751681e+00
  -3.006607e+01  -2.144012e+01
  -2.727506e+01  -3.387137e+01
  -1.405322e+01  -3.472169e+01
  -7.949636e+01  -1.039732e+02
  -3.281521e+01  -1.172388e+02
   1.739026e+01  -2.442520e+01
   1.238676e+02   6.241262e+01
   1.052071e+02   7.017927e+01
   3.357364e+01   4.413305e+01
  -1.022712e+02   2.235454e+01
  -7.379067e+01   5.345225e+00
  -5.034786e+01   3.318073e+01
   4.773869e+01  -9.795039e+00
   3.937292e+00  -4.848819e+01
  -1.465322e+01   1.174851e+01
  -1.110891e+00   1.847032e+01
   1.152177e+02  -3.166548e+01
   1.048552e+02   4.841772e+01
   1.590367e+00   5.904805e+01
  -1.433260e+02   6.789721e+01
  -2.064662e+02   9.182831e+01
  -1.700921e+02  -5.831643e+01
  -3.689804e+01  -1.480208e+02
   1.034258e+02  -1.435059e+02
   1.633287e+02  -2.133749e+01
   1.105755e+02  -9.700281e+00
  -1.266437e+01   2.405298e+01
  -1.094476e+01  -9.848847e+00
   5.745645e+00   3.220208e+01
   1.402191e+00  -5.844628e+00
  -3.020037e+01   6.247086e+01
  -3.833408e+01   6.362427e+00
  -1.126619e+02  -4.110509e+01
  -8.495929e+01  -1.593090e+02
  -2.574316e+01  -5.966715e+01
   8.017161e+01  -6.222557e+01
   1.391374e+02   7.006012e+01
   4.077056e+01   1.099295e+02
  -7.181011e+01   6.001187e+01
  -7.945324e+01  -3.634448e+01
  -2.655303e+01  -6.076746e+01
   8.774363e+01  -5.122989e+01
   1.073999e+02  -8.163320e+01
  -4.624938e+01   7.148178e-01
  -7.949954e+01  -2.113850e+00
  -3.686992e+01  -1.852141e-01
   7.337596e+01  -9.262795e+01
   1.216743e+02  -2.911982e+01
   3.448877e+01   3.968894e+00
  -7.674155e+00   7.562130e+01
  -7.274534e+01   5.524028e+01
  -4.348187e+01  -1.182582e+00
   1.410189e+01  -7.752778e+01
   7.858492e+01  -6.279962e+01
   9.670360e+01   3.917924e+01
   5.141614e+01   9.565799e+01
  -1.352351e+00   9.822972e+01
  -4.882109e+01  -1.070183e+01
  -4.387684e+01  -2.779868e+01
  -4.724933e+01  -1.410714e+00
  -2.651024e+01  -9.779590e+00
   3.944414e+01  -2.031852e+01
  -9.272781e+00  -5.881601e+01
   4.358847e+00  -1.540884e+01
   2.460586e+01  -2.819958e+01
   1.090959e+02   3.224885e+01
   7.937534e+01   9.428110e+01
  -1.226805e+01   2.225236e+01
  -8.754114e+01  -5.442499e+00
  -3.733146e+01  -2.011795e+01
   2.231614e+01  -4.951022e+01
   8.567372e+01  -1.872994e+01
   5.008233e+01   1.079136e+01
  -3.538412e+01   4.015299e+01
  -9.013602e+01   8.077754e+01
   5.000026e+01   1.264471e+00
   4.634028e+01   1.965329e+01
   4.617231e+01   6.505055e+00
  -7.508588e+01   1.751169e+00
  -1.202524e+02   3.869241e+01
