
 $NMID
 id='ANONYMOUS ', fmtdat='(2E16.6)'
 volume=1.0
 tramp=1.0
 $END
  -1.622435e+03   6.242100e+01
  -1.125201e+03  -9.130027e+02
  -9.599610e+00  -1.114393e+03
   8.322621e+02  -6.600979e+02
   5.638681e+02  -7.901098e+01
   2.850626e+01   6.385278e+01
  -2.049042e+02   4.061408e+00
  -4.946858e+00  -2.601237e+02
   2.393644e+02  -2.605962e+02
   3.470333e+02  -1.076709e+02
   2.327198e+02   2.287180e+02
  -4.131906e+01   3.605364e+02
  -1.921738e+02   1.806900e+02
  -1.667778e+02  -1.555817e+02
   5.235853e+01  -2.857510e+02
   2.074702e+02  -1.109459e+02
   1.827177e+02   2.432744e+02
  -8.111957e+01   3.452499e+02
  -3.269642e+02   1.839893e+02
  -3.008093e+02  -1.372288e+02
  -3.838874e+01  -2.713359e+02
   9.140148e+01  -1.497232e+02
   5.688285e+01   1.294553e+01
  -1.662174e+02  -3.546489e+01
  -1.862824e+02  -2.148602e+02
   6.145965e+01  -2.044420e+02
   2.480973e+02  -1.113941e+02
   3.382259e+02   1.726438e+02
   1.704318e+02   1.848157e+02
  -1.894626e+02   9.177092e+01
  -2.278715e+02  -3.321472e+01
  -3.485950e+01  -1.356957e+02
   1.586194e+02  -1.650684e+02
   2.857224e+02  -1.116492e+02
   1.573763e+02   9.664748e+01
   5.617879e+01   2.433512e+02
  -5.490016e+01   8.752965e+01
   2.085618e+00  -6.063597e+01
   1.504890e+02  -1.175676e+02
   1.451818e+02   9.806636e+01
   1.587777e+01   2.893143e+02
  -1.073233e+02   2.341102e+02
  -1.375883e+02   1.820536e+01
  -4.942839e+01  -1.341796e+02
   1.231393e+02  -8.214273e+01
   1.294985e+02   1.347404e+02
  -8.888388e+01   1.975915e+02
  -2.697865e+02   5.697986e+01
  -2.776015e+02  -1.723862e+02
  -9.471487e+01  -2.657679e+02
   1.520679e+02  -1.679747e+02
   2.364920e+02   6.699483e+01
   1.361528e+02   1.799465e+02
  -1.593351e+01   1.404731e+02
  -1.615619e+02   5.785756e+01
  -1.604640e+02  -5.621756e+01
  -6.160958e+01  -4.619989e+01
   5.351343e+01   1.330331e+01
  -1.092291e+01   4.250200e+01
  -1.350625e+02  -1.343751e+01
  -8.453341e+01  -1.139386e+02
   1.151541e+02  -1.283642e+02
   2.451761e+02  -7.452742e+01
   1.674901e+02   3.977827e+01
  -9.460707e+00   1.414516e+02
  -1.585182e+02   1.846430e+02
  -2.500327e+02   9.004296e+01
  -1.129775e+02  -1.006763e+02
  -3.207979e+01  -1.921717e+02
  -1.760686e+01  -1.416690e+02
  -2.208620e+01  -4.468876e+01
   1.705642e-01  -1.069642e+02
   5.573450e+01  -5.527468e+01
   1.314373e+02  -4.469297e+01
   1.327700e+02   9.874188e+01
   2.114141e+01   1.299355e+02
  -6.435675e+01   6.810840e+01
  -1.127548e+02  -8.063497e+01
  -6.592300e+01  -1.561973e+02
   4.441031e+01  -1.081720e+02
   1.517327e+02  -8.843757e+00
   1.437476e+02   8.751992e+01
   9.665602e+01   1.720988e+02
  -3.020898e+01   1.122812e+02
  -1.083665e+02   4.947742e+01
  -8.601178e+01   2.237443e+01
  -1.133805e+02   9.560720e+01
  -2.135636e+02   6.992688e+01
  -1.996105e+02  -6.759844e+01
  -1.750450e+02  -2.227910e+02
   4.777708e+01  -2.474168e+02
   2.120086e+02  -2.243824e+02
   2.910600e+02  -5.947669e+01
   1.145969e+02   3.871044e+01
  -4.213709e+01   1.106245e+02
  -6.189459e+01   5.749273e+01
  -1.380721e+01   2.414687e+01
   9.050503e+01  -2.069565e+01
   7.321436e+01  -7.373249e+00
  -5.500934e+00   7.039806e+01
  -5.841083e+01   7.659414e+01
   8.589740e+00  -7.458399e+01
   1.092509e+01  -6.425091e+01
   8.705170e+01   1.713433e+01
   1.063327e+02   1.701917e+02
  -5.496367e+01   2.359058e+02
  -1.752379e+02   1.189519e+02
  -2.818034e+02  -5.693278e+01
  -1.899878e+02  -2.088697e+02
  -6.393674e+00  -2.174284e+02
   1.076065e+02  -1.301183e+02
   1.085541e+02   1.868013e+00
   2.844078e+01   3.120581e+01
   1.597280e+01   2.674147e+00
   9.974277e+00  -4.663214e+01
   4.452163e+01  -5.590636e+01
   7.544380e+01   5.299907e+01
   5.811400e+01   3.984100e+01
  -6.495588e+01   3.902462e+01
   2.135765e+00   1.052292e+01
   7.849091e+01   1.046640e+01
   1.698436e+02   4.613358e+01
   1.304003e+02   1.263115e+02
  -2.811275e+01   1.469336e+02
  -1.620370e+02   9.034969e+01
  -2.208372e+02   4.520171e+00
  -1.609515e+02  -8.976870e+01
  -2.863144e+01  -7.127254e+01
   2.250829e+01  -1.531973e+01
  -2.846328e+01   5.306162e+01
  -5.752828e+01  -5.568239e+00
  -7.422443e+01  -1.118733e+02
  -4.708519e+00  -1.532211e+02
   6.547763e+00  -6.425735e+01
   4.112137e+01   2.466661e+00
  -2.603989e+01   2.442229e+01
  -5.425100e+01  -3.276242e-01
  -1.199830e+01  -1.115167e+02
   1.301777e+02  -1.170046e+02
   1.570328e+02  -5.797900e+01
   9.567641e+01   2.051577e+01
   1.774444e+00   1.111207e+02
  -9.932903e+01   6.719040e+01
  -6.380630e+01  -1.490011e-01
  -6.986566e+00  -8.022704e+01
   2.534777e+01  -4.695450e+01
   5.685807e+01   4.721803e+00
   9.652556e+00  -1.279323e+01
  -5.187094e+01  -1.889867e+01
   1.255006e+01  -5.502656e+01
   7.239510e+01  -3.947344e+01
   1.144108e+02   4.810350e+01
   2.193438e+01   1.215531e+02
  -9.077883e+01   1.056393e+02
  -1.720939e+02  -2.136542e+01
  -1.445798e+02  -1.503295e+02
  -5.548247e+01  -1.747678e+02
   9.530192e+01  -1.399198e+02
   4.243069e+01  -3.818426e+00
   4.542421e+01   1.128463e+01
   2.758339e+01   3.203799e+01
   8.842849e+01  -3.473378e+01
   1.063918e+02  -2.296119e+01
   8.726502e+01   4.313615e+01
  -1.792963e+01   9.807820e+01
  -8.806449e+01   6.136503e+01
  -1.135734e+02  -2.423069e+00
   3.009805e+01  -9.015140e+01
   1.409976e+02  -7.774133e+01
   1.632105e+02   3.595586e+01
   7.064792e+01   1.187424e+02
  -5.541122e+01   1.156451e+02
  -1.637130e+02   2.331141e+01
  -1.107304e+02  -5.697528e+01
  -2.399391e+01  -7.183178e+01
   3.046476e+01  -7.903238e+01
   7.239409e+01  -7.068158e+01
   5.769725e+01  -2.668145e+00
   8.287620e+00  -3.875343e+01
   5.426651e+01  -9.350263e+01
   4.153544e+01  -3.984857e+01
   5.445192e+01   7.842905e+01
   8.658045e+00   1.546210e+02
  -7.113407e+01   5.603734e+01
  -5.794912e+01   1.252318e+01
  -5.608387e+01  -7.178795e+01
   2.083972e+01  -6.739553e+01
   2.946065e+01  -4.499706e+01
   3.817070e+01   1.629648e+01
   4.049249e+01  -1.189070e+00
  -2.417306e+00   6.215600e+01
   4.042143e+01   2.514600e+01
   6.831670e+01   5.663924e+01
   6.756950e+01   1.504108e+01
  -6.713194e+01   2.905412e+01
  -1.367141e+02  -1.778209e+01
  -7.130827e+01  -5.844648e-01
   2.394520e+01  -4.445808e+01
   7.978522e+01  -1.202131e+01
   4.371903e+01   5.944632e+00
   1.956643e+01   2.563968e+01
  -4.082091e+01   1.121618e+01
  -8.958066e+01  -6.983508e+01
   3.217431e+00  -4.607771e+01
  -1.182167e+01  -2.275242e+01
   2.687506e+01   3.139338e+01
   1.793385e+01   3.367521e+01
   4.354119e+01   3.116479e+01
   6.410462e+01   2.251660e+01
   2.795503e+01  -2.669580e+00
   3.228676e+00   5.224181e+01
  -3.862419e+01   6.349837e+01
  -1.228546e+02   1.031748e+02
  -1.550859e+02  -1.423983e+01
  -6.941067e+01  -9.498878e+01
   1.081433e+01  -6.151691e+01
   8.320966e+01   5.087058e+00
   5.407410e+01   3.285619e+01
  -3.596131e+01   6.564338e+01
  -7.369224e+01   1.069730e+01
  -4.765076e+01  -7.118572e+01
   5.701204e+01  -2.712973e+01
   1.370052e+02  -3.303812e+00
   1.422195e+02   2.757199e+01
  -3.001949e+01   3.551456e+01
  -6.507674e+01   3.346916e+01
  -4.974018e+01   4.206152e+00
   5.692810e+01  -2.094280e+01
   3.932463e+01  -4.790781e+00
   2.937339e+01   8.972376e+01
  -5.336904e+01   1.121623e+02
  -9.614062e+01   4.526998e+01
  -2.756465e+01  -5.819210e+01
  -1.874235e+01  -1.593487e+02
   4.811482e+01  -8.066984e+01
   6.533569e+01   2.037137e+01
   3.548670e+01   7.638072e+01
  -6.750521e+00   5.488275e+01
  -7.693998e+00  -5.091755e+01
  -3.758389e+01  -1.215105e+01
  -1.058102e+01  -6.784238e+01
  -4.327341e+01  -1.638525e+01
  -7.175320e+00  -4.591422e+01
  -2.238849e+01  -4.109420e+01
  -2.226517e+00  -5.985935e+01
   6.956580e+01  -5.321936e+01
   8.941277e+01   3.576350e+01
   1.452376e+02   8.244730e+01
   1.629113e+01   1.300467e+01
  -8.066462e+00   4.218462e+01
   8.912068e+00   4.128969e+01
  -4.615951e+01  -3.932653e+01
   3.081397e+01  -1.198596e+01
   7.855733e+00   5.838317e+01
  -3.028430e+01   2.828751e+01
   1.627524e+01  -2.223560e+01
   6.670958e+01  -2.585131e+00
   4.468030e+01   6.872616e+00
  -3.881335e+00   1.393799e+01
  -7.913457e+01   1.054136e+02
  -1.040734e+02   5.446587e+01
  -6.405887e+01  -2.737737e+01
   1.182285e-01  -8.838161e+01
   1.799727e+01  -6.699049e+01
   3.405846e+01  -4.734469e+01
   6.812075e+01  -9.260619e-01
   2.817773e+01  -1.288517e+01
  -1.841232e+01   1.612862e+01
  -5.926754e+01  -9.217380e+00
  -2.687125e+01   2.561963e+01
   1.257849e+01   7.537077e+01
  -2.349350e+01   4.305502e+01
  -6.092307e+01  -3.497368e+01
  -5.645536e+01  -7.937037e+01
  -1.563841e+01  -8.976880e+01
   1.248537e+01  -1.928810e+01
   5.769972e+01   2.932913e+01
   2.676613e+01   3.353187e+01
  -9.521792e+00   1.427168e+01
  -1.895349e+01  -5.804659e+01
  -3.860652e+01  -9.001856e+01
   3.161459e+01  -3.770388e+01
   4.053159e+01  -1.530898e+01
  -1.877346e+01  -2.074328e+01
  -6.276221e+01   3.846382e+01
  -1.174627e+01   2.368198e+01
   2.910670e+01   1.877680e+01
   5.084311e+01  -4.987462e+01
   2.708938e+01  -2.261655e+01
   2.045539e+00   6.464020e+01
  -4.311509e+01   5.461840e+01
  -1.162750e+01  -6.825839e+01
  -7.670391e-01  -9.145307e+01
  -6.836259e+00   7.782006e+00
   6.451569e+01   2.169157e+01
   5.973579e+01   6.294772e+00
  -3.246875e+00   3.430428e+01
  -2.624527e+01   5.001543e+00
  -2.422322e+01  -6.389875e+01
  -1.855356e+01  -7.220921e+00
   3.017395e+01   3.824027e+01
   3.243895e+01   1.498752e+01
   2.813640e+01  -7.354893e+00
  -1.563496e+01  -3.343843e+01
   1.609631e+01  -6.960406e+00
   2.262481e+01   1.737099e+01
   4.409291e+01   1.299393e+01
  -2.604697e+01   4.766438e+01
  -7.041068e+01  -7.690221e+00
  -3.634938e+01  -8.644624e+00
   2.811081e+01  -3.059870e+01
   7.922115e+00   3.310750e+01
   3.939770e+01   1.232958e+01
   1.120565e+01   9.893400e+00
   1.269501e+01   2.533807e+01
   4.604144e+00   1.480614e+01
   2.272515e+01  -2.198235e+01
   5.005572e+01  -3.255232e+01
   9.768690e+00   7.829749e+00
   6.750660e+00   3.701997e+01
