
 $NMID
 id='ANONYMOUS ', fmtdat='(2E16.6)'
 volume=1.0
 tramp=1.0
 $END
  -4.141841e+03   6.611238e+01
  -2.478590e+03  -2.281084e+03
   4.473963e+02  -2.536436e+03
   1.681499e+03  -1.100894e+03
   9.927959e+02   3.293362e+02
  -3.615249e+02   4.540377e+02
  -6.788037e+02  -2.188462e+02
  -2.784359e+01  -8.027174e+02
   7.155852e+02  -7.075684e+02
   7.943604e+02   3.681503e+01
   3.948800e+02   7.365071e+02
  -1.578064e+02   7.138823e+02
  -4.358965e+02   1.075481e+02
  -2.490610e+02  -5.915834e+02
   1.576557e+02  -6.889025e+02
   4.877112e+02  -1.404872e+02
   2.606369e+02   6.310722e+02
  -1.413191e+02   5.618947e+02
  -5.092569e+02   1.927530e+02
  -3.731196e+02  -2.449379e+02
  -1.666219e+02  -4.055731e+02
   1.904476e+02  -2.552866e+02
   1.626374e+02  -4.267747e+00
  -2.243445e+02  -4.393061e+01
  -3.245517e+02  -2.450222e+02
  -1.371938e+02  -3.762443e+02
   5.403494e+02  -3.456753e+02
   8.259467e+02   1.297941e+02
   2.968445e+02   4.875750e+02
  -4.118496e+02   3.006224e+02
  -7.083236e+02  -1.041827e+02
  -2.781837e+02  -4.965686e+02
   3.367867e+02  -4.236996e+02
   5.150605e+02  -1.956444e+02
   3.556180e+02   2.267406e+02
   8.984022e+01   4.817413e+02
  -1.069434e+02   2.464510e+02
  -9.123424e+00  -1.359476e+02
   2.155758e+02  -2.966694e+02
   3.710018e+02   8.015237e+01
   8.447164e+01   6.031379e+02
  -2.890797e+02   6.347433e+02
  -5.119589e+02   8.117056e+01
  -1.745851e+02  -4.441986e+02
   2.951900e+02  -2.544286e+02
   2.503554e+02   2.796504e+02
  -9.004660e+01   5.426726e+02
  -5.341108e+02   1.282478e+02
  -5.332003e+02  -4.204617e+02
  -1.766319e+02  -6.169558e+02
   3.561780e+02  -3.443733e+02
   5.990322e+02   1.051459e+02
   3.159830e+02   3.530137e+02
  -1.562113e+02   2.620806e+02
  -3.873537e+02   6.233052e+01
  -1.834060e+02  -1.572196e+02
   8.373450e+01  -4.537561e+01
   9.098710e+01   1.396511e+02
  -1.198356e+02   7.417579e+01
  -3.025680e+02  -1.093645e+02
  -1.416963e+02  -2.157913e+02
   1.353900e+02  -2.197341e+02
   3.241068e+02  -1.592677e+02
   2.261300e+02   9.076664e+01
  -5.349014e+01   2.891126e+02
  -2.490139e+02   3.952232e+02
  -3.636420e+02   1.948402e+02
  -2.836017e+02  -1.733479e+02
  -3.744492e+01  -4.209686e+02
   1.703047e+01  -3.569822e+02
   4.823431e+01  -8.373489e+01
  -1.227911e+01  -8.805193e+01
   1.442927e+02  -1.413014e+02
   2.900366e+02  -1.192308e+02
   2.818382e+02   7.200357e+01
   1.673261e+02   3.086735e+02
  -5.274263e+01   1.924717e+02
  -1.849418e+02  -4.770628e+01
  -1.770915e+02  -2.487715e+02
   1.321094e+01  -2.698617e+02
   2.295413e+02  -9.288096e+01
   2.850579e+02   1.179203e+02
   1.961111e+02   2.974557e+02
  -4.852203e+00   2.501267e+02
  -1.996114e+02   1.064448e+02
  -2.111847e+02   3.762366e+01
  -1.327517e+02   6.714701e+01
  -2.205127e+02   3.897991e+01
  -3.681497e+02  -8.221498e+01
  -3.015072e+02  -3.415121e+02
   3.258404e+01  -4.938462e+02
   3.452665e+02  -4.072472e+02
   4.071414e+02  -1.689738e+02
   3.165150e+02   1.555817e+02
   2.958408e+01   2.882493e+02
  -9.385136e+01   2.365869e+02
  -5.378865e+01   4.265413e+01
   1.095324e+02  -1.053014e+02
   1.870003e+02  -2.395833e+01
   3.888379e+00   1.768986e+02
  -1.176770e+02   1.287607e+02
  -1.468494e+02  -7.924883e+01
   3.481001e+01  -2.012794e+02
   2.149482e+02  -2.024429e+01
   1.447593e+02   2.637466e+02
   1.788509e+01   3.153667e+02
  -1.962453e+02   2.394551e+02
  -3.204337e+02  -3.529355e+01
  -2.451910e+02  -2.701510e+02
  -1.405245e+01  -2.453340e+02
   1.321998e+02  -1.576167e+02
   1.286761e+02   3.389095e+01
   5.955387e+01   2.348830e+00
  -8.873363e+01  -6.722114e+01
  -5.194601e+01  -1.067893e+02
   1.105436e+02  -1.288197e+02
   1.539661e+02  -2.250105e+01
  -1.949143e+01   3.229291e+01
  -5.641346e+01  -5.740316e+01
  -3.881561e+01  -8.193708e+01
   1.580681e+02  -1.470231e+02
   3.017840e+02   4.693742e+01
   3.354814e+02   2.017591e+02
   2.135737e+01   3.175142e+02
  -2.047126e+02   2.254408e+02
  -2.502008e+02   8.252895e+01
  -1.524056e+02  -5.085646e+01
   1.109966e+01  -9.571244e+01
   9.172746e+01   4.386295e-02
  -9.451501e+01   9.401385e+01
  -2.204749e+02   5.574644e+01
  -2.288940e+02  -1.215920e+02
  -4.793576e+01  -2.721253e+02
   1.142508e+02  -2.051802e+02
   1.695477e+02   5.336410e+01
   6.718574e+01   6.735814e+01
  -5.523867e+01  -1.632255e+01
  -2.167380e+01  -1.561197e+02
   7.891888e+01  -1.380889e+02
   1.883906e+02  -7.862854e+00
   2.399650e+02   1.084035e+02
   5.095622e+01   2.166026e+02
  -1.700170e+02   1.815347e+02
  -1.870100e+02   6.051569e+01
  -4.734936e+01  -8.501180e+01
   7.520489e+01  -1.031559e+02
   3.578074e+01  -2.660574e+01
   5.083851e+01   1.995835e+01
  -8.890091e+00   2.405917e+01
   1.205555e+01   3.227568e+01
   1.198842e+02   1.620687e+01
   8.607400e+01   7.595747e+01
  -2.642584e+01   1.561935e+02
  -1.668843e+02   8.999612e+01
  -2.151518e+02   2.257891e+01
  -1.207802e+02  -1.357329e+02
  -8.788268e+01  -1.917196e+02
   1.107807e+02  -1.898248e+02
   1.297448e+02  -2.056429e+01
   9.195846e+01   5.371848e+01
   8.948827e+01   5.739599e+01
   7.762105e+01   1.244455e+01
   9.343414e+01   3.370656e+01
   7.195450e+01   5.231309e+01
  -5.338446e+01   7.335935e+01
  -1.292449e+02   4.899008e+01
  -1.121262e+02  -1.756855e+01
   3.923164e+00  -1.013458e+02
   1.320620e+02  -1.206004e+02
   1.570647e+02   6.261790e+01
   7.890464e+01   2.080950e+02
  -1.354641e+02   2.598225e+02
  -2.741471e+02   1.416848e+02
  -3.007128e+02  -1.371510e+02
  -1.275913e+02  -1.841234e+02
   3.452408e+01  -2.057546e+02
   9.892537e+01  -1.214371e+02
   7.521905e+01  -5.710308e+01
   4.906665e+01  -8.904623e+01
   6.651647e+01  -8.009885e+01
   1.003966e+02   1.636253e+01
   1.436138e+02   1.892947e+02
   1.988464e+01   1.985088e+02
  -1.264594e+02   1.712139e+02
  -2.091073e+02   6.347887e+01
  -1.678120e+02  -1.175560e+02
  -2.901389e+01  -1.984479e+02
   8.482367e+01  -8.829570e+01
   1.294318e+01   2.785509e+00
  -2.954442e+01  -2.038843e+01
  -4.414762e+01   5.631255e+00
   3.752041e+01   2.417461e+01
   6.343410e+01   3.636134e+01
   6.523076e+01   2.324356e+01
  -9.070722e+01   8.905270e+00
  -1.799951e+02   3.089550e+01
  -9.449679e+01  -1.354038e+02
  -8.009569e+00  -1.060885e+02
   5.417559e+01  -5.499292e+01
   1.322814e+02  -2.336992e+01
   4.044763e+00   2.171585e+00
  -8.871710e+01   3.641562e+01
  -1.038341e+02  -1.956282e+01
  -7.683807e+01  -5.846420e+01
   3.056682e+01  -1.378902e+02
   6.103395e+01  -3.175543e+00
   1.271174e+02   3.218207e+01
   6.485542e+01   2.000811e+01
   3.283277e+01   4.940727e+01
   6.798525e+01  -2.040731e+01
   3.978146e+01   6.128047e+01
  -4.492363e+01   1.076791e+02
  -1.374937e+02   1.416975e+02
  -1.614414e+02   3.234125e+01
  -1.237153e+02  -1.165103e+02
   1.218847e+01  -1.254919e+02
   9.319497e+01  -4.671958e+01
   8.381728e+01   3.401436e+01
  -5.233189e+01   3.166729e+01
  -9.241609e+01   4.256817e-01
  -8.556687e+01  -9.382085e+01
   6.939714e+00  -1.180821e+02
   1.586343e+02  -5.116792e+01
   1.771052e+02   8.740997e+01
   1.027950e+02   1.158225e+02
  -6.575357e+01   9.963449e+01
  -1.154155e+01   1.658573e+01
   7.694244e+01  -3.994077e+01
   1.365189e+02  -1.431041e+01
   3.405508e+01   9.370219e+01
  -1.013562e+02   8.942168e+01
  -1.881951e+02   8.653673e+01
  -1.286389e+02  -6.256851e+01
  -3.113084e+01  -2.406827e+02
   5.066955e+01  -1.842344e+02
   1.373332e+02   2.918823e+01
   6.477622e+01   1.905553e+02
  -5.891594e+01   1.754546e+02
  -8.842495e+01  -3.222112e+01
  -3.991813e+01  -6.983355e+01
  -2.673371e+01  -1.710096e+01
  -1.328799e+01   3.186771e+00
  -1.573630e+01  -1.277104e+01
  -4.067534e+01  -7.735873e+01
  -5.675937e+01  -1.205590e+02
   1.622901e+01  -4.198795e+01
   1.839036e+02   4.267134e+01
   1.121197e+02   7.921326e+01
  -6.849875e+00   7.431979e+01
  -1.134886e+02   7.571311e+01
  -1.033511e+02   1.117691e+01
   3.628059e+00  -3.947624e+01
   6.394951e+01   1.003466e+01
   6.876341e+01   2.778035e-01
  -3.954862e+01   3.688043e+01
  -3.557435e+00   3.855578e+00
   2.541510e+01  -4.089498e+01
   7.589898e+01   3.356804e+01
   3.566322e+01   8.090567e+01
  -9.445699e+01   1.428978e+02
  -1.783130e+02   7.470368e+01
  -1.409349e+02  -8.620893e+01
  -4.270838e+01  -1.362557e+02
   7.905069e+01  -1.284807e+02
   1.357892e+02  -3.700134e+01
   1.121935e+02   2.662899e+01
   2.890701e+01   2.479950e+01
  -1.794524e+01   4.121858e+01
   3.514094e+01   1.062014e+01
   2.752903e+01   1.990644e+01
   3.003532e+00   8.104045e+01
   1.141033e+01   7.802196e+01
  -1.064097e+02   1.193279e+01
  -7.936935e+00  -6.452892e+01
   3.371536e+01  -1.076232e+02
   5.350518e+01   1.108135e+01
   7.905562e+01   7.442902e+01
   2.265897e+00   1.416831e+02
  -1.062107e+02   7.324822e+01
  -1.437085e+02  -2.292848e+01
  -6.573649e+01  -5.470191e+01
   4.654495e+01  -4.897841e+01
   2.107635e+01  -2.813485e+00
  -2.228795e+01  -1.685302e+01
  -7.097172e+01   4.057000e+01
  -1.718812e+01  -3.504956e+00
   2.986214e+01  -5.267107e+01
   5.596683e+01  -4.210528e+01
   7.988513e+01   2.138017e+01
   2.896028e+01   3.402815e+01
  -4.673363e+01   6.153866e+01
  -3.311816e+01  -1.387348e+01
   7.086095e+01  -4.915583e+01
   4.169336e+01  -6.760328e+01
   2.464149e+01  -1.490571e+01
   2.694536e+01   9.441267e+01
   1.058581e+01   8.167173e+00
  -5.704963e+01   3.502626e+01
   6.234485e+00  -3.324264e+01
  -5.255824e+01  -1.637487e+01
  -2.495301e+00   4.290918e+01
   3.224137e+01   1.328512e+01
  -3.409046e+01  -5.041288e+01
  -3.198468e+01  -6.596208e+01
  -1.689865e+00  -3.991927e+01
   1.029589e+00  -3.214633e-01
  -1.710160e+01  -1.755374e+01
  -3.039546e+01   2.745295e+01
  -7.177201e+01  -6.304337e+01
  -3.043360e+01  -7.307544e+01
   9.504282e+01  -5.210950e+01
   8.100665e+01   1.349848e+01
   4.659313e+01  -6.823729e+00
  -2.243752e+01   6.727749e+01
  -8.322285e+01   4.073935e+01
  -1.575578e+01   1.957825e+01
   7.615178e+01   3.643995e+00
   7.702030e+01   3.998091e+01
  -3.243026e+01   1.520415e+01
  -9.056980e+01   1.173547e+01
