
 $NMID
 id='ANONYMOUS ', fmtdat='(2E16.6)'
 volume=1.0
 tramp=1.0
 $END
  -3.182650e+03  -7.897316e+01
  -2.030358e+03  -1.950874e+03
   2.980598e+02  -2.083641e+03
   1.508557e+03  -9.356275e+02
   8.343827e+02   1.322199e+01
  -2.196490e+02   3.479324e+02
  -4.810269e+02  -3.018226e+02
  -8.042962e+01  -6.532566e+02
   6.166863e+02  -6.524776e+02
   6.660303e+02  -3.402673e+01
   3.425156e+02   6.400777e+02
  -1.268005e+02   6.327649e+02
  -3.540447e+02   1.827183e+02
  -2.755912e+02  -5.547796e+02
   1.336214e+02  -5.627060e+02
   3.443917e+02  -1.204412e+02
   2.122706e+02   5.000682e+02
  -2.059948e+02   6.141258e+02
  -5.366310e+02   1.339985e+02
  -3.891352e+02  -2.560549e+02
  -1.191627e+02  -3.991154e+02
   2.037893e+02  -2.487716e+02
   1.067249e+02  -1.040924e+02
  -8.340511e+01  -6.340983e+01
  -3.292853e+02  -2.039533e+02
  -1.730267e+01  -3.711391e+02
   4.774481e+02  -2.628918e+02
   6.937572e+02   1.809118e+02
   3.318043e+02   4.282016e+02
  -2.941194e+02   3.627449e+02
  -5.775073e+02  -1.138688e+02
  -1.819952e+02  -4.345457e+02
   3.226986e+02  -4.027982e+02
   4.650847e+02  -1.807869e+02
   3.446197e+02   2.068450e+02
   4.458304e+01   4.212174e+02
  -9.005363e+01   2.035075e+02
  -3.647873e+01  -1.463202e+02
   1.965524e+02  -3.074038e+02
   2.849255e+02   8.098683e+01
   1.795607e+02   5.692731e+02
  -2.284784e+02   4.863182e+02
  -4.267418e+02  -8.846522e+01
  -1.914027e+02  -3.910562e+02
   1.902366e+02  -1.898198e+02
   2.609915e+02   3.064842e+02
  -9.940431e+01   4.272569e+02
  -4.348323e+02   4.952617e+01
  -4.449023e+02  -3.760232e+02
  -1.585837e+02  -4.419332e+02
   3.152897e+02  -2.246639e+02
   5.327503e+02   7.171503e+01
   3.237209e+02   3.064159e+02
  -6.462479e+01   3.391295e+02
  -3.225202e+02   1.420753e+02
  -2.362374e+02  -9.352009e+01
   3.597232e+01  -3.113227e+01
   8.176509e+01   1.214985e+02
  -9.193108e+01   1.563971e+02
  -2.914743e+02  -2.714006e+01
  -1.293520e+02  -2.051595e+02
   1.908297e+02  -2.248665e+02
   3.475393e+02  -1.092819e+02
   2.002192e+02   1.106477e+02
  -3.605619e+01   2.261492e+02
  -2.680217e+02   3.370862e+02
  -3.589516e+02   1.607424e+02
  -2.584634e+02  -1.690445e+02
  -1.462819e+01  -4.245647e+02
   1.409812e+01  -3.044175e+02
   2.669278e+01  -1.840708e+02
   2.131291e+01  -5.325395e+01
   8.085049e+01  -9.258733e+01
   2.428192e+02  -5.851640e+01
   2.353930e+02   1.130491e+02
   8.510982e+01   2.600154e+02
  -4.150399e+01   2.663234e+02
  -1.972130e+02  -1.019234e+01
  -1.662361e+02  -2.061072e+02
  -5.753574e+00  -2.189744e+02
   2.142763e+02  -3.965768e+01
   2.708794e+02   1.530659e+02
   1.438573e+02   3.025264e+02
  -1.157307e+02   2.255909e+02
  -1.893289e+02   1.325843e+02
  -1.305032e+02   4.208498e+01
  -1.122029e+02   7.971929e+01
  -2.468227e+02   3.943625e+01
  -3.583009e+02  -9.067730e+01
  -2.947858e+02  -2.950102e+02
  -3.954667e+00  -3.966721e+02
   3.536713e+02  -3.559124e+02
   4.452856e+02  -1.508117e+02
   2.497423e+02   5.717712e+01
   5.388581e+01   2.407310e+02
  -1.178321e+02   1.597674e+02
  -4.638131e+01   6.806228e+01
   9.528945e+01  -9.778712e+01
   1.337490e+02   2.148758e+01
   3.928330e+01   1.537521e+02
  -1.238994e+02   1.424349e+02
  -1.196802e+02  -5.885936e+01
  -1.267538e+01  -1.286360e+02
   1.927179e+02   1.701068e+01
   1.744425e+02   2.426141e+02
  -2.302884e+01   3.015545e+02
  -2.477346e+02   1.893988e+02
  -3.144061e+02  -9.552507e+01
  -2.680914e+02  -2.687881e+02
  -5.281251e+01  -2.262897e+02
   4.753541e+01  -1.326794e+02
   1.412581e+02  -4.894542e+01
   4.322362e+01  -8.492473e+00
   6.712208e-01  -7.028859e+01
   4.468092e+01  -1.004833e+02
   8.695169e+01  -7.154290e+01
   1.496443e+02   2.979616e+01
   3.211269e+01   7.738961e+01
  -5.679416e+01   1.486573e+01
   5.253019e-01  -1.040677e+02
   1.256451e+02  -6.420114e+01
   2.736841e+02   2.489650e+01
   2.077181e+02   1.935945e+02
   6.642033e+01   2.426501e+02
  -2.354741e+02   2.242034e+02
  -2.340725e+02   1.259117e+02
  -1.601558e+02  -6.625896e+01
   3.638912e+00  -9.870262e+01
   1.980833e+01  -7.521696e+00
  -2.424072e+01   9.290200e+01
  -2.038851e+02   1.459196e+01
  -1.638386e+02  -1.440043e+02
  -4.998922e+01  -1.954240e+02
   1.134680e+02  -1.421430e+02
   1.004718e+02  -2.836368e+01
   2.337399e+01   5.398754e+01
  -6.076356e+01  -5.236984e+01
  -2.601485e+01  -8.987494e+01
   1.085089e+02  -1.766623e+02
   2.127227e+02  -1.565430e+01
   1.628832e+02   1.029958e+02
   2.565595e+01   1.982001e+02
  -1.399330e+02   1.800700e+02
  -1.659645e+02   1.663838e+01
  -6.969015e+01  -9.725113e+01
   4.752582e+01  -7.085985e+01
   1.017057e+02  -5.205497e+00
   2.335108e+01   2.809312e+01
  -1.723086e+01   5.104564e+00
  -4.014562e+00  -5.085455e+00
   6.010548e+01  -4.598256e+01
   8.998888e+01   5.390103e+01
   4.174667e+01   1.714472e+02
  -1.273478e+02   1.597577e+02
  -2.126629e+02   3.042144e+01
  -2.051385e+02  -1.731481e+02
  -2.489538e+01  -2.693142e+02
   1.131816e+02  -1.804282e+02
   1.485134e+02   9.775052e+00
   3.515698e+01   6.072139e+01
   4.545479e+01   2.236159e+00
   6.427531e+01  -5.333530e+01
   1.129395e+02  -3.285428e+01
   8.231634e+01   6.155280e+01
  -1.466273e+01   5.240160e+01
  -8.757845e+01   7.629341e+01
  -9.293070e+01  -6.302319e+01
   5.571043e+01  -6.936587e+01
   1.417514e+02  -7.673174e+01
   2.138712e+02   5.517619e+01
   8.689175e+01   2.087357e+02
  -1.477836e+02   1.654675e+02
  -2.110197e+02   1.299460e+01
  -2.151524e+02  -6.483971e+01
  -9.388893e+01  -1.494677e+02
   1.561334e+01  -1.115969e+02
   6.376889e+01  -8.134212e+01
   1.024697e+02  -2.606914e+01
   4.454149e+01  -1.114758e+02
   1.085352e+02  -1.206150e+02
   1.334325e+02   6.536105e+01
   9.833355e+01   1.522234e+02
   7.725025e+01   2.321541e+02
  -7.711486e+01   1.537965e+02
  -1.444047e+02  -4.974599e+00
  -1.168347e+02  -1.189986e+02
  -1.642901e+01  -2.127441e+02
   7.907381e+01  -9.550425e+01
   5.616059e+01   7.094493e+00
   3.971547e+01   4.993898e+01
  -2.261708e+01   8.615247e+01
  -1.654852e+01  -1.600442e+01
   5.820284e+01   7.801059e+01
   4.059252e+01   5.802791e+01
  -5.084106e+01   1.288581e+01
  -1.648812e+02   3.975735e+00
  -1.048855e+02  -4.036176e+01
  -2.533550e+01  -2.644451e+01
   9.056621e+01  -6.586029e+01
   1.750137e+02  -5.968086e+00
   2.304612e+01   2.109497e+01
  -6.327926e+01   6.252292e+01
  -8.726537e+01  -4.045416e+01
  -8.186977e+00  -4.460311e+01
   8.938149e+01  -8.717839e+01
   9.474789e+01  -4.189996e+01
   6.988570e+01   6.041861e+01
   4.109343e+01   7.824100e+01
  -9.264459e+00   1.403014e+01
   1.852649e+01   3.544942e+01
   1.517163e+01   6.462683e+01
  -7.994570e+01   1.321104e+02
  -1.103100e+02   1.182521e+02
  -1.644730e+02  -1.290420e+01
  -9.424754e+01  -8.751279e+01
  -1.665298e+01  -1.201033e+02
   9.294946e+01  -3.400012e+01
   6.228886e+01   3.987492e+01
  -2.687431e+01   3.575519e+01
  -1.333042e+02  -7.892060e+00
  -5.526549e+01  -6.928841e+01
   7.505658e+01  -4.317832e+01
   1.797485e+02  -6.742242e+01
   1.483332e+02   3.093592e+01
   2.733510e+00   9.945522e+01
  -5.594868e+01   7.104798e+01
  -1.063869e+02   3.216434e+01
   4.677819e+01   1.037584e+01
   7.373258e+01  -7.341667e+00
  -1.589333e+00   6.836457e+01
  -7.876635e+01   1.701315e+02
  -2.066886e+02   5.354081e+01
  -1.348896e+02  -5.586537e+01
  -2.989621e+01  -1.575313e+02
   1.903495e+00  -1.962551e+02
   1.263348e+02   2.117928e+01
   5.794499e+01   7.222991e+01
  -4.194440e+01   8.100113e+01
  -1.041106e+02  -6.360615e+00
  -3.099696e+01  -5.794683e+01
  -2.836405e+01  -3.279277e+01
   5.427638e+00  -5.737225e+00
   5.009762e+00  -5.803981e+01
  -4.321224e+01  -9.145178e+01
  -6.811348e+01  -8.199249e+01
   8.901452e+00  -9.871338e+00
   1.512453e+02  -1.905321e+00
   1.439531e+02   4.399612e+01
   4.118739e+01   4.498166e+01
  -1.043041e+02  -1.432689e+01
  -7.569033e+01   3.924762e+01
  -5.499452e+01  -2.827729e+01
   6.940743e+01  -1.686451e+01
   4.278844e+01  -1.895664e+01
   2.641578e+01   3.957968e-01
   5.607816e+00   4.982675e+00
   1.604652e+01   2.016656e+00
   5.479502e+01   3.722876e+01
  -2.590425e+01   1.236231e+01
  -7.756859e+01   7.021795e+01
  -1.735310e+02   6.651899e+01
  -1.443591e+02  -8.463114e+01
  -2.035605e+01  -1.653617e+02
   5.448768e+01  -1.917713e+02
   1.254986e+02  -9.198936e+01
   8.604706e+01  -1.096176e+01
   7.082811e+01   3.840382e+00
  -2.434244e+01   3.564596e+01
   3.262310e-01  -3.150872e+00
   2.201131e+01   5.732170e+01
  -2.115600e+01   8.081433e+01
  -6.499458e+01   7.208875e+01
  -2.219787e+01  -2.093205e+01
  -5.647999e+01  -6.906390e+01
  -1.691185e+00  -9.556074e+01
   8.667131e+01  -5.759886e+01
   1.327210e+02   7.681391e+01
   5.629338e+01   1.168696e+02
  -1.325248e+01   5.211047e+01
  -8.346679e+01  -5.560274e+01
  -5.111628e+01  -7.719634e+01
   2.268108e+01  -7.053808e+01
   2.221600e+01  -1.917889e+01
  -6.533010e+00   1.109726e+01
  -1.038712e+02   1.742727e+01
  -4.820998e+01  -4.398533e+01
   1.198886e+02  -8.431020e+01
   8.454185e+01  -3.927615e+01
   7.056650e+01  -7.284294e+00
   9.309149e+00   7.219649e+01
  -3.799429e+01   9.633105e+01
   9.401011e+00   1.295046e+01
   9.784664e+00  -8.528229e+01
   3.769501e+01  -4.144054e+01
   2.708648e+01   3.934624e+00
   6.441916e+01   7.303908e+01
  -3.237357e+00   5.192716e+01
  -4.063077e+01  -2.117584e+01
  -6.203009e+01  -3.192193e+01
  -5.203041e+01   2.274951e+01
  -1.321367e+01   1.710477e+01
   4.543821e+01  -4.535154e+01
   3.428417e+01  -2.629803e+01
  -6.062312e+00  -3.838104e+01
   4.103003e+01   3.494371e+01
   3.018859e+01   3.064630e+01
   1.570464e+01   7.489914e+01
  -4.075047e+01   3.643875e+01
  -7.627058e+01  -5.283454e+01
   1.346890e+01  -2.145088e+01
   6.468209e+01  -2.572773e+01
   9.717246e+01  -9.730897e+00
  -6.239228e+00   4.504668e+01
   3.195524e+01   4.323301e+01
  -1.693093e+01   2.765652e+01
   3.344632e+01  -9.768477e+00
   1.995828e+01   1.939197e+01
   6.888490e+01   7.443476e+00
   1.967321e+00   5.601409e+01
  -9.002093e+01   1.611534e+01
