
 $NMID
 id='ANONYMOUS ', fmtdat='(2E16.6)'
 volume=1.0
 tramp=1.0
 $END
  -4.247699e+03  -9.667484e+01
  -2.450304e+03  -2.180853e+03
   3.484424e+02  -2.555519e+03
   1.580981e+03  -1.337346e+03
   9.357884e+02   6.421709e+01
  -1.921261e+02   4.637526e+02
  -6.650867e+02  -2.342950e+02
  -9.816692e+01  -7.618318e+02
   6.429748e+02  -7.315591e+02
   8.236822e+02   1.534818e+01
   4.640752e+02   6.574034e+02
  -4.341312e+01   7.764279e+02
  -3.447169e+02   2.620823e+02
  -3.106105e+02  -5.335306e+02
   2.011005e+02  -6.623363e+02
   4.831167e+02  -5.180825e+01
   2.902728e+02   5.791056e+02
  -1.815672e+02   6.106454e+02
  -5.665810e+02   2.352315e+02
  -4.227600e+02  -2.590356e+02
  -9.358044e+01  -4.713651e+02
   2.238965e+02  -2.840834e+02
   1.535083e+02  -1.471401e+02
  -2.795515e+01  -3.364511e+01
  -2.450877e+02  -2.877430e+02
  -6.531852e+01  -4.241936e+02
   5.130395e+02  -2.756169e+02
   7.919397e+02   1.246576e+02
   3.751695e+02   4.156956e+02
  -3.456577e+02   3.489683e+02
  -6.497333e+02  -9.171436e+01
  -2.977944e+02  -4.562241e+02
   2.379275e+02  -4.247771e+02
   4.587522e+02  -1.306134e+02
   3.960635e+02   1.365875e+02
   1.008741e+02   3.821300e+02
  -5.258192e+01   2.904419e+02
  -7.488732e+01  -7.833357e+01
   8.429051e+01  -2.451898e+02
   3.359922e+02   1.042105e+02
   1.501068e+02   5.500219e+02
  -3.268923e+02   5.485931e+02
  -4.559473e+02  -2.348562e+01
  -1.726915e+02  -3.998507e+02
   1.906732e+02  -2.006523e+02
   3.264248e+02   3.194657e+02
  -6.959202e+01   5.202129e+02
  -4.966033e+02   1.207538e+02
  -5.734933e+02  -3.465242e+02
  -2.564770e+02  -5.336243e+02
   2.718814e+02  -2.985102e+02
   5.602031e+02   3.232748e+01
   3.963222e+02   2.962439e+02
  -8.252560e+01   2.815012e+02
  -3.165992e+02   9.735239e+01
  -2.488183e+02  -1.082717e+02
   5.563515e+01  -7.887460e+01
   1.284162e+02   1.097549e+02
  -1.042531e+02   1.324265e+02
  -3.263050e+02  -9.623909e+00
  -1.302432e+02  -2.430738e+02
   2.323842e+02  -2.571274e+02
   3.496431e+02  -1.098293e+02
   3.081166e+02   5.886801e+01
  -5.860739e+01   2.455987e+02
  -2.311293e+02   3.076831e+02
  -3.742733e+02   2.455535e+02
  -2.651421e+02  -1.312019e+02
  -8.585312e+01  -3.281249e+02
   4.978419e+01  -3.157142e+02
   5.996017e+01  -1.039053e+02
  -1.949366e+01  -1.254367e+02
   6.559960e+01  -9.636457e+01
   1.857904e+02  -4.126998e+01
   2.572606e+02   9.712838e+01
   1.036429e+02   2.517752e+02
  -8.681383e+01   1.804099e+02
  -2.643582e+02  -1.880424e+01
  -1.425285e+02  -2.177363e+02
   1.037213e+01  -2.319077e+02
   2.882389e+02  -4.533848e+01
   2.966374e+02   1.628734e+02
   1.499180e+02   3.297978e+02
   1.594058e+01   2.775276e+02
  -1.582967e+02   1.491616e+02
  -1.530230e+02   8.120630e+01
  -1.429724e+02   9.268209e+01
  -2.946236e+02   1.459459e+01
  -3.919567e+02  -9.454825e+01
  -3.666954e+02  -3.105333e+02
   1.624570e+01  -4.477082e+02
   3.365162e+02  -4.122607e+02
   4.856192e+02  -1.779610e+02
   3.050572e+02   8.250703e+01
   4.165654e+01   1.965961e+02
  -8.756524e+01   2.293437e+02
  -6.163833e+00   9.525041e+01
   1.151623e+02  -8.705153e+01
   1.595108e+02   6.633280e+01
   1.204902e+01   8.811396e+01
  -1.439784e+02   9.550969e+01
  -1.267992e+02  -5.360578e+01
   1.668851e+01  -1.183989e+02
   1.992502e+02  -1.169722e+01
   1.540725e+02   2.104229e+02
  -4.450421e+01   3.113602e+02
  -2.060282e+02   1.754763e+02
  -2.999695e+02  -7.201225e+01
  -3.052638e+02  -2.078624e+02
  -9.280638e+01  -2.937646e+02
   1.225627e+02  -1.761921e+02
   1.434834e+02  -5.522932e+01
   7.379205e+01  -6.486467e+00
  -6.614856e+01  -4.744480e+01
  -3.482045e+01  -1.138295e+02
   1.217214e+02  -4.747102e+01
   1.342309e+02   3.611164e+01
   3.599557e+01   8.088218e+01
  -8.963897e+01  -2.245200e+01
  -3.486162e+01  -8.427276e+01
   1.196954e+02  -8.304026e+01
   3.058343e+02   5.185380e+01
   2.122278e+02   1.395619e+02
   5.022749e+01   2.314100e+02
  -1.862634e+02   2.248546e+02
  -2.252460e+02   1.036481e+02
  -1.334241e+02  -2.550035e+01
   8.791279e+01  -7.275075e+01
   1.076352e+02  -6.869001e+00
  -5.177402e+01   1.029626e+02
  -2.343604e+02   2.298801e+01
  -1.991611e+02  -1.088578e+02
  -7.225901e+01  -1.730787e+02
   8.037039e+01  -1.582020e+02
   1.368934e+02  -6.817661e+01
   6.076466e+01   1.273778e+01
  -6.258341e+00  -1.499329e+01
  -1.016528e-02  -6.869996e+01
   8.271667e+01  -9.279037e+01
   2.366531e+02  -3.497125e+00
   2.019562e+02   1.402303e+02
  -6.508254e+01   2.045964e+02
  -1.709329e+02   1.706357e+02
  -2.258822e+02  -3.534401e+01
  -4.354339e+01  -1.495761e+02
   7.222962e+01  -1.166053e+02
   9.507312e+01  -6.278869e+01
   3.599767e+01   6.453302e+00
  -5.803516e+01  -1.901579e+01
   1.161808e+01  -2.224252e+01
   7.647211e+01  -5.750707e+00
   5.664275e+01   1.239185e+02
   1.853548e+01   1.454617e+02
  -1.156134e+02   1.523248e+02
  -2.501090e+02  -2.150798e+00
  -1.820128e+02  -1.751110e+02
  -5.338011e+01  -2.575428e+02
   1.269410e+02  -2.248994e+02
   1.580592e+02  -5.002271e+01
   8.556274e+01   3.706515e+01
   7.492584e+01   3.537944e+01
   6.741863e+01   5.015355e+00
   9.457288e+01   6.820693e+00
   7.229204e+01   5.709900e+00
  -2.066969e+01   6.448568e+01
  -1.427805e+02  -5.149832e+00
  -9.115072e+01  -3.908463e+01
   4.507889e+01  -8.830150e+01
   1.346952e+02  -4.492942e+01
   2.202768e+02   3.708716e+01
   6.644841e+01   2.104904e+02
  -1.264780e+02   1.616645e+02
  -2.511616e+02   5.796903e+01
  -2.583774e+02  -1.508503e+02
  -5.755699e+01  -1.493501e+02
   7.575035e+01  -1.330163e+02
   7.103653e+01  -7.362821e+01
   1.075854e+02  -5.887334e+01
   2.351479e+01  -4.698065e+01
   1.021505e+02  -1.115010e+02
   1.059590e+02  -2.139868e+01
   1.042945e+02   1.100022e+02
   1.144440e+02   2.167135e+02
  -6.391096e+01   1.867549e+02
  -1.598654e+02   7.213639e+01
  -9.008588e+01  -1.043709e+02
  -8.030815e+00  -1.026906e+02
   5.353066e+01  -1.226783e+02
   3.092106e+01   6.399967e+00
  -2.203740e+01   1.593581e+01
  -2.417268e+01   1.758933e+01
   2.967708e+01   2.937783e+01
   8.853030e+01   8.720149e+01
   4.700310e+01   4.191455e+01
  -6.232542e+01   5.059985e+01
  -1.252697e+02   3.926702e+01
  -8.734820e+01  -4.884780e+01
  -2.270262e+01  -1.011424e+02
   1.318412e+02  -5.447856e+01
   1.758872e+02  -2.049245e+01
   5.488060e+01   5.725752e+01
  -3.812791e+01   4.781269e+01
  -4.283162e+01  -4.966068e+01
   2.273932e+01  -7.449740e+01
   9.200050e+01  -6.898850e+01
   7.625214e+01   1.798219e+01
   7.109822e+01   6.681597e+00
   5.941171e+01   3.426993e+01
   1.052906e+02   4.754087e+00
   5.876490e+01   3.188406e+01
   6.391508e+01   8.744892e+01
  -5.311050e+01   1.251283e+02
  -1.447928e+02   8.455914e+01
  -1.578562e+02   4.314673e+01
  -1.190762e+02  -1.057895e+02
   2.866220e+01  -9.591920e+01
   4.021228e+01  -6.677764e+01
   5.751393e+01  -6.882282e+00
  -8.028339e+01   2.563060e+01
  -1.215517e+02  -4.937921e+01
  -3.885133e+01  -1.422583e+02
   4.264643e+01  -1.015026e+02
   1.785897e+02  -4.259550e+01
   1.549252e+02   3.331449e+01
   3.936944e+01   2.975054e+01
  -1.479501e+01   4.205719e+01
  -7.820144e+01  -1.190360e+01
   2.942730e+01  -6.307588e+01
   8.873084e+01   2.481181e+00
   7.816873e+01   1.069240e+02
  -5.700880e+01   1.905579e+02
  -1.892434e+02   5.188432e+01
  -1.385033e+02  -8.029461e+01
  -2.617222e+01  -1.788332e+02
   3.652655e+01  -1.088284e+02
   7.006961e+01   1.904616e+01
   4.708170e+01   9.923540e+01
   4.258732e+00   6.668021e+01
  -2.193394e+01   1.112509e+01
   1.619908e+01  -3.374266e+01
  -4.222438e+01  -3.536503e+01
  -4.087750e+01  -3.032960e+01
  -5.379256e+01  -5.160168e+01
  -6.994526e+01  -9.895350e+01
   7.635627e+00  -1.489562e+02
   4.254048e+01  -2.396594e+01
   1.639842e+02   1.282725e+01
   1.033276e+02   9.232451e+01
  -5.398984e+00   5.399290e+01
  -9.175669e+01   2.185753e+01
  -9.635418e+01   5.128908e+01
  -3.102631e+01   2.819711e+01
   3.000384e+01  -2.910172e+01
  -7.229651e+00   6.979704e+00
  -1.935295e+01   2.750386e+00
  -6.667000e+00  -1.505875e+01
   9.461048e+00  -2.067743e+01
   8.713775e+01   6.486533e-01
   4.197889e+01   5.254885e+01
  -1.043083e+02   8.187953e+01
  -1.596834e+02   2.774083e+01
  -1.317481e+02  -7.604712e+01
  -8.632725e+00  -1.438500e+02
   6.322256e+01  -1.458855e+02
   6.714387e+01  -4.846853e+01
   7.670511e+01   2.992000e+01
   3.674398e+01   1.545205e+01
  -5.616702e+00   2.152617e+00
   3.247948e+01   9.601814e+00
   1.159618e+01   8.748651e+01
  -4.154338e+01   1.246709e+02
  -5.879002e+01   9.479065e+01
  -8.453625e+01  -3.070044e+01
  -6.711452e+01  -1.445218e+02
   7.620549e+00  -6.244108e+01
   7.361487e+01  -2.191136e+00
   1.021058e+02   8.373340e+01
   6.681741e+01   1.152721e+02
  -6.678840e+01   5.524878e+01
  -9.283054e+01  -4.813137e+01
  -6.376593e+01  -8.665522e+01
   8.970576e+00  -8.214219e+01
   2.630638e+01  -7.196665e+01
   1.340055e+00   9.165147e+00
  -7.868433e+01  -2.783757e+01
  -1.181655e+01  -5.468095e+01
   8.291979e+01  -6.191838e+01
   7.906815e+01  -6.532842e+01
   1.004926e+02   2.894689e+01
   8.832958e-01   1.080751e+02
  -3.749849e+01   8.557841e+01
  -9.055435e+00  -9.911858e-01
  -3.342125e+00  -3.987922e+01
   3.224755e+01  -8.791797e+00
   8.058441e+00  -4.325687e+00
   4.386553e+01   1.937432e+01
  -9.026200e+00   2.815154e+01
  -4.176753e+01   9.652927e+00
  -3.052603e+01  -1.901846e+01
  -1.448796e+01  -1.611618e+00
  -1.724446e+01   2.503944e+01
   9.773311e+00  -1.309793e+01
  -1.689551e+01  -4.847610e+01
  -1.940646e+01  -1.293427e+02
   2.505066e+01  -7.594119e+01
   1.144479e+01  -5.684436e+00
   3.302731e+01   5.410964e+01
  -2.352556e+01   5.482247e+01
  -3.889768e+01  -2.535256e+01
  -1.059501e+01  -6.566009e+01
   4.894314e+01  -9.308916e+01
   7.576902e+01  -2.604308e+01
   5.188414e+01   4.545738e+01
  -6.042396e+00   5.563507e+01
  -4.056255e+01  -1.597055e+00
  -3.961768e+01   6.129499e+01
   2.872461e+01  -1.082014e+01
   2.029268e+01   4.273508e+01
  -4.277940e+01   7.876371e+01
  -1.155861e+02   1.414178e+01
