
 $NMID
 id='ANONYMOUS ', fmtdat='(2E16.6)'
 volume=1.0
 tramp=1.0
 $END
  -1.861925e+03  -6.758981e+01
  -1.375003e+03  -9.491818e+02
  -1.889724e+02  -1.360757e+03
   6.717284e+02  -1.116903e+03
   8.698048e+02  -4.127705e+02
   2.811452e+02   1.315091e+02
  -7.057397e+01   7.706534e+01
  -5.497425e+01  -2.594279e+02
   1.853825e+02  -3.973167e+02
   4.021157e+02  -1.379457e+02
   3.188534e+02   2.256035e+02
   1.680713e+02   4.849633e+02
  -8.583566e+01   1.696847e+02
  -1.100509e+02  -2.049638e+02
   3.961507e+01  -3.047166e+02
   2.397808e+02  -1.340557e+02
   3.166027e+02   3.583585e+02
  -4.814642e+01   5.338842e+02
  -3.763257e+02   2.328533e+02
  -3.439971e+02  -9.243997e+01
  -1.405774e+02  -1.937457e+02
   5.041149e+01  -1.742502e+02
   1.182835e+01  -7.937882e+01
  -2.006190e+02  -1.455072e+02
  -1.835717e+02  -2.869066e+02
   3.205351e+01  -2.563251e+02
   3.272359e+02  -2.458293e+01
   3.963093e+02   2.142301e+02
   1.180754e+02   1.873419e+02
  -1.991286e+02   2.292680e+01
  -3.004354e+02  -1.274044e+02
  -9.875313e+01  -2.115926e+02
   1.848322e+02  -2.049686e+02
   2.830997e+02  -8.116604e+01
   2.053282e+02   6.449038e+01
   1.040631e+02   2.102139e+02
   6.341939e+01   1.191172e+02
   9.504619e+01   2.855589e+01
   1.347243e+02  -5.791973e+01
   9.197453e+01   1.137400e+02
  -8.471427e+01   3.406123e+02
  -2.094420e+02   2.802360e+02
  -1.227138e+02  -4.597658e+01
   1.366695e+01  -1.896967e+02
   1.251197e+02  -7.630077e+00
  -7.892648e+00   2.526097e+02
  -1.435866e+02   2.312869e+02
  -3.345725e+02   1.455144e+01
  -2.941368e+02  -2.855436e+02
  -9.967499e+01  -3.630722e+02
   2.265631e+02  -1.894613e+02
   2.912168e+02  -1.430977e-01
   2.477023e+02   1.213741e+02
  -2.744529e+01   1.859639e+02
  -1.628992e+02   7.625361e+01
  -1.867417e+02   5.308486e+01
  -8.940275e+01   2.000311e+00
  -1.548453e+01  -3.960947e+01
  -1.826336e+01   3.241114e+01
  -9.884121e+01   1.176625e+01
  -7.819775e+01  -1.067084e+02
   1.522612e+02  -1.851721e+02
   2.736606e+02  -9.715033e+01
   2.079718e+02   8.352051e+01
  -4.762090e+01   3.044491e+02
  -2.126567e+02   2.807262e+02
  -2.778647e+02   7.206890e+01
  -1.737438e+02  -1.285249e+02
  -9.036067e+01  -1.984130e+02
  -1.224361e+00  -2.079027e+02
   1.657877e+01  -1.965549e+02
   4.270385e+01  -1.332383e+02
   1.168925e+02  -9.653089e+01
   1.757628e+02   4.033614e+01
   1.359054e+02   1.287422e+02
   4.062807e+01   2.115136e+02
  -1.340016e+02   1.347317e+02
  -1.647750e+02  -4.525005e+01
  -9.210982e+01  -2.048923e+02
   1.127064e+02  -2.363276e+02
   2.110642e+02  -4.062018e+01
   2.528366e+02   1.803763e+02
   1.042709e+02   1.893834e+02
  -1.063541e+01   2.365408e+02
  -9.540348e+01   1.664333e+02
  -1.369105e+02   7.638096e+01
  -1.408682e+02   1.016150e+02
  -2.381281e+02   2.590428e+01
  -2.911716e+02  -9.023652e+01
  -2.850321e+02  -2.382076e+02
   4.971327e+01  -3.914925e+02
   2.685022e+02  -2.980035e+02
   3.630708e+02  -8.951215e+01
   2.077561e+02   7.948311e+01
   6.165699e+01   1.540935e+02
  -6.016151e+01   1.743936e+02
  -2.336452e+01   5.882180e+01
   4.824439e+01  -4.103246e+01
   7.000658e+01   9.285021e-01
   1.530249e+01   7.268366e+01
  -4.122414e+01   7.948343e+01
  -6.868326e+01  -5.822790e+01
   3.279433e+01  -9.155011e+01
   1.490737e+02  -2.988527e+01
   1.334094e+02   2.126739e+02
  -1.144384e+01   2.406958e+02
  -1.904461e+02   1.763060e+02
  -2.827029e+02  -1.040290e+02
  -2.118356e+02  -2.340587e+02
  -3.848655e+01  -2.064065e+02
   1.186139e+02  -9.298558e+01
   9.404318e+01   2.950491e+01
  -1.697274e+00   6.849167e+00
  -1.312462e+01   3.187597e-01
  -1.037077e+00  -7.087211e+01
   7.988048e+01  -5.499612e+01
   9.911586e+01  -1.286300e+00
   1.339811e+01   1.399728e+01
  -4.401379e+01  -4.809141e+01
   3.435539e+01  -8.020402e+01
   1.142348e+02  -7.119719e+01
   2.486513e+02   3.282345e+01
   1.980353e+02   1.826047e+02
   1.791160e+01   1.702328e+02
  -1.817313e+02   1.301650e+02
  -1.902072e+02   8.872461e+01
  -7.622796e+01  -2.260013e+01
   3.510202e+01  -5.412128e+01
   6.589591e+01   1.147784e+01
  -5.145376e+01   7.362162e+01
  -1.558286e+02  -5.477287e+00
  -1.465006e+02  -7.652766e+01
  -1.030837e+02  -9.824493e+01
   2.228655e+01  -1.295510e+02
   8.170060e+01  -1.202303e+01
   3.722001e+01   6.347826e+01
  -8.118115e+01  -5.559277e+01
  -3.796633e+01  -1.016511e+02
   5.597360e+01  -1.113242e+02
   1.692732e+02  -1.605482e+01
   1.278584e+02   9.649517e+01
   3.415441e+01   1.525124e+02
  -1.089944e+02   1.047038e+02
  -1.568258e+02   2.347552e+01
  -3.016784e+01  -1.248164e+01
   3.583978e+01  -5.841715e+01
   4.254418e+01  -4.664487e+01
  -2.252459e+01   1.410809e+01
  -4.722545e+01   2.013178e+00
  -1.437592e+01  -7.099213e+01
   1.285937e+02   1.151988e+00
   5.253878e+01   6.533329e+01
   1.552830e+01   1.627392e+02
  -1.196047e+02   1.261910e+02
  -1.927575e+02   2.675763e+01
  -1.564773e+02  -1.187741e+02
  -4.564164e+01  -2.010011e+02
   1.069342e+02  -1.079979e+02
   8.418195e+01  -4.928134e+00
   5.375196e+01   4.005445e+01
   9.078441e+00   3.083101e+01
   1.203764e+01   1.123727e+01
   3.243724e+01  -3.947642e+00
   2.744247e+01   3.601758e+01
  -3.249740e+01   5.115859e+01
  -1.060206e+02   5.641252e+01
  -6.214369e+01  -4.974684e+01
   4.505254e+01  -1.345919e+02
   1.441422e+02  -7.109105e+01
   1.701461e+02   1.028241e+01
   1.266029e+02   1.862908e+02
  -9.643391e+01   2.309580e+02
  -2.171213e+02   2.936024e+01
  -1.460011e+02  -5.040628e+01
  -3.722021e+01  -1.254556e+02
   3.872785e+01  -7.626319e+01
   6.847766e+01  -2.578836e+01
   5.206858e+01  -7.484380e+01
   2.494501e+01  -4.703341e+01
   6.945402e+01  -6.144771e+01
   9.240375e+01   1.721027e+01
   9.118931e+01   1.279179e+02
   6.425869e+00   2.087561e+02
  -7.168287e+01   1.641261e+02
  -1.463978e+02  -2.579861e+01
  -1.238345e+02  -1.153823e+02
   2.715398e+00  -1.352832e+02
   1.102168e+02  -4.702004e+01
   8.636856e+01   6.849042e+01
  -2.220680e+01   2.769195e+01
   4.924723e+00   6.193762e+01
  -1.617359e+01   3.013761e+01
   8.205941e+01  -7.609705e-01
   6.296253e+01   7.773628e+01
  -9.401797e+01   3.919062e+01
  -1.510632e+02  -1.132468e+01
  -1.672055e+02  -4.792103e+01
   2.312238e+00  -7.946478e+01
   1.297930e+02  -8.980359e+01
   1.004740e+02  -4.291142e+01
   6.223202e+01   7.482445e-01
   1.118304e+01   3.200209e+01
  -6.371907e+01  -3.992823e+01
  -3.898839e+01  -2.167104e+01
   7.316010e+01  -8.478270e+01
   7.263476e+01  -6.411332e+01
   7.113213e+01   5.146341e+01
  -2.585532e+01   3.839314e+01
  -9.724578e+00  -4.664488e+00
   6.951051e+01  -3.908316e+01
   7.305815e+01   5.815233e+01
  -3.481244e+01   1.288737e+02
  -1.157877e+02   1.185921e+02
  -1.316066e+02   6.832755e+01
  -1.235275e+02  -7.695728e+01
  -6.630751e+00  -1.354549e+02
   9.100396e+01  -5.737191e+01
   7.383756e+01  -2.992996e+01
  -5.577423e+01  -3.305900e+00
  -8.137146e+01  -3.681257e+01
  -6.712565e+01  -1.035549e+02
   8.250296e+01  -9.047207e+01
   1.883586e+02  -5.098454e+01
   1.432385e+02   3.428572e+01
   5.997501e+01   4.536782e+01
  -8.020175e+01   3.860445e+01
  -2.703080e+01   4.554488e+01
   3.856626e+01  -2.799674e+01
   7.399204e+01  -7.649153e+00
   7.504713e+01   1.251999e+02
  -6.907732e+01   1.320626e+02
  -1.418490e+02  -3.058832e+00
  -8.262168e+01  -6.564877e+01
  -1.130578e+01  -1.270598e+02
   4.031134e+01  -8.275328e+01
   7.223604e+01   3.243046e+01
   5.352557e+01   1.156514e+02
   9.466186e+00   6.185238e+01
  -9.150708e+01  -1.821984e+01
  -4.583984e+01   8.055699e+00
  -1.946826e-01  -4.057911e+01
  -3.754123e+01   4.227013e+01
  -7.744524e+01  -2.293100e+01
  -1.983888e+01  -1.074047e+02
   5.932550e+01  -6.918923e+01
   7.630761e+01  -4.493721e+01
   1.211921e+02   4.327031e+00
   6.523624e+01   7.603968e+01
  -1.429244e+01   2.124943e+01
  -5.644777e+01   2.297142e+01
  -8.888208e+01  -4.889260e+01
  -1.810503e+01  -4.411521e+01
   8.242113e+01  -4.084434e+00
   1.305067e+01  -3.883338e+01
  -1.473648e+01  -7.418397e+00
  -4.516907e+01  -3.370093e+01
  -8.507120e+00  -1.025547e+01
   8.333213e+01  -1.811170e+01
   4.547581e+01   3.717297e+01
  -4.050692e+01   8.655958e+01
  -1.307355e+02   2.566616e+01
  -1.355696e+02  -2.323506e+01
  -2.037028e+01  -1.289168e+02
   5.069859e+01  -1.293575e+02
   8.630672e+01   1.076264e+00
   2.919085e+01   4.239395e+01
   1.195407e+01   5.251123e+00
  -1.748320e+01  -4.240930e+01
  -6.031837e+00   2.098844e+00
   6.030235e+01   2.613651e+01
  -1.806456e+01   6.275575e+01
  -3.956598e+01   2.425914e+01
  -3.462510e+01   4.999169e+00
  -4.899761e+01  -6.532774e+01
  -5.442817e+00  -9.477573e+01
   8.637901e+01  -2.389134e+01
   6.934044e+01   3.785962e+01
  -4.681657e+01   1.163158e+02
  -7.281397e+01   7.140654e+01
  -1.050785e+02  -5.644746e+01
  -3.230598e+01  -5.419414e+01
  -2.005863e+01  -6.949280e+01
   4.115008e+01   4.257992e+01
  -1.616417e+01  -9.659121e+00
  -4.216367e+01  -1.684014e+01
   3.171702e+01  -2.531004e+01
   5.013112e+01  -4.177047e+01
   1.109753e+02   5.873406e+00
   5.804838e+01  -9.983602e+00
  -1.893388e+00   7.590227e+01
  -2.875129e+01   7.494054e+01
  -5.726286e+01  -4.162020e+00
  -2.400968e+01  -3.119135e+01
   2.219042e+01  -1.069612e+02
   1.895416e+01  -1.532513e+01
   3.276459e+01   7.797183e+01
  -4.706891e+01   3.830600e+01
  -5.380768e+01   3.067248e+01
  -4.614305e+01  -2.134385e+01
  -5.319109e+00   1.987783e+01
  -6.508818e-01  -2.695011e+01
  -4.276914e+01  -6.807706e+00
   1.668123e+01  -5.087263e+01
   2.323892e+01  -3.875146e+01
   1.998144e+01  -9.702843e+00
   1.589842e+00   7.285856e+01
  -1.064417e+01   6.556382e+01
  -8.461652e+01   6.794247e+01
  -2.169888e+01   9.503497e+00
  -2.804548e+00  -6.487086e+01
  -2.922396e+00  -1.327611e+01
   5.279403e+01   9.245949e+00
   3.110587e+01   6.856515e+01
  -2.762056e+01   6.159706e+01
  -6.923406e+01  -1.417936e+01
  -1.452185e+01  -2.439670e+01
  -2.269182e+00  -8.291545e+00
  -9.821604e+00  -2.853920e+00
   4.215096e+01  -3.286943e+00
  -9.553977e+01   2.682640e+01
