
 $NMID
 id='ANONYMOUS ', fmtdat='(2E16.6)'
 volume=1.0
 tramp=1.0
 $END
  -2.192842e+03   6.027767e+01
  -1.494593e+03  -9.979248e+02
  -1.662413e+02  -1.300778e+03
   7.343668e+02  -1.030290e+03
   7.243862e+02  -3.195399e+02
   1.910684e+02   8.799661e+01
  -1.179084e+02   1.086239e+02
  -6.435787e+01  -1.709532e+02
   1.775201e+02  -3.967554e+02
   4.581683e+02  -1.288667e+02
   3.107926e+02   3.091674e+02
   1.044621e+02   4.549209e+02
  -1.189076e+02   1.748042e+02
  -1.934299e+02  -2.224709e+02
   6.021951e+01  -3.191792e+02
   2.501276e+02  -9.598057e+01
   2.329202e+02   2.917674e+02
  -3.346469e+01   4.415012e+02
  -3.172245e+02   2.670992e+02
  -3.394385e+02  -5.833029e+01
  -1.296790e+02  -2.213077e+02
   3.745095e+01  -2.261696e+02
  -3.749980e+00  -1.393424e+02
  -1.215158e+02  -1.995522e+02
  -1.862652e+02  -2.833712e+02
   8.331606e+01  -2.697772e+02
   3.153786e+02  -8.782330e+01
   3.987339e+02   1.093390e+02
   6.116478e+01   2.715975e+02
  -2.569457e+02   4.179579e+01
  -2.723397e+02  -8.657551e+01
  -7.431562e+01  -2.684207e+02
   2.154373e+02  -1.941384e+02
   2.880890e+02  -6.057284e+01
   2.351588e+02   7.689109e+01
   5.863098e+01   1.508917e+02
   1.549882e+01   1.572659e+02
   4.186660e+01   5.578975e+00
   1.636326e+02  -5.022093e+01
   8.225494e+01   1.428624e+02
  -5.967835e+01   3.294768e+02
  -1.573649e+02   2.855813e+02
  -1.689507e+02  -2.908082e+01
   1.474337e+00  -1.760209e+02
   7.757422e+01  -5.183647e+01
   4.177697e+01   1.672832e+02
  -9.460704e+01   2.684901e+02
  -2.473186e+02   1.347990e+01
  -3.133519e+02  -2.565870e+02
  -1.302658e+02  -3.463709e+02
   1.921157e+02  -1.885886e+02
   3.400816e+02   4.411752e+01
   2.191833e+02   1.376764e+02
   5.281790e+01   1.292799e+02
  -1.512273e+02   5.892876e+01
  -1.913258e+02   2.483740e+01
  -5.428572e+00   2.867566e+01
  -5.664779e+00  -2.686100e+01
  -4.011087e+01   1.534944e+00
  -1.468603e+02  -2.767520e+01
   2.840764e+01  -1.679116e+02
   1.759560e+02  -1.799320e+02
   2.457623e+02  -1.212867e+02
   1.648760e+02   6.689778e+01
  -3.784145e+01   2.522501e+02
  -2.043090e+02   2.830795e+02
  -2.920917e+02   1.193941e+02
  -1.607223e+02  -1.331069e+02
  -6.486265e+01  -2.107921e+02
  -1.154882e+01  -2.320766e+02
  -5.934746e+01  -1.962655e+02
  -2.477398e+01  -1.345576e+02
   1.186402e+02  -6.589379e+01
   2.268359e+02  -2.380225e+01
   1.742717e+02   9.013270e+01
   5.710390e+01   1.476938e+02
  -7.533229e+01   1.483231e+02
  -1.138169e+02   1.167706e+01
  -8.099764e+01  -1.611673e+02
   5.637987e+01  -1.790867e+02
   1.924609e+02  -3.386379e+01
   1.865457e+02   1.385080e+02
   1.226026e+02   2.084645e+02
  -4.000959e+00   1.752237e+02
  -5.458189e+01   1.209931e+02
  -1.243384e+02   6.200951e+01
  -1.045582e+02   1.168300e+02
  -2.448474e+02   9.861442e+01
  -3.327595e+02  -6.166560e+01
  -2.454357e+02  -1.757927e+02
   3.264048e+01  -3.232097e+02
   2.719832e+02  -2.699152e+02
   3.366333e+02  -1.513859e+02
   1.835749e+02   9.960501e+01
  -2.556948e+01   2.237340e+02
  -1.010464e+02   1.113996e+02
  -5.716327e+00   2.937615e+00
   8.483277e+01  -8.438521e+00
   4.960364e+01   2.766912e+01
  -3.613744e+01   7.391836e+01
  -7.176899e+01   4.769410e+01
  -4.407048e+01  -3.352315e+01
   3.630584e+01  -9.290959e+01
   1.150711e+02  -6.711353e+00
   1.388387e+02   1.465555e+02
  -7.490644e+00   2.898420e+02
  -2.012727e+02   1.950609e+02
  -2.833288e+02  -8.430459e+01
  -1.912062e+02  -2.309288e+02
   1.029704e+01  -2.105498e+02
   8.008872e+01  -6.436385e+01
   6.906147e+01  -1.758805e+01
  -4.971434e-01   6.326046e-01
  -9.024493e+01  -3.419417e+01
  -2.191671e+01  -1.016049e+02
   7.965970e+01  -6.961379e+01
   1.189894e+02   4.172274e+01
  -3.211218e+01   8.701991e+00
  -8.741539e+01   3.267844e+00
  -1.645757e+01  -1.117858e+02
   1.125662e+02  -8.243246e+01
   2.620216e+02   3.370921e+01
   1.813145e+02   1.937019e+02
   5.098153e+00   2.443414e+02
  -1.859821e+02   2.106402e+02
  -2.435849e+02   4.551726e+01
  -1.311109e+02  -2.645183e+01
  -5.583745e+00  -5.769723e+01
   1.233840e+01  -2.058676e+01
  -5.177655e+01   5.728238e+01
  -1.389952e+02   2.454653e+01
  -1.099867e+02  -1.524145e+01
  -1.689950e+01  -7.032658e+01
   7.432205e+01  -5.058426e+01
   1.061109e+02  -1.839236e+01
   6.486297e+00   5.342329e+01
  -7.976105e+01  -2.098621e+01
   1.191157e+01  -8.400152e+01
   7.995978e+01  -1.020753e+02
   1.935029e+02  -1.376722e+01
   1.539731e+02   6.727879e+01
  -1.271171e+01   1.424130e+02
  -1.125669e+02   1.166803e+02
  -1.165943e+02   2.394297e+01
  -1.943253e+01  -4.454412e+01
   5.929602e+01  -4.962004e+01
   8.036587e+01   1.511520e+01
   1.532555e+01   2.426111e+01
  -6.923941e+01   1.915118e+01
  -4.166900e+01  -1.804327e+01
   5.329883e+01   1.028656e+01
   8.614378e+01   1.728952e+01
   2.568946e+01   1.288618e+02
  -1.018640e+02   6.558915e+01
  -1.631571e+02  -3.201132e+00
  -1.476853e+02  -9.920104e+01
   3.910908e+01  -2.061129e+02
   5.127123e+01  -1.064264e+02
   7.689236e+01  -5.768049e+00
   2.483761e+01   3.171036e+01
   4.749766e-01   1.463252e+01
   3.875665e+01  -2.176117e+01
   3.155745e+01  -5.482552e+01
   2.432036e+01   3.233570e+00
  -8.738982e+01   7.360667e+01
  -1.322820e+02  -1.169724e+01
  -6.426042e+01  -3.578786e+01
   2.273582e+01  -1.477190e+02
   1.558936e+02  -4.001017e+01
   1.441285e+02   6.685966e+01
   2.656002e+01   1.667842e+02
  -1.321325e+02   1.585195e+02
  -1.994183e+02   2.473203e+01
  -1.375292e+02  -7.964420e+01
  -3.609519e+01  -9.063837e+01
   1.512848e+01  -6.700508e+01
   4.803548e+00  -3.532712e+01
   4.891250e+01  -9.245382e+01
   2.928523e+01  -9.936466e+01
   7.933645e+01  -7.841772e+01
   8.351136e+01   5.688349e+00
   7.555269e+01   1.016196e+02
   2.335362e+01   2.011662e+02
  -3.312574e+01   1.574097e+02
  -1.066488e+02   5.734538e-01
  -4.120550e+01  -8.188219e+01
   1.298440e+00  -8.185827e+01
   6.827134e+01  -5.257330e+01
   1.810620e+01   5.283556e+01
  -1.540922e+01   3.995452e+01
  -3.719007e+01   1.680032e+01
  -6.688383e+00  -4.350103e+01
   6.706803e+01  -2.549356e+01
   3.663714e+01  -2.332037e+01
  -5.794751e+01   8.094947e+00
  -1.692239e+02  -2.573759e+01
  -5.474965e+01  -5.002231e+01
   1.281305e+01  -8.641716e+01
   7.153059e+01  -8.138576e+01
   1.203107e+02  -3.664944e+01
   2.796564e+01   1.271199e+01
  -9.034583e+00   5.594696e+01
  -2.280378e+01  -9.354189e+00
  -4.129311e+01  -3.210046e+01
   2.875276e+01  -7.083735e+01
   4.213829e+01  -1.459028e+01
   7.770384e+01   2.674637e+01
   1.990926e+01   3.763882e+01
   6.602631e+01  -1.902525e+01
   7.392144e+01  -3.066528e+01
   7.625360e+01   4.644451e+01
   1.510135e+01   1.412362e+02
  -1.029319e+02   1.193899e+02
  -1.562590e+02   7.351055e+01
  -9.698507e+01  -6.175319e+01
   1.152755e+01  -1.203294e+02
   9.397096e+01  -9.985930e+01
   3.375068e+01  -5.314286e+01
  -6.147932e+00   3.294826e+01
  -9.364935e+01  -2.764000e+01
  -8.444445e+01  -1.032687e+02
   2.936199e+01  -6.947615e+01
   1.219637e+02  -6.994190e+01
   1.133020e+02  -7.877276e+00
   1.227198e+01   3.821323e+01
  -5.874596e+01   1.891375e+01
  -4.237208e+01   6.683320e+00
   5.961827e+01  -3.802688e+01
   7.655453e+01   4.781348e+01
   5.644255e+01   9.581294e+01
  -4.172192e+01   9.623032e+01
  -1.029593e+02   2.280105e+01
  -6.759204e+01  -6.828209e+01
   1.406201e+01  -1.669726e+02
   7.644312e+01  -8.338039e+01
   9.429711e+01   2.585322e+01
   5.480115e+00   5.783401e+01
   1.250657e+01   9.441169e+01
  -3.284259e+01   4.978116e+01
  -4.834407e+01  -4.355027e+01
  -2.590127e+01  -7.391762e+01
  -4.878958e+01  -2.715434e+01
  -2.951220e+01  -2.379616e+01
  -1.360420e+01  -8.581328e+01
   2.676738e+01  -8.652141e+01
   6.799897e+01  -6.189025e+00
   6.812075e+01   1.870395e+01
   6.912760e+01   5.469128e+01
   2.691572e+01   4.357598e+01
  -3.826843e+01   8.105680e+01
  -4.652107e+01   3.138966e+00
   4.348602e+00   1.950688e+01
   3.965771e+01  -2.005117e+01
   1.365070e+01  -1.595995e+00
  -9.515406e+00   1.466849e+01
  -1.420486e+01   4.664558e+01
   2.073762e+01  -4.814530e+01
   7.701344e+01  -1.524761e+01
   2.074560e+01   5.948776e+01
  -4.449071e+01   1.211286e+02
  -1.172833e+02   5.289374e+01
  -9.437711e+01  -3.421024e+01
  -5.307294e-02  -1.607796e+02
   4.528832e+01  -1.806255e+02
   5.795681e+01  -6.401980e+01
   6.548621e+01   1.802926e+01
   2.963125e+01   1.030471e+01
   2.713029e+01   1.006958e+01
   1.772176e+01   1.376360e+01
  -6.556532e-01   2.639403e+01
   2.693041e+01   7.264425e+01
  -3.419788e+01   4.691728e+01
  -1.030399e+02   1.669258e+01
  -9.992750e+01  -1.332813e+02
   8.056423e+00  -9.371966e+01
   1.145374e+02  -5.724189e+01
   8.692709e+01   4.645654e+01
   1.223762e+00   1.307184e+02
  -7.863245e+01   8.698096e+01
  -1.366557e+02  -5.737270e+01
  -8.950072e+01  -1.011244e+02
   4.309695e+01  -7.317122e+01
   2.403853e+01   9.896191e+00
   3.688954e+00   3.527523e+01
  -5.513383e+01   9.094781e+00
   2.350522e+01  -1.731755e+01
   4.175595e+01  -7.311791e+01
   4.251058e+01  -1.255845e+01
   2.073310e+01  -2.082309e+01
  -3.426772e+01   9.362608e+01
  -5.550228e+01   5.451580e+01
  -3.080638e+01   2.014049e+01
   2.060948e+01  -1.510637e+01
   4.159977e+01   1.843680e+00
   5.213470e+01   2.629661e+01
   5.732810e+00   4.015926e+01
  -2.165704e+01   1.322907e+01
  -3.257904e+01   1.709861e+01
  -1.095963e+01  -2.681251e+01
  -1.364818e+01  -3.182405e+01
  -2.161856e+01  -1.344431e+01
   2.096117e-01   5.677255e+01
   7.859404e+00  -9.507882e+01
   1.231620e+01  -6.883837e+01
   5.606154e+01   3.549998e+00
   4.045149e+01   5.518717e+01
   4.849358e+01   7.178934e+01
  -3.104262e+01   7.417973e+00
  -8.266055e+01  -3.436313e+01
  -4.913600e+01  -5.894861e+01
   4.518141e+01  -5.353811e+01
   9.427719e+01  -3.075574e+00
   8.319892e+01   4.195988e+01
  -1.732377e+01  -1.296231e+00
  -2.844071e+01   4.601605e+01
   4.495754e+00  -3.328901e+00
   2.736376e+01   3.242490e+01
  -2.932571e+01   5.259938e+00
  -3.213418e+01   5.667093e+01
  -1.009908e+02   3.884492e+00
