
 $NMID
 id='ANONYMOUS ', fmtdat='(2E16.6)'
 volume=1.0
 tramp=1.0
 $END
   3.345207e+03   1.630682e+02
   1.925946e+03   1.998191e+03
  -2.944520e+02   2.038418e+03
  -1.470919e+03   1.016256e+03
  -8.811664e+02  -1.489486e+01
   2.342380e+02  -3.730658e+02
   4.991327e+02   2.537589e+02
   8.417913e+01   6.371499e+02
  -5.574229e+02   6.296692e+02
  -7.268411e+02  -4.271137e+01
  -2.976281e+02  -6.616360e+02
   1.087254e+01  -6.604791e+02
   3.283348e+02  -1.475383e+02
   2.047247e+02   4.651800e+02
  -2.054379e+02   5.735450e+02
  -4.289240e+02  -4.244801e+01
  -3.030687e+02  -5.148911e+02
   2.524786e+02  -5.547194e+02
   3.710105e+02  -2.101408e+02
   3.663982e+02   1.930786e+02
   1.154522e+02   3.731486e+02
  -1.608013e+02   2.830334e+02
  -1.315161e+01   9.679016e+01
   1.016974e+02   9.347266e+01
   2.952590e+02   1.340851e+02
   1.083207e+02   3.471526e+02
  -4.042971e+02   2.473203e+02
  -6.151325e+02  -1.715397e+02
  -2.662297e+02  -3.772449e+02
   2.360743e+02  -2.253564e+02
   4.760804e+02   8.978755e+01
   2.227524e+02   3.886031e+02
  -1.965137e+02   2.821338e+02
  -4.261421e+02   1.292094e+02
  -3.527640e+02  -1.405098e+02
  -1.318097e+02  -3.350090e+02
   1.696024e+01  -1.672426e+02
   1.648940e+01   1.007877e+02
  -1.268011e+02   2.038603e+02
  -2.201394e+02  -8.194654e+01
  -1.033518e+02  -4.872423e+02
   2.490073e+02  -5.206334e+02
   4.054807e+02   9.802574e+00
   1.397854e+02   4.167330e+02
  -1.874808e+02   2.026214e+02
  -2.328662e+02  -2.426920e+02
   4.651151e+01  -4.411058e+02
   4.166045e+02  -7.620338e+01
   4.715799e+02   4.085544e+02
   1.472175e+02   4.670825e+02
  -3.123988e+02   2.235582e+02
  -4.821609e+02  -8.946815e+01
  -3.127026e+02  -2.737033e+02
   9.793433e+01  -2.200777e+02
   3.132905e+02  -6.294304e+01
   2.366404e+02   9.741292e+01
  -2.274588e+01   1.115328e+02
  -5.531390e+01  -7.226278e+01
   1.059269e+02  -1.246391e+02
   3.250718e+02   5.630132e+01
   1.683923e+02   2.209319e+02
  -1.542703e+02   2.658219e+02
  -3.275481e+02   5.471429e+01
  -2.606440e+02  -8.053660e+01
   5.272912e+01  -2.151677e+02
   2.939508e+02  -2.942475e+02
   3.131175e+02  -1.348825e+02
   1.807258e+02   1.306566e+02
   5.100548e+01   3.282204e+02
  -3.513019e+01   2.655768e+02
  -5.011949e+01   1.205471e+02
   1.711225e+01   9.366604e+01
  -1.001101e+02   7.516491e+01
  -1.760583e+02   5.923693e+01
  -2.362012e+02  -1.020252e+02
  -8.947484e+01  -2.445666e+02
   1.189493e+02  -1.871112e+02
   2.132638e+02  -1.250187e+01
   6.505287e+01   2.267055e+02
  -5.039520e+01   2.682036e+02
  -2.819080e+02   8.815831e+01
  -2.822707e+02  -9.097987e+01
  -1.694805e+02  -2.901259e+02
   3.499056e+01  -3.466811e+02
   2.117400e+02  -1.752148e+02
   1.289719e+02  -3.187825e+01
   1.340800e+02  -7.781785e+01
   2.978693e+02  -6.657519e+01
   3.749095e+02   9.806494e+01
   2.887506e+02   3.200536e+02
  -3.706117e+01   4.299635e+02
  -3.718138e+02   3.545743e+02
  -4.620603e+02   1.490907e+02
  -2.736150e+02  -1.163530e+02
  -2.789602e+01  -2.520786e+02
   7.702546e+01  -2.114320e+02
   3.664741e+01  -3.496010e+01
  -6.381542e+01   3.495140e+01
  -9.763450e+01  -4.417935e+01
  -2.894778e+01  -1.651707e+02
   8.802720e+01  -1.541619e+02
   1.080823e+02   5.879795e+01
   2.222948e+01   1.389808e+02
  -1.083491e+02   5.418756e+01
  -1.668013e+02  -2.390751e+02
  -2.161597e+01  -3.216318e+02
   2.120816e+02  -2.362012e+02
   2.775722e+02   7.216721e+01
   2.021596e+02   2.635132e+02
   7.863570e+01   2.315547e+02
  -1.374514e+02   1.318120e+02
  -2.019287e+02  -1.306870e+01
  -4.833496e+01  -5.870380e+01
   5.519618e+01   3.994042e+01
   4.943295e+01   1.178129e+02
  -7.333704e+01   7.315341e+01
  -1.482801e+02   1.793356e+01
  -6.392111e+01  -3.236503e+01
   8.036985e+01  -3.407372e+00
   4.715705e+01   1.060123e+02
  -1.640844e+02   5.176445e+01
  -2.971416e+02  -3.220575e+01
  -2.506450e+02  -1.690045e+02
  -3.903039e+01  -2.485285e+02
   2.241987e+02  -2.243466e+02
   2.665840e+02  -1.012252e+02
   1.681425e+02   3.877332e+01
  -9.287247e-01   6.942922e+01
  -5.692366e+01   3.007853e+01
   6.817688e+01  -6.530725e+01
   2.004284e+02  -2.247651e+01
   1.806813e+02   1.217466e+02
   3.407534e+01   1.854259e+02
  -1.109597e+02   1.616099e+02
  -1.563833e+02   2.104460e+01
  -6.467785e+01  -2.764256e+01
   6.368706e+01  -6.026448e+00
   4.973699e+01   4.471773e+01
  -9.687526e+01   7.055353e+01
  -1.796313e+02  -3.005353e+01
  -1.638867e+02  -1.387237e+02
  -6.283721e+00  -2.285136e+02
   1.326192e+02  -1.633690e+02
   1.416285e+02  -7.039599e+01
   5.763885e+01   9.160642e+01
  -6.543709e+01   7.187210e+01
  -9.524788e+01   4.110518e+01
   8.755918e+00  -4.270018e+01
   2.433950e+01  -4.168422e+01
  -2.703089e+01   3.050399e+01
  -9.625070e+01  -4.451726e+01
  -1.034639e+02  -6.747591e+01
  -5.404610e+01  -1.899118e+02
   1.295232e+02  -1.291611e+02
   2.344334e+02  -3.894616e+01
   1.761331e+02   1.711529e+02
   2.038737e+01   2.769775e+02
  -1.022316e+02   1.739861e+02
  -1.341758e+02   4.609827e+01
  -7.400581e+01   1.678160e+00
  -7.093371e+01   5.192521e+00
  -8.309616e+01   1.398616e+01
  -1.341794e+02   3.046018e+01
  -1.010261e+02  -3.509681e+01
   9.173835e+01  -1.497517e+02
   1.096306e+02  -6.144320e+01
   7.091757e+01   2.819584e+01
  -2.452363e+01   9.741153e+01
  -1.014735e+02   5.872162e+01
  -1.559030e+02  -9.475204e+01
  -9.374674e+01  -2.441892e+02
   1.645544e+02  -1.885078e+02
   2.815888e+02  -9.260117e+01
   2.609052e+02   8.488445e+01
   1.151693e+02   1.592532e+02
  -3.792444e+01   1.374521e+02
  -1.197152e+02   5.284850e+01
  -8.188863e+01   9.006798e+01
  -3.275041e+01   7.984799e+01
  -4.486603e+01   8.388154e+01
  -7.960380e+01  -8.227952e+00
  -1.143213e+02  -1.484425e+02
  -8.751669e+01  -2.183386e+02
   1.222809e+02  -1.450608e+02
   1.752635e+02   5.240494e+00
   1.830415e+02   1.345889e+02
  -1.641030e+01   1.459854e+02
  -4.925552e+01   1.029132e+02
  -3.944135e+01  -4.499963e+00
   5.653327e+00  -7.012426e+01
   1.767280e+01  -4.407870e+01
  -3.735644e+01  -4.455289e+00
  -1.127558e+02  -5.720621e+00
  -6.087619e+01  -5.226394e+01
   9.062897e+01  -2.755631e+01
   1.753477e+02   2.825408e+00
   1.401107e+02   1.075251e+01
   4.475204e+01   1.056384e+02
  -8.236530e+01   9.026687e+01
  -1.387945e+02   3.169479e+01
  -6.311232e+01   8.617840e+00
   2.715938e+01  -5.686847e+01
   6.729914e+01   1.780896e+01
   6.033679e+01   8.429653e+01
  -6.871981e+01   1.190532e+02
  -6.321468e+01  -2.672284e+01
  -7.575091e+01  -8.046442e+01
  -3.493264e+01  -4.626771e+01
  -2.041546e+01   2.057747e+01
  -7.103659e+01   1.375507e+01
  -6.391036e+01  -7.865262e+01
   2.532971e+01  -1.229205e+02
   1.130348e+02  -2.089954e+02
   1.903032e+02  -3.000390e+01
   1.505535e+02   8.351305e+01
   7.530338e+00   1.683957e+02
  -3.779416e+01   8.358359e+01
  -3.408742e+01  -3.508922e+01
   3.582383e+01  -4.732908e+01
   1.447894e+02  -4.455984e+01
   1.011611e+02   1.755573e+02
  -1.125210e+02   9.616727e+01
  -1.385116e+02   7.134232e+01
  -1.311292e+02  -4.950155e+01
  -5.544747e+01  -9.610656e+01
   6.514994e+01  -1.180853e+02
   6.353193e+01  -3.482701e+01
   7.584349e+00   5.750843e+01
  -9.161825e+01  -4.111329e+01
  -2.721537e+00  -1.238839e+02
   7.586920e+01  -1.270248e+02
   1.587363e+02  -4.375334e+01
   1.369660e+02   1.222773e+02
   1.059738e+01   1.361289e+02
  -9.939777e+01   1.149272e+02
  -1.048511e+02  -3.064754e+01
  -5.869037e+01  -1.172653e+02
   1.642139e+01  -1.191380e+02
   6.045023e+01  -5.576323e+00
   3.918042e+01   6.925830e+00
  -1.338797e+00  -4.295925e+01
  -8.844096e+00  -5.794441e+01
   2.716529e+01   4.131616e+01
   4.893871e+01   3.510291e+01
   4.755042e+00   7.206553e+01
  -8.329810e+01   4.944204e+01
  -1.335094e+02  -3.877215e+01
  -1.495596e+02  -7.859821e+01
  -7.195474e+01  -4.910912e+01
   2.863008e+01  -9.347488e+01
   6.635886e+01  -4.238585e+01
  -2.743324e+01  -8.813064e+00
  -4.275067e+01  -1.922434e+01
   1.370126e+01  -7.319904e+00
   1.551820e+01   3.076762e+01
  -1.132420e+01  -3.708449e+01
  -1.874965e+01  -3.620465e+01
  -5.235268e+01  -2.742081e+01
   2.545182e+01  -3.281757e+01
   1.317759e+02  -1.722865e+02
   2.215151e+02  -6.191582e+01
   1.280639e+02   5.253296e+01
   3.844512e+01   1.527796e+02
  -3.464543e+01   1.125570e+02
  -1.089394e+02   6.147183e+01
  -1.116319e+02  -1.664089e+01
  -1.516446e+01  -8.273867e+01
   3.179622e+00   6.582479e+00
  -2.591248e+01  -4.626778e+00
  -9.184795e+01  -3.392428e+01
   6.343446e+00  -1.127676e+02
   2.154348e+01  -1.700178e+02
   5.592041e+01  -9.448601e+00
   1.073888e+02   3.439677e+01
   6.947578e+01   8.241279e+01
  -5.608087e+01   1.899242e+01
  -9.700712e+01  -4.236009e+01
  -1.013458e+02  -1.121785e+02
   3.477517e+01  -3.603800e+01
   8.913065e+01   7.277070e+00
   3.976728e+01   3.826311e+01
  -6.084811e+01   4.765822e+01
  -7.034046e+01  -1.243997e+01
   4.950413e+01  -3.740412e+01
   8.709123e+01  -2.563043e+01
   4.404564e+01   5.097263e+01
  -1.071611e+02   9.437387e+01
  -1.336250e+02   9.500039e+01
  -8.655355e+01  -1.289743e+01
  -1.890880e+01  -9.753557e+01
   3.764318e+01  -9.061626e+01
   6.829252e+01   7.174515e+00
   3.562931e+01   6.208703e+01
  -6.132380e+01   8.572647e+01
  -1.733237e+01  -8.639206e-01
  -7.913577e+01  -8.158062e+01
   3.290414e+01  -3.075248e+01
   4.698176e+00   4.802416e+00
   6.939189e+01   8.501128e+01
   8.258773e+01  -2.859612e+00
  -5.971772e+01  -2.643666e+01
  -1.942842e+01  -5.875444e+01
  -1.184279e+01   2.834706e+01
   7.082316e-01   2.719832e+01
  -3.777394e+01   4.394734e+01
  -6.989624e+01  -2.292891e+01
  -2.774669e+01  -1.007494e+01
   3.387587e+01   1.859149e+01
   1.012504e+02   3.725281e+01
   1.299300e+01   5.750140e+01
  -6.059282e+01   6.439720e+01
  -9.517089e+01   6.981518e+00
  -4.023790e+01  -4.605493e+01
   1.592743e+01  -4.476286e+01
   3.396416e+01   9.441151e-01
  -2.258796e+01   3.485542e+01
  -1.258338e+01  -1.825417e+01
  -4.708361e+01   1.033678e+01
   2.924770e+01  -7.296448e+01
   8.673443e+01  -3.743278e+01
