
 $NMID
 id='ANONYMOUS ', fmtdat='(2E16.6)'
 volume=1.0
 tramp=1.0
 $END
  -4.459837e+03   2.218360e+02
  -3.016099e+03  -2.686609e+03
   5.800533e+02  -2.767251e+03
   2.277414e+03  -1.085023e+03
   9.972880e+02   7.430238e+02
  -7.141063e+02   6.832071e+02
  -8.951177e+02  -4.495502e+02
   4.195645e+00  -1.016728e+03
   6.985976e+02  -7.983744e+02
   8.902906e+02   6.211658e+01
   4.680053e+02   8.099297e+02
  -1.717337e+02   8.402084e+02
  -6.515620e+02   9.532084e+01
  -3.557065e+02  -6.776252e+02
   2.363853e+02  -7.521559e+02
   5.926486e+02  -5.827640e+01
   2.621915e+02   7.333792e+02
  -3.369844e+02   6.397343e+02
  -7.215356e+02   1.602566e+02
  -4.423069e+02  -4.050586e+02
  -5.171741e+01  -5.149355e+02
   2.515646e+02  -2.962312e+02
   2.161831e+02  -1.839629e+01
  -9.274888e+01   5.814535e+01
  -4.132289e+02  -1.292721e+02
  -1.776943e+02  -4.152091e+02
   5.449337e+02  -3.476330e+02
   8.312835e+02   8.198664e+01
   4.249542e+02   5.272482e+02
  -3.795380e+02   4.729220e+02
  -7.859952e+02  -8.921745e+01
  -3.329247e+02  -5.050376e+02
   2.977858e+02  -5.977003e+02
   5.646460e+02  -1.678694e+02
   4.481939e+02   2.730608e+02
   6.545433e+01   5.237778e+02
  -2.648373e+02   2.797232e+02
  -1.916779e+02  -2.271815e+02
   1.829103e+02  -3.595943e+02
   4.758021e+02  -1.289753e+01
   2.606260e+02   6.621620e+02
  -3.130113e+02   7.047001e+02
  -6.751032e+02   4.814716e+01
  -3.161366e+02  -5.098113e+02
   2.917151e+02  -3.241409e+02
   4.013402e+02   2.692783e+02
  -6.585756e+01   5.151435e+02
  -5.828521e+02   1.523291e+02
  -6.422300e+02  -3.876936e+02
  -1.926570e+02  -5.986209e+02
   4.659967e+02  -3.655057e+02
   6.694368e+02   5.984607e+01
   3.971133e+02   3.482508e+02
  -1.773675e+02   3.276047e+02
  -4.387946e+02   9.837541e+01
  -2.719422e+02  -1.221486e+02
   8.301250e+01  -9.910028e+01
   1.541173e+02   1.350683e+02
  -1.884968e+02   2.005452e+02
  -3.210174e+02  -7.198542e+01
  -1.550130e+02  -3.380900e+02
   2.402637e+02  -2.480262e+02
   3.368864e+02  -5.636612e+01
   1.625110e+02   7.621972e+01
  -9.245670e+01   2.387353e+02
  -2.470805e+02   3.321931e+02
  -3.613607e+02   1.850707e+02
  -2.523195e+02  -2.011500e+02
  -5.593296e+01  -4.362413e+02
   1.265814e+02  -4.120132e+02
   6.376679e+01  -1.093263e+02
  -1.451439e+01  -3.909662e+00
   7.214960e+01  -1.279617e+02
   2.166557e+02  -1.640767e+02
   2.789466e+02   4.719000e+01
   1.395807e+02   2.506545e+02
  -2.228841e+01   2.049914e+02
  -2.311800e+02   1.651678e+01
  -1.504383e+02  -2.319608e+02
   5.779549e+01  -2.956969e+02
   2.716963e+02  -1.322329e+02
   3.344556e+02   1.545814e+02
   2.061739e+02   3.180854e+02
  -1.066624e+02   3.789205e+02
  -2.582603e+02   1.239819e+02
  -1.472107e+02   1.531847e+01
  -4.721311e+01   1.177642e+01
  -2.015908e+02   6.704958e+01
  -4.008652e+02  -4.999130e+01
  -2.819961e+02  -2.924952e+02
  -2.733480e+01  -4.790641e+02
   3.248641e+02  -4.471984e+02
   5.007071e+02  -2.446859e+02
   3.223720e+02   5.944739e+01
   2.960022e+01   3.106442e+02
  -1.118721e+02   2.948845e+02
  -3.438521e+01   1.509290e+01
   1.480821e+02  -1.316246e+02
   2.176869e+02   2.924662e+01
   2.097304e+01   1.985536e+02
  -1.917024e+02   2.237886e+02
  -1.445870e+02  -9.987715e+00
   8.125698e+01  -2.025085e+02
   2.377848e+02  -5.243078e+01
   1.049472e+02   2.695709e+02
  -3.397516e+01   3.326829e+02
  -2.451644e+02   2.027332e+02
  -3.769375e+02  -1.132576e+02
  -2.882807e+02  -2.638460e+02
  -7.748856e+01  -2.973859e+02
   1.382238e+02  -1.685727e+02
   2.276565e+02  -5.981491e+00
   5.423033e+01   2.767132e+01
  -6.739509e+01  -3.096985e+01
  -5.075952e+01  -1.261240e+02
   1.490950e+02  -9.165123e+01
   1.738382e+02   3.828792e+01
   7.849880e+01   1.386070e+02
  -9.627489e+01  -2.489998e+01
  -6.200892e+01  -7.121455e+01
   8.926402e+01  -3.721032e+01
   2.495166e+02  -4.683995e+00
   2.344067e+02   1.119201e+02
   7.629849e+01   2.294452e+02
  -1.325203e+02   2.532106e+02
  -3.064594e+02   1.960955e+02
  -1.817667e+02  -5.258461e+01
   6.533989e+01  -1.150552e+02
   5.116027e+01  -6.183646e+01
  -5.072525e+01   8.459200e+01
  -1.618319e+02   1.103009e+02
  -2.103710e+02  -1.297150e+02
  -1.031232e+02  -2.246519e+02
   9.584240e+01  -1.455990e+02
   1.465912e+02   1.832558e+00
   3.941049e+01   8.275191e+01
  -4.200279e+01  -1.757097e+01
  -3.786431e+01  -1.349930e+02
   7.752826e+01  -1.664486e+02
   2.076735e+02  -4.444244e+01
   2.064241e+02   1.164736e+02
   8.840140e+00   1.885454e+02
  -1.918537e+02   1.251680e+02
  -2.271310e+02   1.275560e+01
  -6.446960e+01  -5.678895e+01
   7.686656e+01  -1.081830e+02
   1.692773e+02   1.667009e+01
   3.733746e+01   7.682234e+01
  -3.042674e+01   1.902766e+01
   3.636169e+01  -6.329431e+01
   1.371257e+02   3.678003e+01
   6.645719e+01   1.232358e+02
   5.149628e+01   1.496081e+02
  -1.299904e+02   1.351630e+02
  -2.160323e+02   4.188967e+01
  -2.162476e+02  -1.510721e+02
  -2.134884e+01  -2.778716e+02
   7.873838e+01  -1.855588e+02
   1.161553e+02  -5.980657e+01
   8.417987e+01   3.460136e+01
   6.809879e+01  -6.876489e+00
   5.478971e+00  -8.722590e+01
   7.355288e+01  -1.080843e+01
   3.334940e+01   9.658282e+01
  -3.442729e+01   5.142408e+01
  -6.328396e+01   3.980608e+01
  -6.414098e+00  -4.680363e+01
   3.081626e+01  -9.290745e+01
   1.493612e+02  -5.130221e+01
   1.618935e+02   5.472267e+00
   8.927028e+01   1.778815e+02
  -6.592265e+01   2.475296e+02
  -3.013589e+02   5.802011e+01
  -2.988791e+02  -9.990129e+01
  -9.908242e+01  -1.887800e+02
   2.484698e+01  -1.547485e+02
   4.802533e+01  -5.552456e+01
   1.121617e+01  -6.925108e+01
   4.826949e+01  -7.481036e+01
   1.172890e+02  -1.071571e+02
   1.601573e+02   2.694012e+01
   1.384254e+02   1.810227e+02
   8.693986e+00   2.132044e+02
  -1.010114e+02   2.004401e+02
  -1.461972e+02   2.816379e+01
  -1.694217e+02  -1.717846e+02
  -1.605775e+01  -1.767351e+02
   1.000166e+02  -6.825816e+01
   8.664972e+01   3.717654e+00
   1.701005e+00   1.509473e+01
  -6.996874e+00   3.478487e+01
   4.770643e+01   4.248878e+00
   1.130608e+02   5.455401e+01
   9.740412e+01   6.819007e+01
  -6.623643e+01   3.036560e+01
  -1.273545e+02   3.201714e+01
  -1.417979e+02  -5.002072e+01
  -1.621656e+01  -1.021957e+02
   1.151078e+02  -5.752018e+01
   7.391574e+01  -1.912248e+01
   3.003620e+01  -2.097053e+01
  -1.887590e+01   2.487631e+01
  -6.301021e+01  -1.560353e+01
  -8.831079e+00  -3.633738e+01
   3.936391e+01  -4.729355e+01
  -3.098475e+01   4.367753e+01
   1.335157e+01   7.667778e+01
   5.159531e+01   3.064419e+01
   3.953240e+01  -3.029233e+01
   7.798025e+01  -1.889581e+01
   7.928428e+01   5.149729e+01
  -1.659774e+01   1.461244e+02
  -1.205756e+02   1.733733e+02
  -2.002602e+02   6.400381e+01
  -5.890215e+01  -8.382606e+01
   6.026009e+01  -1.173151e+02
   1.183654e+02  -6.713562e+01
   9.013579e+01  -7.086952e+00
  -5.963176e+01   4.402010e+01
  -1.976156e+02  -9.944151e+01
  -2.746435e+01  -1.219130e+02
   1.037040e+02  -4.048561e+01
   2.060361e+02  -3.481458e+01
   2.164504e+02   3.053590e+01
   1.503492e+01   1.536069e+02
  -1.072653e+02   1.111937e+02
  -8.583025e+01   1.818375e+01
   2.687154e+01  -9.009909e+01
   1.077693e+02   5.198266e+01
   3.990610e+01   1.056046e+02
  -8.421208e+01   1.357132e+02
  -1.945176e+02   3.561427e+01
  -1.091688e+02  -6.739638e+01
   1.867319e+00  -2.270832e+02
   1.158581e+02  -1.868409e+02
   1.439471e+02   8.765722e+00
   5.057611e+01   1.616596e+02
  -4.607547e+01   9.112026e+01
  -7.212788e+01   5.843601e+01
  -6.905675e+01  -4.210531e+00
  -1.957662e+01  -3.421500e+00
   1.786496e+01   2.667695e+01
  -4.313081e+01   6.448779e+00
  -8.280109e+01  -1.205004e+02
  -1.240596e+01  -9.799448e+01
   7.576592e+01  -6.827985e+01
   1.261250e+02   6.885646e+01
   1.185764e+02  -1.171823e+01
   7.464163e+01   6.986510e+01
  -9.263838e+01   5.208990e+01
  -1.452868e+02  -7.554682e+00
  -3.587565e-01  -1.725467e+01
   4.584545e+01  -2.486127e+01
   4.030703e+01  -9.201275e+00
  -2.579459e-01  -4.353121e+00
   1.973538e+01   1.150619e+01
   8.727583e+01   1.761744e+01
   7.788638e+01   4.731851e+01
  -2.933160e+01   2.028430e+01
  -1.315106e+02   8.821325e+01
  -2.412197e+02   7.455227e+01
  -1.230138e+02  -6.367833e+01
  -5.013224e+01  -1.725306e+02
   7.089595e+01  -1.526909e+02
   9.396343e+01  -6.611998e+01
   1.146292e+02  -1.206508e+01
  -1.346637e+01   1.069402e+01
  -4.196506e+01   4.608929e+01
   1.285655e+01   1.983194e+01
   7.955783e+01   6.444495e+01
   7.134647e+01   8.807950e+01
  -5.042118e+01   1.306930e+02
  -9.731906e+01  -1.708267e+01
  -7.759061e+01  -7.223408e+01
  -6.738476e+01  -7.390254e+01
   5.095604e+01  -9.934401e+01
   1.658713e+02   7.369780e+01
   3.974738e+01   9.476087e+01
  -8.451835e+01   6.535607e+01
  -3.737774e+01  -8.013326e+01
  -2.544125e+01  -6.742530e+01
   5.582685e+01  -1.898281e+01
   4.633287e+01   1.652803e+01
  -4.912508e+00   1.447418e+01
  -6.638012e+01  -6.635650e-01
  -4.658650e+01   6.333892e+00
   4.516586e+01  -5.655991e+01
   1.359199e+02  -2.557589e+01
   9.315024e+01   3.142589e+01
  -1.848584e+01   4.532441e+01
  -3.485825e+01   6.199357e+01
  -1.921307e+01   5.193317e+01
  -5.786272e+01   1.658556e+01
   5.730390e+01  -4.183798e+01
   1.324031e+01  -7.813447e+00
   1.300283e+01   3.527787e+01
  -3.515567e+01   5.140121e+01
  -3.513257e+01  -5.939022e+01
  -7.392741e+01  -4.691664e+01
  -6.506429e+01  -3.926600e+01
   3.954800e+01   2.765156e+00
   8.304733e+01   6.778177e+01
   2.335329e+01  -1.952082e+01
  -1.835459e+01  -1.544234e+01
   4.285641e+01  -2.281905e+01
  -6.443305e+00  -1.142550e+01
  -1.455292e+01   7.319491e+01
  -8.539089e+01   1.275539e+02
  -7.225609e+01  -3.879134e+01
   4.084489e+01  -1.083196e+02
   7.951722e+01  -2.440076e+01
   8.151118e+01   1.891093e+01
   1.345147e+01   6.125452e+01
  -5.175402e+01   4.440233e+01
  -5.113491e+01   3.134694e+01
   1.050059e+01   3.090995e+01
   2.992979e+01   5.856983e+01
   3.124779e+01   4.989683e+01
  -6.047431e+01   3.798236e+01
  -8.929599e+01  -2.338888e+01
