
 $NMID
 id='ANONYMOUS ', fmtdat='(2E16.6)'
 volume=1.0
 tramp=1.0
 $END
  -2.778977e+03   2.059893e+02
  -1.979654e+03  -1.214488e+03
  -3.461481e+02  -1.573039e+03
   8.184600e+02  -1.192793e+03
   8.052393e+02  -4.336139e+02
   1.145979e+02   1.009325e+02
  -1.444334e+02   1.757862e+01
   8.807416e+00  -3.075190e+02
   3.456795e+02  -4.547759e+02
   4.352357e+02  -7.663817e+01
   4.091306e+02   3.061647e+02
   7.354359e+01   4.681421e+02
  -1.543299e+02   2.141155e+02
  -1.751623e+02  -3.214277e+02
   1.129225e+01  -5.082765e+02
   2.778274e+02  -1.329873e+02
   2.142278e+02   3.497710e+02
  -3.906981e-01   5.318534e+02
  -3.386520e+02   2.905945e+02
  -3.177316e+02  -5.911982e+01
  -1.252264e+02  -2.608646e+02
   4.350857e+01  -2.213493e+02
   7.162394e+01  -1.177412e+02
  -1.376325e+02  -1.315123e+02
  -1.647186e+02  -2.764452e+02
   3.930590e+01  -2.410673e+02
   3.946896e+02  -6.217815e+01
   4.444206e+02   2.084754e+02
   2.237661e+02   2.398185e+02
  -2.143414e+02   9.437334e+01
  -3.537280e+02  -1.139055e+02
  -1.513360e+02  -2.346139e+02
   1.833805e+02  -3.056538e+02
   3.511977e+02  -8.685357e+01
   2.774820e+02   6.041344e+01
   1.101038e+02   2.398363e+02
   6.776140e+01   1.430967e+02
   2.216420e+01  -5.887086e+01
   1.502259e+02  -1.025007e+02
   1.429416e+02   1.373386e+02
  -6.597070e+01   4.029488e+02
  -1.902076e+02   3.072097e+02
  -1.904209e+02  -1.502370e+01
  -5.184058e+01  -2.034218e+02
   5.711774e+01  -1.473180e+02
   6.456507e+01   1.614433e+02
  -1.004474e+02   2.937248e+02
  -3.319690e+02   8.733055e+01
  -3.558344e+02  -2.502610e+02
  -1.593567e+02  -4.153197e+02
   1.804481e+02  -1.873801e+02
   3.682761e+02   1.127524e+00
   2.708148e+02   1.416238e+02
  -8.439536e+00   1.768307e+02
  -1.968412e+02   1.044455e+02
  -2.115273e+02   5.090406e+01
  -5.305268e+01  -9.027754e+00
   3.968697e+01  -2.471552e+01
  -8.806624e+01  -1.997928e+01
  -1.694804e+02  -3.741744e+01
  -9.848917e+01  -8.427240e+01
   1.110505e+02  -1.766479e+02
   2.977824e+02  -1.600181e+02
   1.743923e+02   6.216383e+01
  -8.171643e+00   3.251214e+02
  -3.024661e+02   3.445989e+02
  -3.450271e+02   1.268106e+02
  -2.194035e+02  -1.482345e+02
  -1.082863e+02  -2.500901e+02
   2.961433e+01  -2.412124e+02
   2.871999e+01  -1.732920e+02
   8.960388e+00  -1.254747e+02
   1.443856e+02  -8.570009e+01
   1.629964e+02  -2.183834e+01
   1.999350e+02   1.221336e+02
   3.787134e+01   2.063472e+02
  -1.374445e+02   1.263854e+02
  -1.704440e+02  -1.514794e+01
  -1.069605e+02  -2.392697e+02
   6.340755e+01  -2.132938e+02
   1.881309e+02  -3.328003e+01
   2.380096e+02   1.198367e+02
   1.486370e+02   1.932780e+02
  -4.208227e+01   1.907342e+02
  -9.048686e+01   1.160222e+02
  -1.060011e+02   5.694273e+01
  -9.616791e+01   6.206565e+01
  -2.012328e+02   7.605407e+01
  -3.391559e+02  -5.718095e+01
  -3.116518e+02  -2.628409e+02
  -2.383403e+01  -3.732374e+02
   3.361459e+02  -3.509504e+02
   4.339753e+02  -1.699550e+02
   2.738214e+02   8.409942e+01
   5.749465e+01   1.798100e+02
  -5.391951e+01   1.863797e+02
  -2.403267e+01   3.508381e+01
   6.128718e+01   3.493347e+00
   2.486981e+01   4.851505e+01
   1.278175e+01   1.149219e+02
  -6.549604e+01   9.745715e+01
  -5.559495e+01  -8.717124e+00
   3.079536e+01  -1.214573e+02
   1.020275e+02   1.147457e+01
   1.472148e+02   1.601531e+02
   2.098155e+00   2.389246e+02
  -2.047504e+02   1.868536e+02
  -3.168391e+02  -4.345820e+01
  -1.771267e+02  -1.874533e+02
  -6.518401e+01  -2.318691e+02
   1.190170e+02  -1.549097e+02
   1.093764e+02  -2.108291e+01
   1.249020e+01   4.092866e+01
  -1.632997e+01  -5.056749e+01
  -2.149088e+01  -6.904775e+01
   1.107764e+02  -8.251739e+01
   1.338972e+02   3.839834e+01
   6.941968e+01   7.358372e+01
  -1.131915e+02  -6.733068e+00
  -8.441893e+01  -1.016731e+02
   8.761186e+01  -8.986516e+01
   2.544347e+02  -1.399283e+01
   1.971628e+02   1.268230e+02
   2.832088e+01   2.114299e+02
  -1.561896e+02   2.057107e+02
  -1.912188e+02   5.792406e+01
  -1.137745e+02  -7.655915e+01
   2.236664e+01  -9.483188e+01
   5.206487e+01   4.740772e+01
  -3.269356e+01   3.981561e+01
  -1.383422e+02   2.455335e+01
  -1.159928e+02  -8.454097e+01
  -3.462874e+01  -1.093332e+02
   9.711700e+01  -4.020767e+01
   6.502309e+01  -3.864234e+01
   3.152596e+01   1.270247e+01
  -2.314909e+01  -2.712908e+01
  -2.861396e+01  -1.346103e+02
   8.840242e+01  -1.428282e+02
   1.631295e+02  -5.890860e+01
   2.050500e+02   6.425207e+01
   5.500433e+01   2.088041e+02
  -1.458809e+02   9.056918e+01
  -1.361042e+02   1.041064e+01
  -2.014755e+01  -3.379949e+01
   1.057832e+02  -8.064261e+01
   1.063851e+02  -6.454703e+01
   1.878526e+01   6.927238e+00
  -3.390935e+01   3.052088e+01
  -2.933085e+01   3.678287e+00
   6.851851e+01  -7.520233e-01
   7.482626e+01   3.748946e+01
  -1.207897e+01   1.217608e+02
  -8.995775e+01   7.486168e+01
  -1.768324e+02  -8.047016e+00
  -1.465560e+02  -1.537990e+02
  -4.099228e+01  -1.535398e+02
   7.778715e+01  -1.277953e+02
   6.081227e+01   4.245732e+00
   2.382152e+01   3.320463e+01
  -6.412892e+00  -2.764243e+01
   6.975260e+01  -6.302092e+01
   7.995965e+01  -4.616476e+01
   7.659102e+01   3.526564e+01
  -2.879796e+01   1.104593e+02
  -1.257315e+02   7.922086e+01
  -1.081255e+02  -4.941585e+01
  -1.733740e+01  -7.526087e+01
   1.349633e+02  -5.895732e+01
   1.732196e+02   6.922735e+01
   1.303409e+01   1.482686e+02
  -1.031541e+02   1.666807e+02
  -2.512531e+02   4.360243e+01
  -1.798728e+02  -7.846759e+01
  -7.941006e+01  -1.584895e+02
   6.939134e+01  -1.252039e+02
   9.402068e+01  -4.611670e+01
   7.694587e+01  -5.875067e+01
   7.229194e+01  -8.716771e+01
   8.022354e+01  -3.796615e+01
   1.255939e+02  -2.813227e+01
   1.354624e+02   7.425440e+01
   2.488383e+01   2.061843e+02
  -5.908896e+01   1.321839e+02
  -1.480218e+02   2.952784e+01
  -9.843716e+01  -5.135254e+01
  -6.852493e+00  -1.220975e+02
   6.582748e+01  -4.719996e+01
   3.444687e+01   5.305452e+01
  -8.178181e+00   8.324529e+01
  -5.538327e+01   3.736766e+01
  -1.163246e+01   2.773125e+01
   8.918093e+01   3.895339e+01
   4.424497e+01  -9.340709e+00
  -4.131583e+01   2.327668e+01
  -1.548969e+02  -1.855825e+01
  -1.388259e+02  -7.868134e+01
   1.409902e+01  -7.574274e+01
   1.412769e+02  -8.853812e+01
   9.588783e+01  -1.703584e+01
   2.279301e+01   5.142515e+01
  -3.443940e+01   1.019465e+02
  -8.097795e+01   1.504198e+01
  -4.540326e+01  -5.912497e+01
   4.988352e+01  -9.235430e+01
   2.877802e+01  -1.324513e+01
   4.333898e+01   3.036987e+01
   1.895591e+01   3.968135e+01
   7.080386e-01  -2.026702e+00
   4.347976e+00  -2.682445e+01
   5.345141e+01   2.804873e+01
  -8.778835e+01   1.611245e+02
  -9.896293e+01   1.168998e+02
  -1.401220e+02   3.707687e+01
  -1.461396e+02  -9.989175e+01
   1.792684e+01  -1.364094e+02
   1.111149e+02  -7.367937e+01
   6.197487e+01   6.604915e-01
  -4.597698e+01   6.424772e+01
  -7.697133e+01   2.792130e+00
  -5.204108e+01  -9.027203e+01
   1.024096e+02  -5.411772e+01
   1.453486e+02  -3.724921e+01
   1.427199e+02   4.805651e+01
   4.858063e+01   9.852936e+01
  -9.246875e+01   4.315589e+01
  -6.300515e+01  -1.836506e+01
   4.263390e+01  -1.973516e+01
   8.814272e+01  -1.375028e+01
   8.123102e+01   1.117598e+02
  -7.861910e+01   1.097485e+02
  -1.286001e+02   4.804168e+01
  -1.336334e+02  -7.503205e+01
  -3.990424e+01  -1.676031e+02
   4.749412e+01  -1.171951e+02
   1.139252e+02  -5.096699e+00
   5.660143e+01   1.543842e+02
   1.928604e+01   9.527457e+01
  -7.256436e+01   1.124034e+01
  -5.442230e+01  -4.769412e+01
  -4.719700e+00  -1.642622e+01
   1.769125e+01   2.184247e+01
   2.791787e+01  -3.837934e+01
  -4.732940e+01  -7.072056e+01
  -2.623987e+01  -8.864595e+01
   3.997226e+01  -3.762276e+01
   8.806052e+01   6.591416e+00
   1.259034e+02   3.629174e+01
   1.456136e+01   7.251106e+01
  -6.966513e+01   4.772815e+01
  -1.238321e+02   2.688446e+00
  -6.747127e+01  -3.768030e+01
   2.573226e+01  -1.661829e+01
   1.151203e+01  -6.454879e+00
  -3.109795e+01   3.374744e+01
   1.099247e+01   1.449727e+01
   4.422234e+01   1.958095e+01
   8.636209e+01   1.627595e+01
   9.179540e+00   4.534812e+01
  -5.884659e+01   1.223384e+02
  -1.318303e+02   6.876577e+01
  -8.947954e+01  -3.654521e+01
  -1.978368e+01  -1.177220e+02
   7.835762e+01  -1.265393e+02
   7.572589e+01  -7.399116e+01
   2.910274e+01   4.487256e+01
   7.550771e+00   3.937694e+01
   7.138765e+01  -1.109299e+01
  -3.489523e+01   1.109054e+01
   1.647135e+01   4.354779e+01
   4.395703e+01   6.604586e+01
  -4.099390e+01   5.171098e+01
  -1.662072e+01  -4.247401e+01
  -4.550906e+01  -1.264394e+02
  -4.640939e+00  -9.395546e+01
   8.570471e+01  -2.067775e+01
   5.986581e+01   6.684090e+01
   2.818442e+01   7.638173e+01
  -5.221195e+01   7.139457e+01
  -1.303438e+02  -6.909273e+01
  -1.054992e+02  -5.623880e+01
   3.889016e+01  -8.114396e+01
   4.536794e+01   3.822371e+01
  -3.834912e+01   5.864778e+00
  -2.352862e+01   7.949869e+00
  -2.144203e+01   1.474711e+01
   9.645607e+01  -4.933843e+01
   1.204361e+02  -8.867639e+01
   5.176044e+01   4.113938e+01
   5.034761e+00   6.878569e+01
  -6.301893e+01   1.096883e+02
  -5.550798e+01   1.604679e+01
  -4.664266e+01  -1.985447e+01
   2.774988e+01  -8.232181e+01
   1.376469e+01  -3.200761e+01
   3.960636e+01   3.503318e+01
   2.468479e+01   7.421497e+01
  -2.805080e+01   2.414094e+01
  -2.847565e+01  -1.501239e+00
  -1.723702e+01   1.931756e+00
   2.087020e+01  -1.493056e+00
   4.351673e+01   3.207049e+01
  -3.108238e+01  -1.375879e+01
  -2.560996e+01  -5.920784e+01
   1.629592e+01  -6.465159e+01
   1.131667e+01   2.672240e+01
   8.516591e+00   4.298575e+01
  -6.482675e+01   1.419865e+01
  -9.993646e+01  -2.956253e+01
  -3.284227e+01  -4.128344e+01
   2.064040e+01   1.461834e+01
   6.271099e+01   1.786813e+01
   1.026383e+02   5.567001e+01
  -8.539353e+00   4.748049e+01
  -5.820168e+00   6.526272e+01
   5.722200e+00   1.424583e+01
   7.810549e+00  -4.798658e+01
   5.753058e+01  -1.021514e+01
  -8.941967e+00  -2.521661e+01
  -4.289716e+01  -6.822449e+00
