
 $NMID
 id='ANONYMOUS ', fmtdat='(2E16.6)'
 volume=1.0
 tramp=1.0
 $END
   2.550170e+03  -5.544505e+01
   1.678262e+03   1.208720e+03
   1.073499e+02   1.677071e+03
  -9.852474e+02   1.155296e+03
  -8.662038e+02   4.381179e+02
  -1.890721e+02  -8.133418e+01
   1.463698e+02   2.489292e+01
   4.434416e+01   3.887089e+02
  -3.297102e+02   5.884765e+02
  -5.361819e+02   1.449081e+02
  -3.403566e+02  -4.049153e+02
  -6.927966e+01  -5.491996e+02
   2.125062e+02  -1.942763e+02
   1.868282e+02   3.128866e+02
  -4.539551e+01   4.567426e+02
  -2.668971e+02   1.860200e+02
  -2.842927e+02  -3.601565e+02
   7.165619e+01  -5.916944e+02
   3.843793e+02  -2.799210e+02
   3.663123e+02   4.526865e+01
   1.914369e+02   2.889316e+02
  -6.624166e+01   1.963709e+02
  -8.601980e+01   4.210327e+01
   1.453611e+02   1.049991e+02
   1.954453e+02   2.816777e+02
  -7.399065e+01   3.370015e+02
  -4.628603e+02   9.889883e+01
  -4.484890e+02  -1.486950e+02
  -1.348067e+02  -2.839001e+02
   2.705538e+02  -8.871618e+01
   2.924089e+02   1.448966e+02
   3.252160e+01   2.792582e+02
  -2.673780e+02   2.310496e+02
  -3.011778e+02   9.179101e+01
  -2.045928e+02  -1.026733e+02
  -5.620426e+01  -2.631886e+02
  -6.883530e+01  -1.489368e+02
  -5.659229e+01   4.475788e+01
  -1.959722e+02   7.843014e+01
  -1.601792e+02  -1.781290e+02
  -3.668191e+00  -3.936162e+02
   1.602239e+02  -3.212704e+02
   2.988113e+02   6.735826e+00
   9.964313e+01   2.195517e+02
  -1.141907e+02   8.261632e+01
  -1.398107e+02  -2.139658e+02
   1.221687e+02  -2.779416e+02
   3.487210e+02   3.904347e+01
   4.225443e+02   3.598206e+02
   1.456975e+02   4.482729e+02
  -2.403035e+02   1.587119e+02
  -4.526988e+02  -5.628342e+01
  -3.245816e+02  -2.189885e+02
  -1.262042e+01  -1.437290e+02
   1.901767e+02  -1.306847e+02
   1.568449e+02  -2.116201e+01
   3.790445e+01  -6.198062e+01
  -3.824347e+01  -3.119899e+01
   5.450206e+01  -2.433270e+01
   1.415022e+02   5.358238e+01
   1.242164e+02   1.310389e+02
  -7.331607e+01   2.091941e+02
  -3.216936e+02   8.612768e+01
  -2.405570e+02  -5.489197e+01
   3.306736e+01  -3.203103e+02
   3.251761e+02  -3.072245e+02
   4.068444e+02  -9.541673e+01
   2.008770e+02   1.683704e+02
   3.380281e+01   3.060007e+02
  -6.356562e+01   2.931359e+02
  -2.218996e+01   1.805641e+02
  -5.440979e+01   7.371391e+01
  -1.846604e+02   7.346481e+01
  -2.924260e+02   4.068252e+01
  -2.327211e+02  -1.125874e+02
  -9.641706e+01  -2.646869e+02
   7.464997e+01  -2.068737e+02
   1.983402e+02   2.509652e+01
   9.554219e+01   2.026201e+02
  -4.923900e+01   2.378612e+02
  -2.209532e+02   5.447350e+01
  -2.133798e+02  -1.274122e+02
  -1.582114e+02  -2.209438e+02
   4.460335e+01  -1.795868e+02
   7.836771e+01  -1.328991e+02
   1.291600e+02  -1.016624e+02
   1.558419e+02  -9.379244e+01
   2.720003e+02  -2.754428e+01
   3.716260e+02   5.905504e+01
   3.007366e+02   3.258503e+02
  -4.110258e+01   3.976100e+02
  -3.572300e+02   3.229575e+02
  -4.701584e+02   1.114927e+02
  -2.663506e+02  -1.175799e+02
  -3.808714e+01  -2.355538e+02
   8.885933e+01  -1.292528e+02
   9.832484e+00  -7.247199e+00
  -6.028823e+01   3.388375e+01
  -7.448069e+01  -9.708412e+01
   7.967718e+00  -8.243144e+01
   1.617191e+02  -6.907017e+01
   6.104209e+01   6.256859e+01
  -4.403925e+01   1.165466e+02
  -1.613808e+02  -2.621042e+01
  -8.932710e+01  -2.272152e+02
   2.761411e+01  -3.483109e+02
   1.863794e+02  -2.117121e+02
   2.995043e+02   5.715657e+01
   2.478325e+02   2.549715e+02
   2.973125e+01   2.663769e+02
  -1.287878e+02   7.211539e+01
  -8.770104e+01  -6.125966e+00
  -7.480873e+00  -2.454938e+01
   5.145735e+01   7.071603e+01
  -3.412468e+01   1.169332e+02
  -1.209278e+02   4.248909e+01
  -1.613742e+02  -3.776322e+01
   3.900566e+00  -4.888040e+01
   9.826619e+01   2.901596e+01
   4.624262e+01   5.051676e+01
  -1.328775e+02   4.835723e+01
  -2.428707e+02  -2.741438e+01
  -2.425828e+02  -1.808471e+02
  -2.377246e+01  -2.540037e+02
   1.648873e+02  -2.109650e+02
   2.628846e+02  -7.934537e+01
   1.235974e+02   4.683832e+01
  -4.867425e+01   7.644213e+01
  -4.622905e+01   3.867221e+01
   8.586958e+01  -5.053947e+01
   1.628548e+02   4.449385e+01
   1.693049e+02   1.147676e+02
   4.743692e+01   1.497817e+02
  -1.029478e+02   1.077631e+02
  -1.501225e+02  -1.998301e+00
  -1.736819e+01  -2.630975e+01
   2.834188e+01   2.797342e+01
   3.014462e+01   9.948131e+01
  -8.485302e+01   1.336823e+02
  -2.221396e+02   1.365540e+00
  -1.991493e+02  -1.257387e+02
  -3.396613e+01  -1.591372e+02
   1.135666e+02  -1.191596e+02
   1.221866e+02  -4.569453e+00
   5.360894e+01   7.457827e+01
  -8.923934e+01   4.654082e+01
  -8.532361e+01   7.279969e+01
  -4.511936e+00  -3.312375e+01
   4.034403e+00   6.346111e+00
   4.466736e+00   4.064948e+01
  -9.551386e+01   2.020608e+01
  -5.993093e+01  -8.903169e+01
   3.905608e+01  -1.935499e+02
   1.145227e+02  -1.360254e+02
   1.821419e+02  -3.154863e+01
   1.656355e+02   1.433361e+02
   2.818884e+01   1.731017e+02
  -5.832369e+01   1.741574e+02
  -9.706713e+01   2.799711e+01
  -6.955933e+01  -3.424695e+01
  -9.618928e+00  -2.041831e+01
  -5.619639e+00   1.353834e+01
  -1.297232e+02   1.322403e+01
  -5.759021e+01  -7.863469e+01
   8.572903e+01  -1.167309e+02
   1.251890e+02  -6.217715e+01
   1.490208e+02   1.104409e+02
  -1.291360e+01   1.664868e+02
  -1.707664e+02   8.716375e+01
  -1.776122e+02  -1.007370e+02
  -3.341369e+01  -2.360381e+02
   1.413144e+02  -2.747649e+02
   2.549961e+02  -6.895150e+01
   2.325413e+02   1.003818e+02
   9.454133e+01   1.998994e+02
  -2.590556e+01   1.493314e+02
  -8.372128e+01   6.454899e+01
  -7.776092e+01   8.586049e+01
  -8.742552e+01   1.408822e+02
  -1.565564e+02   9.852847e+01
  -1.399230e+02   8.972613e+00
  -7.977469e+01  -1.854740e+02
  -2.569119e+01  -2.602742e+02
   8.861123e+01  -1.812178e+02
   1.927142e+02  -9.954935e+00
   1.641874e+02   1.162040e+02
   5.188643e+01   1.536862e+02
  -3.148876e+01   5.574561e+01
  -2.332286e+01  -1.090150e+01
  -2.126398e+01  -6.773712e+01
  -3.110698e+01  -2.991165e+01
  -6.683099e+00   9.725750e+00
  -5.480987e+01   1.662580e+01
  -5.920458e+01  -2.338975e+01
   4.806309e+01  -3.394833e+01
   1.609446e+02   2.920766e+01
   1.451125e+02   5.319699e+01
  -3.595817e+01   6.909332e+01
  -1.653063e+02   1.343610e+02
  -1.857017e+02   2.868622e+01
  -2.646575e+01  -4.936932e+01
   6.391355e+01  -7.867200e+01
   8.010861e+01   4.958181e+00
   4.209399e+01   1.403528e+01
  -1.817463e+01   4.873723e+01
   1.791455e+01   2.125767e+01
  -8.092981e+01   9.585170e+00
  -2.365294e+01  -2.684876e+01
  -8.114730e+01  -4.558072e+01
  -6.749617e+01  -8.443102e+00
  -9.434494e+01  -1.052733e+02
   3.013841e+01  -1.376137e+02
   1.366696e+02  -1.290564e+02
   1.553361e+02  -4.390806e+01
   1.358932e+02   1.033611e+02
  -9.826319e+00   1.662113e+02
  -7.122341e+01   1.201635e+02
  -8.556512e+01   2.542294e+00
   1.170578e+01  -2.863044e+01
   9.516547e+01   1.969962e+01
   5.033322e+01   4.115859e+01
  -6.777173e+01   7.659866e+01
  -1.798855e+02   3.854282e+01
  -1.237034e+02  -4.128634e+01
  -9.062971e+00  -5.780491e+01
   7.365691e+01  -4.557244e+01
   5.750619e+01   2.448672e+01
  -6.426695e+01   5.140955e+01
  -7.646438e+01  -2.762276e+01
  -8.765541e+01  -1.246408e+02
   6.869178e+01  -1.792654e+02
   1.477158e+02  -6.858680e+01
   1.172413e+02   1.304478e+02
  -9.526512e+00   1.594987e+02
  -7.541806e+01   1.686440e+02
  -1.067742e+02  -1.026746e+01
  -1.187568e+01  -1.371457e+02
  -2.038349e-01  -8.784459e+01
   3.347335e+01  -2.686547e+01
   1.867420e+01   2.058769e+01
  -4.972238e+00   1.703247e+00
   4.103452e+01  -1.683093e+01
   1.638312e+01   9.668452e+00
   2.636004e+01   9.688186e+01
   2.591700e+01   8.552590e+01
  -1.817878e+01   2.521149e+01
  -9.045561e+01  -1.820883e+01
  -1.003960e+02  -7.363182e+01
  -1.739103e+01  -4.647093e+01
   6.300176e+01  -5.139521e+01
   5.510872e+01   4.796546e-01
   1.222946e+01  -6.552390e+01
   2.653823e+00   1.796722e+00
  -2.259272e+01   2.106467e+00
   3.355236e+01   3.319776e+00
  -2.140499e+01  -3.572230e-01
  -7.188465e+01   1.131455e+01
  -6.075614e+01  -3.683296e+01
  -1.367585e+01  -5.663201e+01
   1.074079e+02  -9.193985e+01
   1.608180e+02   1.798489e+01
   1.039078e+02   7.604529e+01
   3.275023e+01   1.064697e+02
  -4.078055e+01   1.535232e+02
  -1.117785e+02   2.350779e+01
  -3.622119e+01  -4.461956e+01
  -2.250314e+01  -3.608339e+01
   1.997400e+01  -9.106318e-01
  -4.367119e+01   1.074099e+01
  -3.282107e+01  -2.003491e+01
  -5.288847e+00  -8.397588e+01
  -3.636093e+00  -7.289532e+01
   4.853793e+01  -3.911145e+00
   6.769681e+01   6.536198e+01
  -1.486050e+01   7.683407e+01
  -9.618237e+00   2.182831e+01
  -9.537652e+01  -2.656825e+01
  -2.823291e+01  -6.730954e+01
   3.387496e+01  -1.275868e+02
   1.086514e+02   1.233106e+01
   8.470083e+01   6.131138e+01
  -5.070161e+01   6.147600e+01
  -1.104191e+02   1.802716e+01
  -4.397882e+01  -4.363272e+01
   1.068361e+01  -2.324768e+01
  -2.779586e+01  -1.079728e+01
  -3.868109e+01   8.321556e+01
  -1.071960e+02   4.980836e+01
  -8.811994e+01  -3.598869e+00
   1.202691e+01  -9.846361e+01
   4.233134e+01  -8.960179e+01
   5.570640e+01  -2.707587e+01
   2.297957e+01   7.373517e+00
  -3.016414e+01   6.970901e+01
  -4.646628e+01   2.341928e+01
  -1.496148e+01  -6.683835e+01
  -1.746525e+01  -3.042774e+01
   3.640515e+01  -4.606885e+01
   6.661546e+01   4.440959e+01
   3.379763e+01  -8.014488e-01
  -6.744347e+00  -2.909677e+01
   5.057110e+01  -6.532726e+00
  -4.349876e+01   2.460915e+01
   1.544462e+01   4.902523e+01
  -1.301430e+01   9.180873e+01
  -6.135577e+00  -4.673336e+01
  -1.231457e+01  -3.307573e+01
   6.991537e+01  -2.170909e+01
   6.776095e+01   2.056797e+01
  -2.106261e+00   8.274006e+01
  -6.934481e+01   5.656273e+01
  -4.921808e+01   1.419737e+01
  -7.307192e+01   4.381865e+00
   3.191393e+01  -5.708360e+01
   2.923466e+01  -4.538506e+01
  -1.886961e+01  -1.685026e+01
  -2.484961e+01   2.325055e+00
  -9.742578e+01  -2.701328e+01
   5.182375e+01  -5.796922e+01
   7.440087e+01  -2.345527e+01
