
 $NMID
 id='ANONYMOUS ', fmtdat='(2E16.6)'
 volume=1.0
 tramp=1.0
 $END
   1.781895e+07  -7.620930e+05
   1.248020e+07   7.359729e+06
   9.052878e+05   1.112605e+07
  -7.160951e+06   8.363232e+06
  -6.657783e+06   1.614468e+06
  -8.137900e+05  -3.219310e+06
   3.645375e+06  -2.154354e+06
   3.219605e+06   2.695351e+06
  -3.986603e+05   5.348543e+06
  -3.305315e+06   2.663997e+06
  -3.139800e+06  -2.257955e+06
  -5.564308e+05  -3.943073e+06
   1.797509e+06  -8.301407e+05
   1.645184e+06   3.349845e+06
  -8.479224e+05   4.051237e+06
  -3.095590e+06   6.452324e+05
  -2.578049e+06  -3.473746e+06
   5.040899e+05  -4.655715e+06
   3.360386e+06  -2.346003e+06
   3.545052e+06   9.516168e+05
   1.464401e+06   2.479612e+06
  -2.834388e+05   1.828707e+06
   1.283512e+05   8.745883e+05
   1.775882e+06   1.357349e+06
   2.042635e+06   2.868926e+06
  -4.307977e+05   3.459270e+06
  -3.971157e+06   1.978832e+06
  -5.280475e+06  -6.364817e+05
  -2.853649e+06  -2.390203e+06
   1.161600e+06  -2.105123e+06
   2.978064e+06  -2.527035e+05
   1.130955e+06   1.566856e+06
  -2.052675e+06   1.769087e+06
  -3.197676e+06  -8.099090e+03
  -1.546025e+06  -2.326349e+06
   7.067564e+05  -2.963698e+06
   1.333448e+06  -1.190810e+06
   3.797727e+05   1.112191e+06
  -5.541666e+05   1.348257e+06
  -4.069642e+05  -7.078786e+05
   5.444309e+05  -2.488566e+06
   1.395797e+06  -1.701992e+06
   1.401303e+06   8.388614e+05
   3.400744e+05   2.197124e+06
  -1.137693e+06   8.342337e+05
  -1.594675e+06  -1.682260e+06
  -6.144797e+04  -2.614803e+06
   2.494185e+06  -1.030761e+06
   3.614385e+06   1.515976e+06
   1.861054e+06   2.821026e+06
  -1.389411e+06   2.052113e+06
  -3.207519e+06   1.452055e+05
  -2.138535e+06  -1.276355e+06
   4.229591e+05  -1.266204e+06
   1.897828e+06  -1.893715e+05
   1.181554e+06   7.440564e+05
  -5.123106e+05   6.345084e+05
  -1.197873e+06  -2.893497e+05
  -2.355464e+05  -9.758863e+05
   1.102897e+06  -6.547628e+05
   1.101981e+06   3.885101e+05
  -4.338716e+05   1.085639e+06
  -1.837859e+06   5.738085e+05
  -1.349662e+06  -9.816475e+05
   8.999584e+05  -2.386795e+06
   2.971736e+06  -2.316881e+06
   3.188997e+06  -5.049933e+05
   1.773155e+06   1.854954e+06
   2.617864e+05   3.103796e+06
  -3.238252e+05   2.684370e+06
  -3.192706e+05   1.571382e+06
  -5.926195e+05   9.906707e+05
  -1.385677e+06   9.520146e+05
  -2.120693e+06   4.483450e+05
  -2.054578e+06  -9.407136e+05
  -9.508168e+05  -2.179852e+06
   6.705448e+05  -1.872919e+06
   1.758573e+06  -2.613340e+03
   1.433719e+06   1.851129e+06
  -1.834386e+05   2.093411e+06
  -1.855589e+06   6.581286e+05
  -2.244956e+06  -1.116782e+06
  -1.188937e+06  -1.920894e+06
   1.877929e+05  -1.583846e+06
   7.482560e+05  -8.997524e+05
   5.779320e+05  -6.332517e+05
   7.273597e+05  -7.911814e+05
   1.751979e+06  -7.373731e+05
   2.799833e+06   9.574100e+04
   2.423252e+06   1.562314e+06
   2.918792e+05   2.769691e+06
  -2.156013e+06   2.738065e+06
  -2.996182e+06   1.281639e+06
  -1.733835e+06  -6.580019e+05
   2.285622e+05  -1.678079e+06
   1.071397e+06  -1.143142e+06
   3.391593e+05   1.781202e+05
  -8.493996e+05   8.489262e+05
  -1.174363e+06   2.593558e+05
  -4.325422e+05  -7.247604e+05
   4.770251e+05  -7.930869e+05
   5.867477e+05   1.954251e+05
  -2.458290e+05   9.409688e+05
  -1.262475e+06   2.085026e+05
  -1.424369e+06  -1.612882e+06
  -2.593917e+05  -2.774658e+06
   1.618744e+06  -2.008083e+06
   2.835320e+06   1.424692e+05
   2.387520e+06   1.924708e+06
   6.368119e+05   2.134112e+06
  -9.444182e+05   1.108398e+06
  -1.184878e+06   1.091280e+05
  -3.441074e+05  -1.696426e+04
   2.849025e+05   4.992511e+05
  -1.361705e+05   8.207470e+05
  -1.080075e+06   4.411399e+05
  -1.323109e+06  -3.476056e+05
  -4.121370e+05  -8.053467e+05
   7.364551e+05  -4.992318e+05
   8.038986e+05   2.570932e+05
  -4.365952e+05   6.748208e+05
  -1.756221e+06   2.204506e+05
  -1.701619e+06  -8.530120e+05
  -1.347085e+05  -1.666888e+06
   1.583253e+06  -1.472934e+06
   1.967248e+06  -3.652759e+05
   8.633071e+05   7.341752e+05
  -5.157373e+05   9.046366e+05
  -8.812065e+05   1.351747e+05
  -6.570186e+04  -6.418115e+05
   9.888076e+05  -5.239397e+05
   1.235782e+06   3.859412e+05
   4.705287e+05   1.107461e+06
  -5.690011e+05   8.935032e+05
  -9.318282e+05   5.002864e+04
  -3.583164e+05  -4.573108e+05
   4.478844e+05  -9.888719e+04
   5.050514e+05   6.792551e+05
  -3.985950e+05   9.821684e+05
  -1.398151e+06   3.845724e+05
  -1.419381e+06  -6.933582e+05
  -3.365710e+05  -1.398571e+06
   8.730377e+05  -1.187544e+06
   1.159262e+06  -2.778568e+05
   4.513683e+05   5.444367e+05
  -3.889271e+05   6.297723e+05
  -5.434476e+05   6.749451e+04
  -2.393415e+04  -4.415251e+05
   4.799419e+05  -3.640027e+05
   3.943959e+05   8.162724e+04
  -1.503016e+05   2.222182e+05
  -4.727591e+05  -2.312927e+05
  -5.483943e+04  -7.945468e+05
   8.713846e+05  -7.205204e+05
   1.467513e+06   1.794834e+05
   1.085708e+06   1.291183e+06
  -6.465301e+04   1.744948e+06
  -1.100742e+06   1.190205e+06
  -1.327249e+06   8.775343e+04
  -8.511904e+05  -7.182597e+05
  -3.249367e+05  -7.607701e+05
  -1.843747e+05  -3.380718e+05
  -2.507266e+05  -1.279352e+05
  -6.220531e+04  -4.014367e+05
   5.110112e+05  -7.023586e+05
   1.040379e+06  -3.989559e+05
   9.192002e+05   4.955176e+05
  -1.266957e+04   1.202772e+06
  -1.184198e+06   9.473629e+05
  -1.670654e+06  -2.157799e+05
  -9.776995e+05  -1.399247e+06
   4.669151e+05  -1.687581e+06
   1.630127e+06  -9.301066e+05
   1.752597e+06   2.045172e+05
   9.576718e+05   8.910787e+05
   2.434025e+04   8.698215e+05
  -3.900437e+05   5.636541e+05
  -2.863010e+05   5.187071e+05
  -1.580377e+05   7.680288e+05
  -3.852725e+05   8.090949e+05
  -8.188290e+05   2.283292e+05
  -9.424129e+05  -7.321244e+05
  -4.377125e+05  -1.327570e+06
   4.124685e+05  -1.036266e+06
   9.233498e+05  -7.739055e+04
   6.624885e+05   7.983219e+05
  -1.010464e+05   9.817167e+05
  -6.565578e+05   4.714598e+05
  -5.730208e+05  -2.352645e+05
  -1.057827e+05  -6.308964e+05
   1.507817e+05  -5.928298e+05
  -3.762773e+04  -3.742393e+05
  -2.815251e+05  -2.652444e+05
  -3.288101e+04  -2.863809e+05
   7.313483e+05  -2.143832e+05
   1.368056e+06   1.202275e+05
   1.174029e+06   6.042819e+05
   1.438259e+05   9.176209e+05
  -9.370885e+05   8.156140e+05
  -1.226858e+06   3.485366e+05
  -6.464262e+05  -1.546329e+05
   1.004256e+05  -3.322407e+05
   3.136572e+05  -1.081361e+05
  -1.546714e+04   1.981099e+05
  -3.556315e+05   1.685320e+05
  -3.308068e+05  -2.283376e+05
  -8.301444e+04  -5.382378e+05
   2.957780e+04  -3.455067e+05
  -1.048263e+05   1.555497e+05
  -2.779877e+05   3.227714e+05
  -2.273489e+05  -1.392839e+05
   1.230355e+05  -7.447179e+05
   5.935152e+05  -7.621951e+05
   8.178922e+05  -8.757006e+04
   4.921279e+05   6.255169e+05
  -2.582198e+05   7.066080e+05
  -7.987103e+05   1.622290e+05
  -5.191429e+05  -4.201542e+05
   4.430078e+05  -5.058997e+05
   1.179794e+06  -5.504533e+04
   9.021867e+05   5.417120e+05
  -1.887892e+05   8.155624e+05
  -1.076356e+06   5.619203e+05
  -9.900874e+05  -1.936988e+03
  -1.758611e+05  -3.883938e+05
   4.377393e+05  -2.707044e+05
   2.439569e+05   1.599795e+05
  -4.564217e+05   3.335517e+05
  -8.343239e+05  -1.098005e+05
  -4.066395e+05  -8.677189e+05
   4.968265e+05  -1.186441e+06
   1.093898e+06  -5.949436e+05
   9.136032e+05   5.504600e+05
   1.804688e+05   1.305575e+06
  -4.949998e+05   1.013676e+06
  -6.916306e+05  -2.536513e+04
  -4.234944e+05  -8.335762e+05
   3.051583e+04  -7.595709e+05
   3.728681e+05  -1.195216e+05
   4.189931e+05   2.740875e+05
   2.012083e+05   1.193246e+05
   1.786638e+03  -9.420162e+04
   9.671694e+04   1.510517e+05
   3.526671e+05   6.578726e+05
   2.645553e+05   7.884594e+05
  -3.939767e+05   3.223503e+05
  -1.092273e+06  -2.947124e+05
  -1.036831e+06  -5.645082e+05
  -1.649636e+05  -4.785147e+05
   6.803069e+05  -3.178928e+05
   7.328437e+05  -1.896943e+05
   1.954082e+05  -1.839217e+04
  -1.291656e+05   1.579994e+05
   7.166971e+04   1.934036e+05
   2.910270e+05   1.129557e+05
   2.322072e+03   1.011370e+05
  -5.739716e+05   1.491994e+05
  -7.399158e+05  -1.434560e+04
  -1.841240e+05  -4.722176e+05
   6.706122e+05  -8.053330e+05
   1.138683e+06  -5.068129e+05
   9.025667e+05   3.352891e+05
   1.883330e+05   1.019461e+06
  -4.966225e+05   9.701765e+05
  -7.402565e+05   3.427926e+05
  -4.890829e+05  -2.061965e+05
  -6.254378e+04  -2.533405e+05
   1.310039e+05   5.749471e+03
  -2.704435e+04   7.717317e+04
  -2.665057e+05  -2.290348e+05
  -2.308500e+05  -5.741571e+05
   1.349718e+05  -4.706736e+05
   5.094206e+05   1.363206e+05
   4.927712e+05   7.297723e+05
   1.073541e+03   7.276015e+05
  -5.897543e+05   1.049125e+05
  -7.253703e+05  -5.783388e+05
  -2.104567e+05  -7.697233e+05
   5.135859e+05  -4.325261e+05
   7.590817e+05   5.968757e+04
   3.410722e+05   3.699097e+05
  -1.882292e+05   4.112503e+05
  -1.939888e+05   2.509280e+05
   2.558370e+05   3.213450e+04
   4.852973e+05  -2.690283e+04
   8.293759e+04   2.027799e+05
  -5.792514e+05   5.114029e+05
  -8.244771e+05   4.676235e+05
  -4.697040e+05  -5.238118e+04
   6.152677e+04  -5.925827e+05
   3.120402e+05  -5.895492e+05
   2.239061e+05  -6.572399e+04
   5.072548e+03   3.747225e+05
  -1.791020e+05   2.731831e+05
  -2.593612e+05  -1.692466e+05
  -1.801555e+05  -4.119490e+05
   5.028956e+04  -2.427026e+05
   2.777447e+05   5.668218e+04
   3.198714e+05   1.445577e+05
   1.739604e+05   2.120073e+04
   8.908972e+03  -5.221184e+04
  -5.788530e+04   8.426720e+04
  -8.318316e+04   2.987968e+05
  -1.662615e+05   3.183411e+05
  -2.702137e+05   3.334180e+04
  -2.409212e+05  -3.488507e+05
   2.639708e+03  -4.732445e+05
   3.234855e+05  -1.966537e+05
   4.330380e+05   2.373025e+05
   1.542886e+05   4.353973e+05
  -3.368239e+05   2.585092e+05
  -5.913405e+05  -7.326163e+04
  -3.273236e+05  -2.653842e+05
   2.050714e+05  -2.378730e+05
   4.356526e+05  -1.072995e+05
   1.238055e+05  -4.920855e+03
  -3.244281e+05  -2.372019e+03
  -3.233846e+05  -1.183133e+05
   1.790764e+05  -2.580898e+05
   6.317027e+05  -2.024152e+05
