
 $NMID
 id='ANONYMOUS ', fmtdat='(2E16.6)'
 volume=1.0
 tramp=1.0
 $END
   5.926823e+07   1.445717e+05
   3.556687e+07   3.690120e+07
  -7.993843e+06   4.016067e+07
  -2.915559e+07   1.526972e+07
  -1.733835e+07  -7.537977e+06
   3.555931e+06  -9.830242e+06
   1.036168e+07   1.381755e+06
   2.846201e+06   1.032872e+07
  -6.618297e+06   9.770833e+06
  -1.017909e+07   2.022826e+06
  -7.316239e+06  -6.543485e+06
  -8.165135e+05  -9.022701e+06
   4.190213e+06  -2.873969e+06
   2.713947e+06   5.695487e+06
  -4.012269e+06   6.831565e+06
  -8.278379e+06  -1.460811e+06
  -4.617304e+06  -1.075513e+07
   4.034255e+06  -1.238705e+07
   1.064327e+07  -6.178934e+06
   1.136012e+07   2.169766e+06
   6.972686e+06   7.875225e+06
   7.445292e+05   9.120466e+06
  -3.088481e+06   6.412171e+06
  -2.031663e+06   2.853701e+06
   1.081218e+06   2.233283e+06
   2.472891e+05   4.325743e+06
  -5.634594e+06   4.570484e+06
  -1.009411e+07   5.022084e+05
  -7.376789e+06  -4.332012e+06
  -2.873990e+05  -5.297497e+06
   3.859539e+06  -2.694409e+06
   2.574066e+06  -5.102040e+04
  -6.095961e+05   9.232987e+05
  -2.332497e+06   4.845798e+05
  -2.261077e+06  -1.472400e+06
  -7.263847e+05  -4.080228e+06
   1.880388e+06  -4.043630e+06
   3.403336e+06   7.558909e+04
   1.822556e+06   3.806990e+06
  -7.954360e+05   2.056021e+06
  -3.508660e+05  -2.533940e+06
   2.590217e+06  -2.388404e+06
   2.558050e+06   3.378419e+06
  -2.594094e+06   6.459693e+06
  -7.345335e+06   1.060431e+06
  -5.382411e+06  -7.306426e+06
   2.039496e+06  -8.979560e+06
   7.817250e+06  -2.522879e+06
   7.270882e+06   4.713050e+06
   1.887276e+06   6.349951e+06
  -3.676502e+06   2.815848e+06
  -5.508305e+06  -1.656341e+06
  -2.511796e+06  -3.695497e+06
   2.565025e+06  -2.301518e+06
   4.760801e+06   9.986195e+05
   2.036674e+06   2.879629e+06
  -1.814430e+06   1.435670e+06
  -1.816527e+06  -1.096302e+06
   1.418407e+06  -9.619770e+05
   2.618274e+06   1.879652e+06
  -6.673896e+05   3.655751e+06
  -4.899815e+06   2.001937e+06
  -5.588594e+06  -1.457930e+06
  -2.423476e+06  -4.203181e+06
   1.911012e+06  -5.516244e+06
   5.262249e+06  -5.049709e+06
   6.495058e+06  -1.809912e+06
   4.797734e+06   3.317884e+06
   9.665658e+05   6.474866e+06
  -1.993544e+06   5.000119e+06
  -1.885058e+06   1.262957e+06
  -1.803780e+05  -2.973881e+05
   4.718720e+04   9.961874e+05
  -1.657566e+06   1.861922e+06
  -2.928557e+06   2.529108e+05
  -2.108408e+06  -2.013377e+06
  -2.017733e+04  -2.232075e+06
   1.615743e+06  -1.975144e+05
   1.734287e+06   2.186207e+06
  -1.478690e+04   3.074453e+06
  -2.905146e+06   1.725750e+06
  -4.688567e+06  -1.259653e+06
  -3.379333e+06  -3.957794e+06
   4.409360e+04  -4.452647e+06
   2.405418e+06  -2.863987e+06
   2.365955e+06  -1.194453e+06
   1.945207e+06  -7.038854e+05
   3.105408e+06  -4.747160e+05
   4.571744e+06   8.422435e+05
   3.643429e+06   2.944210e+06
   9.753374e+04   4.344498e+06
  -3.406631e+06   4.072867e+06
  -4.400526e+06   2.197828e+06
  -2.787241e+06  -4.531621e+05
  -2.810112e+05  -2.342993e+06
   1.162183e+06  -2.026424e+06
   5.922559e+05   3.718176e+04
  -1.153030e+06   1.369973e+06
  -2.016043e+06   4.067295e+05
  -9.687387e+05  -1.276988e+06
   5.518475e+05  -1.166919e+06
   4.404199e+05   4.218526e+05
  -1.153120e+06   7.192949e+05
  -1.963586e+06  -1.406646e+06
  -6.302217e+05  -3.718301e+06
   1.758917e+06  -3.585312e+06
   3.355758e+06  -1.109400e+06
   3.464085e+06   1.591150e+06
   2.338443e+06   2.941304e+06
   4.348292e+05   2.746324e+06
  -1.319240e+06   1.525984e+06
  -1.660898e+06   2.261951e+05
  -5.195769e+05  -5.375076e+04
   3.698309e+05   7.989547e+05
  -4.542485e+05   1.419693e+06
  -2.031484e+06   5.953910e+05
  -2.147985e+06  -9.683551e+05
  -3.889520e+05  -1.511689e+06
   1.249579e+06  -5.881829e+05
   9.258794e+05   4.965819e+05
  -9.157623e+05   5.267374e+05
  -2.293784e+06  -3.885183e+05
  -1.802113e+06  -1.463486e+06
   3.049525e+05  -2.066970e+06
   2.460512e+06  -1.705694e+06
   2.932618e+06  -2.509442e+05
   1.275081e+06   1.357425e+06
  -9.900764e+05   1.588612e+06
  -1.662251e+06   1.891314e+05
  -2.088446e+05  -1.149244e+06
   1.614360e+06  -7.650811e+05
   1.809001e+06   8.539639e+05
   3.253902e+05   1.757165e+06
  -1.180921e+06   1.010611e+06
  -1.327102e+06  -3.620470e+05
  -2.403945e+05  -8.386218e+05
   8.517381e+05  -4.827510e+04
   7.713706e+05   1.124489e+06
  -6.214474e+05   1.502148e+06
  -2.128259e+06   5.561234e+05
  -2.144275e+06  -1.131273e+06
  -3.829420e+05  -2.202477e+06
   1.548727e+06  -1.723265e+06
   1.833393e+06  -1.965910e+05
   5.160401e+05   9.304188e+05
  -7.112367e+05   8.394448e+05
  -6.635166e+05   7.199544e+04
   1.400331e+05  -3.679662e+05
   5.150135e+05  -1.973195e+05
   1.052595e+05   7.281035e+04
  -4.896977e+05  -1.035218e+05
  -5.362113e+05  -7.350569e+05
   2.443760e+05  -1.258653e+06
   1.478534e+06  -9.278189e+05
   2.197916e+06   4.655372e+05
   1.527917e+06   2.074232e+06
  -2.582631e+05   2.554764e+06
  -1.725633e+06   1.462853e+06
  -1.775971e+06  -1.651815e+05
  -8.765855e+05  -9.522884e+05
  -3.160627e+05  -6.696667e+05
  -5.107752e+05  -2.191644e+05
  -6.759320e+05  -3.406073e+05
  -9.150133e+04  -8.187368e+05
   9.434893e+05  -9.397615e+05
   1.533753e+06  -3.155055e+05
   1.087445e+06   7.764699e+05
  -2.938231e+05   1.527840e+06
  -1.834150e+06   1.102003e+06
  -2.365361e+06  -5.426772e+05
  -1.165325e+06  -2.238652e+06
   1.108861e+06  -2.492797e+06
   2.712432e+06  -1.052401e+06
   2.474019e+06   7.413318e+05
   9.747804e+05   1.432126e+06
  -2.438118e+05   9.829576e+05
  -4.093628e+05   5.166076e+05
  -6.964581e+04   7.924190e+05
  -1.107602e+05   1.391418e+06
  -7.250444e+05   1.365423e+06
  -1.377480e+06   3.270821e+05
  -1.405141e+06  -1.154850e+06
  -5.692384e+05  -2.007731e+06
   6.712876e+05  -1.512010e+06
   1.358148e+06   2.024087e+04
   8.412298e+05   1.373671e+06
  -4.397214e+05   1.474692e+06
  -1.249142e+06   4.047609e+05
  -8.549625e+05  -7.662890e+05
   1.542782e+05  -1.149644e+06
   5.943661e+05  -8.217056e+05
   1.034640e+05  -4.330189e+05
  -4.570775e+05  -3.549163e+05
  -6.110708e+04  -4.037039e+05
   1.223542e+06  -2.079271e+05
   2.187069e+06   3.764166e+05
   1.699496e+06   1.120429e+06
  -6.589458e+04   1.527566e+06
  -1.705790e+06   1.194901e+06
  -1.946126e+06   2.654017e+05
  -8.743913e+05  -5.484921e+05
   2.872238e+05  -6.073661e+05
   5.468407e+05  -2.414209e+04
   3.485491e+04   4.545697e+05
  -4.648377e+05   2.710420e+05
  -5.079765e+05  -3.655129e+05
  -2.738485e+05  -7.608451e+05
  -1.095473e+05  -5.046312e+05
  -1.461147e+05   8.909509e+04
  -2.894804e+05   2.928240e+05
  -2.862018e+05  -2.504298e+05
   1.529358e+05  -1.035513e+06
   9.611873e+05  -1.121222e+06
   1.457099e+06  -1.847730e+05
   9.098176e+05   9.715592e+05
  -4.471583e+05   1.214954e+06
  -1.341123e+06   3.618876e+05
  -7.726597e+05  -6.069333e+05
   7.532977e+05  -6.760054e+05
   1.672241e+06   1.277167e+05
   1.033034e+06   9.302902e+05
  -5.402101e+05   1.028760e+06
  -1.587756e+06   4.658050e+05
  -1.287372e+06  -2.294563e+05
  -1.269271e+05  -5.418634e+05
   6.926522e+05  -2.696495e+05
   4.102492e+05   3.197452e+05
  -6.130664e+05   5.563069e+05
  -1.251564e+06  -7.911976e+04
  -7.200275e+05  -1.244591e+06
   6.116657e+05  -1.804031e+06
   1.563225e+06  -9.418531e+05
   1.324656e+06   8.005527e+05
   2.055748e+05   1.890985e+06
  -7.925800e+05   1.351690e+06
  -9.739489e+05  -2.081864e+05
  -4.317293e+05  -1.266687e+06
   2.604346e+05  -1.012876e+06
   6.015871e+05  -7.631843e+04
   4.746325e+05   4.001028e+05
   1.545988e+05   1.421550e+05
   5.901375e+04  -9.555566e+04
   3.192261e+05   3.244787e+05
   5.419797e+05   1.029763e+06
   1.727984e+05   1.138915e+06
  -7.830295e+05   4.100896e+05
  -1.552697e+06  -5.008324e+05
  -1.327130e+06  -8.943245e+05
  -1.887447e+05  -7.444633e+05
   8.856922e+05  -4.398326e+05
   1.034976e+06  -1.792465e+05
   3.981719e+05   6.902103e+04
  -1.472315e+05   2.397422e+05
  -6.289507e+04   2.060597e+05
   2.536955e+05   8.822234e+04
   6.323723e+04   1.390049e+05
  -6.723434e+05   2.571271e+05
  -1.111101e+06  -5.589052e+03
  -4.968149e+05  -7.364338e+05
   8.658594e+05  -1.261662e+06
   1.818106e+06  -8.206934e+05
   1.527949e+06   4.401931e+05
   3.020958e+05   1.483871e+06
  -8.196825e+05   1.466420e+06
  -1.111422e+06   5.896559e+05
  -6.896033e+05  -2.298820e+05
  -1.543527e+05  -3.795912e+05
   4.901753e+04  -8.663041e+04
  -9.596928e+04  -1.525255e+03
  -3.050492e+05  -3.987450e+05
  -2.503560e+05  -8.566267e+05
   1.827545e+05  -7.259465e+05
   7.153647e+05   1.065338e+05
   8.027189e+05   9.853109e+05
   1.593972e+05   1.094695e+06
  -7.775727e+05   2.940314e+05
  -1.108167e+06  -7.315826e+05
  -3.934428e+05  -1.154004e+06
   7.471918e+05  -7.431412e+05
   1.200229e+06   6.539246e+04
   5.835546e+05   6.671539e+05
  -3.027465e+05   7.474989e+05
  -4.254833e+05   3.985517e+05
   2.339837e+05  -1.317244e+03
   6.804834e+05  -4.858725e+04
   1.664823e+05   3.309543e+05
  -8.723005e+05   7.182732e+05
  -1.357179e+06   5.561215e+05
  -8.372912e+05  -2.066697e+05
   9.564488e+04  -9.327870e+05
   6.062544e+05  -9.218562e+05
   4.783721e+05  -1.951047e+05
   7.429917e+04   4.950361e+05
  -2.452607e+05   4.782138e+05
  -3.714633e+05  -1.279875e+05
  -2.765803e+05  -6.092196e+05
   4.559168e+04  -4.769835e+05
   4.154014e+05   3.329624e+04
   5.154284e+05   3.129480e+05
   2.582628e+05   1.174634e+05
  -5.134519e+04  -1.793777e+05
  -8.964704e+04  -8.875729e+04
   5.164318e+04   3.561117e+05
   4.664909e+03   6.113405e+05
  -3.179869e+05   2.826291e+05
  -5.234002e+05  -3.652588e+05
  -2.190812e+05  -6.795570e+05
   4.159523e+05  -3.496009e+05
   7.241819e+05   2.722013e+05
   2.873576e+05   5.942432e+05
  -5.433436e+05   3.956113e+05
  -9.522917e+05  -6.010294e+04
  -5.190607e+05  -3.955898e+05
   3.075650e+05  -4.476918e+05
   6.823974e+05  -2.730712e+05
   2.874177e+05  -2.666060e+04
  -3.344855e+05   9.738893e+04
  -4.193500e+05  -3.252032e+04
   1.505544e+05  -2.902626e+05
   7.431827e+05  -2.941079e+05
