
 $NMID
 id='ANONYMOUS ', fmtdat='(2E16.6)'
 volume=1.0
 tramp=1.0
 $END
  -3.478871e+07   9.793715e+05
  -2.286340e+07  -1.778277e+07
   1.194218e+06  -2.270062e+07
   1.548657e+07  -1.289449e+07
   1.171522e+07   4.816163e+05
  -1.437787e+05   6.091251e+06
  -6.644088e+06   1.826109e+06
  -4.104296e+06  -5.656997e+06
   2.256094e+06  -8.206226e+06
   6.234099e+06  -3.301201e+06
   5.279553e+06   4.111516e+06
   8.298496e+05   6.545471e+06
  -2.992586e+06   1.684962e+06
  -2.449096e+06  -4.971321e+06
   1.977203e+06  -6.032242e+06
   5.484203e+06  -2.579588e+05
   3.941856e+06   6.551090e+06
  -1.629826e+06   8.231062e+06
  -6.404478e+06   4.152463e+06
  -6.812908e+06  -1.540124e+06
  -3.491818e+06  -4.710494e+06
   2.680479e+04  -4.438320e+06
   7.231280e+05  -2.739770e+06
  -1.193650e+06  -2.212609e+06
  -2.332379e+06  -3.521969e+06
   3.634996e+05  -4.688550e+06
   5.566346e+06  -3.290094e+06
   8.162593e+06   4.629561e+05
   4.987561e+06   3.599565e+06
  -1.045392e+06   3.616717e+06
  -4.060346e+06   1.039186e+06
  -1.856416e+06  -1.535978e+06
   2.234724e+06  -2.019592e+06
   3.865002e+06  -1.154345e+05
   2.184165e+06   2.759193e+06
  -5.031399e+05   4.135720e+06
  -1.865675e+06   2.355385e+06
  -1.354642e+06  -1.116774e+06
   1.270244e+04  -2.423836e+06
   6.121430e+05   1.176833e+05
  -4.502922e+05   3.206954e+06
  -2.139938e+06   2.389305e+06
  -2.156323e+06  -1.802535e+06
   3.702947e+05  -4.068151e+06
   3.236625e+06  -1.181993e+06
   3.171686e+06   3.742950e+06
  -4.797444e+05   5.192538e+06
  -4.719090e+06   1.783225e+06
  -5.711864e+06  -2.844760e+06
  -2.419976e+06  -4.643223e+06
   2.440444e+06  -2.877095e+06
   4.801793e+06   3.162997e+05
   2.881706e+06   2.343281e+06
  -1.146270e+06   1.953471e+06
  -3.275084e+06  -7.115087e+04
  -1.790861e+06  -1.567508e+06
   1.021736e+06  -1.061491e+06
   1.729373e+06   5.995476e+05
  -1.656450e+05   1.270089e+06
  -1.875795e+06   1.323792e+05
  -9.440761e+05  -1.448201e+06
   1.827325e+06  -1.690895e+06
   3.455954e+06  -1.783953e+05
   2.064028e+06   2.182535e+06
  -1.438836e+06   3.970290e+06
  -4.474612e+06   3.766736e+06
  -5.044566e+06   1.032914e+06
  -3.151712e+06  -2.792855e+06
  -5.534230e+05  -4.959358e+06
   8.880671e+05  -4.134660e+06
   8.736698e+05  -1.947964e+06
   6.659889e+05  -8.983440e+05
   1.377601e+06  -1.216031e+06
   2.581969e+06  -9.679505e+05
   2.878154e+06   8.663984e+05
   1.549941e+06   2.748605e+06
  -6.624052e+05   2.507883e+06
  -2.219690e+06   5.912209e+04
  -1.932473e+06  -2.476123e+06
   1.824384e+05  -2.974567e+06
   2.682056e+06  -1.158025e+06
   3.587875e+06   1.467107e+06
   2.166186e+06   3.046192e+06
  -1.873001e+05   2.860172e+06
  -1.430079e+06   1.728446e+06
  -1.256778e+06   9.833407e+05
  -1.288198e+06   9.969298e+05
  -2.643640e+06   8.758689e+05
  -4.111666e+06  -3.350583e+05
  -3.470564e+06  -2.405624e+06
  -3.228824e+05  -4.015166e+06
   3.130126e+06  -3.904942e+06
   4.254880e+06  -1.912522e+06
   2.531179e+06   7.830351e+05
  -1.458525e+05   2.345062e+06
  -1.401079e+06   1.725906e+06
  -5.101614e+05  -1.834768e+05
   1.174626e+06  -1.242735e+06
   1.751041e+06  -3.842112e+05
   7.160052e+05   1.086255e+06
  -6.302612e+05   1.131969e+06
  -7.147840e+05  -3.124455e+05
   5.743080e+05  -1.152054e+06
   1.831517e+06   1.889629e+05
   1.614877e+06   2.684866e+06
  -2.436941e+05   3.817347e+06
  -2.590728e+06   2.334339e+06
  -3.839171e+06  -6.034135e+05
  -3.061268e+06  -2.776555e+06
  -7.597180e+05  -2.924771e+06
   1.324486e+06  -1.545506e+06
   1.662624e+06  -1.743308e+05
   4.946058e+05   3.242702e+04
  -3.923925e+05  -7.263265e+05
   2.612657e+05  -1.227948e+06
   1.659364e+06  -6.177863e+05
   1.942960e+06   6.177921e+05
   5.319033e+05   1.236918e+06
  -1.089167e+06   6.720469e+05
  -1.068566e+06  -3.945784e+05
   6.982897e+05  -8.231904e+05
   2.413448e+06  -1.074139e+05
   2.217776e+06   1.274176e+06
   4.656509e+04   2.260592e+06
  -2.289226e+06   1.963394e+06
  -2.809939e+06   4.398245e+05
  -1.233550e+06  -1.122066e+06
   7.949929e+05  -1.363362e+06
   1.357960e+06  -1.952282e+05
   1.301677e+05   9.689295e+05
  -1.448574e+06   7.463361e+05
  -1.756709e+06  -6.272196e+05
  -5.685825e+05  -1.612334e+06
   9.056160e+05  -1.188403e+06
   1.314979e+06   4.875618e+04
   4.326721e+05   6.958392e+05
  -6.867013e+05   1.145688e+05
  -7.235001e+05  -9.969970e+05
   5.754647e+05  -1.408169e+06
   2.004968e+06  -5.425656e+05
   2.032830e+06   1.016095e+06
   4.482934e+05   2.029394e+06
  -1.315552e+06   1.684493e+06
  -1.687423e+06   3.380090e+05
  -6.044634e+05  -8.105526e+05
   5.892599e+05  -8.731831e+05
   7.332554e+05  -9.155386e+04
  -1.493587e+04   5.443622e+05
  -6.257331e+05   4.185750e+05
  -4.222514e+05  -1.030881e+05
   2.923618e+05  -1.909018e+05
   6.260236e+05   4.442515e+05
  -1.698785e+04   1.155656e+06
  -1.295940e+06   9.851442e+05
  -2.096811e+06  -3.135974e+05
  -1.523205e+06  -1.885683e+06
   1.386001e+05  -2.478560e+06
   1.596631e+06  -1.611904e+06
   1.839360e+06  -4.045698e+04
   1.104783e+06   9.948576e+05
   4.151322e+05   9.569030e+05
   3.287320e+05   4.025683e+05
   4.424678e+05   2.256380e+05
   8.612561e+04   6.363690e+05
  -7.844743e+05   9.709182e+05
  -1.481751e+06   4.857936e+05
  -1.229310e+06  -7.223225e+05
   1.002961e+05  -1.641719e+06
   1.711769e+06  -1.261066e+06
   2.348426e+06   3.729790e+05
   1.311946e+06   2.040444e+06
  -7.831535e+05   2.401838e+06
  -2.406933e+06   1.233417e+06
  -2.463674e+06  -4.153280e+05
  -1.239745e+06  -1.302128e+06
   4.501661e+04  -1.153414e+06
   5.090399e+05  -7.124801e+05
   3.078239e+05  -7.452062e+05
   1.898830e+05  -1.166351e+06
   5.923981e+05  -1.200742e+06
   1.213254e+06  -3.224808e+05
   1.345319e+06   1.063009e+06
   6.013515e+05   1.903062e+06
  -6.043452e+05   1.470056e+06
  -1.312452e+06   7.263680e+04
  -9.041731e+05  -1.191099e+06
   2.258861e+05  -1.404663e+06
   1.013483e+06  -5.889366e+05
   8.178988e+05   4.533137e+05
   6.268875e+04   9.595118e+05
  -3.193167e+05   8.283650e+05
   9.100196e+03   4.994013e+05
   4.120702e+05   3.686368e+05
   4.916497e+04   4.029546e+05
  -1.082367e+06   2.730821e+05
  -1.994109e+06  -2.295245e+05
  -1.660785e+06  -9.252129e+05
  -1.260142e+05  -1.353767e+06
   1.424662e+06  -1.157370e+06
   1.784483e+06  -4.260722e+05
   8.975693e+05   3.098354e+05
  -1.826780e+05   5.056318e+05
  -4.702366e+05   1.151782e+05
   7.045233e+03  -3.287458e+05
   4.911258e+05  -2.465052e+05
   4.770269e+05   3.342326e+05
   1.601029e+05   7.583260e+05
   7.551055e+02   4.910993e+05
   1.473993e+05  -1.814955e+05
   3.615575e+05  -4.067474e+05
   3.077169e+05   2.120729e+05
  -1.696499e+05   1.041805e+06
  -8.698986e+05   1.081573e+06
  -1.233797e+06   1.375961e+05
  -7.506357e+05  -9.051612e+05
   3.875412e+05  -1.053514e+06
   1.183535e+06  -2.637827e+05
   7.408524e+05   5.955286e+05
  -6.595017e+05   7.002116e+05
  -1.660903e+06   1.852815e+04
  -1.200106e+06  -8.088971e+05
   3.432846e+05  -1.111770e+06
   1.532531e+06  -6.969209e+05
   1.360346e+06   6.702309e+04
   2.129604e+05   5.440373e+05
  -6.357985e+05   3.487552e+05
  -3.608619e+05  -2.509105e+05
   6.329285e+05  -4.921919e+05
   1.193287e+06   1.337172e+05
   6.119439e+05   1.225949e+06
  -6.745718e+05   1.704503e+06
  -1.544533e+06   8.645795e+05
  -1.294428e+06  -7.815856e+05
  -2.388897e+05  -1.849711e+06
   7.230357e+05  -1.402587e+06
   9.711619e+05   8.463114e+04
   5.477568e+05   1.196837e+06
  -1.039996e+05   1.049996e+06
  -5.445607e+05   1.412795e+05
  -5.557606e+05  -3.887335e+05
  -2.465656e+05  -1.596616e+05
  -1.813042e+04   1.220459e+05
  -1.865003e+05  -2.440500e+05
  -5.076479e+05  -9.534867e+05
  -3.156805e+05  -1.115288e+06
   6.173583e+05  -4.397507e+05
   1.538632e+06   4.388184e+05
   1.419093e+06   8.213882e+05
   2.187209e+05   6.922715e+05
  -9.362485e+05   4.442963e+05
  -1.030476e+06   2.413310e+05
  -3.086617e+05  -1.494985e+03
   1.718663e+05  -2.272432e+05
  -5.487651e+04  -2.530466e+05
  -3.649415e+05  -1.385316e+05
  -1.955526e+04  -1.409686e+05
   7.686802e+05  -2.225642e+05
   1.058757e+06   1.682463e+04
   3.245048e+05   6.844691e+05
  -9.212974e+05   1.167284e+06
  -1.660909e+06   7.405740e+05
  -1.340157e+06  -4.640244e+05
  -2.738951e+05  -1.446466e+06
   7.328351e+05  -1.390176e+06
   1.059991e+06  -5.103090e+05
   6.870725e+05   2.732101e+05
   1.058764e+05   3.622856e+05
  -1.464596e+05   1.863979e+04
   5.383523e+04  -7.727557e+04
   3.541569e+05   3.429597e+05
   3.028935e+05   8.196451e+05
  -1.877356e+05   6.787099e+05
  -7.151103e+05  -1.677016e+05
  -7.226437e+05  -1.013967e+06
  -4.520691e+04  -1.042645e+06
   8.145704e+05  -1.883816e+05
   1.043675e+06   7.903408e+05
   3.220624e+05   1.101890e+06
  -7.293817e+05   6.447649e+05
  -1.103292e+06  -7.989469e+04
  -5.069591e+05  -5.612391e+05
   2.760623e+05  -6.242702e+05
   3.151577e+05  -3.642155e+05
  -3.247452e+05  -3.191084e+04
  -6.812413e+05   4.022008e+04
  -1.300064e+05  -2.980401e+05
   8.301452e+05  -7.175493e+05
   1.213294e+06  -6.272066e+05
   7.087236e+05   1.118129e+05
  -8.968993e+04   8.602445e+05
  -4.859813e+05   8.532252e+05
  -3.608066e+05   1.200662e+05
  -2.572612e+04  -5.178673e+05
   2.504787e+05  -4.098983e+05
   3.666253e+05   2.073168e+05
   2.591117e+05   5.873023e+05
  -6.439834e+04   3.789414e+05
  -3.972737e+05  -6.686951e+04
  -4.671717e+05  -2.341501e+05
  -2.478628e+05  -5.450750e+04
   4.839262e+03   1.031368e+05
   8.279006e+04  -6.037853e+04
   6.959113e+04  -4.024801e+05
   1.677771e+05  -4.939232e+05
   3.633563e+05  -1.129011e+05
   3.904275e+05   4.560046e+05
   5.816211e+04   6.697434e+05
  -4.440447e+05   2.965690e+05
  -6.405654e+05  -3.170595e+05
  -2.360558e+05  -6.069790e+05
   4.929770e+05  -3.714618e+05
   8.644860e+05   9.187455e+04
   4.759547e+05   3.794832e+05
  -2.939904e+05   3.656253e+05
  -6.321023e+05   1.844621e+05
  -2.058834e+05   1.189711e+04
   4.219920e+05  -2.533704e+04
   4.449649e+05   1.286415e+05
  -2.229200e+05   3.425797e+05
  -8.469255e+05   2.873379e+05
