
 $NMID
 id='ANONYMOUS ', fmtdat='(2E16.6)'
 volume=1.0
 tramp=1.0
 $END
  -4.104285e+07   1.531714e+06
  -2.671044e+07  -2.202112e+07
   2.228600e+06  -2.724366e+07
   1.871984e+07  -1.407956e+07
   1.334523e+07   1.879761e+06
  -7.949145e+05   7.120339e+06
  -7.651960e+06   1.264930e+06
  -4.035971e+06  -6.806094e+06
   3.177340e+06  -8.817023e+06
   7.237963e+06  -3.206966e+06
   5.931433e+06   4.652677e+06
   9.566174e+05   7.227195e+06
  -3.284736e+06   2.042575e+06
  -2.623712e+06  -5.198663e+06
   2.399051e+06  -6.384471e+06
   6.251748e+06   2.283455e+04
   4.312335e+06   7.580736e+06
  -2.051152e+06   9.393840e+06
  -7.415366e+06   4.834132e+06
  -8.008004e+06  -1.563403e+06
  -4.457064e+06  -5.426590e+06
  -2.754027e+05  -5.579264e+06
   1.185968e+06  -3.678060e+06
  -5.138904e+05  -2.442030e+06
  -2.107063e+06  -3.289502e+06
   1.856060e+05  -4.687600e+06
   5.629069e+06  -3.706736e+06
   8.746663e+06   1.288684e+05
   5.679980e+06   3.739655e+06
  -6.917207e+05   4.058534e+06
  -4.051486e+06   1.479176e+06
  -2.045922e+06  -1.169459e+06
   1.901616e+06  -1.804742e+06
   3.580641e+06  -2.186289e+05
   2.251902e+06   2.493017e+06
  -1.877215e+05   4.187196e+06
  -1.851024e+06   2.806573e+06
  -1.843759e+06  -8.512028e+05
  -4.563099e+05  -2.755204e+06
   6.304602e+05  -3.863112e+05
  -2.519148e+05   3.105297e+06
  -2.257186e+06   2.465002e+06
  -2.335291e+06  -2.166156e+06
   8.000962e+05  -4.732193e+06
   4.224758e+06  -1.280776e+06
   3.836889e+06   4.555085e+06
  -7.246153e+05   6.186004e+06
  -5.483360e+06   2.089086e+06
  -6.237714e+06  -3.236191e+06
  -2.423348e+06  -5.102893e+06
   2.738124e+06  -2.965168e+06
   5.079793e+06   5.635515e+05
   2.900571e+06   2.671314e+06
  -1.464125e+06   2.107079e+06
  -3.692776e+06  -2.228653e+05
  -1.920823e+06  -1.873121e+06
   1.203684e+06  -1.191974e+06
   1.797216e+06   7.037017e+05
  -4.455304e+05   1.246848e+06
  -2.113115e+06  -2.911100e+05
  -6.473644e+05  -1.996035e+06
   2.539354e+06  -1.865217e+06
   4.033703e+06   1.184867e+05
   2.242693e+06   2.656686e+06
  -1.505083e+06   4.421832e+06
  -4.676905e+06   4.192622e+06
  -5.446962e+06   1.308925e+06
  -3.626389e+06  -2.903771e+06
  -7.377919e+05  -5.386473e+06
   1.097744e+06  -4.439037e+06
   1.111851e+06  -1.855068e+06
   5.785183e+05  -6.411937e+05
   1.068774e+06  -1.179494e+06
   2.393659e+06  -1.202857e+06
   2.934416e+06   5.946480e+05
   1.724711e+06   2.606034e+06
  -4.957617e+05   2.488199e+06
  -2.120606e+06   1.064965e+05
  -1.946262e+06  -2.438513e+06
   1.130440e+05  -3.052831e+06
   2.761431e+06  -1.342866e+06
   3.919691e+06   1.389780e+06
   2.532716e+06   3.268177e+06
  -1.004302e+05   3.277694e+06
  -1.642265e+06   2.052258e+06
  -1.519797e+06   1.082158e+06
  -1.456609e+06   9.736845e+05
  -2.795953e+06   8.372360e+05
  -4.306233e+06  -4.047582e+05
  -3.610696e+06  -2.533283e+06
  -3.269139e+05  -4.166253e+06
   3.206789e+06  -4.055621e+06
   4.342780e+06  -2.062741e+06
   2.640626e+06   6.903100e+05
  -2.530855e+04   2.383285e+06
  -1.349003e+06   1.838792e+06
  -5.382997e+05  -1.462228e+05
   1.175834e+06  -1.307839e+06
   1.839956e+06  -4.206168e+05
   8.026110e+05   1.138107e+06
  -6.109146e+05   1.167284e+06
  -6.708860e+05  -3.395923e+05
   7.115074e+05  -1.090816e+06
   1.918201e+06   4.481147e+05
   1.467033e+06   2.970108e+06
  -5.562593e+05   3.864354e+06
  -2.809136e+06   2.139759e+06
  -3.849139e+06  -8.047660e+05
  -2.987211e+06  -2.845284e+06
  -7.288710e+05  -2.936343e+06
   1.331833e+06  -1.584608e+06
   1.691001e+06  -2.076670e+05
   5.104595e+05   3.210038e+04
  -4.038577e+05  -7.525437e+05
   2.934024e+05  -1.300873e+06
   1.769050e+06  -6.488678e+05
   2.039118e+06   6.844402e+05
   5.278240e+05   1.319344e+06
  -1.139931e+06   6.803543e+05
  -1.062015e+06  -4.155468e+05
   7.568186e+05  -7.819124e+05
   2.438383e+06  -2.051760e+04
   2.181612e+06   1.323964e+06
  -1.126532e+04   2.264218e+06
  -2.354239e+06   1.969480e+06
  -2.889353e+06   4.378829e+05
  -1.282708e+06  -1.182750e+06
   8.357025e+05  -1.452608e+06
   1.451074e+06  -2.176751e+05
   1.644189e+05   1.025546e+06
  -1.505091e+06   7.834266e+05
  -1.812464e+06  -6.705310e+05
  -5.440740e+05  -1.673589e+06
   9.752793e+05  -1.184907e+06
   1.348294e+06   1.062817e+05
   4.072112e+05   7.397702e+05
  -7.367618e+05   1.118587e+05
  -7.608224e+05  -1.035921e+06
   5.798398e+05  -1.462898e+06
   2.064584e+06  -5.796939e+05
   2.109521e+06   1.037452e+06
   4.669386e+05   2.103334e+06
  -1.374487e+06   1.743481e+06
  -1.751366e+06   3.331681e+05
  -6.068431e+05  -8.479744e+05
   6.189569e+05  -8.905521e+05
   7.304359e+05  -9.598275e+04
  -4.056408e+04   5.162949e+05
  -6.110647e+05   3.808553e+05
  -3.582753e+05  -9.860285e+04
   3.457010e+05  -1.334700e+05
   6.267939e+05   5.138261e+05
  -5.510119e+04   1.204840e+06
  -1.352309e+06   1.007637e+06
  -2.165288e+06  -3.297235e+05
  -1.576637e+06  -1.947603e+06
   1.402074e+05  -2.546275e+06
   1.641066e+06  -1.627989e+06
   1.862663e+06  -1.336938e+04
   1.083895e+06   9.957299e+05
   4.062046e+05   9.066992e+05
   3.778536e+05   3.618989e+05
   5.083056e+05   2.476069e+05
   9.867745e+04   6.890390e+05
  -8.257116e+05   9.931924e+05
  -1.519139e+06   4.728355e+05
  -1.228761e+06  -7.374618e+05
   1.305079e+05  -1.650959e+06
   1.760918e+06  -1.269052e+06
   2.403394e+06   3.929446e+05
   1.328716e+06   2.112183e+06
  -8.444906e+05   2.481691e+06
  -2.511490e+06   1.246677e+06
  -2.522424e+06  -4.703879e+05
  -1.219137e+06  -1.347098e+06
   8.133451e+04  -1.140044e+06
   4.913278e+05  -6.852212e+05
   2.504340e+05  -7.695824e+05
   1.590476e+05  -1.240560e+06
   6.180636e+05  -1.269643e+06
   1.270037e+06  -3.455427e+05
   1.397485e+06   1.088368e+06
   6.278944e+05   1.956824e+06
  -6.142483e+05   1.515095e+06
  -1.348333e+06   6.795850e+04
  -9.228443e+05  -1.246325e+06
   2.624220e+05  -1.453071e+06
   1.082853e+06  -5.729330e+05
   8.517375e+05   5.237082e+05
   2.792025e+04   1.023760e+06
  -3.790826e+05   8.503552e+05
  -1.194971e+04   4.954338e+05
   4.339132e+05   3.673600e+05
   5.715134e+04   4.100707e+05
  -1.133124e+06   2.773795e+05
  -2.080623e+06  -2.426249e+05
  -1.714183e+06  -9.684669e+05
  -1.022131e+05  -1.420573e+06
   1.502411e+06  -1.207802e+06
   1.852972e+06  -4.196230e+05
   9.164456e+05   3.605994e+05
  -2.028502e+05   5.420297e+05
  -4.967913e+05   1.029308e+05
  -7.880249e+03  -3.631338e+05
   4.914711e+05  -2.617451e+05
   4.973065e+05   3.420572e+05
   1.973468e+05   7.698032e+05
   3.113435e+04   5.017907e+05
   1.494269e+05  -1.654370e+05
   3.493267e+05  -3.912098e+05
   3.114185e+05   2.218947e+05
  -1.579436e+05   1.061648e+06
  -8.947762e+05   1.121870e+06
  -1.305714e+06   1.678064e+05
  -8.119629e+05  -9.267552e+05
   3.944629e+05  -1.115372e+06
   1.237460e+06  -3.064741e+05
   7.688217e+05   6.008659e+05
  -6.861432e+05   7.166527e+05
  -1.697106e+06   3.834235e+03
  -1.195515e+06  -8.414654e+05
   3.838808e+05  -1.120787e+06
   1.570210e+06  -6.750411e+05
   1.372768e+06   9.161999e+04
   2.032989e+05   5.528737e+05
  -6.581944e+05   3.451859e+05
  -3.827452e+05  -2.665827e+05
   6.339898e+05  -5.226778e+05
   1.229735e+06   1.098745e+05
   6.618198e+05   1.245042e+06
  -6.528749e+05   1.765869e+06
  -1.567456e+06   9.157311e+05
  -1.334710e+06  -7.861470e+05
  -2.566532e+05  -1.892131e+06
   7.380952e+05  -1.426566e+06
   9.930517e+05   1.037520e+05
   5.458381e+05   1.231253e+06
  -1.307146e+05   1.064972e+06
  -5.673009e+05   1.359631e+05
  -5.522057e+05  -3.938759e+05
  -2.317551e+05  -1.574109e+05
  -2.685516e+04   1.191811e+05
  -2.241651e+05  -2.628763e+05
  -5.366956e+05  -9.828408e+05
  -3.016993e+05  -1.140585e+06
   6.624396e+05  -4.506585e+05
   1.576776e+06   4.442458e+05
   1.435161e+06   8.395282e+05
   2.243834e+05   7.153744e+05
  -9.377352e+05   4.611309e+05
  -1.049376e+06   2.430721e+05
  -3.359635e+05  -1.215454e+04
   1.668328e+05  -2.359164e+05
  -3.112147e+04  -2.484070e+05
  -3.472198e+05  -1.274529e+05
  -3.134721e+04  -1.422713e+05
   7.583450e+05  -2.415150e+05
   1.090733e+06   2.220746e+03
   3.781624e+05   7.030533e+05
  -9.119315e+05   1.220103e+06
  -1.718874e+06   7.934274e+05
  -1.413029e+06  -4.498732e+05
  -3.018578e+05  -1.478995e+06
   7.501758e+05  -1.443215e+06
   1.084989e+06  -5.503761e+05
   7.029445e+05   2.609938e+05
   1.231210e+05   3.711582e+05
  -1.257821e+05   3.454270e+04
   6.483259e+04  -6.203202e+04
   3.542803e+05   3.590566e+05
   3.061879e+05   8.410828e+05
  -1.819898e+05   7.042836e+05
  -7.295756e+05  -1.491263e+05
  -7.652026e+05  -1.017508e+06
  -8.427173e+04  -1.071998e+06
   8.178947e+05  -2.243397e+05
   1.085874e+06   7.795583e+05
   3.572515e+05   1.130038e+06
  -7.387175e+05   6.876194e+05
  -1.146922e+06  -6.458116e+04
  -5.417523e+05  -5.892705e+05
   2.786554e+05  -6.675598e+05
   3.417198e+05  -3.840682e+05
  -3.100987e+05  -2.282330e+04
  -6.934216e+05   5.028908e+04
  -1.445311e+05  -3.092120e+05
   8.476453e+05  -7.410361e+05
   1.263320e+06  -6.383893e+05
   7.541347e+05   1.258049e+05
  -8.222895e+04   8.941538e+05
  -5.122136e+05   8.922021e+05
  -3.919515e+05   1.451780e+05
  -4.256527e+04  -5.214657e+05
   2.485217e+05  -4.358748e+05
   3.757168e+05   1.891207e+05
   2.747465e+05   6.003363e+05
  -5.568709e+04   4.088624e+05
  -4.091459e+05  -5.587306e+04
  -4.907989e+05  -2.506822e+05
  -2.565072e+05  -6.701352e+04
   1.782500e+04   1.216714e+05
   8.757339e+04  -2.857849e+04
   3.963147e+04  -3.984362e+05
   1.244865e+05  -5.291889e+05
   3.560618e+05  -1.569542e+05
   4.316837e+05   4.376744e+05
   1.033606e+05   6.815578e+05
  -4.420185e+05   3.186737e+05
  -6.745124e+05  -3.045842e+05
  -2.586275e+05  -6.122206e+05
   5.093703e+05  -3.901550e+05
   9.013779e+05   7.559473e+04
   4.991854e+05   3.844837e+05
  -2.973896e+05   3.946665e+05
  -6.521582e+05   2.158236e+05
  -2.280088e+05   1.899657e+04
   4.086676e+05  -4.548614e+04
   4.474929e+05   1.047228e+05
  -2.077302e+05   3.384780e+05
  -8.361231e+05   3.019729e+05
