
 $NMID
 id='ANONYMOUS ', fmtdat='(2E16.6)'
 volume=1.0
 tramp=1.0
 $END
   4.497529e+07   1.140046e+06
   2.672498e+07   2.701171e+07
  -5.544742e+06   2.965624e+07
  -2.150373e+07   1.257061e+07
  -1.340878e+07  -4.221040e+06
   2.024792e+06  -7.385085e+06
   7.905130e+06   4.441752e+04
   3.002814e+06   7.552866e+06
  -4.336968e+06   8.287988e+06
  -7.752390e+06   2.281735e+06
  -5.873853e+06  -5.214815e+06
  -6.465226e+05  -7.436912e+06
   3.507972e+06  -2.116459e+06
   2.438351e+06   5.094820e+06
  -2.897798e+06   6.005423e+06
  -6.463860e+06  -7.562649e+05
  -3.826173e+06  -8.314208e+06
   2.969337e+06  -9.706515e+06
   8.284848e+06  -4.681124e+06
   8.668842e+06   2.055399e+06
   4.824770e+06   6.253086e+06
   4.608438e+04   6.561061e+06
  -2.081484e+06   4.235755e+06
  -4.639784e+05   2.188945e+06
   1.722999e+06   2.630148e+06
   7.174720e+02   4.336369e+06
  -5.409945e+06   3.782738e+06
  -8.787972e+06  -6.348578e+04
  -5.882851e+06  -3.926727e+06
   4.460917e+05  -4.362349e+06
   3.881501e+06  -1.830725e+06
   2.236959e+06   7.321366e+05
  -1.251947e+06   1.516796e+06
  -2.963227e+06   4.171981e+05
  -2.223841e+06  -1.997413e+06
  -1.447536e+05  -4.003105e+06
   1.890467e+06  -3.074967e+06
   2.366155e+06   6.935710e+05
   7.967782e+05   3.110767e+06
  -8.250514e+05   9.354314e+05
  -2.454880e+04  -2.787287e+06
   2.245690e+06  -2.256528e+06
   2.149812e+06   2.500700e+06
  -1.580030e+06   4.886396e+06
  -5.067937e+06   7.971814e+05
  -3.868338e+06  -5.437821e+06
   1.453199e+06  -6.683718e+06
   6.046377e+06  -1.867456e+06
   6.086016e+06   3.698505e+06
   1.952458e+06   5.205003e+06
  -2.907200e+06   2.638589e+06
  -4.827614e+06  -9.769864e+05
  -2.484469e+06  -2.849385e+06
   1.795941e+06  -1.937650e+06
   3.778997e+06   6.051962e+05
   1.742923e+06   2.139285e+06
  -1.379516e+06   1.143418e+06
  -1.658873e+06  -8.096985e+05
   7.386790e+05  -9.736456e+05
   2.007190e+06   8.942350e+05
  -3.070264e+04   2.335826e+06
  -3.248488e+06   1.557483e+06
  -4.215444e+06  -7.564924e+05
  -2.012236e+06  -3.076892e+06
   1.687902e+06  -4.510432e+06
   4.717246e+06  -4.182626e+06
   5.561934e+06  -1.287724e+06
   3.782379e+06   3.015312e+06
   6.488829e+05   5.489324e+06
  -1.422333e+06   4.288802e+06
  -1.266177e+06   1.457471e+06
  -3.102868e+05   3.123479e+05
  -5.983401e+05   1.158916e+06
  -2.068525e+06   1.435371e+06
  -2.850171e+06  -2.697072e+05
  -1.814582e+06  -2.292592e+06
   2.666607e+05  -2.306941e+06
   1.830822e+06  -1.776111e+05
   1.778557e+06   2.194518e+06
  -8.347339e+04   2.895915e+06
  -2.697949e+06   1.378345e+06
  -3.976879e+06  -1.355109e+06
  -2.606961e+06  -3.419692e+06
   2.049024e+05  -3.511352e+06
   1.907470e+06  -2.139043e+06
   1.746810e+06  -9.690559e+05
   1.521516e+06  -7.684949e+05
   2.711380e+06  -6.212886e+05
   4.108620e+06   5.764350e+05
   3.366708e+06   2.548263e+06
   1.963344e+05   3.969200e+06
  -3.108633e+06   3.800368e+06
  -4.135574e+06   1.973806e+06
  -2.563900e+06  -5.902125e+05
  -8.118266e+04  -2.264385e+06
   1.230758e+06  -1.815074e+06
   5.371728e+05   1.066438e+05
  -1.111175e+06   1.253835e+06
  -1.796997e+06   3.678577e+05
  -7.976529e+05  -1.141709e+06
   5.587767e+05  -1.104458e+06
   5.415644e+05   3.279809e+05
  -7.924956e+05   8.498484e+05
  -1.725458e+06  -7.719950e+05
  -1.002024e+06  -2.983953e+06
   9.327079e+05  -3.420427e+06
   2.743064e+06  -1.589118e+06
   3.410559e+06   1.008839e+06
   2.569134e+06   2.659406e+06
   5.939970e+05   2.673809e+06
  -1.250141e+06   1.470830e+06
  -1.586344e+06   2.003717e+05
  -4.822011e+05  -4.035312e+04
   3.616920e+05   7.238329e+05
  -3.497765e+05   1.251299e+06
  -1.757450e+06   5.605671e+05
  -1.929987e+06  -7.632477e+05
  -4.246550e+05  -1.299441e+06
   1.106486e+06  -5.940546e+05
   9.437238e+05   4.100538e+05
  -7.463075e+05   6.287125e+05
  -2.206623e+06  -1.178301e+05
  -1.904851e+06  -1.265632e+06
   1.011331e+05  -2.035345e+06
   2.236536e+06  -1.745913e+06
   2.721984e+06  -3.336364e+05
   1.185267e+06   1.180086e+06
  -8.609717e+05   1.399361e+06
  -1.440589e+06   1.690421e+05
  -1.548128e+05  -1.015810e+06
   1.458434e+06  -7.163961e+05
   1.686981e+06   7.023489e+05
   4.219864e+05   1.586891e+06
  -9.781448e+05   1.031545e+06
  -1.237297e+06  -1.927109e+05
  -3.124279e+05  -7.167220e+05
   7.294434e+05  -6.886790e+04
   7.090304e+05   1.011775e+06
  -5.700391e+05   1.387525e+06
  -1.968860e+06   5.255842e+05
  -1.988830e+06  -1.021438e+06
  -3.940797e+05  -2.011254e+06
   1.360887e+06  -1.614846e+06
   1.667374e+06  -2.521401e+05
   5.289377e+05   8.212487e+05
  -6.138490e+05   8.102258e+05
  -6.628988e+05   8.648894e+04
   5.997990e+04  -4.242301e+05
   5.248225e+05  -3.022256e+05
   2.508192e+05   5.918949e+04
  -3.531243e+05   2.645742e+04
  -5.350012e+05  -5.553180e+05
   1.279100e+05  -1.135729e+06
   1.314713e+06  -9.050877e+05
   2.038546e+06   3.687695e+05
   1.450743e+06   1.881093e+06
  -1.824585e+05   2.391543e+06
  -1.565342e+06   1.463116e+06
  -1.707492e+06  -4.723834e+04
  -9.501801e+05  -9.055143e+05
  -3.726897e+05  -7.630414e+05
  -4.168793e+05  -3.054391e+05
  -5.284552e+05  -2.850166e+05
  -7.533058e+04  -6.952069e+05
   8.176979e+05  -9.032717e+05
   1.423064e+06  -3.843679e+05
   1.102680e+06   6.983504e+05
  -1.730711e+05   1.496265e+06
  -1.673152e+06   1.124978e+06
  -2.236479e+06  -4.267727e+05
  -1.175897e+06  -2.023805e+06
   8.984823e+05  -2.314578e+06
   2.423254e+06  -1.078761e+06
   2.332305e+06   5.420558e+05
   1.050381e+06   1.279027e+06
  -1.215585e+05   1.002590e+06
  -4.191210e+05   5.933940e+05
  -1.768147e+05   7.514890e+05
  -1.520114e+05   1.227612e+06
  -6.342434e+05   1.218311e+06
  -1.234760e+06   3.045126e+05
  -1.310429e+06  -1.054791e+06
  -5.602452e+05  -1.859122e+06
   6.036447e+05  -1.419903e+06
   1.266106e+06  -2.778739e+04
   8.245817e+05   1.214764e+06
  -3.167700e+05   1.358952e+06
  -1.064501e+06   4.605040e+05
  -7.779839e+05  -5.825795e+05
   5.407091e+04  -9.914203e+05
   4.333051e+05  -7.686124e+05
   3.878593e+04  -4.356788e+05
  -4.175748e+05  -3.456126e+05
  -5.477664e+04  -3.849967e+05
   1.094235e+06  -2.244249e+05
   1.985301e+06   2.931602e+05
   1.592837e+06   9.706459e+05
   2.168144e+04   1.360616e+06
  -1.491032e+06   1.109115e+06
  -1.765756e+06   3.260231e+05
  -8.290136e+05  -4.050209e+05
   2.294211e+05  -5.250407e+05
   4.784423e+05  -6.259799e+04
   6.636455e+03   3.775457e+05
  -4.556544e+05   2.513755e+05
  -4.692951e+05  -3.333637e+05
  -2.118421e+05  -7.310624e+05
  -5.535216e+04  -4.822400e+05
  -1.324156e+05   1.288926e+05
  -2.993703e+05   3.391647e+05
  -2.812596e+05  -2.176914e+05
   1.475727e+05  -9.919408e+05
   8.705438e+05  -1.048302e+06
   1.287146e+06  -1.449703e+05
   7.930237e+05   9.021537e+05
  -4.040799e+05   1.080497e+06
  -1.210135e+06   2.944061e+05
  -7.239234e+05  -5.713807e+05
   6.687347e+05  -6.524888e+05
   1.578052e+06   4.544034e+04
   1.058229e+06   8.118648e+05
  -4.112484e+05   1.007178e+06
  -1.467496e+06   5.560010e+05
  -1.249891e+06  -1.305678e+05
  -1.641327e+05  -5.102497e+05
   6.261867e+05  -2.932541e+05
   3.644362e+05   2.741764e+05
  -5.954157e+05   5.050335e+05
  -1.170136e+06  -9.860054e+04
  -6.410325e+05  -1.181754e+06
   6.101447e+05  -1.680892e+06
   1.481876e+06  -8.685230e+05
   1.251184e+06   7.493004e+05
   2.184434e+05   1.779298e+06
  -7.118613e+05   1.310910e+06
  -9.186830e+05  -1.358150e+05
  -4.670239e+05  -1.163558e+06
   1.670748e+05  -9.721725e+05
   5.414365e+05  -1.019064e+05
   4.914293e+05   3.673588e+05
   1.922811e+05   1.358709e+05
   3.466120e+04  -1.006407e+05
   2.380001e+05   2.800626e+05
   5.002410e+05   9.455190e+05
   2.355894e+05   1.062667e+06
  -6.645705e+05   3.963145e+05
  -1.471185e+06  -4.411582e+05
  -1.306930e+06  -8.042726e+05
  -1.938903e+05  -6.818958e+05
   8.649715e+05  -4.298098e+05
   9.786158e+05  -2.049585e+05
   3.330091e+05   3.893251e+04
  -1.514533e+05   2.252967e+05
  -3.715870e+02   2.097294e+05
   2.979140e+05   9.779103e+04
   4.077809e+04   1.363652e+05
  -6.869224e+05   2.397973e+05
  -1.035380e+06  -8.597755e+03
  -3.931451e+05  -6.879783e+05
   8.514206e+05  -1.167200e+06
   1.661079e+06  -7.426206e+05
   1.372777e+06   4.366506e+05
   2.798580e+05   1.397249e+06
  -7.386284e+05   1.359810e+06
  -1.038095e+06   5.270062e+05
  -6.605294e+05  -2.358087e+05
  -1.252081e+05  -3.565375e+05
   9.682394e+04  -5.848204e+04
  -6.587584e+04   3.261429e+04
  -3.115248e+05  -3.486741e+05
  -2.648540e+05  -7.938383e+05
   1.761920e+05  -6.711595e+05
   6.868206e+05   1.262584e+05
   7.350905e+05   9.541439e+05
   1.005853e+05   1.026769e+06
  -7.646980e+05   2.379106e+05
  -1.034387e+06  -7.235583e+05
  -3.439108e+05  -1.078789e+06
   7.072546e+05  -6.650158e+05
   1.100104e+06   7.000062e+04
   5.159886e+05   5.891164e+05
  -2.814158e+05   6.545357e+05
  -3.545350e+05   3.577461e+05
   2.678130e+05   6.117861e+03
   6.492507e+05  -4.609574e+04
   1.409408e+05   3.019328e+05
  -8.078871e+05   6.856669e+05
  -1.218001e+06   5.595130e+05
  -7.319567e+05  -1.579777e+05
   8.887138e+04  -8.552064e+05
   5.219640e+05  -8.407073e+05
   4.057221e+05  -1.446315e+05
   5.253656e+04   4.857000e+05
  -2.387810e+05   4.256091e+05
  -3.584389e+05  -1.573384e+05
  -2.570427e+05  -5.702270e+05
   5.707741e+04  -4.105350e+05
   3.901484e+05   4.653427e+04
   4.644342e+05   2.624025e+05
   2.371545e+05   8.199967e+04
  -2.244703e+04  -1.386476e+05
  -7.144469e+04  -1.510016e+04
  -1.896807e+03   3.698821e+05
  -8.155020e+04   5.408852e+05
  -3.355119e+05   1.953541e+05
  -4.456295e+05  -3.976542e+05
  -1.366598e+05  -6.540478e+05
   4.116502e+05  -3.128009e+05
   6.560272e+05   2.827785e+05
   2.540775e+05   5.746108e+05
  -4.940538e+05   3.648660e+05
  -8.693444e+05  -7.364160e+04
  -4.754757e+05  -3.699820e+05
   2.905957e+05  -3.890160e+05
   6.321244e+05  -2.187797e+05
   2.368770e+05  -1.390666e+04
  -3.644849e+05   6.761742e+04
  -4.190219e+05  -7.162569e+04
   1.717142e+05  -3.072831e+05
   7.555711e+05  -2.889418e+05
