
 $NMID
 id='ANONYMOUS ', fmtdat='(2E16.6)'
 volume=1.0
 tramp=1.0
 $END
   2.942456e+07  -4.914625e+05
   1.965399e+07   1.464932e+07
  -5.682130e+05   1.914595e+07
  -1.315082e+07   1.157230e+07
  -1.043855e+07   1.671141e+05
  -1.831066e+05  -5.319826e+06
   5.909122e+06  -1.971877e+06
   3.921540e+06   4.891975e+06
  -1.826670e+06   7.515821e+06
  -5.491611e+06   3.126714e+06
  -4.585521e+06  -3.669803e+06
  -5.979978e+05  -5.826687e+06
   2.667140e+06  -1.342691e+06
   2.076635e+06   4.634742e+06
  -1.801257e+06   5.515999e+06
  -4.830760e+06   3.334721e+05
  -3.471373e+06  -5.714054e+06
   1.405674e+06  -7.168334e+06
   5.536035e+06  -3.503408e+06
   5.738907e+06   1.476674e+06
   2.734215e+06   4.015231e+06
  -1.418626e+05   3.519260e+06
  -3.594429e+05   2.141956e+06
   1.455346e+06   2.141629e+06
   2.148291e+06   3.586199e+06
  -6.180551e+05   4.384306e+06
  -5.272701e+06   2.684846e+06
  -7.318044e+06  -8.166949e+05
  -4.230399e+06  -3.383746e+06
   1.231526e+06  -3.073225e+06
   3.798016e+06  -5.898015e+05
   1.524727e+06   1.684000e+06
  -2.409662e+06   1.877708e+06
  -3.792428e+06  -1.472480e+05
  -1.873129e+06  -2.823472e+06
   7.939505e+05  -3.804052e+06
   1.776403e+06  -1.909002e+06
   9.238704e+05   1.158581e+06
  -2.947717e+05   2.022556e+06
  -4.687294e+05  -4.041229e+05
   6.739792e+05  -3.031728e+06
   2.035717e+06  -2.158238e+06
   1.942300e+06   1.554655e+06
  -1.449196e+05   3.552536e+06
  -2.549385e+06   1.128178e+06
  -2.649072e+06  -3.091242e+06
   3.293092e+05  -4.396825e+06
   4.055488e+06  -1.485223e+06
   5.079678e+06   2.593442e+06
   2.196482e+06   4.230710e+06
  -2.237616e+06   2.636073e+06
  -4.423128e+06  -2.939610e+05
  -2.687830e+06  -2.143343e+06
   9.553888e+05  -1.781248e+06
   2.895709e+06   2.913808e+04
   1.622008e+06   1.359419e+06
  -8.820235e+05   9.290661e+05
  -1.595440e+06  -5.626983e+05
   5.663369e+04  -1.260354e+06
   1.729838e+06  -3.292200e+05
   1.102972e+06   1.163569e+06
  -1.371857e+06   1.569291e+06
  -3.016604e+06   3.077838e+05
  -1.861055e+06  -1.850600e+06
   1.390011e+06  -3.465938e+06
   4.183027e+06  -3.197682e+06
   4.537405e+06  -7.110231e+05
   2.636777e+06   2.609886e+06
   3.158614e+05   4.442818e+06
  -8.252254e+05   3.749907e+06
  -7.889986e+05   1.904015e+06
  -7.606626e+05   9.464404e+05
  -1.522870e+06   1.057760e+06
  -2.534334e+06   6.535385e+05
  -2.605221e+06  -1.064599e+06
  -1.239293e+06  -2.700708e+06
   8.147341e+05  -2.324671e+06
   2.144950e+06   7.214507e+04
   1.718524e+06   2.431171e+06
  -3.076401e+05   2.749311e+06
  -2.501017e+06   9.080253e+05
  -3.141402e+06  -1.501986e+06
  -1.775371e+06  -2.772207e+06
   2.538799e+05  -2.453942e+06
   1.241489e+06  -1.444067e+06
   1.064371e+06  -8.777072e+05
   1.168680e+06  -9.376438e+05
   2.456620e+06  -7.770967e+05
   3.781153e+06   3.984122e+05
   3.137185e+06   2.309986e+06
   1.792217e+05   3.724653e+06
  -3.036732e+06   3.504810e+06
  -4.018350e+06   1.581520e+06
  -2.286141e+06  -8.654504e+05
   2.846839e+05  -2.167502e+06
   1.396590e+06  -1.507638e+06
   4.532124e+05   2.071594e+05
  -1.144038e+06   1.095167e+06
  -1.614509e+06   2.944072e+05
  -5.988550e+05  -1.009208e+06
   6.419771e+05  -1.023763e+06
   6.927245e+05   3.153636e+05
  -5.231754e+05   1.126166e+06
  -1.725467e+06  -9.089424e+04
  -1.558549e+06  -2.472155e+06
   1.966185e+05  -3.632651e+06
   2.455672e+06  -2.254962e+06
   3.638797e+06   6.051762e+05
   2.841551e+06   2.717548e+06
   6.260348e+05   2.792975e+06
  -1.299374e+06   1.390785e+06
  -1.556706e+06   8.906180e+04
  -4.577738e+05  -4.661723e+04
   3.421552e+05   6.848285e+05
  -2.620157e+05   1.117157e+06
  -1.526260e+06   5.251205e+05
  -1.773647e+06  -6.028146e+05
  -4.741964e+05  -1.145105e+06
   1.025265e+06  -5.992467e+05
   1.002360e+06   4.027518e+05
  -6.670204e+05   7.845233e+05
  -2.287723e+06   6.166762e+04
  -2.076706e+06  -1.268160e+06
   9.635029e+03  -2.147266e+06
   2.201760e+06  -1.777963e+06
   2.630066e+06  -3.253414e+05
   1.108503e+06   1.065134e+06
  -7.639864e+05   1.218008e+06
  -1.236298e+06   1.387630e+05
  -7.871452e+04  -8.834671e+05
   1.359610e+06  -6.412261e+05
   1.614671e+06   6.251935e+05
   5.014672e+05   1.516896e+06
  -8.636310e+05   1.104255e+06
  -1.233868e+06  -5.801128e+04
  -4.050684e+05  -6.547459e+05
   6.262073e+05  -9.316369e+04
   6.327573e+05   9.412867e+05
  -5.846412e+05   1.279856e+06
  -1.876103e+06   4.276488e+05
  -1.845177e+06  -1.011454e+06
  -3.506459e+05  -1.891535e+06
   1.264203e+06  -1.521566e+06
   1.574205e+06  -2.704418e+05
   5.467932e+05   7.681900e+05
  -5.703287e+05   7.993444e+05
  -6.971675e+05   5.620616e+04
   2.591188e+04  -5.336113e+05
   6.220114e+05  -3.894457e+05
   4.287939e+05   1.277464e+05
  -2.654585e+05   2.101770e+05
  -5.872889e+05  -4.059958e+05
   3.025314e+04  -1.072093e+06
   1.227576e+06  -8.801682e+05
   1.935792e+06   3.544701e+05
   1.350751e+06   1.796542e+06
  -2.114346e+05   2.301170e+06
  -1.543185e+06   1.462835e+06
  -1.732740e+06  -1.238892e+04
  -1.018290e+06  -9.858839e+05
  -3.516937e+05  -9.494374e+05
  -2.611422e+05  -4.060861e+05
  -3.778506e+05  -2.059729e+05
  -6.000630e+04  -5.739271e+05
   7.520823e+05  -8.834752e+05
   1.401244e+06  -4.166315e+05
   1.137524e+06   7.216060e+05
  -1.392186e+05   1.548614e+06
  -1.637760e+06   1.131664e+06
  -2.179446e+06  -4.206345e+05
  -1.166959e+06  -1.936226e+06
   7.829965e+05  -2.208539e+06
   2.262489e+06  -1.086973e+06
   2.291409e+06   4.449554e+05
   1.142230e+06   1.257153e+06
  -6.894143e+04   1.102612e+06
  -5.229016e+05   6.657300e+05
  -3.459117e+05   6.688315e+05
  -2.266362e+05   1.049264e+06
  -5.786682e+05   1.079920e+06
  -1.123875e+06   2.569048e+05
  -1.207756e+06  -1.032267e+06
  -4.919384e+05  -1.787456e+06
   6.131190e+05  -1.344045e+06
   1.224644e+06  -2.823897e+04
   8.096477e+05   1.126553e+06
  -2.378155e+05   1.299641e+06
  -9.454620e+05   5.399089e+05
  -7.505384e+05  -4.148711e+05
  -5.374380e+04  -8.807926e+05
   2.965387e+05  -7.699770e+05
  -4.897344e+02  -4.785041e+05
  -3.634149e+05  -3.608564e+05
  -2.808103e+04  -3.774890e+05
   1.005108e+06  -2.240926e+05
   1.831562e+06   2.695018e+05
   1.513726e+06   9.040403e+05
   9.319220e+04   1.252336e+06
  -1.338792e+06   1.026938e+06
  -1.666832e+06   3.514534e+05
  -8.358210e+05  -2.956269e+05
   1.741480e+05  -4.549289e+05
   4.366741e+05  -1.026141e+05
  -2.099721e+04   2.891129e+05
  -4.707596e+05   2.062487e+05
  -4.287498e+05  -3.260933e+05
  -1.044278e+05  -7.099280e+05
   3.246511e+04  -4.529027e+05
  -1.481258e+05   1.750856e+05
  -3.666907e+05   3.769256e+05
  -2.824608e+05  -2.062048e+05
   2.027496e+05  -9.653969e+05
   8.423310e+05  -9.719053e+05
   1.126655e+06  -7.994923e+04
   6.457510e+05   8.610571e+05
  -3.911261e+05   9.487172e+05
  -1.091587e+06   1.911270e+05
  -6.635561e+05  -5.830092e+05
   6.324363e+05  -6.329293e+05
   1.553828e+06   3.069489e+04
   1.112381e+06   7.932277e+05
  -3.428481e+05   1.040570e+06
  -1.458621e+06   6.196687e+05
  -1.281165e+06  -9.914804e+04
  -1.876318e+05  -5.192984e+05
   6.026145e+05  -3.117112e+05
   3.225426e+05   2.382119e+05
  -6.107389e+05   4.248464e+05
  -1.098681e+06  -1.778703e+05
  -5.083867e+05  -1.162504e+06
   7.027763e+05  -1.548375e+06
   1.470979e+06  -7.352112e+05
   1.173018e+06   7.779883e+05
   1.539422e+05   1.731300e+06
  -7.239821e+05   1.288264e+06
  -9.064209e+05  -1.023091e+05
  -4.798683e+05  -1.133679e+06
   1.206866e+05  -9.853167e+05
   5.086392e+05  -1.199825e+05
   5.135240e+05   3.863223e+05
   2.347160e+05   1.641486e+05
   1.749726e+04  -1.178753e+05
   1.499314e+05   2.205824e+05
   4.333699e+05   8.992077e+05
   2.685664e+05   1.054998e+06
  -5.736112e+05   3.946664e+05
  -1.418137e+06  -4.630687e+05
  -1.305035e+06  -8.173243e+05
  -1.816891e+05  -6.490746e+05
   8.980332e+05  -3.756953e+05
   9.726524e+05  -1.916701e+05
   2.787706e+05   2.295577e+03
  -1.722191e+05   2.027067e+05
   5.443188e+04   2.482043e+05
   3.473682e+05   1.540501e+05
   6.906410e+03   1.311003e+05
  -7.372677e+05   1.690637e+05
  -9.800938e+05  -5.807639e+04
  -2.549635e+05  -6.393789e+05
   9.105479e+05  -1.038111e+06
   1.556838e+06  -6.190228e+05
   1.206999e+06   4.837888e+05
   1.948843e+05   1.354921e+06
  -7.262236e+05   1.260657e+06
  -1.000379e+06   4.249664e+05
  -6.282448e+05  -2.880412e+05
  -7.856014e+04  -3.384586e+05
   1.475476e+05   3.989319e+02
  -5.058972e+04   8.134194e+04
  -3.246828e+05  -3.287808e+05
  -2.574620e+05  -7.739436e+05
   2.015644e+05  -6.194728e+05
   6.583578e+05   1.930532e+05
   6.222244e+05   9.761351e+05
  -1.263650e+04   9.642126e+05
  -7.688031e+05   1.282782e+05
  -9.317637e+05  -7.847989e+05
  -2.487148e+05  -1.032070e+06
   7.009990e+05  -5.602409e+05
   1.013340e+06   1.176677e+05
   4.441045e+05   5.280653e+05
  -2.752745e+05   5.564978e+05
  -2.935334e+05   3.263643e+05
   3.121796e+05   5.008838e+04
   6.370510e+05  -8.963190e+03
   1.057260e+05   2.779306e+05
  -7.980629e+05   6.373234e+05
  -1.141327e+06   5.500882e+05
  -6.435171e+05  -1.165693e+05
   1.151918e+05  -7.899708e+05
   4.702457e+05  -7.717212e+05
   3.240455e+05  -9.180873e+04
  -3.805680e+03   4.855211e+05
  -2.486380e+05   3.634779e+05
  -3.304795e+05  -2.181459e+05
  -2.165811e+05  -5.550395e+05
   7.451547e+04  -3.378650e+05
   3.645493e+05   8.207053e+04
   4.229018e+05   2.256683e+05
   2.298219e+05   5.249353e+04
   3.044767e+03  -8.518055e+04
  -8.372846e+04   7.220093e+04
  -9.810515e+04   3.746089e+05
  -1.945072e+05   4.334427e+05
  -3.437377e+05   6.760451e+04
  -3.259836e+05  -4.483497e+05
  -7.119652e+03  -6.206646e+05
   4.280800e+05  -2.511274e+05
   5.727526e+05   3.245927e+05
   1.888212e+05   5.757601e+05
  -4.677218e+05   3.252914e+05
  -7.906449e+05  -1.217104e+05
  -4.238210e+05  -3.697691e+05
   2.845888e+05  -3.192901e+05
   5.878652e+05  -1.370247e+05
   1.817204e+05  -3.621299e+03
  -4.034868e+05  -5.415517e+03
  -4.100596e+05  -1.510199e+05
   2.327171e+05  -3.149116e+05
   8.147411e+05  -2.296759e+05
