
 $NMID
 id='ANONYMOUS ', fmtdat='(2E16.6)'
 volume=1.0
 tramp=1.0
 $END
   3.470905e+07   1.742516e+06
   2.066323e+07   2.006780e+07
  -3.726703e+06   2.239266e+07
  -1.630973e+07   1.067514e+07
  -1.084993e+07  -2.054019e+06
   9.919521e+05  -5.773174e+06
   6.326857e+06  -8.030902e+05
   3.083182e+06   5.752510e+06
  -2.926750e+06   7.270867e+06
  -6.154706e+06   2.392760e+06
  -4.785906e+06  -4.304248e+06
  -4.300582e+05  -6.266830e+06
   2.985632e+06  -1.535071e+06
   2.085982e+06   4.659935e+06
  -2.254502e+06   5.370218e+06
  -5.221401e+06  -3.190953e+05
  -3.213793e+06  -6.626352e+06
   2.273520e+06  -7.798761e+06
   6.597288e+06  -3.590397e+06
   6.696944e+06   1.944060e+06
   3.305798e+06   5.005979e+06
  -3.414345e+05   4.702228e+06
  -1.292622e+06   2.797943e+06
   5.409359e+05   1.889777e+06
   1.943639e+06   2.968814e+06
  -3.246579e+05   4.216801e+06
  -5.196615e+06   3.016064e+06
  -7.690014e+06  -6.019375e+05
  -4.699235e+06  -3.626593e+06
   9.575114e+05  -3.564081e+06
   3.775061e+06  -1.088273e+06
   1.849412e+06   1.259751e+06
  -1.763878e+06   1.734818e+06
  -3.307050e+06   1.740082e+05
  -2.009661e+06  -2.368920e+06
   3.742452e+05  -3.800135e+06
   1.855942e+06  -2.315568e+06
   1.551297e+06   1.037075e+06
   9.065398e+04   2.504424e+06
  -7.252810e+05   1.656219e+05
   3.220676e+05  -2.848006e+06
   2.047350e+06  -2.077715e+06
   1.852623e+06   1.919549e+06
  -8.958438e+05   3.838597e+06
  -3.503682e+06   6.937854e+05
  -2.836195e+06  -4.091727e+06
   1.025484e+06  -5.088440e+06
   4.776400e+06  -1.391134e+06
   5.177234e+06   3.060469e+06
   1.889372e+06   4.443434e+06
  -2.432941e+06   2.448843e+06
  -4.332120e+06  -6.258541e+05
  -2.405103e+06  -2.340047e+06
   1.296866e+06  -1.687722e+06
   3.094712e+06   3.672991e+05
   1.524998e+06   1.652071e+06
  -1.080485e+06   9.319736e+05
  -1.525497e+06  -6.540458e+05
   3.283235e+05  -1.014011e+06
   1.659142e+06   2.497265e+05
   4.463252e+05   1.519846e+06
  -2.130547e+06   1.315740e+06
  -3.303568e+06  -2.884035e+05
  -1.724075e+06  -2.318825e+06
   1.559917e+06  -3.731613e+06
   4.321187e+06  -3.421739e+06
   4.830203e+06  -8.255549e+05
   2.972236e+06   2.777972e+06
   3.403562e+05   4.726241e+06
  -1.105947e+06   3.755334e+06
  -9.240370e+05   1.575382e+06
  -4.724894e+05   6.656686e+05
  -1.060511e+06   1.134994e+06
  -2.287534e+06   1.002150e+06
  -2.662934e+06  -6.967316e+05
  -1.464947e+06  -2.453707e+06
   5.413902e+05  -2.258395e+06
   1.931706e+06  -6.439199e+04
   1.681844e+06   2.225072e+06
  -2.152239e+05   2.706484e+06
  -2.517027e+06   1.047785e+06
  -3.371518e+06  -1.452562e+06
  -1.990761e+06  -3.007656e+06
   3.236956e+05  -2.806434e+06
   1.542290e+06  -1.616793e+06
   1.323633e+06  -8.118479e+05
   1.255335e+06  -7.854126e+05
   2.441922e+06  -6.442768e+05
   3.732443e+06   4.963502e+05
   3.065596e+06   2.335604e+06
   1.476000e+05   3.661609e+06
  -2.963081e+06   3.458828e+06
  -3.923844e+06   1.660119e+06
  -2.325413e+06  -7.360443e+05
   1.255483e+05  -2.142918e+06
   1.291458e+06  -1.584493e+06
   4.777731e+05   1.624940e+05
  -1.094004e+06   1.114422e+06
  -1.627174e+06   2.924539e+05
  -6.435659e+05  -1.040198e+06
   5.857941e+05  -1.017998e+06
   5.929118e+05   2.939795e+05
  -5.937279e+05   9.275876e+05
  -1.582938e+06  -3.879829e+05
  -1.190955e+06  -2.533808e+06
   4.975467e+05  -3.304123e+06
   2.411558e+06  -1.828210e+06
   3.332698e+06   7.406013e+05
   2.590791e+06   2.548010e+06
   5.879255e+05   2.610532e+06
  -1.228396e+06   1.363220e+06
  -1.508281e+06   1.273523e+05
  -4.477872e+05  -4.500541e+04
   3.297855e+05   6.728483e+05
  -3.031192e+05   1.115549e+06
  -1.561276e+06   4.916647e+05
  -1.743984e+06  -6.634622e+05
  -4.138880e+05  -1.156207e+06
   1.014342e+06  -5.595723e+05
   9.289772e+05   3.842215e+05
  -6.582659e+05   6.715400e+05
  -2.130394e+06  -1.716139e+04
  -1.903288e+06  -1.197346e+06
   4.361328e+04  -1.990897e+06
   2.116393e+06  -1.673845e+06
   2.550370e+06  -2.996155e+05
   1.077908e+06   1.075755e+06
  -7.905433e+05   1.230375e+06
  -1.271587e+06   1.239829e+05
  -9.413743e+04  -9.077140e+05
   1.348424e+06  -6.323361e+05
   1.563267e+06   6.403259e+05
   4.337784e+05   1.471297e+06
  -8.695877e+05   1.009081e+06
  -1.165921e+06  -1.172511e+05
  -3.387445e+05  -6.440079e+05
   6.404081e+05  -6.736691e+04
   6.283214e+05   9.370959e+05
  -5.640519e+05   1.267909e+06
  -1.840050e+06   4.379883e+05
  -1.819631e+06  -9.864983e+05
  -3.381926e+05  -1.861348e+06
   1.260100e+06  -1.480381e+06
   1.541187e+06  -2.378607e+05
   5.071504e+05   7.555186e+05
  -5.658368e+05   7.619441e+05
  -6.529762e+05   6.841992e+04
   3.070512e+04  -4.580661e+05
   5.437250e+05  -3.409842e+05
   3.373485e+05   7.647432e+04
  -2.750247e+05   1.116071e+05
  -5.227107e+05  -4.489428e+05
   7.973245e+04  -1.041358e+06
   1.213242e+06  -8.396999e+05
   1.889263e+06   3.581262e+05
   1.320324e+06   1.762804e+06
  -2.024785e+05   2.236675e+06
  -1.484961e+06   1.389989e+06
  -1.638537e+06  -2.857622e+04
  -9.467610e+05  -9.012984e+05
  -3.596766e+05  -8.269477e+05
  -3.254656e+05  -3.583140e+05
  -4.184545e+05  -2.456854e+05
  -5.149792e+04  -6.019422e+05
   7.498082e+05  -8.436459e+05
   1.344070e+06  -3.782154e+05
   1.070370e+06   6.774580e+05
  -1.461863e+05   1.450880e+06
  -1.579553e+06   1.069649e+06
  -2.102313e+06  -4.140032e+05
  -1.104662e+06  -1.888579e+06
   8.119918e+05  -2.140598e+06
   2.229996e+06  -1.013404e+06
   2.193635e+06   4.757103e+05
   1.044610e+06   1.202807e+06
  -8.198885e+04   1.003073e+06
  -4.482826e+05   6.118209e+05
  -2.652123e+05   6.888703e+05
  -2.023547e+05   1.085106e+06
  -5.913938e+05   1.084128e+06
  -1.125410e+06   2.531289e+05
  -1.192505e+06  -1.006631e+06
  -4.884918e+05  -1.743685e+06
   5.906826e+05  -1.314678e+06
   1.186286e+06  -2.019023e+04
   7.681930e+05   1.116289e+06
  -2.696814e+05   1.257794e+06
  -9.477290e+05   4.672650e+05
  -7.115434e+05  -4.731667e+05
   7.959969e+03  -8.786695e+05
   3.441750e+05  -7.206185e+05
   1.381379e+04  -4.341164e+05
  -3.708969e+05  -3.433396e+05
  -3.691477e+04  -3.658658e+05
   9.981853e+05  -2.034620e+05
   1.811428e+06   2.856212e+05
   1.470304e+06   9.020755e+05
   4.491262e+04   1.235485e+06
  -1.353369e+06   9.984616e+05
  -1.631587e+06   3.113121e+05
  -7.835689e+05  -3.310023e+05
   1.977150e+05  -4.590847e+05
   4.313141e+05  -7.559101e+04
  -1.674117e+04   3.168789e+05
  -4.470515e+05   2.167718e+05
  -4.252732e+05  -3.189093e+05
  -1.429858e+05  -6.965153e+05
  -3.669140e+03  -4.528258e+05
  -1.305673e+05   1.479526e+05
  -3.177414e+05   3.484328e+05
  -2.673976e+05  -2.022143e+05
   1.738824e+05  -9.370744e+05
   8.249808e+05  -9.559687e+05
   1.150926e+06  -8.739038e+04
   6.745771e+05   8.542663e+05
  -3.929746e+05   9.604355e+05
  -1.102922e+06   2.140717e+05
  -6.590733e+05  -5.580677e+05
   6.223214e+05  -6.075196e+05
   1.491296e+06   4.141283e+04
   1.033933e+06   7.622692e+05
  -3.561470e+05   9.709247e+05
  -1.390731e+06   5.592108e+05
  -1.205296e+06  -1.082734e+05
  -1.683888e+05  -4.896488e+05
   5.841104e+05  -2.857599e+05
   3.221218e+05   2.475044e+05
  -5.841989e+05   4.403155e+05
  -1.086100e+06  -1.440728e+05
  -5.384946e+05  -1.130620e+06
   6.455517e+05  -1.541765e+06
   1.421781e+06  -7.552215e+05
   1.153938e+06   7.393791e+05
   1.667269e+05   1.678666e+06
  -6.902479e+05   1.238222e+06
  -8.666516e+05  -1.153695e+05
  -4.468478e+05  -1.094319e+06
   1.363639e+05  -9.295927e+05
   4.981045e+05  -1.024073e+05
   4.810723e+05   3.593341e+05
   2.075951e+05   1.408517e+05
   2.286490e+04  -1.032931e+05
   1.755112e+05   2.448151e+05
   4.363129e+05   8.850693e+05
   2.387148e+05   1.007249e+06
  -5.879038e+05   3.675343e+05
  -1.376863e+06  -4.401847e+05
  -1.245036e+06  -7.770081e+05
  -1.741699e+05  -6.349902e+05
   8.479826e+05  -3.830298e+05
   9.320368e+05  -1.859123e+05
   2.862201e+05   2.379704e+04
  -1.577386e+05   2.047438e+05
   3.097343e+04   2.150324e+05
   3.145818e+05   1.186023e+05
   2.060601e+04   1.304831e+05
  -6.881546e+05   1.951392e+05
  -9.634464e+05  -4.106188e+04
  -2.976465e+05  -6.443832e+05
   8.569144e+05  -1.049998e+06
   1.543287e+06  -6.313773e+05
   1.226964e+06   4.588259e+05
   2.160839e+05   1.319149e+06
  -7.100686e+05   1.243040e+06
  -9.810323e+05   4.442231e+05
  -6.175251e+05  -2.563143e+05
  -9.289124e+04  -3.352065e+05
   1.240054e+05  -2.966811e+04
  -5.063103e+04   5.479355e+04
  -3.013980e+05  -3.218154e+05
  -2.452580e+05  -7.481862e+05
   1.873244e+05  -6.153533e+05
   6.461318e+05   1.590675e+05
   6.426511e+05   9.332739e+05
   2.948042e+04   9.574350e+05
  -7.419146e+05   1.688942e+05
  -9.374729e+05  -7.333718e+05
  -2.722107e+05  -1.014170e+06
   6.822777e+05  -5.780091e+05
   1.008603e+06   1.016637e+05
   4.482173e+05   5.379658e+05
  -2.755134e+05   5.724600e+05
  -3.102459e+05   3.187510e+05
   2.823340e+05   2.519474e+04
   6.164245e+05  -2.222207e+04
   1.133988e+05   2.790637e+05
  -7.714064e+05   6.263487e+05
  -1.124254e+06   5.192295e+05
  -6.483820e+05  -1.388432e+05
   1.061478e+05  -7.841787e+05
   4.792031e+05  -7.604398e+05
   3.498242e+05  -1.024062e+05
   1.987255e+04   4.683736e+05
  -2.393876e+05   3.741926e+05
  -3.325473e+05  -1.848382e+05
  -2.216232e+05  -5.402710e+05
   7.089974e+04  -3.554490e+05
   3.619956e+05   6.593522e+04
   4.176474e+05   2.360626e+05
   2.195911e+05   6.414368e+04
  -3.120902e+03  -1.069364e+05
  -6.663556e+04   3.169108e+04
  -5.197011e+04   3.638921e+05
  -1.470575e+05   4.703173e+05
  -3.361870e+05   1.202586e+05
  -3.668519e+05  -4.172599e+05
  -5.890219e+04  -6.185379e+05
   4.073893e+05  -2.670290e+05
   5.858153e+05   3.002953e+05
   2.074276e+05   5.551200e+05
  -4.620087e+05   3.241018e+05
  -7.926868e+05  -1.041068e+05
  -4.259813e+05  -3.585008e+05
   2.812088e+05  -3.338208e+05
   5.878976e+05  -1.610204e+05
   1.983756e+05  -2.467033e+03
  -3.745482e+05   2.941054e+04
  -4.020208e+05  -1.111254e+05
   1.953464e+05  -3.021441e+05
   7.572825e+05  -2.485820e+05
