
 $NMID
 id='ANONYMOUS ', fmtdat='(2E16.6)'
 volume=1.0
 tramp=1.0
 $END
  -3.196422e+07  -1.068169e+06
  -1.992445e+07  -1.713792e+07
   2.115064e+06  -2.047516e+07
   1.457658e+07  -1.128785e+07
   1.068285e+07   5.934471e+05
  -2.349938e+05   5.534419e+06
  -6.117105e+06   1.657005e+06
  -3.716488e+06  -5.236672e+06
   2.195179e+06  -7.612833e+06
   5.827776e+06  -2.941853e+06
   4.762440e+06   4.073804e+06
   5.020677e+05   6.218657e+06
  -2.932328e+06   1.425255e+06
  -2.186422e+06  -4.849730e+06
   1.990679e+06  -5.645296e+06
   5.057368e+06  -7.927159e+04
   3.383314e+06   6.212382e+06
  -1.864453e+06   7.531263e+06
  -6.142264e+06   3.487779e+06
  -6.211486e+06  -1.870132e+06
  -2.855556e+06  -4.607250e+06
   4.167049e+05  -4.010376e+06
   7.812730e+05  -2.287579e+06
  -1.265819e+06  -2.011879e+06
  -2.268800e+06  -3.520027e+06
   5.307744e+05  -4.568953e+06
   5.532956e+06  -2.915192e+06
   7.793982e+06   8.453228e+05
   4.535653e+06   3.687316e+06
  -1.269381e+06   3.419667e+06
  -4.040326e+06   7.910738e+05
  -1.768774e+06  -1.673776e+06
   2.291572e+06  -2.024415e+06
   3.865831e+06  -2.015883e+04
   2.068655e+06   2.847598e+06
  -7.143368e+05   4.055540e+06
  -1.963884e+06   2.106045e+06
  -1.187888e+06  -1.285616e+06
   2.661047e+05  -2.330281e+06
   6.613477e+05   2.893951e+05
  -5.680728e+05   3.166673e+06
  -2.120232e+06   2.221273e+06
  -1.945127e+06  -1.725923e+06
   4.243101e+05  -3.673964e+06
   2.879317e+06  -8.878870e+05
   2.656920e+06   3.558624e+06
  -6.691715e+05   4.678066e+06
  -4.434151e+06   1.397990e+06
  -5.249997e+06  -2.866177e+06
  -2.159778e+06  -4.432363e+06
   2.367896e+06  -2.667065e+06
   4.540000e+06   3.942543e+05
   2.693354e+06   2.264468e+06
  -1.085876e+06   1.792277e+06
  -3.037693e+06  -1.607828e+05
  -1.627676e+06  -1.501998e+06
   9.792171e+05  -9.486145e+05
   1.636608e+06   6.051106e+05
  -9.659374e+04   1.205030e+06
  -1.695129e+06   1.834021e+05
  -9.026348e+05  -1.217468e+06
   1.618676e+06  -1.436348e+06
   3.140711e+06  -8.631555e+04
   1.820218e+06   2.056818e+06
  -1.559795e+06   3.666035e+06
  -4.458958e+06   3.370532e+06
  -4.848624e+06   7.161674e+05
  -2.822330e+06  -2.839921e+06
  -2.820920e+05  -4.735931e+06
   9.589396e+05  -3.876272e+06
   8.241146e+05  -1.865249e+06
   6.702335e+05  -9.415534e+05
   1.462126e+06  -1.193288e+06
   2.621028e+06  -8.242805e+05
   2.793051e+06   1.007410e+06
   1.405011e+06   2.780436e+06
  -7.530388e+05   2.455701e+06
  -2.198023e+06   6.697145e+03
  -1.820931e+06  -2.468702e+06
   2.849081e+05  -2.876205e+06
   2.641633e+06  -9.892085e+05
   3.359028e+06   1.596391e+06
   1.875978e+06   3.009331e+06
  -3.525202e+05   2.660409e+06
  -1.423840e+06   1.506005e+06
  -1.183985e+06   8.465197e+05
  -1.222601e+06   9.127942e+05
  -2.535969e+06   7.678277e+05
  -3.911225e+06  -4.449275e+05
  -3.243106e+06  -2.412881e+06
  -1.832803e+05  -3.862382e+06
   3.143294e+06  -3.650082e+06
   4.182096e+06  -1.685324e+06
   2.422731e+06   8.712801e+05
  -2.441409e+05   2.282317e+06
  -1.441866e+06   1.618965e+06
  -4.930165e+05  -2.030011e+05
   1.179679e+06  -1.159543e+06
   1.691095e+06  -3.095384e+05
   6.380720e+05   1.070919e+06
  -6.501084e+05   1.083705e+06
  -6.990926e+05  -2.995227e+05
   5.288835e+05  -1.103587e+06
   1.702952e+06   1.580458e+05
   1.500921e+06   2.537234e+06
  -2.449128e+05   3.642564e+06
  -2.480602e+06   2.228062e+06
  -3.682417e+06  -6.298003e+05
  -2.915536e+06  -2.750053e+06
  -6.683783e+05  -2.854827e+06
   1.334141e+06  -1.452804e+06
   1.619800e+06  -1.103436e+05
   4.766123e+05   4.805893e+04
  -3.562845e+05  -7.075947e+05
   2.831688e+05  -1.158243e+06
   1.596919e+06  -5.340708e+05
   1.834979e+06   6.397659e+05
   4.808859e+05   1.188368e+06
  -1.055114e+06   6.195249e+05
  -1.026997e+06  -3.959064e+05
   6.697566e+05  -7.806546e+05
   2.320855e+06  -6.452289e+04
   2.123196e+06   1.272521e+06
   4.783548e+03   2.185971e+06
  -2.255593e+06   1.836103e+06
  -2.718729e+06   3.429600e+05
  -1.148003e+06  -1.112047e+06
   8.076249e+05  -1.272884e+06
   1.301082e+06  -1.359782e+05
   8.565692e+04   9.320990e+05
  -1.413012e+06   6.696687e+05
  -1.668188e+06  -6.477654e+05
  -5.126105e+05  -1.559243e+06
   8.860899e+05  -1.125852e+06
   1.259027e+06   6.344632e+04
   4.096017e+05   6.671173e+05
  -6.471852e+05   8.873875e+04
  -6.558252e+05  -9.753398e+05
   6.014754e+05  -1.329607e+06
   1.945538e+06  -4.513333e+05
   1.919090e+06   1.045323e+06
   3.654595e+05   1.963038e+06
  -1.313181e+06   1.576284e+06
  -1.630991e+06   2.779038e+05
  -5.650423e+05  -7.923162e+05
   5.851336e+05  -8.265209e+05
   7.174228e+05  -7.395266e+04
  -1.157598e+04   5.296338e+05
  -6.126387e+05   4.044163e+05
  -4.264453e+05  -9.905543e+04
   2.611473e+05  -1.832264e+05
   5.810850e+05   4.276015e+05
  -4.580977e+04   1.098322e+06
  -1.270870e+06   9.034917e+05
  -2.002632e+06  -3.672906e+05
  -1.401474e+06  -1.861419e+06
   2.113064e+05  -2.384079e+06
   1.583506e+06  -1.513942e+06
   1.778967e+06   4.277758e+03
   1.056578e+06   9.955294e+05
   3.903879e+05   9.600644e+05
   2.983321e+05   4.243222e+05
   3.955797e+05   2.362061e+05
   4.959551e+04   6.053554e+05
  -7.814726e+05   9.056437e+05
  -1.438093e+06   4.258718e+05
  -1.169732e+06  -7.327190e+05
   1.357238e+05  -1.583497e+06
   1.682352e+06  -1.165846e+06
   2.249501e+06   4.287239e+05
   1.203273e+06   1.995377e+06
  -8.161174e+05   2.275451e+06
  -2.338304e+06   1.113933e+06
  -2.355866e+06  -4.586721e+05
  -1.172291e+06  -1.279372e+06
   5.832291e+04  -1.119030e+06
   5.152295e+05  -6.923358e+05
   3.435564e+05  -7.187933e+05
   2.394080e+05  -1.109899e+06
   6.110789e+05  -1.124471e+06
   1.172868e+06  -2.639933e+05
   1.258214e+06   1.069346e+06
   5.169174e+05   1.852478e+06
  -6.300041e+05   1.397026e+06
  -1.264568e+06   3.284168e+04
  -8.319459e+05  -1.165047e+06
   2.516825e+05  -1.336537e+06
   9.728147e+05  -5.397655e+05
   7.580096e+05   4.430513e+05
   3.649153e+04   9.049873e+05
  -3.139248e+05   7.779723e+05
   4.941941e+03   4.841794e+05
   3.829795e+05   3.754872e+05
   3.161768e+04   3.927436e+05
  -1.042972e+06   2.248057e+05
  -1.899246e+06  -2.885704e+05
  -1.563525e+06  -9.375365e+05
  -8.413563e+04  -1.290094e+06
   1.396609e+06  -1.055515e+06
   1.721281e+06  -3.586938e+05
   8.490374e+05   3.087256e+05
  -1.908673e+05   4.697533e+05
  -4.484595e+05   9.875190e+04
   2.925324e+04  -3.109332e+05
   4.894412e+05  -2.215559e+05
   4.471648e+05   3.401195e+05
   1.192903e+05   7.468487e+05
  -2.555512e+04   4.807842e+05
   1.448698e+05  -1.777286e+05
   3.631998e+05  -3.935217e+05
   2.879329e+05   2.120767e+05
  -2.027701e+05   1.003268e+06
  -8.732183e+05   1.007747e+06
  -1.181763e+06   7.465038e+04
  -6.786208e+05  -9.047699e+05
   4.147172e+05  -9.900763e+05
   1.147586e+06  -1.983321e+05
   6.943177e+05   6.033214e+05
  -6.541605e+05   6.532788e+05
  -1.601754e+06  -2.727220e+04
  -1.142520e+06  -8.061279e+05
   3.503479e+05  -1.062078e+06
   1.491846e+06  -6.392364e+05
   1.312829e+06   9.369816e+04
   1.952730e+05   5.298204e+05
  -6.182417e+05   3.204526e+05
  -3.332859e+05  -2.511780e+05
   6.341113e+05  -4.507038e+05
   1.148928e+06   1.771376e+05
   5.413796e+05   1.212266e+06
  -7.218307e+05   1.623869e+06
  -1.528864e+06   7.781357e+05
  -1.224669e+06  -8.015771e+05
  -1.692852e+05  -1.795654e+06
   7.397356e+05  -1.335143e+06
   9.310216e+05   1.047161e+05
   4.960345e+05   1.165591e+06
  -1.205712e+05   1.007777e+06
  -5.232048e+05   1.206549e+05
  -5.312042e+05  -3.896127e+05
  -2.423182e+05  -1.589386e+05
  -1.670716e+04   1.180511e+05
  -1.566580e+05  -2.428327e+05
  -4.529199e+05  -9.361667e+05
  -2.797160e+05  -1.081603e+06
   5.971208e+05  -3.989925e+05
   1.471786e+06   4.726420e+05
   1.351253e+06   8.328224e+05
   1.878026e+05   6.721575e+05
  -9.267190e+05   4.018386e+05
  -1.002910e+06   2.038906e+05
  -2.876057e+05  -1.122376e+04
   1.770163e+05  -2.151321e+05
  -5.699250e+04  -2.450738e+05
  -3.605919e+05  -1.446320e+05
  -1.017873e+04  -1.391398e+05
   7.622404e+05  -1.915606e+05
   1.021035e+06   5.579145e+04
   2.735956e+05   6.790244e+05
  -9.420206e+05   1.095014e+06
  -1.625414e+06   6.459987e+05
  -1.268113e+06  -5.076001e+05
  -2.117157e+05  -1.409310e+06
   7.540484e+05  -1.310435e+06
   1.043912e+06  -4.484141e+05
   6.580232e+05   2.916929e+05
   8.502349e+04   3.552107e+05
  -1.544472e+05   1.238777e+04
   4.681780e+04  -7.738958e+04
   3.324847e+05   3.365930e+05
   2.684231e+05   7.978169e+05
  -2.072391e+05   6.473537e+05
  -6.902110e+05  -1.914412e+05
  -6.609083e+05  -1.013345e+06
   3.761816e+03  -1.013745e+06
   8.047559e+05  -1.482184e+05
   9.825050e+05   8.097946e+05
   2.657161e+05   1.078221e+06
  -7.326186e+05   5.905072e+05
  -1.058603e+06  -1.215132e+05
  -4.594368e+05  -5.558169e+05
   2.930234e+05  -5.829463e+05
   3.095209e+05  -3.330294e+05
  -3.236761e+05  -4.005619e+04
  -6.619677e+05   1.491623e+04
  -1.107490e+05  -2.924973e+05
   8.251232e+05  -6.649191e+05
   1.180581e+06  -5.650260e+05
   6.667696e+05   1.312761e+05
  -1.194349e+05   8.241495e+05
  -4.932989e+05   7.978169e+05
  -3.477640e+05   9.096539e+04
  -4.352653e+03  -5.074940e+05
   2.609983e+05  -3.830020e+05
   3.522588e+05   2.206040e+05
   2.284157e+05   5.770010e+05
  -8.233625e+04   3.575947e+05
  -3.830583e+05  -8.207165e+04
  -4.363530e+05  -2.385205e+05
  -2.340303e+05  -5.643042e+04
  -7.027969e+03   9.597644e+04
   7.342149e+04  -6.824284e+04
   8.890949e+04  -3.984116e+05
   2.007144e+05  -4.724695e+05
   3.693900e+05  -8.501807e+04
   3.565400e+05   4.704073e+05
   1.916880e+04   6.591422e+05
  -4.457842e+05   2.692463e+05
  -6.051605e+05  -3.375697e+05
  -2.043087e+05  -6.000742e+05
   4.872785e+05  -3.382437e+05
   8.286907e+05   1.259321e+05
   4.437791e+05   3.847936e+05
  -3.005580e+05   3.366164e+05
  -6.194497e+05   1.471087e+05
  -1.939465e+05  -1.270977e+03
   4.212591e+05  -9.199753e+03
   4.345846e+05   1.464014e+05
  -2.307586e+05   3.330826e+05
  -8.397863e+05   2.551571e+05
