
 $NMID
 id='ANONYMOUS ', fmtdat='(2E16.6)'
 volume=1.0
 tramp=1.0
 $END
   5.728645e+07   5.674132e+05
   3.385144e+07   3.603947e+07
  -8.236550e+06   3.866262e+07
  -2.817764e+07   1.427165e+07
  -1.641567e+07  -7.544838e+06
   3.598847e+06  -9.359389e+06
   9.835881e+06   1.525988e+06
   2.523139e+06   9.898759e+06
  -6.421861e+06   9.175578e+06
  -9.727123e+06   1.783909e+06
  -6.994530e+06  -6.304957e+06
  -7.830540e+05  -8.640630e+06
   4.040347e+06  -2.783361e+06
   2.630846e+06   5.384610e+06
  -3.833370e+06   6.445359e+06
  -7.901441e+06  -1.494649e+06
  -4.342825e+06  -1.035098e+07
   3.967573e+06  -1.186231e+07
   1.029573e+07  -5.891637e+06
   1.098407e+07   2.144332e+06
   6.738333e+06   7.690403e+06
   6.402337e+05   8.908422e+06
  -3.148862e+06   6.183301e+06
  -2.092118e+06   2.582236e+06
   1.058221e+06   1.942306e+06
   3.635578e+05   4.090095e+06
  -5.313979e+06   4.479208e+06
  -9.681459e+06   5.933863e+05
  -7.130743e+06  -4.138640e+06
  -3.436176e+05  -5.165529e+06
   3.677051e+06  -2.714696e+06
   2.558549e+06  -1.438511e+05
  -4.027145e+05   9.086463e+05
  -2.122969e+06   6.049984e+05
  -2.234904e+06  -1.278290e+06
  -8.304912e+05  -3.901386e+06
   1.799745e+06  -3.944284e+06
   3.389573e+06   6.723777e+04
   1.813558e+06   3.744308e+06
  -8.484498e+05   2.070207e+06
  -4.591618e+05  -2.390152e+06
   2.428776e+06  -2.272222e+06
   2.405234e+06   3.258253e+06
  -2.602279e+06   6.153290e+06
  -7.145544e+06   8.873773e+05
  -5.131543e+06  -7.134614e+06
   2.075302e+06  -8.640819e+06
   7.555089e+06  -2.382811e+06
   6.926320e+06   4.519378e+06
   1.761729e+06   6.028205e+06
  -3.489308e+06   2.645639e+06
  -5.190431e+06  -1.587024e+06
  -2.334112e+06  -3.501211e+06
   2.483823e+06  -2.154397e+06
   4.542754e+06   9.995141e+05
   1.910005e+06   2.772342e+06
  -1.755221e+06   1.362042e+06
  -1.709035e+06  -1.037410e+06
   1.378364e+06  -8.426918e+05
   2.432139e+06   1.888780e+06
  -7.866659e+05   3.499024e+06
  -4.786121e+06   1.817564e+06
  -5.329734e+06  -1.495692e+06
  -2.265454e+06  -4.062196e+06
   1.822461e+06  -5.300632e+06
   4.995459e+06  -4.885003e+06
   6.224730e+06  -1.782863e+06
   4.649756e+06   3.170979e+06
   9.615343e+05   6.203264e+06
  -1.908390e+06   4.738920e+06
  -1.776671e+06   1.126203e+06
  -7.859771e+04  -3.199473e+05
   1.576833e+05   1.006982e+06
  -1.528469e+06   1.889711e+06
  -2.824792e+06   3.513172e+05
  -2.097403e+06  -1.851929e+06
  -1.122793e+05  -2.127470e+06
   1.493383e+06  -2.555892e+05
   1.677842e+06   2.004910e+06
   4.249292e+04   2.915758e+06
  -2.756172e+06   1.698157e+06
  -4.520619e+06  -1.157876e+06
  -3.275405e+06  -3.797217e+06
   4.643875e+04  -4.302369e+06
   2.340872e+06  -2.754660e+06
   2.288064e+06  -1.117480e+06
   1.844898e+06  -6.433917e+05
   2.926050e+06  -4.517149e+05
   4.325922e+06   7.716311e+05
   3.467486e+06   2.756237e+06
   1.346857e+05   4.103547e+06
  -3.169652e+06   3.895083e+06
  -4.138250e+06   2.157246e+06
  -2.670576e+06  -3.751022e+05
  -3.301239e+05  -2.229453e+06
   1.064671e+06  -1.962225e+06
   5.721786e+05   2.140831e+04
  -1.070538e+06   1.320693e+06
  -1.911797e+06   4.041082e+05
  -9.394542e+05  -1.213679e+06
   4.984274e+05  -1.116305e+06
   4.004473e+05   3.819643e+05
  -1.085566e+06   6.404749e+05
  -1.816155e+06  -1.372442e+06
  -5.424020e+05  -3.502278e+06
   1.673842e+06  -3.313471e+06
   3.122688e+06  -9.891845e+05
   3.217449e+06   1.478321e+06
   2.204606e+06   2.703486e+06
   4.482533e+05   2.554577e+06
  -1.216836e+06   1.461315e+06
  -1.565589e+06   2.449104e+05
  -4.912097e+05  -4.444491e+04
   3.570970e+05   7.505507e+05
  -4.265879e+05   1.347585e+06
  -1.927058e+06   5.739964e+05
  -2.035138e+06  -9.092827e+05
  -3.684848e+05  -1.427757e+06
   1.173979e+06  -5.621200e+05
   8.680333e+05   4.510890e+05
  -8.512217e+05   4.834266e+05
  -2.136050e+06  -3.494622e+05
  -1.690330e+06  -1.337624e+06
   2.620570e+05  -1.924203e+06
   2.287634e+06  -1.626512e+06
   2.758765e+06  -2.688521e+05
   1.215073e+06   1.274914e+06
  -9.311222e+05   1.517675e+06
  -1.582334e+06   1.891331e+05
  -2.109008e+05  -1.095717e+06
   1.520847e+06  -7.410365e+05
   1.711462e+06   7.911107e+05
   3.143630e+05   1.646983e+06
  -1.103175e+06   9.474780e+05
  -1.241262e+06  -3.382736e+05
  -2.215013e+05  -7.848939e+05
   8.091337e+05  -4.695985e+04
   7.429285e+05   1.058101e+06
  -5.685215e+05   1.431076e+06
  -2.006447e+06   5.551668e+05
  -2.042450e+06  -1.043535e+06
  -3.853751e+05  -2.077738e+06
   1.447438e+06  -1.641267e+06
   1.726675e+06  -2.001331e+05
   4.904700e+05   8.710749e+05
  -6.621753e+05   7.951143e+05
  -6.195938e+05   8.169841e+04
   1.234390e+05  -3.325128e+05
   4.638784e+05  -1.883461e+05
   8.388666e+04   4.747552e+04
  -4.587961e+05  -1.172968e+05
  -4.970810e+05  -6.960719e+05
   2.278381e+05  -1.184933e+06
   1.386340e+06  -8.872258e+05
   2.078958e+06   4.159676e+05
   1.466763e+06   1.941890e+06
  -2.111315e+05   2.412203e+06
  -1.602038e+06   1.393463e+06
  -1.662839e+06  -1.339513e+05
  -8.320335e+05  -8.678943e+05
  -3.197735e+05  -6.036629e+05
  -5.065893e+05  -1.972132e+05
  -6.509416e+05  -3.293951e+05
  -9.074544e+04  -7.817317e+05
   8.812647e+05  -8.921119e+05
   1.434915e+06  -3.113665e+05
   1.027975e+06   7.087926e+05
  -2.557305e+05   1.428846e+06
  -1.709571e+06   1.055092e+06
  -2.232286e+06  -4.821599e+05
  -1.118075e+06  -2.095422e+06
   1.027613e+06  -2.357899e+06
   2.548696e+06  -1.011573e+06
   2.328966e+06   6.767869e+05
   9.211510e+05   1.327206e+06
  -2.154066e+05   9.103110e+05
  -3.605007e+05   4.883543e+05
  -4.067901e+04   7.647482e+05
  -8.850267e+04   1.332107e+06
  -6.775548e+05   1.302764e+06
  -1.303766e+06   3.232740e+05
  -1.343730e+06  -1.074088e+06
  -5.636527e+05  -1.888622e+06
   6.136724e+05  -1.436582e+06
   1.279123e+06   3.898350e+03
   8.032591e+05   1.288748e+06
  -4.060656e+05   1.390928e+06
  -1.175147e+06   3.792642e+05
  -8.045032e+05  -7.287531e+05
   1.491832e+05  -1.086354e+06
   5.625160e+05  -7.697159e+05
   9.319922e+04  -4.000563e+05
  -4.406945e+05  -3.285324e+05
  -6.532070e+04  -3.804175e+05
   1.155301e+06  -2.055417e+05
   2.072860e+06   3.368119e+05
   1.613906e+06   1.041457e+06
  -5.695472e+04   1.441864e+06
  -1.607366e+06   1.143118e+06
  -1.831936e+06   2.652045e+05
  -8.196398e+05  -5.153126e+05
   2.723158e+05  -5.781031e+05
   5.149059e+05  -2.255634e+04
   3.627680e+04   4.378726e+05
  -4.334948e+05   2.665067e+05
  -4.854814e+05  -3.395631e+05
  -2.779945e+05  -7.193346e+05
  -1.176863e+05  -4.809094e+05
  -1.310568e+05   8.117826e+04
  -2.574880e+05   2.785228e+05
  -2.710393e+05  -2.322993e+05
   1.249723e+05  -9.800066e+05
   8.950034e+05  -1.071611e+06
   1.387230e+06  -1.899060e+05
   8.807515e+05   9.135517e+05
  -4.133596e+05   1.160052e+06
  -1.273582e+06   3.615476e+05
  -7.404923e+05  -5.616372e+05
   7.031564e+05  -6.439510e+05
   1.572118e+06   1.010506e+05
   9.737916e+05   8.577156e+05
  -4.989545e+05   9.638576e+05
  -1.480188e+06   4.498935e+05
  -1.205010e+06  -1.999406e+05
  -1.240396e+05  -5.040798e+05
   6.477934e+05  -2.583937e+05
   3.916267e+05   3.014370e+05
  -5.711402e+05   5.402176e+05
  -1.188447e+06  -5.313836e+04
  -7.059357e+05  -1.168721e+06
   5.477642e+05  -1.721545e+06
   1.463714e+06  -9.187772e+05
   1.263950e+06   7.351766e+05
   2.221070e+05   1.780747e+06
  -7.257263e+05   1.281741e+06
  -9.156373e+05  -1.871390e+05
  -4.182615e+05  -1.185196e+06
   2.355385e+05  -9.491248e+05
   5.660093e+05  -7.534973e+04
   4.491633e+05   3.654908e+05
   1.437781e+05   1.253762e+05
   5.501111e+04  -8.730084e+04
   3.101593e+05   3.126909e+05
   5.267264e+05   9.684859e+05
   1.727020e+05   1.064890e+06
  -7.398007e+05   3.893700e+05
  -1.470602e+06  -4.502474e+05
  -1.257691e+06  -8.200812e+05
  -1.861839e+05  -7.004258e+05
   8.246139e+05  -4.325896e+05
   9.700283e+05  -1.829073e+05
   3.783724e+05   6.719293e+04
  -1.339986e+05   2.307330e+05
  -6.020082e+04   1.861438e+05
   2.370130e+05   6.975258e+04
   6.477905e+04   1.323533e+05
  -6.259661e+05   2.614591e+05
  -1.051919e+06   1.158299e+04
  -4.886585e+05  -6.986985e+05
   7.969891e+05  -1.213586e+06
   1.714619e+06  -8.014404e+05
   1.461277e+06   3.978895e+05
   3.100523e+05   1.398258e+06
  -7.573450e+05   1.397072e+06
  -1.045678e+06   5.772078e+05
  -6.569998e+05  -2.025635e+05
  -1.540664e+05  -3.591331e+05
   4.270125e+04  -9.197453e+04
  -8.872232e+04  -6.784874e+03
  -2.886181e+05  -3.715135e+05
  -2.456964e+05  -8.030819e+05
   1.622682e+05  -6.910032e+05
   6.800193e+05   8.461663e+04
   7.804102e+05   9.183693e+05
   1.730381e+05   1.039223e+06
  -7.320180e+05   2.989854e+05
  -1.064891e+06  -6.711132e+05
  -3.923018e+05  -1.088787e+06
   6.984985e+05  -7.186741e+05
   1.139825e+06   4.553558e+04
   5.606585e+05   6.298039e+05
  -2.810945e+05   7.161814e+05
  -4.029842e+05   3.792454e+05
   2.170790e+05  -1.222864e+04
   6.414498e+05  -5.806786e+04
   1.630848e+05   3.132692e+05
  -8.130305e+05   6.902072e+05
  -1.275288e+06   5.357138e+05
  -7.957570e+05  -1.932828e+05
   7.856201e+04  -8.854798e+05
   5.669574e+05  -8.774228e+05
   4.589869e+05  -1.902585e+05
   8.272488e+04   4.669711e+05
  -2.265673e+05   4.596411e+05
  -3.572210e+05  -1.098881e+05
  -2.711789e+05  -5.721651e+05
   3.908332e+04  -4.575650e+05
   3.953229e+05   2.328453e+04
   4.900892e+05   2.936908e+05
   2.427784e+05   1.106793e+05
  -5.009043e+04  -1.754159e+05
  -7.830070e+04  -9.143249e+04
   6.457670e+04   3.389194e+05
   1.869604e+04   5.930200e+05
  -3.017102e+05   2.846285e+05
  -5.128538e+05  -3.374544e+05
  -2.273455e+05  -6.466526e+05
   3.875864e+05  -3.416019e+05
   6.952021e+05   2.462435e+05
   2.850115e+05   5.576536e+05
  -5.100439e+05   3.811667e+05
  -9.062620e+05  -4.328146e+04
  -4.980753e+05  -3.675666e+05
   2.877542e+05  -4.316975e+05
   6.468477e+05  -2.717785e+05
   2.762947e+05  -2.647577e+04
  -3.125999e+05   1.066758e+05
  -3.998603e+05  -1.637387e+04
   1.298702e+05  -2.772354e+05
   6.901725e+05  -2.962573e+05
