
 $NMID
 id='ANONYMOUS ', fmtdat='(2E16.6)'
 volume=1.0
 tramp=1.0
 $END
   4.133194e+07   1.038972e+06
   2.529704e+07   2.399128e+07
  -4.156660e+06   2.724151e+07
  -1.971112e+07   1.271342e+07
  -1.311987e+07  -2.940049e+06
   1.359008e+06  -7.048327e+06
   7.679900e+06  -6.360347e+05
   3.468490e+06   7.068511e+06
  -3.795139e+06   8.470112e+06
  -7.413051e+06   2.643623e+06
  -5.616378e+06  -5.001459e+06
  -5.206419e+05  -7.231305e+06
   3.389874e+06  -1.862368e+06
   2.292565e+06   5.259789e+06
  -2.788470e+06   6.127499e+06
  -6.219527e+06  -4.678922e+05
  -3.793943e+06  -7.843952e+06
   2.665992e+06  -9.239290e+06
   7.728141e+06  -4.375208e+06
   7.949995e+06   2.038920e+06
   4.191715e+06   5.732389e+06
  -4.982222e+04   5.695797e+06
  -1.509509e+06   3.672835e+06
   2.176546e+05   2.404050e+06
   1.845882e+06   3.254033e+06
  -3.972855e+05   4.566099e+06
  -5.721379e+06   3.384831e+06
  -8.648267e+06  -5.699858e+05
  -5.456613e+06  -4.022210e+06
   8.522436e+05  -4.025897e+06
   4.052439e+06  -1.309590e+06
   1.991636e+06   1.188738e+06
  -1.867065e+06   1.634491e+06
  -3.447810e+06   6.065505e+04
  -2.090469e+06  -2.498788e+06
   3.475732e+05  -4.097712e+06
   1.980405e+06  -2.724200e+06
   1.864990e+06   9.078874e+05
   3.668619e+05   2.805263e+06
  -6.731209e+05   4.418419e+05
   3.655485e+05  -3.003003e+06
   2.358747e+06  -2.285700e+06
   2.167404e+06   2.319463e+06
  -1.165990e+06   4.667210e+06
  -4.386990e+06   9.708618e+05
  -3.567309e+06  -4.850294e+06
   1.156484e+06  -6.166061e+06
   5.625476e+06  -1.747275e+06
   5.977170e+06   3.601368e+06
   2.053653e+06   5.190776e+06
  -2.890908e+06   2.736166e+06
  -4.953470e+06  -8.908439e+05
  -2.660919e+06  -2.823072e+06
   1.613030e+06  -1.980316e+06
   3.655734e+06   4.753308e+05
   1.773481e+06   1.996586e+06
  -1.281570e+06   1.108576e+06
  -1.717781e+06  -8.072791e+05
   5.555570e+05  -1.165291e+06
   2.059430e+06   4.986938e+05
   4.248408e+05   2.067153e+06
  -2.727587e+06   1.664791e+06
  -4.015857e+06  -4.316598e+05
  -2.043612e+06  -2.814362e+06
   1.747196e+06  -4.310226e+06
   4.848384e+06  -3.902195e+06
   5.473082e+06  -1.009280e+06
   3.461989e+06   3.076865e+06
   4.362161e+05   5.381792e+06
  -1.370127e+06   4.308812e+06
  -1.222880e+06   1.711190e+06
  -5.619214e+05   5.481841e+05
  -1.039673e+06   1.105418e+06
  -2.374084e+06   1.102486e+06
  -2.855145e+06  -6.864774e+05
  -1.583566e+06  -2.613532e+06
   5.820096e+05  -2.403025e+06
   2.053550e+06  -5.558542e+03
   1.768619e+06   2.472224e+06
  -2.659574e+05   2.986271e+06
  -2.789239e+06   1.190180e+06
  -3.813054e+06  -1.571209e+06
  -2.348210e+06  -3.387567e+06
   2.852398e+05  -3.275245e+06
   1.773885e+06  -1.960134e+06
   1.597240e+06  -9.737686e+05
   1.502655e+06  -8.535170e+05
   2.795143e+06  -6.465511e+05
   4.205115e+06   6.529977e+05
   3.398465e+06   2.695750e+06
   8.453855e+04   4.104386e+06
  -3.366050e+06   3.801034e+06
  -4.366905e+06   1.798719e+06
  -2.561828e+06  -8.031520e+05
   1.314691e+05  -2.334848e+06
   1.409478e+06  -1.743548e+06
   5.240807e+05   1.659795e+05
  -1.220032e+06   1.222759e+06
  -1.834120e+06   3.113094e+05
  -7.336325e+05  -1.167536e+06
   6.562146e+05  -1.111491e+06
   6.239495e+05   3.694982e+05
  -7.750403e+05   1.001824e+06
  -1.843096e+06  -5.977816e+05
  -1.219152e+06  -3.017653e+06
   8.154130e+05  -3.720036e+06
   2.880376e+06  -1.877997e+06
   3.692204e+06   1.031387e+06
   2.735616e+06   2.939220e+06
   5.447239e+05   2.898108e+06
  -1.385920e+06   1.478501e+06
  -1.665306e+06   1.160065e+05
  -4.983632e+05  -5.966491e+04
   3.530735e+05   7.605228e+05
  -3.673351e+05   1.263085e+06
  -1.781416e+06   5.349743e+05
  -1.962834e+06  -7.963046e+05
  -4.359524e+05  -1.329082e+06
   1.157433e+06  -5.988371e+05
   1.008727e+06   4.658847e+05
  -7.881446e+05   7.084135e+05
  -2.374384e+06  -1.304305e+05
  -2.042134e+06  -1.414008e+06
   1.447200e+05  -2.200608e+06
   2.411495e+06  -1.787494e+06
   2.852238e+06  -2.649732e+05
   1.190673e+06   1.235977e+06
  -9.061372e+05   1.384157e+06
  -1.444504e+06   1.317831e+05
  -1.076382e+05  -1.020976e+06
   1.521442e+06  -6.851125e+05
   1.736559e+06   7.629837e+05
   4.303016e+05   1.669146e+06
  -1.027074e+06   1.095347e+06
  -1.309493e+06  -1.901196e+05
  -3.481464e+05  -7.492509e+05
   7.335121e+05  -6.505665e+04
   6.898912e+05   1.060226e+06
  -6.480412e+05   1.404013e+06
  -2.055980e+06   4.567172e+05
  -2.011985e+06  -1.133158e+06
  -3.400569e+05  -2.089008e+06
   1.447832e+06  -1.631146e+06
   1.735301e+06  -2.246894e+05
   5.427906e+05   8.658041e+05
  -6.578240e+05   8.349177e+05
  -7.159234e+05   5.496281e+04
   7.078268e+04  -4.932194e+05
   6.101457e+05  -3.312998e+05
   3.310421e+05   1.101878e+05
  -3.506650e+05   9.635857e+04
  -5.782091e+05  -5.479677e+05
   1.293548e+05  -1.177473e+06
   1.383696e+06  -9.090984e+05
   2.103125e+06   4.453827e+05
   1.436799e+06   1.997086e+06
  -2.783853e+05   2.484899e+06
  -1.695226e+06   1.496783e+06
  -1.816861e+06  -9.419484e+04
  -9.973312e+05  -1.026253e+06
  -3.483416e+05  -8.936248e+05
  -3.611825e+05  -3.676893e+05
  -4.935047e+05  -2.773000e+05
  -5.816456e+04  -6.876727e+05
   8.670073e+05  -9.243993e+05
   1.511153e+06  -3.737293e+05
   1.155707e+06   7.869431e+05
  -2.224206e+05   1.600211e+06
  -1.793123e+06   1.139243e+06
  -2.328555e+06  -5.195555e+05
  -1.178456e+06  -2.143521e+06
   9.735933e+05  -2.382637e+06
   2.534211e+06  -1.074101e+06
   2.438450e+06   6.088333e+05
   1.107080e+06   1.384724e+06
  -1.469900e+05   1.100287e+06
  -5.097233e+05   6.363323e+05
  -2.752055e+05   7.445764e+05
  -2.203497e+05   1.216268e+06
  -6.798789e+05   1.214971e+06
  -1.268079e+06   2.688726e+05
  -1.310777e+06  -1.143434e+06
  -5.076914e+05  -1.951508e+06
   6.846028e+05  -1.450364e+06
   1.323261e+06   9.839935e+03
   8.313778e+05   1.275505e+06
  -3.443849e+05   1.407826e+06
  -1.098048e+06   4.915164e+05
  -8.031446e+05  -5.722955e+05
   3.932921e+04  -1.008890e+06
   4.284949e+05  -8.078783e+05
   4.233458e+04  -4.793916e+05
  -4.072460e+05  -3.821162e+05
  -3.480870e+04  -4.042643e+05
   1.128655e+06  -2.066020e+05
   2.029265e+06   3.565703e+05
   1.624653e+06   1.047475e+06
   1.365222e+04   1.400510e+06
  -1.546892e+06   1.100002e+06
  -1.839952e+06   3.028091e+05
  -8.731462e+05  -4.120287e+05
   2.331914e+05  -5.228337e+05
   4.937587e+05  -6.921177e+04
  -1.103584e+04   3.619267e+05
  -4.935009e+05   2.314780e+05
  -4.693191e+05  -3.626255e+05
  -1.575980e+05  -7.647905e+05
  -8.818002e+03  -4.943535e+05
  -1.536723e+05   1.496391e+05
  -3.576201e+05   3.597498e+05
  -2.914762e+05  -2.350227e+05
   2.097021e+05  -1.029945e+06
   9.392457e+05  -1.050680e+06
   1.296977e+06  -9.451785e+04
   7.517343e+05   9.544136e+05
  -4.495696e+05   1.076806e+06
  -1.235023e+06   2.369370e+05
  -7.214725e+05  -6.292169e+05
   7.130107e+05  -6.623013e+05
   1.658673e+06   9.296293e+04
   1.115420e+06   8.897736e+05
  -4.428566e+05   1.069523e+06
  -1.571092e+06   5.656720e+05
  -1.332322e+06  -1.689089e+05
  -1.655829e+05  -5.503046e+05
   6.636733e+05  -2.983483e+05
   3.616711e+05   2.848316e+05
  -6.475912e+05   4.808877e+05
  -1.200283e+06  -1.707044e+05
  -5.862095e+05  -1.254875e+06
   7.302049e+05  -1.697889e+06
   1.583203e+06  -8.160419e+05
   1.264915e+06   8.406842e+05
   1.488631e+05   1.865563e+06
  -7.999274e+05   1.352893e+06
  -9.643306e+05  -1.598089e+05
  -4.624139e+05  -1.234892e+06
   1.910644e+05  -1.030988e+06
   5.639178e+05  -9.922106e+04
   5.152936e+05   4.139796e+05
   2.142303e+05   1.642825e+05
   3.415511e+04  -1.133786e+05
   2.105509e+05   2.743583e+05
   4.735438e+05   9.935989e+05
   2.277175e+05   1.130783e+06
  -6.790955e+05   4.022608e+05
  -1.518455e+06  -5.209531e+05
  -1.353961e+06  -8.992461e+05
  -1.795774e+05  -7.135768e+05
   9.390517e+05  -4.017994e+05
   1.038588e+06  -1.792565e+05
   3.312944e+05   3.391108e+04
  -1.746347e+05   2.227660e+05
   1.237520e+04   2.409247e+05
   3.282684e+05   1.393087e+05
   2.520862e+04   1.412758e+05
  -7.503592e+05   1.988991e+05
  -1.069215e+06  -5.999834e+04
  -3.400812e+05  -7.121401e+05
   9.549667e+05  -1.150101e+06
   1.731355e+06  -6.868592e+05
   1.367221e+06   5.158942e+05
   2.178524e+05   1.464507e+06
  -8.150099e+05   1.374297e+06
  -1.093630e+06   4.839733e+05
  -6.743432e+05  -2.904499e+05
  -1.028372e+05  -3.709352e+05
   1.211224e+05  -3.151628e+04
  -6.769597e+04   5.303433e+04
  -3.245122e+05  -3.719176e+05
  -2.520278e+05  -8.398786e+05
   2.156162e+05  -6.814286e+05
   7.064018e+05   1.816024e+05
   6.986202e+05   1.035248e+06
   3.040517e+04   1.056692e+06
  -8.113159e+05   1.815283e+05
  -1.024468e+06  -8.178745e+05
  -2.923209e+05  -1.127375e+06
   7.608680e+05  -6.378062e+05
   1.122993e+06   1.243343e+05
   5.009598e+05   6.108761e+05
  -3.106067e+05   6.435948e+05
  -3.601322e+05   3.577957e+05
   2.982060e+05   3.603738e+04
   6.808921e+05  -1.291641e+04
   1.263080e+05   3.120379e+05
  -8.701695e+05   6.794002e+05
  -1.275152e+06   5.524106e+05
  -7.357376e+05  -1.689463e+05
   1.288873e+05  -8.734404e+05
   5.546078e+05  -8.472099e+05
   3.974321e+05  -1.233338e+05
   1.660706e+04   5.117600e+05
  -2.666946e+05   4.164069e+05
  -3.586424e+05  -2.011656e+05
  -2.374964e+05  -6.028956e+05
   7.640686e+04  -4.017431e+05
   3.984420e+05   7.493721e+04
   4.680260e+05   2.754117e+05
   2.470300e+05   8.218045e+04
  -1.223987e+04  -1.240841e+05
  -8.565077e+04   1.624214e+04
  -5.358719e+04   3.868801e+05
  -1.430940e+05   5.185670e+05
  -3.564733e+05   1.431743e+05
  -4.063709e+05  -4.482462e+05
  -7.245909e+04  -6.744513e+05
   4.484763e+05  -2.911120e+05
   6.480281e+05   3.324770e+05
   2.231170e+05   6.124608e+05
  -5.214542e+05   3.551440e+05
  -8.820471e+05  -1.211977e+05
  -4.696807e+05  -4.037108e+05
   3.133641e+05  -3.739226e+05
   6.526553e+05  -1.801052e+05
   2.279862e+05  -6.215013e+03
  -3.988594e+05   2.730259e+04
  -4.320690e+05  -1.212761e+05
   2.170370e+05  -3.184660e+05
   8.289093e+05  -2.526767e+05
