
 $NMID
 id='ANONYMOUS ', fmtdat='(2E16.6)'
 volume=1.0
 tramp=1.0
 $END
  -5.769279e+07  -2.775774e+05
  -3.421973e+07  -3.641754e+07
   8.316617e+06  -3.910864e+07
   2.848004e+07  -1.424451e+07
   1.650891e+07   7.851906e+06
  -3.744816e+06   9.451250e+06
  -9.920642e+06  -1.712964e+06
  -2.402993e+06  -1.003510e+07
   6.597240e+06  -9.101460e+06
   9.800518e+06  -1.671198e+06
   6.986899e+06   6.300776e+06
   7.823620e+05   8.590818e+06
  -4.006936e+06   2.809100e+06
  -2.577487e+06  -5.289954e+06
   3.889330e+06  -6.352367e+06
   7.931374e+06   1.557741e+06
   4.331734e+06   1.038983e+07
  -3.989812e+06   1.189356e+07
  -1.031152e+07   5.948896e+06
  -1.104573e+07  -2.062763e+06
  -6.879582e+06  -7.672763e+06
  -7.590358e+05  -9.027317e+06
   3.201098e+06  -6.346947e+06
   2.297438e+06  -2.606599e+06
  -8.982813e+05  -1.790471e+06
  -3.982245e+05  -3.926252e+06
   5.142888e+06  -4.453413e+06
   9.542177e+06  -6.808284e+05
   7.127557e+06   4.048494e+06
   4.638877e+05   5.134867e+06
  -3.530479e+06   2.765563e+06
  -2.518311e+06   2.820943e+05
   2.706521e+05  -7.596904e+05
   1.919247e+06  -5.912706e+05
   2.146758e+06   1.124673e+06
   9.049634e+05   3.751073e+06
  -1.718764e+06   3.963874e+06
  -3.441410e+06   5.446145e+04
  -1.934381e+06  -3.721541e+06
   8.042395e+05  -2.198269e+06
   5.017617e+05   2.246447e+06
  -2.393955e+06   2.209011e+06
  -2.388387e+06  -3.292406e+06
   2.682658e+06  -6.211610e+06
   7.289616e+06  -9.141753e+05
   5.224641e+06   7.196462e+06
  -2.088648e+06   8.735788e+06
  -7.585026e+06   2.423649e+06
  -6.882244e+06  -4.522925e+06
  -1.686978e+06  -6.003625e+06
   3.495693e+06  -2.576829e+06
   5.115691e+06   1.649276e+06
   2.245984e+06   3.520585e+06
  -2.534116e+06   2.138055e+06
  -4.549641e+06  -1.033093e+06
  -1.887842e+06  -2.802320e+06
   1.770177e+06  -1.364079e+06
   1.670758e+06   1.051539e+06
  -1.455506e+06   8.104737e+05
  -2.456074e+06  -1.998801e+06
   8.710688e+05  -3.614579e+06
   4.905364e+06  -1.838773e+06
   5.378151e+06   1.560358e+06
   2.258445e+06   4.108669e+06
  -1.782403e+06   5.278324e+06
  -4.888836e+06   4.856767e+06
  -6.146625e+06   1.817239e+06
  -4.656787e+06  -3.093826e+06
  -9.879601e+05  -6.137587e+06
   1.935974e+06  -4.683555e+06
   1.820526e+06  -1.044104e+06
   4.909161e+04   4.238150e+05
  -2.754221e+05  -9.358919e+05
   1.388943e+06  -1.896837e+06
   2.727297e+06  -4.374115e+05
   2.068673e+06   1.725944e+06
   1.593493e+05   2.028617e+06
  -1.395779e+06   2.468032e+05
  -1.603019e+06  -1.926018e+06
  -5.332712e+04  -2.833659e+06
   2.684506e+06  -1.696474e+06
   4.473512e+06   1.089720e+06
   3.292369e+06   3.741240e+06
  -8.599204e+03   4.305189e+06
  -2.334922e+06   2.783072e+06
  -2.309332e+06   1.118898e+06
  -1.849765e+06   6.090065e+05
  -2.884019e+06   4.106996e+05
  -4.242481e+06  -7.849682e+05
  -3.384578e+06  -2.716999e+06
  -1.147126e+05  -4.011617e+06
   3.095940e+06  -3.795114e+06
   4.021286e+06  -2.116198e+06
   2.605840e+06   3.341019e+05
   3.547922e+05   2.155456e+06
  -1.009474e+06   1.922333e+06
  -5.598246e+05  -9.760561e+03
   1.036833e+06  -1.291228e+06
   1.878584e+06  -3.950017e+05
   9.341895e+05   1.191706e+06
  -4.800835e+05   1.083187e+06
  -3.679643e+05  -3.873847e+05
   1.112271e+06  -5.947890e+05
   1.795167e+06   1.434691e+06
   4.569113e+05   3.502762e+06
  -1.761017e+06   3.217506e+06
  -3.115497e+06   8.642485e+05
  -3.101595e+06  -1.526744e+06
  -2.074830e+06  -2.648639e+06
  -4.019206e+05  -2.466933e+06
   1.179815e+06  -1.413839e+06
   1.516348e+06  -2.400756e+05
   4.781051e+05   4.514860e+04
  -3.453975e+05  -7.356694e+05
   4.287009e+05  -1.327720e+06
   1.903291e+06  -5.596361e+05
   1.997550e+06   9.121235e+05
   3.473668e+05   1.413648e+06
  -1.157161e+06   5.406587e+05
  -8.333807e+05  -4.509681e+05
   8.492077e+05  -4.492222e+05
   2.070502e+06   3.831134e+05
   1.606922e+06   1.321378e+06
  -2.885752e+05   1.855783e+06
  -2.238730e+06   1.556781e+06
  -2.689024e+06   2.440185e+05
  -1.184044e+06  -1.257609e+06
   9.182529e+05  -1.493740e+06
   1.561498e+06  -1.856729e+05
   2.129366e+05   1.078288e+06
  -1.490597e+06   7.221984e+05
  -1.668017e+06  -7.880535e+05
  -2.842021e+05  -1.615109e+06
   1.099133e+06  -9.073019e+05
   1.211170e+06   3.574272e+05
   1.996230e+05   7.794168e+05
  -8.023057e+05   4.385416e+04
  -7.287512e+05  -1.036940e+06
   5.530475e+05  -1.398122e+06
   1.956515e+06  -5.422455e+05
   1.992200e+06   1.020584e+06
   3.698159e+05   2.031287e+06
  -1.424538e+06   1.597645e+06
  -1.689445e+06   1.818147e+05
  -4.682216e+05  -8.585340e+05
   6.556441e+05  -7.702089e+05
   5.966330e+05  -7.455322e+04
  -1.335352e+05   3.116285e+05
  -4.452434e+05   1.630355e+05
  -5.503465e+04  -4.902992e+04
   4.659662e+05   1.343964e+05
   4.793971e+05   7.001849e+05
  -2.378736e+05   1.161211e+06
  -1.360330e+06   8.585759e+05
  -2.026979e+06  -4.146966e+05
  -1.425328e+06  -1.899159e+06
   2.150752e+05  -2.346924e+06
   1.568182e+06  -1.338920e+06
   1.609860e+06   1.503143e+05
   7.842218e+05   8.424114e+05
   2.943890e+05   5.618252e+05
   5.027314e+05   1.712433e+05
   6.534524e+05   3.239186e+05
   9.247902e+04   7.722145e+05
  -8.674076e+05   8.643924e+05
  -1.397375e+06   2.887386e+05
  -9.847992e+05  -6.930648e+05
   2.662398e+05  -1.378157e+06
   1.670185e+06  -1.011426e+06
   2.168455e+06   4.819287e+05
   1.074633e+06   2.052072e+06
  -1.023601e+06   2.300299e+06
  -2.501646e+06   9.699074e+05
  -2.264921e+06  -6.858401e+05
  -8.716531e+05  -1.304228e+06
   2.302264e+05  -8.717715e+05
   3.451087e+05  -4.541108e+05
   1.831998e+04  -7.402782e+05
   7.527734e+04  -1.308791e+06
   6.657931e+05  -1.279206e+06
   1.278144e+06  -3.163185e+05
   1.308991e+06   1.048757e+06
   5.445858e+05   1.840999e+06
  -6.009446e+05   1.397342e+06
  -1.246289e+06  -1.172748e+04
  -7.765718e+05  -1.267053e+06
   4.114937e+05  -1.358801e+06
   1.163879e+06  -3.562419e+05
   7.895960e+05   7.329298e+05
  -1.596565e+05   1.074149e+06
  -5.696182e+05   7.515629e+05
  -1.021088e+05   3.845391e+05
   4.301911e+05   3.159444e+05
   6.431297e+04   3.679634e+05
  -1.132923e+06   1.962700e+05
  -2.028476e+06  -3.353276e+05
  -1.571543e+06  -1.026185e+06
   6.842747e+04  -1.417323e+06
   1.582079e+06  -1.116894e+06
   1.793608e+06  -2.453974e+05
   7.977418e+05   5.214260e+05
  -2.708214e+05   5.712283e+05
  -5.075761e+05   1.553653e+04
  -4.145300e+04  -4.335445e+05
   4.169820e+05  -2.587929e+05
   4.730977e+05   3.312581e+05
   2.785083e+05   6.942664e+05
   1.232468e+05   4.645409e+05
   1.287492e+05  -7.052761e+04
   2.459226e+05  -2.587314e+05
   2.619667e+05   2.280921e+05
  -1.195096e+05   9.482325e+05
  -8.742282e+05   1.044099e+06
  -1.362488e+06   1.934485e+05
  -8.684915e+05  -8.873896e+05
   4.022925e+05  -1.139288e+06
   1.245295e+06  -3.618407e+05
   7.199341e+05   5.448282e+05
  -6.904014e+05   6.234055e+05
  -1.527444e+06  -1.115043e+05
  -9.312963e+05  -8.460887e+05
   5.030066e+05  -9.308938e+05
   1.444765e+06  -4.162398e+05
   1.165164e+06   2.102786e+05
   1.123591e+05   4.904848e+05
  -6.350094e+05   2.445538e+05
  -3.855297e+05  -2.972911e+05
   5.505651e+05  -5.284193e+05
   1.155492e+06   4.611714e+04
   6.930383e+05   1.132006e+06
  -5.242631e+05   1.674644e+06
  -1.418602e+06   8.960141e+05
  -1.226939e+06  -7.142613e+05
  -2.118209e+05  -1.729798e+06
   7.113935e+05  -1.238599e+06
   8.903824e+05   1.925151e+05
   3.962960e+05   1.157646e+06
  -2.432234e+05   9.205169e+05
  -5.551486e+05   6.874375e+04
  -4.284723e+05  -3.574886e+05
  -1.310360e+05  -1.225609e+05
  -5.770327e+04   8.324149e+04
  -3.138824e+05  -3.068093e+05
  -5.144987e+05  -9.446878e+05
  -1.546234e+05  -1.037821e+06
   7.322844e+05  -3.783575e+05
   1.427299e+06   4.425362e+05
   1.211823e+06   8.042304e+05
   1.786641e+05   6.839185e+05
  -7.949584e+05   4.167103e+05
  -9.419532e+05   1.712458e+05
  -3.759464e+05  -6.885877e+04
   1.277325e+05  -2.237974e+05
   6.991235e+04  -1.790953e+05
  -2.189115e+05  -6.612522e+04
  -6.667518e+04  -1.270304e+05
   5.974637e+05  -2.535183e+05
   1.023609e+06  -1.280330e+04
   4.891652e+05   6.774448e+05
  -7.660711e+05   1.181946e+06
  -1.673471e+06   7.860700e+05
  -1.431013e+06  -3.797584e+05
  -3.027157e+05  -1.357437e+06
   7.402359e+05  -1.361907e+06
   1.015933e+06  -5.668509e+05
   6.357154e+05   1.928136e+05
   1.538517e+05   3.484029e+05
  -3.127218e+04   9.254536e+04
   9.158223e+04   1.231505e+04
   2.766847e+05   3.662397e+05
   2.340028e+05   7.830471e+05
  -1.562204e+05   6.735934e+05
  -6.575202e+05  -7.724399e+04
  -7.616773e+05  -8.861225e+05
  -1.778881e+05  -1.008707e+06
   7.036717e+05  -2.971621e+05
   1.035226e+06   6.444550e+05
   3.866939e+05   1.057851e+06
  -6.762779e+05   7.046914e+05
  -1.112329e+06  -4.116447e+04
  -5.522390e+05  -6.177541e+05
   2.718839e+05  -7.051509e+05
   3.994404e+05  -3.731802e+05
  -2.014766e+05   1.210783e+04
  -6.211794e+05   5.653349e+04
  -1.617583e+05  -3.054661e+05
   7.919516e+05  -6.692269e+05
   1.250357e+06  -5.156169e+05
   7.843642e+05   1.927829e+05
  -7.554255e+04   8.642788e+05
  -5.586123e+05   8.586849e+05
  -4.529669e+05   1.935088e+05
  -8.334359e+04  -4.492214e+05
   2.175947e+05  -4.508812e+05
   3.443112e+05   9.977585e+04
   2.643586e+05   5.559955e+05
  -3.405525e+04   4.512425e+05
  -3.837121e+05  -1.955494e+04
  -4.808145e+05  -2.905335e+05
  -2.376310e+05  -1.125911e+05
   5.441640e+04   1.753869e+05
   8.027555e+04   1.013245e+05
  -7.150280e+04  -3.212957e+05
  -3.550428e+04  -5.801868e+05
   2.842229e+05  -2.889054e+05
   5.056639e+05   3.161123e+05
   2.338448e+05   6.233372e+05
  -3.719664e+05   3.344895e+05
  -6.793929e+05  -2.330496e+05
  -2.798313e+05  -5.380681e+05
   4.981511e+05  -3.723221e+05
   8.847901e+05   3.761372e+04
   4.864302e+05   3.568247e+05
  -2.782414e+05   4.254627e+05
  -6.290183e+05   2.716612e+05
  -2.742912e+05   2.874495e+04
   2.936733e+05  -1.069866e+05
   3.827247e+05   8.695807e+03
  -1.212768e+05   2.621605e+05
  -6.599126e+05   2.843092e+05
