
 $NMID
 id='ANONYMOUS ', fmtdat='(2E16.6)'
 volume=1.0
 tramp=1.0
 $END
  -4.211218e+07  -7.126555e+05
  -2.530235e+07  -2.573333e+07
   5.326786e+06  -2.822450e+07
   2.056250e+07  -1.149248e+07
   1.267920e+07   4.575269e+06
  -2.153896e+06   7.045004e+06
  -7.531422e+06  -4.353752e+05
  -2.528417e+06  -7.307823e+06
   4.447893e+06  -7.532133e+06
   7.363649e+06  -1.849376e+06
   5.359196e+06   4.846320e+06
   5.189265e+05   6.763204e+06
  -3.162623e+06   1.969060e+06
  -2.046144e+06  -4.539027e+06
   2.883440e+06  -5.343269e+06
   6.044456e+06   8.716086e+05
   3.445957e+06   7.793140e+06
  -2.868575e+06   9.009090e+06
  -7.704268e+06   4.368160e+06
  -8.071594e+06  -1.786758e+06
  -4.670373e+06  -5.713282e+06
  -2.805657e+05  -6.235043e+06
   1.979772e+06  -4.248847e+06
   8.501087e+05  -2.179845e+06
  -1.157426e+06  -2.227229e+06
   6.169011e+04  -3.648640e+06
   4.691077e+06  -3.288747e+06
   7.769008e+06   3.643880e+04
   5.334335e+06   3.483872e+06
  -2.117574e+05   3.883764e+06
  -3.257433e+06   1.679780e+06
  -1.896883e+06  -4.309832e+05
   9.773641e+05  -1.015408e+06
   2.335355e+06  -2.235051e+05
   1.785427e+06   1.605166e+06
   1.762001e+05   3.364387e+06
  -1.601834e+06   2.827104e+06
  -2.225488e+06  -3.839223e+05
  -9.417403e+05  -2.765123e+06
   6.141626e+05  -1.088309e+06
   6.203684e+03   2.258999e+06
  -2.059077e+06   1.914147e+06
  -1.945524e+06  -2.399763e+06
   1.633658e+06  -4.641731e+06
   4.951989e+06  -8.100893e+05
   3.724173e+06   5.124061e+06
  -1.390008e+06   6.337489e+06
  -5.630929e+06   1.753003e+06
  -5.481661e+06  -3.502108e+06
  -1.584082e+06  -4.807176e+06
   2.749564e+06  -2.270376e+06
   4.321222e+06   1.107659e+06
   2.105615e+06   2.731856e+06
  -1.768731e+06   1.763888e+06
  -3.503923e+06  -6.498220e+05
  -1.565752e+06  -2.051915e+06
   1.301984e+06  -1.051678e+06
   1.453254e+06   8.046302e+05
  -8.530017e+05   8.625343e+05
  -1.942158e+06  -1.046384e+06
   1.577342e+05  -2.419026e+06
   3.235648e+06  -1.503577e+06
   4.011406e+06   8.435763e+05
   1.835632e+06   2.955541e+06
  -1.538146e+06   4.082323e+06
  -4.201315e+06   3.702258e+06
  -4.973254e+06   1.159880e+06
  -3.434932e+06  -2.662885e+06
  -5.665851e+05  -4.926346e+06
   1.434266e+06  -3.849918e+06
   1.314163e+06  -1.198460e+06
   2.920499e+05  -6.731813e+04
   3.714556e+05  -8.565368e+05
   1.638297e+06  -1.237790e+06
   2.380735e+06   1.574591e+05
   1.526291e+06   1.889981e+06
  -2.205919e+05   1.898111e+06
  -1.492747e+06   8.010476e+04
  -1.426458e+06  -1.915629e+06
   1.225698e+05  -2.496471e+06
   2.355547e+06  -1.205369e+06
   3.525285e+06   1.175412e+06
   2.378399e+06   3.060440e+06
  -1.460459e+05   3.226145e+06
  -1.757555e+06   2.010617e+06
  -1.667584e+06   8.911517e+05
  -1.441302e+06   6.259121e+05
  -2.444275e+06   4.383041e+05
  -3.622927e+06  -6.473073e+05
  -2.892341e+06  -2.350667e+06
  -5.181898e+04  -3.487253e+06
   2.810941e+06  -3.232285e+06
   3.620343e+06  -1.635961e+06
   2.206235e+06   5.178830e+05
   6.470955e+04   1.925269e+06
  -1.058625e+06   1.555089e+06
  -4.611665e+05  -8.152759e+04
   9.811205e+05  -1.065923e+06
   1.593485e+06  -2.885253e+05
   7.030626e+05   1.014786e+06
  -4.992775e+05   9.360480e+05
  -4.282929e+05  -3.311347e+05
   8.140158e+05  -6.919090e+05
   1.566835e+06   8.680677e+05
   7.194302e+05   2.806229e+06
  -1.117973e+06   2.995037e+06
  -2.594944e+06   1.181765e+06
  -2.929457e+06  -1.122092e+06
  -2.055803e+06  -2.435002e+06
  -3.825976e+05  -2.319831e+06
   1.119055e+06  -1.230720e+06
   1.369480e+06  -1.358908e+05
   4.194341e+05   4.923086e+04
  -2.937246e+05  -6.453694e+05
   3.490838e+05  -1.108045e+06
   1.582254e+06  -4.570030e+05
   1.694214e+06   7.445510e+05
   3.296027e+05   1.178643e+06
  -9.976744e+05   4.811197e+05
  -7.900006e+05  -4.031032e+05
   7.103295e+05  -4.963971e+05
   1.916984e+06   2.373564e+05
   1.564419e+06   1.197540e+06
  -2.038078e+05   1.749945e+06
  -2.017059e+06   1.420586e+06
  -2.385380e+06   1.955027e+05
  -1.010900e+06  -1.078932e+06
   7.918462e+05  -1.226227e+06
   1.287977e+06  -1.258258e+05
   1.282073e+05   8.989435e+05
  -1.298232e+06   5.911399e+05
  -1.457498e+06  -6.790590e+05
  -2.971443e+05  -1.415782e+06
   9.208794e+05  -8.571086e+05
   1.084288e+06   2.416374e+05
   2.333276e+05   6.587832e+05
  -6.575773e+05   4.141936e+04
  -5.984623e+05  -9.059330e+05
   5.296796e+05  -1.196405e+06
   1.727794e+06  -4.090002e+05
   1.709407e+06   9.435176e+05
   2.872339e+05   1.772681e+06
  -1.246606e+06   1.375792e+06
  -1.473719e+06   1.623041e+05
  -4.295698e+05  -7.447164e+05
   5.703100e+05  -6.852862e+05
   5.658087e+05  -4.885123e+04
  -9.233813e+04   3.488908e+05
  -4.610624e+05   2.087651e+05
  -1.699359e+05  -7.549659e+04
   3.518099e+05   1.307248e+04
   4.537159e+05   5.387928e+05
  -1.651857e+05   1.005071e+06
  -1.187015e+06   7.488381e+05
  -1.771432e+06  -3.877729e+05
  -1.212403e+06  -1.686971e+06
   2.341888e+05  -2.075336e+06
   1.417442e+06  -1.207025e+06
   1.476318e+06   1.197638e+05
   7.607004e+05   8.166515e+05
   2.674952e+05   6.362115e+05
   3.630908e+05   2.377988e+05
   4.870472e+05   2.599507e+05
   5.893980e+04   6.257154e+05
  -7.534439e+05   7.629469e+05
  -1.256217e+06   2.728420e+05
  -9.161668e+05  -6.494656e+05
   2.242376e+05  -1.283210e+06
   1.500952e+06  -9.107803e+05
   1.930385e+06   4.513400e+05
   9.517620e+05   1.814025e+06
  -8.762055e+05   2.005217e+06
  -2.172503e+06   8.596417e+05
  -2.019475e+06  -5.748620e+05
  -8.435111e+05  -1.167220e+06
   1.707938e+05  -8.516290e+05
   3.776136e+05  -4.669388e+05
   1.379040e+05  -6.332425e+05
   1.389748e+05  -1.079170e+06
   5.871058e+05  -1.064104e+06
   1.094799e+06  -2.402667e+05
   1.115048e+06   9.538825e+05
   4.345463e+05   1.634654e+06
  -5.657893e+05   1.217771e+06
  -1.104853e+06  -2.038195e+04
  -6.813636e+05  -1.098976e+06
   3.346380e+05  -1.186898e+06
   9.747541e+05  -3.588817e+05
   6.809604e+05   5.633932e+05
  -9.027164e+04   8.936554e+05
  -4.322998e+05   6.685245e+05
  -6.512171e+04   3.732591e+05
   3.556648e+05   3.045871e+05
   3.829970e+04   3.327599e+05
  -9.730937e+05   1.641661e+05
  -1.739650e+06  -3.141764e+05
  -1.365060e+06  -9.044889e+05
   3.289978e+04  -1.210172e+06
   1.351487e+06  -9.393050e+05
   1.564091e+06  -2.217321e+05
   7.166718e+05   4.057962e+05
  -2.194572e+05   4.671764e+05
  -4.307461e+05   3.372654e+04
  -9.536548e+03  -3.398184e+05
   3.945569e+05  -2.057252e+05
   4.017409e+05   3.024495e+05
   1.780253e+05   6.287698e+05
   5.001948e+04   4.117431e+05
   1.238227e+05  -9.496322e+04
   2.655174e+05  -2.639406e+05
   2.362538e+05   2.021053e+05
  -1.527415e+05   8.492533e+05
  -7.891273e+05   8.914220e+05
  -1.140710e+06   1.110274e+05
  -6.848547e+05  -7.978552e+05
   3.752604e+05  -9.462855e+05
   1.066078e+06  -2.444171e+05
   6.134882e+05   5.119638e+05
  -6.088376e+05   5.472567e+05
  -1.370796e+06  -1.015908e+05
  -8.757676e+05  -7.568485e+05
   4.144967e+05  -8.592463e+05
   1.303730e+06  -4.115508e+05
   1.075253e+06   1.738705e+05
   1.157074e+05   4.500077e+05
  -5.610139e+05   2.287684e+05
  -3.179773e+05  -2.523778e+05
   5.202717e+05  -4.263184e+05
   1.010323e+06   1.059607e+05
   5.359580e+05   1.031751e+06
  -5.571476e+05   1.441587e+06
  -1.298866e+06   7.196908e+05
  -1.063480e+06  -6.810149e+05
  -1.376305e+05  -1.547944e+06
   6.627146e+05  -1.108508e+06
   7.971111e+05   1.588839e+05
   3.596995e+05   1.033389e+06
  -1.944691e+05   8.392196e+05
  -4.817468e+05   6.804766e+04
  -4.034183e+05  -3.373308e+05
  -1.484430e+05  -1.263372e+05
  -3.996446e+04   8.501432e+04
  -2.208376e+05  -2.498674e+05
  -4.150483e+05  -8.369600e+05
  -1.561705e+05  -9.355949e+05
   6.082616e+05  -3.306279e+05
   1.262393e+06   4.283093e+05
   1.097219e+06   7.455286e+05
   1.478887e+05   6.023477e+05
  -7.511010e+05   3.427182e+05
  -8.542295e+05   1.416836e+05
  -3.027036e+05  -4.577074e+04
   1.326140e+05  -1.900825e+05
   2.515974e+04  -1.824742e+05
  -2.357563e+05  -9.330364e+04
  -3.715368e+04  -1.154819e+05
   5.835425e+05  -1.859458e+05
   8.987623e+05   3.088444e+04
   3.467704e+05   5.993189e+05
  -7.523723e+05   9.918513e+05
  -1.468395e+06   6.159850e+05
  -1.195278e+06  -3.983410e+05
  -2.091363e+05  -1.215545e+06
   6.808534e+05  -1.168255e+06
   9.111262e+05  -4.399696e+05
   5.604148e+05   2.155118e+05
   1.058352e+05   3.099094e+05
  -6.734366e+04   5.030890e+04
   6.872941e+04  -1.854033e+04
   2.561523e+05   3.200723e+05
   2.018958e+05   7.003016e+05
  -1.665403e+05   5.798404e+05
  -5.845747e+05  -1.195331e+05
  -6.163406e+05  -8.336180e+05
  -7.735765e+04  -8.873080e+05
   6.537089e+05  -1.957853e+05
   8.766102e+05   6.400470e+05
   2.799573e+05   9.417848e+05
  -6.238403e+05   5.683634e+05
  -9.586694e+05  -8.213358e+04
  -4.461697e+05  -5.312447e+05
   2.559141e+05  -5.750185e+05
   3.280945e+05  -3.107917e+05
  -2.162413e+05  -1.432494e+04
  -5.603861e+05   2.293366e+04
  -1.203559e+05  -2.661721e+05
   7.210848e+05  -5.718748e+05
   1.089800e+06  -4.490254e+05
   6.505122e+05   1.604398e+05
  -9.606780e+04   7.450891e+05
  -4.847602e+05   7.278910e+05
  -3.645595e+05   1.316245e+05
  -3.691721e+04  -4.138392e+05
   2.122616e+05  -3.692410e+05
   2.999780e+05   1.345036e+05
   2.097532e+05   5.005001e+05
  -5.133202e+04   3.643345e+05
  -3.352655e+05  -4.511444e+04
  -4.050568e+05  -2.463900e+05
  -2.078901e+05  -8.501667e+04
   2.697862e+04   1.272862e+05
   7.223119e+04   3.463542e+04
  -1.373967e+03  -3.043740e+05
   5.398857e+04  -4.682290e+05
   2.770166e+05  -1.789989e+05
   3.850346e+05   3.338676e+05
   1.221751e+05   5.580818e+05
  -3.561535e+05   2.635994e+05
  -5.660660e+05  -2.501610e+05
  -2.092865e+05  -4.972306e+05
   4.411799e+05  -3.076498e+05
   7.572016e+05   7.720417e+04
   4.066634e+05   3.313449e+05
  -2.575291e+05   3.393865e+05
  -5.518065e+05   1.865750e+05
  -2.146077e+05   1.299296e+04
   2.994248e+05  -5.202709e+04
   3.493196e+05   6.207751e+04
  -1.503119e+05   2.482337e+05
  -6.449577e+05   2.221717e+05
