
 $NMID
 id='ANONYMOUS ', fmtdat='(2E16.6)'
 volume=1.0
 tramp=1.0
 $END
  -5.174670e+07  -7.192713e+05
  -3.086581e+07  -3.161720e+07
   6.680544e+06  -3.455267e+07
   2.505002e+07  -1.389501e+07
   1.524278e+07   5.685953e+06
  -2.707762e+06   8.519324e+06
  -9.044183e+06  -6.114245e+05
  -2.975673e+06  -8.825377e+06
   5.349232e+06  -9.026561e+06
   8.881335e+06  -2.207682e+06
   6.581339e+06   5.848632e+06
   7.435747e+05   8.220895e+06
  -3.851984e+06   2.478156e+06
  -2.612000e+06  -5.416850e+06
   3.393319e+06  -6.443344e+06
   7.322967e+06   1.060926e+06
   4.225181e+06   9.466176e+06
  -3.455752e+06   1.098793e+07
  -9.408518e+06   5.394136e+06
  -9.951410e+06  -2.130787e+06
  -5.817869e+06  -7.045158e+06
  -3.368239e+05  -7.759175e+06
   2.555082e+06  -5.218082e+06
   1.136842e+06  -2.477176e+06
  -1.499169e+06  -2.476907e+06
  -1.330204e+05  -4.400432e+06
   5.576657e+06  -4.203444e+06
   9.484808e+06  -2.062814e+05
   6.622210e+06   4.149353e+06
  -1.317642e+05   4.841863e+06
  -3.935277e+06   2.249743e+06
  -2.432974e+06  -4.025411e+05
   9.768161e+05  -1.306523e+06
   2.737106e+06  -4.820017e+05
   2.293826e+06   1.790240e+06
   4.169367e+05   4.104218e+06
  -1.913101e+06   3.543578e+06
  -2.857702e+06  -4.460243e+05
  -1.251000e+06  -3.467277e+06
   8.396608e+05  -1.431784e+06
   1.857577e+05   2.726494e+06
  -2.413677e+06   2.353325e+06
  -2.354225e+06  -2.905679e+06
   2.033871e+06  -5.619358e+06
   6.111951e+06  -9.103252e+05
   4.569202e+06   6.317448e+06
  -1.724828e+06   7.757774e+06
  -6.889693e+06   2.178899e+06
  -6.684393e+06  -4.168850e+06
  -1.964601e+06  -5.755664e+06
   3.264731e+06  -2.756646e+06
   5.182094e+06   1.263471e+06
   2.534105e+06   3.236987e+06
  -2.145454e+06   2.118017e+06
  -4.249438e+06  -7.768581e+05
  -1.892717e+06  -2.481245e+06
   1.583893e+06  -1.285309e+06
   1.750124e+06   9.366706e+05
  -1.033109e+06   9.753138e+05
  -2.284453e+06  -1.326012e+06
   3.121984e+05  -2.920997e+06
   3.997847e+06  -1.759378e+06
   4.853508e+06   1.065573e+06
   2.214976e+06   3.596617e+06
  -1.798166e+06   5.010805e+06
  -5.008335e+06   4.631954e+06
  -6.042283e+06   1.546015e+06
  -4.283029e+06  -3.183745e+06
  -8.090661e+05  -5.991304e+06
   1.673338e+06  -4.652576e+06
   1.535598e+06  -1.391927e+06
   2.458969e+05  -6.129963e+04
   3.217238e+05  -1.122469e+06
   1.923000e+06  -1.658931e+06
   2.937123e+06   3.483012e+04
   1.985882e+06   2.201982e+06
  -1.330854e+05   2.316341e+06
  -1.765931e+06   2.039549e+05
  -1.799801e+06  -2.211826e+06
   4.104762e+04  -3.016566e+06
   2.823984e+06  -1.559303e+06
   4.348426e+06   1.323118e+06
   2.985012e+06   3.697155e+06
  -1.352909e+05   3.967657e+06
  -2.147480e+06   2.481381e+06
  -2.033901e+06   1.078437e+06
  -1.718069e+06   7.539035e+05
  -2.912317e+06   5.777527e+05
  -4.364755e+06  -6.808889e+05
  -3.542459e+06  -2.738376e+06
  -1.749432e+05  -4.184334e+06
   3.262542e+06  -3.986147e+06
   4.301126e+06  -2.118914e+06
   2.703017e+06   5.290176e+05
   1.799519e+05   2.334556e+06
  -1.212672e+06   1.940574e+06
  -5.706937e+05  -7.663329e+04
   1.139924e+06  -1.328050e+06
   1.915491e+06  -3.968000e+05
   8.867890e+05   1.214623e+06
  -5.588112e+05   1.151059e+06
  -5.071869e+05  -3.677176e+05
   9.500127e+05  -8.054285e+05
   1.845577e+06   1.046885e+06
   8.636385e+05   3.327288e+06
  -1.279935e+06   3.531568e+06
  -3.025464e+06   1.414115e+06
  -3.478879e+06  -1.251356e+06
  -2.519917e+06  -2.798369e+06
  -5.502379e+05  -2.737397e+06
   1.289806e+06  -1.522328e+06
   1.640643e+06  -2.226137e+05
   5.051556e+05   4.443160e+04
  -3.736883e+05  -7.644688e+05
   3.947352e+05  -1.341845e+06
   1.897334e+06  -5.895796e+05
   2.052402e+06   8.540306e+05
   4.198825e+05   1.406019e+06
  -1.180196e+06   6.048315e+05
  -9.513983e+05  -4.467717e+05
   8.233968e+05  -5.964059e+05
   2.271998e+06   2.223450e+05
   1.893568e+06   1.354651e+06
  -1.772011e+05   2.075741e+06
  -2.353241e+06   1.764335e+06
  -2.848177e+06   3.162735e+05
  -1.244945e+06  -1.267420e+06
   9.235829e+05  -1.503542e+06
   1.555622e+06  -1.847990e+05
   1.839219e+05   1.087809e+06
  -1.542887e+06   7.539415e+05
  -1.765463e+06  -7.691008e+05
  -3.937628e+05  -1.678539e+06
   1.072291e+06  -1.040287e+06
   1.292088e+06   2.616990e+05
   2.886893e+05   7.762120e+05
  -7.915736e+05   6.373378e+04
  -7.505277e+05  -1.071259e+06
   5.935349e+05  -1.459458e+06
   2.062907e+06  -5.558185e+05
   2.088639e+06   1.073647e+06
   4.041205e+05   2.119637e+06
  -1.452932e+06   1.689752e+06
  -1.760093e+06   2.393296e+05
  -5.342927e+05  -8.765620e+05
   6.600434e+05  -8.367884e+05
   6.723918e+05  -8.563043e+04
  -9.107762e+04   4.057038e+05
  -5.245939e+05   2.657524e+05
  -1.929021e+05  -6.152517e+04
   4.136553e+05   2.864808e+04
   5.434869e+05   6.364390e+05
  -1.744077e+05   1.203257e+06
  -1.398394e+06   9.332584e+05
  -2.136819e+06  -4.055236e+05
  -1.513075e+06  -1.983278e+06
   2.056024e+05  -2.495895e+06
   1.647600e+06  -1.491264e+06
   1.759894e+06   8.888473e+04
   9.374537e+05   9.316291e+05
   3.602978e+05   7.312590e+05
   4.662626e+05   2.722938e+05
   5.996498e+05   3.120843e+05
   8.541229e+04   7.575782e+05
  -8.781284e+05   9.347196e+05
  -1.487198e+06   3.675904e+05
  -1.115191e+06  -7.345513e+05
   2.181955e+05  -1.530444e+06
   1.758679e+06  -1.139217e+06
   2.324683e+06   4.707433e+05
   1.197432e+06   2.137482e+06
  -9.899975e+05   2.426286e+06
  -2.574787e+06   1.093264e+06
  -2.426739e+06  -6.229652e+05
  -1.038862e+06  -1.355224e+06
   1.688295e+05  -1.007623e+06
   4.161472e+05  -5.722196e+05
   1.299800e+05  -7.828993e+05
   1.320981e+05  -1.316953e+06
   6.773190e+05  -1.301061e+06
   1.312140e+06  -3.236525e+05
   1.374699e+06   1.106482e+06
   5.811186e+05   1.946406e+06
  -6.342151e+05   1.482507e+06
  -1.322918e+06   1.395288e+04
  -8.485147e+05  -1.295429e+06
   3.673754e+05  -1.427968e+06
   1.154868e+06  -4.469362e+05
   8.225451e+05   6.657627e+05
  -9.409472e+04   1.071843e+06
  -5.043174e+05   8.023967e+05
  -6.416508e+04   4.401136e+05
   4.423806e+05   3.527361e+05
   6.028566e+04   3.983045e+05
  -1.163538e+06   2.251655e+05
  -2.100513e+06  -3.241261e+05
  -1.664959e+06  -1.040636e+06
   9.693375e+03  -1.449976e+06
   1.598898e+06  -1.167348e+06
   1.865397e+06  -3.127372e+05
   8.605576e+05   4.676766e+05
  -2.555417e+05   5.681339e+05
  -5.134746e+05   4.893237e+04
  -1.966899e+04  -4.161705e+05
   4.650540e+05  -2.659316e+05
   4.940380e+05   3.497479e+05
   2.451644e+05   7.541792e+05
   8.170352e+04   4.994129e+05
   1.386858e+05  -1.144274e+05
   2.966656e+05  -3.264992e+05
   2.882465e+05   2.330282e+05
  -1.466491e+05   1.025727e+06
  -9.165802e+05   1.098474e+06
  -1.377973e+06   1.690640e+05
  -8.586031e+05  -9.419822e+05
   4.239780e+05  -1.155203e+06
   1.282860e+06  -3.325252e+05
   7.580948e+05   5.913090e+05
  -7.109260e+05   6.746668e+05
  -1.640113e+06  -7.310651e+04
  -1.065981e+06  -8.672466e+05
   4.663242e+05  -1.031433e+06
   1.535243e+06  -5.327273e+05
   1.283314e+06   1.675265e+05
   1.533099e+05   5.295653e+05
  -6.614762e+05   2.902495e+05
  -3.901970e+05  -2.961181e+05
   6.094468e+05  -5.375801e+05
   1.222863e+06   8.602750e+04
   6.901166e+05   1.223253e+06
  -6.116655e+05   1.761551e+06
  -1.534184e+06   9.199977e+05
  -1.304424e+06  -7.757661e+05
  -2.250504e+05  -1.851335e+06
   7.493628e+05  -1.350442e+06
   9.552698e+05   1.638969e+05
   4.642452e+05   1.221037e+06
  -2.039360e+05   1.003240e+06
  -5.738885e+05   9.486065e+04
  -4.932274e+05  -3.834005e+05
  -1.798583e+05  -1.387601e+05
  -4.483829e+04   9.977165e+04
  -2.769564e+05  -3.029352e+05
  -5.296420e+05  -9.928780e+05
  -2.175439e+05  -1.108244e+06
   7.224840e+05  -4.100565e+05
   1.529104e+06   4.654687e+05
   1.338083e+06   8.467880e+05
   1.976369e+05   7.172088e+05
  -8.840532e+05   4.452370e+05
  -1.015267e+06   2.020289e+05
  -3.652976e+05  -5.133653e+04
   1.507928e+05  -2.357221e+05
   2.561621e+04  -2.102154e+05
  -2.842820e+05  -9.261445e+04
  -5.172670e+04  -1.395979e+05
   6.896552e+05  -2.550743e+05
   1.082861e+06   2.429229e+03
   4.462938e+05   7.179947e+05
  -8.645975e+05   1.229362e+06
  -1.748975e+06   7.941116e+05
  -1.461393e+06  -4.388508e+05
  -3.004061e+05  -1.453232e+06
   7.774264e+05  -1.428176e+06
   1.082313e+06  -5.664257e+05
   6.841131e+05   2.332248e+05
   1.412227e+05   3.712825e+05
  -7.805251e+04   7.266900e+04
   7.885672e+04  -1.850704e+04
   3.146497e+05   3.730623e+05
   2.663778e+05   8.303443e+05
  -1.784177e+05   7.052751e+05
  -7.101504e+05  -1.160552e+05
  -7.798691e+05  -9.781033e+05
  -1.320941e+05  -1.071080e+06
   7.809100e+05  -2.696212e+05
   1.085140e+06   7.325966e+05
   3.752516e+05   1.125317e+06
  -7.318745e+05   7.115567e+05
  -1.159273e+06  -6.407503e+04
  -5.545438e+05  -6.288850e+05
   2.921604e+05  -7.049752e+05
   3.883706e+05  -3.813335e+05
  -2.575338e+05  -9.069791e+02
  -6.718029e+05   5.123320e+04
  -1.551930e+05  -3.182511e+05
   8.435196e+05  -7.134006e+05
   1.291573e+06  -5.713594e+05
   7.875858e+05   1.782904e+05
  -8.918301e+04   9.011418e+05
  -5.616858e+05   8.892763e+05
  -4.424697e+05   1.694350e+05
  -6.531056e+04  -4.968383e+05
   2.433340e+05  -4.555196e+05
   3.706553e+05   1.452506e+05
   2.719089e+05   5.939321e+05
  -5.165544e+04   4.453053e+05
  -4.071049e+05  -3.966739e+04
  -4.936657e+05  -2.857592e+05
  -2.495117e+05  -9.717926e+04
   3.521874e+04   1.583126e+05
   7.911165e+04   4.645385e+04
  -2.324942e+04  -3.703651e+05
   4.405619e+04  -5.806419e+05
   3.332593e+05  -2.375687e+05
   4.881094e+05   3.883446e+05
   1.771681e+05   6.750128e+05
  -4.182440e+05   3.354238e+05
  -6.964713e+05  -2.796068e+05
  -2.750802e+05  -5.904004e+05
   5.205392e+05  -3.854506e+05
   9.179998e+05   6.509584e+04
   5.027789e+05   3.841442e+05
  -3.006947e+05   4.211177e+05
  -6.623389e+05   2.480181e+05
  -2.619343e+05   2.011164e+04
   3.572073e+05  -8.393412e+04
   4.264027e+05   5.357650e+04
  -1.631388e+05   3.059669e+05
  -7.597818e+05   3.001308e+05
