
 $NMID
 id='ANONYMOUS ', fmtdat='(2E16.6)'
 volume=1.0
 tramp=1.0
 $END
  -4.984151e+07   1.178461e+06
  -3.109541e+07  -2.963827e+07
   5.243621e+06  -3.383394e+07
   2.402226e+07  -1.421623e+07
   1.515162e+07   5.268934e+06
  -2.425052e+06   8.454865e+06
  -8.934495e+06  -4.567306e+05
  -3.086880e+06  -8.626776e+06
   5.136092e+06  -8.886480e+06
   8.639915e+06  -2.305350e+06
   6.457511e+06   5.452160e+06
   8.801378e+05   7.830949e+06
  -3.575645e+06   2.472814e+06
  -2.502474e+06  -5.094965e+06
   3.238458e+06  -6.236315e+06
   7.147353e+06   8.710345e+05
   4.318571e+06   9.042761e+06
  -3.045510e+06   1.070247e+07
  -8.879626e+06   5.488841e+06
  -9.605996e+06  -1.673577e+06
  -5.878787e+06  -6.487068e+06
  -7.297561e+05  -7.448947e+06
   2.222026e+06  -5.273827e+06
   1.188971e+06  -2.624815e+06
  -1.219121e+06  -2.362673e+06
  -1.110848e+05  -4.049072e+06
   5.129721e+06  -3.990252e+06
   8.900566e+06  -3.771979e+05
   6.374920e+06   3.741474e+06
   7.483859e+04   4.507269e+06
  -3.539145e+06   2.163382e+06
  -2.178761e+06  -2.393510e+05
   9.258831e+05  -1.022951e+06
   2.451325e+06  -3.313121e+05
   2.036810e+06   1.608539e+06
   4.383149e+05   3.736383e+06
  -1.659403e+06   3.402909e+06
  -2.694308e+06  -1.964944e+05
  -1.375227e+06  -3.167120e+06
   6.154630e+05  -1.468769e+06
   1.500326e+05   2.449248e+06
  -2.291775e+06   2.233721e+06
  -2.350017e+06  -2.777397e+06
   1.837571e+06  -5.570365e+06
   5.953939e+06  -1.175081e+06
   4.677272e+06   5.931108e+06
  -1.401717e+06   7.591387e+06
  -6.559544e+06   2.319820e+06
  -6.486060e+06  -3.892220e+06
  -1.937096e+06  -5.531376e+06
   3.136368e+06  -2.671844e+06
   4.998855e+06   1.211124e+06
   2.457545e+06   3.141777e+06
  -2.060641e+06   2.114560e+06
  -4.133182e+06  -6.640354e+05
  -1.888601e+06  -2.377307e+06
   1.496991e+06  -1.284994e+06
   1.682136e+06   9.013965e+05
  -1.063004e+06   9.994651e+05
  -2.344709e+06  -1.292658e+06
   1.999135e+05  -2.987664e+06
   3.885641e+06  -1.911739e+06
   4.793267e+06   9.190401e+05
   2.253086e+06   3.451505e+06
  -1.593686e+06   4.808248e+06
  -4.637335e+06   4.455834e+06
  -5.673472e+06   1.592379e+06
  -4.131839e+06  -2.882788e+06
  -8.888872e+05  -5.657403e+06
   1.566741e+06  -4.490664e+06
   1.554105e+06  -1.348331e+06
   3.065987e+05   4.766797e+04
   2.484585e+05  -9.170165e+05
   1.681016e+06  -1.515191e+06
   2.657011e+06  -2.103202e+04
   1.818747e+06   1.981456e+06
  -1.194777e+05   2.095041e+06
  -1.609756e+06   1.408445e+05
  -1.642163e+06  -2.078046e+06
   3.100309e+04  -2.814852e+06
   2.612436e+06  -1.499597e+06
   4.107632e+06   1.148370e+06
   2.924762e+06   3.416484e+06
   3.559789e+03   3.786872e+06
  -1.974008e+06   2.459776e+06
  -1.948993e+06   1.108880e+06
  -1.671123e+06   7.405875e+05
  -2.787496e+06   5.491016e+05
  -4.152128e+06  -6.400089e+05
  -3.362696e+06  -2.589672e+06
  -1.657897e+05  -3.954926e+06
   3.068479e+06  -3.753639e+06
   4.017474e+06  -1.997087e+06
   2.514265e+06   4.648637e+05
   1.831552e+05   2.149701e+06
  -1.103246e+06   1.808363e+06
  -5.256215e+05  -5.873843e+04
   1.059642e+06  -1.244225e+06
   1.806497e+06  -3.887810e+05
   8.557207e+05   1.128502e+06
  -5.195722e+05   1.070633e+06
  -4.679161e+05  -3.751796e+05
   9.598979e+05  -7.768276e+05
   1.834992e+06   1.040200e+06
   8.330011e+05   3.256968e+06
  -1.310453e+06   3.418759e+06
  -2.982350e+06   1.313844e+06
  -3.317263e+06  -1.267562e+06
  -2.325672e+06  -2.698613e+06
  -4.735738e+05  -2.582939e+06
   1.214050e+06  -1.419620e+06
   1.532244e+06  -2.057050e+05
   4.759586e+05   4.219373e+04
  -3.521542e+05  -7.227341e+05
   3.681033e+05  -1.281426e+06
   1.799910e+06  -5.759518e+05
   1.959124e+06   8.075933e+05
   4.039830e+05   1.344227e+06
  -1.122532e+06   5.711009e+05
  -8.899601e+05  -4.392236e+05
   8.100818e+05  -5.582116e+05
   2.162417e+06   2.526520e+05
   1.762243e+06   1.320279e+06
  -2.081763e+05   1.962442e+06
  -2.240211e+06   1.644796e+06
  -2.690193e+06   2.870329e+05
  -1.183549e+06  -1.199590e+06
   8.608157e+05  -1.433044e+06
   1.473570e+06  -1.934305e+05
   1.879888e+05   1.021778e+06
  -1.454188e+06   7.156573e+05
  -1.672257e+06  -7.335726e+05
  -3.623707e+05  -1.601060e+06
   1.037054e+06  -9.841411e+05
   1.235867e+06   2.650109e+05
   2.693555e+05   7.514296e+05
  -7.557881e+05   6.716373e+04
  -7.122776e+05  -1.008475e+06
   5.553478e+05  -1.373381e+06
   1.938865e+06  -5.245485e+05
   1.967648e+06   1.008958e+06
   3.824886e+05   2.000629e+06
  -1.375000e+06   1.599049e+06
  -1.668331e+06   2.231915e+05
  -5.026915e+05  -8.361144e+05
   6.300446e+05  -7.895698e+05
   6.275009e+05  -7.086867e+04
  -1.085996e+05   3.806562e+05
  -5.051117e+05   2.256011e+05
  -1.608189e+05  -8.381624e+04
   4.230285e+05   2.707886e+04
   5.268563e+05   6.210038e+05
  -1.707141e+05   1.151035e+06
  -1.327167e+06   8.816606e+05
  -2.017711e+06  -3.863935e+05
  -1.426350e+06  -1.871677e+06
   2.006703e+05  -2.350400e+06
   1.567032e+06  -1.393756e+06
   1.661515e+06   1.053566e+05
   8.589014e+05   8.923556e+05
   3.053411e+05   6.788297e+05
   4.299142e+05   2.312136e+05
   5.827810e+05   2.805946e+05
   9.332833e+04   7.190819e+05
  -8.365132e+05   8.843109e+05
  -1.411180e+06   3.346218e+05
  -1.038942e+06  -7.065348e+05
   2.294226e+05  -1.442764e+06
   1.670660e+06  -1.062758e+06
   2.190430e+06   4.561781e+05
   1.122956e+06   2.028388e+06
  -9.447840e+05   2.300897e+06
  -2.446082e+06   1.031247e+06
  -2.298207e+06  -6.078944e+05
  -9.649634e+05  -1.301717e+06
   1.865500e+05  -9.505633e+05
   4.028100e+05  -5.154154e+05
   1.074886e+05  -7.148909e+05
   1.046429e+05  -1.237936e+06
   6.315589e+05  -1.235995e+06
   1.237999e+06  -3.128722e+05
   1.294422e+06   1.040364e+06
   5.447805e+05   1.832610e+06
  -5.987332e+05   1.393818e+06
  -1.248948e+06   7.528236e+03
  -8.022233e+05  -1.230849e+06
   3.542474e+05  -1.357646e+06
   1.111049e+06  -4.246986e+05
   7.964817e+05   6.397756e+05
  -8.719895e+04   1.031880e+06
  -4.902331e+05   7.725495e+05
  -7.320389e+04   4.177893e+05
   4.143734e+05   3.271647e+05
   5.589059e+04   3.722131e+05
  -1.103335e+06   2.154991e+05
  -1.988555e+06  -3.019574e+05
  -1.574082e+06  -9.870854e+05
   9.538004e+03  -1.383184e+06
   1.512860e+06  -1.113521e+06
   1.769839e+06  -2.916964e+05
   8.231138e+05   4.555400e+05
  -2.381420e+05   5.454619e+05
  -4.927893e+05   4.572465e+04
  -3.005508e+04  -3.930075e+05
   4.327476e+05  -2.466573e+05
   4.657844e+05   3.280914e+05
   2.335066e+05   6.974296e+05
   8.191333e+04   4.593602e+05
   1.380073e+05  -1.016317e+05
   2.846764e+05  -2.924562e+05
   2.712936e+05   2.231398e+05
  -1.403156e+05   9.582751e+05
  -8.634754e+05   1.035394e+06
  -1.298906e+06   1.751893e+05
  -8.150610e+05  -8.749357e+05
   3.903200e+05  -1.094015e+06
   1.202448e+06  -3.258224e+05
   7.105758e+05   5.540153e+05
  -6.749289e+05   6.360225e+05
  -1.548385e+06  -8.069945e+04
  -9.965222e+05  -8.361786e+05
   4.576318e+05  -9.764272e+05
   1.461735e+06  -4.859802e+05
   1.210823e+06   1.760171e+05
   1.369707e+05   5.034909e+05
  -6.300400e+05   2.700947e+05
  -3.728241e+05  -2.780878e+05
   5.658998e+05  -5.030954e+05
   1.143184e+06   7.668581e+04
   6.495630e+05   1.139420e+06
  -5.665853e+05   1.647365e+06
  -1.433868e+06   8.621655e+05
  -1.222033e+06  -7.290149e+05
  -2.064063e+05  -1.739150e+06
   7.140762e+05  -1.265097e+06
   9.044897e+05   1.630264e+05
   4.303018e+05   1.158372e+06
  -2.058727e+05   9.498772e+05
  -5.462486e+05   8.821923e+04
  -4.571022e+05  -3.680907e+05
  -1.614496e+05  -1.373519e+05
  -4.674751e+04   9.528148e+04
  -2.723116e+05  -2.776697e+05
  -5.009573e+05  -9.325501e+05
  -1.943170e+05  -1.051674e+06
   6.892632e+05  -3.939751e+05
   1.436151e+06   4.429414e+05
   1.251254e+06   8.089124e+05
   1.855141e+05   6.775357e+05
  -8.268023e+05   4.094907e+05
  -9.567350e+05   1.828705e+05
  -3.524341e+05  -4.533841e+04
   1.395340e+05  -2.187928e+05
   3.500352e+04  -2.041598e+05
  -2.555806e+05  -9.435888e+04
  -5.015438e+04  -1.271001e+05
   6.384148e+05  -2.302934e+05
   1.015741e+06   7.831252e+02
   4.292545e+05   6.619367e+05
  -8.025038e+05   1.148628e+06
  -1.641850e+06   7.554687e+05
  -1.375023e+06  -3.984476e+05
  -2.812419e+05  -1.361259e+06
   7.308124e+05  -1.346146e+06
   1.011300e+06  -5.354598e+05
   6.362389e+05   2.180596e+05
   1.350853e+05   3.449421e+05
  -6.229151e+04   6.322147e+04
   8.285243e+04  -1.636442e+04
   2.954375e+05   3.575119e+05
   2.469493e+05   7.847562e+05
  -1.650983e+05   6.618653e+05
  -6.593409e+05  -1.076610e+05
  -7.288805e+05  -9.099791e+05
  -1.307879e+05  -9.963970e+05
   7.210621e+05  -2.524978e+05
   1.012132e+06   6.807853e+05
   3.559707e+05   1.051617e+06
  -6.801969e+05   6.706887e+05
  -1.089238e+06  -5.478038e+04
  -5.302748e+05  -5.899043e+05
   2.668851e+05  -6.680536e+05
   3.679658e+05  -3.669456e+05
  -2.333881e+05  -7.536888e+03
  -6.284281e+05   4.617856e+04
  -1.490430e+05  -2.971817e+05
   7.943098e+05  -6.688029e+05
   1.224946e+06  -5.390651e+05
   7.518207e+05   1.637527e+05
  -8.060822e+04   8.478610e+05
  -5.295011e+05   8.446873e+05
  -4.148640e+05   1.712272e+05
  -6.024728e+04  -4.600443e+05
   2.232470e+05  -4.289787e+05
   3.401222e+05   1.324792e+05
   2.554576e+05   5.566829e+05
  -4.049413e+04   4.204940e+05
  -3.791722e+05  -3.510593e+04
  -4.705603e+05  -2.693444e+05
  -2.391899e+05  -9.432946e+04
   4.142884e+04   1.485441e+05
   8.690855e+04   5.126587e+04
  -2.322117e+04  -3.340620e+05
   2.383591e+04  -5.352791e+05
   2.959656e+05  -2.267260e+05
   4.552854e+05   3.490013e+05
   1.732556e+05   6.194934e+05
  -3.866728e+05   3.131977e+05
  -6.519332e+05  -2.545453e+05
  -2.573408e+05  -5.486495e+05
   4.893196e+05  -3.647727e+05
   8.613718e+05   5.478154e+04
   4.731915e+05   3.585266e+05
  -2.766921e+05   3.989022e+05
  -6.161594e+05   2.391268e+05
  -2.484808e+05   2.569227e+04
   3.238585e+05  -7.392071e+04
   3.895190e+05   4.849269e+04
  -1.542349e+05   2.769639e+05
  -7.061269e+05   2.701217e+05
