
 $NMID
 id='ANONYMOUS ', fmtdat='(2E16.6)'
 volume=1.0
 tramp=1.0
 $END
  -3.163042e+07   2.463806e+06
  -2.123915e+07  -1.683134e+07
   1.324820e+06  -2.144369e+07
   1.445144e+07  -1.090793e+07
   1.031298e+07   1.781293e+06
  -7.198560e+05   5.586595e+06
  -5.903966e+06   7.523345e+05
  -2.946940e+06  -5.312616e+06
   2.561919e+06  -6.562504e+06
   5.540653e+06  -2.339843e+06
   4.554697e+06   3.382964e+06
   8.671527e+05   5.340389e+06
  -2.367123e+06   1.673512e+06
  -1.970332e+06  -3.661043e+06
   1.799519e+06  -4.661247e+06
   4.769657e+06   3.268297e+04
   3.354313e+06   5.718377e+06
  -1.443903e+06   7.181205e+06
  -5.553853e+06   3.880295e+06
  -6.189925e+06  -8.870300e+05
  -3.732584e+06  -3.978702e+06
  -5.470016e+05  -4.434329e+06
   9.260711e+05  -3.130920e+06
  -9.742893e+03  -1.906136e+06
  -1.297786e+06  -2.152472e+06
   5.937139e+03  -3.193608e+06
   3.823101e+06  -2.817847e+06
   6.293252e+06  -2.298330e+05
   4.339550e+06   2.519795e+06
  -1.842267e+05   2.996261e+06
  -2.706522e+06   1.292279e+06
  -1.468375e+06  -5.554108e+05
   1.140197e+06  -1.081361e+06
   2.286326e+06  -1.830665e+05
   1.559160e+06   1.551014e+06
   7.087684e+04   2.870827e+06
  -1.192989e+06   2.191687e+06
  -1.513988e+06  -3.595295e+05
  -6.411516e+05  -2.012824e+06
   3.682785e+05  -5.545737e+05
  -6.194704e+04   2.049525e+06
  -1.596329e+06   1.762650e+06
  -1.771998e+06  -1.657656e+06
   6.689502e+05  -3.691735e+06
   3.436162e+06  -1.100236e+06
   3.150213e+06   3.467899e+06
  -4.600584e+05   4.843636e+06
  -4.140584e+06   1.743152e+06
  -4.652121e+06  -2.336316e+06
  -1.757687e+06  -3.753088e+06
   2.022197e+06  -2.146673e+06
   3.688229e+06   4.601467e+05
   2.069147e+06   2.008669e+06
  -1.150041e+06   1.596457e+06
  -2.799665e+06  -1.554267e+05
  -1.453613e+06  -1.433912e+06
   9.021932e+05  -9.298834e+05
   1.295635e+06   5.231788e+05
  -4.571642e+05   8.908950e+05
  -1.651018e+06  -3.897156e+05
  -3.732815e+05  -1.719226e+06
   2.108287e+06  -1.495819e+06
   3.141506e+06   1.464529e+05
   1.722290e+06   2.057096e+06
  -9.905146e+05   3.307803e+06
  -3.252098e+06   3.167698e+06
  -3.925200e+06   1.134280e+06
  -2.787496e+06  -1.975291e+06
  -6.961177e+05  -3.915199e+06
   8.103430e+05  -3.261323e+06
   9.084877e+05  -1.264032e+06
   3.883753e+05  -2.832881e+05
   5.617378e+05  -7.453802e+05
   1.496149e+06  -9.401635e+05
   2.009196e+06   2.329522e+05
   1.276580e+06   1.676317e+06
  -2.355769e+05   1.678968e+06
  -1.394580e+06   9.879683e+04
  -1.354125e+06  -1.642344e+06
   1.115205e+04  -2.134248e+06
   1.909919e+06  -1.052898e+06
   2.876735e+06   8.463813e+05
   1.993437e+06   2.308815e+06
   5.309351e+04   2.476610e+06
  -1.194402e+06   1.629453e+06
  -1.175041e+06   8.419190e+05
  -1.094995e+06   6.853586e+05
  -2.007602e+06   5.871140e+05
  -3.078727e+06  -2.712186e+05
  -2.588830e+06  -1.777103e+06
  -2.675293e+05  -2.945302e+06
   2.206545e+06  -2.895850e+06
   3.003478e+06  -1.534196e+06
   1.867600e+06   3.933105e+05
   6.812799e+04   1.642304e+06
  -8.734657e+05   1.328657e+06
  -3.832531e+05  -7.054907e+04
   7.912456e+05  -9.422767e+05
   1.307589e+06  -3.342779e+05
   6.156555e+05   7.945160e+05
  -3.963695e+05   8.258170e+05
  -4.429513e+05  -2.480247e+05
   5.662959e+05  -7.383697e+05
   1.403512e+06   4.295787e+05
   9.796102e+05   2.214643e+06
  -5.322791e+05   2.730445e+06
  -2.071131e+06   1.405760e+06
  -2.684393e+06  -6.487323e+05
  -2.035023e+06  -1.992793e+06
  -4.984019e+05  -2.026024e+06
   9.078124e+05  -1.117842e+06
   1.173875e+06  -1.731972e+05
   3.606782e+05   1.763473e+04
  -2.918943e+05  -5.272880e+05
   2.012559e+05  -9.404766e+05
   1.268552e+06  -4.890115e+05
   1.469372e+06   4.817358e+05
   3.820528e+05   9.501189e+05
  -8.042387e+05   4.870265e+05
  -7.307271e+05  -2.895570e+05
   5.527890e+05  -5.234470e+05
   1.699173e+06   2.008898e+04
   1.491034e+06   9.317157e+05
  -2.868895e+04   1.565389e+06
  -1.643854e+06   1.377106e+06
  -2.029229e+06   3.251206e+05
  -9.249581e+05  -8.340403e+05
   5.766660e+05  -1.059438e+06
   1.046038e+06  -1.839226e+05
   1.469780e+05   7.304559e+05
  -1.055883e+06   5.754551e+05
  -1.286810e+06  -4.672746e+05
  -3.786713e+05  -1.185502e+06
   7.027882e+05  -8.287778e+05
   9.545496e+05   9.157282e+04
   2.780775e+05   5.331698e+05
  -5.308161e+05   8.665023e+04
  -5.522348e+05  -7.221822e+05
   3.857954e+05  -1.036467e+06
   1.442455e+06  -4.359157e+05
   1.499453e+06   7.040481e+05
   3.518083e+05   1.481845e+06
  -9.610192e+05   1.246750e+06
  -1.239985e+06   2.446600e+05
  -4.302480e+05  -6.003748e+05
   4.334333e+05  -6.303236e+05
   4.994602e+05  -7.393274e+04
  -4.178370e+04   3.408467e+05
  -4.128804e+05   2.410100e+05
  -2.090130e+05  -7.108030e+04
   2.742139e+05  -6.652554e+04
   4.413851e+05   3.899386e+05
  -4.837427e+04   8.600756e+05
  -9.532338e+05   7.174755e+05
  -1.529069e+06  -2.169173e+05
  -1.129975e+06  -1.358464e+06
   7.651476e+04  -1.789105e+06
   1.143321e+06  -1.142471e+06
   1.297900e+06  -5.946235e+03
   7.393360e+05   6.841616e+05
   2.721412e+05   5.965896e+05
   2.826218e+05   2.191537e+05
   3.885507e+05   1.719176e+05
   8.301444e+04   5.007583e+05
  -5.845098e+05   7.030698e+05
  -1.064527e+06   3.273419e+05
  -8.480993e+05  -5.114858e+05
   9.929945e+04  -1.144063e+06
   1.230945e+06  -8.895989e+05
   1.686116e+06   2.635339e+05
   9.416396e+05   1.482388e+06
  -5.915353e+05   1.761239e+06
  -1.775914e+06   8.900858e+05
  -1.776210e+06  -3.334307e+05
  -8.399067e+05  -9.475876e+05
   7.180655e+04  -7.817877e+05
   3.285835e+05  -4.563409e+05
   1.342485e+05  -5.363621e+05
   7.713046e+04  -8.906488e+05
   4.240910e+05  -9.171922e+05
   8.996698e+05  -2.636596e+05
   9.979141e+05   7.487389e+05
   4.627320e+05   1.368334e+06
  -4.143602e+05   1.070745e+06
  -9.466853e+05   5.578073e+04
  -6.577539e+05  -8.797827e+05
   1.869415e+05  -1.031333e+06
   7.811738e+05  -3.994009e+05
   6.150855e+05   3.898077e+05
   1.331834e+04   7.427662e+05
  -2.857802e+05   6.056961e+05
  -1.731778e+04   3.415165e+05
   3.115722e+05   2.479353e+05
   4.577775e+04   2.849149e+05
  -8.050890e+05   2.040888e+05
  -1.479987e+06  -1.541265e+05
  -1.217399e+06  -6.744688e+05
  -7.283556e+04  -1.014697e+06
   1.062747e+06  -8.744344e+05
   1.310082e+06  -3.030719e+05
   6.485554e+05   2.680351e+05
  -1.434945e+05   3.957014e+05
  -3.569925e+05   6.962323e+04
  -1.860060e+04  -2.669391e+05
   3.362119e+05  -1.908084e+05
   3.559284e+05   2.352679e+05
   1.605165e+05   5.310760e+05
   4.135427e+04   3.475057e+05
   1.053272e+05  -1.059016e+05
   2.334408e+05  -2.604486e+05
   2.171894e+05   1.563849e+05
  -9.605709e+04   7.398572e+05
  -6.186290e+05   7.994485e+05
  -9.314986e+05   1.455531e+05
  -5.977949e+05  -6.380174e+05
   2.625790e+05  -8.027423e+05
   8.738214e+05  -2.455769e+05
   5.475345e+05   4.095780e+05
  -4.811823e+05   5.084728e+05
  -1.189141e+06   7.137908e+03
  -8.280671e+05  -5.913727e+05
   2.796074e+05  -7.827253e+05
   1.099926e+06  -4.648142e+05
   9.544013e+05   6.797975e+04
   1.385494e+05   3.852102e+05
  -4.632111e+05   2.416757e+05
  -2.780322e+05  -1.868935e+05
   4.304063e+05  -3.788812e+05
   8.630709e+05   5.250872e+04
   4.902630e+05   8.577610e+05
  -4.219951e+05   1.248684e+06
  -1.080748e+06   6.678741e+05
  -9.446096e+05  -5.324057e+05
  -2.002603e+05  -1.321665e+06
   5.062270e+05  -9.999259e+05
   6.975997e+05   7.414761e+04
   3.845558e+05   8.628567e+05
  -9.685950e+04   7.441106e+05
  -4.019532e+05   9.600423e+04
  -3.805035e+05  -2.711944e+05
  -1.522128e+05  -1.073347e+05
  -2.274452e+04   8.179860e+04
  -1.775005e+05  -1.853822e+05
  -3.931077e+05  -6.858218e+05
  -2.091951e+05  -7.983554e+05
   4.760819e+05  -3.244054e+05
   1.108348e+06   2.963160e+05
   1.002572e+06   5.783717e+05
   1.634137e+05   5.028285e+05
  -6.421905e+05   3.311404e+05
  -7.307943e+05   1.755716e+05
  -2.468291e+05  -9.360454e+03
   1.099855e+05  -1.674639e+05
  -9.558279e+03  -1.712247e+05
  -2.287636e+05  -8.203551e+04
  -2.843263e+04  -9.684165e+04
   5.130777e+05  -1.787140e+05
   7.657304e+05  -1.529698e+04
   2.941130e+05   4.857458e+05
  -6.106152e+05   8.712523e+05
  -1.203712e+06   5.891094e+05
  -1.011666e+06  -2.870864e+05
  -2.334793e+05  -1.030520e+06
   5.123655e+05  -1.026736e+06
   7.525437e+05  -4.078804e+05
   4.918318e+05   1.678436e+05
   9.655074e+04   2.573259e+05
  -7.368624e+04   3.038392e+04
   5.176820e+04  -3.615752e+04
   2.473831e+05   2.536824e+05
   2.191751e+05   5.879519e+05
  -1.155198e+05   4.983683e+05
  -5.082595e+05  -8.732448e+04
  -5.547531e+05  -6.933502e+05
  -8.744395e+04  -7.485739e+05
   5.596142e+05  -1.780079e+05
   7.725015e+05   5.207090e+05
   2.732365e+05   7.869769e+05
  -5.052202e+05   5.005517e+05
  -8.108946e+05  -2.584867e+04
  -3.970536e+05  -4.136257e+05
   1.849858e+05  -4.836657e+05
   2.447522e+05  -2.793124e+05
  -2.050870e+05  -1.106100e+04
  -4.823158e+05   4.462908e+04
  -1.098372e+05  -2.164383e+05
   5.862612e+05  -5.286919e+05
   8.913126e+05  -4.572811e+05
   5.451561e+05   8.511697e+04
  -4.433913e+04   6.329452e+05
  -3.575409e+05   6.400914e+05
  -2.826979e+05   1.184350e+05
  -4.115990e+04  -3.588364e+05
   1.650532e+05  -3.146737e+05
   2.623962e+05   1.177847e+05
   2.017894e+05   4.169707e+05
  -2.842323e+04   2.964707e+05
  -2.869634e+05  -2.924960e+04
  -3.533614e+05  -1.760988e+05
  -1.828415e+05  -5.046915e+04
   2.172921e+04   9.191367e+04
   6.610562e+04  -3.962106e+03
   9.916189e+03  -2.690755e+05
   5.639910e+04  -3.787397e+05
   2.357126e+05  -1.322336e+05
   3.190965e+05   2.849661e+05
   9.962866e+04   4.699271e+05
  -2.991856e+05   2.329651e+05
  -4.822621e+05  -1.960120e+05
  -1.934974e+05  -4.203537e+05
   3.551853e+05  -2.826885e+05
   6.383690e+05   3.486158e+04
   3.583173e+05   2.621529e+05
  -2.012474e+05   2.888426e+05
  -4.549351e+05   1.706523e+05
  -1.678147e+05   2.038080e+04
   2.718110e+05  -4.267809e+04
   3.073647e+05   5.683969e+04
  -1.336082e+05   2.302853e+05
  -5.666931e+05   2.187593e+05
