
 $NMID
 id='ANONYMOUS ', fmtdat='(2E16.6)'
 volume=1.0
 tramp=1.0
 $END
   3.123553e+07  -1.024844e+06
   2.053330e+07   1.575856e+07
  -9.573262e+05   2.027494e+07
  -1.372745e+07   1.166496e+07
  -1.043151e+07  -2.761725e+05
   8.827910e+04  -5.431746e+06
   5.924449e+06  -1.730191e+06
   3.749721e+06   5.009302e+06
  -1.909029e+06   7.403112e+06
  -5.547273e+06   3.035262e+06
  -4.778654e+06  -3.673622e+06
  -7.878416e+05  -5.903770e+06
   2.714448e+06  -1.523014e+06
   2.287711e+06   4.494826e+06
  -1.692572e+06   5.473072e+06
  -4.907843e+06   2.943227e+05
  -3.595270e+06  -5.835713e+06
   1.387405e+06  -7.383555e+06
   5.712924e+06  -3.752955e+06
   6.119223e+06   1.366818e+06
   3.128795e+06   4.235899e+06
  -5.545705e+04   3.973349e+06
  -6.514947e+05   2.396366e+06
   1.151991e+06   1.909189e+06
   2.221927e+06   3.147194e+06
  -2.506874e+05   4.283729e+06
  -5.029997e+06   3.066635e+06
  -7.424191e+06  -3.421836e+05
  -4.543358e+06  -3.241270e+06
   9.578025e+05  -3.319049e+06
   3.727343e+06  -9.902521e+05
   1.739744e+06   1.409992e+06
  -2.003274e+06   1.921030e+06
  -3.536711e+06   1.894047e+05
  -2.038381e+06  -2.488250e+06
   4.206922e+05  -3.777545e+06
   1.689654e+06  -2.131241e+06
   1.230573e+06   1.056082e+06
  -3.091483e+04   2.221631e+06
  -5.967650e+05  -1.302725e+05
   3.555914e+05  -2.945661e+06
   1.895431e+06  -2.195311e+06
   1.949416e+06   1.594023e+06
  -2.855891e+05   3.634965e+06
  -2.865410e+06   1.055740e+06
  -2.854108e+06  -3.343184e+06
   3.916455e+05  -4.650855e+06
   4.228905e+06  -1.635916e+06
   5.185348e+06   2.491289e+06
   2.251451e+06   4.145483e+06
  -2.158378e+06   2.630982e+06
  -4.336212e+06  -2.085792e+05
  -2.625678e+06  -2.063431e+06
   1.014343e+06  -1.763271e+06
   2.946717e+06   3.558679e+04
   1.616609e+06   1.393741e+06
  -9.181538e+05   9.639665e+05
  -1.570293e+06  -5.188722e+05
   1.163152e+05  -1.142946e+06
   1.660682e+06  -1.586770e+05
   8.609253e+05   1.251410e+06
  -1.598331e+06   1.509972e+06
  -3.074883e+06   2.003512e+05
  -1.866525e+06  -1.926043e+06
   1.259481e+06  -3.591953e+06
   4.006708e+06  -3.454826e+06
   4.552378e+06  -9.818163e+05
   2.871359e+06   2.505905e+06
   5.442422e+05   4.479057e+06
  -7.459459e+05   3.731418e+06
  -7.353333e+05   1.763753e+06
  -5.670153e+05   8.438834e+05
  -1.238229e+06   1.157614e+06
  -2.357102e+06   9.338891e+05
  -2.652898e+06  -7.527574e+05
  -1.460676e+06  -2.496394e+06
   5.700411e+05  -2.310494e+06
   2.033387e+06  -9.733190e+04
   1.805807e+06   2.224671e+06
  -1.254339e+05   2.710396e+06
  -2.428533e+06   1.082117e+06
  -3.269926e+06  -1.299479e+06
  -1.978858e+06  -2.739783e+06
   1.566939e+05  -2.576806e+06
   1.274636e+06  -1.554775e+06
   1.108450e+06  -8.876627e+05
   1.135623e+06  -9.188704e+05
   2.371238e+06  -8.392321e+05
   3.722539e+06   2.336939e+05
   3.178412e+06   2.120816e+06
   3.579258e+05   3.633230e+06
  -2.775362e+06   3.592298e+06
  -3.836177e+06   1.799469e+06
  -2.316130e+06  -6.827382e+05
   1.011236e+05  -2.143191e+06
   1.258692e+06  -1.589073e+06
   4.716171e+05   1.671961e+05
  -1.052844e+06   1.150201e+06
  -1.587432e+06   3.703649e+05
  -6.609973e+05  -9.823362e+05
   5.637690e+05  -1.041955e+06
   6.631348e+05   2.692526e+05
  -4.882479e+05   1.058246e+06
  -1.648884e+06  -1.223063e+05
  -1.508990e+06  -2.379560e+06
   1.342616e+05  -3.449041e+06
   2.282039e+06  -2.167405e+06
   3.481448e+06   4.646148e+05
   2.830388e+06   2.456931e+06
   7.455449e+05   2.640386e+06
  -1.176431e+06   1.423906e+06
  -1.507673e+06   1.820934e+05
  -4.479990e+05  -2.291864e+04
   3.691580e+05   6.537096e+05
  -2.179405e+05   1.117382e+06
  -1.495344e+06   5.837218e+05
  -1.770602e+06  -5.316898e+05
  -5.008072e+05  -1.115684e+06
   9.803153e+05  -6.319163e+05
   9.848289e+05   3.378799e+05
  -6.085095e+05   7.655998e+05
  -2.184473e+06   1.523189e+05
  -2.041294e+06  -1.109102e+06
  -8.985799e+04  -2.050919e+06
   2.040548e+06  -1.823139e+06
   2.541044e+06  -4.446877e+05
   1.133212e+06   9.994852e+05
  -7.040820e+05   1.246044e+06
  -1.228670e+06   1.920205e+05
  -1.296805e+05  -8.806634e+05
   1.304450e+06  -7.003481e+05
   1.603857e+06   5.404082e+05
   5.431304e+05   1.452656e+06
  -8.002698e+05   1.094220e+06
  -1.194467e+06  -2.052021e+04
  -4.065399e+05  -6.254419e+05
   6.212939e+05  -1.195020e+05
   6.766282e+05   8.905129e+05
  -4.955257e+05   1.288917e+06
  -1.809294e+06   5.275377e+05
  -1.860658e+06  -8.879230e+05
  -4.389574e+05  -1.832985e+06
   1.166063e+06  -1.547131e+06
   1.524277e+06  -3.312111e+05
   5.608545e+05   7.280094e+05
  -5.221885e+05   8.043111e+05
  -6.699543e+05   9.536168e+04
  -3.327219e+03  -5.000315e+05
   5.598398e+05  -4.005911e+05
   3.941895e+05   8.009957e+04
  -2.505099e+05   1.817257e+05
  -5.716262e+05  -3.830231e+05
  -8.183456e+03  -1.041890e+06
   1.153727e+06  -9.145079e+05
   1.904411e+06   2.471873e+05
   1.411617e+06   1.682704e+06
  -8.508647e+04   2.249245e+06
  -1.420515e+06   1.489431e+06
  -1.667199e+06   6.946619e+04
  -1.020943e+06  -8.841989e+05
  -3.949115e+05  -8.657902e+05
  -3.023013e+05  -3.645350e+05
  -3.988334e+05  -1.959490e+05
  -8.664703e+04  -5.693646e+05
   6.898497e+05  -8.901864e+05
   1.329332e+06  -4.687718e+05
   1.127248e+06   6.288103e+05
  -5.724875e+04   1.488624e+06
  -1.525523e+06   1.174575e+06
  -2.134497e+06  -2.954062e+05
  -1.226115e+06  -1.825230e+06
   6.657155e+05  -2.189138e+06
   2.157819e+06  -1.159596e+06
   2.240384e+06   3.319090e+05
   1.150201e+06   1.158023e+06
  -1.685587e+04   1.049504e+06
  -4.504697e+05   6.596653e+05
  -2.727534e+05   6.827055e+05
  -1.581486e+05   1.058011e+06
  -5.181519e+05   1.094770e+06
  -1.093239e+06   3.104164e+05
  -1.236455e+06  -9.423534e+05
  -5.762439e+05  -1.716104e+06
   5.245747e+05  -1.343419e+06
   1.189623e+06  -8.874964e+04
   8.403829e+05   1.062645e+06
  -1.787166e+05   1.275818e+06
  -9.044095e+05   5.532261e+05
  -7.466258e+05  -3.915501e+05
  -7.579322e+04  -8.641763e+05
   2.703290e+05  -7.557808e+05
  -1.853102e+04  -4.542436e+05
  -3.777270e+05  -3.277949e+05
  -5.055386e+04  -3.635762e+05
   9.729600e+05  -2.653688e+05
   1.806757e+06   1.734539e+05
   1.520131e+06   8.085862e+05
   1.402276e+05   1.222346e+06
  -1.268366e+06   1.071243e+06
  -1.609128e+06   4.173130e+05
  -8.193879e+05  -2.619249e+05
   1.557645e+05  -4.585443e+05
   4.221724e+05  -1.136015e+05
  -3.551532e+03   2.942157e+05
  -4.423080e+05   2.290269e+05
  -4.359340e+05  -2.955925e+05
  -1.533063e+05  -6.852282e+05
  -5.187674e+03  -4.456394e+05
  -1.297318e+05   1.686625e+05
  -3.217160e+05   3.785989e+05
  -2.826377e+05  -1.839974e+05
   1.364144e+05  -9.462224e+05
   7.681177e+05  -9.942084e+05
   1.110999e+06  -1.439775e+05
   6.913303e+05   8.074595e+05
  -3.336263e+05   9.575993e+05
  -1.065494e+06   2.546760e+05
  -6.799566e+05  -5.285931e+05
   5.851909e+05  -6.450872e+05
   1.505084e+06  -4.542334e+04
   1.104232e+06   7.113890e+05
  -2.891062e+05   1.014385e+06
  -1.376975e+06   6.611427e+05
  -1.236314e+06  -3.524057e+04
  -2.038017e+05  -4.901094e+05
   5.702764e+05  -3.284694e+05
   3.307165e+05   2.205749e+05
  -5.670182e+05   4.555429e+05
  -1.083848e+06  -1.039019e+05
  -5.716381e+05  -1.102719e+06
   5.878785e+05  -1.554388e+06
   1.387823e+06  -8.055289e+05
   1.185005e+06   6.892170e+05
   2.452632e+05   1.673046e+06
  -6.325732e+05   1.284346e+06
  -8.818729e+05  -5.854553e+04
  -5.184952e+05  -1.075156e+06
   7.351509e+04  -9.552951e+05
   4.901481e+05  -1.388918e+05
   5.127082e+05   3.433755e+05
   2.290916e+05   1.414634e+05
   1.383225e+04  -1.116381e+05
   1.696623e+05   2.166152e+05
   4.743153e+05   8.556943e+05
   3.069960e+05   1.006752e+06
  -5.492753e+05   4.090620e+05
  -1.402155e+06  -3.733070e+05
  -1.302099e+06  -7.215393e+05
  -2.097004e+05  -6.228923e+05
   8.437238e+05  -4.171934e+05
   9.308271e+05  -2.362955e+05
   2.774264e+05  -5.106423e+03
  -1.535476e+05   2.084325e+05
   5.640925e+04   2.295120e+05
   3.363901e+05   1.207303e+05
   1.941837e+04   1.274262e+05
  -6.961703e+05   2.131520e+05
  -9.596073e+05   9.405957e+02
  -3.004408e+05  -6.147847e+05
   8.197026e+05  -1.070712e+06
   1.491505e+06  -6.948832e+05
   1.217711e+06   4.013186e+05
   2.697179e+05   1.306843e+06
  -6.409007e+05   1.270164e+06
  -9.520818e+05   4.774412e+05
  -6.276720e+05  -2.379185e+05
  -1.008640e+05  -3.265230e+05
   1.350227e+05  -1.766135e+04
  -4.636523e+04   7.298967e+04
  -3.280029e+05  -3.040169e+05
  -2.891788e+05  -7.381654e+05
   1.600424e+05  -6.179855e+05
   6.518880e+05   1.425348e+05
   6.694003e+05   9.099928e+05
   5.373367e+04   9.442768e+05
  -7.374309e+05   1.804705e+05
  -9.571625e+05  -7.029020e+05
  -3.069264e+05  -9.933239e+05
   6.513174e+05  -5.933216e+05
   9.994362e+05   5.586861e+04
   4.666702e+05   4.983494e+05
  -2.398062e+05   5.674173e+05
  -2.773421e+05   3.347967e+05
   2.972108e+05   2.517908e+04
   6.171372e+05  -4.673260e+04
   1.214065e+05   2.673670e+05
  -7.411278e+05   6.635437e+05
  -1.087391e+06   5.892901e+05
  -6.411485e+05  -8.829410e+04
   6.831550e+04  -7.799006e+05
   4.247451e+05  -7.794732e+05
   3.222133e+05  -1.123186e+05
   2.982706e+04   4.699196e+05
  -2.210374e+05   3.737027e+05
  -3.354922e+05  -1.846214e+05
  -2.434975e+05  -5.282014e+05
   5.318717e+04  -3.420943e+05
   3.610163e+05   5.558076e+04
   4.260957e+05   2.033272e+05
   2.252976e+05   4.405695e+04
  -4.795059e+03  -9.150032e+04
  -7.396974e+04   6.000787e+04
  -6.025679e+04   3.675219e+05
  -1.494445e+05   4.475473e+05
  -3.292391e+05   1.033002e+05
  -3.575131e+05  -4.102984e+05
  -5.856931e+04  -6.064207e+05
   3.990030e+05  -2.743271e+05
   5.836065e+05   2.790085e+05
   2.220779e+05   5.472632e+05
  -4.400902e+05   3.438334e+05
  -7.832967e+05  -7.098633e+04
  -4.364377e+05  -3.366318e+05
   2.609170e+05  -3.340284e+05
   5.694894e+05  -1.744489e+05
   1.843573e+05  -1.325996e+04
  -3.851017e+05   2.755686e+04
  -4.065143e+05  -1.127065e+05
   1.990675e+05  -3.157841e+05
   7.669230e+05  -2.733792e+05
