
 $NMID
 id='ANONYMOUS ', fmtdat='(2E16.6)'
 volume=1.0
 tramp=1.0
 $END
   1.207254e+07  -7.633435e+05
   8.543755e+06   3.862221e+06
   1.373472e+06   6.962666e+06
  -3.992478e+06   6.471347e+06
  -4.425481e+06   2.285910e+06
  -1.087037e+06  -1.974183e+06
   2.256273e+06  -2.142276e+06
   2.700410e+06   1.420732e+06
   4.231647e+05   4.000980e+06
  -2.033813e+06   2.348545e+06
  -2.397909e+06  -1.447470e+06
  -6.393747e+05  -2.904362e+06
   1.306830e+06  -6.231058e+05
   1.489784e+06   2.551139e+06
  -2.519300e+05   3.189178e+06
  -2.132113e+06   7.870318e+05
  -2.106877e+06  -2.284141e+06
   2.217766e+04  -3.356259e+06
   2.264397e+06  -1.801114e+06
   2.513053e+06   6.580018e+05
   8.975552e+05   1.776180e+06
  -3.932133e+05   1.087713e+06
   2.482497e+05   2.262030e+05
   1.877974e+06   7.838657e+05
   2.083703e+06   2.309077e+06
  -1.668871e+05   2.952137e+06
  -3.193518e+06   1.759692e+06
  -4.222825e+06  -3.578866e+05
  -2.207579e+06  -1.789110e+06
   1.030349e+06  -1.661745e+06
   2.507727e+06  -2.223264e+05
   1.019286e+06   1.410838e+06
  -1.681442e+06   1.780755e+06
  -2.807284e+06   2.583782e+05
  -1.512815e+06  -1.923576e+06
   4.595323e+05  -2.547165e+06
   1.069100e+06  -9.176022e+05
   2.264107e+05   1.067294e+06
  -6.150380e+05   1.079971e+06
  -4.722119e+05  -7.873354e+05
   3.239114e+05  -2.195006e+06
   9.861021e+05  -1.485589e+06
   1.089854e+06   4.373928e+05
   5.332394e+05   1.419506e+06
  -4.549910e+05   5.663061e+05
  -1.014469e+06  -1.029448e+06
  -1.839125e+05  -1.690380e+06
   1.713593e+06  -7.867788e+05
   2.829204e+06   8.959866e+05
   1.698322e+06   1.995403e+06
  -8.626268e+05   1.723015e+06
  -2.481351e+06   4.468311e+05
  -1.823822e+06  -7.190154e+05
   1.106028e+05  -9.363084e+05
   1.326610e+06  -3.095302e+05
   9.256327e+05   3.789342e+05
  -3.052758e+05   4.590996e+05
  -9.612661e+05  -9.801081e+04
  -4.089584e+05  -7.344624e+05
   6.693314e+05  -7.830219e+05
   9.738496e+05  -7.962750e+04
   1.147036e+04   7.303149e+05
  -1.176073e+06   6.679011e+05
  -1.049282e+06  -5.251240e+05
   5.953998e+05  -1.866926e+06
   2.268738e+06  -1.972714e+06
   2.490231e+06  -5.027844e+05
   1.408054e+06   1.427626e+06
   3.296962e+05   2.400209e+06
   9.889946e+03   2.090301e+06
   1.895415e+03   1.350731e+06
  -4.055370e+05   1.027656e+06
  -1.222770e+06   9.875146e+05
  -1.869306e+06   4.656062e+05
  -1.809454e+06  -7.594157e+05
  -9.058362e+05  -1.829511e+06
   4.791821e+05  -1.637353e+06
   1.504983e+06  -1.319230e+05
   1.332437e+06   1.439012e+06
  -2.704924e+04   1.724405e+06
  -1.480626e+06   5.995595e+05
  -1.824920e+06  -8.325030e+05
  -9.550157e+05  -1.460457e+06
   1.262860e+05  -1.166388e+06
   5.067563e+05  -6.423750e+05
   3.320892e+05  -4.988345e+05
   4.678217e+05  -7.061080e+05
   1.333322e+06  -7.475369e+05
   2.252768e+06  -1.434973e+05
   2.069196e+06   1.073668e+06
   4.389470e+05   2.220421e+06
  -1.571475e+06   2.380386e+06
  -2.378203e+06   1.232215e+06
  -1.457300e+06  -4.648408e+05
   1.170879e+05  -1.414797e+06
   8.319590e+05  -9.919015e+05
   2.774044e+05   1.410293e+05
  -6.500822e+05   7.369359e+05
  -9.120493e+05   2.729140e+05
  -3.635991e+05  -5.528876e+05
   3.408230e+05  -6.709857e+05
   5.047101e+05   1.018312e+05
  -6.603201e+04   7.967410e+05
  -9.520413e+05   3.609321e+05
  -1.332084e+06  -1.081820e+06
  -5.711266e+05  -2.213253e+06
   1.057542e+06  -1.852854e+06
   2.339659e+06  -2.048587e+05
   2.170622e+06   1.361102e+06
   7.172280e+05   1.716376e+06
  -6.982785e+05   9.862775e+05
  -9.679014e+05   1.725691e+05
  -2.802757e+05   1.463505e+04
   2.631659e+05   3.836953e+05
  -5.107963e+04   6.520818e+05
  -8.185513e+05   4.145661e+05
  -1.064705e+06  -1.717736e+05
  -3.845598e+05  -5.911902e+05
   5.529350e+05  -4.472825e+05
   6.785280e+05   1.492984e+05
  -2.910154e+05   6.042920e+05
  -1.427788e+06   3.508654e+05
  -1.493202e+06  -5.520552e+05
  -2.671192e+05  -1.367421e+06
   1.173799e+06  -1.339700e+06
   1.570585e+06  -4.520043e+05
   7.432351e+05   5.176037e+05
  -3.514118e+05   7.427992e+05
  -6.786914e+05   1.569887e+05
  -7.616483e+04  -5.050550e+05
   7.618917e+05  -4.838376e+05
   1.022753e+06   2.134004e+05
   4.772253e+05   8.472119e+05
  -3.681839e+05   7.706312e+05
  -7.380142e+05   1.318461e+05
  -3.273819e+05  -3.234481e+05
   3.486892e+05  -9.858142e+04
   4.486780e+05   5.268711e+05
  -2.704965e+05   8.308504e+05
  -1.122542e+06   4.044960e+05
  -1.203472e+06  -4.704544e+05
  -3.716394e+05  -1.108805e+06
   6.134143e+05  -1.022107e+06
   9.074602e+05  -3.182298e+05
   4.058080e+05   3.932967e+05
  -2.631016e+05   5.336522e+05
  -4.408515e+05   9.307076e+04
  -5.977987e+04  -3.721975e+05
   3.774867e+05  -3.537388e+05
   3.613230e+05   3.515016e+04
  -8.359317e+04   2.160807e+05
  -4.083432e+05  -1.290495e+05
  -1.186316e+05  -6.381281e+05
   6.526515e+05  -6.565188e+05
   1.210782e+06   3.664486e+04
   9.790359e+05   9.736067e+05
   7.941713e+04   1.430396e+06
  -8.008067e+05   1.065732e+06
  -1.081664e+06   1.912819e+05
  -7.771777e+05  -5.178326e+05
  -3.491989e+05  -6.195635e+05
  -1.737270e+05  -2.893308e+05
  -1.953270e+05  -9.112662e+04
  -7.594348e+04  -3.167731e+05
   3.559767e+05  -6.193203e+05
   8.249450e+05  -4.219920e+05
   8.131272e+05   3.327474e+05
   1.001170e+05   1.000704e+06
  -8.962934e+05   8.791844e+05
  -1.388469e+06  -4.564144e+04
  -9.077049e+05  -1.063141e+06
   2.453930e+05  -1.401504e+06
   1.243973e+06  -8.816128e+05
   1.440292e+06   1.692899e+04
   8.667258e+05   6.404714e+05
   1.067862e+05   7.183989e+05
  -2.791896e+05   5.140085e+05
  -2.197617e+05   4.564346e+05
  -9.144087e+04   6.295554e+05
  -2.558714e+05   6.741013e+05
  -6.452413e+05   2.382932e+05
  -8.196549e+05  -5.314937e+05
  -4.525585e+05  -1.052549e+06
   2.627566e+05  -8.756049e+05
   7.463880e+05  -1.330144e+05
   5.979782e+05   5.941959e+05
  -2.654013e+02   7.999764e+05
  -4.804779e+05   4.370310e+05
  -4.714217e+05  -1.319533e+05
  -1.389822e+05  -4.880773e+05
   6.229821e+04  -4.859025e+05
  -6.974287e+04  -3.033710e+05
  -2.517772e+05  -2.005200e+05
  -4.963379e+04  -2.357564e+05
   5.755548e+05  -2.301750e+05
   1.119223e+06  -2.081516e+03
   9.999782e+05   4.020382e+05
   1.873950e+05   7.249204e+05
  -6.967484e+05   7.230299e+05
  -9.647815e+05   3.786697e+05
  -5.319506e+05  -6.313091e+04
   5.618780e+04  -2.696494e+05
   2.414051e+05  -1.153068e+05
  -4.000508e+03   1.587882e+05
  -2.808844e+05   1.675527e+05
  -2.868660e+05  -1.607481e+05
  -1.031899e+05  -4.422611e+05
   5.897427e+03  -2.908039e+05
  -7.054655e+04   1.440860e+05
  -2.073112e+05   2.985298e+05
  -2.017257e+05  -9.742803e+04
   4.617268e+04  -6.292819e+05
   4.328700e+05  -6.677828e+05
   6.601081e+05  -1.176790e+05
   4.397238e+05   4.847569e+05
  -1.655412e+05   5.895243e+05
  -6.418906e+05   1.799767e+05
  -4.572755e+05  -3.076825e+05
   3.191511e+05  -4.473549e+05
   9.599550e+05  -1.436724e+05
   7.897870e+05   3.625417e+05
  -7.683028e+04   6.827450e+05
  -8.302422e+05   5.561165e+05
  -8.131564e+05   8.575070e+04
  -1.791476e+05  -3.028303e+05
   3.331690e+05  -2.563040e+05
   2.051197e+05   1.132272e+05
  -3.573693e+05   3.052584e+05
  -6.949914e+05  -3.620426e+04
  -3.914441e+05  -6.893637e+05
   3.294158e+05  -1.011143e+06
   8.584697e+05  -5.665192e+05
   7.908802e+05   3.843312e+05
   2.471839e+05   1.057286e+06
  -3.248501e+05   8.719905e+05
  -5.658087e+05   3.797479e+04
  -4.143616e+05  -6.460130e+05
  -4.109121e+04  -6.228331e+05
   2.931022e+05  -1.264564e+05
   3.697659e+05   1.910133e+05
   1.800840e+05   8.048309e+04
  -9.718682e+03  -7.663604e+04
   7.883918e+04   1.197032e+05
   3.329363e+05   5.126535e+05
   2.831526e+05   6.201745e+05
  -2.891635e+05   2.877385e+05
  -9.172176e+05  -1.578946e+05
  -8.979804e+05  -3.782846e+05
  -1.714317e+05  -3.777768e+05
   5.389457e+05  -3.162277e+05
   5.862684e+05  -2.146224e+05
   1.514147e+05  -2.936554e+04
  -9.597858e+04   1.396524e+05
   8.363544e+04   1.505247e+05
   2.577244e+05   6.970259e+04
   6.622048e+03   8.687105e+04
  -4.698357e+05   1.688162e+05
  -6.084501e+05   3.938264e+04
  -1.742743e+05  -3.811862e+05
   5.000357e+05  -7.104216e+05
   8.948210e+05  -4.900287e+05
   7.592480e+05   2.190743e+05
   2.283496e+05   8.251213e+05
  -3.358535e+05   8.284524e+05
  -5.864865e+05   3.307754e+05
  -4.209845e+05  -1.369931e+05
  -6.626379e+04  -2.065322e+05
   1.179147e+05  -6.103723e+03
  -1.032965e+04   6.811894e+04
  -2.366553e+05  -1.637078e+05
  -2.331491e+05  -4.514804e+05
   7.978843e+04  -3.946443e+05
   4.326497e+05   7.895723e+04
   4.562325e+05   5.701804e+05
   4.576257e+04   6.013147e+05
  -4.848191e+05   1.260622e+05
  -6.397026e+05  -4.282946e+05
  -2.245284e+05  -6.187558e+05
   3.945930e+05  -3.885783e+05
   6.254789e+05  -1.826765e+03
   2.990707e+05   2.779339e+05
  -1.298519e+05   3.451057e+05
  -1.375653e+05   2.131589e+05
   2.197281e+05   3.663970e+03
   3.986706e+05  -5.840820e+04
   8.018250e+04   1.608772e+05
  -4.363464e+05   4.622807e+05
  -6.322358e+05   4.434068e+05
  -3.786486e+05  -8.933740e+03
   9.511751e+03  -4.879282e+05
   2.094111e+05  -4.990698e+05
   1.768451e+05  -6.113125e+04
   3.100808e+04   3.119374e+05
  -1.307025e+05   2.352353e+05
  -2.302011e+05  -1.243630e+05
  -1.772950e+05  -3.254860e+05
   2.915936e+04  -1.992014e+05
   2.334824e+05   2.870342e+04
   2.673892e+05   9.306546e+04
   1.411311e+05   1.227648e+03
   1.003980e+04  -4.189460e+04
  -3.343817e+04   8.167892e+04
  -5.061119e+04   2.608802e+05
  -1.284509e+05   2.766065e+05
  -2.308292e+05   4.060831e+04
  -2.216839e+05  -2.807432e+05
  -2.403195e+04  -3.974611e+05
   2.559255e+05  -1.848695e+05
   3.723295e+05   1.696675e+05
   1.576186e+05   3.506129e+05
  -2.566538e+05   2.344681e+05
  -4.893753e+05  -2.232682e+04
  -2.861425e+05  -1.953579e+05
   1.544126e+05  -2.057502e+05
   3.519870e+05  -1.134050e+05
   9.748111e+04  -8.815924e+03
  -2.755579e+05   2.218535e+04
  -2.808801e+05  -7.729141e+04
   1.296832e+05  -2.320631e+05
   5.109059e+05  -2.185667e+05
