
 $NMID
 id='ANONYMOUS ', fmtdat='(2E16.6)'
 volume=1.0
 tramp=1.0
 $END
   2.145776e+07  -1.584629e+05
   1.504699e+07   9.272217e+06
   8.838084e+05   1.358836e+07
  -9.162716e+06   1.010767e+07
  -8.487107e+06   1.785706e+06
  -9.632134e+05  -4.095201e+06
   4.708139e+06  -2.589768e+06
   3.960645e+06   3.526773e+06
  -7.750844e+05   6.707152e+06
  -4.266453e+06   3.187754e+06
  -3.730936e+06  -2.948969e+06
  -4.293135e+05  -4.890436e+06
   2.240738e+06  -8.951861e+05
   1.776234e+06   4.262505e+06
  -1.318681e+06   4.990711e+06
  -3.869203e+06   6.611739e+05
  -2.992296e+06  -4.400510e+06
   8.616620e+05  -5.683696e+06
   4.211050e+06  -2.669798e+06
   4.204953e+06   1.355237e+06
   1.587556e+06   3.016805e+06
  -3.952445e+05   2.087407e+06
   2.594617e+05   1.071336e+06
   2.181058e+06   1.934322e+06
   2.256084e+06   3.817751e+06
  -8.764768e+05   4.233377e+06
  -5.049672e+06   2.059253e+06
  -6.400357e+06  -1.220359e+06
  -3.292376e+06  -3.114402e+06
   1.592916e+06  -2.423547e+06
   3.658385e+06  -1.166537e+04
   1.194028e+06   2.055043e+06
  -2.781080e+06   1.988853e+06
  -3.997672e+06  -3.597690e+05
  -1.665016e+06  -3.073495e+06
   1.188108e+06  -3.591168e+06
   1.720633e+06  -1.313984e+06
   2.913192e+05   1.382582e+06
  -8.105279e+05   1.527184e+06
  -3.642853e+05  -9.713769e+05
   9.444572e+05  -3.028813e+06
   1.873932e+06  -1.994705e+06
   1.707574e+06   1.108979e+06
   3.738138e+05   2.753988e+06
  -1.363077e+06   1.069073e+06
  -1.873432e+06  -2.043022e+06
  -1.173690e+04  -3.173491e+06
   3.062294e+06  -1.127142e+06
   4.350916e+06   2.095393e+06
   2.121472e+06   3.629781e+06
  -1.871160e+06   2.466054e+06
  -4.014507e+06  -4.256934e+04
  -2.600951e+06  -1.755526e+06
   5.775442e+05  -1.584759e+06
   2.362118e+06  -1.502862e+05
   1.448261e+06   9.860011e+05
  -6.495000e+05   7.651126e+05
  -1.479832e+06  -4.466945e+05
  -2.399711e+05  -1.288086e+06
   1.473086e+06  -8.039492e+05
   1.461966e+06   5.652997e+05
  -5.287790e+05   1.396662e+06
  -2.321503e+06   6.602039e+05
  -1.637211e+06  -1.270057e+06
   1.278171e+06  -2.844203e+06
   3.839985e+06  -2.582818e+06
   3.934440e+06  -3.532620e+05
   1.996638e+06   2.397185e+06
   7.819613e+04   3.819688e+06
  -5.885531e+05   3.316369e+06
  -5.414407e+05   1.975759e+06
  -8.890941e+05   1.188920e+06
  -1.855168e+06   1.005162e+06
  -2.660128e+06   3.023062e+05
  -2.418022e+06  -1.380555e+06
  -9.444359e+05  -2.787716e+06
   1.022586e+06  -2.249690e+06
   2.192241e+06   1.715726e+05
   1.611734e+06   2.434566e+06
  -4.134276e+05   2.572316e+06
  -2.334745e+06   6.423331e+05
  -2.644787e+06  -1.559311e+06
  -1.292991e+06  -2.428316e+06
   3.337689e+05  -1.898127e+06
   9.501261e+05  -1.043211e+06
   7.391264e+05  -7.570331e+05
   9.643270e+05  -9.403648e+05
   2.234677e+06  -7.782283e+05
   3.459641e+06   3.468890e+05
   2.870663e+06   2.136974e+06
   1.270359e+05   3.454499e+06
  -2.906558e+06   3.197688e+06
  -3.817050e+06   1.312362e+06
  -2.074006e+06  -9.712280e+05
   4.448634e+05  -2.045366e+06
   1.428671e+06  -1.309292e+06
   4.011500e+05   2.473070e+05
  -1.121186e+06   9.728895e+05
  -1.470003e+06   2.302272e+05
  -4.745548e+05  -9.217238e+05
   6.585944e+05  -9.434658e+05
   7.221832e+05   2.922936e+05
  -3.788945e+05   1.173952e+06
  -1.611064e+06   1.888755e+05
  -1.679489e+06  -2.125517e+06
  -1.097821e+05  -3.517496e+06
   2.203128e+06  -2.402069e+06
   3.544746e+06   4.194469e+05
   2.812609e+06   2.622858e+06
   5.991740e+05   2.718669e+06
  -1.274262e+06   1.288039e+06
  -1.479882e+06   2.653459e+04
  -4.267307e+05  -5.136772e+04
   3.119207e+05   6.404975e+05
  -2.273319e+05   1.003635e+06
  -1.364770e+06   4.644598e+05
  -1.614989e+06  -5.274191e+05
  -4.581299e+05  -1.028536e+06
   9.480208e+05  -5.633488e+05
   9.784771e+05   3.847737e+05
  -6.003123e+05   8.059869e+05
  -2.208976e+06   1.238049e+05
  -2.046608e+06  -1.216136e+06
  -2.122789e+04  -2.092006e+06
   2.096931e+06  -1.694605e+06
   2.474413e+06  -2.852725e+05
   1.012975e+06   9.794873e+05
  -7.057126e+05   1.076331e+06
  -1.096570e+06   1.011274e+05
  -3.052458e+04  -7.920338e+05
   1.264251e+06  -5.665064e+05
   1.502801e+06   5.784851e+05
   4.987228e+05   1.417607e+06
  -7.795077e+05   1.073176e+06
  -1.168977e+06  -6.778409e+03
  -4.182421e+05  -5.966613e+05
   5.535661e+05  -8.971976e+04
   5.620751e+05   8.768771e+05
  -5.781321e+05   1.173290e+06
  -1.759649e+06   3.499685e+05
  -1.693764e+06  -9.807190e+05
  -2.979546e+05  -1.759706e+06
   1.180746e+06  -1.399957e+06
   1.464263e+06  -2.508582e+05
   5.217760e+05   7.135311e+05
  -5.317885e+05   7.524931e+05
  -6.818356e+05   3.820339e+04
   8.156819e+03  -5.534367e+05
   6.326372e+05  -4.094651e+05
   4.869531e+05   1.443360e+05
  -2.083159e+05   2.716764e+05
  -5.722177e+05  -3.257971e+05
  -1.954537e+03  -9.913223e+05
   1.142130e+06  -8.171809e+05
   1.801528e+06   3.502502e+05
   1.231229e+06   1.693277e+06
  -2.336382e+05   2.158714e+06
  -1.473236e+06   1.385124e+06
  -1.662774e+06  -7.056496e+03
  -9.985296e+05  -9.780035e+05
  -3.304388e+05  -9.881849e+05
  -1.863066e+05  -4.398318e+05
  -2.918090e+05  -1.736368e+05
  -4.077200e+04  -4.979926e+05
   6.970789e+05  -8.267132e+05
   1.329444e+06  -4.010345e+05
   1.097042e+06   7.042199e+05
  -1.259857e+05   1.497648e+06
  -1.555461e+06   1.070586e+06
  -2.053364e+06  -4.160515e+05
  -1.093063e+06  -1.819400e+06
   7.186196e+05  -2.052448e+06
   2.098608e+06  -1.018020e+06
   2.162148e+06   4.008133e+05
   1.119740e+06   1.193437e+06
  -4.558374e+04   1.091450e+06
  -5.433954e+05   6.679612e+05
  -4.100384e+05   6.102039e+05
  -2.638420e+05   9.289157e+05
  -5.431727e+05   9.659453e+05
  -1.030264e+06   2.121350e+05
  -1.101791e+06  -9.890514e+05
  -4.255184e+05  -1.682809e+06
   6.019010e+05  -1.247559e+06
   1.151695e+06  -1.706016e+04
   7.546791e+05   1.044241e+06
  -2.052683e+05   1.209963e+06
  -8.517352e+05   5.364899e+05
  -6.934523e+05  -3.316948e+05
  -8.522996e+04  -7.889193e+05
   2.303882e+05  -7.265147e+05
  -1.614665e+04  -4.727547e+05
  -3.225590e+05  -3.560718e+05
  -1.272011e+04  -3.587626e+05
   9.233937e+05  -2.026079e+05
   1.680637e+06   2.671895e+05
   1.402307e+06   8.488512e+05
   1.053121e+05   1.146706e+06
  -1.224792e+06   9.290637e+05
  -1.550392e+06   3.302510e+05
  -7.930935e+05  -2.411803e+05
   1.495668e+05  -4.007279e+05
   3.978284e+05  -1.097935e+05
  -3.816867e+04   2.400609e+05
  -4.594366e+05   1.756284e+05
  -3.897192e+05  -3.131139e+05
  -4.875620e+04  -6.750690e+05
   7.242898e+04  -4.243490e+05
  -1.467447e+05   1.864418e+05
  -3.788532e+05   3.768260e+05
  -2.681844e+05  -1.937866e+05
   2.244330e+05  -9.119305e+05
   8.024750e+05  -8.886361e+05
   1.011796e+06  -3.324707e+04
   5.466707e+05   8.165060e+05
  -3.809282e+05   8.469138e+05
  -9.987099e+05   1.256963e+05
  -6.048271e+05  -5.688706e+05
   5.935424e+05  -5.899555e+05
   1.472079e+06   3.441531e+04
   1.078543e+06   7.537269e+05
  -3.034706e+05   1.001575e+06
  -1.389314e+06   6.084195e+05
  -1.233849e+06  -8.807854e+04
  -1.861132e+05  -4.995045e+05
   5.663599e+05  -3.001904e+05
   2.868233e+05   2.165144e+05
  -5.963786e+05   3.686186e+05
  -1.021658e+06  -2.140123e+05
  -4.209033e+05  -1.111798e+06
   7.267946e+05  -1.422521e+06
   1.411287e+06  -6.355895e+05
   1.083282e+06   7.663990e+05
   1.060780e+05   1.636806e+06
  -7.057190e+05   1.216151e+06
  -8.576669e+05  -9.006224e+04
  -4.545739e+05  -1.072030e+06
   1.013636e+05  -9.428773e+05
   4.715496e+05  -1.171315e+05
   4.979822e+05   3.789262e+05
   2.423323e+05   1.678973e+05
   9.335085e+03  -1.187699e+05
   1.014990e+05   1.910836e+05
   3.772857e+05   8.451490e+05
   2.630273e+05   1.003852e+06
  -5.118881e+05   3.675801e+05
  -1.329523e+06  -4.632043e+05
  -1.240342e+06  -7.942349e+05
  -1.623795e+05  -6.075828e+05
   8.764187e+05  -3.317568e+05
   9.278891e+05  -1.707593e+05
   2.413394e+05  -8.596696e+03
  -1.756282e+05   1.839587e+05
   7.543985e+04   2.506239e+05
   3.543477e+05   1.704089e+05
  -8.800223e+03   1.247389e+05
  -7.297624e+05   1.294519e+05
  -9.144925e+05  -8.550525e+04
  -1.785162e+05  -5.987345e+05
   9.075388e+05  -9.337881e+05
   1.452678e+06  -5.233352e+05
   1.081691e+06   4.981324e+05
   1.392682e+05   1.281245e+06
  -7.013503e+05   1.156283e+06
  -9.471306e+05   3.542417e+05
  -5.869677e+05  -3.027050e+05
  -5.220857e+04  -3.184120e+05
   1.652766e+05   2.348262e+04
  -3.983634e+04   9.703806e+04
  -3.123029e+05  -3.068813e+05
  -2.366021e+05  -7.324530e+05
   2.097969e+05  -5.695812e+05
   6.186970e+05   2.181554e+05
   5.412607e+05   9.509668e+05
  -6.924325e+04   8.998975e+05
  -7.421607e+05   7.152730e+04
  -8.443422e+05  -7.863227e+05
  -1.882104e+05  -9.720939e+05
   6.756193e+05  -4.858063e+05
   9.324968e+05   1.434873e+05
   3.870481e+05   4.849973e+05
  -2.689085e+05   4.878270e+05
  -2.582601e+05   2.932317e+05
   3.186567e+05   6.603001e+04
   6.049718e+05   1.184265e+04
   8.304120e+04   2.577230e+05
  -7.643195e+05   5.823352e+05
  -1.061242e+06   5.097374e+05
  -5.741245e+05  -1.026217e+05
   1.295607e+05  -7.272427e+05
   4.357034e+05  -7.018681e+05
   2.782870e+05  -5.902974e+04
  -3.050899e+04   4.663090e+05
  -2.470932e+05   3.197088e+05
  -3.054590e+05  -2.374410e+05
  -1.853182e+05  -5.269448e+05
   8.445681e+04  -2.923447e+05
   3.385337e+05   9.700158e+04
   3.828213e+05   2.048538e+05
   2.144130e+05   3.955478e+04
   1.698600e+04  -6.010801e+04
  -8.100292e+04   1.057819e+05
  -1.363366e+05   3.639722e+05
  -2.416530e+05   3.731529e+05
  -3.386979e+05   8.946634e+03
  -2.605416e+05  -4.576889e+05
   5.351169e+04  -5.852258e+05
   4.203990e+05  -2.118369e+05
   5.117509e+05   3.355125e+05
   1.490972e+05   5.547192e+05
  -4.395589e+05   2.894453e+05
  -7.233099e+05  -1.456514e+05
  -3.804115e+05  -3.583218e+05
   2.748386e+05  -2.732689e+05
   5.476792e+05  -9.025915e+04
   1.508020e+05   4.930738e+03
  -4.053576e+05  -3.649418e+04
  -3.908275e+05  -1.807098e+05
   2.494691e+05  -3.054981e+05
   8.072241e+05  -1.921062e+05
