
 $NMID
 id='ANONYMOUS ', fmtdat='(2E16.6)'
 volume=1.0
 tramp=1.0
 $END
   2.504220e+07   4.511248e+05
   1.624163e+07   1.263086e+07
  -8.171126e+05   1.600829e+07
  -1.119733e+07   9.733419e+06
  -8.827247e+06   2.890456e+05
  -1.966710e+05  -4.458935e+06
   5.003594e+06  -1.787541e+06
   3.405053e+06   4.114623e+06
  -1.493437e+06   6.502300e+06
  -4.686497e+06   2.714527e+06
  -3.904761e+06  -3.250333e+06
  -4.267785e+05  -5.094769e+06
   2.373434e+06  -1.088158e+06
   1.801515e+06   4.135567e+06
  -1.559653e+06   4.826924e+06
  -4.127093e+06   2.747345e+05
  -2.909596e+06  -4.938319e+06
   1.304550e+06  -6.119198e+06
   4.821788e+06  -2.865977e+06
   4.875149e+06   1.468714e+06
   2.141866e+06   3.559756e+06
  -3.401269e+05   2.930712e+06
  -3.281097e+05   1.644970e+06
   1.444844e+06   1.786510e+06
   2.017723e+06   3.252936e+06
  -5.959657e+05   3.967210e+06
  -4.778911e+06   2.311067e+06
  -6.486120e+06  -8.828829e+05
  -3.625093e+06  -3.094173e+06
   1.245393e+06  -2.704012e+06
   3.473353e+06  -4.290443e+05
   1.373110e+06   1.625333e+06
  -2.219809e+06   1.783857e+06
  -3.493236e+06  -1.194997e+05
  -1.704036e+06  -2.611729e+06
   7.940737e+05  -3.450426e+06
   1.657072e+06  -1.612529e+06
   7.480828e+05   1.166436e+06
  -4.174852e+05   1.798939e+06
  -4.803138e+05  -4.864084e+05
   6.394293e+05  -2.777142e+06
   1.811639e+06  -1.910220e+06
   1.660440e+06   1.332658e+06
  -1.076803e+05   2.983528e+06
  -2.068269e+06   8.698671e+05
  -2.124584e+06  -2.667496e+06
   3.585767e+05  -3.687087e+06
   3.502548e+06  -1.170128e+06
   4.396818e+06   2.301794e+06
   1.920691e+06   3.695234e+06
  -1.951109e+06   2.315008e+06
  -3.882307e+06  -2.369857e+05
  -2.374490e+06  -1.850565e+06
   8.011256e+05  -1.527137e+06
   2.486355e+06   3.978687e+04
   1.391321e+06   1.164995e+06
  -7.653994e+05   7.826782e+05
  -1.406697e+06  -4.886636e+05
  -2.006245e+04  -1.104828e+06
   1.446553e+06  -3.694596e+05
   9.962500e+05   8.777735e+05
  -1.084155e+06   1.282252e+06
  -2.538432e+06   2.779594e+05
  -1.573633e+06  -1.572492e+06
   1.289087e+06  -3.002668e+06
   3.766388e+06  -2.752115e+06
   4.019927e+06  -5.260301e+05
   2.246289e+06   2.379193e+06
   1.894839e+05   3.917765e+06
  -7.278731e+05   3.275448e+06
  -6.402656e+05   1.706305e+06
  -6.730458e+05   9.244829e+05
  -1.439098e+06   9.996072e+05
  -2.354027e+06   5.565030e+05
  -2.364790e+06  -1.028376e+06
  -1.092549e+06  -2.484938e+06
   7.689409e+05  -2.117518e+06
   1.959464e+06   6.245490e+04
   1.549130e+06   2.196902e+06
  -3.013709e+05   2.463671e+06
  -2.253601e+06   7.643681e+05
  -2.757392e+06  -1.409314e+06
  -1.483499e+06  -2.485648e+06
   2.998336e+05  -2.118802e+06
   1.105707e+06  -1.195918e+06
   9.064712e+05  -7.337952e+05
   1.007675e+06  -8.288288e+05
   2.168395e+06  -6.908478e+05
   3.346765e+06   3.638014e+05
   2.774390e+06   2.063328e+06
   1.436883e+05   3.315222e+06
  -2.730450e+06   3.109369e+06
  -3.612038e+06   1.378362e+06
  -2.042737e+06  -8.130485e+05
   2.884114e+05  -1.956118e+06
   1.282116e+06  -1.336834e+06
   4.058367e+05   1.983918e+05
  -1.036331e+06   9.702846e+05
  -1.435574e+06   2.462189e+05
  -5.122953e+05  -9.059089e+05
   5.858421e+05  -9.155509e+05
   6.305629e+05   2.711401e+05
  -4.293320e+05   1.011062e+06
  -1.499216e+06  -2.932885e+04
  -1.403597e+06  -2.136398e+06
   1.055577e+05  -3.218224e+06
   2.131385e+06  -2.049720e+06
   3.246788e+06   4.953053e+05
   2.567451e+06   2.417628e+06
   5.708840e+05   2.505874e+06
  -1.171382e+06   1.241798e+06
  -1.397941e+06   6.956748e+04
  -4.081745e+05  -4.372070e+04
   3.022501e+05   6.110146e+05
  -2.363580e+05   9.837249e+05
  -1.350346e+06   4.523153e+05
  -1.564771e+06  -5.371273e+05
  -4.181895e+05  -1.009586e+06
   9.107415e+05  -5.314953e+05
   9.009442e+05   3.557337e+05
  -5.803959e+05   7.086803e+05
  -2.041291e+06   7.453661e+04
  -1.871574e+06  -1.123225e+06
  -6.055637e+03  -1.923770e+06
   1.964990e+06  -1.591401e+06
   2.346818e+06  -2.849139e+05
   9.786989e+05   9.491835e+05
  -6.879124e+05   1.069884e+06
  -1.092695e+06   1.087004e+05
  -5.616900e+04  -7.854507e+05
   1.213848e+06  -5.618352e+05
   1.434339e+06   5.579923e+05
   4.504259e+05   1.346673e+06
  -7.590956e+05   9.862423e+05
  -1.094969e+06  -4.166811e+04
  -3.655685e+05  -5.750003e+05
   5.508305e+05  -7.858489e+04
   5.559298e+05   8.417191e+05
  -5.310208e+05   1.138033e+06
  -1.677944e+06   3.694691e+05
  -1.639617e+06  -9.133348e+05
  -3.029413e+05  -1.686183e+06
   1.129685e+06  -1.348263e+06
   1.400258e+06  -2.375405e+05
   4.872978e+05   6.820789e+05
  -5.075679e+05   7.116847e+05
  -6.283999e+05   5.040014e+04
   1.328408e+04  -4.835098e+05
   5.580936e+05  -3.615792e+05
   4.016812e+05   1.077164e+05
  -2.187550e+05   1.962618e+05
  -5.196893e+05  -3.484058e+05
   2.366072e+04  -9.480112e+05
   1.093244e+06  -7.801280e+05
   1.723382e+06   3.224804e+05
   1.195774e+06   1.607377e+06
  -1.969116e+05   2.054086e+06
  -1.378875e+06   1.307696e+06
  -1.550034e+06  -6.487496e+03
  -9.217446e+05  -8.836090e+05
  -3.254774e+05  -8.650062e+05
  -2.285018e+05  -3.811723e+05
  -3.214826e+05  -1.881126e+05
  -4.464276e+04  -5.053031e+05
   6.691086e+05  -7.847904e+05
   1.249908e+06  -3.740148e+05
   1.022070e+06   6.449496e+05
  -1.183076e+05   1.387391e+06
  -1.462065e+06   1.011016e+06
  -1.945408e+06  -3.792621e+05
  -1.038070e+06  -1.726181e+06
   6.983816e+05  -1.960623e+06
   2.011450e+06  -9.630640e+05
   2.040880e+06   3.930310e+05
   1.027798e+06   1.116967e+06
  -5.092769e+04   9.907337e+05
  -4.708885e+05   6.080665e+05
  -3.276576e+05   6.033304e+05
  -2.199756e+05   9.302442e+05
  -5.224464e+05   9.522246e+05
  -1.000264e+06   2.191776e+05
  -1.071567e+06  -9.284488e+05
  -4.306012e+05  -1.598306e+06
   5.540522e+05  -1.197580e+06
   1.092585e+06  -2.280851e+04
   7.177246e+05   1.002129e+06
  -2.104500e+05   1.153228e+06
  -8.316114e+05   4.814815e+05
  -6.585310e+05  -3.601360e+05
  -4.917431e+04  -7.726067e+05
   2.547078e+05  -6.801255e+05
  -6.321261e+03  -4.288301e+05
  -3.221102e+05  -3.275383e+05
  -2.265973e+04  -3.389383e+05
   8.925413e+05  -1.947998e+05
   1.625616e+06   2.491183e+05
   1.344201e+06   8.087622e+05
   8.194360e+04   1.107599e+06
  -1.191541e+06   9.028677e+05
  -1.482178e+06   3.102099e+05
  -7.412571e+05  -2.556020e+05
   1.561451e+05  -3.981249e+05
   3.848989e+05  -9.218810e+04
  -2.665821e+04   2.537859e+05
  -4.253095e+05   1.821820e+05
  -3.801282e+05  -2.938225e+05
  -8.400104e+04  -6.406552e+05
   3.757343e+04  -4.087888e+05
  -1.306692e+05   1.612223e+05
  -3.306626e+05   3.446103e+05
  -2.520882e+05  -1.834962e+05
   1.871903e+05  -8.654273e+05
   7.563772e+05  -8.621006e+05
   1.000129e+06  -5.624928e+04
   5.640450e+05   7.768727e+05
  -3.574670e+05   8.380734e+05
  -9.744499e+05   1.555629e+05
  -5.900028e+05  -5.263936e+05
   5.643014e+05  -5.625636e+05
   1.387513e+06   2.766702e+04
   9.983506e+05   7.045883e+05
  -2.991983e+05   9.291720e+05
  -1.300162e+06   5.589709e+05
  -1.146674e+06  -8.404434e+04
  -1.703607e+05  -4.637623e+05
   5.361376e+05  -2.788766e+05
   2.830983e+05   2.130971e+05
  -5.528191e+05   3.751561e+05
  -9.828658e+05  -1.696736e+05
  -4.437444e+05  -1.047327e+06
   6.442972e+05  -1.381570e+06
   1.323989e+06  -6.472497e+05
   1.045659e+06   7.032330e+05
   1.299875e+05   1.549676e+06
  -6.499797e+05   1.151899e+06
  -8.079192e+05  -8.963960e+04
  -4.285861e+05  -1.011175e+06
   1.034136e+05  -8.796004e+05
   4.514039e+05  -1.066689e+05
   4.624790e+05   3.455635e+05
   2.151337e+05   1.461922e+05
   1.319820e+04  -1.056605e+05
   1.235871e+05   1.986021e+05
   3.798005e+05   8.053756e+05
   2.425018e+05   9.411846e+05
  -5.063680e+05   3.471390e+05
  -1.266394e+06  -4.192392e+05
  -1.168564e+06  -7.322026e+05
  -1.595978e+05  -5.790430e+05
   8.095376e+05  -3.343734e+05
   8.706838e+05  -1.702700e+05
   2.429014e+05   2.781886e+03
  -1.571257e+05   1.810555e+05
   5.544119e+04   2.214043e+05
   3.182960e+05   1.388044e+05
   3.280437e+03   1.191218e+05
  -6.681274e+05   1.493292e+05
  -8.760101e+05  -5.918344e+04
  -2.145429e+05  -5.774304e+05
   8.275234e+05  -9.230980e+05
   1.393090e+06  -5.379094e+05
   1.070556e+06   4.471433e+05
   1.653706e+05   1.214669e+06
  -6.551471e+05   1.119764e+06
  -8.988614e+05   3.701821e+05
  -5.631567e+05  -2.637093e+05
  -6.561794e+04  -3.045126e+05
   1.397459e+05   1.478405e+03
  -4.088679e+04   7.549315e+04
  -2.902680e+05  -2.917445e+05
  -2.286412e+05  -6.914233e+05
   1.855636e+05  -5.520571e+05
   5.913347e+05   1.795668e+05
   5.497836e+05   8.823900e+05
  -2.385570e+04   8.654313e+05
  -6.953949e+05   1.068475e+05
  -8.300711e+05  -7.134500e+05
  -2.124137e+05  -9.261206e+05
   6.335404e+05  -4.930277e+05
   9.032549e+05   1.144316e+05
   3.879837e+05   4.724917e+05
  -2.521787e+05   4.901205e+05
  -2.600022e+05   2.856787e+05
   2.856037e+05   4.519584e+04
   5.715217e+05  -4.505041e+03
   9.039209e+04   2.491525e+05
  -7.163973e+05   5.660768e+05
  -1.015912e+06   4.866521e+05
  -5.663716e+05  -1.068484e+05
   1.092176e+05  -7.036297e+05
   4.212219e+05  -6.819498e+05
   2.871857e+05  -7.281874e+04
  -7.618274e+03   4.381187e+05
  -2.272415e+05   3.211923e+05
  -2.976093e+05  -2.015960e+05
  -1.898122e+05  -4.980964e+05
   7.271546e+04  -2.979410e+05
   3.265900e+05   7.775436e+04
   3.728674e+05   2.017794e+05
   2.031506e+05   4.516626e+04
   8.160984e+03  -7.382358e+04
  -7.010364e+04   7.206757e+04
  -9.472357e+04   3.418871e+05
  -1.896156e+05   3.871136e+05
  -3.165743e+05   5.137254e+04
  -2.859882e+05  -4.128305e+05
   5.568852e+03  -5.613219e+05
   3.882904e+05  -2.211637e+05
   5.089496e+05   2.989865e+05
   1.641638e+05   5.195127e+05
  -4.190412e+05   2.864021e+05
  -7.046362e+05  -1.175893e+05
  -3.753443e+05  -3.341597e+05
   2.587083e+05  -2.800432e+05
   5.279848e+05  -1.135833e+05
   1.590781e+05   1.135058e+03
  -3.687950e+05  -7.765178e+03
  -3.714725e+05  -1.416835e+05
   2.123109e+05  -2.864049e+05
   7.373610e+05  -2.050324e+05
