
 $NMID
 id='ANONYMOUS ', fmtdat='(2E16.6)'
 volume=1.0
 tramp=1.0
 $END
  -3.445645e+07   1.416038e+06
  -2.274083e+07  -1.749416e+07
   1.080086e+06  -2.250533e+07
   1.519360e+07  -1.272972e+07
   1.144414e+07   5.225222e+05
  -1.916767e+05   5.973038e+06
  -6.493246e+06   1.732241e+06
  -3.982044e+06  -5.546749e+06
   2.198337e+06  -7.986266e+06
   6.085129e+06  -3.225065e+06
   5.217924e+06   3.970927e+06
   8.968873e+05   6.380649e+06
  -2.908322e+06   1.699437e+06
  -2.457821e+06  -4.794811e+06
   1.873758e+06  -5.882056e+06
   5.376613e+06  -2.783591e+05
   3.934065e+06   6.394909e+06
  -1.509578e+06   8.104115e+06
  -6.247753e+06   4.181358e+06
  -6.755872e+06  -1.396657e+06
  -3.563548e+06  -4.608152e+06
  -5.404895e+04  -4.451381e+06
   7.527250e+05  -2.761432e+06
  -1.090106e+06  -2.098320e+06
  -2.305317e+06  -3.296795e+06
   2.268425e+05  -4.537028e+06
   5.331728e+06  -3.341953e+06
   7.978009e+06   2.699898e+05
   4.960966e+06   3.432883e+06
  -9.238255e+05   3.585611e+06
  -3.923621e+06   1.133788e+06
  -1.864774e+06  -1.408591e+06
   2.056601e+06  -1.975785e+06
   3.681930e+06  -2.188749e+05
   2.176707e+06   2.566712e+06
  -3.575152e+05   4.000441e+06
  -1.760594e+06   2.363983e+06
  -1.400491e+06  -1.033833e+06
  -8.220901e+04  -2.405351e+06
   6.208965e+05   2.748554e+04
  -3.345387e+05   3.093479e+06
  -2.030661e+06   2.351579e+06
  -2.115389e+06  -1.756324e+06
   3.776998e+05  -4.006355e+06
   3.250120e+06  -1.168993e+06
   3.192170e+06   3.702717e+06
  -4.431025e+05   5.156657e+06
  -4.643050e+06   1.824499e+06
  -5.623953e+06  -2.711250e+06
  -2.403513e+06  -4.493102e+06
   2.344525e+06  -2.814336e+06
   4.659264e+06   2.631624e+05
   2.798468e+06   2.245438e+06
  -1.130970e+06   1.900076e+06
  -3.208835e+06  -5.685760e+04
  -1.747363e+06  -1.527427e+06
   1.004967e+06  -1.047468e+06
   1.677518e+06   5.657622e+05
  -1.836005e+05   1.205861e+06
  -1.817589e+06   8.263297e+04
  -8.580898e+05  -1.448028e+06
   1.845660e+06  -1.657290e+06
   3.394251e+06  -1.694322e+05
   2.035343e+06   2.137653e+06
  -1.329243e+06   3.915947e+06
  -4.274030e+06   3.774461e+06
  -4.906413e+06   1.122961e+06
  -3.156888e+06  -2.661367e+06
  -6.391610e+05  -4.832463e+06
   8.167758e+05  -4.027383e+06
   8.252980e+05  -1.861715e+06
   5.866025e+05  -8.452872e+05
   1.249705e+06  -1.216316e+06
   2.455253e+06  -1.035360e+06
   2.817122e+06   7.389247e+05
   1.580369e+06   2.607482e+06
  -5.675440e+05   2.434319e+06
  -2.127462e+06   1.082902e+05
  -1.912438e+06  -2.345949e+06
   1.136305e+05  -2.883401e+06
   2.582014e+06  -1.190149e+06
   3.536569e+06   1.345223e+06
   2.190247e+06   2.937010e+06
  -1.278590e+05   2.821063e+06
  -1.384536e+06   1.731123e+06
  -1.229379e+06   9.765406e+05
  -1.242344e+06   9.773662e+05
  -2.550346e+06   8.876390e+05
  -3.994848e+06  -2.545569e+05
  -3.408115e+06  -2.269550e+06
  -3.871730e+05  -3.884923e+06
   2.953220e+06  -3.846984e+06
   4.079009e+06  -1.947122e+06
   2.473541e+06   6.974284e+05
  -7.909743e+04   2.274424e+06
  -1.314188e+06   1.705702e+06
  -4.997472e+05  -1.678647e+05
   1.114008e+06  -1.230340e+06
   1.696282e+06  -4.011865e+05
   7.184365e+05   1.046846e+06
  -5.893530e+05   1.105411e+06
  -6.886165e+05  -2.951731e+05
   5.526821e+05  -1.108666e+06
   1.775137e+06   1.889651e+05
   1.576397e+06   2.590437e+06
  -2.075836e+05   3.674173e+06
  -2.471777e+06   2.262438e+06
  -3.700094e+06  -5.313479e+05
  -2.988930e+06  -2.616858e+06
  -7.865179e+05  -2.801487e+06
   1.245228e+06  -1.520737e+06
   1.601493e+06  -2.042507e+05
   4.778636e+05   2.197838e+04
  -3.930914e+05  -6.984286e+05
   2.375965e+05  -1.199824e+06
   1.607186e+06  -6.267169e+05
   1.895732e+06   5.755064e+05
   5.281989e+05   1.197333e+06
  -1.050509e+06   6.676168e+05
  -1.039206e+06  -3.668433e+05
   6.644583e+05  -8.045147e+05
   2.326940e+06  -1.412993e+05
   2.157731e+06   1.189058e+06
   8.211833e+04   2.176832e+06
  -2.176366e+06   1.936440e+06
  -2.709150e+06   4.754087e+05
  -1.212944e+06  -1.068358e+06
   7.510381e+05  -1.339602e+06
   1.319263e+06  -2.114246e+05
   1.449048e+05   9.430157e+05
  -1.393390e+06   7.504795e+05
  -1.711632e+06  -5.803659e+05
  -5.709850e+05  -1.551349e+06
   8.624647e+05  -1.157835e+06
   1.271500e+06   3.497218e+04
   4.221560e+05   6.716951e+05
  -6.724925e+05   1.232724e+05
  -7.261838e+05  -9.559775e+05
   5.275073e+05  -1.381185e+06
   1.932909e+06  -5.698160e+05
   1.991421e+06   9.436706e+05
   4.724848e+05   1.958424e+06
  -1.245405e+06   1.654658e+06
  -1.626890e+06   3.533735e+05
  -5.936127e+05  -7.767023e+05
   5.594098e+05  -8.537673e+05
   7.061664e+05  -9.988282e+04
  -7.409425e+03   5.243357e+05
  -5.940353e+05   4.135235e+05
  -4.027469e+05  -8.879774e+04
   2.826238e+05  -1.830561e+05
   6.117285e+05   4.226525e+05
   2.894055e+03   1.119768e+06
  -1.236127e+06   9.790801e+05
  -2.036929e+06  -2.623901e+05
  -1.512841e+06  -1.795961e+06
   8.569255e+04  -2.399544e+06
   1.512688e+06  -1.584312e+06
   1.772033e+06  -7.052221e+04
   1.078126e+06   9.341763e+05
   4.170733e+05   9.029576e+05
   3.331120e+05   3.738958e+05
   4.417214e+05   2.112167e+05
   9.936315e+04   6.177580e+05
  -7.391795e+05   9.540162e+05
  -1.420628e+06   4.988002e+05
  -1.199326e+06  -6.690707e+05
   6.513384e+04  -1.583389e+06
   1.629075e+06  -1.251869e+06
   2.277998e+06   3.142659e+05
   1.306759e+06   1.951148e+06
  -7.175796e+05   2.341858e+06
  -2.311007e+06   1.236269e+06
  -2.389144e+06  -3.616991e+05
  -1.214821e+06  -1.236912e+06
   2.658618e+04  -1.109014e+06
   4.726608e+05  -6.919215e+05
   2.726111e+05  -7.280202e+05
   1.559231e+05  -1.138539e+06
   5.518430e+05  -1.178156e+06
   1.171345e+06  -3.373628e+05
   1.324516e+06   1.001887e+06
   6.200438e+05   1.829964e+06
  -5.557208e+05   1.434682e+06
  -1.268982e+06   9.412176e+04
  -8.970682e+05  -1.138917e+06
   1.964162e+05  -1.364897e+06
   9.761432e+05  -5.841308e+05
   8.022941e+05   4.319488e+05
   7.359547e+04   9.334182e+05
  -3.014221e+05   8.080794e+05
   1.431084e+04   4.798776e+05
   4.073356e+05   3.452337e+05
   5.737945e+04   3.871241e+05
  -1.044097e+06   2.857977e+05
  -1.938593e+06  -1.822410e+05
  -1.626547e+06  -8.651471e+05
  -1.441884e+05  -1.313395e+06
   1.362173e+06  -1.151380e+06
   1.721503e+06  -4.433276e+05
   8.737532e+05   2.900626e+05
  -1.687914e+05   4.965278e+05
  -4.547047e+05   1.184900e+05
  -3.074000e+03  -3.207969e+05
   4.663913e+05  -2.482922e+05
   4.680713e+05   3.129153e+05
   1.750172e+05   7.269311e+05
   1.522931e+04   4.735712e+05
   1.381212e+05  -1.750499e+05
   3.381856e+05  -3.969405e+05
   3.026580e+05   1.980707e+05
  -1.386811e+05   1.009053e+06
  -8.190722e+05   1.066795e+06
  -1.197134e+06   1.643690e+05
  -7.515037e+05  -8.588479e+05
   3.522925e+05  -1.032397e+06
   1.141842e+06  -2.852372e+05
   7.288719e+05   5.588585e+05
  -6.250937e+05   6.892937e+05
  -1.603554e+06   4.784476e+04
  -1.169959e+06  -7.604058e+05
   3.152160e+05  -1.078205e+06
   1.467805e+06  -6.970487e+05
   1.313069e+06   4.221960e+04
   2.138327e+05   5.212448e+05
  -6.097029e+05   3.475217e+05
  -3.566069e+05  -2.374359e+05
   5.995570e+05  -4.915813e+05
   1.157190e+06   1.010886e+05
   6.212726e+05   1.170478e+06
  -6.117404e+05   1.662786e+06
  -1.472229e+06   8.700990e+05
  -1.266777e+06  -7.272561e+05
  -2.688004e+05  -1.781621e+06
   6.709709e+05  -1.367576e+06
   9.403949e+05   6.559595e+04
   5.506245e+05   1.147410e+06
  -8.439864e+04   1.016341e+06
  -5.258743e+05   1.464988e+05
  -5.421465e+05  -3.646908e+05
  -2.379010e+05  -1.494493e+05
  -1.696749e+04   1.172993e+05
  -1.913332e+05  -2.336648e+05
  -5.121458e+05  -9.125100e+05
  -3.225475e+05  -1.072278e+06
   5.935241e+05  -4.378495e+05
   1.495308e+06   3.933561e+05
   1.384058e+06   7.662915e+05
   2.253915e+05   6.655868e+05
  -8.919176e+05   4.479501e+05
  -9.901363e+05   2.525257e+05
  -3.020354e+05   3.518109e+03
   1.601978e+05  -2.229005e+05
  -5.325934e+04  -2.419269e+05
  -3.508445e+05  -1.248792e+05
  -2.413484e+04  -1.354332e+05
   7.330626e+05  -2.319640e+05
   1.024548e+06  -7.293438e+03
   3.351149e+05   6.541779e+05
  -8.614800e+05   1.149279e+06
  -1.592685e+06   7.546340e+05
  -1.310283e+06  -4.164426e+05
  -2.966780e+05  -1.391237e+06
   6.800592e+05  -1.361413e+06
   1.013462e+06  -5.192412e+05
   6.691305e+05   2.471652e+05
   1.123743e+05   3.479283e+05
  -1.364994e+05   2.305613e+04
   5.270176e+04  -7.314767e+04
   3.480002e+05   3.262011e+05
   3.082179e+05   7.871162e+05
  -1.664913e+05   6.612843e+05
  -6.936745e+05  -1.444490e+05
  -7.218836e+05  -9.618473e+05
  -7.045054e+04  -1.006372e+06
   7.797622e+05  -2.026480e+05
   1.025833e+06   7.377758e+05
   3.375298e+05   1.057839e+06
  -6.898082e+05   6.418432e+05
  -1.070270e+06  -5.190359e+04
  -5.056819e+05  -5.343018e+05
   2.527884e+05  -6.139033e+05
   3.007298e+05  -3.610922e+05
  -3.097705e+05  -2.353042e+04
  -6.564004e+05   5.384727e+04
  -1.336382e+05  -2.856399e+05
   7.876512e+05  -7.105469e+05
   1.164128e+06  -6.296946e+05
   6.923193e+05   9.531405e+04
  -6.793338e+04   8.349793e+05
  -4.549040e+05   8.376581e+05
  -3.493772e+05   1.278032e+05
  -3.750630e+04  -4.977057e+05
   2.319535e+05  -4.035424e+05
   3.574918e+05   1.890285e+05
   2.634810e+05   5.619335e+05
  -5.230824e+04   3.707242e+05
  -3.851944e+05  -5.467847e+04
  -4.585194e+05  -2.187507e+05
  -2.413501e+05  -4.968891e+04
   9.532621e+03   1.020352e+05
   8.046368e+04  -5.421586e+04
   5.439541e+04  -3.868322e+05
   1.434819e+05  -4.829796e+05
   3.446569e+05  -1.227573e+05
   3.906433e+05   4.268306e+05
   7.677588e+04   6.437389e+05
  -4.205021e+05   2.974526e+05
  -6.277658e+05  -2.896243e+05
  -2.427188e+05  -5.797073e+05
   4.695454e+05  -3.705437e+05
   8.394438e+05   6.809055e+04
   4.692728e+05   3.563693e+05
  -2.757546e+05   3.624415e+05
  -6.072021e+05   1.952608e+05
  -2.012995e+05   1.718597e+04
   4.027400e+05  -3.514693e+04
   4.301093e+05   1.114456e+05
  -2.057828e+05   3.325579e+05
  -8.072272e+05   2.943030e+05
