
 $NMID
 id='ANONYMOUS ', fmtdat='(2E16.6)'
 volume=1.0
 tramp=1.0
 $END
  -4.951183e+07  -2.524965e+03
  -3.030876e+07  -2.969079e+07
   5.634575e+06  -3.328622e+07
   2.394650e+07  -1.399909e+07
   1.505791e+07   5.065576e+06
  -2.358416e+06   8.346624e+06
  -8.896514e+06  -3.165856e+05
  -3.167091e+06  -8.554252e+06
   5.071513e+06  -9.004708e+06
   8.643699e+06  -2.356880e+06
   6.409435e+06   5.607356e+06
   7.352990e+05   7.967683e+06
  -3.690322e+06   2.369909e+06
  -2.494862e+06  -5.336898e+06
   3.296711e+06  -6.380623e+06
   7.143542e+06   8.904878e+05
   4.222900e+06   9.108246e+06
  -3.191364e+06   1.066885e+07
  -8.977681e+06   5.290578e+06
  -9.519919e+06  -1.951377e+06
  -5.584907e+06  -6.620086e+06
  -4.488090e+05  -7.298267e+06
   2.212506e+06  -5.020276e+06
   9.129323e+05  -2.611671e+06
  -1.417131e+06  -2.656678e+06
   3.294413e+04  -4.328496e+06
   5.501762e+06  -3.946568e+06
   9.169888e+06  -7.022239e+04
   6.339839e+06   4.019623e+06
  -2.038794e+05   4.567714e+06
  -3.828015e+06   2.009014e+06
  -2.230072e+06  -5.055818e+05
   1.181871e+06  -1.225039e+06
   2.790199e+06  -2.804095e+05
   2.128523e+06   1.899540e+06
   2.356076e+05   3.977588e+06
  -1.843838e+06   3.345294e+06
  -2.599231e+06  -4.247451e+05
  -1.135765e+06  -3.225135e+06
   6.911484e+05  -1.261974e+06
   2.093214e+04   2.683934e+06
  -2.404989e+06   2.303582e+06
  -2.347923e+06  -2.785232e+06
   1.808840e+06  -5.503120e+06
   5.786716e+06  -1.069502e+06
   4.481002e+06   5.938331e+06
  -1.495243e+06   7.479455e+06
  -6.588767e+06   2.173843e+06
  -6.538552e+06  -4.024879e+06
  -1.972793e+06  -5.650001e+06
   3.204967e+06  -2.743896e+06
   5.138360e+06   1.219633e+06
   2.554583e+06   3.187078e+06
  -2.043094e+06   2.123291e+06
  -4.145394e+06  -6.899287e+05
  -1.893215e+06  -2.384636e+06
   1.511065e+06  -1.266257e+06
   1.737641e+06   9.230664e+05
  -9.787161e+05   1.051349e+06
  -2.321558e+06  -1.169778e+06
   1.041349e+05  -2.844275e+06
   3.756455e+06  -1.850190e+06
   4.743735e+06   8.942315e+05
   2.230095e+06   3.437985e+06
  -1.742402e+06   4.838888e+06
  -4.902056e+06   4.434833e+06
  -5.847038e+06   1.446455e+06
  -4.086672e+06  -3.083753e+06
  -7.493661e+05  -5.802167e+06
   1.617022e+06  -4.579435e+06
   1.528118e+06  -1.460732e+06
   3.637630e+05  -1.012946e+05
   4.549125e+05  -1.013239e+06
   1.933284e+06  -1.468395e+06
   2.815096e+06   1.709900e+05
   1.821774e+06   2.227021e+06
  -2.479500e+05   2.253415e+06
  -1.778623e+06   1.097853e+05
  -1.721034e+06  -2.257119e+06
   1.105985e+05  -2.958825e+06
   2.766573e+06  -1.455694e+06
   4.175799e+06   1.336370e+06
   2.850778e+06   3.567361e+06
  -1.152141e+05   3.797519e+06
  -2.027451e+06   2.397306e+06
  -1.942359e+06   1.086331e+06
  -1.690170e+06   7.739689e+05
  -2.886489e+06   5.668119e+05
  -4.300899e+06  -7.010189e+05
  -3.465319e+06  -2.733235e+06
  -1.197782e+05  -4.129856e+06
   3.278627e+06  -3.873196e+06
   4.263416e+06  -1.989293e+06
   2.616368e+06   5.852813e+05
   9.756246e+04   2.278427e+06
  -1.234175e+06   1.852236e+06
  -5.455295e+05  -9.182367e+04
   1.146865e+06  -1.276038e+06
   1.880321e+06  -3.675219e+05
   8.457466e+05   1.187436e+06
  -5.793614e+05   1.116199e+06
  -5.187491e+05  -3.864653e+05
   9.479229e+05  -8.450642e+05
   1.878143e+06   9.828996e+05
   9.206542e+05   3.306005e+06
  -1.255910e+06   3.584220e+06
  -3.055476e+06   1.467810e+06
  -3.504685e+06  -1.272494e+06
  -2.487795e+06  -2.859708e+06
  -4.923116e+05  -2.750745e+06
   1.308908e+06  -1.476025e+06
   1.621405e+06  -1.803608e+05
   4.977760e+05   5.163444e+04
  -3.588800e+05  -7.597256e+05
   3.923954e+05  -1.317144e+06
   1.862810e+06  -5.688110e+05
   2.019143e+06   8.497318e+05
   4.132106e+05   1.388974e+06
  -1.173592e+06   5.882549e+05
  -9.462083e+05  -4.654392e+05
   8.331652e+05  -6.061967e+05
   2.282496e+06   2.449933e+05
   1.881633e+06   1.396620e+06
  -2.109454e+05   2.084203e+06
  -2.369551e+06   1.720246e+06
  -2.824771e+06   2.714698e+05
  -1.215777e+06  -1.259822e+06
   9.154260e+05  -1.463252e+06
   1.519947e+06  -1.708443e+05
   1.654474e+05   1.060154e+06
  -1.527417e+06   7.212158e+05
  -1.739157e+06  -7.790586e+05
  -3.788787e+05  -1.673726e+06
   1.075716e+06  -1.035447e+06
   1.291660e+06   2.646642e+05
   2.911844e+05   7.767221e+05
  -7.765491e+05   6.155913e+04
  -7.232236e+05  -1.062424e+06
   6.085805e+05  -1.424996e+06
   2.040096e+06  -5.113036e+05
   2.039661e+06   1.090377e+06
   3.693925e+05   2.094989e+06
  -1.453234e+06   1.650911e+06
  -1.743574e+06   2.179461e+05
  -5.230090e+05  -8.753135e+05
   6.641455e+05  -8.227040e+05
   6.716780e+05  -6.615661e+04
  -1.033350e+05   4.192527e+05
  -5.472701e+05   2.575348e+05
  -2.080986e+05  -9.000777e+04
   4.160334e+05   3.432659e+03
   5.497965e+05   6.275472e+05
  -1.760621e+05   1.194001e+06
  -1.393428e+06   9.078817e+05
  -2.105402e+06  -4.299884e+05
  -1.463864e+06  -1.978774e+06
   2.442366e+05  -2.463716e+06
   1.661703e+06  -1.455840e+06
   1.755045e+06   1.170192e+05
   9.177644e+05   9.597597e+05
   3.259517e+05   7.564708e+05
   4.291530e+05   2.784452e+05
   5.779381e+05   2.969948e+05
   8.044204e+04   7.375770e+05
  -8.794217e+05   9.174675e+05
  -1.485743e+06   3.454861e+05
  -1.098735e+06  -7.566609e+05
   2.443562e+05  -1.528306e+06
   1.765159e+06  -1.105865e+06
   2.296462e+06   5.033837e+05
   1.159574e+06   2.134313e+06
  -1.002539e+06   2.391464e+06
  -2.559071e+06   1.057160e+06
  -2.405426e+06  -6.457392e+05
  -1.023284e+06  -1.371298e+06
   1.876896e+05  -1.017019e+06
   4.442506e+05  -5.619631e+05
   1.581250e+05  -7.500411e+05
   1.484634e+05  -1.276847e+06
   6.766480e+05  -1.268434e+06
   1.291492e+06  -3.023065e+05
   1.335830e+06   1.112356e+06
   5.408257e+05   1.930099e+06
  -6.512839e+05   1.452034e+06
  -1.310232e+06  -5.747679e+03
  -8.267657e+05  -1.290121e+06
   3.747488e+05  -1.412685e+06
   1.147624e+06  -4.452263e+05
   8.175874e+05   6.518893e+05
  -8.829704e+04   1.059193e+06
  -4.976821e+05   8.014121e+05
  -7.018225e+04   4.456871e+05
   4.252129e+05   3.557856e+05
   5.007143e+04   3.938428e+05
  -1.149259e+06   2.113236e+05
  -2.064886e+06  -3.425659e+05
  -1.632735e+06  -1.048356e+06
   1.615504e+04  -1.433715e+06
   1.583055e+06  -1.135274e+06
   1.849592e+06  -2.902777e+05
   8.581336e+05   4.663553e+05
  -2.505544e+05   5.561279e+05
  -5.095514e+05   4.863674e+04
  -1.653078e+04  -4.000951e+05
   4.651037e+05  -2.490300e+05
   4.804615e+05   3.518868e+05
   2.182312e+05   7.419186e+05
   6.346724e+04   4.863212e+05
   1.461914e+05  -1.160875e+05
   3.131473e+05  -3.183624e+05
   2.837469e+05   2.355691e+05
  -1.689525e+05   1.009091e+06
  -9.204323e+05   1.068545e+06
  -1.346291e+06   1.494334e+05
  -8.213574e+05  -9.333349e+05
   4.285464e+05  -1.125000e+06
   1.256684e+06  -3.049748e+05
   7.344338e+05   5.975197e+05
  -7.122970e+05   6.590475e+05
  -1.627805e+06  -9.748087e+04
  -1.053593e+06  -8.836049e+05
   4.758541e+05  -1.028028e+06
   1.540607e+06  -5.118905e+05
   1.280137e+06   1.878986e+05
   1.453997e+05   5.326037e+05
  -6.614045e+05   2.814643e+05
  -3.804068e+05  -2.928524e+05
   6.104075e+05  -5.117997e+05
   1.197945e+06   1.112570e+05
   6.488347e+05   1.214184e+06
  -6.397076e+05   1.715108e+06
  -1.528463e+06   8.711710e+05
  -1.270571e+06  -7.912134e+05
  -1.869318e+05  -1.832848e+06
   7.685688e+05  -1.325606e+06
   9.484132e+05   1.743249e+05
   4.444424e+05   1.219609e+06
  -2.155909e+05   9.998774e+05
  -5.696475e+05   8.946781e+04
  -4.848950e+05  -3.944596e+05
  -1.794435e+05  -1.486785e+05
  -4.559754e+04   1.022249e+05
  -2.637241e+05  -2.904152e+05
  -5.044457e+05  -9.845532e+05
  -2.018112e+05  -1.107764e+06
   7.134992e+05  -4.029018e+05
   1.503357e+06   4.879763e+05
   1.314238e+06   8.671985e+05
   1.851989e+05   7.112805e+05
  -8.864956e+05   4.170744e+05
  -1.011177e+06   1.817630e+05
  -3.584691e+05  -4.782130e+04
   1.548021e+05  -2.269043e+05
   2.535510e+04  -2.185709e+05
  -2.825510e+05  -1.089889e+05
  -4.493252e+04  -1.360336e+05
   6.906467e+05  -2.276314e+05
   1.065027e+06   2.314463e+04
   4.172137e+05   7.031022e+05
  -8.777146e+05   1.184895e+06
  -1.728389e+06   7.517956e+05
  -1.419390e+06  -4.535997e+05
  -2.656514e+05  -1.437233e+06
   7.878129e+05  -1.394487e+06
   1.072192e+06  -5.340299e+05
   6.672332e+05   2.480400e+05
   1.293015e+05   3.651574e+05
  -8.035071e+04   5.857608e+04
   8.107974e+04  -2.480533e+04
   3.098015e+05   3.750865e+05
   2.509968e+05   8.270945e+05
  -1.886090e+05   6.890483e+05
  -6.943736e+05  -1.342333e+05
  -7.413526e+05  -9.791934e+05
  -1.031025e+05  -1.049024e+06
   7.720303e+05  -2.395029e+05
   1.047127e+06   7.465440e+05
   3.449096e+05   1.110974e+06
  -7.301601e+05   6.813967e+05
  -1.135952e+06  -8.273216e+04
  -5.362845e+05  -6.206985e+05
   2.934374e+05  -6.834752e+05
   3.820858e+05  -3.736095e+05
  -2.580209e+05  -1.517864e+04
  -6.640372e+05   3.527986e+04
  -1.462106e+05  -3.129073e+05
   8.457620e+05  -6.890164e+05
   1.283447e+06  -5.509627e+05
   7.720513e+05   1.778272e+05
  -1.022242e+05   8.835553e+05
  -5.612466e+05   8.698968e+05
  -4.275030e+05   1.610002e+05
  -4.877087e+04  -4.901617e+05
   2.457709e+05  -4.396075e+05
   3.569127e+05   1.565002e+05
   2.559253e+05   5.897901e+05
  -5.504073e+04   4.307587e+05
  -3.975706e+05  -4.902819e+04
  -4.836498e+05  -2.843100e+05
  -2.480673e+05  -9.648577e+04
   3.362735e+04   1.487192e+05
   8.725352e+04   3.716932e+04
  -3.474600e+03  -3.607367e+05
   5.936242e+04  -5.523613e+05
   3.252679e+05  -2.127810e+05
   4.582228e+05   3.907870e+05
   1.501625e+05   6.583994e+05
  -4.184871e+05   3.165685e+05
  -6.729267e+05  -2.884199e+05
  -2.544086e+05  -5.862834e+05
   5.174264e+05  -3.712343e+05
   8.970364e+05   8.025327e+04
   4.863843e+05   3.862234e+05
  -2.994201e+05   4.047844e+05
  -6.498576e+05   2.281119e+05
  -2.526292e+05   1.895663e+04
   3.552962e+05  -6.404402e+04
   4.147893e+05   7.045917e+04
  -1.763414e+05   2.969246e+05
  -7.633205e+05   2.719486e+05
