
 $NMID
 id='ANONYMOUS ', fmtdat='(2E16.6)'
 volume=1.0
 tramp=1.0
 $END
  -6.037704e+07   1.237508e+06
  -3.711308e+07  -3.719916e+07
   7.467953e+06  -4.135935e+07
   2.967778e+07  -1.591667e+07
   1.786904e+07   7.763127e+06
  -3.609754e+06   1.015892e+07
  -1.065598e+07  -1.476856e+06
  -2.900438e+06  -1.061553e+07
   6.806545e+06  -9.914458e+06
   1.039028e+07  -2.060349e+06
   7.483038e+06   6.494264e+06
   9.526528e+05   9.035276e+06
  -4.129096e+06   3.001402e+06
  -2.720077e+06  -5.586953e+06
   4.061542e+06  -6.842744e+06
   8.449795e+06   1.437167e+06
   4.819121e+06   1.086586e+07
  -3.924864e+06   1.263804e+07
  -1.068280e+07   6.491201e+06
  -1.158470e+07  -1.895040e+06
  -7.360519e+06  -7.793894e+06
  -1.092007e+06  -9.342078e+06
   3.049382e+06  -6.778855e+06
   2.295697e+06  -3.021337e+06
  -8.456863e+05  -2.083150e+06
  -3.050286e+05  -4.123330e+06
   5.392558e+06  -4.604300e+06
   9.963158e+06  -7.340935e+05
   7.484313e+06   4.135619e+06
   5.375052e+05   5.259956e+06
  -3.625351e+06   2.804696e+06
  -2.494602e+06   2.771970e+05
   4.614934e+05  -6.857227e+05
   2.066760e+06  -4.385956e+05
   2.139242e+06   1.268856e+06
   8.569794e+05   3.883823e+06
  -1.721574e+06   4.123897e+06
  -3.480716e+06   1.670841e+05
  -2.064787e+06  -3.748020e+06
   6.699563e+05  -2.256265e+06
   4.047182e+05   2.338101e+06
  -2.556913e+06   2.350705e+06
  -2.623361e+06  -3.428491e+06
   2.622901e+06  -6.669694e+06
   7.601375e+06  -1.259080e+06
   5.690949e+06   7.362524e+06
  -1.925545e+06   9.238131e+06
  -7.893014e+06   2.724779e+06
  -7.350221e+06  -4.680044e+06
  -1.883109e+06  -6.379606e+06
   3.703017e+06  -2.803484e+06
   5.503060e+06   1.704671e+06
   2.479145e+06   3.751482e+06
  -2.625515e+06   2.356309e+06
  -4.842265e+06  -9.805820e+05
  -2.083234e+06  -2.924170e+06
   1.827052e+06  -1.483648e+06
   1.802419e+06   1.110043e+06
  -1.533537e+06   9.693076e+05
  -2.739157e+06  -2.006338e+06
   7.027273e+05  -3.888502e+06
   5.083475e+06  -2.158760e+06
   5.759434e+06   1.469154e+06
   2.515091e+06   4.282500e+06
  -1.806650e+06   5.561885e+06
  -5.110459e+06   5.107600e+06
  -6.421129e+06   1.945229e+06
  -4.883556e+06  -3.175352e+06
  -1.088221e+06  -6.430971e+06
   1.997545e+06  -5.016453e+06
   1.976467e+06  -1.207414e+06
   1.835172e+05   4.502184e+05
  -2.004828e+05  -8.661055e+05
   1.449373e+06  -1.865696e+06
   2.787515e+06  -3.858117e+05
   2.077239e+06   1.833043e+06
   9.002086e+04   2.097759e+06
  -1.490822e+06   1.801727e+05
  -1.651806e+06  -2.093372e+06
  -2.021813e+04  -2.985839e+06
   2.808577e+06  -1.761102e+06
   4.668855e+06   1.123967e+06
   3.480289e+06   3.868464e+06
   7.400001e+04   4.495441e+06
  -2.375130e+06   2.969593e+06
  -2.407263e+06   1.250877e+06
  -1.976062e+06   6.914982e+05
  -3.086442e+06   4.501761e+05
  -4.519472e+06  -8.350671e+05
  -3.594447e+06  -2.897059e+06
  -1.012058e+05  -4.265575e+06
   3.314836e+06  -3.998252e+06
   4.264351e+06  -2.188222e+06
   2.717821e+06   3.791046e+05
   3.291322e+05   2.249725e+06
  -1.077550e+06   1.991639e+06
  -5.761134e+05  -1.333421e+04
   1.105371e+06  -1.346574e+06
   1.984131e+06  -4.177290e+05
   9.831059e+05   1.244368e+06
  -5.210742e+05   1.133533e+06
  -4.031243e+05  -4.356427e+05
   1.206459e+06  -6.833411e+05
   1.990882e+06   1.491047e+06
   5.668015e+05   3.777265e+06
  -1.880653e+06   3.539590e+06
  -3.405803e+06   9.887083e+05
  -3.376833e+06  -1.665156e+06
  -2.205306e+06  -2.903641e+06
  -3.846266e+05  -2.660565e+06
   1.275336e+06  -1.482881e+06
   1.607841e+06  -2.309840e+05
   5.082680e+05   5.144984e+04
  -3.627973e+05  -7.837686e+05
   4.481467e+05  -1.411576e+06
   2.013387e+06  -6.017209e+05
   2.129755e+06   9.620413e+05
   3.803411e+05   1.504907e+06
  -1.233987e+06   5.736556e+05
  -8.893733e+05  -4.986474e+05
   9.280161e+05  -4.923710e+05
   2.240567e+06   4.323713e+05
   1.716553e+06   1.458197e+06
  -3.395910e+05   2.003709e+06
  -2.415481e+06   1.643277e+06
  -2.869113e+06   2.383110e+05
  -1.259061e+06  -1.337675e+06
   9.658697e+05  -1.580990e+06
   1.647496e+06  -2.044740e+05
   2.249040e+05   1.131055e+06
  -1.582210e+06   7.587491e+05
  -1.776427e+06  -8.459739e+05
  -3.013338e+05  -1.733697e+06
   1.183830e+06  -9.788159e+05
   1.307151e+06   3.824616e+05
   2.213358e+05   8.398751e+05
  -8.493463e+05   5.084836e+04
  -7.649502e+05  -1.101087e+06
   5.983295e+05  -1.473500e+06
   2.077142e+06  -5.552270e+05
   2.103807e+06   1.097838e+06
   3.808238e+05   2.159427e+06
  -1.521750e+06   1.694367e+06
  -1.802593e+06   1.884325e+05
  -4.998352e+05  -9.196435e+05
   7.034328e+05  -8.194779e+05
   6.367053e+05  -6.576693e+04
  -1.587112e+05   3.443829e+05
  -4.986616e+05   1.620401e+05
  -6.468294e+04  -8.403759e+04
   5.140254e+05   1.216054e+05
   5.284441e+05   7.494709e+05
  -2.531451e+05   1.246407e+06
  -1.455637e+06   9.088934e+05
  -2.154409e+06  -4.561640e+05
  -1.500601e+06  -2.029055e+06
   2.514993e+05  -2.495196e+06
   1.692347e+06  -1.415197e+06
   1.727645e+06   1.812061e+05
   8.253067e+05   9.282963e+05
   2.821563e+05   6.209061e+05
   5.075155e+05   1.799444e+05
   6.902626e+05   3.287513e+05
   1.023149e+05   8.148206e+05
  -9.320316e+05   9.203743e+05
  -1.502434e+06   2.950758e+05
  -1.044847e+06  -7.633575e+05
   3.079566e+05  -1.481100e+06
   1.798693e+06  -1.064313e+06
   2.308466e+06   5.369607e+05
   1.132416e+06   2.199197e+06
  -1.100113e+06   2.450951e+06
  -2.673496e+06   1.026193e+06
  -2.422063e+06  -7.478969e+05
  -9.273053e+05  -1.415647e+06
   2.653010e+05  -9.458216e+05
   3.945645e+05  -4.748415e+05
   3.492952e+04  -7.617785e+05
   8.147804e+04  -1.372169e+06
   7.052718e+05  -1.353531e+06
   1.354222e+06  -3.314892e+05
   1.379333e+06   1.123207e+06
   5.611862e+05   1.960150e+06
  -6.517338e+05   1.477972e+06
  -1.328333e+06  -2.328425e+04
  -8.236595e+05  -1.354598e+06
   4.424982e+05  -1.452167e+06
   1.247894e+06  -3.885915e+05
   8.535151e+05   7.746985e+05
  -1.604476e+05   1.149791e+06
  -6.060235e+05   8.135704e+05
  -1.155143e+05   4.189631e+05
   4.492470e+05   3.387084e+05
   6.220798e+04   3.909381e+05
  -1.206346e+06   2.062299e+05
  -2.153849e+06  -3.640830e+05
  -1.668112e+06  -1.101804e+06
   7.142200e+04  -1.513081e+06
   1.681582e+06  -1.184971e+06
   1.914905e+06  -2.544055e+05
   8.606243e+05   5.580660e+05
  -2.831318e+05   6.077714e+05
  -5.443171e+05   1.900850e+04
  -4.715056e+04  -4.531355e+05
   4.456156e+05  -2.660000e+05
   4.994015e+05   3.547652e+05
   2.816589e+05   7.313663e+05
   1.213273e+05   4.849083e+05
   1.462921e+05  -7.628219e+04
   2.778065e+05  -2.681965e+05
   2.783818e+05   2.475491e+05
  -1.430638e+05   1.003808e+06
  -9.372113e+05   1.101030e+06
  -1.436603e+06   2.020278e+05
  -9.082757e+05  -9.386299e+05
   4.277851e+05  -1.202412e+06
   1.312952e+06  -3.757402e+05
   7.561363e+05   5.858069e+05
  -7.407189e+05   6.608560e+05
  -1.632301e+06  -1.343684e+05
  -9.929521e+05  -9.221670e+05
   5.478078e+05  -1.001237e+06
   1.557976e+06  -4.338412e+05
   1.250423e+06   2.409036e+05
   1.149844e+05   5.297911e+05
  -6.820924e+05   2.579796e+05
  -4.086481e+05  -3.141750e+05
   5.872352e+05  -5.482894e+05
   1.218532e+06   6.299659e+04
   7.164748e+05   1.201489e+06
  -5.746052e+05   1.760694e+06
  -1.511514e+06   9.292473e+05
  -1.292619e+06  -7.727396e+05
  -2.044267e+05  -1.840719e+06
   7.751767e+05  -1.312240e+06
   9.528456e+05   2.127501e+05
   4.137287e+05   1.242039e+06
  -2.693284e+05   9.880272e+05
  -5.936678e+05   7.176183e+04
  -4.532175e+05  -3.923598e+05
  -1.389256e+05  -1.404375e+05
  -6.310906e+04   9.206597e+04
  -3.306119e+05  -3.158303e+05
  -5.375650e+05  -1.004306e+06
  -1.563381e+05  -1.115054e+06
   7.791634e+05  -4.062191e+05
   1.513351e+06   4.870143e+05
   1.284192e+06   8.766379e+05
   1.851320e+05   7.293846e+05
  -8.522656e+05   4.265818e+05
  -1.007557e+06   1.705890e+05
  -4.006314e+05  -6.850338e+04
   1.385091e+05  -2.332057e+05
   7.647612e+04  -2.011222e+05
  -2.309181e+05  -8.498736e+04
  -6.681637e+04  -1.320993e+05
   6.385037e+05  -2.505968e+05
   1.083630e+06  -2.565218e+03
   5.073827e+05   7.094887e+05
  -8.242624e+05   1.235103e+06
  -1.775130e+06   8.204652e+05
  -1.504548e+06  -4.088300e+05
  -3.035854e+05  -1.441581e+06
   7.961572e+05  -1.439340e+06
   1.078053e+06  -5.880304e+05
   6.679181e+05   2.155356e+05
   1.576541e+05   3.671939e+05
  -3.230210e+04   8.679236e+04
   1.022980e+05   7.950366e+03
   2.947640e+05   3.950036e+05
   2.418275e+05   8.375342e+05
  -1.717158e+05   7.102493e+05
  -6.912351e+05  -9.384875e+04
  -7.899897e+05  -9.456597e+05
  -1.744674e+05  -1.061450e+06
   7.434419e+05  -2.981720e+05
   1.082053e+06   6.957323e+05
   3.968620e+05   1.120526e+06
  -7.191332e+05   7.360338e+05
  -1.175280e+06  -5.231977e+04
  -5.832161e+05  -6.534261e+05
   2.875423e+05  -7.421148e+05
   4.224052e+05  -3.982092e+05
  -2.146961e+05   9.935511e+02
  -6.595833e+05   5.044957e+04
  -1.687143e+05  -3.223646e+05
   8.487710e+05  -7.023584e+05
   1.335510e+06  -5.439410e+05
   8.332005e+05   2.015922e+05
  -8.631719e+04   9.141442e+05
  -5.952349e+05   9.111006e+05
  -4.729966e+05   2.060794e+05
  -7.818526e+04  -4.747887e+05
   2.319833e+05  -4.724958e+05
   3.571096e+05   1.134544e+05
   2.737030e+05   5.917646e+05
  -3.505768e+04   4.733003e+05
  -4.034515e+05  -2.600530e+04
  -5.110935e+05  -3.083628e+05
  -2.556403e+05  -1.197921e+05
   5.998285e+04   1.801646e+05
   9.622941e+04   1.026886e+05
  -6.282712e+04  -3.333843e+05
  -3.299389e+04  -5.973416e+05
   2.930513e+05  -2.924890e+05
   5.195496e+05   3.348502e+05
   2.340818e+05   6.509777e+05
  -3.962505e+05   3.452715e+05
  -7.108637e+05  -2.518562e+05
  -2.861371e+05  -5.713459e+05
   5.303585e+05  -3.913066e+05
   9.326710e+05   4.655433e+04
   5.108915e+05   3.815698e+05
  -2.939866e+05   4.456973e+05
  -6.621779e+05   2.803077e+05
  -2.874014e+05   3.302333e+04
   3.101788e+05  -9.918946e+04
   3.987962e+05   2.040392e+04
  -1.395872e+05   2.721625e+05
  -7.077482e+05   2.830551e+05
