
 $NMID
 id='ANONYMOUS ', fmtdat='(2E16.6)'
 volume=1.0
 tramp=1.0
 $END
  -4.781392e+03  -1.109884e+02
  -2.502108e+03  -2.557941e+03
   5.443798e+02  -2.847191e+03
   2.270695e+03  -1.064238e+03
   9.564845e+02   7.879772e+02
  -6.534685e+02   5.579805e+02
  -8.848383e+02  -4.354739e+02
   1.253740e+01  -1.133342e+03
   9.680957e+02  -7.292973e+02
   1.042723e+03   1.556591e+02
   5.075804e+02   9.608984e+02
  -1.864677e+02   9.135265e+02
  -5.991863e+02   1.651901e+02
  -3.817262e+02  -6.632212e+02
   2.898008e+02  -7.672197e+02
   6.467966e+02   8.269384e+01
   3.167159e+02   6.918467e+02
  -3.053218e+02   6.431916e+02
  -6.474755e+02   3.407213e+01
  -3.330407e+02  -3.878560e+02
   9.220259e+01  -4.861782e+02
   1.875685e+02  -2.559971e+02
   2.282934e+02  -8.131602e+01
  -1.846101e+02  -4.298721e+00
  -4.053513e+02  -6.727791e+01
  -2.244118e+02  -4.304074e+02
   4.948175e+02  -4.903510e+02
   8.355053e+02   1.648462e+02
   4.955040e+02   5.649982e+02
  -4.168367e+02   5.115809e+02
  -7.782400e+02  -9.909195e+01
  -3.735587e+02  -5.356290e+02
   2.900648e+02  -5.427920e+02
   6.821916e+02  -1.711954e+02
   4.877777e+02   2.957630e+02
   7.975682e+01   4.914818e+02
  -1.986903e+02   2.114650e+02
  -1.888156e+02  -2.587288e+02
   2.263131e+02  -4.121580e+02
   4.849747e+02  -2.823549e+00
   2.607146e+02   7.450440e+02
  -3.074830e+02   7.839272e+02
  -6.990201e+02   3.895369e+01
  -2.629826e+02  -5.509865e+02
   2.875228e+02  -3.534390e+02
   3.988384e+02   2.831427e+02
  -6.722798e+01   5.606688e+02
  -5.806817e+02   1.146503e+02
  -6.478806e+02  -4.418692e+02
  -1.061966e+02  -6.309406e+02
   4.306069e+02  -3.842347e+02
   6.960753e+02   7.001157e+01
   3.577279e+02   4.561418e+02
  -1.928705e+02   4.122812e+02
  -4.534662e+02   4.431797e+01
  -2.214616e+02  -2.478108e+02
   9.601344e+01  -1.634234e+02
   1.441342e+02   1.404300e+02
  -1.869924e+02   1.976050e+02
  -2.916238e+02  -5.743709e+01
  -1.544657e+02  -3.044769e+02
   2.498507e+02  -2.591907e+02
   3.077078e+02  -7.678560e+01
   1.372829e+02   9.594129e+01
  -1.094987e+01   2.313898e+02
  -2.374668e+02   3.524543e+02
  -3.552451e+02   2.270518e+02
  -3.347680e+02  -1.454766e+02
  -9.371138e+01  -4.974808e+02
   1.120670e+02  -3.909590e+02
   1.161745e+02  -1.276134e+02
   1.023106e+01   2.133506e+01
   4.504514e+01  -7.995096e+01
   2.040863e+02  -1.493167e+02
   3.234437e+02   2.164618e+01
   2.376047e+02   3.128095e+02
  -6.837537e+01   2.892001e+02
  -2.270051e+02   1.597548e+01
  -1.837183e+02  -2.693298e+02
   4.423125e+01  -2.950158e+02
   2.747901e+02  -1.034647e+02
   3.502963e+02   2.612989e+02
   1.392219e+02   3.734898e+02
  -1.139704e+02   2.784982e+02
  -2.228688e+02   1.142700e+02
  -1.201018e+02  -9.854495e+00
  -1.615462e+02   5.021291e+01
  -2.774880e+02   4.320218e+01
  -3.872311e+02  -3.042905e+01
  -3.200879e+02  -2.717498e+02
  -4.680612e+01  -4.276942e+02
   3.576872e+02  -4.261201e+02
   4.914693e+02  -2.225241e+02
   3.197320e+02   2.776378e+01
   3.120735e+01   2.540072e+02
  -9.327305e+01   2.712230e+02
  -6.325215e+01   5.670040e+01
   8.821149e+01  -9.671604e+01
   1.780285e+02   6.956402e+01
   3.162875e+01   2.117445e+02
  -1.560441e+02   1.624662e+02
  -1.773101e+02  -6.161148e+01
  -2.378325e+01  -2.073295e+02
   2.018279e+02  -2.834289e+01
   1.998810e+02   2.345663e+02
  -2.072624e+01   3.196255e+02
  -2.704817e+02   1.602223e+02
  -3.078088e+02  -6.444330e+01
  -2.805699e+02  -2.640659e+02
  -5.564880e+01  -2.343035e+02
   1.236039e+02  -1.928021e+02
   1.055735e+02  -7.529301e+00
   2.802760e+01   6.320248e+01
  -2.278999e+01  -5.835296e+00
  -3.925811e+01  -1.200423e+02
   1.315966e+02  -1.072900e+02
   1.546572e+02   2.970365e+00
   5.836551e+01   9.918911e+01
  -1.138806e+02   5.277750e+01
  -5.322061e+01  -7.737000e+01
   1.442783e+02  -1.248622e+02
   2.777314e+02   4.540434e-01
   2.550519e+02   1.342461e+02
   6.787841e+01   2.499787e+02
  -1.544059e+02   2.659499e+02
  -3.051209e+02   1.364771e+02
  -1.654854e+02  -4.198846e+01
   3.270248e+01  -5.612599e+01
   3.809617e+01   1.292143e+01
  -1.010906e+02   8.757843e+01
  -2.089499e+02   4.867532e+00
  -1.824638e+02  -1.552825e+02
  -5.637143e+01  -2.072826e+02
   1.276641e+02  -1.687383e+02
   1.326530e+02  -2.935425e-01
   4.027511e+01   5.571074e+01
  -9.217751e+01  -2.301536e+01
  -5.289795e+01  -1.012033e+02
   1.044056e+02  -8.564600e+01
   2.524840e+02  -1.047768e+01
   2.173407e+02   1.039558e+02
   4.903237e+01   2.516093e+02
  -1.862784e+02   1.779011e+02
  -2.113612e+02   1.465217e+01
  -2.295261e+01  -1.299828e+02
   8.174039e+01  -9.461692e+01
   3.475712e+01  -1.105602e+01
   2.531498e+01   3.983792e+01
   4.294179e+00   1.006368e+01
  -2.047553e+00  -1.592035e+01
   7.656163e+01  -2.427340e+01
   1.026970e+02   9.760495e+01
   1.384211e+01   1.849283e+02
  -7.753139e+01   1.505153e+02
  -2.413342e+02   2.910132e+01
  -2.243787e+02  -1.159370e+02
  -7.451885e+01  -2.558556e+02
   1.124721e+02  -1.670994e+02
   1.758595e+02  -3.803239e+01
   6.574980e+01   6.091942e+01
   3.946857e+01   1.232977e+02
   3.956268e+01   8.440476e+00
   1.227203e+02  -2.226904e+01
   5.743911e+01   7.957580e+00
  -2.172907e+01   9.803912e+01
  -9.654797e+01   5.978509e+01
  -9.006515e+01  -3.035766e+01
   1.851629e+01  -6.399028e+01
   1.482195e+02  -6.250329e+01
   2.295766e+02  -6.672341e+00
   1.058085e+02   2.242955e+02
  -1.260446e+02   2.017165e+02
  -3.228868e+02   8.893268e+01
  -2.102537e+02  -1.532219e+02
  -9.600555e+01  -1.702969e+02
  -8.144300e-01  -1.553170e+02
   8.681052e+01  -1.274861e+02
   1.222465e+02  -6.109692e+01
   1.026651e+02  -4.944699e+01
   1.017317e+02  -5.104151e+01
   1.428227e+02   2.941993e+01
   1.328160e+02   1.379431e+02
   1.913112e+01   2.169714e+02
  -9.581023e+01   1.648359e+02
  -2.106911e+02   2.443479e+01
  -1.388187e+02  -1.570371e+02
  -2.556603e+01  -1.612492e+02
   8.728716e+01  -6.528312e+01
   8.266956e+01   3.477202e+01
  -1.718406e+01   6.788604e+01
   4.038128e+00   6.946673e+01
   3.190861e+01   3.183762e+01
   6.430731e+01  -7.684146e+00
   5.044400e+01   2.425546e+01
  -9.194258e+01   4.657727e+01
  -1.489831e+02   4.796539e+01
  -2.064803e+02  -9.617045e+01
  -2.654189e+01  -1.032713e+02
   1.065266e+02  -1.192549e+02
   2.133176e+02   2.479735e+01
   8.661349e+01   6.581107e+01
  -4.602404e+01   2.936985e+01
  -7.771976e+01   1.262746e+01
   4.183462e+00  -9.401764e+01
   5.997390e+01  -2.079376e+01
   6.199037e+01   2.308401e+01
   8.165495e+01   5.301907e+01
   5.767830e+01   1.390545e+01
   5.143586e+01  -8.865908e+00
   5.467557e+01   2.222986e+01
   6.251432e+01   3.958389e+01
  -2.775056e+01   1.265332e+02
  -7.023381e+01   1.069464e+02
  -1.713680e+02   7.501934e+01
  -1.240713e+02  -7.534247e+01
   5.941610e+00  -1.422124e+02
   7.281266e+01  -8.040660e+01
   3.378128e+01   6.986730e+00
  -4.346999e+01   3.744276e+01
  -1.269252e+02  -6.236869e+01
  -6.949666e+01  -9.201927e+01
   7.178067e+01  -6.775538e+01
   1.524385e+02  -8.283238e+01
   1.400913e+02  -7.946145e+00
   2.619408e+01   8.501799e+01
  -6.068094e+01   7.044066e+01
  -2.028520e+01  -1.758973e+01
   1.627418e+01  -1.717186e+01
   1.004013e+02   3.563665e+01
  -2.891005e+01   1.212957e+02
  -8.509652e+01   1.590119e+02
  -2.045380e+02   7.081809e+01
  -1.554165e+02  -1.098230e+02
  -1.425092e+01  -1.983439e+02
   8.572231e+01  -1.313116e+02
   9.159895e+01  -1.169095e+01
   8.985694e+01   6.804665e+01
   5.992744e+00   7.679534e+01
  -3.869204e+01   1.954886e+01
  -5.747481e+01  -3.847270e+01
  -1.472820e+01  -8.549179e+00
   6.997353e+00  -3.059841e+00
  -2.172290e+01   4.655280e+01
  -6.863501e+01  -6.500828e+01
  -4.275704e+01  -1.243973e+02
   3.352214e+01  -2.934820e+01
   1.260208e+02   3.822571e+01
   1.687597e+02   7.486485e+01
   1.563102e+01   3.152590e+01
  -7.536384e+01  -3.074854e+00
  -5.630503e+01  -7.148501e+00
   1.598084e+01  -2.336219e+01
   3.844352e+01   1.746856e+01
  -7.390069e+00   7.223874e+00
  -2.816684e+01  -2.732324e+01
   2.260843e+00  -2.869068e+01
   9.085460e+01   1.689455e+01
   6.203435e+01  -3.003979e+00
   2.343249e+01   1.058178e+02
  -1.584910e+02   1.233688e+02
  -2.120386e+02   1.229637e+02
  -1.692241e+02  -4.204696e+01
  -4.087006e+01  -2.032796e+02
   1.098057e+02  -1.566820e+02
   6.403377e+01  -5.285812e+01
   7.992530e+01  -3.004477e+00
  -1.128061e+01   1.488345e+01
  -1.232387e+01   1.326342e+01
  -2.195848e+01  -9.007434e+00
   2.239543e+01   7.227351e+01
   7.467394e+00   1.040154e+02
  -2.342597e+01   6.912233e+01
  -3.910658e+01   1.112522e+01
  -8.560674e+01  -9.835755e+01
  -4.149434e+01  -1.278171e+02
   5.939336e+01   3.212981e+00
   1.111617e+02   9.527844e+01
   2.538546e+01   1.247824e+02
  -9.125675e+01   3.351769e+01
  -1.033424e+02  -4.331192e+01
   4.623459e+00  -5.262552e+01
   5.404406e+00  -3.713212e+01
   5.696741e+00  -1.689506e+01
  -2.373341e+01   8.675976e+00
  -8.714071e+01   2.100897e+01
   1.677915e-01  -6.378250e+01
   1.318193e+02  -6.991043e+01
   1.286665e+02  -1.884696e+01
   8.423281e+01   5.278565e+01
  -3.183953e+01   5.102525e+01
  -3.887206e+01   7.142007e+01
  -2.620318e+01  -3.664465e+00
   2.224719e+01  -4.377795e+01
   2.655346e+01  -1.704343e+01
   1.722268e+01   2.426482e+01
   1.612702e+01   1.143373e+01
  -1.962673e+00   3.756150e+01
  -8.286859e+01  -2.125580e+01
  -2.676450e+01  -1.321397e+01
  -6.166602e+01  -5.854021e+00
   1.263619e+01   4.735717e+01
   9.760450e+00   5.418032e+01
  -3.946890e+00  -4.628553e+01
   1.519762e+01  -4.629520e+01
   6.936940e+01   1.716810e+01
   5.281462e+01   8.998958e+00
   1.056794e+01   8.502944e+01
  -7.520153e+01   5.771540e+01
  -8.126502e+01  -4.144224e+01
  -3.873539e+01  -7.473827e+01
   2.863920e+01  -3.165095e+01
   9.492042e+01   8.760748e+00
  -9.230413e+00   3.338679e+01
  -5.500100e+01   2.354853e+01
  -4.384905e+01   1.048392e+01
  -2.350381e+01  -1.728020e+01
   6.918556e+01   6.136925e+01
   1.108617e+01   6.917376e+01
  -6.347924e+01   1.908034e+01
  -8.040002e+01  -3.911257e+01
