
 $NMID
 id='ANONYMOUS ', fmtdat='(2E16.6)'
 volume=1.0
 tramp=1.0
 $END
   4.424570e+03   6.185878e+00
   2.870773e+03   2.586722e+03
  -5.398858e+02   2.882905e+03
  -2.249262e+03   9.188240e+02
  -1.111397e+03  -8.065869e+02
   6.555302e+02  -6.195532e+02
   9.495958e+02   4.183576e+02
   1.275439e+02   1.242581e+03
  -7.788457e+02   8.804719e+02
  -1.034886e+03  -6.272443e+01
  -5.132514e+02  -8.630216e+02
   2.476215e+02  -9.225179e+02
   7.143941e+02  -9.988367e+01
   4.653885e+02   7.861475e+02
  -2.617781e+02   9.826559e+02
  -5.662881e+02   2.061949e+01
  -2.892636e+02  -7.168564e+02
   3.322661e+02  -7.005397e+02
   6.952400e+02  -9.326284e+01
   4.333124e+02   4.672563e+02
  -1.525981e+01   5.573581e+02
  -3.138642e+02   2.751807e+02
  -2.029906e+02   2.114543e+01
   1.193224e+02  -3.015507e+01
   4.550811e+02   1.615455e+02
   1.554374e+02   4.431379e+02
  -4.641799e+02   4.314659e+02
  -9.171371e+02  -3.729230e+01
  -4.856148e+02  -5.670240e+02
   4.249377e+02  -5.354252e+02
   7.646457e+02   8.142489e+01
   3.802702e+02   5.427799e+02
  -2.929406e+02   5.072052e+02
  -6.219278e+02   1.407747e+02
  -4.393920e+02  -2.833725e+02
  -8.169624e+00  -5.887677e+02
   2.396518e+02  -3.248380e+02
   2.399743e+02   2.616809e+02
  -1.754321e+02   5.156634e+02
  -4.454083e+02   2.912505e+00
  -2.691406e+02  -8.066740e+02
   3.390073e+02  -7.773203e+02
   6.675356e+02   1.935253e+01
   2.388953e+02   6.236140e+02
  -3.076611e+02   3.228458e+02
  -4.580277e+02  -3.259935e+02
   4.787187e+01  -6.308123e+02
   6.165390e+02  -1.998488e+02
   6.734964e+02   4.194929e+02
   1.535794e+02   6.101452e+02
  -3.989707e+02   3.654560e+02
  -7.044261e+02  -1.281163e+02
  -3.521510e+02  -4.241778e+02
   2.160715e+02  -3.854593e+02
   4.819313e+02   3.879291e+00
   2.624032e+02   2.232134e+02
  -1.783515e+02   1.201211e+02
  -1.856225e+02  -2.110116e+02
   1.505168e+02  -2.287229e+02
   3.976280e+02   4.512409e+01
   1.813697e+02   3.608084e+02
  -2.113113e+02   3.071902e+02
  -4.205468e+02   6.917494e+01
  -2.695601e+02  -9.377010e+01
   9.754910e+00  -2.449908e+02
   2.766822e+02  -3.755791e+02
   3.962852e+02  -2.300238e+02
   3.053885e+02   1.063213e+02
   7.509215e+01   3.959907e+02
  -1.301050e+02   4.389703e+02
  -1.022176e+02   1.098722e+02
  -1.768952e+01   7.106691e+01
  -4.569866e+01   1.350951e+02
  -1.797860e+02   1.523733e+02
  -2.901370e+02  -2.731718e+01
  -1.915643e+02  -2.974977e+02
   3.226312e+01  -2.588916e+02
   1.808183e+02  -1.595495e+01
   2.373403e+02   2.191612e+02
   4.655062e+01   3.466827e+02
  -3.301541e+02   1.018223e+02
  -4.170910e+02  -1.689725e+02
  -2.333327e+02  -4.376914e+02
   1.709127e+02  -3.548264e+02
   2.967689e+02  -8.988279e+01
   1.369927e+02   2.259589e+01
   1.082954e+02  -4.106827e+01
   2.224605e+02  -5.835985e+01
   4.176149e+02   3.151424e+01
   3.561607e+02   2.785657e+02
  -1.552838e+01   4.655879e+02
  -3.852920e+02   4.152102e+02
  -4.793328e+02   2.464714e+02
  -3.515004e+02  -1.400722e+02
  -6.225489e+00  -3.181560e+02
   1.053675e+02  -2.237890e+02
   8.307344e+01  -3.546944e+01
  -8.868804e+01   8.314433e+01
  -1.995073e+02   2.275497e+01
  -6.411831e+01  -2.204828e+02
   1.696927e+02  -1.669259e+02
   2.019135e+02   8.552753e+01
  -3.456996e+01   2.298817e+02
  -2.192520e+02   4.434668e+01
  -2.239685e+02  -2.718706e+02
   3.371784e+01  -4.006280e+02
   1.977710e+02  -2.143563e+02
   3.578224e+02   4.040738e+01
   3.234822e+02   2.471926e+02
   1.324846e+02   3.060528e+02
  -1.201584e+02   1.778596e+02
  -2.128907e+02   4.165770e+01
  -6.888342e+01  -5.950798e+01
   5.811775e+01   9.736376e+00
   1.398078e+01   1.288335e+02
  -1.124225e+02   1.149917e+02
  -1.815983e+02  -1.683526e+01
  -7.204834e+01  -6.657849e+01
   4.917939e+01  -2.486861e+00
   3.591969e+01   5.601325e+01
  -9.453643e+01   7.343764e+01
  -2.911171e+02  -1.224098e+01
  -3.015573e+02  -2.258940e+02
  -6.171281e+01  -2.978149e+02
   2.223507e+02  -2.827023e+02
   2.968668e+02  -1.224505e+02
   2.020494e+02   5.370779e+01
  -2.348007e+01   1.521398e+02
  -1.221868e+02   2.096249e+01
   4.491199e+01  -8.526577e+01
   1.849712e+02  -5.579665e+01
   2.160757e+02   9.682940e+01
   7.076439e+01   1.751543e+02
  -8.544184e+01   1.111642e+02
  -1.390563e+02  -9.915502e+00
  -9.842568e+01  -5.322833e+01
   3.138065e+01  -1.313735e+01
   7.879342e+01   8.215881e+01
  -6.804055e+01   1.347213e+02
  -1.806975e+02   1.431678e+01
  -1.891941e+02  -1.247256e+02
  -2.629246e+01  -2.574434e+02
   1.863844e+02  -1.819430e+02
   1.779221e+02   3.315959e+01
   3.799585e+01   1.296931e+02
  -9.961854e+01   1.230410e+02
  -1.060959e+02   4.935684e+01
  -9.634894e+00  -4.619438e+01
   2.682656e+01  -5.358376e+01
   8.742504e+00  -1.181754e+01
  -4.016941e+01   2.342743e+01
  -7.846664e+01  -6.495968e+01
  -2.890484e+01  -1.415172e+02
   1.355974e+02  -1.692535e+02
   2.568592e+02  -5.028955e+01
   2.001826e+02   8.304324e+01
   6.437472e+01   2.288650e+02
  -1.257090e+02   2.088601e+02
  -1.432255e+02   5.951390e+01
  -7.658838e+01  -3.380338e+01
  -6.424412e+01  -8.182976e+01
  -6.611247e+01   1.724774e+01
  -7.899368e+01   4.329641e+01
   2.006936e+01  -3.635905e+01
   1.060559e+02  -1.368797e+02
   1.051378e+02  -5.559183e+01
   7.062428e+01   5.866209e+01
  -8.062045e+01   1.589194e+02
  -1.505471e+02   9.338131e+01
  -2.019874e+02  -7.748457e+01
  -8.914290e+01  -2.257829e+02
   1.250621e+02  -2.661056e+02
   2.982464e+02  -1.157933e+02
   2.656975e+02   6.558964e+01
   1.307575e+02   1.517952e+02
   3.720594e+00   1.438290e+02
  -1.244419e+02   1.176320e+02
  -1.137711e+02   6.889940e+01
  -5.219798e+01   1.278300e+02
  -9.012047e+01   8.980743e+01
  -1.077718e+02  -3.884483e+01
  -1.473285e+02  -1.473564e+02
  -2.108648e+01  -2.549797e+02
   1.257336e+02  -1.636248e+02
   1.644132e+02  -4.185794e+01
   1.601879e+02   1.550964e+02
   2.373030e+01   1.834422e+02
  -6.368981e+01   6.939951e+01
  -4.307941e+01   5.747478e-01
  -1.761295e+01  -4.139490e+01
   2.141599e+01  -3.755464e+01
  -6.304523e+01  -9.591731e+00
  -1.145353e+02  -1.852995e+01
  -6.794218e+01  -5.580245e+01
   5.596879e+01  -3.764209e+01
   1.708751e+02  -2.169923e+00
   1.914096e+02   9.540363e+01
  -7.286963e-01   1.045175e+02
  -1.561714e+02   4.586534e+01
  -1.935223e+02  -1.334579e+01
  -5.632658e+01  -3.487271e+01
   8.105763e+01  -3.394389e+01
   1.091196e+02  -7.580324e+00
   2.221785e+01   6.125512e+01
  -2.787192e+01   1.217644e+02
  -4.988472e+01   1.976931e+01
  -5.384714e+01  -5.980241e+01
  -4.155703e+01  -2.975950e+01
  -7.020008e+01  -1.734397e+01
  -5.569164e+01  -2.748529e+01
  -5.964231e+01  -7.739747e+01
   2.745021e+01  -1.054916e+02
   1.496940e+02  -1.198748e+02
   1.490510e+02  -4.284242e+01
   1.508792e+02   4.906459e+01
  -2.673093e+01   1.028707e+02
  -9.928289e+01   4.072440e+01
  -3.892542e+01  -2.531862e+00
   9.774062e+01  -3.208423e+01
   1.412082e+02   6.383297e+01
   8.429617e+01   1.282809e+02
  -1.110574e+02   1.056444e+02
  -2.152022e+02   4.814995e+01
  -1.709473e+02  -6.791064e+01
  -1.507031e+01  -1.192185e+02
   8.146748e+01  -8.259095e+01
   6.734487e+00  -1.741676e+01
  -1.782561e+01   2.471588e+01
  -6.839277e+01  -4.434017e+00
   2.102181e+01  -1.243760e+02
   9.199362e+01  -2.224192e+02
   1.900584e+02  -1.060513e+02
   1.238212e+02   1.137525e+02
  -9.321514e+00   2.342688e+02
  -7.683946e+01   1.548470e+02
  -1.136765e+02   6.923977e+00
  -2.791146e+01  -1.136209e+02
   2.719256e+01  -8.026034e+01
   9.197206e+01  -1.732084e-01
   3.937240e+01   1.702400e+01
   2.609398e+01  -8.977581e-01
  -1.949255e+01   9.050937e+00
  -7.152532e+00   2.853923e+01
   4.045033e+01   6.188994e+01
   1.370758e+01   1.003467e+02
  -6.733115e+01   3.022358e+01
  -1.155623e+02  -8.553001e+01
  -6.121826e+01  -1.329469e+02
  -6.428007e+01  -7.843582e+01
   8.813941e+01  -8.545300e+01
   1.198511e+02   3.422074e+01
   7.853692e+00   9.141305e+01
  -2.045266e+01   2.941191e+01
   3.668056e+00   3.020737e+01
   4.122706e+01  -1.819064e+01
  -3.208427e+00  -7.345819e+00
  -6.607004e+01   3.874573e+00
  -1.060407e+02  -4.403027e+01
  -2.819780e+01  -9.415123e+01
   8.736898e+01  -1.333613e+02
   2.260084e+02  -3.732388e+01
   2.063887e+02   4.997548e+01
   5.201602e+01   1.013849e+02
  -8.172783e+01   1.210277e+02
  -9.783813e+01   5.825466e+01
  -8.550389e+01   1.431415e+01
   3.947379e+00   1.664771e+01
  -7.844096e+00  -8.461508e+00
   2.579635e+01  -3.316959e+01
  -6.409275e+00  -5.259965e+01
  -2.098441e+01  -1.053977e+02
   7.282463e+01  -5.581047e+01
   1.453480e+02   4.698142e+01
   8.151260e+01   1.151272e+02
  -7.068205e+00   1.086003e+02
  -8.444464e+01   2.531113e+01
  -1.207467e+02  -9.812150e+01
  -7.495379e+01  -1.014064e+02
   8.110253e+01  -2.870414e+01
   4.981827e+01   6.003850e+00
   1.728186e+01   8.514100e+01
  -5.349455e+01   5.336310e+01
  -6.379042e+01   3.783245e+01
   4.091505e+01   1.074604e+01
   9.272135e+01  -2.781474e+01
   3.183544e+00   5.601133e+00
  -6.424444e+01   9.665197e+01
  -6.408844e+01   3.811296e+01
  -8.053510e+01  -2.197557e+01
   2.074579e+01  -1.120871e+02
   6.771040e+01  -9.506288e+01
   5.874169e+01  -1.308426e+00
   4.201494e+01   7.848094e+01
  -5.349988e+01   5.892379e+01
  -5.814289e+01   3.967755e+00
  -6.510195e+00  -2.964359e+01
  -3.335290e+01   2.202230e+00
  -8.518327e+00   7.563642e+00
   3.520950e+01  -3.548811e+00
   6.492668e+01   1.712880e+01
   3.654738e+01  -2.809378e+00
   6.334249e+00  -2.849248e+01
   2.586718e+00   3.236859e+01
  -2.018849e+01   4.192843e+01
  -2.376921e+01   1.907160e+01
  -7.983104e+00  -7.369088e+01
   1.204318e+01  -7.527263e+01
   3.763345e+01   5.749637e-03
   7.714880e+01   9.111087e+01
  -1.802421e+01   1.046588e+02
  -5.009141e+01   2.077358e+01
  -1.113487e+02  -2.669448e+01
  -4.038188e+01  -1.179941e+01
   2.471353e+01  -5.778300e+01
   5.612049e+01  -2.352870e+01
   7.177938e+00  -1.537341e+00
  -7.204264e+01  -1.147412e-02
  -1.343466e+01  -5.327487e+01
   5.802831e+01  -4.032363e+01
   1.066951e+02  -3.035813e+01
