
 $NMID
 id='ANONYMOUS ', fmtdat='(2E16.6)'
 volume=1.0
 tramp=1.0
 $END
  -4.661138e+03   7.581492e+01
  -2.863284e+03  -2.760076e+03
   9.673341e+02  -3.075847e+03
   2.311872e+03  -1.001867e+03
   1.203741e+03   5.057811e+02
  -7.541351e+02   7.470655e+02
  -1.072698e+03  -4.924329e+02
   5.529650e+01  -1.170262e+03
   8.508794e+02  -8.191210e+02
   1.039439e+03   1.211088e+02
   6.365494e+02   9.534768e+02
  -3.541931e+02   1.005654e+03
  -6.741245e+02   1.087835e+02
  -4.271485e+02  -8.008120e+02
   3.302993e+02  -7.810173e+02
   6.908102e+02   2.422258e+01
   3.095190e+02   7.463428e+02
  -4.173580e+02   6.756729e+02
  -6.466724e+02   4.779140e+01
  -4.852785e+02  -4.204524e+02
   1.463613e+01  -5.001681e+02
   2.510161e+02  -2.365371e+02
   2.400440e+02  -2.121388e+00
  -8.894202e+01   1.035842e+02
  -3.808227e+02  -6.785857e+01
  -2.303147e+02  -5.903630e+02
   5.326281e+02  -5.055948e+02
   9.996326e+02   1.127191e+02
   4.925031e+02   6.448893e+02
  -5.031621e+02   5.621552e+02
  -8.518858e+02  -6.466603e+01
  -4.269724e+02  -5.571560e+02
   3.386340e+02  -6.023302e+02
   7.029462e+02  -1.838489e+02
   4.293516e+02   2.814577e+02
   2.099491e+01   5.601170e+02
  -2.851022e+02   3.036520e+02
  -1.957369e+02  -2.426420e+02
   1.724433e+02  -4.804740e+02
   5.274976e+02  -3.118330e+01
   2.619663e+02   7.484810e+02
  -3.746684e+02   7.465387e+02
  -7.010282e+02  -5.562062e+01
  -2.692512e+02  -6.578957e+02
   3.445243e+02  -3.598361e+02
   4.862685e+02   3.609210e+02
  -6.323143e+01   6.374092e+02
  -6.516674e+02   1.769637e+02
  -6.699975e+02  -4.847632e+02
  -1.686995e+02  -6.691375e+02
   4.323536e+02  -3.505912e+02
   7.146374e+02   1.472899e+02
   3.682427e+02   4.894625e+02
  -2.549193e+02   4.006242e+02
  -4.768922e+02   5.550328e+01
  -2.152150e+02  -2.507904e+02
   1.775165e+02  -1.257820e+02
   1.600879e+02   2.438559e+02
  -1.598629e+02   2.673991e+02
  -3.819294e+02  -1.337969e+02
  -1.726336e+02  -3.923073e+02
   2.355358e+02  -2.904038e+02
   3.604532e+02  -4.207719e+01
   2.091637e+02   1.003190e+02
  -4.586817e+01   2.267345e+02
  -2.310460e+02   3.262006e+02
  -3.742729e+02   2.273406e+02
  -2.818884e+02  -1.534240e+02
  -8.154307e+00  -4.813638e+02
   1.422904e+02  -4.211354e+02
   1.523996e+02  -1.042333e+02
   1.074641e+01   4.091440e+01
   5.434536e+01  -8.758205e+01
   1.843688e+02  -1.334806e+02
   2.755158e+02   4.340711e+01
   1.684546e+02   3.274687e+02
  -1.599769e+01   2.656617e+02
  -2.482250e+02   5.214241e+01
  -2.432434e+02  -1.908008e+02
  -6.422039e+01  -3.219604e+02
   2.967222e+02  -1.727178e+02
   3.779401e+02   1.484830e+02
   1.993624e+02   3.990864e+02
  -1.231076e+02   3.284229e+02
  -2.382463e+02   1.115850e+02
  -1.657997e+02   1.845148e+01
  -1.196576e+02   2.875152e+01
  -2.461386e+02   4.477183e+01
  -4.039658e+02  -7.509522e+01
  -3.365936e+02  -2.468741e+02
  -1.659339e+01  -4.395227e+02
   3.767920e+02  -4.577601e+02
   5.419412e+02  -2.345240e+02
   3.961608e+02   1.202987e+02
   6.102985e+01   3.176670e+02
  -1.389623e+02   2.765021e+02
  -9.002800e+01   5.929277e+01
   1.257855e+02  -9.616307e+01
   2.760955e+02   9.825813e+00
   5.027190e+01   2.336855e+02
  -2.253965e+02   1.638615e+02
  -2.291934e+02  -3.719098e+01
   9.442891e+00  -2.087740e+02
   2.305508e+02  -5.450277e+01
   1.685313e+02   2.757830e+02
  -3.093880e+01   3.724556e+02
  -2.599764e+02   1.866942e+02
  -3.323906e+02  -7.783635e+01
  -2.896613e+02  -2.496079e+02
  -8.332944e+01  -2.776186e+02
   1.168869e+02  -2.108662e+02
   2.041790e+02  -6.664670e+00
   7.828772e+01   4.629647e+01
  -7.148976e+01  -3.957550e+01
  -2.010095e+01  -1.249471e+02
   1.351188e+02  -1.173272e+02
   1.544264e+02   5.464277e+00
   5.862379e+01   5.013712e+00
  -7.118933e+01   8.449154e+00
  -4.407151e+01  -5.057451e+01
   1.719680e+02  -1.161065e+02
   3.211981e+02  -2.188289e+01
   3.022611e+02   1.638200e+02
   6.880898e+01   2.676204e+02
  -1.826574e+02   3.510273e+02
  -2.809087e+02   1.414871e+02
  -1.516654e+02  -9.091820e+01
   3.749307e+01  -9.563114e+01
   6.120747e+01  -5.530232e+00
  -3.245728e+01   1.022285e+02
  -1.950756e+02   8.371120e+01
  -2.374740e+02  -1.410073e+02
  -5.901748e+01  -2.025594e+02
   6.967176e+01  -1.564987e+02
   1.729655e+02  -3.911349e+01
   9.727410e+01   2.436953e+01
   3.173075e+00   4.137415e+01
  -5.308255e+01  -5.556143e+01
   5.952386e+01  -1.109465e+02
   2.090690e+02  -2.288162e+01
   2.221346e+02   1.328080e+02
   2.548784e+01   2.139546e+02
  -1.861580e+02   1.419054e+02
  -2.011276e+02  -6.705923e+00
  -6.550617e+01  -1.159460e+02
   4.949839e+01  -1.115400e+02
   1.092760e+02  -2.469762e+00
   1.215406e+01  -6.806363e+00
  -1.459464e+00   1.309225e+01
  -6.118276e+00  -2.405936e+01
   6.693328e+01   2.167774e+01
   1.248401e+02   1.253237e+02
   2.661938e+01   1.486773e+02
  -1.318337e+02   1.322299e+02
  -2.323565e+02   7.302056e+00
  -2.378999e+02  -1.300705e+02
  -1.300611e+01  -2.592891e+02
   1.737464e+02  -1.710903e+02
   1.444395e+02  -4.528540e+01
   1.939385e+01   5.645992e+01
  -5.698639e+00   1.796856e+01
   2.241939e+01  -9.713888e+00
   7.124625e+01  -1.108726e+01
   3.176542e+01   9.169904e+01
  -6.480798e+01   7.003944e+01
  -1.048790e+02   3.982498e+01
  -9.732622e+01  -4.118256e+01
   3.132283e+01  -1.348589e+02
   1.900903e+02  -6.019053e+01
   2.058135e+02   6.462557e+01
   1.001919e+02   2.406003e+02
  -1.320451e+02   2.814624e+02
  -3.256207e+02   7.954233e+01
  -2.346204e+02  -1.190526e+02
  -9.786011e+01  -2.043595e+02
   2.998494e+01  -1.844753e+02
   1.155821e+02  -1.679972e+02
   8.067287e+01  -5.342419e+00
   9.888388e+01  -1.065360e+02
   1.395269e+02  -5.719475e+01
   1.376566e+02   7.786609e+01
   1.355916e+02   1.703776e+02
   2.898912e+01   2.952011e+02
  -1.630367e+02   1.717874e+02
  -1.773732e+02   1.199165e+01
  -1.192843e+02  -1.159870e+02
  -7.355531e+00  -1.634246e+02
   1.253248e+02  -7.147488e+01
   4.968450e+01   1.510762e+01
  -1.251098e+01   1.343807e+01
  -1.476110e+00   3.215075e+00
   4.729824e+01   4.590341e+01
   9.055708e+01   5.051667e+01
   5.416138e+01   3.909929e+01
  -7.461193e+01   4.634841e+01
  -1.659059e+02   4.905064e+00
  -1.415913e+02  -2.300100e+01
   1.948704e+01  -6.019959e+01
   1.549764e+02  -1.024254e+02
   1.254660e+02  -2.810434e+01
   5.418500e+01   5.772807e+01
  -1.249357e+02   5.563226e+01
  -9.040914e+01  -1.155794e+01
   4.973572e+00  -1.362908e+02
   1.281301e+02  -1.105221e+02
   7.603892e+01  -1.082951e+01
   3.013847e+01   5.732142e+01
   2.581702e+01   3.975496e+01
   9.064480e+01   1.551469e+01
   5.589359e+01  -1.517484e+01
   2.667018e+01   9.919377e+01
  -1.377750e+01   1.439115e+02
  -9.551626e+01   1.054202e+02
  -1.644442e+02   2.748204e+01
  -1.332280e+02  -1.041190e+02
  -3.887830e+01  -1.470087e+02
   5.888362e+01  -6.309885e+01
   2.791652e+01  -1.340129e+01
  -6.643459e+01   3.829157e+01
  -1.362167e+02  -3.795090e+01
  -8.475287e+01  -1.433553e+02
   1.072432e+02  -1.228444e+02
   1.802612e+02  -7.186387e+01
   1.703659e+02   6.547852e+00
   4.138274e+01   9.858226e+01
  -1.020893e+02   8.222045e+01
  -5.444559e+01   3.257981e+01
   1.464045e+01  -4.388895e+01
   1.355274e+02  -1.227779e+00
   3.526491e+01   1.138674e+02
  -1.272053e+02   1.284046e+02
  -1.668917e+02   6.102905e+01
  -1.625305e+02  -1.238522e+02
  -4.673061e+01  -1.928357e+02
   7.529901e+01  -1.669744e+02
   1.481679e+02  -1.808949e+01
   9.848884e+01   1.124598e+02
  -1.192715e+01   1.184452e+02
  -5.034517e+01   3.035068e+01
  -8.887162e+01  -2.301526e+01
  -5.581295e+01  -3.303759e+01
  -1.678031e+01   1.522287e+01
  -3.427218e+01  -3.931898e+01
  -7.085555e+01  -7.217211e+01
  -4.977660e+01  -7.762749e+01
   7.028445e+01  -4.335638e+01
   1.211853e+02   2.868704e+01
   7.947739e+01   5.606047e+01
  -6.693849e-01   4.852786e+01
  -1.068186e+02   2.977672e+01
  -5.077804e+01   2.194566e+01
   3.757331e+01  -5.641221e+01
   8.744154e+01  -5.800178e+01
  -9.003557e+00  -3.739084e+01
  -3.904788e+01   2.376776e+01
   5.084236e+01  -4.751296e+00
   8.951737e+01   4.154113e+01
   1.235880e+02   5.501373e+01
   1.083568e+00   6.789954e+01
  -1.194543e+02   1.102405e+02
  -2.241365e+02   9.730456e+01
  -1.907765e+02  -4.490566e+01
  -2.990197e+01  -1.829810e+02
   7.457396e+01  -1.750710e+02
   1.003322e+02  -4.300499e+01
   6.105480e+01   4.902963e+01
   4.287186e+01   2.906368e+01
  -2.513374e+01  -1.710333e+01
  -1.712604e+01  -1.517825e+01
   4.283976e-01   2.147838e+01
  -1.731888e+01   1.116137e+02
  -3.758563e+01   5.720792e+01
  -3.301704e+01  -1.840914e+01
  -7.957437e+01  -1.133629e+02
  -1.536229e+01  -9.050037e+01
   6.075249e+01  -1.809613e+01
   8.612936e+01   3.765045e+01
   3.943206e+01   6.506124e+01
  -7.731269e+01   7.495226e+01
  -1.042802e+02   1.331692e+01
  -2.561336e+01  -4.308936e+01
   3.361796e+01  -5.000310e+01
   5.278820e+01  -2.223828e+01
  -3.459738e+01   2.422102e+01
  -1.096518e+02   2.402124e+01
  -5.137064e+01  -2.977680e+01
   7.324351e+01  -4.955196e+01
   1.289515e+02  -7.556697e+01
   7.005390e+01  -1.744067e+01
  -5.147928e+01   5.931525e+01
  -4.314277e+01   1.160306e+02
  -1.255697e+01   1.095593e+01
  -1.265952e+01  -9.917040e+01
   4.378973e+01  -2.969365e+01
   1.512694e+01   1.531478e+01
  -5.256425e+00   6.286182e+01
  -4.325284e+01   6.221778e+01
  -4.164911e+01  -1.534458e+01
  -9.039131e+01  -4.714872e+01
  -2.816550e+01   1.452590e+00
   3.396614e+01  -2.440369e+01
   3.456394e+01  -4.956357e+00
   6.267844e+01  -4.656401e+01
   6.072124e+01  -1.348717e+01
   5.341217e+01  -1.583480e+01
   3.398498e+01   4.518714e+01
  -1.290127e+01   9.368220e+01
  -5.469540e+01   3.166382e+00
  -6.656544e+01  -5.458605e+01
  -2.390294e+01  -9.181032e+01
   9.520035e+01  -1.363208e+01
   1.065969e+02  -6.745815e+00
   3.845928e+01   4.923769e+01
  -7.554752e+01   3.150068e+01
  -5.040744e+01   2.958068e+01
   1.148222e+01  -3.400510e+01
   6.709324e+01  -2.836673e+01
   6.739272e+01   1.672511e+01
  -4.615781e+01   1.921593e+01
  -1.262891e+02   4.883646e+01
