
 $NMID
 id='ANONYMOUS ', fmtdat='(2E16.6)'
 volume=1.0
 tramp=1.0
 $END
  -4.716749e+03   7.796518e+01
  -2.651450e+03  -3.079564e+03
   9.490335e+02  -3.061483e+03
   2.277109e+03  -6.593435e+02
   9.296081e+02   8.552487e+02
  -9.139172e+02   6.813054e+02
  -1.068086e+03  -5.613312e+02
   1.006566e+00  -1.167813e+03
   8.864004e+02  -9.002156e+02
   9.656813e+02   1.172822e+02
   4.883328e+02   9.195702e+02
  -4.038523e+02   9.658135e+02
  -7.798519e+02   4.425436e+01
  -4.639370e+02  -7.755725e+02
   3.033070e+02  -8.332074e+02
   7.515147e+02   8.546868e+00
   2.253087e+02   7.813053e+02
  -4.653398e+02   6.143759e+02
  -5.982632e+02   1.131462e+02
  -3.775380e+02  -3.812345e+02
  -1.209205e+01  -4.548805e+02
   2.940330e+02  -3.042032e+02
   2.290771e+02   3.314742e+01
  -1.695899e+02   1.447828e+02
  -4.760667e+02  -6.992321e+01
  -2.049467e+02  -5.660383e+02
   6.050214e+02  -4.934588e+02
   9.616820e+02   1.012547e+02
   4.428731e+02   6.046309e+02
  -4.283948e+02   5.328376e+02
  -8.126223e+02  -8.454481e+01
  -4.192334e+02  -5.388561e+02
   3.393838e+02  -6.460939e+02
   6.711099e+02  -2.425590e+02
   4.639392e+02   2.665840e+02
   4.309109e+01   6.032502e+02
  -2.623582e+02   3.081673e+02
  -1.770097e+02  -3.193058e+02
   2.136279e+02  -5.130736e+02
   4.695505e+02  -1.016197e+01
   2.383702e+02   7.618683e+02
  -3.731885e+02   7.303511e+02
  -6.363588e+02  -7.118282e-01
  -2.842093e+02  -6.398968e+02
   2.627208e+02  -3.727613e+02
   4.028799e+02   3.713171e+02
  -5.344226e+01   6.469252e+02
  -5.685916e+02   1.688962e+02
  -6.188192e+02  -4.562763e+02
  -1.749771e+02  -6.534295e+02
   3.844432e+02  -4.009547e+02
   6.701994e+02   1.806706e+02
   3.902467e+02   4.632225e+02
  -2.051812e+02   3.864378e+02
  -5.007227e+02   4.369106e+01
  -2.213286e+02  -2.212569e+02
   1.436307e+02  -1.252284e+02
   1.675864e+02   1.255884e+02
  -1.699573e+02   1.770206e+02
  -3.160202e+02  -1.212071e+02
  -1.227436e+02  -2.696189e+02
   2.710715e+02  -2.018678e+02
   3.255113e+02  -7.109199e+01
   2.091763e+02   1.623232e+01
  -4.272601e+00   1.717126e+02
  -1.559037e+02   3.449759e+02
  -3.221764e+02   2.226841e+02
  -3.328909e+02  -1.156682e+02
  -8.798457e+01  -4.576928e+02
   1.452186e+02  -4.525804e+02
   1.698207e+02  -1.285987e+02
  -8.277502e+00   5.395150e+01
   3.414016e+01  -6.809883e+01
   1.119195e+02  -1.878862e+02
   3.001541e+02   8.262117e+00
   1.831569e+02   2.769111e+02
  -2.890516e+01   2.650850e+02
  -2.463557e+02  -1.514116e+01
  -2.235729e+02  -2.361570e+02
   8.229133e+00  -2.823090e+02
   2.971448e+02  -1.272375e+02
   4.100635e+02   1.556301e+02
   2.031128e+02   3.402762e+02
  -8.200391e+01   3.566490e+02
  -2.237240e+02   1.759580e+02
  -1.330362e+02   6.070306e+00
  -1.078542e+02   4.631329e+01
  -2.524773e+02   5.084356e+01
  -4.122053e+02  -8.463514e+01
  -3.278403e+02  -3.147990e+02
   1.698513e+01  -4.220147e+02
   3.614049e+02  -4.138091e+02
   4.633804e+02  -2.020604e+02
   3.428065e+02   6.784619e+01
   5.187787e+01   2.867154e+02
  -1.371833e+02   2.808334e+02
  -9.584357e+01  -6.209037e+00
   1.027214e+02  -1.257133e+02
   2.356057e+02  -3.665423e+01
   8.232380e+01   1.970984e+02
  -1.779711e+02   1.919691e+02
  -1.853605e+02  -3.232923e+01
   6.586624e+01  -2.154448e+02
   2.427076e+02  -3.565027e+01
   1.613281e+02   2.463739e+02
  -2.050070e+01   3.697690e+02
  -2.416074e+02   2.042694e+02
  -3.313057e+02  -3.640668e+01
  -3.199238e+02  -2.457673e+02
  -9.854415e+01  -2.460647e+02
   1.313851e+02  -1.688224e+02
   1.828522e+02  -2.677008e+01
   2.747353e+01   5.820729e+01
  -1.037018e+02  -3.687180e+01
  -6.515453e+01  -1.471337e+02
   1.276711e+02  -1.124200e+02
   2.095851e+02   4.643978e+00
   7.029968e+01   1.193810e+02
  -4.515253e+01   5.293974e+01
  -4.131625e+01  -5.572676e+01
   9.476610e+01  -9.988155e+01
   2.476953e+02  -4.998500e+01
   2.722607e+02   9.772737e+01
   8.273883e+01   2.249787e+02
  -1.200933e+02   2.959329e+02
  -2.953710e+02   1.379719e+02
  -1.812450e+02  -4.367718e+01
   4.215075e+01  -1.202391e+02
   6.207335e+01  -2.191001e+01
  -7.215577e+00   9.596367e+01
  -2.045517e+02   6.198829e+01
  -2.259159e+02  -1.409463e+02
  -5.054859e+01  -2.005109e+02
   1.180211e+02  -1.629133e+02
   1.644653e+02  -3.588225e+01
   1.437020e+02   6.085271e+01
   1.989653e+01   4.061665e+01
  -6.517629e+01  -5.741058e+01
   8.421361e+01  -1.430884e+02
   1.950252e+02  -5.681239e+01
   2.062670e+02   1.313900e+02
   1.678395e+01   2.260563e+02
  -2.236577e+02   1.587046e+02
  -2.237436e+02   4.354486e+01
  -6.557777e+01  -1.461264e+02
   2.352706e+01  -1.310356e+02
   9.957461e+01  -7.781727e+01
   4.243818e+01   5.327858e+01
  -1.962952e+01   5.183101e+01
   5.876472e+00   1.482830e+01
   2.670195e+01   3.504408e+01
   7.959663e+01   9.069933e+01
   3.378311e+01   1.246993e+02
  -1.252289e+02   1.679806e+02
  -2.650256e+02   6.028971e+01
  -2.715889e+02  -1.738655e+02
  -2.665249e+01  -2.654816e+02
   1.099396e+02  -1.977844e+02
   9.956280e+01  -3.538830e+01
   6.501854e+01   5.552086e+01
   5.205451e+01   4.773797e+01
   9.244320e+00  -3.339340e+01
   8.604764e+01  -4.287014e+01
   6.886024e+01   2.438931e+00
  -1.305135e+01   7.541568e+01
  -6.056889e+01   6.103405e+01
  -7.283060e+01  -3.579661e+00
  -5.258826e+00  -6.180802e+01
   1.660822e+02  -1.029786e+02
   1.674716e+02   1.527952e+01
   9.403179e+01   1.754581e+02
  -5.403079e+01   2.382191e+02
  -2.853721e+02   6.893629e+01
  -2.478327e+02  -8.026834e+01
  -1.087080e+02  -1.960131e+02
   2.455843e+01  -1.562319e+02
   8.874569e+01  -8.891417e+01
   1.275954e+02  -6.428805e+01
   8.702739e+01  -7.140450e+01
   1.033971e+02  -6.254832e+01
   1.502548e+02   1.868406e+01
   1.083458e+02   1.572840e+02
   3.642051e+01   2.420743e+02
  -1.077379e+02   1.487147e+02
  -2.032614e+02   3.423695e+01
  -1.428889e+02  -1.455260e+02
  -1.628796e+01  -1.467707e+02
   8.656618e+01  -4.174577e+01
   7.349092e+01  -1.446129e+01
   3.457079e+01   6.053823e+01
  -2.345671e+01   9.370949e+00
   7.426855e+00  -1.313348e+01
   8.001812e+01   1.569123e+01
   3.697978e+01   9.866934e+01
  -5.573428e+01   3.086880e+01
  -1.260765e+02   1.298037e+01
  -1.443475e+02  -1.135799e+01
  -5.617503e+01  -1.377303e+02
   1.292425e+02  -7.963502e+01
   1.357850e+02  -3.982573e+01
   7.400235e+01   5.809402e+01
  -1.987974e+01   3.913207e+01
  -5.991989e+01   1.366882e+01
  -6.904932e+01  -6.181717e+01
   4.346304e+01  -1.784493e+01
   4.552925e+01   1.946489e+01
   3.197484e+01   3.898649e+01
   6.815907e+01   4.501399e+01
   6.411241e+01  -7.305149e+00
   9.785121e+01   5.598702e+01
   1.302162e+01   4.980892e+01
  -3.873763e+01   1.277232e+02
  -1.260478e+02   1.325478e+02
  -1.641000e+02   1.344460e+01
  -1.178602e+02  -1.118499e+02
  -3.047995e+01  -1.275169e+02
   1.000316e+02  -3.813732e+01
   1.008090e+02   2.131336e+01
  -2.719243e+01   2.795318e+01
  -1.228282e+02  -3.213169e+01
  -7.028462e+01  -9.801237e+01
   5.105519e+01  -1.225705e+02
   1.841244e+02  -3.800351e+01
   1.798245e+02   5.243422e+01
   7.348554e+00   6.548525e+01
  -2.158617e+01   6.367184e+01
  -9.593475e+00   2.127360e+01
   2.027687e+01  -1.849092e+01
   9.122396e+01   7.669582e+01
   2.094589e+01   1.173439e+02
  -1.325017e+02   1.317072e+02
  -1.851789e+02   3.787908e+01
  -1.111520e+02  -9.178925e+01
  -2.211122e+01  -1.643612e+02
   4.108626e+01  -1.330843e+02
   1.157166e+02   2.742873e+01
   6.374364e+01   1.143298e+02
  -9.515951e+00   8.616998e+01
  -1.891438e+01   2.720729e+01
  -4.608639e+01  -4.600352e+01
  -6.122324e+01   4.236155e+01
  -2.615458e+01  -1.170126e+01
  -2.680435e+01  -2.316298e+01
  -9.376868e+01  -8.820871e+01
  -3.221776e+00  -1.306926e+02
   5.213779e+01  -5.221842e+01
   1.377043e+02   5.778426e+01
   1.317401e+02   8.838836e+01
   1.832680e+01  -5.435703e+00
  -7.804804e+01   2.246236e+01
  -1.261143e+02   3.446569e+01
   2.161507e+00  -1.067689e+01
   2.745726e+01  -2.186126e+01
   1.566397e+01  -2.868906e+01
  -4.843479e+01   5.035061e+00
   2.222896e+01  -8.619203e+00
   7.524344e+01   2.115799e+01
   9.180629e+01  -5.020198e+01
  -8.164818e+00   3.767317e+01
  -1.207253e+02   8.048879e+01
  -1.240027e+02   5.659870e+01
  -1.307555e+02  -6.892022e+00
  -1.522793e+01  -1.401806e+02
   2.265389e+01  -1.157593e+02
   9.211143e+01  -6.085302e+01
   1.112100e+02  -2.569087e+01
   6.916372e+01   4.185698e+01
   9.060726e+00   2.371243e+01
  -2.669252e+01   1.565842e+00
   1.176419e+01   2.968678e+01
   4.591649e+01   8.746172e+01
  -3.138865e+00   3.447352e+01
  -8.932424e+01  -7.762169e+01
  -5.218759e+01  -1.373043e+02
   2.132040e+01  -9.092088e+01
   4.272767e+01  -4.293739e+01
   1.086121e+02   6.983128e+01
   4.162953e+01   1.657693e+02
  -4.456518e+01   4.993903e+01
  -9.758722e+01  -1.053107e+01
  -4.110240e+01  -4.676589e+01
  -1.672349e+01  -8.812262e+01
   2.698888e+01  -4.302440e+01
  -1.854396e+01  -5.498623e-01
  -6.516370e+01   2.188189e+01
  -4.284812e+01  -8.767418e+00
   6.625481e+01  -4.111811e+01
   1.231682e+02  -5.898397e+01
   2.802568e+01   3.686207e+01
   3.566162e+00   4.275332e+01
  -1.208020e+01   5.655131e+01
   7.845624e+00   4.791547e+01
  -4.488729e+01  -6.411973e+01
   4.526641e+01  -1.066209e+02
   8.341843e+01   4.738929e+01
   7.756277e+01   5.014945e+01
  -3.958067e+00   4.064895e+01
  -4.250216e+01   2.239529e+01
  -7.431364e+01  -2.652803e+01
  -7.040356e+01  -7.870520e+00
  -1.416079e+01  -5.061093e+00
   5.841536e+00  -1.080534e+01
   1.085934e+01  -3.677432e+01
   5.842641e+00  -5.549692e+01
   1.858327e+01  -4.717793e+01
   7.739567e+01   5.901491e+01
   9.973049e+00   4.142900e+01
  -2.997500e+01   4.697954e+00
  -4.923382e+01  -3.410074e+01
  -5.123238e+01  -4.015635e+01
   3.870937e+01  -3.606031e+01
   1.182502e+02  -5.516737e+00
   4.890758e+01   5.376221e+01
  -1.455621e+01   2.677557e+01
  -3.687979e+01   3.837769e+00
  -2.164518e+01   4.755326e+01
  -2.969873e+00   5.305007e+01
   3.194059e+01   9.109479e+00
  -2.078963e+01   1.020226e+01
  -1.022632e+02  -1.431002e+00
