
 $NMID
 id='ANONYMOUS ', fmtdat='(2E16.6)'
 volume=1.0
 tramp=1.0
 $END
   3.835841e+03   3.314944e+01
   2.435106e+03   2.210827e+03
  -4.818720e+02   2.540538e+03
  -1.813896e+03   9.860817e+02
  -1.054078e+03  -2.344671e+02
   3.532168e+02  -4.354042e+02
   7.472553e+02   2.975126e+02
   1.227891e+02   9.307815e+02
  -6.321986e+02   7.196962e+02
  -8.978725e+02  -4.642555e+01
  -5.421556e+02  -7.189648e+02
   1.774324e+02  -8.344557e+02
   5.491002e+02  -1.872317e+02
   3.327726e+02   5.719473e+02
  -1.451135e+02   6.841087e+02
  -5.762690e+02   8.986360e+01
  -2.929869e+02  -7.341584e+02
   2.404633e+02  -6.764109e+02
   5.865519e+02  -1.264998e+02
   3.720215e+02   2.721164e+02
   5.366781e+01   4.082892e+02
  -3.360806e+02   3.026178e+02
  -1.790122e+02   4.696513e+01
   1.525868e+02  -9.626761e+01
   4.593869e+02   1.709493e+02
   1.940356e+02   4.759493e+02
  -4.330219e+02   3.369420e+02
  -8.016144e+02  -1.195364e+02
  -3.396841e+02  -5.450431e+02
   4.269344e+02  -3.791206e+02
   6.735730e+02   8.617318e+01
   3.182424e+02   4.830710e+02
  -2.522242e+02   4.316297e+02
  -5.497362e+02   1.863265e+02
  -3.463046e+02  -1.894367e+02
  -5.415395e+01  -4.591110e+02
   1.802284e+02  -2.874565e+02
   1.195112e+02   1.686947e+02
  -1.463866e+02   4.027356e+02
  -3.427911e+02  -8.161966e+00
  -1.882839e+02  -5.730122e+02
   2.823634e+02  -6.438846e+02
   4.960642e+02  -7.507187e+01
   1.951243e+02   4.183344e+02
  -2.565260e+02   2.684038e+02
  -3.189376e+02  -2.749935e+02
   8.757838e+01  -4.616201e+02
   5.474320e+02  -1.011531e+02
   5.610214e+02   3.675732e+02
   1.673373e+02   5.255916e+02
  -3.408295e+02   2.901715e+02
  -5.942163e+02  -1.086499e+02
  -3.441402e+02  -3.527922e+02
   1.359362e+02  -3.434950e+02
   4.266449e+02  -7.219940e+01
   2.756250e+02   1.973119e+02
  -5.815780e+01   1.363056e+02
  -1.517456e+02  -8.048165e+01
   1.007646e+02  -1.974006e+02
   3.187203e+02   3.985612e+01
   1.575997e+02   2.509882e+02
  -1.794650e+02   2.747786e+02
  -3.677142e+02   9.415401e+01
  -2.135802e+02  -7.912894e+01
   1.005886e+02  -2.590993e+02
   2.734594e+02  -3.343970e+02
   3.122765e+02  -1.354479e+02
   2.851239e+02   1.520012e+02
   7.526108e+01   4.455246e+02
  -7.090550e+01   3.838356e+02
  -6.420851e+01   1.382325e+02
  -4.840571e+00   4.569275e+01
  -4.238103e+01   8.872029e+01
  -2.118252e+02   1.307828e+02
  -2.707228e+02  -4.975721e+00
  -1.603834e+02  -2.778671e+02
   3.733981e+01  -2.238571e+02
   2.168023e+02  -4.076119e+01
   1.694750e+02   2.318313e+02
  -4.292692e+00   3.215279e+02
  -2.630208e+02   1.062572e+02
  -3.756172e+02  -1.814799e+02
  -2.062435e+02  -3.511617e+02
   8.602502e+01  -3.263817e+02
   2.481126e+02  -1.399596e+02
   1.498155e+02   3.253051e+00
   8.974161e+01  -8.466636e+01
   2.389416e+02  -8.000273e+01
   4.506077e+02   4.537419e+01
   3.776320e+02   2.790219e+02
   2.557038e+01   4.323524e+02
  -3.513137e+02   4.387940e+02
  -4.719043e+02   1.928869e+02
  -3.225711e+02  -5.681087e+01
  -4.303210e+01  -2.696657e+02
   1.408771e+02  -2.291485e+02
   9.714086e+01  -1.093689e+01
  -9.628142e+01   1.088569e+02
  -2.169121e+02  -1.588462e+01
  -3.180946e+01  -1.760166e+02
   1.558036e+02  -2.018984e+02
   1.989129e+02   1.339105e+01
  -4.013072e+01   1.805147e+02
  -2.269279e+02   5.272319e+01
  -1.445612e+02  -2.326020e+02
   4.107617e+01  -3.733539e+02
   2.565872e+02  -2.354843e+02
   3.704731e+02   3.405737e+01
   3.126929e+02   2.748850e+02
   9.672896e+01   2.725779e+02
  -8.067383e+01   2.011535e+02
  -1.598099e+02   2.071233e+01
  -4.085992e+01  -1.495007e+01
   6.069678e+01   5.082959e+01
  -1.447089e+00   1.747123e+02
  -1.361781e+02   8.908155e+01
  -1.805175e+02   1.095074e+01
  -7.180930e+01  -5.556317e+01
   7.859118e+01  -1.195879e+01
   4.587218e+01   7.509181e+01
  -1.400224e+02   5.635859e+01
  -2.611881e+02  -7.826467e+00
  -2.659575e+02  -1.452971e+02
  -5.840141e+01  -2.238059e+02
   1.900719e+02  -2.616727e+02
   2.223948e+02  -1.330850e+02
   1.295569e+02   2.466702e+01
  -4.340630e+01   1.038970e+02
  -5.635566e+01  -1.022394e+01
   4.438904e+01  -1.303573e+02
   2.469693e+02  -7.023628e+01
   2.441712e+02   6.182186e+01
   7.087836e+01   2.556185e+02
  -7.883594e+01   1.633491e+02
  -1.494835e+02   3.138158e+01
  -7.773061e+01  -4.513040e+01
   1.936742e+01   2.975988e+01
   5.002151e+01   9.105178e+01
  -6.901423e+01   1.534472e+02
  -1.994828e+02   1.978536e+00
  -1.776273e+02  -1.472318e+02
  -3.447198e+00  -2.488101e+02
   1.716057e+02  -1.473060e+02
   1.707207e+02  -5.209156e+00
   5.479457e+01   1.074212e+02
  -9.958821e+01   1.301853e+02
  -7.919612e+01   3.546529e+01
  -6.283071e+00  -6.011704e+01
   5.121033e+00  -2.630410e-01
   3.998589e+00   6.541258e+00
  -8.827400e+01  -5.077754e+01
  -8.635591e+01  -6.799943e+01
  -2.641970e+01  -1.598060e+02
   1.330536e+02  -1.433632e+02
   2.684923e+02   1.379019e+00
   1.925253e+02   1.247729e+02
   4.248551e+01   2.200672e+02
  -8.820580e+01   1.832564e+02
  -1.342585e+02   5.179211e+00
  -3.860332e+01  -4.432750e+01
  -2.606858e+01  -5.765127e+01
  -2.484372e+01   4.054472e+01
  -7.162187e+01   2.795525e+01
  -7.507378e+01  -3.226113e+01
   3.725187e+01  -1.084035e+02
   1.060746e+02  -4.513025e+01
   6.725974e+01   5.009505e+00
  -1.808870e+01   8.657819e+01
  -1.269066e+02   7.920795e+01
  -2.204473e+02  -3.187778e+01
  -5.092386e+01  -2.157665e+02
   7.699968e+01  -2.313006e+02
   2.698363e+02  -8.713967e+01
   2.435423e+02   6.938068e+01
   7.909812e+01   1.568622e+02
  -3.753335e+01   1.289861e+02
  -1.182325e+02   5.222643e+01
  -7.063865e+01   8.135267e+01
  -5.731810e+01   8.765553e+01
  -8.375291e+01   8.941183e+01
  -9.741073e+01  -2.501488e+01
  -1.141944e+02  -1.507801e+02
  -4.492821e+01  -2.343057e+02
   6.432669e+01  -1.868942e+02
   1.746486e+02   8.351308e+00
   7.776316e+01   1.569103e+02
  -2.627561e+01   1.376415e+02
  -6.145749e+01   3.013190e+01
   1.943355e+01  -1.776843e+01
   1.572366e+01  -7.726575e+01
   3.492861e+01  -4.635393e+01
  -3.518861e+01  -7.718715e+00
  -1.194716e+02  -4.018070e+00
  -3.533795e+01  -1.500514e+01
   8.468757e+01  -2.179027e+01
   1.433394e+02   1.140101e+01
   1.442929e+02   6.358825e+01
   4.520388e+01   1.069970e+02
  -1.338492e+02   8.837397e+01
  -1.603384e+02   2.395809e+01
  -3.611026e+01  -6.978564e+01
   4.402494e+01   2.669148e+00
   4.478346e+01   4.560931e+01
   1.651398e+01   6.932799e+01
  -7.132521e+01   4.958019e+01
  -6.642499e+01  -3.804553e+01
  -6.417860e+01  -5.856571e+01
  -4.827921e+01  -2.418381e+01
  -3.419786e+01   2.155400e+01
  -5.285160e+01   4.785563e+00
  -1.954741e+01  -1.035283e+01
   3.151959e+01  -1.203910e+02
   7.632941e+01  -1.290189e+02
   1.349379e+02  -3.025906e+01
   1.310413e+02   1.199541e+02
   2.126318e+01   9.597354e+01
  -1.127406e+02   1.452871e+00
  -3.706370e+01   3.269963e+01
   4.712044e+01  -3.248624e+01
   1.496516e+02   6.798973e+01
   6.548450e+01   9.218696e+01
  -9.612960e+01   1.155547e+02
  -1.508546e+02   3.144128e+01
  -1.751494e+02  -1.809895e+01
  -4.167466e+01  -1.168204e+02
   5.326187e+01  -1.173624e+02
   2.317270e+01  -1.005001e+01
  -5.829416e+01   2.162231e+01
  -6.814441e+01   2.897226e+01
  -1.737881e+01  -7.317532e+01
   7.931518e+01  -1.608984e+02
   1.656046e+02  -4.479964e+01
   9.791839e+01   9.654048e+01
  -2.448331e+00   1.399384e+02
  -1.202660e+02   1.004845e+02
  -1.027293e+02  -1.037066e+01
  -1.390308e+01  -1.232919e+02
   8.730185e+00  -9.958099e+01
   7.377655e+01  -1.877249e+01
   6.800466e+01  -2.442092e+00
   2.082816e+01  -2.480398e+01
  -1.211044e+01  -5.532723e+01
   3.394130e+01   4.491040e+01
   3.240916e+01   1.095897e+02
   6.628352e+01   1.236189e+02
  -2.837242e+01   3.356095e+01
  -1.324674e+02  -6.090600e+01
  -1.340506e+02  -1.157480e+02
  -4.154674e+01  -5.786215e+01
   7.052452e+01  -3.622826e+01
   5.712232e+01   1.718404e+01
   1.917350e+00   6.728376e+01
  -4.589544e+01   5.108886e+01
   3.313201e+01   1.187693e+01
   8.048742e+01  -4.793037e+01
   1.335406e+01  -1.671449e+01
  -1.076084e+02  -1.658089e+01
  -1.385484e+02  -4.839493e+00
  -2.898352e+01  -8.107499e+01
   1.175790e+02  -9.631545e+01
   2.261711e+02  -4.894081e+01
   1.133203e+02   4.616178e+01
   5.760244e+00   1.750202e+02
  -6.699326e+01   1.216477e+02
  -1.210898e+02   4.709726e+01
  -5.375984e+01  -7.492169e+01
  -2.158561e+01  -2.266880e+01
   3.281569e+01  -1.788522e+01
   1.463498e+01   2.010853e+01
   2.376898e+01  -5.969085e+01
  -6.617325e+01  -1.290025e+02
   9.329456e+00  -5.530400e+01
   4.206323e+01  -3.708769e+01
   1.115139e+02   1.205144e+02
  -1.058133e+01   7.329031e+01
  -7.847259e+01   4.210670e+01
  -9.412578e+01  -6.010051e+01
  -1.659340e+01  -9.808268e+01
   6.235146e+01  -5.560917e+01
   9.559843e+01  -3.248076e+01
   5.853829e+01   6.477949e+01
  -2.606692e+01   5.358460e+01
  -5.687795e+01   5.777730e+01
   5.684863e+01   4.645705e+01
   7.220290e+01   3.982799e+01
   3.674480e+01   4.333066e+01
  -1.017408e+02   5.313676e+01
  -1.085396e+02   6.687064e+01
  -6.787567e+01  -3.715490e+01
   5.863766e+01  -8.261227e+01
   1.585565e+01  -1.168449e+02
   9.144288e+00   3.740713e+01
   6.928705e+00   6.602272e+01
  -2.091417e+01   1.693040e+01
   1.609547e+01  -1.714874e+01
  -3.432549e+01  -9.332904e+01
  -1.726954e+01  -2.931134e+01
   2.727859e+01   1.008841e+01
   5.144638e+01   3.615325e+01
   1.677996e+01  -1.271168e+01
  -1.153882e+01  -2.965251e+01
  -1.706747e+01   2.426291e+01
   1.887457e+01   6.293524e+01
   4.883397e+00   5.929680e+01
  -3.117601e+01   8.234737e+00
  -4.004638e+01  -5.880864e+01
  -3.212932e+01  -5.426952e+01
   2.879508e+01   6.989806e+00
   7.624545e+01   7.963800e+01
   3.172680e+01   5.404599e+01
  -5.686919e+01  -2.475747e+01
  -1.331377e+02  -6.488101e+01
  -6.043414e+01  -5.491910e+01
   3.205298e+01  -5.975675e+01
   8.932030e+01  -2.435115e+01
   1.136003e+01  -6.851280e+00
  -3.286989e+01   1.841813e+01
  -1.891733e+01  -3.755365e+00
  -5.892567e+00  -2.296809e+01
   1.065514e+02  -8.363566e+01
