
 $NMID
 id='ANONYMOUS ', fmtdat='(2E16.6)'
 volume=1.0
 tramp=1.0
 $END
  -3.261877e+03  -7.310578e+01
  -2.181612e+03  -1.762454e+03
   2.130079e+02  -2.141682e+03
   1.402949e+03  -1.143124e+03
   8.611110e+02  -7.749138e+01
  -1.392256e+02   1.774235e+02
  -4.068998e+02  -2.629528e+02
   5.125347e+01  -6.590943e+02
   5.497297e+02  -6.211958e+02
   6.237920e+02   2.961514e+01
   3.789357e+02   5.700384e+02
  -6.637594e+01   7.213908e+02
  -3.401758e+02   1.077372e+02
  -2.678819e+02  -4.907394e+02
   1.568702e+02  -5.085959e+02
   3.776320e+02  -2.535016e+01
   2.017563e+02   5.229823e+02
  -1.933659e+02   5.695828e+02
  -5.557628e+02   2.343548e+02
  -4.273341e+02  -1.776703e+02
  -1.062115e+02  -3.184835e+02
   1.910153e+02  -3.216351e+02
   6.274478e+01  -3.160782e+01
  -1.120366e+02  -4.332201e+01
  -2.750606e+02  -2.121338e+02
  -1.457300e+00  -3.534001e+02
   4.451702e+02  -1.262250e+02
   5.644857e+02   1.637217e+02
   2.191894e+02   3.873987e+02
  -3.065675e+02   2.667819e+02
  -5.015062e+02  -7.581910e+01
  -2.562970e+02  -3.178229e+02
   2.538877e+02  -4.234414e+02
   4.370292e+02  -1.203841e+02
   3.236845e+02   1.509501e+02
   3.676634e+01   3.365426e+02
  -4.947130e+01   1.838686e+02
   1.172436e+01  -1.462828e+02
   2.075804e+02  -1.763251e+02
   1.752546e+02   1.511974e+02
  -2.040548e+01   4.890652e+02
  -2.882873e+02   4.299709e+02
  -3.509381e+02  -1.814725e+01
  -1.430556e+02  -3.483617e+02
   1.794982e+02  -1.806294e+02
   2.017440e+02   2.477056e+02
  -6.787288e+01   3.573946e+02
  -4.492460e+02   2.624963e+01
  -4.776875e+02  -3.470699e+02
  -1.630544e+02  -4.496233e+02
   3.024523e+02  -2.296226e+02
   4.993832e+02   7.414567e+01
   3.008749e+02   2.644582e+02
  -7.096070e+01   2.504961e+02
  -3.144375e+02   7.061737e+01
  -2.129912e+02  -4.734030e+01
   3.341383e+01  -5.973852e+01
   5.456088e+01   4.564406e+01
  -8.679382e+01   6.111109e+01
  -2.358754e+02  -5.528183e+01
  -1.379379e+02  -1.914122e+02
   1.285491e+02  -2.450401e+02
   3.548956e+02  -1.316570e+02
   2.495047e+02   1.159058e+02
  -3.822807e+01   2.943508e+02
  -2.858235e+02   3.015833e+02
  -3.220422e+02   1.351485e+02
  -2.074036e+02  -1.765749e+02
  -3.030728e+01  -3.691443e+02
   4.967444e+01  -3.186329e+02
   3.669902e+01  -1.637375e+02
   5.831463e+01  -9.137231e+01
   1.068449e+02  -7.664730e+01
   2.451824e+02  -4.908671e+01
   2.007476e+02   8.295261e+01
   1.091361e+02   1.832906e+02
  -9.287803e+01   1.746299e+02
  -1.532739e+02  -6.267340e+01
  -1.603194e+02  -2.272928e+02
   8.481896e+01  -3.030309e+02
   2.467044e+02  -6.421809e+01
   2.923290e+02   1.703780e+02
   1.248002e+02   2.671953e+02
  -5.175839e+01   2.509579e+02
  -1.945776e+02   1.515100e+02
  -1.025565e+02   3.318212e+01
  -1.193845e+02   5.919087e+01
  -2.110322e+02   5.961221e+01
  -3.631145e+02  -8.333105e+01
  -3.117995e+02  -2.869010e+02
   4.055525e+01  -4.368768e+02
   3.671682e+02  -3.910445e+02
   4.081794e+02  -1.159134e+02
   2.580687e+02   1.542570e+02
  -8.549540e+00   2.741300e+02
  -9.066144e+01   1.439345e+02
  -4.672864e+01  -3.714110e+01
   1.076601e+02  -7.206084e+01
   1.374408e+02   7.775715e+01
   2.020387e+01   1.477149e+02
  -1.088727e+02   1.019861e+02
  -1.295301e+02  -8.817209e+01
  -1.480305e+01  -1.963163e+02
   2.130444e+02  -1.235153e+01
   1.372025e+02   2.602533e+02
  -9.987360e+00   2.890594e+02
  -2.686424e+02   1.943209e+02
  -3.296762e+02  -4.931625e+01
  -2.599454e+02  -2.036272e+02
  -1.632808e+01  -2.738865e+02
   1.069107e+02  -1.712023e+02
   1.098283e+02  -3.847714e+01
   1.879957e+01   2.984187e+01
  -4.645877e+01  -3.100621e+01
   3.430851e+01  -1.151042e+02
   1.098007e+02  -6.909268e+01
   1.462604e+02   1.854990e+01
   5.043362e+00   5.996572e+01
  -2.425555e+01  -1.310405e+00
  -4.053193e+01  -1.107128e+02
   1.208328e+02  -1.223987e+02
   2.742140e+02   2.630280e+01
   2.484466e+02   1.814206e+02
   8.668921e+00   2.505483e+02
  -2.259497e+02   2.222999e+02
  -2.486215e+02   7.589591e+01
  -1.406884e+02  -1.277153e+01
   1.476737e+01  -1.069287e+02
   7.826655e+01   8.393732e+00
  -4.469170e+01   7.248434e+01
  -1.770318e+02   5.337505e+01
  -1.631945e+02  -7.757745e+01
  -3.009009e+01  -1.975757e+02
   1.119792e+02  -1.250242e+02
   9.506951e+01  -1.573579e+01
   2.109214e+01   4.693567e+01
  -2.213548e+01  -2.965067e+01
  -2.364318e+01  -7.086460e+01
   5.978886e+01  -1.120230e+02
   1.930550e+02   3.668264e+01
   1.402071e+02   1.228070e+02
   1.025807e+00   1.773432e+02
  -1.505028e+02   1.347991e+02
  -1.314863e+02  -1.612298e+01
  -3.942701e+01  -1.167546e+02
   9.469799e+01  -1.192372e+02
   6.193016e+01  -2.331987e+01
  -2.857746e+01   4.845452e+01
   1.861476e+01   2.696556e+01
   1.849439e+01  -5.127159e+01
   8.968268e+01  -3.587846e+01
   9.502467e+01   8.980027e+01
   5.827306e-01   1.453366e+02
  -1.291132e+02   1.806572e+02
  -2.136823e+02   2.251340e+01
  -1.933956e+02  -1.622861e+02
  -2.899691e+01  -2.352626e+02
   1.243291e+02  -1.396881e+02
   1.290021e+02  -5.634714e+01
   1.048970e+02   3.293438e+01
   4.364242e+01  -3.442306e+00
   9.648371e+01  -3.788275e+01
   8.132234e+01   2.645484e+00
   3.712602e+01   5.375883e+01
  -5.181265e+01   1.335154e+02
  -9.062550e+01   7.366922e+01
  -6.203292e+01  -5.735634e+01
   3.119117e+01  -8.000248e+01
   1.619055e+02  -7.959994e+01
   1.883253e+02   6.268034e+01
   8.602672e+01   2.099991e+02
  -1.435731e+02   2.398825e+02
  -2.793519e+02   3.798734e+01
  -2.274087e+02  -9.561876e+01
  -7.651296e+01  -1.785546e+02
   3.762105e+01  -1.488537e+02
   9.639544e+01  -1.226811e+02
   1.210685e+02  -8.067656e+01
   3.604936e+01  -7.916010e+01
   8.898185e+01  -5.996520e+01
   1.298907e+02   3.577817e+01
   9.741964e+01   1.468009e+02
   4.268850e+01   2.180813e+02
  -9.032514e+01   1.377143e+02
  -1.733536e+02   6.204399e+00
  -1.065846e+02  -1.291320e+02
  -1.953932e+01  -1.167100e+02
   7.543827e+01  -8.628553e+01
   8.326899e+01   1.394149e+01
   1.805263e+01   5.613241e+01
  -5.687606e+01   3.526078e+01
  -1.270815e+01  -1.337602e+01
   5.764697e+01   1.556335e+01
   5.496851e+01   3.120927e+01
  -4.880163e+01   4.177192e+01
  -1.260334e+02   3.737830e-01
  -1.634931e+02  -6.212780e+01
  -5.219994e+01  -2.233356e+01
   8.419151e+01  -2.713864e+01
   1.098553e+02  -2.643478e+01
   4.420469e+01  -1.206672e-01
  -7.108734e+01   2.458094e+01
  -7.487553e+01  -4.048818e+01
  -1.463442e+01  -6.531634e+01
   2.440376e+01  -7.154036e+01
   8.942146e+01   6.294436e+00
   4.360335e+01   6.312458e+01
   3.511403e+01   3.319285e+01
   6.425594e+01  -5.989671e+00
   6.932329e+01  -1.763642e+01
   3.883620e+01   8.143741e+01
  -8.523852e+01   1.753951e+02
  -1.153478e+02   1.185135e+02
  -1.787108e+02   4.892527e+01
  -8.312782e+01  -1.148152e+02
   1.064423e+01  -1.181926e+02
   1.038277e+02  -6.769727e+01
   4.611121e+01   5.054740e+01
  -4.806569e+01  -1.939944e+01
  -1.302910e+02  -2.349798e+01
  -1.103340e+02  -1.114323e+02
   6.537459e+01  -1.263318e+02
   1.593612e+02  -5.136951e+01
   1.297575e+02   3.239754e+01
   4.917644e+01   5.521431e+01
  -6.884938e+01   6.784691e+01
  -2.836243e+01   6.386904e+00
   4.978026e+01  -3.070329e+01
   9.720307e+01  -9.262505e+00
   4.876337e+01   9.362098e+01
  -6.136405e+01   1.494267e+02
  -1.426398e+02   6.205665e+01
  -1.125381e+02  -9.272314e+01
  -3.177767e+00  -2.047890e+02
   9.934117e+01  -1.211314e+02
   5.164789e+01   1.268104e+01
   4.417302e+01   1.145602e+02
   1.590831e+01   1.318707e+02
  -2.853567e+01   3.448763e+01
  -3.066925e+01  -5.131767e+01
  -5.717355e+00  -3.303335e+00
   2.824196e+00   2.469660e+01
  -3.544934e+01  -2.047711e+01
  -2.532083e+01  -1.392661e+02
  -4.213851e+01  -5.365026e+01
   2.046348e+01  -4.212021e+01
   1.411321e+02   5.651554e+01
   7.754729e+01   9.982116e+01
   1.869620e+01   2.683505e+01
  -7.436203e+01  -8.430755e+00
  -8.429544e+01   5.964971e+01
   2.783475e+00   4.578372e+01
   2.483803e+01   2.954312e+01
  -2.097835e+01  -3.981217e+01
  -5.037034e+01  -8.096998e+00
   1.602772e+01  -1.352480e+01
   5.064582e+01   1.732547e+01
   6.392070e+01  -7.643531e+00
  -3.345538e+00   9.075009e+01
  -1.399704e+02   7.522879e+01
  -1.750544e+02   4.840319e+01
  -1.303393e+02  -4.385247e+01
  -1.090173e+01  -1.580361e+02
   1.070126e+02  -1.501468e+02
   8.568611e+01  -6.476513e+01
   8.453098e+01   3.308795e+01
   1.478768e+01   1.587159e+01
   1.966318e+01  -9.106458e+00
   8.804557e+00  -4.920717e+00
   1.420862e+01  -3.464508e+00
   2.968050e+01   4.104050e+01
   3.790606e+00   5.482829e+01
  -7.053585e+01  -2.197368e+00
  -7.197360e+01  -1.018642e+02
  -2.712930e+01  -9.225348e+01
   6.801389e+01  -3.758772e+01
   1.124804e+02   5.456555e+01
   2.665359e+01   1.039084e+02
  -6.448368e+01   2.863052e+01
  -1.173796e+02   3.279547e+00
  -1.965821e+01  -5.094088e+01
   2.052679e+01  -8.602679e+01
   2.799937e+01  -3.294907e+01
  -1.628713e+01  -4.376675e+00
  -5.251592e+01   8.561748e+00
  -2.341121e+01  -2.356256e-01
   4.417131e+01  -5.121060e+01
   9.961403e+01  -2.120861e+01
   8.246751e+01  -2.794139e+00
   3.539294e+01   6.949222e+01
  -5.459771e+01   9.870822e+01
  -4.774962e+01  -9.912089e+00
  -2.884301e+01  -4.971466e+01
   2.584763e+01  -4.081827e+01
   6.111037e+01   2.214788e+01
   2.402653e+01   4.716617e+01
  -9.342786e+00   4.804647e+01
  -6.356904e+01   2.750591e+01
  -2.830768e+01  -1.231140e+01
  -7.665306e+01   3.455123e+01
   2.722118e+01   1.880397e+01
  -6.276844e+00   7.446571e+01
  -5.815685e+00  -6.265927e+00
   8.685859e+00  -5.654850e+01
  -1.189024e+01  -4.732870e+01
   5.873308e+00   1.828359e+01
   1.110870e+01   4.371052e+01
  -2.199627e+01   3.700333e+01
  -5.924966e+01  -4.174106e+01
  -3.655045e+01  -5.088430e+01
   6.023850e+01  -4.539649e+01
   4.412357e+01  -4.996211e+00
   6.576505e+01   3.794087e+01
  -1.082976e+01   2.162908e+01
  -4.785094e+01  -1.117142e+01
  -4.234338e+01   1.651772e+01
   3.465464e+01  -2.130285e+01
   3.842686e+01  -3.878239e+01
  -4.169273e+01  -2.678984e+01
  -5.879943e+01  -2.770060e+00
