
 $NMID
 id='ANONYMOUS ', fmtdat='(2E16.6)'
 volume=1.0
 tramp=1.0
 $END
   3.089927e+03   1.093416e+02
   1.890630e+03   1.542288e+03
  -9.493942e+01   2.017484e+03
  -9.668430e+02   1.076306e+03
  -8.110329e+02   1.045288e+02
   3.557994e+01  -2.178474e+02
   4.849558e+02   3.533733e+01
   6.630842e+00   5.046418e+02
  -3.943153e+02   6.249192e+02
  -5.770545e+02   7.158272e+01
  -3.401850e+02  -4.652858e+02
   3.079578e+01  -5.228914e+02
   2.529766e+02  -1.872029e+02
   2.330613e+02   3.851300e+02
  -7.446018e+01   4.681858e+02
  -3.784727e+02   5.750347e+01
  -3.118207e+02  -3.679112e+02
   6.933824e+01  -5.582207e+02
   3.340407e+02  -1.877735e+02
   3.488644e+02   2.031112e+02
   1.047931e+02   3.471008e+02
  -1.034155e+02   2.243382e+02
  -8.031088e+01   9.851418e+01
   1.605504e+02   1.025385e+02
   2.165687e+02   2.645984e+02
  -9.604801e+01   3.183272e+02
  -4.482301e+02   7.789497e+01
  -5.393722e+02  -1.761793e+02
  -1.700152e+02  -3.604238e+02
   2.705814e+02  -1.738346e+02
   4.627790e+02   1.118698e+02
   1.781623e+02   2.437198e+02
  -1.779906e+02   3.146065e+02
  -3.319826e+02   1.247449e+02
  -2.598646e+02  -1.347732e+02
  -7.183289e+01  -2.642461e+02
  -5.930164e+00  -1.922656e+02
  -3.172457e+01   5.370837e+01
  -1.968636e+02   1.364274e+02
  -1.791343e+02  -1.228626e+02
   2.564057e+01  -4.472070e+02
   2.621843e+02  -3.569710e+02
   3.194270e+02   1.560391e+01
   1.090747e+02   2.820496e+02
  -1.300430e+02   1.236368e+02
  -1.712187e+02  -2.770883e+02
   1.312524e+02  -3.256078e+02
   4.119137e+02  -5.029641e+01
   4.290854e+02   4.025789e+02
   1.423018e+02   4.438670e+02
  -3.034067e+02   2.046301e+02
  -4.536120e+02  -4.321197e+01
  -2.862667e+02  -2.527907e+02
   6.895954e+01  -1.941114e+02
   2.632582e+02  -4.943811e+01
   1.805990e+02   2.213396e+01
   1.385687e+01  -2.171510e+01
  -3.102531e+01  -5.182558e+01
   1.253850e+02  -2.590600e+01
   2.041643e+02   1.173516e+01
   1.108202e+02   1.690134e+02
  -8.214768e+01   1.971054e+02
  -2.559009e+02   1.214687e+02
  -1.784437e+02  -3.045925e+01
   3.168774e+01  -2.239301e+02
   2.488531e+02  -2.909684e+02
   3.106823e+02  -1.290848e+02
   2.377591e+02   1.587251e+02
   4.741570e+01   3.534679e+02
  -2.697473e+01   3.589333e+02
  -5.834244e+01   1.876647e+02
  -9.253179e+01   5.530712e+01
  -1.516282e+02   1.054449e+02
  -2.276580e+02   5.963496e+01
  -1.854174e+02  -1.131887e+02
  -6.062142e+01  -2.304872e+02
   1.154388e+02  -1.435519e+02
   1.650049e+02   5.590064e+01
   1.041699e+02   2.175058e+02
  -4.138719e+01   2.288401e+02
  -2.238017e+02   5.955523e+01
  -2.347965e+02  -1.534396e+02
  -1.034985e+02  -2.538972e+02
   4.949360e+01  -2.063283e+02
   1.548239e+02  -1.333407e+02
   1.660895e+02  -5.920584e+01
   1.269459e+02  -5.435016e+01
   2.588034e+02   4.715798e+00
   3.760188e+02   9.300624e+01
   2.453764e+02   3.065515e+02
  -8.385891e+01   3.582570e+02
  -3.504623e+02   3.372071e+02
  -4.358135e+02   1.381135e+02
  -2.284901e+02  -1.237113e+02
   4.125434e+00  -2.653276e+02
   8.179781e+01  -2.021742e+02
   2.490806e+01  -3.812513e+01
  -9.530109e+01   4.986017e+01
  -1.175703e+02  -1.881266e+01
  -4.219458e+00  -1.213395e+02
   9.379643e+01  -8.916721e+01
   6.263093e+01   7.259258e+01
  -4.933303e+01   1.007542e+02
  -1.427380e+02  -9.117465e+00
  -1.180617e+02  -2.132269e+02
   2.308059e+01  -2.903758e+02
   2.294173e+02  -1.632588e+02
   3.201567e+02   6.109834e+01
   2.482924e+02   2.314317e+02
   6.468010e+01   2.542957e+02
  -1.357711e+02   1.429781e+02
  -1.617343e+02   2.712542e+01
  -6.128333e+01  -2.317011e+01
   5.449890e+01   2.871241e+01
   5.141736e+01   8.222912e+01
  -8.108232e+01   3.917428e+01
  -1.343716e+02  -4.687479e+01
   1.037991e+01  -2.878064e+01
   1.056156e+02   5.378061e+01
   3.131816e+01   1.034757e+02
  -1.373071e+02   8.297698e+01
  -2.490055e+02  -4.418965e+01
  -2.052709e+02  -1.353830e+02
  -3.719728e+01  -2.204264e+02
   1.545885e+02  -1.627628e+02
   2.048224e+02  -8.056528e+01
   1.281613e+02   2.389451e+01
  -1.479702e+01   3.442105e+01
  -3.604649e+01  -3.335685e+00
   3.858993e+01  -6.731600e+01
   1.484171e+02  -4.648017e+01
   1.971346e+02   1.049840e+02
   5.955654e+01   1.872613e+02
  -8.546688e+01   9.595191e+01
  -1.052931e+02   2.336789e+01
  -5.462754e+01  -4.748391e+01
   1.617291e+01   1.252333e+01
  -2.799757e+01   9.394735e+01
  -9.567400e+01   9.487654e+01
  -1.951367e+02  -3.328771e+00
  -1.325557e+02  -9.821597e+01
  -3.453482e+01  -1.829740e+02
   1.489956e+02  -1.465647e+02
   2.022501e+02  -7.382524e+01
   7.607768e+01   4.432698e+01
  -1.078406e+02   1.204641e+02
  -8.236210e+01   9.252359e+01
  -3.028289e+01   3.449512e+00
   3.761464e+01  -5.156069e+00
   1.105814e+01   3.632184e+01
  -7.947427e+01  -7.300905e+00
  -7.297235e+01  -1.017281e+02
  -3.617990e+01  -1.858150e+02
   9.552807e+01  -1.083942e+02
   2.255205e+02  -4.334329e+01
   1.960878e+02   7.569452e+01
   7.554418e+01   2.237685e+02
  -5.435442e+01   1.800565e+02
  -1.462368e+02   2.176745e+01
  -1.382689e+02  -2.493694e+01
  -8.551690e+01  -6.339673e+01
  -7.941452e+01  -1.283329e+01
  -5.357783e+01   1.736650e+01
   1.324989e+01  -4.972536e+01
   6.542959e+01  -1.110623e+02
   1.217367e+02  -1.615156e+01
   9.845320e+01   2.932121e+01
  -5.535136e+01   1.135203e+02
  -2.044536e+02   8.352391e+01
  -1.874598e+02  -8.604572e+01
  -9.160169e+01  -1.595158e+02
   1.169039e+02  -1.428482e+02
   2.426562e+02  -6.159289e+01
   1.986264e+02   7.767204e+01
   5.319200e+01   1.384241e+02
  -1.301145e+01   1.390792e+02
  -9.179092e+01   3.324401e+01
  -6.098288e+01   2.825573e+01
  -4.084660e+01   3.656760e+01
  -6.606085e+01   9.907311e+01
  -1.063078e+02   3.442423e-01
  -7.894018e+01  -1.185183e+02
  -3.853049e+01  -1.876991e+02
   8.349626e+01  -1.655505e+02
   1.682950e+02  -2.494338e+01
   1.216189e+02   1.194345e+02
   2.275509e+01   1.682987e+02
  -5.931293e+01   1.239441e+02
  -1.779637e+01   1.328492e+01
  -2.998970e+01  -3.260156e+01
   2.037773e+00   1.201724e+01
  -3.360552e+01  -3.216432e+01
  -8.515655e+01  -3.987813e+01
  -6.496524e+01  -3.789619e+01
   5.963273e+01  -7.089079e+01
   1.587384e+02   1.151102e+01
   1.574802e+02   5.158624e+01
   3.702558e+01   5.568841e+01
  -1.129789e+02   2.867848e+01
  -1.472499e+02  -1.789250e+01
  -4.327920e+01  -8.957374e+01
   5.407256e+01  -5.575805e+01
   7.736831e+01   3.166307e+00
   2.399865e+01   7.135839e+01
  -2.808758e+00   8.572375e+01
   1.352048e+01   3.594540e+01
  -2.952985e+01  -4.455993e+01
  -7.505173e+01  -3.176305e+01
  -5.218309e+01   7.671091e+00
  -7.154790e+01   2.110359e+01
  -3.072342e+01  -8.480885e+01
   2.840406e+01  -1.360199e+02
   9.318160e+01  -1.181720e+02
   1.315956e+02  -4.195392e+00
   9.059055e+01   3.935745e+01
  -2.884778e+01   1.076846e+02
  -2.279266e+01   8.809311e+01
  -3.729022e+01  -1.610698e+00
   6.110220e+01   7.217055e+00
   1.196140e+02   3.872529e+01
   7.994173e+01   8.193228e+01
  -1.258233e+02   8.654023e+01
  -1.993096e+02   3.561218e+00
  -1.644548e+02  -3.659422e+01
  -5.621209e+01  -6.935217e+01
   4.831524e+01  -5.194312e+01
   1.349334e+01  -1.887466e+01
  -5.580843e+01   3.319001e+01
  -9.431556e+01  -1.896455e+00
  -3.509693e+01  -6.980981e+01
   1.113856e+02  -1.508560e+02
   1.249774e+02  -6.277305e+01
   7.784709e+01   1.095499e+02
  -1.072691e+01   1.642088e+02
  -9.272733e+01   1.329784e+02
  -8.047192e+01  -2.212866e+01
  -4.528008e+01  -1.075303e+02
  -3.733915e+01  -9.044745e+01
   4.703155e+01  -3.689605e+01
   6.180789e+01  -2.286559e+01
   1.918910e+01   2.260741e+01
   5.181535e+01  -1.613354e+01
   2.388849e+01   1.071001e+01
   5.320690e+01   8.675981e+01
   5.470985e+01   8.520222e+01
  -7.302161e+01   4.007759e+01
  -1.426588e+02  -9.982525e+00
  -1.022147e+02  -7.442226e+01
  -3.466782e+01  -6.207330e+01
   4.928691e+01  -2.340375e+01
   1.012149e+02  -4.733423e+00
   2.263276e+01  -1.913259e+01
  -1.278511e+01   3.183185e+01
  -1.856446e+01   1.868007e+01
   1.612783e+01   5.188204e+00
  -1.228122e+01   3.045323e+01
  -5.163548e+01  -1.102835e+00
  -5.638026e+01  -3.342389e+01
   7.318534e+00  -1.090976e+02
   1.182306e+02  -1.070227e+02
   1.732117e+02  -5.921383e+01
   1.663746e+02   4.737171e+01
   1.999812e+01   1.573271e+02
  -9.438160e+01   1.643969e+02
  -9.062259e+01   8.502811e+01
  -8.547988e+01   2.575611e+00
  -5.407082e+01  -3.937959e+01
  -9.563965e+00  -2.144905e+01
  -3.282530e+01  -4.288483e+01
  -2.393717e+01  -3.775400e+01
  -1.525586e+01  -7.657431e+01
   6.410896e+00  -5.140437e+01
   7.669823e+01   1.210585e+01
   8.957828e+01   8.364250e+01
  -5.319365e+00   9.935236e+01
  -4.925408e+01   4.668991e+01
  -9.559292e+01  -4.645120e+01
  -5.344011e+01  -3.544404e+01
   9.225002e+00  -7.999223e+01
   1.236285e+02  -2.358844e+01
   4.970778e+01   6.384722e+01
  -2.203748e+01   3.525688e+01
  -2.322522e+01   4.307054e+01
   1.679247e+00   8.742937e+00
   9.052011e-01   1.714515e+01
   3.158020e+01  -7.009385e-01
  -6.016180e+01   7.473919e+01
  -9.488971e+01   2.941943e+00
  -5.313682e+00  -6.503358e+00
   2.974974e+01  -5.200664e+01
   4.683184e+01  -8.164583e+01
   3.670332e+01  -2.587002e+01
   2.339868e+01   1.925844e+01
  -3.108465e+01   6.112981e+01
  -1.879152e+01   3.772085e+00
  -2.022042e+00  -5.295532e+01
  -2.363658e+01  -3.795782e+01
   1.710649e+01  -2.701993e+01
   1.338898e+01   1.075969e+01
   3.334332e+01   1.504087e+01
   1.692102e+01  -2.315650e+01
  -2.035368e+01  -2.774395e+01
  -3.021371e+01  -4.659367e+00
  -1.184894e+01   7.522855e+01
  -2.050763e+01   2.888026e+01
  -1.985860e+01  -4.698277e+01
  -1.055669e+01  -9.691094e+01
   6.758326e+01  -4.942077e+00
   6.142668e+01   3.144648e+01
   1.249034e+01   4.828060e+01
  -3.857885e+01   2.166625e+01
  -4.407446e+01   2.183749e+01
  -3.087255e+01  -2.983214e+01
   4.955389e+01  -6.995293e+01
   5.688627e+01  -4.963505e+01
   4.214880e+01  -4.323480e+01
  -3.872682e+01   3.836328e+01
  -5.062650e+01  -3.255455e+01
   4.426812e+01  -3.015741e+01
   7.105203e+01   1.804609e+01
