
 $NMID
 id='ANONYMOUS ', fmtdat='(2E16.6)'
 volume=1.0
 tramp=1.0
 $END
   4.862589e+03  -1.582950e+02
   2.767400e+03   3.081265e+03
  -1.154806e+03   3.021893e+03
  -2.223076e+03   6.779445e+02
  -8.669339e+02  -8.520332e+02
   9.255421e+02  -6.195087e+02
   1.007695e+03   5.491023e+02
   7.896165e+00   1.045358e+03
  -9.489610e+02   8.698734e+02
  -1.030791e+03  -1.666318e+02
  -4.533633e+02  -8.842383e+02
   3.926587e+02  -8.894459e+02
   8.581499e+02  -1.388331e+02
   4.353431e+02   9.006758e+02
  -3.454635e+02   8.007924e+02
  -5.885759e+02  -2.232371e+01
  -2.017285e+02  -6.629360e+02
   3.154300e+02  -5.680675e+02
   6.911271e+02  -2.761880e+01
   4.440824e+02   4.210002e+02
  -1.663793e+01   5.036672e+02
  -3.071345e+02   1.392572e+02
  -2.873083e+02   2.246927e+01
   5.591824e+01  -8.445609e+01
   4.743793e+02   1.521981e+02
   2.260746e+02   4.775252e+02
  -4.493645e+02   4.416697e+02
  -9.172129e+02  -7.710038e+01
  -5.398688e+02  -5.556541e+02
   3.871543e+02  -5.510636e+02
   7.664375e+02   4.935159e+01
   3.838851e+02   5.478367e+02
  -2.895981e+02   5.549162e+02
  -6.511531e+02   2.334328e+02
  -5.257663e+02  -2.132782e+02
  -2.030205e+02  -5.609732e+02
   2.043434e+02  -3.298977e+02
   2.522806e+02   1.948014e+02
  -1.964329e+02   4.857407e+02
  -5.293311e+02  -1.954547e+01
  -3.134682e+02  -7.729182e+02
   3.462004e+02  -7.864705e+02
   7.500063e+02   9.689600e+00
   2.785969e+02   6.285967e+02
  -3.756356e+02   3.857755e+02
  -4.753432e+02  -3.541585e+02
   5.326274e+01  -5.588525e+02
   6.208295e+02  -1.448668e+02
   6.400857e+02   4.610921e+02
   1.398613e+02   6.535185e+02
  -3.969136e+02   3.955509e+02
  -6.478724e+02  -8.926207e+01
  -4.198970e+02  -4.263888e+02
   1.730106e+02  -4.039474e+02
   4.825380e+02  -6.314081e+01
   2.846419e+02   2.464874e+02
  -1.866594e+02   1.585592e+02
  -2.165680e+02  -1.896837e+02
   1.772704e+02  -2.103110e+02
   3.733728e+02   7.263597e+01
   1.830270e+02   3.557418e+02
  -2.150722e+02   2.987919e+02
  -3.425780e+02   7.983078e+01
  -2.364559e+02  -8.199366e+01
   4.437644e+01  -2.512533e+02
   2.190168e+02  -3.266131e+02
   3.437573e+02  -2.212327e+02
   3.203378e+02   1.672058e+02
   8.888098e+01   4.506818e+02
  -1.335781e+02   3.706048e+02
  -1.603753e+02   1.088726e+02
   1.560261e+00   6.913439e+00
  -3.745749e+01   9.197328e+01
  -2.330584e+02   1.359421e+02
  -2.834256e+02  -4.399085e+01
  -1.870637e+02  -2.692038e+02
   9.333829e+01  -2.884049e+02
   2.521463e+02  -1.456431e+01
   2.269745e+02   1.942445e+02
  -1.590648e+01   3.194527e+02
  -2.771885e+02   1.646993e+02
  -3.358419e+02  -1.657467e+02
  -1.809501e+02  -3.391264e+02
   1.447821e+02  -3.349130e+02
   2.831097e+02  -1.554654e+02
   1.515785e+02  -1.425310e+01
   8.559801e+01  -1.279682e+01
   2.491824e+02  -1.145401e+02
   4.637788e+02   8.076591e+01
   3.497978e+02   3.241066e+02
   2.538814e+01   4.634883e+02
  -3.434738e+02   4.362085e+02
  -5.051164e+02   2.489173e+02
  -3.669066e+02  -7.328596e+01
  -4.739033e+01  -2.916001e+02
   1.227737e+02  -2.510837e+02
   9.953507e+01  -3.265305e+01
  -6.408043e+01   6.980900e+01
  -2.147184e+02   2.137707e+01
  -4.701857e+01  -1.908399e+02
   1.969029e+02  -1.819283e+02
   2.029424e+02   8.348214e+01
  -6.639321e+01   2.357388e+02
  -2.092698e+02   5.371803e+01
  -1.526815e+02  -2.173586e+02
   5.579398e+01  -3.003017e+02
   2.272884e+02  -1.900382e+02
   3.039787e+02   4.604870e+01
   2.734606e+02   2.208230e+02
   9.401585e+01   2.695017e+02
  -6.505087e+01   1.705620e+02
  -1.840963e+02   6.119519e+01
  -8.310625e+01   1.831257e+01
   3.902682e+01   3.767408e+01
   6.072329e+01   7.743335e+01
  -9.841194e+01   1.160270e+02
  -1.611513e+02   3.063224e+01
  -6.704857e+01  -7.016182e+01
   1.183407e+02   5.177766e+01
   5.789337e+01   2.396366e+01
  -1.028448e+02   6.967026e+01
  -3.003548e+02  -1.514092e+00
  -2.696105e+02  -1.516518e+02
  -5.559078e+01  -2.322840e+02
   1.594781e+02  -2.865892e+02
   2.909188e+02  -1.355954e+02
   1.975906e+02   2.438589e+01
  -2.801722e+00   9.920392e+01
  -1.353282e+02   9.741145e+00
   4.082104e+01  -9.103576e+01
   1.926233e+02  -9.080331e+01
   2.411540e+02   8.833277e+01
   1.071193e+02   2.501395e+02
  -9.429789e+01   1.727029e+02
  -1.640415e+02   3.803804e+01
  -1.240922e+02  -6.614429e+01
   1.708924e+01  -7.445370e+01
  -1.029689e+01   3.967351e+01
  -3.948455e+01   6.708932e+01
  -1.462451e+02   2.540927e+01
  -1.710676e+02  -1.560174e+02
  -6.035982e+00  -2.286800e+02
   1.783316e+02  -1.705000e+02
   2.247099e+02  -3.567979e+01
   9.236082e+01   1.456040e+02
  -7.260991e+01   1.527188e+02
  -7.305381e+01   1.484793e+01
  -4.297808e+00   7.000744e+00
   1.757081e+01  -7.349241e+00
  -1.453667e+01   2.482627e+01
  -4.733119e+01  -2.386946e+01
  -1.077654e+02  -6.802961e+01
  -1.941833e+01  -1.395415e+02
   1.453017e+02  -1.227999e+02
   2.502470e+02  -2.584049e+01
   2.577370e+02   1.808017e+02
   7.817935e+01   2.241515e+02
  -8.679400e+01   1.928971e+02
  -1.540306e+02   2.962446e+01
  -9.745861e+01  -4.488255e+01
  -1.505146e+01  -3.212595e+01
  -3.885119e+01  -6.503108e+00
  -5.592373e+01   1.607979e+01
  -3.385312e+01  -1.126195e+01
   1.936068e+01  -7.404225e+01
   6.916152e+01  -2.267988e+01
   7.522270e+01   4.282820e+01
  -3.521427e+01   8.212080e+01
  -1.336162e+02   1.191621e+02
  -1.919067e+02  -4.303581e+00
  -9.966877e+01  -1.693768e+02
   7.322727e+01  -1.711353e+02
   3.168942e+02  -1.135302e+02
   2.578576e+02   9.034895e+01
   7.528575e+01   1.739044e+02
  -3.756905e+01   1.986648e+02
  -1.358302e+02   1.437471e+02
  -1.199276e+02   8.365258e+01
  -7.151140e+01   9.494527e+01
  -1.112274e+02   1.150874e+02
  -1.689336e+02  -3.831185e+01
  -1.447734e+02  -1.404696e+02
  -4.797945e+01  -2.588486e+02
   1.270808e+02  -2.026662e+02
   1.954675e+02  -6.688074e+00
   1.633375e+02   1.228661e+02
   3.840047e+00   2.044837e+02
  -1.094471e+02   7.579640e+01
  -2.910830e+01  -3.255436e+01
  -3.275404e+01  -9.484216e+00
  -7.232518e+01  -3.973429e+01
  -1.093621e+02  -6.126899e+01
  -6.173794e+01  -9.470674e+00
  -3.201915e+01  -7.879837e+01
   8.945654e+01  -2.950063e+01
   1.943803e+02   4.595126e-01
   9.571559e+01   6.912364e+01
   2.577618e+01   7.406728e+01
  -1.294542e+02   8.522602e+01
  -1.715437e+02   2.282065e+01
  -7.072806e+01  -2.104460e+01
   4.479971e+01  -8.163581e-01
   5.118511e+01   4.950034e+01
   1.998055e+00   4.775933e+01
  -4.321689e+01  -9.756044e+00
  -9.615487e+01  -9.837777e+00
  -4.484828e+01  -5.536173e+01
   1.526681e+01  -3.202581e+01
  -6.578375e+01   4.185560e+01
  -5.516995e+01  -1.147574e+00
  -5.804899e+01  -6.492933e+01
   4.466136e+00  -2.057303e+02
   1.256045e+02  -2.167280e+02
   1.896303e+02  -6.665374e+01
   1.371717e+02   1.160623e+02
   1.854443e+01   1.274858e+02
  -1.053767e+02   6.079909e+01
  -4.306133e+01  -2.203436e+01
   7.133692e+01  -3.933573e+01
   1.754102e+02   2.871943e+01
   8.942899e+01   1.324807e+02
  -6.885624e+01   1.447765e+02
  -2.102682e+02   5.113903e+01
  -1.840475e+02  -2.857149e+01
  -5.709092e+01  -1.027343e+02
   7.009691e+01  -1.201001e+02
   7.736354e+01  -4.706451e+01
  -4.850521e+01   5.210582e+01
  -8.065993e+01  -3.203450e+01
  -2.816135e+01  -1.439717e+02
   1.304743e+02  -1.443849e+02
   1.867335e+02  -4.359997e+01
   1.327355e+02   9.740256e+01
  -2.350678e+00   2.114400e+02
  -1.436310e+02   1.454695e+02
  -6.412589e+01  -3.400231e+01
  -6.150193e+01  -1.246303e+02
  -2.037555e+01  -1.095424e+02
   4.543461e+01  -4.244165e+01
   2.790287e+01   7.198281e+01
   3.767004e+01  -1.209000e+00
  -7.030767e+01  -1.351362e+01
   1.405846e+00  -2.414354e+01
   7.172360e+01   7.151838e+01
   7.894173e+01   1.122688e+02
  -4.755740e+01   4.570320e+01
  -1.789086e+02  -3.297341e+01
  -1.022546e+02  -6.559741e+01
   8.610344e+00  -9.589460e+01
   7.383710e+01  -1.763342e+01
   1.299648e+02   1.080440e+01
   4.680262e+01   5.287954e+01
  -2.315636e+01   3.716734e+01
  -4.531850e+00   2.654531e+01
   3.586971e+00  -1.972742e+01
   6.031601e-01  -4.357105e+01
  -6.283226e+01  -3.156280e+01
  -8.189263e+01  -3.260268e+01
   4.312514e+00  -8.721330e+01
   8.546250e+01  -1.370453e+02
   1.743251e+02  -6.116510e+01
   1.277600e+02   7.552060e+01
   1.632784e+01   1.846594e+02
  -7.174192e+01   1.645119e+02
  -6.807000e+01   8.069674e+01
  -7.722200e+01  -5.276958e+01
  -1.738072e+01  -5.379570e+01
   3.896029e+01  -3.318265e+01
  -2.781081e+01   2.352086e+01
  -1.004430e+02  -5.326210e+01
  -6.774964e+01  -1.017815e+02
   6.736627e+01  -9.637974e+01
   9.051122e+01  -5.302206e+00
   8.617169e+01   1.296585e+02
   4.942504e+01   9.982671e+01
  -6.019785e+01   4.171749e+01
  -1.211789e+02  -4.192523e+01
  -2.566451e+01  -1.051953e+02
   4.434387e+01  -8.189694e+01
   1.013648e+02   4.373996e+01
   3.889771e+01   3.594057e+01
  -2.174702e+01   6.040211e+01
  -2.847713e+01  -8.482412e-01
   2.761287e+01   1.059472e+01
   9.065788e+01  -4.406130e+01
   2.631297e+01   4.628657e+01
  -8.862279e+01   1.059188e+02
  -1.194994e+02   5.367922e+01
  -5.589753e+01  -3.740313e+01
   8.304972e-01  -1.053114e+02
   2.745148e+01  -1.151813e+02
   4.080711e+01  -3.059382e+01
  -2.229086e+01   5.182093e+01
  -2.672436e+01   5.596595e+01
  -9.794314e+01  -5.949675e+00
  -2.764282e+01  -5.311662e+01
   1.126006e+00  -1.515009e+00
   4.492743e+01   2.605738e+01
   2.149575e+01   2.151521e+01
  -1.933856e+01   2.138324e+01
  -9.543521e+00  -7.550727e+01
   1.731655e+01  -1.432342e+01
   2.822065e+01   2.135311e+01
  -4.294200e+00   7.187060e+00
  -3.075697e+01   2.389403e+01
  -5.390902e+01  -6.621554e+01
   2.272222e+01  -3.559546e+01
   5.785205e+01  -3.118446e+01
   7.882006e+01   5.015713e+01
   5.350016e+00   9.649966e+01
  -7.697710e+01   4.413031e+01
  -1.099635e+02  -9.868858e-01
  -7.018288e+01  -7.271466e+01
   5.810484e+01  -5.256626e+01
   9.301879e+01  -1.311695e+01
   3.027888e+01  -4.748870e+00
  -4.994825e+01   1.196973e+01
  -4.756102e+01   4.280037e+00
   1.952456e+01  -5.626670e+01
   4.221940e+01  -3.959945e+01
