
 $NMID
 id='ANONYMOUS ', fmtdat='(2E16.6)'
 volume=1.0
 tramp=1.0
 $END
  -4.687844e+03  -6.194722e+01
  -2.495771e+03  -2.898997e+03
   1.051341e+03  -2.880947e+03
   2.247648e+03  -8.736636e+02
   1.073334e+03   8.610849e+02
  -9.009658e+02   6.012929e+02
  -9.799477e+02  -4.379913e+02
   3.310179e+00  -1.215240e+03
   9.156711e+02  -8.370238e+02
   1.022205e+03   1.605715e+02
   3.696510e+02   9.260361e+02
  -2.706606e+02   9.341557e+02
  -7.437813e+02   1.023031e+02
  -4.314373e+02  -7.019911e+02
   2.969239e+02  -7.448562e+02
   6.534636e+02   1.341234e+02
   2.334654e+02   6.867228e+02
  -4.634288e+02   6.483597e+02
  -6.115220e+02   1.073318e+02
  -3.577701e+02  -4.073069e+02
   3.621446e+01  -3.965515e+02
   3.436484e+02  -3.248780e+02
   2.030561e+02  -3.314999e+01
  -9.667033e+01   1.283495e+02
  -4.402462e+02  -8.383655e+01
  -2.002758e+02  -4.311184e+02
   4.319877e+02  -4.199552e+02
   9.184330e+02   8.936078e+01
   5.006386e+02   6.646034e+02
  -4.465206e+02   5.538841e+02
  -8.140833e+02  -7.448096e+01
  -3.647388e+02  -5.867696e+02
   3.220823e+02  -5.927989e+02
   6.565089e+02  -1.735098e+02
   4.142852e+02   2.074898e+02
   9.020030e+01   5.090746e+02
  -2.355950e+02   2.955357e+02
  -2.499616e+02  -3.124346e+02
   1.479706e+02  -4.768507e+02
   4.593301e+02  -1.978872e+01
   3.069263e+02   7.461754e+02
  -3.656402e+02   7.317062e+02
  -6.566426e+02   1.926940e+01
  -3.170646e+02  -5.829628e+02
   3.575638e+02  -3.460969e+02
   4.683941e+02   3.069601e+02
  -4.256543e+01   5.258311e+02
  -5.621652e+02   1.326885e+02
  -6.117799e+02  -4.129791e+02
  -2.228161e+02  -6.023610e+02
   4.042245e+02  -4.087813e+02
   6.802297e+02   6.193891e+01
   4.473373e+02   4.377869e+02
  -1.697314e+02   4.516235e+02
  -5.263643e+02   1.202073e+00
  -2.845028e+02  -2.566236e+02
   1.672004e+02  -1.182547e+02
   1.778697e+02   2.337625e+02
  -1.840917e+02   2.023587e+02
  -3.386982e+02  -1.101034e+02
  -1.730338e+02  -3.488430e+02
   2.470624e+02  -2.415238e+02
   3.538242e+02  -9.740384e+01
   2.097492e+02   8.652684e+01
   3.972131e+01   1.885877e+02
  -1.869816e+02   3.065663e+02
  -3.145924e+02   2.335469e+02
  -3.323348e+02  -1.172653e+02
  -8.821975e+01  -4.728122e+02
   1.415865e+02  -4.328733e+02
   1.298282e+02  -1.604817e+02
   1.685081e+01  -3.625581e+01
   2.914706e+01  -9.991463e+01
   2.429596e+02  -1.612680e+02
   2.791040e+02   3.996988e+01
   1.691448e+02   3.054420e+02
  -9.505704e+01   2.955740e+02
  -2.360301e+02   5.422348e+01
  -2.667003e+02  -2.802030e+02
  -1.612547e+01  -3.247515e+02
   2.288132e+02  -1.596940e+02
   3.793695e+02   1.666752e+02
   1.987510e+02   3.280798e+02
  -1.320982e+02   3.130306e+02
  -2.498352e+02   8.335839e+01
  -2.032936e+02  -7.979179e+01
  -1.029878e+02   3.387368e+01
  -2.027232e+02   5.746034e+01
  -3.752601e+02  -6.511193e+01
  -3.197497e+02  -2.894908e+02
   1.553097e+00  -4.370707e+02
   3.612898e+02  -4.110151e+02
   4.855572e+02  -2.078424e+02
   3.114826e+02   1.017473e+02
   4.373300e+01   2.708163e+02
  -1.743119e+02   2.848568e+02
  -1.057496e+02  -2.568575e+01
   9.052370e+01  -1.120654e+02
   2.292399e+02  -5.440701e+01
   7.902135e+01   1.369000e+02
  -1.586648e+02   1.756347e+02
  -1.871001e+02  -2.586503e+01
   3.102269e+01  -1.962375e+02
   1.957354e+02  -2.457089e+01
   1.465178e+02   2.575505e+02
  -5.709798e+01   3.808428e+02
  -2.711381e+02   1.879190e+02
  -3.418570e+02  -1.204622e+02
  -2.953926e+02  -2.697045e+02
  -6.286203e+01  -3.133467e+02
   9.452852e+01  -2.111861e+02
   1.701328e+02  -1.967530e+01
   6.025078e+01   3.231225e+01
  -6.700133e+01  -6.403990e+01
  -6.518581e+01  -1.548313e+02
   9.735605e+01  -9.743480e+01
   2.318825e+02   1.663373e+01
   1.167442e+02   7.573814e+01
  -6.445866e+01   3.269165e+01
  -7.610178e+01  -5.195854e+01
   1.331141e+02  -4.906092e+01
   2.605274e+02   1.684297e+01
   2.663134e+02   1.221737e+02
   6.963768e+01   2.456761e+02
  -1.935589e+02   2.912204e+02
  -3.565234e+02   1.851632e+02
  -2.013365e+02  -6.803334e+01
   2.440885e+01  -1.498301e+02
   9.011287e+01  -6.053297e+01
  -7.332333e+01   6.242721e+01
  -2.046929e+02   3.434879e+01
  -2.605945e+02  -8.126754e+01
  -9.583707e+01  -2.053522e+02
   6.943586e+01  -1.614019e+02
   1.248173e+02  -7.187584e+01
   1.144942e+02   3.930669e+01
  -7.329818e+00   1.934414e+01
  -7.767221e+01  -6.682049e+01
   8.552931e+01  -8.826129e+01
   1.656029e+02  -2.656385e+01
   1.780648e+02   1.168041e+02
   5.014205e+01   2.364215e+02
  -1.933956e+02   1.543606e+02
  -2.257472e+02  -1.626480e+01
  -4.469461e+01  -1.277397e+02
   7.830515e+01  -1.168749e+02
   4.873220e+01  -2.934772e+01
  -1.052195e+01   3.483519e+01
   4.062309e+01   4.978009e+01
  -1.123753e+01  -5.371458e+00
   9.160441e+01   1.696767e+01
   9.136944e+01   6.692518e+01
   3.999687e+01   1.015673e+02
  -1.060939e+02   1.344047e+02
  -2.382632e+02   4.926261e+01
  -2.186481e+02  -1.450245e+02
  -3.347090e+01  -2.716247e+02
   1.525857e+02  -1.681074e+02
   1.565061e+02  -6.556986e+01
   4.775995e+01   9.380300e+01
   6.627299e+01   4.398839e+01
   4.917390e+01  -1.776919e+01
   1.894590e+01   5.216873e+00
   4.160040e+01   5.236201e+01
  -2.572287e+01   9.592963e+01
  -1.016485e+02   4.554277e+01
  -5.321291e+01  -9.115558e+00
   7.421225e+00  -1.261088e+02
   1.716528e+02  -8.927630e+01
   2.103239e+02   6.896099e+01
   8.323323e+01   1.966544e+02
  -1.301376e+02   2.009690e+02
  -2.966905e+02   5.374810e+01
  -2.413968e+02  -1.202943e+02
  -8.278516e+01  -2.435293e+02
   2.784999e+01  -1.855444e+02
   1.413047e+02  -1.273806e+02
   8.074536e+01  -5.664616e+01
   1.007903e+02  -8.954338e+01
   9.871153e+01  -7.752171e+01
   1.998509e+02   5.940990e+01
   1.531681e+02   2.064690e+02
   1.216876e+02   2.841907e+02
  -1.019552e+02   2.164727e+02
  -2.334002e+02   4.699410e+01
  -1.983631e+02  -1.421649e+02
  -2.761696e+00  -1.594694e+02
   8.803566e+01  -5.880735e+01
   9.204141e+01   3.211136e+00
  -4.105290e+01   4.532013e+01
  -4.745767e+01   9.811903e+00
   2.316216e+01   1.859931e+01
   7.044917e+01  -9.807980e-01
   5.682221e+01   1.012836e+01
  -6.681662e+01   4.840849e+00
  -1.389255e+02   2.193064e+01
  -1.294532e+02  -3.167691e+01
  -1.895676e+01  -4.250992e+01
   1.582079e+02  -9.892006e+01
   1.621402e+02  -1.649680e+01
   6.154492e+01   5.696666e+01
  -2.866668e+01   4.366953e+01
  -1.014414e+02  -5.642526e+01
  -3.936024e+00  -6.258397e+01
   5.994914e+01  -3.863917e+01
   8.113561e+01   1.047309e+01
   2.180046e+01   3.212978e+01
   2.976925e+01   6.513885e+01
   7.060172e+01   2.621179e+01
   6.555576e+01  -4.553196e+00
   3.521123e+01   8.449100e+01
  -4.256393e+01   1.411968e+02
  -1.050933e+02   1.326682e+02
  -1.588967e+02   6.016041e+01
  -1.428374e+02  -1.144043e+02
  -3.136840e+01  -1.244341e+02
   1.051457e+02  -7.186266e+01
   3.056660e+01  -5.291290e-01
  -5.620041e+01  -1.130323e+01
  -1.594946e+02  -7.766350e+01
  -4.150397e+01  -1.215872e+02
   1.339221e+02  -1.148476e+02
   1.822529e+02  -2.484475e+01
   1.636497e+02  -2.442508e+01
   6.732190e+01   1.236947e+02
  -8.003201e+00   7.940680e+01
  -2.228884e+01   4.109965e+00
   5.930819e+01  -1.549791e+01
   5.844945e+01   4.488795e+01
   3.114112e+01   1.193513e+02
  -1.183917e+02   1.625876e+02
  -1.781105e+02   1.071679e+02
  -1.537517e+02  -7.152821e+01
  -1.252826e+01  -2.362579e+02
   8.644573e+01  -1.648018e+02
   1.005842e+02   2.698144e+01
   4.897489e+01   9.667760e+01
  -2.006256e+01   9.040956e+01
  -4.327505e+01   2.326041e+00
  -5.269131e+01  -5.156029e+00
  -2.012896e+01   3.708571e+01
   9.861620e+00   6.805647e+01
  -8.344930e+00   1.573302e+01
  -1.084767e+02  -8.433457e+01
  -7.656792e+01  -7.604840e+01
   6.363769e+00  -4.568896e+01
   1.963003e+02   8.240013e+01
   1.402110e+02   1.007009e+02
  -1.258725e+01   5.611242e+01
  -7.324621e+01   2.541412e+01
  -8.958575e+01   7.654556e+00
  -2.645967e+01  -4.764965e+01
   4.698495e+01  -4.993125e+01
   1.888387e+01  -2.447677e+01
  -2.358401e+00  -7.454487e+00
   2.979463e+00   1.699112e+01
   8.956047e+01  -9.362537e+00
   1.179974e+02   4.092937e+01
   1.064853e+02   1.181732e+02
  -9.825448e+01   9.927127e+01
  -2.140905e+02   7.867408e+01
  -1.263865e+02  -4.283240e+01
  -2.000763e+01  -8.349209e+01
   8.738006e+01  -1.526548e+02
   8.275141e+01  -6.475609e+01
   6.668310e+01  -1.604874e+01
  -1.714720e+00   5.471450e+01
   3.257207e+01   1.674146e+01
   3.341702e+01  -8.417999e+00
   3.443643e+01   6.733586e+01
   3.168556e+01   1.351690e+02
   1.824686e+00   7.860871e+01
  -4.380727e+01  -7.754662e+00
  -7.065450e+01  -1.022425e+02
   4.293012e+01  -1.142890e+02
   1.147610e+02  -1.668873e+00
   8.563760e+01   1.233920e+02
   2.164149e+01   1.085487e+02
  -6.925354e+01   5.750186e+01
  -1.311469e+02  -2.800930e+01
  -4.888838e+01  -8.848236e+00
   3.072634e+01  -2.467102e+01
   1.218367e+01  -2.508190e+01
  -7.571508e+01  -3.199830e+01
  -8.515489e+01  -2.610860e+01
  -1.075182e+02  -7.319594e+01
   9.662095e+01  -1.096445e+02
   1.215606e+02  -5.045552e+01
   5.779187e+01   4.020426e+01
  -3.572888e+01   6.522634e+01
  -3.877459e+01   4.550965e+01
  -3.225171e+01  -7.294196e+00
   3.756879e+01  -6.954216e+01
   6.361723e+01  -3.958604e+01
   4.435198e+01   2.695148e+01
   1.485032e+01   1.230502e+01
  -1.717623e+01   2.641022e+01
  -3.851090e+01  -1.741511e+01
  -3.244843e+01  -4.902314e+01
  -2.445204e+01  -6.939273e+01
   2.441828e+00   2.705789e+01
  -1.087268e+01   8.174726e+00
   1.757188e+01  -3.478555e+01
   3.677023e+01  -3.897286e+01
   3.956272e+01  -2.968120e+00
   2.911510e+01   9.415557e+01
   1.212831e+01   6.802550e+01
  -6.495345e+01   2.634514e+01
  -8.299203e+01  -8.859394e+01
  -4.823753e+01  -6.604757e+01
   4.280406e+01  -4.024226e+01
   6.425043e+01   6.928734e+00
   4.419694e+01   3.607547e+01
  -2.625566e+01   4.937241e+01
  -6.174274e+01   3.256034e+01
  -1.722246e+01   1.303831e+01
   7.825709e+01   4.545809e+01
   1.920372e+01   4.200299e+01
  -8.228973e+01   1.520356e+01
  -1.181009e+02  -4.997396e+01
