
 $NMID
 id='ANONYMOUS ', fmtdat='(2E16.6)'
 volume=1.0
 tramp=1.0
 $END
  -3.759804e+03   1.611713e+02
  -2.318483e+03  -2.157675e+03
   1.139289e+02  -2.403985e+03
   1.494545e+03  -9.976252e+02
   9.774158e+02   1.454722e+02
  -2.199815e+02   4.518835e+02
  -5.041736e+02  -2.515613e+02
  -4.021245e+01  -7.206920e+02
   5.346943e+02  -6.318335e+02
   7.836810e+02  -3.843781e+01
   4.623740e+02   7.376875e+02
  -1.413434e+02   7.164214e+02
  -4.095525e+02   1.822942e+02
  -3.462564e+02  -5.172615e+02
   1.548906e+02  -6.475318e+02
   4.781629e+02   5.894820e+01
   3.264761e+02   5.290027e+02
  -1.847130e+02   6.516751e+02
  -5.420665e+02   2.175493e+02
  -3.446267e+02  -2.394747e+02
  -7.140470e+01  -3.593026e+02
   1.526735e+02  -2.525386e+02
   1.458527e+02  -4.580041e+01
  -1.786610e+02  -9.282762e+01
  -2.922172e+02  -2.633329e+02
  -5.479062e+01  -4.098285e+02
   5.183811e+02  -2.127764e+02
   6.702862e+02   1.616569e+02
   2.626412e+02   4.905799e+02
  -3.708367e+02   2.957999e+02
  -6.291812e+02  -1.410917e+02
  -2.864250e+02  -4.189811e+02
   2.887070e+02  -4.668804e+02
   5.026093e+02  -1.693728e+02
   3.638306e+02   1.421302e+02
   5.840599e+01   3.487058e+02
  -1.346277e+02   2.180817e+02
  -2.344330e+01  -1.510852e+02
   1.756318e+02  -2.576043e+02
   3.005280e+02   9.671820e+01
   6.190349e+01   5.093159e+02
  -2.810518e+02   4.767817e+02
  -4.025187e+02  -6.590953e-01
  -1.401076e+02  -3.573218e+02
   2.465917e+02  -2.084480e+02
   1.828381e+02   2.835701e+02
  -1.470441e+02   4.005145e+02
  -4.632303e+02   4.906812e+01
  -5.173990e+02  -4.352283e+02
  -1.344309e+02  -5.196850e+02
   3.692700e+02  -2.906541e+02
   6.047536e+02   7.242941e+01
   3.925108e+02   2.781206e+02
  -1.078910e+02   2.970611e+02
  -3.216305e+02   4.851712e+01
  -1.740152e+02  -5.529123e+01
   1.557550e+01   3.802912e+00
   5.653969e+01   1.086083e+02
  -1.575328e+02   8.632542e+01
  -2.679231e+02  -1.140822e+02
  -1.429644e+02  -2.392874e+02
   1.660598e+02  -2.420301e+02
   3.804151e+02  -1.447122e+02
   2.625867e+02   7.377646e+01
  -1.495415e+01   3.264721e+02
  -1.957442e+02   3.476228e+02
  -3.230441e+02   2.365536e+02
  -2.289398e+02  -1.279731e+02
  -9.364849e+01  -3.305491e+02
   7.838541e+00  -3.156256e+02
   3.267428e+00  -2.045541e+02
   5.577923e+01  -8.681247e+01
   1.664482e+02  -1.259781e+02
   2.607541e+02  -5.248716e+01
   2.156086e+02   1.630617e+02
   9.837083e+01   2.506089e+02
  -7.113908e+01   2.090577e+02
  -2.315898e+02  -6.456288e+01
  -1.524333e+02  -2.575740e+02
   1.211901e+01  -2.472266e+02
   2.930545e+02  -6.125326e+01
   3.516835e+02   1.749614e+02
   1.483974e+02   2.930487e+02
  -6.550099e+01   2.261976e+02
  -1.960974e+02   1.759416e+02
  -1.746913e+02   5.607749e+01
  -1.069348e+02   7.651020e+01
  -2.452063e+02   4.245656e+01
  -4.275037e+02  -7.733638e+01
  -3.720524e+02  -2.447101e+02
   1.713423e+01  -4.246242e+02
   3.723939e+02  -4.139385e+02
   5.046666e+02  -1.463829e+02
   2.794742e+02   1.112834e+02
   5.056564e+01   2.969773e+02
  -9.389396e+01   2.082441e+02
  -3.318395e+01   2.991000e+01
   1.204609e+02  -9.534731e+01
   1.682799e+02   4.289165e+01
  -5.636537e+00   1.369685e+02
  -1.196377e+02   1.075593e+02
  -1.578373e+02  -7.726279e+01
   5.026784e+01  -1.815316e+02
   1.846081e+02  -3.821318e+01
   2.104396e+02   2.580791e+02
   2.516381e+01   3.500017e+02
  -2.427289e+02   2.192496e+02
  -3.416692e+02  -6.589930e+01
  -2.958720e+02  -2.703611e+02
  -6.360654e+01  -2.265732e+02
   1.366690e+02  -1.275229e+02
   1.840699e+02   1.294356e+01
   3.357950e+01   2.982937e+01
  -5.057640e+01  -7.528751e+01
   6.784449e+00  -1.137811e+02
   8.956102e+01  -8.683653e+01
   1.573894e+02   6.839259e+00
   2.677829e+01   7.418580e+01
  -8.494745e+01  -8.267363e+00
  -5.636204e+01  -1.053123e+02
   1.221630e+02  -9.877810e+01
   3.199349e+02   3.477366e+01
   2.595001e+02   1.633038e+02
  -5.524300e+00   2.720742e+02
  -2.013463e+02   2.230996e+02
  -2.589734e+02   9.862791e+01
  -1.348910e+02  -4.252664e+01
   1.352342e+01  -1.024294e+02
   7.719009e+01   6.021749e+00
  -2.403592e+01   1.207323e+02
  -2.159505e+02   2.408031e+01
  -2.058419e+02  -1.154983e+02
  -3.320883e+01  -1.758182e+02
   1.035828e+02  -9.616307e+01
   1.528689e+02  -2.802150e+01
   9.610536e+01   9.602441e+01
  -5.749952e+01   7.400270e+00
  -1.071041e+02  -6.053638e+01
   4.976940e+01  -1.294440e+02
   2.028940e+02  -3.266725e+00
   1.920339e+02   1.113180e+02
   3.879311e+01   1.894601e+02
  -1.693256e+02   1.285814e+02
  -1.593763e+02  -1.717496e+01
  -6.617386e+01  -7.694021e+01
   7.445093e+01  -1.170056e+02
   6.714591e+01  -2.963022e+00
   2.053458e+01   4.631342e+01
  -1.470055e+01   1.463229e+01
   2.708220e+01  -2.381103e+01
   7.660669e+01   2.533288e+01
   1.405693e+02   1.021209e+02
  -1.280117e+01   1.982219e+02
  -1.094738e+02   1.656473e+02
  -2.696912e+02   2.402240e+01
  -1.981967e+02  -1.734110e+02
  -3.592918e+01  -2.378708e+02
   9.938185e+01  -1.328956e+02
   1.064423e+02  -4.605715e+01
   5.835437e+01   6.090358e+01
   3.040585e+01   3.093832e+01
   6.927806e+01   1.164213e+01
   1.008345e+02  -1.552908e+01
   1.227755e+01   6.786742e+01
  -7.242885e+01   1.084869e+02
  -1.524099e+02   7.345773e+01
  -1.195620e+02  -6.567472e+01
   2.413242e+01  -1.135203e+02
   1.435932e+02  -6.155636e+01
   1.972254e+02   8.706974e+01
   8.177000e+01   1.821757e+02
  -1.738822e+02   2.028473e+02
  -2.871734e+02   9.668700e+01
  -2.401679e+02  -1.118836e+02
  -6.278562e+01  -1.336568e+02
   9.700965e+01  -1.567867e+02
   1.341803e+02  -5.169663e+01
   6.031397e+01  -5.967053e+01
   7.451817e+01  -8.067545e+01
   9.713607e+01  -7.312334e+01
   1.289330e+02   1.829955e+01
   9.032781e+01   1.932889e+02
  -1.059751e+01   2.609154e+02
  -1.344970e+02   1.304256e+02
  -1.303301e+02   7.957118e+00
  -1.318995e+02  -1.571314e+02
  -1.545601e+01  -1.958910e+02
   6.799543e+01  -1.156465e+02
   4.728279e+01  -3.389067e+01
   4.083693e+01   1.235318e+01
   4.248725e+01   5.264105e+01
   2.192903e+01   1.478209e+01
   1.232460e+02   2.342295e+00
   1.119634e+01   5.212881e+01
  -6.967301e+01   8.195776e+01
  -1.744365e+02   2.761825e+01
  -1.310017e+02  -4.715752e+01
  -1.364990e+01  -8.443610e+01
   1.156428e+02  -6.287781e+01
   1.368874e+02   1.003440e+00
   2.248695e+01   1.867490e+01
  -2.881078e+01   4.105920e+01
  -5.256893e+01  -3.168745e+01
  -1.271308e+01  -6.672689e+01
   5.151865e+01  -7.261850e+01
   4.343741e+01   3.782342e+00
   6.539350e+01   4.167001e+01
   7.915405e+01   1.745872e+01
   4.539438e+01  -1.009514e+01
   1.013388e+02  -6.483579e+00
   3.990156e+01   5.864651e+01
  -3.412557e+01   1.796987e+02
  -1.332499e+02   1.453707e+02
  -1.594483e+02   5.602934e+01
  -1.365508e+02  -1.582913e+02
   1.267191e+01  -1.472372e+02
   1.143884e+02  -6.275034e+01
   7.605943e+01   6.637320e+01
  -1.637525e+01   7.519249e+01
  -1.811392e+02  -2.947432e+01
  -8.371529e+01  -1.358887e+02
   5.401153e+01  -9.195964e+01
   1.655883e+02  -6.390903e+01
   1.768598e+02   5.543339e+01
   1.913110e+01   1.265557e+02
  -8.726026e+01   8.822267e+01
  -7.183134e+01   6.096435e+00
   3.717206e+01  -1.232907e+01
   1.182889e+02  -2.854412e+00
  -1.020366e+00   1.451543e+02
  -1.091646e+02   1.820834e+02
  -2.142197e+02   7.206989e+01
  -9.054317e+01  -9.659396e+01
   8.996739e-01  -2.054536e+02
   6.317314e+01  -1.122699e+02
   9.604647e+01   3.382591e+01
   4.267392e+01   1.393943e+02
  -2.732481e+01   9.147628e+01
  -8.884773e+01  -1.776464e+01
  -4.678623e+01  -2.289238e+01
  -4.806274e+01  -1.783817e+01
  -1.075520e+01   3.241133e+01
  -5.613399e+01  -3.225797e+01
  -3.369024e+01  -1.206209e+02
  -5.396046e+01  -1.559643e+02
   5.669044e+01  -7.625571e+01
   1.441196e+02   2.756324e+01
   1.457838e+02   5.641179e+01
   2.682069e+01   5.634959e+01
  -1.133226e+02   3.059130e+01
  -1.458512e+02   3.089828e+01
  -6.107253e+01  -1.082419e+01
   3.831645e+01   8.695388e+00
   9.726000e+00  -4.232601e+01
  -8.025389e+01   3.965034e+01
  -3.607631e+00  -5.131416e+01
   7.866495e+01  -2.789186e+01
   1.031820e+02   3.152887e+00
   4.291922e+01   8.978128e+01
  -9.103553e+01   1.284007e+02
  -1.487444e+02   6.761928e+01
  -1.290256e+02  -3.720472e+01
  -3.345986e+01  -1.948986e+02
   1.171187e+02  -1.711695e+02
   1.055422e+02  -8.352490e+01
   1.201943e+02  -4.512726e+00
   6.862205e+01   2.219143e+01
   4.380397e+01   3.398567e+01
   4.421813e+01   2.131460e+00
   3.052920e+01   4.590708e+01
   3.040634e+01   5.728182e+01
  -1.240978e+01   7.990957e+01
  -6.203853e+01   2.339201e+01
  -8.034957e+01  -7.535285e+01
  -2.348362e+01  -7.482770e+01
   3.304877e+01   8.842427e+00
   7.216481e+01   7.686566e+01
   3.462771e+01   9.723678e+01
  -7.095907e+01   4.008580e+01
  -1.215974e+02   4.534583e+00
  -5.068601e+01  -2.106391e+01
  -5.132478e-01  -1.909539e+01
   4.116411e+01  -6.527805e+01
  -4.023232e+01   1.315576e+01
  -1.256762e+02  -1.051759e+01
  -3.462260e+00  -5.027535e+01
   7.382494e+01  -8.200464e+01
   8.360176e+01  -7.911491e+01
   7.675173e+01   5.966983e+01
  -4.828645e+01   7.310570e+01
  -4.456761e+01   5.321427e+01
  -8.750705e+01   2.955174e+01
   3.376115e+01  -4.985203e+01
  -1.781251e+00  -6.446448e+01
   5.323441e+01  -1.601728e+01
   4.726431e+01   6.881309e+01
   6.948027e+00   6.477491e+01
  -6.599218e+01  -2.534052e+01
  -5.269446e+01  -7.068089e+00
  -4.205646e+01   1.555290e+01
   1.708879e+01   1.358545e+00
   8.071555e+00  -1.159903e+01
  -1.785307e+01  -1.920998e+01
  -6.209121e+00  -5.277092e+01
   9.031561e+00   9.531993e-01
   4.560732e+01   5.679508e+01
  -2.257791e+01   6.161303e+01
  -2.385846e+01   1.498570e+01
  -7.006559e+01  -6.558032e+00
  -1.133337e+01  -8.490009e+01
   3.563710e+01  -1.327233e+01
   9.173021e+01   2.724960e+01
   3.212473e+01   5.054382e+01
  -1.900846e+01  -3.574184e+00
  -4.233891e+01   2.644091e-01
  -1.740478e+01  -5.151946e+00
   4.151910e+01  -1.141074e+01
   5.316421e+01  -1.476654e+01
  -9.125759e+00   3.811107e+01
  -8.765862e+01   5.442529e+01
