
 $NMID
 id='ANONYMOUS ', fmtdat='(2E16.6)'
 volume=1.0
 tramp=1.0
 $END
   4.689151e+03  -1.358843e+01
   2.783075e+03   2.800247e+03
  -8.377501e+02   2.953435e+03
  -2.294290e+03   9.279017e+02
  -8.167465e+02  -8.668401e+02
   7.356038e+02  -6.102079e+02
   8.378391e+02   4.777641e+02
  -8.744557e+01   1.134825e+03
  -8.476188e+02   7.234962e+02
  -9.113984e+02  -1.549549e+02
  -5.226673e+02  -8.270827e+02
   2.271228e+02  -9.246264e+02
   7.221041e+02  -7.293796e+01
   3.766599e+02   7.999488e+02
  -2.308221e+02   7.899697e+02
  -6.297450e+02   8.546464e+01
  -2.701521e+02  -6.898588e+02
   3.187180e+02  -5.876023e+02
   6.371336e+02  -5.513685e+01
   4.033167e+02   4.098418e+02
   5.351032e+01   4.549193e+02
  -2.575410e+02   2.703735e+02
  -2.274444e+02   6.700332e+01
   8.896274e+01  -1.787484e+02
   4.015419e+02   9.413498e+01
   2.417069e+02   4.670245e+02
  -4.575708e+02   4.823852e+02
  -9.358856e+02  -4.720709e+01
  -4.178628e+02  -6.060473e+02
   3.763365e+02  -5.243007e+02
   7.911211e+02   8.830715e+00
   3.914061e+02   5.343008e+02
  -2.840228e+02   5.247614e+02
  -6.035979e+02   1.951375e+02
  -4.388216e+02  -3.259641e+02
  -1.797668e+01  -5.162737e+02
   2.158994e+02  -2.715228e+02
   1.867745e+02   2.688634e+02
  -2.377847e+02   5.257252e+02
  -5.554078e+02  -2.092319e+01
  -2.778270e+02  -7.229168e+02
   3.713288e+02  -7.439217e+02
   6.120547e+02  -9.087700e-01
   2.567401e+02   5.701984e+02
  -3.031739e+02   3.242185e+02
  -4.496551e+02  -3.684128e+02
   6.219920e+01  -6.196343e+02
   5.928487e+02  -2.176862e+02
   6.402298e+02   3.717753e+02
   1.786394e+02   5.876186e+02
  -3.909252e+02   3.507961e+02
  -6.160520e+02  -9.841401e+01
  -3.783915e+02  -3.955224e+02
   1.945703e+02  -3.544306e+02
   5.215400e+02  -3.005709e+01
   2.694373e+02   2.947165e+02
  -1.481605e+02   1.406107e+02
  -1.544320e+02  -1.578111e+02
   1.272742e+02  -1.976077e+02
   3.820572e+02   7.186021e+01
   1.597994e+02   3.229333e+02
  -1.748630e+02   2.587403e+02
  -3.363145e+02   1.094490e+02
  -2.549879e+02  -1.020830e+02
   4.027064e+01  -2.483041e+02
   2.005211e+02  -3.346847e+02
   3.276450e+02  -2.361911e+02
   3.155126e+02   1.063262e+02
   1.222269e+02   4.265514e+02
  -1.106725e+02   3.760662e+02
  -1.175015e+02   1.286548e+02
   6.108821e+00  -4.169403e+01
   3.935166e+00   7.284874e+01
  -1.968702e+02   1.652607e+02
  -2.809396e+02  -2.899206e+01
  -2.002843e+02  -2.428330e+02
   4.963523e+01  -2.920368e+02
   2.266091e+02  -2.095440e+01
   2.044944e+02   2.689335e+02
   4.449905e+00   3.442812e+02
  -2.543794e+02   1.504428e+02
  -3.474922e+02  -1.529864e+02
  -2.339013e+02  -3.175663e+02
   1.007463e+02  -2.894815e+02
   2.039084e+02  -1.455160e+02
   1.804885e+02  -5.103592e+01
   1.191455e+02  -4.579133e+01
   2.110620e+02  -8.917812e+01
   3.728366e+02   6.590900e+01
   3.165597e+02   2.812438e+02
   3.516522e+01   4.598291e+02
  -3.551681e+02   4.238614e+02
  -5.339739e+02   2.685730e+02
  -4.229836e+02  -5.264626e+01
  -9.178232e+01  -3.013882e+02
   1.441679e+02  -3.045868e+02
   8.936399e+01  -1.624916e+01
  -1.186544e+02   9.925460e+01
  -2.158441e+02  -2.514399e+01
  -7.775297e+01  -2.431380e+02
   1.904779e+02  -2.148446e+02
   2.053565e+02   6.891932e+01
  -3.387538e+01   2.370696e+02
  -2.265675e+02   9.012386e+01
  -1.707346e+02  -2.618716e+02
   6.858471e+01  -3.238947e+02
   1.994163e+02  -1.936355e+02
   3.332868e+02   9.478072e+01
   2.798756e+02   2.918239e+02
   8.015494e+01   2.633608e+02
  -1.335775e+02   1.538948e+02
  -1.966036e+02  -3.149400e+01
  -3.677885e+01  -2.526410e+01
   5.716692e+01  -7.259674e+00
   4.975196e+01   1.078695e+02
  -1.004264e+02   1.056239e+02
  -2.006232e+02   2.546809e+01
  -6.824005e+01  -1.070926e+02
   8.336660e+01  -1.281306e+01
   5.930101e+01   6.193689e+01
  -1.036456e+02   4.610733e+01
  -2.935435e+02   1.590609e+01
  -2.340770e+02  -8.143620e+01
  -7.417780e+01  -2.324218e+02
   1.284539e+02  -2.579005e+02
   2.563373e+02  -1.796747e+02
   1.040644e+02   5.976757e+01
  -3.453291e+01   1.158761e+02
  -9.257331e+01  -2.137445e+01
   3.217506e+01  -1.310242e+02
   1.600426e+02  -9.937639e+01
   1.735976e+02   9.485448e+01
   2.587782e+01   2.281418e+02
  -7.946046e+01   1.583967e+02
  -1.306237e+02   2.805043e+00
  -8.827743e+01  -3.784364e+01
   4.619226e+01  -4.232342e+00
   7.001440e+01   9.254300e+01
  -5.409502e+01   1.637287e+02
  -1.886042e+02   2.679696e+01
  -2.119982e+02  -1.471494e+02
   1.786333e+01  -2.284141e+02
   1.901893e+02  -1.712871e+02
   1.761013e+02  -1.211855e+01
   6.417921e+01   7.936480e+01
  -1.020756e+02   1.271899e+02
  -9.799414e+01   8.363454e+01
  -3.309631e+01  -7.254764e+00
   8.639476e+00  -1.318098e+01
  -1.472148e+00  -2.903400e+00
  -8.679361e+01  -3.407737e+01
  -1.096941e+02  -1.225962e+02
  -2.024190e+01  -1.285068e+02
   1.370916e+02  -2.029284e+02
   2.883693e+02  -4.736720e+01
   2.144312e+02   1.158721e+02
   3.741056e+01   2.217998e+02
  -1.054916e+02   1.994603e+02
  -1.257678e+02   3.837343e+01
  -9.445050e+01  -3.675777e+01
  -6.178964e+01  -7.370095e+00
  -2.466685e+01   2.277218e+01
  -1.102952e+02   4.241675e+01
   1.324103e+00  -1.710608e+01
  -2.390352e+00  -1.366396e+02
   8.667348e+01  -7.212854e+01
   1.054288e+02   2.164530e+01
  -6.445995e+00   1.237217e+02
  -1.426384e+02   1.113015e+02
  -1.980371e+02  -7.558271e+01
  -1.049839e+02  -1.917668e+02
   1.171887e+02  -1.953596e+02
   3.129340e+02  -4.708623e+01
   2.267564e+02   9.357076e+01
   8.492122e+01   1.863301e+02
  -7.940342e+01   1.261591e+02
  -1.736171e+02   1.191544e+02
  -1.206037e+02   7.016479e+01
  -4.059470e+01   7.349513e+01
  -4.218517e+01   6.942633e+01
  -1.150875e+02  -1.588567e+01
  -1.769055e+02  -1.548894e+02
  -2.369113e+01  -2.438808e+02
   1.092302e+02  -1.457354e+02
   1.710722e+02  -1.252672e+01
   1.128528e+02   1.204093e+02
  -1.908888e+01   1.549796e+02
  -5.968045e+01   8.942421e+01
  -6.256713e+01   2.561755e+01
  -2.788980e+01  -6.777166e+01
   7.278690e+00  -6.854511e+01
   8.384938e+00   6.598698e+00
  -9.461858e+01  -1.092720e+01
  -2.992126e+01   1.157384e+00
   1.151457e+02  -5.756574e+01
   1.755146e+02   4.008858e+00
   1.052369e+02   4.810666e+01
  -4.032239e+00   4.262992e+01
  -1.373377e+02   9.372715e+01
  -1.301545e+02  -3.893681e+01
  -5.317098e+01   9.400211e+00
   4.484724e+01  -1.792294e+01
   9.620319e+01   4.113380e+01
   7.312393e+00   7.908044e+01
  -7.100115e+01   7.914021e+01
  -6.998354e+01   8.094059e+00
  -6.294468e+01  -4.281762e+01
  -4.889768e+01  -5.306421e+01
  -7.152365e+01  -2.730012e+01
  -7.172753e+01  -2.840690e+00
  -1.880679e+01  -7.398721e+01
   3.361083e+01  -7.089293e+01
   1.002735e+02  -1.403365e+02
   1.880604e+02  -4.099454e+01
   8.247103e+01   1.064915e+02
  -6.250249e+00   1.494789e+02
  -1.361242e+02   1.063725e+02
  -5.407980e+01  -3.279905e+01
   9.440284e+01   7.265184e+00
   1.471609e+02   3.145001e+01
   5.409124e+01   1.278555e+02
  -1.355969e+02   1.074503e+02
  -1.844137e+02   4.417493e+01
  -1.889796e+02  -4.745854e+01
  -4.956271e+01  -9.867474e+01
   5.828264e+01  -7.423004e+01
   3.852576e+01  -1.068377e+01
  -4.923182e+01   1.400941e+01
  -5.103186e+01  -3.675370e+01
  -3.446742e+01  -1.394761e+02
   1.092348e+02  -1.307278e+02
   1.805911e+02  -2.745060e+01
   1.354195e+02   1.253022e+02
   1.873226e+01   2.616083e+02
  -7.270760e+01   1.548048e+02
  -1.008837e+02   1.766564e+00
  -1.227230e+02  -1.359152e+02
  -9.448224e+00  -9.535104e+01
   2.529006e+01  -3.216694e+01
   6.561620e+01   3.060956e+01
   2.312009e+01   1.718477e+01
  -1.392479e+01   3.944035e+01
   3.631375e+00   4.339705e+01
   4.165928e+01   9.527204e+01
   6.235129e+01   9.870261e+01
  -7.544031e+01   5.415643e-01
  -1.177412e+02  -4.339663e+01
  -1.239265e+02  -5.826155e+01
   3.190979e+00  -4.271449e+01
   7.947227e+01  -5.606201e+00
   1.409695e+02  -4.803249e+01
   3.913367e+01  -7.696915e+00
  -9.121171e+00   1.244495e+01
  -4.291466e+01   7.801697e+01
  -8.596680e+00   7.011446e+00
  -5.078017e+01   1.534598e+01
  -5.732429e+01  -2.783541e+01
  -7.647334e+01  -4.613000e+00
   5.653336e-02  -9.489877e+01
   1.020912e+02  -1.285455e+02
   1.604091e+02  -4.063889e+01
   1.380844e+02   4.221669e+01
   2.182912e+01   1.674408e+02
  -7.786833e+01   1.472978e+02
  -1.771845e+02   3.220717e+01
  -5.008701e+01  -4.635760e+00
   1.243331e+01  -3.304515e+01
  -2.807315e-01  -2.985858e-01
  -3.507768e+01  -5.117980e+00
  -8.191057e+01  -1.057173e+02
  -5.350055e+01  -1.264064e+02
   4.004276e+01  -5.148422e+01
   8.042654e+01   3.271015e+01
   1.143303e+02   6.863628e+01
  -7.552199e+00   1.283026e+02
  -1.046673e+02   6.484706e+01
  -1.464553e+02  -5.823053e+01
  -2.002301e+01  -1.248026e+02
   7.864651e+01  -8.786815e+01
   9.478814e+01   4.281469e+00
   6.593248e+00   3.855108e+01
  -3.867548e+01   3.884974e+01
   7.524339e+00  -2.194623e+01
   1.566636e+01  -8.182688e+00
   8.912781e+01  -6.970926e+01
   2.846401e+01  -2.129558e+00
  -9.730315e+01   5.167691e+01
  -8.344930e+01   8.450953e+01
  -4.725865e+01   1.960532e+01
   1.254450e+01  -6.546195e+01
   1.911557e+01  -6.372193e+01
   2.350846e+01  -8.248013e+01
   1.308303e+01   1.119387e+01
   5.056221e+00   4.710244e+01
  -5.079692e+01  -4.162659e+00
  -3.331731e+01  -5.607603e+01
   1.800903e+01  -2.845703e+01
   7.715144e+01   2.236864e+01
   2.416398e+01   3.088579e+01
   2.188282e+01   1.668413e+01
  -2.467561e+01  -3.637394e+01
  -2.298785e+00  -1.615648e+01
  -1.979380e+01   1.500943e+01
   1.615705e+01   3.222016e+01
  -3.024257e+00  -2.085572e+01
   1.866029e+01  -1.973383e+01
   3.976047e+00  -3.052553e+01
   3.730701e+01  -5.186585e+00
   5.068109e+01   3.718013e+01
   6.360894e+00   8.516417e+00
  -4.548239e+01   4.657944e+01
  -1.139160e+02  -7.323648e+00
  -3.219830e+01  -5.825516e+01
   3.088263e+01  -4.073551e+01
   6.527490e+01  -5.649150e+01
   2.634276e+01   2.540927e+00
  -3.240792e+01  -4.867334e+01
  -4.805409e+01  -4.573491e+00
   8.070912e+01   6.555160e+00
   1.168589e+02   2.054111e+01
