
 $NMID
 id='ANONYMOUS ', fmtdat='(2E16.6)'
 volume=1.0
 tramp=1.0
 $END
   3.946205e+03  -3.125703e+02
   2.346637e+03   2.227253e+03
  -3.439518e+02   2.461098e+03
  -1.725611e+03   1.100488e+03
  -1.121261e+03  -2.048485e+02
   2.809571e+02  -4.500675e+02
   5.778099e+02   2.435789e+02
   1.181184e+02   8.692178e+02
  -6.615829e+02   6.737025e+02
  -8.160264e+02  -1.765656e+01
  -4.216517e+02  -7.641907e+02
   1.722848e+02  -8.207790e+02
   5.427756e+02  -1.579913e+02
   3.426428e+02   5.314762e+02
  -2.308223e+02   6.990673e+02
  -5.229382e+02   8.181493e+01
  -2.399420e+02  -6.643557e+02
   2.699915e+02  -6.447449e+02
   5.701551e+02  -1.318261e+02
   4.226141e+02   2.325695e+02
   3.905419e+01   4.486407e+02
  -2.015199e+02   1.919333e+02
  -2.045562e+02   6.507587e+01
   2.759384e+02   2.716397e+01
   4.030222e+02   1.914595e+02
   4.762194e+01   3.642528e+02
  -5.112366e+02   2.607380e+02
  -7.574936e+02  -1.575832e+02
  -3.010755e+02  -5.080001e+02
   4.335691e+02  -3.354324e+02
   6.219922e+02   1.492814e+02
   2.277546e+02   4.095447e+02
  -2.957406e+02   4.076117e+02
  -5.354158e+02   1.026873e+02
  -3.743062e+02  -1.697246e+02
  -8.722108e+01  -3.680429e+02
   1.024011e+02  -2.599693e+02
   9.069701e+01   1.637307e+02
  -2.016027e+02   3.122567e+02
  -3.257087e+02  -2.500019e+01
  -1.258496e+02  -5.691258e+02
   2.831300e+02  -6.456923e+02
   4.810345e+02   8.911639e+00
   2.043449e+02   4.637448e+02
  -2.307383e+02   2.841632e+02
  -3.293298e+02  -2.847476e+02
   6.338958e+01  -4.822144e+02
   5.571829e+02  -1.383754e+02
   5.775083e+02   3.519453e+02
   1.640712e+02   4.891313e+02
  -3.360923e+02   3.103441e+02
  -6.086357e+02  -3.009664e+01
  -4.040489e+02  -3.146881e+02
   1.128959e+02  -3.504790e+02
   4.107238e+02  -1.051174e+02
   2.808754e+02   1.217120e+02
  -5.785889e+01   1.106677e+02
  -1.672425e+02  -5.950179e+01
   9.710151e+01  -1.466234e+02
   3.170273e+02   3.620614e+01
   1.579365e+02   2.976168e+02
  -2.184624e+02   2.831192e+02
  -3.752254e+02   7.500922e+01
  -2.232884e+02  -1.400162e+02
   4.894267e+01  -3.542497e+02
   2.917193e+02  -3.796226e+02
   3.899579e+02  -1.745250e+02
   3.139438e+02   1.719773e+02
   8.433101e+01   4.772675e+02
  -1.211240e+02   3.611599e+02
  -1.106194e+02   1.495275e+02
  -3.226700e+01   4.751042e+01
  -1.060935e+02   1.027490e+02
  -2.590425e+02   1.189742e+02
  -2.677412e+02  -5.906761e+01
  -1.387877e+02  -2.380811e+02
   1.291541e+02  -2.030821e+02
   1.994574e+02   4.754568e+01
   1.551751e+02   2.980443e+02
  -7.294102e+01   2.612852e+02
  -2.820116e+02   7.955548e+01
  -3.464654e+02  -1.711046e+02
  -1.426113e+02  -3.681183e+02
   6.999033e+01  -3.289241e+02
   2.537294e+02  -2.051537e+02
   1.724246e+02  -4.754153e+01
   1.516218e+02   2.879337e+01
   2.598796e+02  -3.129868e+01
   3.793673e+02   8.003758e+01
   3.136474e+02   2.967866e+02
  -2.823907e+01   4.718320e+02
  -3.708999e+02   4.512262e+02
  -4.741593e+02   1.931704e+02
  -3.224844e+02  -1.045931e+02
  -2.862118e+01  -2.611870e+02
   9.051991e+01  -2.309183e+02
   1.956034e+01   1.520763e+00
  -1.315181e+02   1.091365e+02
  -1.820322e+02  -1.685577e+01
  -7.663396e+01  -1.945038e+02
   1.263368e+02  -1.992196e+02
   1.809487e+02   4.000201e+01
   5.625336e+00   1.754816e+02
  -1.750871e+02   2.450681e+01
  -1.625040e+02  -2.117407e+02
   9.546223e+00  -3.609676e+02
   2.575613e+02  -1.909644e+02
   3.514035e+02   7.499134e+01
   2.782428e+02   2.914666e+02
   4.371438e+01   2.798587e+02
  -1.242195e+02   1.601772e+02
  -1.947335e+02   2.717122e+01
  -5.992875e+01  -3.590974e+01
   7.014050e+01   1.369374e+00
   9.811495e+00   9.007455e+01
  -1.335838e+02   9.481732e+01
  -1.385604e+02  -1.203610e+01
  -2.295223e+01  -9.729044e+01
   1.274289e+02   3.759179e+01
   1.065397e+02   1.167755e+02
  -1.343403e+02   7.472324e+01
  -2.967916e+02  -4.735030e+01
  -3.163892e+02  -1.999874e+02
  -6.445442e+01  -2.455796e+02
   1.842195e+02  -2.271113e+02
   2.917483e+02  -6.496281e+01
   1.713488e+02   3.080288e+01
  -5.380280e+01   1.405151e+02
  -9.637832e+01   2.417501e+01
   6.409575e+00  -1.030586e+02
   1.772973e+02  -5.173623e+01
   2.267038e+02   9.742614e+01
   6.474546e+01   1.758390e+02
  -9.357059e+01   1.800267e+02
  -1.382311e+02   1.880527e+01
  -5.507104e+01  -5.225414e+01
   3.197460e+01   1.809387e+01
   2.427244e+01   8.146559e+01
  -9.678040e+01   1.388380e+02
  -2.322503e+02   2.550244e+01
  -1.958488e+02  -1.273059e+02
  -2.788310e+01  -2.013892e+02
   1.241454e+02  -2.077113e+02
   1.711749e+02  -1.528347e+01
   6.156420e+01   6.291536e+01
  -7.227462e+01   7.685211e+01
  -7.101883e+01   1.096732e+01
   2.043813e+01  -2.022173e+01
   1.006679e+02   2.351141e+01
   2.563424e-01  -1.980850e+00
  -5.037997e+01   3.148647e+01
  -1.474931e+02  -2.117371e+01
  -2.356941e+01  -1.771541e+02
   1.256136e+02  -1.519538e+02
   2.298865e+02   1.650684e+01
   1.886187e+02   1.469092e+02
   6.239276e+01   2.332844e+02
  -1.004005e+02   1.733750e+02
  -1.205244e+02   2.310752e+01
  -1.140249e+02  -2.329589e+01
  -6.601648e+01  -1.531980e+01
  -1.035016e+02   2.318687e+01
  -1.229667e+02  -1.645008e+01
  -5.109665e+01  -3.546282e+01
   6.603977e+01  -1.235305e+02
   1.455780e+02  -7.890601e+01
   1.100251e+02   5.941058e+00
   1.914885e+01   8.968872e+01
  -1.154235e+02   9.532223e+01
  -1.821095e+02  -1.986513e+01
  -3.880805e+01  -1.713662e+02
   1.137799e+02  -2.218687e+02
   2.607828e+02  -1.032266e+02
   2.394543e+02   8.448888e+01
   7.917077e+01   1.523624e+02
   2.026498e+01   1.126685e+02
  -1.041258e+02   9.220068e+01
  -2.646555e+01   5.834884e+01
  -2.697634e+01   1.114499e+02
  -8.531147e+01   1.146265e+02
  -1.366623e+02   1.538545e+01
  -1.584804e+02  -1.677902e+02
  -4.660489e+01  -2.339202e+02
   1.003434e+02  -1.952107e+02
   2.104131e+02  -3.788725e+01
   1.541841e+02   1.360312e+02
   1.145313e+00   1.361287e+02
  -1.118723e+02   8.433692e+01
  -6.802941e+01  -1.586047e+01
  -2.009286e+01  -1.546349e+01
   1.871040e+01  -7.890943e+01
   5.856373e+00  -5.008253e+01
  -1.289136e+02  -1.025160e+01
  -1.277429e+01  -1.983337e+01
   4.786079e+01  -6.049037e+01
   1.706969e+02  -1.252530e+01
   1.932306e+02   4.434511e+01
   3.282586e+01   5.858212e+01
  -1.361066e+02   1.118277e+02
  -1.881369e+02   1.856851e+01
  -5.151160e+01   1.253089e+01
   1.067022e+02  -3.057457e+01
   9.351806e+01   1.298084e+01
   2.125865e+01   7.462425e+01
  -5.338120e+01   6.378577e+01
  -6.514864e+01   3.023160e+01
  -8.138079e+01  -3.219748e+01
  -4.441718e+01  -2.567436e+01
  -1.105757e+02  -1.521956e+01
  -8.611370e+01  -1.193279e+01
  -5.880629e+01  -7.781746e+01
   2.868435e+00  -1.440638e+02
   1.673611e+02  -9.226155e+01
   1.884399e+02  -4.493980e+01
   1.641469e+02   8.787204e+01
  -1.478338e+01   1.407934e+02
  -1.097374e+02   6.195000e+01
  -7.159545e+01  -2.945329e+01
   4.869240e+01   7.340218e+00
   1.532854e+02   4.020888e+01
   9.208549e+01   7.634661e+01
  -1.325066e+02   1.339622e+02
  -1.858844e+02   5.169453e+01
  -1.428234e+02  -3.466351e+01
  -5.066780e+01  -9.365107e+01
   6.988470e+01  -4.569584e+01
   4.621551e+01  -3.731602e+01
  -4.547301e+01   6.105458e+01
  -6.225316e+01  -1.592432e+00
  -4.731047e+01  -1.407539e+02
   7.195914e+01  -1.713547e+02
   1.507875e+02  -5.552747e+01
   1.594230e+02   6.848353e+01
   9.509603e+00   1.756241e+02
  -4.497651e+01   1.009104e+02
  -6.428854e+01   1.404955e+01
  -1.722486e+01  -1.100821e+02
   2.607181e+01  -9.696081e+01
  -1.387466e+00   3.516960e+01
   9.089026e-01   4.058377e+01
  -2.963742e+01   9.967986e+01
  -5.005950e+01  -6.042713e+00
   5.056760e+01   1.185339e+01
   6.886157e+01   5.633780e+01
   6.382864e+01   1.178463e+02
  -6.678166e+01   6.342561e+01
  -1.424835e+02  -2.450373e+01
  -1.358555e+02  -7.424018e+01
  -6.806275e+00  -6.657426e+01
   1.528878e+02  -4.087006e+01
   9.848415e+01   1.121850e+01
   1.402358e+01   1.717810e+01
  -4.907352e+01  -3.162517e+01
  -4.609439e+01   2.627132e+01
   2.640219e+01   1.933948e+01
   1.785325e+01  -9.600943e+00
  -6.726142e+01   4.404691e+01
  -9.876464e+01  -1.249428e+01
  -5.413347e+01  -9.295241e+01
   9.163617e+01  -1.262534e+02
   2.139049e+02  -4.673418e+01
   1.708505e+02   7.569301e+01
   1.129049e+01   1.391606e+02
  -1.667201e+02   1.754330e+02
  -1.369637e+02   7.486473e+01
  -6.945543e+01  -1.996095e+01
  -4.708468e+01  -2.076528e+01
   5.348412e+01  -3.358631e+01
  -2.859264e+01  -1.821651e+01
  -3.108765e+01  -1.714940e+00
  -2.987413e+01  -8.593256e+01
  -1.470155e+01  -7.792905e+01
   8.609115e+01   2.070356e+01
   7.048348e+01   7.041590e+00
   3.527610e+01   1.224874e+02
  -6.648156e+01   6.613136e+00
  -8.221283e+01  -4.700386e+01
  -5.661868e+01  -7.303294e+01
   7.327980e+01  -4.686295e+01
   9.651249e+01  -6.181181e+00
   5.803027e+01   1.596800e+01
   1.661855e+01   6.009247e+01
  -2.401362e+01   2.277083e+01
   3.105932e+01  -2.538386e+00
   7.462536e+01   2.230691e+01
   1.766270e+01   2.041443e+01
  -1.157216e+02   5.813055e+01
  -1.146284e+02   5.764122e+01
  -9.613980e+01  -3.756098e+01
   1.667656e+01  -5.861356e+01
   5.589432e+01  -4.446727e+01
   5.125962e+01  -4.474051e+01
   1.418848e+01   6.060218e+01
   2.709309e+01   4.453082e+01
  -6.516945e+01  -6.676858e+01
  -6.550864e+01  -2.200117e+01
   2.808599e-01  -4.274325e+01
   2.581390e+01   2.762237e+01
   1.429129e+01  -5.898758e+00
   1.086607e+01  -1.212972e+01
  -1.835640e+01   8.437504e+00
   1.932905e+01  -1.909825e+01
   3.017846e+01   6.663142e+01
  -1.518122e+01   4.242148e+01
  -8.239197e+01   3.618711e+01
  -4.794250e+01  -2.507623e+01
   3.862467e+00  -1.036499e+02
   7.553145e+01  -3.987163e+00
   6.677755e+01   2.089223e+01
  -4.669800e+01   4.656375e+01
  -7.923546e+01   6.411126e+01
  -9.597288e+01  -3.524606e+00
  -3.535323e+01  -3.554502e+01
   1.231063e+01  -5.018731e+00
   9.590559e+01  -1.652141e+01
   4.435672e-01   2.308251e+01
  -4.271183e+01   4.174447e+01
  -2.369604e+01  -2.944198e+01
  -5.111935e+01   6.944259e+00
   7.819309e+01  -1.893616e+01
