
 $NMID
 id='ANONYMOUS ', fmtdat='(2E16.6)'
 volume=1.0
 tramp=1.0
 $END
  -4.508034e+03   1.177065e+02
  -2.734412e+03  -2.784991e+03
   6.419871e+02  -2.782948e+03
   2.053853e+03  -1.133466e+03
   1.118783e+03   5.653372e+02
  -6.892443e+02   6.694130e+02
  -8.618597e+02  -3.712795e+02
   5.831612e+01  -1.027375e+03
   8.772532e+02  -8.175487e+02
   8.875264e+02   4.359124e+01
   4.235671e+02   9.832697e+02
  -2.400052e+02   7.986396e+02
  -6.130221e+02   8.921100e+01
  -4.795724e+02  -7.950908e+02
   3.198818e+02  -6.580975e+02
   6.175893e+02  -6.876081e+01
   3.417660e+02   6.819170e+02
  -3.220903e+02   7.539066e+02
  -5.746568e+02   7.525712e+01
  -4.496103e+02  -3.126008e+02
  -8.293838e+01  -5.053567e+02
   1.917358e+02  -2.979262e+02
   1.930249e+02  -2.008316e+01
  -1.292572e+02  -4.394205e+00
  -4.289946e+02  -1.588185e+02
  -1.666278e+02  -4.237557e+02
   4.402140e+02  -3.837078e+02
   8.910133e+02   5.145654e+01
   4.301603e+02   5.613295e+02
  -3.997718e+02   4.935584e+02
  -7.614725e+02  -1.482673e+01
  -3.397906e+02  -4.822584e+02
   2.848507e+02  -4.829113e+02
   5.056044e+02  -2.040855e+02
   3.941189e+02   2.241403e+02
   8.710899e+01   4.614161e+02
  -2.162845e+02   3.300130e+02
  -1.681157e+02  -1.982760e+02
   2.156993e+02  -5.057491e+02
   4.326517e+02  -2.199907e+01
   2.553420e+02   6.518300e+02
  -2.774603e+02   7.288646e+02
  -5.996428e+02   3.803316e+01
  -2.685437e+02  -5.389395e+02
   2.510854e+02  -3.502427e+02
   4.587083e+02   2.570283e+02
  -2.807178e+01   5.984663e+02
  -5.535098e+02   1.774604e+02
  -6.000170e+02  -3.884845e+02
  -1.892895e+02  -6.282720e+02
   3.943180e+02  -3.004802e+02
   7.054466e+02   8.260223e+01
   4.099568e+02   4.091250e+02
  -2.085340e+02   3.371275e+02
  -4.775871e+02   8.067077e+01
  -2.570809e+02  -2.268245e+02
   1.621680e+02  -1.148485e+02
   2.144636e+02   1.445069e+02
  -1.521078e+02   2.005194e+02
  -3.788521e+02   1.107743e+01
  -1.917693e+02  -2.579018e+02
   1.770904e+02  -2.697825e+02
   3.812510e+02  -1.301070e+02
   1.946076e+02   2.633558e+01
   1.480233e+01   2.592576e+02
  -1.927078e+02   3.829877e+02
  -3.711257e+02   2.598856e+02
  -3.118535e+02  -1.041468e+02
  -1.011586e+02  -4.885260e+02
   1.226916e+02  -4.288284e+02
   1.492840e+02  -7.020843e+01
   2.617664e+01   2.912095e+01
   2.684572e+01  -3.322902e+01
   1.830576e+02  -9.077873e+01
   2.715778e+02   3.735409e+01
   1.616765e+02   2.394105e+02
  -6.278017e+01   2.302028e+02
  -2.620992e+02   3.202995e+01
  -1.874503e+02  -2.023798e+02
  -3.378576e+00  -2.500333e+02
   2.309118e+02  -1.559764e+02
   3.456994e+02   1.535632e+02
   1.696538e+02   3.289307e+02
  -1.096704e+02   2.611255e+02
  -2.445333e+02   1.008058e+02
  -1.608130e+02  -2.739431e+01
  -8.260896e+01   8.150876e+01
  -2.068999e+02   7.840647e+01
  -4.284968e+02  -6.642937e+01
  -3.239695e+02  -3.164394e+02
   3.258272e+01  -4.502705e+02
   4.208700e+02  -4.192793e+02
   5.150989e+02  -2.353699e+02
   2.894064e+02   8.300871e+01
   4.005687e+00   3.020989e+02
  -1.269809e+02   2.444370e+02
  -6.674975e+01   3.196511e+01
   1.796624e+02  -1.100949e+02
   2.198607e+02   4.008018e+00
   3.167520e+01   2.251801e+02
  -1.303956e+02   2.268269e+02
  -2.528268e+02  -1.691422e+01
  -2.453572e+01  -1.846247e+02
   2.166251e+02  -5.230222e+01
   1.696403e+02   2.592755e+02
  -1.354853e+01   3.244507e+02
  -2.269930e+02   1.647186e+02
  -3.374873e+02  -8.595382e+01
  -2.870996e+02  -2.416398e+02
  -7.111185e+01  -2.504284e+02
   9.966113e+01  -1.934317e+02
   1.688943e+02  -4.842016e+01
   1.049490e+02   6.342914e+01
  -6.829757e+01   2.647700e+01
  -3.868762e+01  -1.427677e+02
   9.210439e+01  -7.636745e+01
   1.590312e+02   7.340528e+00
   8.828875e+01   8.286762e+01
  -4.840535e+01   2.900150e+01
  -4.846501e+01  -5.744526e+01
   1.045298e+02  -4.333973e+01
   2.962215e+02   2.312589e+01
   2.680158e+02   1.196115e+02
   5.819656e+01   2.155946e+02
  -2.014416e+02   2.826323e+02
  -2.809750e+02   1.482106e+02
  -2.006447e+02  -4.886716e+01
   7.750584e+00  -1.490249e+02
   9.368906e+01  -7.474063e+00
  -5.414674e+00   8.134287e+01
  -2.191762e+02   6.313268e+01
  -2.277641e+02  -5.889762e+01
  -8.345167e+01  -1.950012e+02
   1.260129e+02  -1.846481e+02
   1.745064e+02  -4.385545e+01
   7.522739e+01   1.026777e+02
  -5.982302e+01   1.590981e+01
  -2.866844e+01  -8.105212e+01
   9.073712e+01  -9.486227e+01
   2.160549e+02  -6.486297e+01
   1.983010e+02   1.224437e+02
  -1.067799e+01   2.505573e+02
  -1.993331e+02   1.933331e+02
  -1.952197e+02   5.471466e+00
  -3.341669e+01  -1.388893e+02
   4.280994e+01  -1.252909e+02
   3.552240e+01   1.012519e+00
   8.773183e+00   6.944639e+01
   2.535485e+01  -2.819749e+01
   3.967185e+01  -1.251492e+01
   8.888957e+01   8.895393e+00
   7.870825e+01   8.090384e+01
  -8.713168e+00   2.040863e+02
  -1.640111e+02   1.760438e+02
  -2.423537e+02   3.801005e+01
  -2.004473e+02  -1.780342e+02
  -2.370271e+01  -2.160025e+02
   1.063379e+02  -1.655770e+02
   1.144807e+02  -5.580452e+01
   1.111538e+02   6.456413e+01
  -7.364421e+00   1.690146e+01
   3.949895e+01  -8.904297e+00
   7.389900e+01   3.145361e+01
   2.684343e+01   6.422703e+01
  -8.035390e+01   9.226448e+01
  -1.575680e+02   7.353704e+01
  -1.177066e+02  -4.545466e+01
   1.850493e+01  -1.528046e+02
   1.009549e+02  -8.111524e+01
   1.639262e+02   4.017745e+01
   1.131836e+02   1.767137e+02
  -7.819219e+01   1.906077e+02
  -2.616840e+02   1.241243e+02
  -2.329963e+02  -9.047889e+01
  -1.190520e+02  -1.364337e+02
   1.814356e+01  -1.411588e+02
   6.667450e+01  -1.256614e+02
   6.496826e+01  -7.447054e+01
   6.370771e+01  -7.774306e+01
   9.185442e+01  -1.012171e+02
   1.343916e+02  -1.583977e+00
   1.518035e+02   1.255869e+02
   6.498963e+01   2.169456e+02
  -1.120431e+02   1.380270e+02
  -1.304261e+02   6.943162e+01
  -1.609217e+02  -1.046828e+02
   5.370330e+00  -1.353797e+02
   7.646641e+01  -2.291281e+01
   1.057869e+02   3.697987e+01
   2.007917e+00   3.974858e+01
  -7.223734e-01   1.137186e+01
  -5.116469e+00   1.710956e+01
   5.178109e+01   1.953583e+01
   4.199819e+01   3.236340e+01
  -7.527028e+01   1.734429e-01
  -1.649823e+02  -5.103094e+01
  -1.283510e+02  -1.794967e+01
   3.141952e+00  -5.454517e+01
   1.084001e+02  -6.255156e+01
   9.880428e+01  -1.830273e+01
   3.050381e+01   3.786520e+01
  -6.098309e+01   1.186314e+01
  -8.767532e+01  -2.449853e+01
   2.871995e+01  -9.513064e+01
   7.352264e+01  -3.141902e+01
   8.251555e+01   3.724952e+01
   4.947670e+01   4.508417e+01
   3.759941e+01   5.251930e+01
   4.875798e+01  -1.544209e+01
   3.972755e+01   2.453956e+00
   4.076664e+01   8.902952e+01
  -3.279878e+01   1.701374e+02
  -1.417583e+02   1.527686e+02
  -1.491970e+02   9.817134e+00
  -1.163032e+02  -7.044598e+01
  -2.892897e+01  -1.598574e+02
   1.153178e+02  -6.998880e+01
   5.200475e+01   7.673686e+00
  -4.251208e+01   6.775517e+01
  -1.120948e+02   7.630749e+00
  -7.401116e+01  -1.181515e+02
   7.182454e+01  -1.245228e+02
   1.410254e+02  -8.348846e+00
   1.579312e+02  -9.130394e+00
   4.833605e+01   5.435939e+01
  -2.238035e+01   9.363887e+01
  -4.758359e+01   3.245665e+01
  -4.423484e+00  -7.945869e+00
   9.499099e+01   2.070773e+01
   5.506960e+01   9.956467e+01
  -3.975275e+01   1.319291e+02
  -1.910582e+02   1.038120e+02
  -1.038378e+02  -7.679652e+01
  -8.675364e+01  -2.346850e+02
   5.513881e+01  -1.396156e+02
   1.223156e+02   2.974168e+00
   4.901238e+01   1.108561e+02
  -1.046062e+01   9.529360e+01
  -3.965283e+01   2.660252e+01
  -2.949405e+01  -2.951179e+01
  -4.877911e+01  -4.891091e-01
  -1.057539e+01   3.712430e+01
  -3.531667e+01  -4.731654e+01
  -3.678420e+01  -7.096359e+01
  -1.245559e+01  -1.444043e+02
   2.873249e+01  -3.091779e+01
   1.330127e+02   6.544233e+00
   1.224727e+02   4.510146e+01
   1.020493e+01   3.546211e+01
  -6.503146e+01  -6.210464e+00
  -3.612984e+01  -1.393010e+01
  -3.447616e+00   1.232862e+01
   2.802884e+01  -4.131755e-01
   4.117555e+01  -2.942634e+00
   9.104453e+00  -4.750406e+00
  -4.364161e+00   2.375636e+00
   2.626325e+01  -2.726904e+00
   1.016355e+02   2.997689e+00
   2.221980e+00   7.112417e+01
  -1.451559e+02   1.129476e+02
  -1.822542e+02   3.742786e+01
  -1.375490e+02  -1.054194e+02
  -7.480034e+00  -1.380555e+02
   1.066159e+02  -1.326379e+02
   1.144549e+02  -3.150661e+01
   6.495473e+01  -1.657634e+00
   2.603016e+01   3.524656e+01
   3.082295e+00   2.861379e+01
   1.792693e+01   4.024252e+01
   3.496907e+01   7.067996e+01
   2.839979e+01   1.050745e+02
  -1.778772e+01   6.056712e+01
  -9.612248e+01  -3.163274e+01
  -1.092734e+02  -1.394637e+02
  -1.162019e+01  -1.344586e+02
   6.817827e+01  -2.103044e+01
   1.386451e+02   3.601705e+01
   6.682705e+01   1.146013e+02
  -4.084298e+01   4.534243e+01
  -1.205212e+02  -4.458615e+01
  -6.945940e+01  -2.748009e+01
   3.523433e+01  -2.849986e+01
   6.440076e+01  -3.860347e+01
  -1.672363e+01  -1.870847e+00
  -3.803493e+01   5.279451e+00
   4.953888e+00   2.760881e+01
   4.634689e+01  -8.388136e+01
   1.235283e+02  -7.166966e+01
   9.821126e+01   1.351323e+01
  -2.106229e+01   6.151477e+01
  -3.304071e+01   7.356049e+01
   8.428196e+00   6.075340e-02
  -1.239147e+00  -5.218568e+01
  -4.089177e-02  -3.445768e+01
   6.352611e+01   2.623687e+01
   4.367715e+01   4.905888e+01
   3.510867e+01   4.790858e+01
  -6.272424e+00   1.609679e+01
  -5.349095e+01   2.160471e+01
  -6.025496e+01  -1.040237e+01
  -6.438257e+00   2.815592e+01
   2.151211e+01   1.253571e+01
   7.107142e+01  -4.101078e+01
   3.353605e+01  -4.268315e+01
   5.256235e+01   2.260715e+01
   1.296791e+01   8.630924e+01
  -2.324576e+01   8.838237e+01
  -2.079242e+01   3.371257e+01
  -8.742102e+01  -2.881407e+01
  -1.029810e+01  -5.614617e+01
   6.247241e+01  -5.593184e+01
   1.234847e+02   3.356399e+01
   6.728681e+01   3.521174e+01
  -7.039124e+00   6.334315e+01
  -2.689190e+01   2.072542e+01
  -3.146213e+01   3.394292e+01
   6.500875e+01  -4.130064e+00
   2.707405e+01  -1.911769e+01
  -5.956911e+01   3.972612e+01
  -6.889971e+01   2.364266e+01
