
 $NMID
 id='ANONYMOUS ', fmtdat='(2E16.6)'
 volume=1.0
 tramp=1.0
 $END
   3.710470e+03   7.537840e+00
   2.335327e+03   2.113882e+03
  -2.060032e+02   2.403955e+03
  -1.660001e+03   1.105596e+03
  -9.380728e+02  -3.049088e+02
   2.839057e+02  -3.454312e+02
   5.924615e+02   2.128905e+02
   2.066542e+01   7.941199e+02
  -5.791541e+02   6.925906e+02
  -7.976499e+02  -9.591167e+01
  -4.862628e+02  -7.216491e+02
   1.177813e+02  -7.604629e+02
   4.031902e+02  -1.566375e+02
   3.108524e+02   5.306502e+02
  -1.877853e+02   6.000241e+02
  -4.171963e+02   3.865070e+01
  -3.159077e+02  -6.213924e+02
   2.172635e+02  -6.303208e+02
   5.799047e+02  -1.611148e+02
   3.648405e+02   2.322458e+02
   1.368868e+02   3.915259e+02
  -1.590126e+02   2.784199e+02
  -1.119766e+02  -2.319128e+01
   2.076406e+02  -5.390347e+01
   4.545759e+02   2.077624e+02
   1.333533e+02   4.984051e+02
  -5.281072e+02   3.149726e+02
  -8.000837e+02  -1.558176e+02
  -3.570116e+02  -4.782241e+02
   2.711366e+02  -3.267821e+02
   6.421607e+02   3.517515e+01
   2.860052e+02   4.038229e+02
  -2.632058e+02   3.829187e+02
  -4.744344e+02   1.850220e+02
  -3.811134e+02  -2.129649e+02
  -3.144644e+01  -3.471334e+02
   1.438736e+02  -2.291555e+02
   6.931621e+01   2.013910e+02
  -1.836355e+02   2.919145e+02
  -3.289418e+02  -1.160866e+02
  -1.528818e+02  -6.074555e+02
   2.736193e+02  -6.453433e+02
   4.496007e+02  -1.002920e+01
   1.530650e+02   4.725664e+02
  -2.765029e+02   2.708892e+02
  -3.001970e+02  -3.087856e+02
   1.169700e+02  -4.905335e+02
   5.736377e+02  -1.116741e+02
   5.648132e+02   3.748618e+02
   1.349959e+02   5.204370e+02
  -3.955509e+02   3.011561e+02
  -5.491269e+02  -8.331967e+01
  -3.057916e+02  -2.937155e+02
   1.175352e+02  -2.787653e+02
   3.673906e+02  -7.547448e+01
   2.058578e+02   1.107419e+02
  -2.918616e+01   6.600851e+01
  -8.034104e+01  -8.318329e+01
   1.208746e+02  -1.445087e+02
   3.182949e+02   1.888938e+01
   2.107670e+02   2.105949e+02
  -1.665870e+02   2.808318e+02
  -3.544591e+02   1.472889e+02
  -2.021453e+02  -2.154266e+01
   5.271640e+01  -2.565114e+02
   2.484955e+02  -3.627235e+02
   3.576484e+02  -1.753980e+02
   2.299956e+02   1.834432e+02
   5.025822e+01   3.914560e+02
  -6.715139e+01   3.266229e+02
  -3.494349e+01   1.317379e+02
  -1.867094e+01   4.609721e+01
  -6.090777e+01   1.077367e+02
  -2.233292e+02   1.089628e+02
  -2.492484e+02  -3.269101e+01
  -1.356262e+02  -2.511508e+02
   2.815783e+01  -2.253277e+02
   2.103800e+02   1.321677e+01
   1.537056e+02   3.043341e+02
   1.494029e+01   3.013078e+02
  -2.875479e+02   7.740825e+01
  -3.676503e+02  -2.169584e+02
  -1.885456e+02  -3.435869e+02
   5.816303e+01  -3.161828e+02
   1.954439e+02  -1.193992e+02
   1.338705e+02  -7.114383e+01
   1.089021e+02  -7.317661e+01
   2.414193e+02  -4.247955e+01
   4.415540e+02   7.787262e+01
   3.911418e+02   3.021883e+02
  -3.846018e+01   4.773671e+02
  -4.180772e+02   4.263754e+02
  -5.214776e+02   1.920949e+02
  -3.254646e+02  -8.992208e+01
  -3.641083e+01  -3.038694e+02
   1.244352e+02  -2.376597e+02
   1.075043e+01  -1.079682e+01
  -1.523062e+02   4.791590e+01
  -1.396264e+02  -1.387352e+01
   1.498576e+01  -1.476536e+02
   1.698611e+02  -1.520282e+02
   1.682628e+02   4.160803e+01
  -6.187123e+00   1.474281e+02
  -1.688432e+02   2.986108e+00
  -1.573256e+02  -2.380249e+02
   4.117802e+01  -3.332600e+02
   2.351206e+02  -1.980792e+02
   3.770288e+02   6.250957e+01
   3.008537e+02   2.788533e+02
   4.470248e+00   2.736163e+02
  -1.381507e+02   1.380888e+02
  -1.960901e+02  -1.618178e+01
  -2.073465e+01  -2.135863e+01
   9.698440e+01   2.330877e+01
   2.992801e+01   1.000385e+02
  -1.453147e+02   2.757220e+01
  -1.530348e+02  -8.290144e+00
  -4.753266e+01  -5.794790e+01
   9.882386e+01  -3.320309e+01
   6.712493e+01   8.414223e+01
  -1.077214e+02   1.136058e+02
  -2.828426e+02   2.635108e+01
  -2.787270e+02  -1.381898e+02
  -6.122107e+01  -2.900985e+02
   1.822494e+02  -2.949751e+02
   2.353339e+02  -1.193159e+02
   1.549741e+02   3.122646e+01
  -4.598371e+01   6.989087e+01
  -4.067593e+01  -2.783619e+01
   6.931409e+01  -9.954724e+01
   2.321320e+02  -6.147613e+01
   2.238373e+02   6.651883e+01
   6.124926e+01   1.806399e+02
  -8.264779e+01   1.799696e+02
  -1.370471e+02   6.267736e+01
  -2.179539e+01  -4.217469e+01
   5.709814e+01   1.528648e+00
   1.091267e+01   1.007334e+02
  -1.230004e+02   1.448082e+02
  -2.289253e+02   2.614504e+01
  -1.925938e+02  -1.536259e+02
  -1.184023e+01  -2.426286e+02
   1.380134e+02  -1.360948e+02
   1.835358e+02  -3.769117e+00
  -2.777726e+00   2.709993e+01
  -5.458469e+01   6.497213e+01
  -5.072138e+01  -5.614493e+00
  -1.096397e+01  -4.871523e+01
   2.825125e+01   5.214510e+00
   2.935563e+01  -4.295474e+00
  -6.106330e+01  -1.381523e+00
  -1.060015e+02  -8.630494e+01
  -4.638343e+01  -1.944221e+02
   1.200668e+02  -1.846420e+02
   2.555262e+02  -4.805005e+01
   1.941999e+02   1.430649e+02
   1.545186e+01   1.938401e+02
  -1.339340e+02   1.468027e+02
  -1.281339e+02   6.183960e+01
  -1.152821e+02  -4.596938e+01
  -2.001770e+01  -4.015104e+01
  -2.827665e+01   2.592488e+00
  -8.125275e+01  -5.240190e+00
  -3.773838e+01  -7.130571e+01
   6.162830e+01  -8.615624e+01
   1.129038e+02  -5.534014e+01
   1.236416e+02   4.747728e+01
  -1.435515e+01   1.258909e+02
  -1.574086e+02   1.059294e+02
  -2.169537e+02  -5.703469e+01
  -9.984077e+01  -1.960445e+02
   1.318114e+02  -1.919607e+02
   2.852351e+02  -1.119908e+02
   2.547830e+02   1.022976e+02
   7.890646e+01   1.943337e+02
  -3.693579e+01   1.771572e+02
  -7.856165e+01   8.487838e+01
  -7.064514e+01   3.582052e+01
  -6.318918e+01   6.520215e+01
  -7.468814e+01   8.757777e+01
  -1.254718e+02  -3.137403e+01
  -1.214350e+02  -1.471548e+02
  -5.065237e+01  -2.533861e+02
   9.823550e+01  -1.830034e+02
   1.664746e+02  -3.886712e+01
   1.595489e+02   1.317497e+02
  -1.227077e+01   2.130595e+02
  -1.082824e+02   1.013711e+02
  -8.279967e+01   9.434887e+00
  -3.245651e+01  -9.808791e+01
  -1.250675e+01  -5.531705e+01
  -2.760914e+01  -3.432378e+01
  -1.041517e+02   1.236531e+01
  -3.091735e+01  -2.681335e+01
   7.094175e+01  -7.065085e+01
   1.547704e+02  -2.626074e+01
   1.564960e+02   7.441630e+01
  -7.289981e+00   8.685228e+01
  -1.452899e+02   5.684910e+01
  -1.680898e+02   6.046260e+01
  -3.876975e+01  -2.576559e+01
   8.703156e+01  -9.207179e+01
   1.187233e+02   5.341834e+00
   1.703893e+01   7.817799e+01
  -3.830470e+01   5.686324e+01
  -8.022911e+01   5.995409e+01
  -4.895316e+01  -4.265336e+01
  -4.889794e+01  -5.937087e+01
  -3.410325e+01  -1.146629e+01
  -4.002493e+01   1.901401e+01
  -3.975630e+00  -6.357807e+01
   3.710449e+01  -1.323195e+02
   5.992418e+01  -1.217676e+02
   1.773317e+02  -5.642405e+01
   1.117509e+02   6.562601e+01
   1.369522e+01   1.420189e+02
  -9.497096e+01   8.508293e+01
  -2.437674e+01   1.129896e+01
   5.661680e+01  -5.407889e+00
   1.306892e+02   1.214782e+01
   5.169919e+01   1.076842e+02
  -8.519414e+01   8.036728e+01
  -1.808319e+02   2.345254e+01
  -1.727740e+02   8.698333e-01
  -1.784130e+00  -1.026509e+02
   6.631771e+01  -3.533755e+01
   5.054710e+01   3.515047e+01
  -6.725734e+01   2.250753e+01
  -1.156873e+02  -1.900511e+01
  -7.302268e+01  -1.039014e+02
   8.829806e+01  -1.516413e+02
   1.191140e+02  -6.445109e+01
   1.141391e+02   7.056509e+01
   4.918776e+01   2.100175e+02
  -9.892362e+01   1.491545e+02
  -1.383576e+02   3.116872e+01
  -4.987481e+01  -1.475811e+02
   1.850307e+00  -1.093811e+02
   5.821445e+01  -3.599696e+01
   8.626217e+01   3.787491e+01
   4.472112e+01   5.246420e+01
  -9.842864e-01  -5.201964e+00
   7.635213e+00   7.962868e+01
   4.217126e+01   7.239654e+01
   1.598227e+01   1.190565e+02
  -7.019608e+01   1.529712e+01
  -1.560426e+02  -7.120857e+01
  -1.592374e+02  -3.281258e+01
  -2.840543e+00  -4.657043e+01
   1.045986e+02  -4.744815e+01
   9.000267e+01  -1.211613e+01
   4.391843e+01   1.685417e+01
  -3.693715e+01   2.922925e+01
  -7.568440e+01   5.761425e+01
   5.637050e+01  -1.579788e+01
  -9.644506e+00  -1.403420e+01
  -3.627290e+01  -3.090615e+00
  -9.442008e+01  -8.313008e+00
   6.008351e+00  -7.256173e+01
   1.388742e+02  -1.151865e+02
   2.092190e+02  -4.778207e+01
   1.121044e+02   3.581947e+01
   2.036753e+01   1.543337e+02
  -7.199663e+01   1.231172e+02
  -1.176438e+02   2.596950e+01
  -6.391813e+01  -2.591128e+01
  -3.953772e+01  -6.274154e+01
   1.799657e+01  -2.312957e+00
   4.299634e-01   3.670254e+01
  -1.216004e+01  -5.584876e+01
  -5.678817e+01  -6.788052e+01
  -1.863091e+01  -5.448527e+01
   5.571336e+01  -1.361519e+01
   1.155976e+02   7.581896e+01
  -5.276648e+00   6.881189e+01
  -8.409683e+01   2.091885e+01
  -6.306737e+01  -9.277423e+01
  -2.973632e+01  -1.081002e+02
   7.740849e+01  -7.035251e+01
   1.266385e+02  -1.198123e+01
   8.472622e+01   8.764810e+01
   3.095512e+00   5.899126e+01
  -3.402322e+01   3.325855e+01
  -1.420699e+01   2.321245e+01
   6.174186e+01  -2.678753e+01
   4.036815e+01   2.900079e+01
  -7.566596e+01   1.084403e+02
  -1.219849e+02   9.793510e+01
  -8.902471e+01  -2.432548e+01
   2.185384e+01  -1.081196e+02
   2.973181e+01  -1.354441e+02
   5.447763e+01  -1.776517e+01
  -1.169025e+01   8.270153e+01
  -3.765411e+01   8.544102e+01
  -4.971439e+01  -2.304914e+01
  -4.189521e+01  -5.519968e+01
  -3.132480e+01  -9.144874e+01
   5.708483e+01   6.042966e+00
   6.059814e+01  -6.370305e+00
   4.422653e+01  -1.232168e+01
   1.400583e+01  -1.736714e+01
   6.054347e+00   2.600657e+01
   1.617920e+00   3.925298e+01
   1.563945e+01   4.754856e+01
  -1.978578e+01   4.674645e+01
  -3.671917e+01  -6.705884e+01
  -6.913369e+00  -4.640395e+01
   3.676924e+01  -1.110194e+01
   6.914329e+01   3.634406e+01
   1.294471e+01   6.732167e+01
  -2.175735e+01   5.377847e+01
  -8.087969e+01  -4.492472e+00
  -1.740372e+01  -4.009104e+00
   1.375293e+01   2.413463e+01
   3.365596e+01  -4.791521e+01
  -6.414232e+00  -5.977548e+01
  -1.564967e+01  -1.639728e+01
  -3.828494e+01   1.752380e+01
   4.916087e+01   1.046079e+01
   1.067191e+02  -4.483994e+01
