
 $NMID
 id='ANONYMOUS ', fmtdat='(2E16.6)'
 volume=1.0
 tramp=1.0
 $END
  -3.564228e+03   1.376061e+01
  -2.283686e+03  -1.799032e+03
   7.428670e+01  -2.232514e+03
   1.310608e+03  -1.117606e+03
   9.062762e+02  -8.902833e+01
  -5.776636e+01   3.664851e+02
  -4.501033e+02  -1.972856e+00
   3.177684e+01  -5.070410e+02
   4.623627e+02  -6.453483e+02
   6.071445e+02  -1.307639e+02
   4.541815e+02   5.483770e+02
   7.773601e+01   7.303004e+02
  -3.237118e+02   2.787568e+02
  -3.444273e+02  -4.706887e+02
   1.022300e+02  -5.408596e+02
   4.438588e+02  -7.126651e+01
   3.382324e+02   4.860635e+02
  -1.091292e+02   7.157298e+02
  -4.393885e+02   2.885249e+02
  -4.460633e+02  -1.708590e+02
  -1.383118e+02  -3.560037e+02
   2.137028e+02  -2.556570e+02
   1.377616e+02  -5.970586e+01
  -1.552380e+02  -7.579555e+01
  -2.708548e+02  -2.924680e+02
  -2.387533e+01  -3.544816e+02
   4.358872e+02  -1.920899e+02
   5.860751e+02   1.907186e+02
   2.488810e+02   3.503601e+02
  -3.966116e+02   2.028526e+02
  -5.824873e+02  -1.146514e+02
  -2.443825e+02  -3.825756e+02
   2.530130e+02  -4.131546e+02
   5.227490e+02  -1.440388e+02
   3.417099e+02   2.049549e+02
   8.946919e+01   3.947100e+02
  -8.272605e+01   2.320736e+02
  -6.014963e+01  -6.757874e+01
   1.424664e+02  -1.871508e+02
   2.459092e+02   1.014196e+02
   4.573725e+01   5.010374e+02
  -2.881384e+02   4.672270e+02
  -3.449795e+02  -2.703827e+01
  -1.387448e+02  -3.316201e+02
   1.677676e+02  -1.629744e+02
   1.675867e+02   2.571940e+02
  -1.155769e+02   3.658773e+02
  -4.594561e+02   6.068491e+01
  -4.568285e+02  -4.217566e+02
  -1.539533e+02  -5.295194e+02
   3.190742e+02  -2.920934e+02
   5.264639e+02   6.591667e+01
   3.783928e+02   2.870832e+02
  -5.528712e+01   2.634320e+02
  -3.775086e+02   8.063783e+01
  -2.449821e+02  -7.130987e+01
  -5.534327e+00  -4.411893e+01
   1.094248e+02   6.939777e+01
  -6.727541e+01   6.333597e+01
  -2.743586e+02  -6.458270e+01
  -1.544343e+02  -1.764553e+02
   1.126003e+02  -2.164454e+02
   3.402477e+02  -1.807460e+02
   2.460983e+02   4.368323e+01
   4.730629e+00   2.611473e+02
  -2.955945e+02   3.649646e+02
  -3.717754e+02   1.458446e+02
  -2.151692e+02  -1.821180e+02
  -2.430180e+00  -3.557450e+02
   6.968032e+01  -3.103854e+02
   3.783302e+01  -1.579519e+02
   5.819025e+01  -9.203285e+01
   1.296123e+02  -1.539571e+02
   2.492275e+02  -1.004953e+02
   2.384874e+02   1.347777e+02
   1.407609e+02   2.876028e+02
  -6.099878e+01   2.290129e+02
  -1.399286e+02  -1.367929e+01
  -1.697809e+02  -1.941098e+02
   4.558440e+01  -2.484175e+02
   2.199726e+02  -6.888152e+01
   3.077701e+02   1.755326e+02
   1.759075e+02   3.180996e+02
  -5.275225e+01   2.891451e+02
  -1.982085e+02   1.233668e+02
  -1.216579e+02   3.525404e+01
  -1.355368e+02   6.632426e+01
  -2.459827e+02   5.882038e+01
  -4.079529e+02  -4.963380e+01
  -3.330028e+02  -2.778357e+02
   7.558517e+00  -4.152532e+02
   4.321876e+02  -4.133081e+02
   4.961195e+02  -1.488622e+02
   2.730258e+02   8.381983e+01
   1.061603e+01   2.781873e+02
  -1.165699e+02   2.324341e+02
  -5.272404e+01   4.936077e+01
   1.167382e+02  -3.985124e+01
   1.689727e+02   4.235579e+01
   1.332432e+01   1.599412e+02
  -1.401672e+02   1.175436e+02
  -1.621817e+02  -5.974191e+01
  -1.941005e+01  -1.453007e+02
   1.518688e+02  -1.172997e+00
   1.631491e+02   2.324215e+02
  -2.056378e+01   3.774938e+02
  -2.782311e+02   2.065841e+02
  -3.958335e+02  -7.683093e+01
  -2.960158e+02  -3.226959e+02
  -6.113782e+01  -2.962012e+02
   1.434093e+02  -1.453432e+02
   1.740583e+02   3.687895e+01
   3.939919e+01   3.416486e+01
  -5.513968e+01  -2.742296e+01
  -3.374089e+01  -1.005908e+02
   1.193508e+02  -1.153550e+02
   1.148459e+02   4.724614e+01
   3.702550e+01   4.182567e+01
  -8.863583e+01  -4.119657e+01
  -2.093255e+01  -1.258500e+02
   1.497446e+02  -7.548419e+01
   3.233586e+02   5.526686e+01
   2.365800e+02   1.991978e+02
   4.109167e+01   2.672258e+02
  -1.994603e+02   2.069756e+02
  -2.579815e+02   8.344192e+01
  -1.457003e+02  -6.955253e+01
   3.963986e+01  -2.773904e+01
   8.213477e+01   2.355736e+01
  -5.551532e+01   9.019908e+01
  -1.498949e+02   5.413554e+01
  -1.882036e+02  -7.231236e+01
  -8.694777e+01  -2.001173e+02
   6.383240e+01  -1.298917e+02
   1.002765e+02  -5.906204e+01
  -2.815219e+00  -8.025247e+00
  -9.247141e+00  -3.837808e+01
  -4.235975e+01  -1.018068e+02
   1.408797e+02  -1.441126e+02
   2.427030e+02  -2.946572e+01
   2.117892e+02   1.284365e+02
  -1.671871e+01   2.225729e+02
  -1.927589e+02   1.621807e+02
  -1.623009e+02   3.478643e+01
  -2.448757e+01  -7.994966e+01
   8.784285e+01  -1.140067e+02
   7.329880e+01  -3.966206e+00
  -4.646404e+00   1.594315e+01
  -4.378487e+01  -1.188552e+01
   3.715086e+01   1.390185e+01
   9.905490e+01   4.989934e+01
   4.391067e+01   1.135838e+02
   1.553864e-01   1.864553e+02
  -1.560248e+02   1.779645e+02
  -2.463998e+02  -3.603890e+01
  -2.026504e+02  -1.917211e+02
  -3.353634e+01  -2.468270e+02
   7.089280e+01  -1.465452e+02
   1.239453e+02   2.324948e+01
   7.972433e+01   2.546855e+01
   3.656252e+01  -1.297395e+01
   7.177379e+01  -2.739349e+01
   7.587329e+01  -3.376726e+01
   8.878139e+01   9.625570e+01
  -3.382541e+01   1.459646e+02
  -1.330344e+02   9.633820e+01
  -1.281266e+02  -1.592973e+01
  -6.532951e-01  -1.229791e+02
   1.471494e+02  -1.072225e+02
   2.046596e+02   8.089492e+01
   1.088138e+02   2.213616e+02
  -1.258106e+02   2.091643e+02
  -2.908086e+02   8.136758e+01
  -2.460620e+02  -1.212147e+02
  -7.691043e+01  -1.444752e+02
   1.905006e+01  -1.360834e+02
   8.454127e+01  -5.674337e+01
   6.292082e+01  -4.594806e+01
   6.526641e+01  -1.025057e+02
   8.971243e+01  -9.285354e+01
   1.253793e+02   3.162820e+01
   8.962698e+01   1.836690e+02
   2.766860e+01   2.437141e+02
  -1.195465e+02   1.711178e+02
  -1.736714e+02  -1.357761e+01
  -1.413400e+02  -7.007655e+01
  -3.268135e+01  -1.874112e+02
   6.926484e+01  -1.029954e+02
   8.007828e+01   1.506306e+01
   2.196853e+01   4.743774e+01
  -9.181242e+00   2.056273e+01
   6.311537e+01   2.514169e+01
   8.794953e+01   3.606455e+01
   7.420184e+01   9.086672e+01
  -5.675495e+01   2.851639e+01
  -1.421897e+02  -1.336554e+01
  -1.189004e+02  -4.450612e+01
  -3.183549e+01  -8.281421e+01
   9.802995e+01  -7.281254e+01
   1.201306e+02   1.352164e+01
   7.248784e+01   1.498661e+01
  -5.808567e+01   5.419311e+01
  -1.051795e+02  -1.059374e+01
  -3.942055e+01  -5.358057e+01
   2.929973e+01  -3.648716e+01
   7.771163e+01  -3.658496e+01
   8.941562e+01   1.648083e+01
   6.531758e+01   7.275421e+01
   1.810801e+01  -1.583264e+01
   4.074348e+01   3.167118e+01
   1.537342e+01   1.038009e+02
  -4.777665e+01   1.394387e+02
  -1.148430e+02   1.493952e+02
  -1.579950e+02   2.519773e+01
  -1.474868e+02  -1.191768e+02
  -1.185622e+01  -1.196662e+02
   1.168526e+02  -9.447070e+01
   6.577404e+01   1.149736e+01
  -2.942071e+01   1.036818e+01
  -1.583220e+02  -3.849344e+01
  -7.732321e+01  -6.893908e+01
   8.310851e+01  -1.080270e+02
   2.494233e+02  -7.601547e+01
   1.810952e+02   3.501409e+01
   4.961825e+01   8.401448e+01
  -8.407154e+01   7.868316e+01
  -9.107329e+01   9.158789e+00
   1.793436e+01  -1.398280e+01
   7.588264e+01   1.554888e+01
   1.834031e+01   1.184972e+02
  -4.525986e+01   1.553398e+02
  -1.575062e+02   6.687125e+01
  -1.319011e+02  -7.189046e+01
   1.933255e+01  -2.091295e+02
   4.866526e+01  -1.498461e+02
   1.277820e+02  -4.950465e+00
   7.963344e+01   1.167493e+02
   1.324045e+01   1.330592e+02
  -5.221016e+01   3.904157e+01
  -9.905781e+01  -9.701957e+00
  -2.050446e+01  -7.392566e+00
  -2.132506e+01   1.511783e+01
  -5.570913e+01  -2.349202e+01
  -7.841561e+01  -1.227424e+02
  -3.133969e+01  -1.088859e+02
  -1.529763e+00  -1.296664e+01
   1.471175e+02   2.644745e+01
   1.861374e+02   3.832280e+01
   4.325081e+01   5.249997e+01
  -7.793872e+01  -9.199505e+00
  -1.113914e+02  -1.708891e+00
  -1.404569e+01  -1.823621e+00
   1.216509e+01  -4.529109e+01
   4.773101e+01  -4.315747e+01
  -1.521114e+01  -5.850009e+00
   1.374483e+01  -2.762122e+01
   7.858711e+01  -2.059079e+01
   8.656237e+01   2.138556e+01
   4.142247e+01   9.562647e+01
  -7.760828e+01   1.285964e+02
  -1.885163e+02   7.702875e+01
  -1.674214e+02  -4.014538e+01
  -5.775503e+01  -1.157542e+02
   3.520689e+01  -1.521380e+02
   9.022082e+01  -9.680048e+01
   9.035677e+01   2.796340e+01
   7.084272e+01   7.447942e+01
   9.571495e+00   6.261351e+01
   2.363738e+01   3.278324e+01
   4.398636e+01   5.419935e+01
   4.695246e+00   9.023614e+01
  -1.278213e+01   3.861463e+01
  -9.720858e+01  -2.153509e+01
  -1.241806e+02  -7.110108e+01
  -2.915642e+01  -1.068616e+02
   8.436293e+01  -3.775647e+01
   7.690700e+01   4.037578e+01
   7.978438e+01   6.632759e+01
  -3.212045e+01   6.497186e+01
  -6.186985e+01   1.144152e+01
  -4.070357e+01  -6.460225e+01
   4.031735e+01  -2.451568e+01
   4.805656e+01  -6.727954e+00
   3.403890e+01   3.864298e+01
  -8.435419e+01   1.960474e+01
  -3.234887e+01  -1.785046e+01
   6.672941e+01  -6.773180e+01
   9.545394e+01  -6.937506e+01
   5.101793e+01   3.184754e+01
   2.250634e-01   1.171027e+02
  -4.040468e+01   5.486725e+01
  -5.219557e+01   2.189698e+01
   1.211122e+01  -2.593440e+01
   3.133818e+01  -6.956493e+01
   4.704984e+01   1.126177e+01
   2.335290e+01   5.239855e+01
   2.274942e+00   4.902889e+01
  -5.014347e+01   3.821956e+01
  -9.384203e+01  -1.218052e+01
   7.446667e+00  -2.272672e+01
   2.246544e+01   4.137309e+00
  -5.600206e+00   2.584661e+01
   1.061245e+01  -2.824682e+01
  -6.090492e+01  -6.838449e+01
   5.184434e+01  -3.057854e+01
   4.174235e+01   2.409752e+01
  -1.687323e+01   7.929999e+01
  -8.903915e+01   2.544031e+01
  -5.328538e+01  -2.132751e+01
  -3.492699e+01  -5.150747e+01
   3.509604e+01  -6.498169e+01
   9.282476e+01   4.578585e+01
   8.975219e+01   3.825113e+01
  -2.136080e+01   6.171027e+01
  -9.039067e+01   5.704658e+01
  -4.732459e+01   7.526602e+01
   8.375765e+00  -3.208553e+01
   2.807881e+01   3.008820e+01
  -1.216808e+01   1.825023e+01
  -1.039672e+02   1.890783e+01
