
 $NMID
 id='ANONYMOUS ', fmtdat='(2E16.6)'
 volume=1.0
 tramp=1.0
 $END
   3.074642e+03  -1.886361e+02
   2.061190e+03   1.466394e+03
  -8.441789e+01   1.656359e+03
  -1.112644e+03   1.051859e+03
  -9.021845e+02   1.474663e+02
  -4.560174e+00  -1.684633e+02
   2.508307e+02   7.801146e+01
   5.707274e+01   4.110092e+02
  -3.277303e+02   5.198775e+02
  -4.276259e+02   8.266748e+01
  -4.783258e+02  -3.716625e+02
  -1.352028e+02  -5.843323e+02
   2.307589e+02  -1.399840e+02
   2.273071e+02   3.365215e+02
  -1.503299e+02   6.064261e+02
  -3.724330e+02   7.902475e+01
  -3.005695e+02  -4.919316e+02
   7.031827e+01  -5.266064e+02
   4.361454e+02  -2.776447e+02
   4.208207e+02   1.178226e+02
   1.610679e+02   3.882865e+02
  -9.327447e+01   2.260343e+02
  -3.249760e+01   9.516042e+01
   2.488135e+02   1.104738e+02
   2.677830e+02   3.013924e+02
  -5.697328e+01   3.353108e+02
  -4.572109e+02   1.367428e+02
  -5.613492e+02  -2.594981e+02
  -1.779965e+02  -3.009863e+02
   3.313552e+02  -1.251419e+02
   4.557556e+02   1.358611e+02
   5.428290e+01   3.157666e+02
  -2.987655e+02   2.717354e+02
  -3.810208e+02   1.172790e+02
  -2.597320e+02  -1.873797e+02
  -8.236631e+01  -2.949725e+02
  -1.063265e+01  -1.722129e+02
  -1.027301e+02   5.571190e+00
  -2.366713e+02   7.210064e+01
  -1.345497e+02  -2.290278e+02
   1.061536e+02  -5.001350e+02
   3.052299e+02  -3.760132e+02
   2.709784e+02   3.522679e+01
   6.844019e+01   2.850790e+02
  -1.038486e+02   5.343510e+01
  -8.019888e+01  -2.967610e+02
   1.174477e+02  -3.727830e+02
   4.673221e+02  -2.435695e+01
   4.867443e+02   3.460840e+02
   9.419193e+01   4.210279e+02
  -2.293588e+02   2.449185e+02
  -4.533241e+02  -5.936844e+01
  -2.904147e+02  -1.625695e+02
   5.268687e+01  -1.628824e+02
   3.165198e+02  -1.155864e+02
   2.430005e+02  -7.067208e+01
   6.794870e+01  -5.325659e+01
  -3.645391e+01  -4.103808e+01
   1.165922e+02  -1.224885e+01
   2.409998e+02   5.652653e+01
   1.200922e+02   1.554175e+02
  -1.255042e+02   2.305546e+02
  -2.991327e+02   1.237940e+02
  -2.257493e+02  -8.460460e+01
  -9.312466e+00  -3.064252e+02
   2.619294e+02  -3.463492e+02
   3.593090e+02  -1.328707e+02
   2.431381e+02   1.971918e+02
   7.725196e+01   3.897371e+02
   1.354395e+01   3.136092e+02
  -6.664997e+00   1.777773e+02
  -4.662031e+01   1.642967e+02
  -1.482696e+02   1.082776e+02
  -2.357483e+02   2.031177e+01
  -1.900966e+02  -1.619743e+02
  -6.981378e+01  -2.701311e+02
   1.115950e+02  -1.861768e+02
   1.934367e+02   8.482059e+01
   1.218554e+02   2.329085e+02
  -5.687492e+01   1.938789e+02
  -2.780581e+02   1.432567e+01
  -3.010159e+02  -1.722195e+02
  -1.516105e+02  -2.766224e+02
   3.235996e+01  -2.268486e+02
   1.663335e+02  -1.605998e+02
   1.792601e+02  -6.735714e+01
   1.809422e+02  -8.219791e+01
   3.048787e+02  -3.088168e+01
   3.684836e+02   1.167395e+02
   2.919167e+02   3.284704e+02
  -1.725648e+01   4.277419e+02
  -3.510325e+02   3.725422e+02
  -4.594154e+02   1.364004e+02
  -2.500588e+02  -6.786512e+01
  -3.545183e+01  -2.344580e+02
   8.513482e+01  -1.747579e+02
   3.699639e-01  -3.954843e+01
  -1.305829e+02   6.195064e+01
  -1.299309e+02  -5.681329e+01
   3.212366e+00  -1.196145e+02
   1.321899e+02  -9.783994e+01
   6.940753e+01   6.956113e+01
  -7.268559e+01   9.213485e+01
  -1.759761e+02  -1.750640e+01
  -1.693157e+02  -2.204211e+02
  -4.606004e+00  -3.343144e+02
   2.489129e+02  -1.915124e+02
   3.467163e+02   8.166454e+01
   2.514392e+02   2.284458e+02
   6.561375e+01   2.761990e+02
  -9.293046e+01   1.552771e+02
  -1.256559e+02   8.213514e+00
  -4.716974e+00  -1.619662e+01
   1.013468e+02   5.468560e+01
  -2.252593e+00   1.021159e+02
  -1.365890e+02   5.176840e+01
  -1.112569e+02  -5.747994e-01
  -3.562496e+01   1.925782e+01
   6.323854e+01   4.490450e+01
   1.681277e-01   1.165195e+02
  -1.696091e+02   7.808552e+01
  -2.805656e+02  -1.173194e+01
  -2.494203e+02  -1.667286e+02
  -1.194562e+01  -2.613615e+02
   2.116727e+02  -2.596871e+02
   2.563573e+02  -1.107922e+02
   1.429273e+02   3.101343e+01
  -5.119300e+01   7.347771e+01
  -2.127796e+01   2.058501e+01
   4.779834e+01  -5.241561e+01
   1.803742e+02  -5.992429e+01
   1.589106e+02   1.000255e+02
   3.256480e+01   1.937989e+02
  -9.465442e+01   1.112566e+02
  -8.500302e+01   2.476139e+01
  -1.067797e+00  -2.565117e+01
   7.331080e+01   2.893684e+01
   1.697343e+01   1.194595e+02
  -1.072553e+02   1.053879e+02
  -2.609431e+02   1.254303e+01
  -1.737915e+02  -1.447057e+02
  -2.127202e+01  -1.724345e+02
   1.459636e+02  -1.094510e+02
   1.168341e+02   4.408002e+01
   5.409423e+01   8.200233e+01
  -4.260282e+01   6.968280e+01
  -6.598357e+01  -9.668055e+00
  -1.973992e+01  -3.270657e+01
   1.312860e+02   4.023460e+01
   1.513180e+01   6.725841e+01
  -9.877872e+01   1.068959e+01
  -1.163608e+02  -9.725281e+01
  -5.594589e+00  -1.796766e+02
   1.260527e+02  -1.661485e+02
   2.660433e+02  -4.064558e+01
   1.843151e+02   1.891068e+02
   3.749948e+01   2.261426e+02
  -7.368870e+01   2.032771e+02
  -1.058415e+02   7.019795e+01
  -9.750195e+01  -1.277792e+01
  -3.044019e+01  -1.888406e+00
  -3.939641e+01   2.202118e+01
  -1.259738e+02  -7.420894e+00
  -8.767961e+01  -4.214062e+01
   2.382715e+01  -1.327064e+02
   1.653239e+02  -1.149606e+02
   1.588228e+02   4.025925e+01
   2.544770e+01   1.559520e+02
  -1.289034e+02   1.101660e+02
  -2.363964e+02  -6.271402e+01
  -9.421866e+01  -1.807389e+02
   8.590912e+01  -1.965146e+02
   2.733286e+02  -9.439689e+01
   2.551263e+02   9.198933e+01
   1.017137e+02   1.510710e+02
  -4.554367e+01   1.061364e+02
  -1.096629e+02   1.012229e+02
  -6.061081e+01   8.324595e+01
   1.597950e+01   8.619337e+01
  -1.022802e+02   1.127379e+02
  -1.115563e+02   2.743914e+00
  -9.312262e+01  -1.367078e+02
  -7.271133e+01  -2.152857e+02
   1.124565e+02  -1.949959e+02
   1.480324e+02  -2.238800e+01
   1.379926e+02   1.176749e+02
   8.828835e-01   1.668160e+02
  -1.356858e+02   7.595695e+01
  -5.371081e+01  -6.175925e+01
  -2.721183e+01  -8.727353e+01
   2.974265e+01  -1.983241e+01
  -4.722375e+01  -3.360857e+01
  -1.054610e+02  -2.041488e+00
  -1.001345e+02  -4.356097e+01
   7.540054e+01  -5.407665e+01
   1.995532e+02  -2.777134e+01
   1.653671e+02   4.162717e+01
   2.062512e+01   1.142644e+02
  -1.398532e+02   6.792092e+01
  -1.501671e+02   2.240586e+01
  -5.780712e+01  -4.229977e+01
   4.337434e+01  -8.065006e+01
   9.528315e+01   1.494377e-02
   4.039412e+01   6.045002e+01
  -6.646242e+01   2.911939e+01
  -6.032010e+01  -1.745623e+01
  -8.742206e+01  -2.055026e+01
  -9.683228e+01  -4.924909e+01
  -4.394580e+01  -3.512626e+01
  -7.690553e+01   1.518320e+01
  -4.739835e+01  -8.400687e+01
   1.799749e+01  -1.704018e+02
   1.265499e+02  -1.705120e+02
   1.913697e+02  -2.665737e+01
   1.391979e+02   1.019570e+02
   1.365259e+01   9.734464e+01
  -1.114943e+02   5.558482e+01
  -2.308911e+01  -1.367315e+01
   7.697295e+01  -2.108167e+01
   1.346361e+02   5.203413e+01
   9.658863e+01   7.467749e+01
  -1.067933e+02   1.118666e+02
  -2.032772e+02   5.478053e+01
  -1.272989e+02  -5.787646e+01
  -3.970540e+01  -6.669624e+01
   7.531937e+01  -1.439624e+01
   6.425647e+01   2.004054e+00
  -3.448216e+01   6.045142e+01
  -8.234660e+01  -3.425916e+01
  -3.249256e+01  -9.408736e+01
   5.445982e+01  -1.519025e+02
   1.485404e+02  -1.418655e+01
   1.188475e+02   1.194160e+02
  -1.063385e+01   2.417159e+02
  -7.226662e+01   1.015955e+02
  -9.825439e+01   8.005699e+00
  -7.137231e+01  -1.095365e+02
   2.974085e+01  -1.126067e+02
   8.629328e+01   1.376516e+01
   4.175649e+01   4.218103e+01
  -1.022077e+01  -2.369744e+01
  -3.043380e+00  -1.754769e+00
   5.270214e+01   2.537615e+01
   8.539240e+01   6.820835e+01
   1.005753e+01   1.165219e+02
  -1.640004e+01   3.445639e+01
  -1.095777e+02  -4.960610e+00
  -1.413891e+02  -6.620946e+01
  -1.712801e+01  -5.159920e+01
   9.492863e+01  -2.088569e+01
   4.756893e+01  -9.079740e+00
   8.292156e+00   2.902809e+01
  -2.046093e+01  -1.233932e+01
   1.001545e+01   8.349906e-01
  -1.734204e+00  -2.852914e+00
  -2.108412e+01   1.704747e+01
  -7.767917e+01  -7.854327e+00
  -1.314670e+02  -1.093009e+01
  -3.357677e+01  -7.409420e+01
   1.065859e+02  -1.827447e+02
   1.776297e+02  -7.121683e+01
   1.355962e+02   6.293820e+01
   6.144361e+01   1.673784e+02
  -9.963439e+01   1.668254e+02
  -1.058626e+02   5.426070e+01
  -1.166118e+02  -5.894806e+01
  -1.227903e+01  -6.350431e+01
  -1.680859e+01   6.371104e+00
  -5.854277e+01   7.677830e+00
  -3.215658e+01  -4.335433e+01
   7.665271e+00  -1.191961e+02
   1.699741e+01  -7.794235e+01
   8.617508e+01   1.023098e+01
   1.133413e+02   1.308662e+02
  -7.674919e+00   1.132028e+02
  -6.917383e+01   3.895107e+01
  -1.243367e+02  -2.223781e+01
  -5.439150e+01  -1.150554e+02
   6.076592e+01  -9.052291e+01
   1.002353e+02  -6.793647e+00
   2.942117e+01   8.396058e+01
  -3.038123e+01   7.140782e+01
  -5.175592e+01   5.033376e-02
  -9.836587e+00  -8.624252e+00
   5.166429e+01   7.750527e+00
   1.857926e+01   2.323611e+01
  -4.841872e+01   1.124114e+02
  -1.278991e+02   6.246153e+01
  -1.003811e+02  -7.034166e+01
   3.213709e+01  -9.966144e+01
   9.009693e+01  -1.089232e+02
   5.360223e+01  -3.344070e+01
   2.968869e+01   8.896525e+01
   1.766102e+01   7.614093e+01
  -3.841189e+01  -3.710993e+00
  -5.040048e+01  -3.718934e+01
  -9.609909e+00  -6.832139e+01
   5.061991e+01   2.350734e+01
   2.311517e+01   4.279379e+01
   1.427444e+01   4.844651e+01
  -1.561568e+01  -1.209309e+01
  -4.190830e+01   1.150687e+01
   4.364118e+01   5.133347e+00
   6.081215e+00   6.984995e+01
  -1.305130e+01   4.743496e+01
  -7.433681e+01  -2.494287e+01
  -1.958057e+01  -6.879994e+01
   4.178010e+01  -1.368606e+01
   2.681795e+01   3.746003e+01
   2.332988e+01   6.180237e+01
  -5.123972e+01   9.012508e-02
  -1.035069e+02  -5.343630e+01
  -7.105055e+01  -6.532191e+01
  -5.900770e+00  -4.960180e+01
   8.356703e+01  -3.955788e+01
   6.116646e+01  -2.438841e+01
  -4.837413e+01   3.648396e+01
  -3.327394e+01  -1.039346e+01
   2.653299e+01   1.821593e+01
   9.206745e+01  -1.639613e+01
