
 $NMID
 id='ANONYMOUS ', fmtdat='(2E16.6)'
 volume=1.0
 tramp=1.0
 $END
   4.475100e+03   1.972476e+02
   2.577918e+03   2.566891e+03
  -5.496415e+02   2.762676e+03
  -2.243904e+03   1.115582e+03
  -1.097145e+03  -7.277693e+02
   7.264604e+02  -5.017752e+02
   8.973086e+02   5.346239e+02
   1.277320e+02   1.082475e+03
  -7.741818e+02   8.621997e+02
  -8.215802e+02  -2.417162e+01
  -4.626439e+02  -9.026796e+02
   1.928100e+02  -9.275125e+02
   5.722647e+02  -1.255188e+02
   4.270964e+02   8.002901e+02
  -2.273048e+02   8.226558e+02
  -7.324298e+02  -1.309284e+01
  -3.486249e+02  -7.268718e+02
   2.519094e+02  -6.214903e+02
   5.612092e+02  -1.442930e+02
   4.119876e+02   3.817983e+02
   3.335232e+01   4.254042e+02
  -2.896398e+02   3.076664e+02
  -2.643412e+02   5.507198e+00
   1.789642e+02  -8.793402e+01
   4.486339e+02   1.890024e+02
   1.938930e+02   5.377351e+02
  -4.759079e+02   4.210512e+02
  -9.261543e+02  -6.594191e+01
  -4.457934e+02  -5.648600e+02
   4.373922e+02  -5.120927e+02
   7.873831e+02   7.910253e+01
   3.271222e+02   4.876513e+02
  -3.348718e+02   4.911768e+02
  -6.204761e+02   1.618457e+02
  -4.116135e+02  -2.718237e+02
  -4.830119e+01  -5.180388e+02
   2.480913e+02  -2.667181e+02
   1.665407e+02   2.995692e+02
  -1.758650e+02   4.916023e+02
  -4.746227e+02  -1.142739e+01
  -2.421160e+02  -7.422955e+02
   3.353371e+02  -7.771912e+02
   5.897169e+02   1.267901e+01
   2.903956e+02   5.768401e+02
  -3.127019e+02   3.276251e+02
  -3.623662e+02  -3.417407e+02
   3.827607e+01  -5.720072e+02
   6.011716e+02  -1.220655e+02
   6.012429e+02   4.365824e+02
   2.493468e+02   5.982745e+02
  -3.917861e+02   3.567052e+02
  -6.469676e+02  -5.260710e+01
  -4.174028e+02  -3.773279e+02
   1.570998e+02  -3.793615e+02
   4.914403e+02  -4.394748e+01
   2.342361e+02   2.780951e+02
  -1.041249e+02   1.759060e+02
  -1.029896e+02  -1.096805e+02
   1.800445e+02  -1.612259e+02
   3.629040e+02   8.807256e+01
   1.235084e+02   2.831287e+02
  -2.049373e+02   2.874897e+02
  -3.038135e+02   9.284748e+01
  -1.964393e+02  -6.077744e+01
   2.303255e+01  -2.143199e+02
   2.334169e+02  -3.231945e+02
   4.106620e+02  -2.342309e+02
   3.105662e+02   1.789291e+02
   6.581932e+01   4.628189e+02
  -1.232533e+02   4.107166e+02
  -1.488572e+02   1.477484e+02
  -6.911685e+01  -4.641523e+00
  -4.503717e+01   5.912987e+01
  -1.899500e+02   1.166487e+02
  -2.647224e+02   1.280147e+01
  -1.454364e+02  -2.537100e+02
   4.205008e+01  -2.431689e+02
   1.826101e+02   1.074980e+00
   2.050295e+02   2.574714e+02
  -1.973454e+01   3.181511e+02
  -3.180100e+02   1.080373e+02
  -3.643119e+02  -2.098068e+02
  -1.867514e+02  -4.525890e+02
   7.990375e+01  -3.667295e+02
   2.616304e+02  -1.281172e+02
   1.699639e+02   5.848151e+00
   1.168878e+02   2.236871e+00
   2.539259e+02  -6.630880e+01
   4.161926e+02   6.854083e+01
   3.397515e+02   3.170452e+02
   1.690235e+01   5.053610e+02
  -3.722926e+02   4.745940e+02
  -5.214530e+02   2.161157e+02
  -4.039069e+02  -1.217140e+02
  -5.174199e+01  -3.248174e+02
   1.391944e+02  -3.263207e+02
   1.406596e+02  -4.430733e+01
  -1.554559e+02   1.486662e+02
  -2.428999e+02  -5.172782e+01
  -7.400086e+01  -2.128197e+02
   1.839906e+02  -1.857590e+02
   2.151632e+02   6.390932e+01
   3.460961e+01   1.762029e+02
  -1.780434e+02   3.597238e+01
  -1.170562e+02  -2.827001e+02
   3.459865e+01  -3.594369e+02
   2.649348e+02  -2.082768e+02
   3.579655e+02   6.182148e+01
   3.386751e+02   2.784547e+02
   9.934421e+01   3.134707e+02
  -1.204974e+02   1.824619e+02
  -1.779039e+02   8.625128e+00
  -5.915694e+01  -1.013638e+01
   4.386984e+01   5.860950e+01
   3.200187e+01   1.243203e+02
  -1.653256e+02   5.785288e+01
  -1.921436e+02  -6.033980e+01
  -6.013911e+01  -9.327606e+01
   8.991073e+01  -3.088666e+01
   6.057898e+01   7.661360e+01
  -1.146319e+02   8.100835e+01
  -3.215449e+02  -9.731067e+00
  -2.903077e+02  -1.337527e+02
  -4.301931e+01  -2.547967e+02
   1.579022e+02  -2.641000e+02
   2.854773e+02  -1.338479e+02
   2.052845e+02   6.064214e+00
   3.323688e+01   9.693119e+01
  -5.588220e+01  -3.647103e+01
   2.621581e+01  -1.340039e+02
   2.038574e+02  -5.109549e+01
   2.420652e+02   1.432614e+02
   7.554761e+01   2.094443e+02
  -8.122728e+01   1.377574e+02
  -1.453256e+02   1.279115e+01
  -8.442911e+01  -4.385665e+01
   2.123484e+01   2.136590e+01
   2.174443e+01   7.658887e+01
  -8.562960e+01   8.405951e+01
  -1.841269e+02   1.885316e+01
  -1.818078e+02  -1.122408e+02
  -4.347817e+01  -2.169160e+02
   1.712274e+02  -1.572288e+02
   1.799412e+02  -2.919488e+00
   6.561970e+01   9.574008e+01
  -1.070447e+02   1.033086e+02
  -9.326710e+01  -9.808883e+00
  -3.309647e+01  -5.704987e+01
   2.705719e+01  -1.170291e+01
   6.460937e+00   6.119560e+01
  -3.672286e+00  -2.927426e+01
  -7.756088e+01  -1.227176e+02
  -2.984754e+01  -1.559792e+02
   8.901302e+01  -1.664842e+02
   2.397705e+02  -2.547107e+01
   1.971800e+02   1.743904e+02
   6.286229e+01   2.670644e+02
  -9.229934e+01   1.786723e+02
  -1.167351e+02   2.226497e+01
  -8.951013e+01  -1.398032e+02
  -4.469383e+01  -5.386495e+01
  -1.633088e+01  -2.123421e+01
  -4.539054e+01  -1.089546e+01
  -2.814982e+01  -4.004039e+01
   2.241771e+01  -5.380160e+01
   9.536454e+01  -3.656841e+01
   7.434659e+01  -1.813897e+00
   1.685914e+01   1.281233e+02
  -1.530153e+02   1.169601e+02
  -2.031120e+02  -3.825352e+01
  -1.571168e+02  -1.664678e+02
   5.925928e+01  -2.654441e+02
   2.818682e+02  -1.330579e+02
   2.663080e+02   8.567082e+01
   1.604303e+02   1.483596e+02
  -4.640059e+01   2.018864e+02
  -1.183452e+02   8.399598e+01
  -7.360210e+01   4.781463e+01
  -8.551007e+01   1.217942e+02
  -1.058192e+02   1.263239e+02
  -1.281698e+02  -2.248500e+01
  -1.264497e+02  -1.795708e+02
  -3.106519e+01  -2.146782e+02
   8.804095e+01  -2.141694e+02
   1.776281e+02  -5.406921e+01
   1.434731e+02   9.999497e+01
   6.590284e+01   1.963205e+02
  -9.533790e+01   1.036918e+02
  -5.943100e+01   3.715334e+00
  -1.018982e+01  -6.065067e+01
   5.110467e+00  -5.606711e+01
  -6.141769e+01  -3.794927e+01
  -5.781154e+01  -6.516645e+01
   2.583248e+01  -6.319911e+01
   7.539384e+01  -6.679455e+01
   1.623852e+02  -1.156083e+01
   1.329377e+02   6.330119e+01
   4.663648e+00   9.516831e+01
  -1.391198e+02   6.419124e+01
  -1.329694e+02   1.623526e+01
  -9.119766e+01   1.036009e+01
   1.561183e+01  -5.493559e+01
   9.932546e+01   9.574268e+00
  -6.205280e+00   3.167077e+01
  -4.664356e+01   2.779752e+01
  -2.819791e+01  -1.728697e+01
  -1.363465e+01  -6.977632e+01
  -5.221627e+01  -4.876289e+00
  -5.987715e+01   2.672954e+01
  -5.388857e+01   8.611677e+00
  -3.834233e+01  -5.421811e+01
   3.450239e+01  -1.676585e+02
   1.498120e+02  -1.629465e+02
   1.853862e+02  -6.309904e+01
   1.444754e+02   1.384094e+02
  -1.497766e+01   1.458488e+02
  -7.943669e+01   7.293342e+01
  -5.567550e+01  -1.019780e+01
   1.237111e+02  -3.157803e+01
   1.596742e+02   4.335603e+01
   1.167281e+02   1.085560e+02
  -8.370620e+01   1.434834e+02
  -2.185671e+02   7.213800e+01
  -2.047870e+02  -6.624641e+01
  -1.821664e+01  -8.959793e+01
   1.618314e+01  -4.994190e+01
   7.088198e+01  -9.400791e+00
  -3.982132e+01   1.267612e+01
  -1.114378e+02  -2.771541e+01
  -8.049985e+01  -1.316633e+02
   7.674768e+01  -1.267565e+02
   1.217241e+02  -1.618663e+01
   1.667725e+02   6.704767e+01
   7.776376e+00   2.076350e+02
  -1.327921e+02   1.520145e+02
  -1.299719e+02  -1.023746e+01
  -7.920332e+01  -1.340698e+02
  -1.610217e+01  -1.164107e+02
   4.040491e+01  -5.078980e+01
   4.907740e+01   3.533520e+01
   3.998361e+01   7.371767e+00
  -7.375991e+00  -1.678608e+01
  -1.842524e+01   5.596406e+00
   4.036961e+01   7.662822e+01
   4.947297e+01   1.209202e+02
  -5.509055e+01   5.131124e+01
  -1.415559e+02  -5.231302e+01
  -1.384142e+02  -9.832876e+01
  -2.145073e+01  -1.167362e+02
   1.342684e+02  -3.884208e+01
   1.017392e+02  -1.610997e+00
   4.269430e+01   4.217142e+01
  -3.249258e+01   5.372458e+01
   1.577305e+01   4.300553e+01
   6.550457e+00   8.493375e+00
   4.863042e+00  -1.692695e+01
  -7.119820e+01   2.222651e+01
  -1.000894e+02  -4.608424e+01
  -7.572886e-01  -9.596436e+01
   1.074374e+02  -1.339379e+02
   1.941945e+02  -2.965277e+01
   1.373996e+02   6.526911e+01
   9.102766e+00   1.825197e+02
  -8.629538e+01   1.831612e+02
  -1.409373e+02   4.346915e+01
  -1.077125e+02  -4.407711e+01
  -4.869661e+01  -4.588470e+01
  -6.694957e+00  -4.313001e+00
   3.801364e+00  -3.484054e+01
   1.145383e+00  -3.722982e+01
   1.055695e+01  -7.601848e+01
   5.106205e+01  -8.187920e+01
   1.015298e+02   4.912373e+01
   7.323663e+01   1.011652e+02
   3.314466e+01   1.257723e+02
  -7.983410e+01   2.316067e+01
  -7.229206e+01  -1.062543e+02
  -9.815636e+00  -1.038897e+02
   9.313972e+01  -3.930274e+01
   9.801997e+01   3.803929e+01
   5.296869e+01   3.433098e+01
  -2.788395e+01   6.393944e+01
   7.814388e+00   2.013239e+01
   7.812233e+00   2.756851e+01
   3.349127e+01   2.488427e+01
   1.381578e+01   3.555111e+00
  -5.973261e+01   5.504391e+01
  -8.187732e+01   2.925045e+01
  -5.477397e+01  -1.584617e+01
   2.698468e+01  -6.278910e+01
   7.884188e+01  -8.377944e+01
   1.575564e+01   2.565860e+01
  -2.447710e+01   6.119455e+01
  -3.511702e+01   1.008434e+02
  -2.611336e+01  -1.978238e+01
  -2.362444e+01  -3.829444e+01
   3.947631e+01  -4.117248e+01
   1.204558e+01   4.140599e+01
   5.980318e+01   7.122917e+00
   2.510168e+01  -1.643529e+00
   1.588190e+01  -4.215428e-01
  -3.739975e+01  -2.426380e+01
  -1.675175e+01   3.884645e+01
  -3.694215e+01   7.368563e+01
  -3.197398e+01   2.365210e+01
  -3.924061e+01  -2.325164e+01
  -1.159128e+01  -4.454674e+01
   2.890625e+01  -1.115901e+01
   9.809054e+01   7.370035e+00
   3.157751e+01   7.207831e+01
  -2.138224e+01   4.981802e+01
  -1.028870e+02  -2.264125e+01
  -4.010880e+01  -4.734117e+01
   3.632332e+01  -8.191672e+01
   6.984579e+01  -2.491378e+01
   5.869744e+01  -1.784535e+01
  -4.598517e+01  -2.114383e+01
  -4.873854e+01  -1.368694e+01
   2.207365e+01  -3.954075e+01
   1.115512e+02  -3.965422e+01
