
 $NMID
 id='ANONYMOUS ', fmtdat='(2E16.6)'
 volume=1.0
 tramp=1.0
 $END
   4.670043e+03  -1.967954e+02
   3.167548e+03   2.957165e+03
  -9.497577e+02   3.122547e+03
  -2.454610e+03   8.116699e+02
  -9.643390e+02  -7.640079e+02
   7.959977e+02  -6.759739e+02
   1.035355e+03   3.071568e+02
   5.897763e+01   1.191914e+03
  -9.426125e+02   9.340206e+02
  -1.137002e+03  -9.490638e+01
  -4.898922e+02  -9.554681e+02
   2.661526e+02  -1.082962e+03
   7.454960e+02  -8.103825e+01
   3.594245e+02   8.444177e+02
  -2.871646e+02   8.856535e+02
  -7.304879e+02   3.256378e+01
  -2.718712e+02  -8.316252e+02
   3.488306e+02  -7.363668e+02
   5.762690e+02  -2.320014e+01
   2.853540e+02   4.039594e+02
  -1.183683e+01   3.802142e+02
  -2.913343e+02   2.065102e+02
  -2.744291e+02   9.811461e+00
   8.502171e+01  -1.705044e+02
   4.287493e+02   9.571638e+01
   1.581825e+02   4.490404e+02
  -5.748405e+02   4.919849e+02
  -8.990678e+02  -7.118642e+01
  -5.366774e+02  -6.398764e+02
   4.056906e+02  -5.677866e+02
   8.567120e+02   2.057942e+01
   3.592424e+02   5.364319e+02
  -3.506643e+02   5.512471e+02
  -6.508729e+02   2.029424e+02
  -4.619736e+02  -2.897106e+02
  -9.337156e+01  -5.249694e+02
   2.726752e+02  -3.058612e+02
   2.153820e+02   2.288774e+02
  -1.864143e+02   5.222520e+02
  -5.216954e+02   2.901325e+01
  -3.268889e+02  -7.111541e+02
   3.095420e+02  -8.167131e+02
   6.431880e+02  -5.505422e+01
   3.353203e+02   6.438477e+02
  -3.278820e+02   4.015164e+02
  -4.287433e+02  -3.540460e+02
   9.701917e+01  -5.758374e+02
   6.284885e+02  -1.123973e+02
   6.084935e+02   4.381624e+02
   1.633153e+02   6.173437e+02
  -4.125697e+02   3.335991e+02
  -6.473920e+02  -1.015554e+02
  -3.858107e+02  -4.267725e+02
   2.111928e+02  -3.959513e+02
   5.310120e+02  -8.270503e+01
   2.667063e+02   2.080584e+02
  -1.642758e+02   1.179689e+02
  -1.872086e+02  -1.974661e+02
   1.836652e+02  -2.634276e+02
   4.324023e+02   6.650608e+01
   1.910015e+02   3.434243e+02
  -2.395867e+02   2.782571e+02
  -3.933254e+02   1.972669e+01
  -2.000160e+02  -6.888279e+01
   4.243657e+01  -2.136657e+02
   2.383475e+02  -3.305299e+02
   3.927413e+02  -2.077696e+02
   3.340686e+02   9.487086e+01
   8.622595e+01   4.729702e+02
  -1.842806e+02   4.583943e+02
  -1.407082e+02   1.280688e+02
  -4.844250e+01   6.687575e+00
  -5.902804e+01   7.499553e+01
  -1.787566e+02   1.191538e+02
  -2.907716e+02  -8.222348e+01
  -1.664732e+02  -3.262285e+02
   6.762949e+01  -2.516231e+02
   2.320640e+02  -1.192283e+01
   2.198374e+02   2.317133e+02
   2.925434e+01   3.183319e+02
  -3.052877e+02   1.337985e+02
  -3.910796e+02  -1.764510e+02
  -2.071684e+02  -3.614628e+02
   1.351476e+02  -3.196870e+02
   2.001429e+02  -9.269037e+01
   1.135578e+02   1.255400e+01
   6.113984e+01  -2.231172e+01
   2.089127e+02  -6.513405e+01
   4.593843e+02   7.237893e+01
   3.514604e+02   3.253969e+02
   3.276470e+00   4.510834e+02
  -3.650271e+02   4.068761e+02
  -5.208349e+02   2.520658e+02
  -3.593112e+02  -4.601350e+01
  -7.826651e+01  -2.682275e+02
   1.259834e+02  -2.688685e+02
   9.673113e+01  -4.711917e+01
  -1.750972e+02   1.212359e+02
  -2.612463e+02  -2.467222e+01
  -5.099446e+01  -2.030710e+02
   1.997168e+02  -1.356033e+02
   2.044528e+02   8.604466e+01
  -3.991724e+01   2.398670e+02
  -2.467945e+02   1.643376e+01
  -1.284558e+02  -3.048923e+02
   1.456927e+02  -3.459255e+02
   2.388046e+02  -1.678691e+02
   3.071892e+02   7.496902e+01
   2.795545e+02   2.725334e+02
   1.394745e+02   2.381130e+02
  -5.914168e+01   1.281445e+02
  -2.106664e+02   2.165228e+01
  -8.474024e+01  -2.497002e+01
   6.869989e+01   4.072807e+01
   4.514887e+01   1.649520e+02
  -1.256699e+02   1.391540e+02
  -2.207257e+02   1.305264e+01
  -1.221246e+02  -1.459413e+02
   1.046271e+02  -2.934063e+01
   7.829779e+01   8.329104e+01
  -1.385323e+02   1.231965e+02
  -2.832298e+02  -2.338996e+00
  -3.135708e+02  -1.332644e+02
  -7.014379e+01  -2.511358e+02
   1.677220e+02  -2.564928e+02
   3.256852e+02  -1.452539e+02
   1.834753e+02   3.789518e+01
   3.368574e+00   9.073821e+01
  -1.021042e+02  -3.369036e+01
   3.853198e+01  -8.560233e+01
   1.887132e+02  -4.527453e+01
   2.142961e+02   1.629336e+02
   4.642739e+01   2.459464e+02
  -9.750072e+01   1.683020e+02
  -1.279211e+02   4.329774e+01
  -1.154690e+02  -6.642411e-01
  -1.983407e+01   2.836922e+01
   4.228280e+01   7.467186e+01
  -6.806898e+01   1.218841e+02
  -1.842466e+02   2.432597e+00
  -2.027260e+02  -1.239687e+02
  -3.156145e+01  -2.813577e+02
   1.538158e+02  -1.474141e+02
   2.185597e+02  -2.710193e+01
   6.180314e+01   7.891863e+01
  -8.301307e+01   1.292236e+02
  -7.432506e+01   4.957699e+01
  -1.586198e+01   2.930575e+01
   1.444843e+01   3.096272e+01
  -1.217099e-01   3.767616e+01
  -7.962778e+01  -1.365036e+01
  -1.099531e+02  -9.785021e+01
  -5.290683e+00  -1.465613e+02
   1.162902e+02  -1.415801e+02
   2.742178e+02  -4.187430e+01
   2.373662e+02   1.512796e+02
   5.319637e+01   3.073216e+02
  -1.221573e+02   2.036394e+02
  -1.398725e+02   9.511575e+01
  -6.559018e+01  -7.958475e+01
  -3.328881e+01  -2.670385e+01
  -5.570747e+01   2.535320e+01
  -7.665709e+01  -1.611655e+00
   1.360101e+01  -4.520414e+01
   6.514127e+01  -5.900021e+01
   9.581950e+01  -1.058774e+02
   1.129114e+02   5.845352e+00
  -8.882704e+00   1.019610e+02
  -1.825890e+02   1.074043e+02
  -1.805283e+02  -1.739475e+01
  -1.310872e+02  -2.001353e+02
   7.988372e+01  -2.484667e+02
   2.849644e+02  -8.707967e+01
   2.548522e+02   7.375857e+01
   7.058642e+01   1.943509e+02
  -2.948795e+01   1.329764e+02
  -8.674183e+01   4.826497e+01
  -3.507400e+01   1.260592e+02
  -7.561680e+01   9.820309e+01
  -1.340716e+02   1.070276e+02
  -1.068963e+02   1.936173e+01
  -1.174498e+02  -1.334437e+02
  -5.103308e+01  -2.256572e+02
   1.099137e+02  -1.356187e+02
   1.641711e+02  -4.488739e+01
   1.619860e+02   1.475111e+02
  -2.088370e+01   1.705622e+02
  -1.236477e+02   5.163500e+01
  -3.333672e+01   2.258609e+01
   2.021761e+01  -2.598747e+01
   5.631649e+00   2.849817e+01
  -1.242222e+01  -3.714275e+01
  -9.065822e+01  -2.120309e+01
  -4.863188e+01  -3.892497e+01
   4.364099e+01  -5.718388e+01
   1.366556e+02  -2.737737e+01
   1.656304e+02   5.380496e+01
   2.574625e+01   7.637465e+01
  -1.231909e+02   6.973982e+01
  -1.499332e+02   3.142530e+01
  -5.552954e+01  -5.897310e+01
   6.342576e+01  -5.330897e+01
   8.436809e+01   2.558252e+01
   1.179137e+01   4.752614e+01
  -4.483208e+01   9.235504e+01
  -4.843135e+01  -1.724051e+00
  -7.433175e+01  -2.561014e+01
  -2.277749e+01  -3.495834e+01
  -6.267933e+01  -1.603195e+01
  -6.889287e+01  -1.269591e+01
  -3.206746e+01  -1.138362e+02
   1.807919e+01  -9.737649e+01
   8.029666e+01  -1.568359e+02
   1.733193e+02  -7.434985e+01
   1.444421e+02   7.802652e+01
   3.673380e+01   1.077738e+02
  -6.072639e+01   7.189977e+01
  -1.112917e+02   2.244113e+01
   3.945470e+01  -1.909322e+01
   1.629793e+02   3.897782e+01
   4.274057e+01   1.351902e+02
  -4.749864e+01   9.353740e+01
  -1.725946e+02   9.714962e+01
  -1.596969e+02  -5.008941e+01
  -2.114430e+01  -1.061095e+02
   8.063553e+01  -1.001362e+02
   2.147840e+01  -6.344564e+01
  -4.419564e+01   3.920542e+01
  -1.096524e+02  -5.334983e+00
  -2.506556e+01  -1.298666e+02
   1.022136e+02  -2.125356e+02
   1.601279e+02  -6.296366e+01
   1.319007e+02   9.150832e+01
  -3.222682e+00   2.432798e+02
  -9.926986e+01   1.365726e+02
  -1.063817e+02  -5.888606e+01
  -6.689053e+01  -1.239921e+02
  -5.110769e+00  -1.307239e+02
   3.765569e+01  -2.167105e+01
   6.366315e+01   3.998223e+01
   4.616498e+01  -1.918048e+01
   3.014459e+01  -4.478946e+01
   2.458580e+01   1.737521e+01
   4.449960e+01   1.174652e+02
   2.420148e+01   1.321260e+02
  -8.606704e+01   5.033063e+01
  -1.247575e+02  -9.687049e+01
  -1.205108e+02  -6.622373e+01
  -2.815286e+00  -7.588279e+01
   9.722104e+01  -3.120746e+01
   1.065325e+02  -5.994380e+00
   1.900274e+01  -1.081860e+00
  -2.018066e+01   2.839369e+01
  -3.575497e+00  -2.698360e+01
   3.971505e+01  -1.419744e+01
   2.905643e+01  -6.115211e+00
  -1.087699e+02  -4.995180e+00
  -1.549934e+02  -1.341556e+01
  -5.402631e+01  -4.720024e+01
   9.827742e+01  -1.192122e+02
   2.507546e+02  -8.742715e+01
   1.866140e+02   9.565508e+01
   3.696264e+01   1.547193e+02
  -9.657445e+01   1.388533e+02
  -1.542562e+02   6.365993e+01
  -9.095024e+01  -4.992209e+01
  -1.075543e+01  -6.935954e+01
   1.970201e+01  -3.174498e+01
  -9.231189e+00  -5.511884e+00
  -2.157225e+01  -1.225454e+01
  -3.771399e+01  -9.406634e+01
   5.781899e+01  -1.092733e+02
   1.210643e+02   3.694709e+01
   9.287324e+01   1.149907e+02
  -3.155866e+01   1.579365e+02
  -1.336719e+02   4.738075e+01
  -1.412412e+02  -8.225115e+01
  -4.409897e+01  -1.139220e+02
   1.061616e+02  -6.699807e+01
   8.846546e+01  -7.236370e+00
   2.287497e+01   1.726350e+01
  -2.127279e+01   6.831300e+01
  -5.847793e+01   5.028393e+01
   7.994530e+00  -1.577681e+01
   6.567136e+01  -8.917864e+00
   1.019770e+01   7.629170e-01
  -8.148971e+01   5.525257e+01
  -9.457824e+01   6.523368e+01
  -1.073150e+02   2.860732e+01
   1.733420e+01  -4.299118e+01
   7.245817e+01  -7.793972e+01
   2.557814e+01   1.016068e+01
  -3.427217e+01   7.855566e+01
  -4.195048e+01   8.188490e+01
  -6.836183e+01  -2.873675e+01
  -3.219837e+01  -8.700837e+01
  -4.989929e+01  -5.228576e+01
   4.787289e+01   8.203051e+00
   1.740417e+01   5.511286e+00
  -1.427890e+01   2.872491e+01
   2.901379e+01  -1.191139e+01
  -8.897064e+00  -3.375972e+01
   9.644743e+00   3.121856e+01
  -5.068044e+00   8.196413e+01
  -2.893362e+01   1.887835e+01
  -2.845713e+01  -3.601990e+01
  -4.146586e+01  -1.467943e+01
   2.148668e+01  -6.863899e+00
   8.719108e+01   1.935309e+01
   6.806805e+01   1.138778e+02
  -2.814806e+01   4.272335e+01
  -1.112486e+02  -2.385843e+00
  -7.662110e+01  -3.087828e+01
   2.089923e+01  -7.023981e+00
   7.573959e+01   2.996371e+01
   4.434385e+00  -1.308516e+01
  -6.119885e+01  -3.583095e+01
  -3.945138e+01  -4.035881e+01
   5.184542e+01  -7.537336e-01
   8.884214e+01  -1.300005e+01
