
 $NMID
 id='ANONYMOUS ', fmtdat='(2E16.6)'
 volume=1.0
 tramp=1.0
 $END
   2.983368e+03   4.743544e+01
   1.826619e+03   1.514614e+03
  -1.124892e+02   1.853665e+03
  -1.232240e+03   1.151860e+03
  -9.505950e+02   2.151303e+02
  -3.356415e+00  -2.088128e+02
   3.470233e+02   1.877017e+02
   7.979518e+01   5.135249e+02
  -4.666376e+02   4.562688e+02
  -6.269478e+02   1.604222e+02
  -4.502032e+02  -5.613929e+02
   6.092279e+01  -6.012651e+02
   2.649761e+02  -1.730690e+02
   2.616491e+02   3.325798e+02
  -1.798459e+02   4.905325e+02
  -3.070802e+02   5.201453e+01
  -1.985133e+02  -4.451316e+02
   9.525710e+01  -5.497908e+02
   4.418570e+02  -2.007475e+02
   4.353929e+02   1.779518e+02
   8.371786e+01   2.773127e+02
  -1.846625e+02   2.889370e+02
  -8.260744e+01   1.208314e+02
   1.462323e+02   3.715757e+01
   1.931715e+02   2.142859e+02
   6.968212e+01   3.357234e+02
  -3.741101e+02   1.964234e+02
  -5.800315e+02  -1.127569e+02
  -2.469979e+02  -3.494166e+02
   3.143459e+02  -1.581800e+02
   5.087904e+02   1.152704e+02
   1.752372e+02   3.494422e+02
  -2.625677e+02   3.832169e+02
  -4.252449e+02   1.793435e+02
  -3.038765e+02  -1.891156e+02
  -1.432390e+02  -3.096194e+02
   2.035977e+01  -2.015291e+02
  -3.999975e+00   8.174782e+01
  -1.428648e+02   2.021321e+02
  -2.762766e+02  -1.403971e+02
  -8.558923e+01  -4.474506e+02
   2.609099e+02  -4.266211e+02
   3.035279e+02  -7.111700e+00
   1.196359e+02   3.113795e+02
  -1.820415e+02   1.195896e+02
  -2.322923e+02  -2.385719e+02
   9.560022e+01  -3.619241e+02
   4.047882e+02  -9.948899e+01
   4.616479e+02   3.392079e+02
   1.692419e+02   3.986955e+02
  -2.756129e+02   2.166719e+02
  -5.053824e+02  -2.792429e+01
  -3.502853e+02  -2.227967e+02
   8.673022e+01  -2.558039e+02
   3.518897e+02  -1.182404e+02
   2.542599e+02   6.951511e+01
   5.046497e+01   4.036756e+01
  -7.920871e+01  -2.887040e+01
   6.422577e+01  -4.059851e+01
   2.414936e+02   3.570139e+01
   1.442093e+02   1.895956e+02
  -1.405824e+02   2.399444e+02
  -3.590443e+02   9.243363e+01
  -2.574995e+02  -7.932458e+01
   4.459491e+01  -2.760701e+02
   3.286806e+02  -3.110689e+02
   3.555027e+02  -1.683654e+02
   1.832677e+02   1.040620e+02
   6.826586e+01   2.866378e+02
  -3.090602e+01   3.112459e+02
  -2.092984e+01   1.875387e+02
   1.537530e+01   1.291233e+02
  -1.458670e+02   6.265804e+01
  -2.283485e+02   2.707206e+01
  -2.209563e+02  -1.057386e+02
  -8.378385e+01  -1.803265e+02
   7.509182e+01  -1.917404e+02
   1.916246e+02  -2.176333e+00
   1.341958e+02   2.020414e+02
  -2.367985e+01   2.192891e+02
  -2.330019e+02   7.933760e+01
  -2.796411e+02  -1.937857e+02
  -1.449153e+02  -2.811095e+02
   1.059106e+02  -2.576194e+02
   1.580339e+02  -1.255659e+02
   1.049713e+02  -5.981799e+01
   1.591437e+02  -3.875112e+01
   2.741237e+02  -1.301292e+01
   3.876380e+02   1.168634e+02
   2.884310e+02   2.488535e+02
   2.828346e+00   4.107631e+02
  -3.677917e+02   3.132955e+02
  -4.823979e+02   1.316264e+02
  -2.879405e+02  -1.141413e+02
  -5.188768e+01  -2.356084e+02
   1.107591e+02  -1.745227e+02
   6.128298e+00  -7.309723e+01
  -9.591175e+01   3.872892e+00
  -9.551806e+01  -3.570614e+01
   3.783300e+00  -1.333480e+02
   8.566421e+01  -5.898742e+01
   6.878237e+01   5.705938e+01
  -2.860110e+01   1.409556e+02
  -1.554835e+02  -6.771709e+01
  -1.565042e+02  -2.950291e+02
   2.805050e+01  -3.308477e+02
   2.778168e+02  -2.001279e+02
   3.672341e+02   8.178486e+01
   2.753990e+02   3.010273e+02
   5.057818e+01   2.730633e+02
  -1.223855e+02   1.434108e+02
  -1.129727e+02   1.764514e+01
  -5.156269e+01   7.419275e+00
   5.727660e+01   5.280663e+01
  -3.073721e+01   1.189425e+02
  -1.170936e+02   5.644685e+01
  -1.522893e+02  -3.674143e+01
  -4.149336e+01  -4.805850e+01
   7.244829e+01   2.355550e+01
   2.928357e+01   7.564725e+01
  -1.525438e+02   1.279759e+02
  -2.888600e+02   2.130953e+01
  -2.521485e+02  -1.681720e+02
  -6.605205e+01  -2.769518e+02
   1.908390e+02  -2.466003e+02
   2.891541e+02  -1.418783e+02
   1.707567e+02   2.639331e+01
  -3.273380e+01   6.252393e+01
  -8.913120e+01   1.085623e+01
   1.278383e+01  -9.201653e+01
   1.592331e+02  -3.657632e+01
   2.057626e+02   9.844315e+01
   5.037885e+01   1.652219e+02
  -8.210619e+01   1.327713e+02
  -1.637200e+02   3.824247e-01
  -4.385145e+01  -9.393061e+01
   5.733488e+01  -3.667121e+01
   5.740879e+01   6.500492e+01
  -5.836639e+01   9.895916e+01
  -1.664800e+02   2.712218e+01
  -1.737902e+02  -1.067139e+02
   6.269088e+00  -1.529077e+02
   1.369415e+02  -1.844661e+02
   1.805416e+02  -1.274911e+01
   5.860406e+01   7.956198e+01
  -8.191222e+01   6.744071e+01
  -6.912663e+01   5.623664e+01
   2.791554e+01  -2.946148e+00
   4.227925e+01  -2.303160e+01
  -4.452639e+01   2.359578e+01
  -1.338914e+02   2.614665e+01
  -1.269729e+02  -9.987222e+01
  -1.348671e+01  -1.611597e+02
   1.257819e+02  -1.418492e+02
   2.737540e+02   2.042748e+00
   2.036506e+02   1.383187e+02
   3.859485e+01   1.706504e+02
  -8.224055e+01   1.393803e+02
  -1.097466e+02   2.880112e+01
  -8.045787e+01  -1.930912e+01
  -6.191385e+01  -1.536626e+01
  -5.082915e+01  -4.047755e+00
  -8.982982e+01   2.966212e+01
  -3.735447e+01  -4.437420e+01
   1.218375e+01  -1.027334e+02
   6.302262e+01  -6.472271e+01
   8.913642e+01   3.282504e+01
   2.727908e+00   1.226177e+02
  -1.132176e+02   9.865938e+01
  -1.828316e+02  -3.684484e+01
  -6.045387e+01  -2.207662e+02
   8.144598e+01  -2.162022e+02
   2.379285e+02  -7.182517e+01
   2.482283e+02   8.153040e+01
   7.905609e+01   1.390361e+02
  -3.465330e+01   1.320482e+02
  -9.340224e+01   6.438776e+01
  -9.778104e+01   7.373842e+01
  -4.038746e+01   8.560169e+01
  -7.272585e+01   3.733106e+01
  -1.145445e+02   1.625444e+01
  -1.355517e+02  -1.603659e+02
   3.773009e+00  -2.099233e+02
   1.133601e+02  -1.532467e+02
   1.822196e+02   1.752963e+01
   1.562931e+02   1.179196e+02
   3.721421e+01   1.213674e+02
  -8.327312e+01   1.403643e+02
  -3.752135e+01  -1.252711e+01
   1.233277e+01  -2.734604e+01
   2.789401e+01  -1.752057e+01
  -2.387419e+01  -1.099665e+01
  -9.204486e+01  -3.391107e+01
  -6.817727e+01  -1.803465e+01
   5.853665e+01   6.251806e+00
   1.644868e+02  -4.617086e+00
   7.529800e+01   4.556340e+01
   1.183001e+01   5.560941e+01
  -1.377986e+02   5.987617e+01
  -1.129700e+02  -1.882412e+01
  -4.603461e+01  -7.274460e+01
   6.990133e+01  -4.500735e+01
   3.437035e+01   1.269494e+01
   3.408741e+01   8.592821e+01
  -3.462027e+01   9.487286e+01
  -7.218743e+01  -4.762293e+00
  -5.022558e+01  -1.539622e+01
  -7.474582e+01  -4.326058e+01
  -5.066709e+01   6.587295e+00
  -6.101602e+01  -2.046325e+01
  -6.573752e+01  -7.897881e+01
   3.593424e+01  -1.716649e+02
   1.157174e+02  -1.222340e+02
   2.399319e+02  -5.647372e+01
   1.476581e+02   9.771570e+01
   3.202143e+01   1.479168e+02
  -9.677644e+01   5.381387e+01
  -6.133239e+01  -3.939881e+01
   2.282677e+01  -5.642636e+01
   1.168520e+02  -2.210311e+01
   7.521357e+01   6.557513e+01
  -6.630239e+01   8.951704e+01
  -1.709894e+02   9.057343e+01
  -1.391040e+02  -7.200384e+01
  -5.745657e+00  -7.894917e+01
   4.686718e+01  -5.099091e+01
   4.883363e+01  -1.165011e+01
  -1.250667e+01   4.127389e+01
  -1.265821e+02  -1.912875e+01
  -5.523760e+01  -1.257136e+02
   5.851436e+01  -1.563322e+02
   1.526055e+02  -4.425924e+01
   1.690801e+02   2.452810e+01
   1.732203e+01   1.575459e+02
  -8.169348e+01   1.612005e+02
  -1.127659e+02  -6.571999e+00
  -6.318388e+01  -1.529089e+02
   3.843152e+01  -8.423288e+01
   3.072578e+01   1.468742e+01
   4.099670e+01  -5.710054e+00
   2.002838e+01   9.181952e+00
   2.255197e+01   2.511707e+00
   2.290387e+01  -3.921401e-01
   2.176790e+01   1.220533e+02
   4.120489e+01   1.312065e+02
  -3.613183e+01   4.825144e+01
  -1.566100e+02  -1.432711e+00
  -1.396066e+02  -1.051051e+02
  -3.649978e+01  -4.451317e+01
   8.628507e+01  -4.464382e+01
   1.172147e+02  -1.087861e+01
   3.363398e+01   3.042528e+01
  -1.542805e+01   3.915729e+01
  -3.417809e+01   2.601267e+01
   2.944922e+01   1.193116e+01
   4.199215e+00  -1.847982e+01
  -7.403200e+01  -8.771626e+00
  -9.483995e+01  -3.225516e+01
  -4.147920e+01  -6.872575e+01
   9.733578e+01  -1.419931e+02
   1.519776e+02  -6.264601e+01
   1.090055e+02   5.970386e+01
   5.294242e+01   1.668577e+02
  -7.568393e+01   1.363947e+02
  -7.945638e+01   2.981440e+01
  -5.136778e+01  -5.831614e+01
   2.006383e+01  -4.606234e+01
   5.576889e+00  -4.796399e+00
   1.561756e+01  -3.279975e+01
  -2.988548e+01  -3.431903e+00
  -5.648491e+00  -6.301996e+01
   6.055357e+01  -6.373677e+01
   9.483723e+01   2.883567e+01
   5.897001e+01   9.576988e+01
  -1.562448e-01   8.782918e+01
  -5.303663e+01   2.138470e+01
  -9.532193e+01  -7.734505e+01
  -5.571317e+01  -1.053620e+02
   7.041570e+01  -9.562177e+01
   1.001197e+02   1.647116e+01
   7.050396e+01   5.841417e+01
  -1.593993e-01   6.257521e+01
  -3.220454e+01  -5.654364e+00
   4.619130e+01  -2.356374e+01
   6.881918e+01   1.489167e+00
  -5.003748e+00   4.028694e+01
  -1.021692e+02   5.904220e+01
  -1.108657e+02   1.238185e+01
  -5.423134e+01  -8.045473e+00
  -4.788549e-01  -7.108350e+01
   2.908213e+01  -3.592729e+01
   2.447241e+01  -8.409792e+00
  -1.006339e+01   5.478540e+01
  -6.402272e+01   5.766527e+01
  -5.700225e+01   2.449160e+00
  -4.750697e+01  -4.452963e+01
  -2.362638e+01  -6.701290e+01
   2.500428e+01  -3.440953e+01
   1.120236e+01   1.843112e+01
   7.131493e+01  -1.624772e+01
  -2.242147e+01  -2.468087e+01
  -1.200602e+01  -1.599891e+01
  -1.667575e+01   4.038683e+01
   1.223561e+01   5.277908e+01
  -3.270620e+01   4.811475e+01
  -4.207004e+01  -5.455132e+01
   6.203927e+00  -5.751993e+01
   3.336972e+01  -1.412220e+01
   5.400667e+01   2.586358e+01
   1.095150e+01   3.983267e+01
  -7.588106e+01   2.445487e+01
  -1.122443e+02  -4.818660e+00
  -2.672763e+01  -7.525283e+01
   3.663393e+01  -4.209475e+01
   4.842847e+01  -6.604856e+01
   1.879786e+01  -2.153920e+01
  -4.404876e+01  -4.057414e+00
  -2.364185e+01   1.306844e+01
   4.734954e+01  -2.327585e+01
   4.007726e+01   1.624730e+01
