
 $NMID
 id='ANONYMOUS ', fmtdat='(2E16.6)'
 volume=1.0
 tramp=1.0
 $END
  -3.848792e+03  -1.867395e+02
  -2.437341e+03  -2.021223e+03
   1.390483e+02  -2.604125e+03
   1.651792e+03  -1.274032e+03
   1.211942e+03   1.497479e+02
  -4.153408e+02   3.210625e+02
  -7.115030e+02  -2.364273e+02
  -3.128832e+01  -8.589862e+02
   7.234337e+02  -7.504468e+02
   8.609504e+02   1.106387e+01
   5.063450e+02   7.674907e+02
  -8.477347e+01   7.477870e+02
  -4.971162e+02   1.701325e+02
  -3.878729e+02  -6.386644e+02
   2.919345e+02  -7.412902e+02
   5.303192e+02  -1.141053e+02
   3.115473e+02   5.948548e+02
  -2.182383e+02   6.712133e+02
  -6.525862e+02   1.769453e+02
  -3.833864e+02  -2.699907e+02
  -1.372541e+02  -4.906314e+02
   1.708849e+02  -2.456902e+02
   1.398418e+02   1.200300e+01
  -1.016256e+02  -4.843009e+01
  -3.708051e+02  -2.042091e+02
  -1.264149e+02  -3.562319e+02
   4.477292e+02  -2.610541e+02
   7.447826e+02   1.465758e+02
   3.580521e+02   4.011620e+02
  -3.557174e+02   3.099577e+02
  -6.271914e+02  -6.728892e+01
  -2.380210e+02  -4.546085e+02
   2.211767e+02  -4.334083e+02
   4.673129e+02  -2.472635e+02
   3.890360e+02   1.705175e+02
   1.623340e+02   3.588801e+02
  -5.401238e+01   2.584189e+02
  -7.086823e+01  -1.943467e+02
   1.520429e+02  -2.743885e+02
   3.584200e+02   1.296060e+02
   1.445615e+02   6.646417e+02
  -3.289848e+02   5.851048e+02
  -4.922832e+02   5.075317e+01
  -2.055769e+02  -4.411676e+02
   2.226715e+02  -2.376567e+02
   2.921918e+02   3.268179e+02
  -1.040303e+02   4.442388e+02
  -4.850755e+02   1.195059e+02
  -5.035874e+02  -3.974118e+02
  -1.239059e+02  -5.868865e+02
   3.569067e+02  -3.378503e+02
   6.117503e+02   5.053208e+01
   4.237129e+02   3.292548e+02
  -7.965735e+01   3.469137e+02
  -3.401748e+02   5.604471e+01
  -2.475213e+02  -1.034973e+02
   5.985693e+01  -5.670789e+01
   1.151781e+02   1.077491e+02
  -1.599564e+02   1.134117e+02
  -3.125400e+02  -6.969893e+01
  -1.454547e+02  -2.697273e+02
   1.666566e+02  -2.470877e+02
   3.501215e+02  -4.050322e+01
   2.220553e+02   9.746584e+01
  -3.314331e+01   2.978897e+02
  -2.615239e+02   3.269965e+02
  -3.788318e+02   1.947113e+02
  -2.647881e+02  -1.133702e+02
  -4.569924e+01  -3.812728e+02
   8.917725e+01  -3.205920e+02
   4.390964e+01  -1.143349e+02
   3.257261e+01  -7.385917e+01
   9.364471e+01  -7.593010e+01
   1.993615e+02  -4.899431e+01
   2.103650e+02   5.891361e+01
   8.247408e+01   2.795256e+02
  -8.817802e+01   2.227963e+02
  -1.791895e+02   4.971642e+00
  -1.626100e+02  -1.948521e+02
   3.125366e+01  -2.857056e+02
   2.588647e+02  -1.375345e+02
   3.120713e+02   1.597236e+02
   1.652606e+02   3.435604e+02
  -5.537458e+01   3.090295e+02
  -1.703947e+02   9.091012e+01
  -1.439215e+02   1.998693e+01
  -1.371588e+02   4.810749e+01
  -2.339069e+02   4.404752e+01
  -4.004959e+02  -6.464044e+01
  -2.971765e+02  -3.293146e+02
  -1.090017e+01  -3.921319e+02
   3.372960e+02  -3.879102e+02
   4.467442e+02  -2.063151e+02
   3.299209e+02   9.922804e+01
   9.470795e+01   2.951784e+02
  -9.420082e+01   2.497516e+02
  -3.097777e+01   1.127423e+01
   1.191942e+02  -1.324882e+02
   2.039129e+02   3.298054e+01
   6.962906e+01   1.980584e+02
  -1.507458e+02   1.545935e+02
  -1.343809e+02  -5.385975e+01
   1.509458e+01  -1.750268e+02
   1.556033e+02  -1.487944e+01
   1.310913e+02   2.311452e+02
  -2.028443e+01   3.714065e+02
  -2.276809e+02   2.041813e+02
  -3.191014e+02  -5.847017e+01
  -2.829256e+02  -2.477842e+02
  -1.157497e+02  -2.593041e+02
   1.101198e+02  -1.821805e+02
   1.728105e+02  -1.493945e+01
   7.150524e+01   4.537225e+00
  -3.843499e+01  -5.763895e+01
  -2.653217e+01  -1.317757e+02
   8.219742e+01  -1.432184e+02
   1.589301e+02   5.225183e+00
   5.046519e+01   5.285458e+01
  -6.975337e+01   2.849686e+01
  -2.172205e+01  -7.052006e+01
   1.258624e+02  -1.005937e+02
   2.697900e+02  -7.461514e+00
   2.574748e+02   1.238309e+02
   6.872603e+01   2.650712e+02
  -2.167903e+02   2.751213e+02
  -3.104365e+02   1.237499e+02
  -1.751423e+02  -6.048569e+01
   1.592270e+01  -7.315714e+01
   6.441545e+01  -1.322521e+01
   6.527919e+00   7.307219e+01
  -1.841069e+02   5.128002e+01
  -2.181560e+02  -9.931480e+01
  -7.598123e+01  -1.917632e+02
   5.033202e+01  -1.813951e+02
   1.015100e+02  -2.547778e+01
   4.330038e+01   4.524577e+01
  -6.823939e+01  -5.083800e+00
  -5.636780e+01  -8.642012e+01
   7.972738e+01  -1.313171e+02
   2.436268e+02  -2.041337e+01
   2.030159e+02   1.090526e+02
   8.782279e+00   2.057198e+02
  -1.726251e+02   1.727041e+02
  -2.024456e+02   1.218691e+01
  -4.649892e+01  -1.124826e+02
   8.388825e+01  -7.842202e+01
   6.496566e+01  -1.333422e+01
  -3.426727e+01   7.301335e+01
  -6.144257e+01   1.826405e+01
  -1.724329e+01  -2.110571e+01
   8.829076e+01  -3.120822e+01
   1.102207e+02   4.469866e+01
   1.692734e+01   1.512194e+02
  -1.196133e+02   1.664555e+02
  -2.210137e+02   7.410467e+00
  -2.207186e+02  -1.554145e+02
  -3.095426e+01  -2.147085e+02
   9.590604e+01  -1.520188e+02
   1.081319e+02   2.035845e+01
   3.146734e+01   3.475050e+01
   4.340528e+01   5.692508e+01
   2.756886e+01   1.934156e+01
   1.049452e+02  -4.816400e+00
   4.748037e+01   1.650298e+01
  -4.315196e+01   1.049373e+02
  -1.133831e+02   4.407578e+01
  -3.866623e+01  -2.918688e+01
   3.230206e+01  -1.155960e+02
   1.597901e+02  -1.229195e+02
   1.895247e+02   3.669594e+01
   1.243763e+02   1.929925e+02
  -1.158637e+02   2.417050e+02
  -2.607411e+02   1.030551e+02
  -2.468263e+02  -1.226979e+02
  -8.758993e+01  -2.206221e+02
   4.888539e+01  -1.505704e+02
   1.181348e+02  -6.546567e+01
   1.052165e+02  -7.658471e+01
   6.614681e+01  -1.195810e+02
   8.025792e+01  -9.477459e+01
   1.005473e+02   4.099710e+01
   1.013272e+02   1.515538e+02
   2.753491e+01   2.228953e+02
  -8.105920e+01   2.092496e+02
  -1.367290e+02  -1.750712e+01
  -8.845323e+01  -1.028804e+02
   3.664209e+01  -1.262666e+02
   6.810166e+01  -7.730400e+01
   1.091521e+02  -2.121001e+00
   1.907712e+00   6.757896e+01
  -1.262558e+01   5.972774e+01
   5.673076e+01   5.741305e+01
   9.243489e+01   9.913117e+00
   6.279333e+01   5.640611e+00
  -1.096496e+02   3.725865e+00
  -1.806579e+02  -4.103205e+01
  -1.280837e+02  -7.286335e+01
   2.876946e+01  -1.299717e+02
   9.813513e+01  -8.907206e+01
   1.648966e+02  -6.226885e+00
   4.594523e+01   4.354471e+01
  -6.668044e+01   8.200354e+01
  -8.552683e+01  -1.149456e+01
  -1.146825e+01  -6.039946e+01
   8.136518e+01  -7.730262e+01
   1.818080e+01  -4.014603e+00
   5.922999e+01   5.340890e+01
   6.632443e+01   3.719262e+01
   5.943238e+01   1.554132e+01
   1.020391e+02   2.116825e+01
   1.395743e+01   9.599938e+01
  -4.804569e+01   1.459103e+02
  -1.024269e+02   1.085716e+02
  -1.644256e+02   2.102953e+01
  -1.844135e+02  -1.207813e+02
   1.532580e+00  -1.313612e+02
   7.328312e+01  -6.264020e+01
   8.071819e+01   3.609787e+01
  -1.599251e+01   3.091087e+01
  -1.319164e+02  -2.502024e+01
  -8.553048e+01  -1.383054e+02
   8.654283e+01  -8.356829e+01
   2.242594e+02  -5.131741e+01
   1.405498e+02   2.744765e+01
   2.125624e+01   1.056586e+02
  -7.147161e+01   7.362409e+01
  -8.378208e+00  -1.005422e+01
  -3.796501e+00  -4.387453e+01
   1.162910e+02  -1.719054e+01
   3.737185e+01   8.265477e+01
  -5.477735e+01   1.488084e+02
  -1.503093e+02   3.545862e+01
  -1.009705e+02  -7.724759e+01
  -2.610483e+01  -1.910745e+02
   6.814355e+01  -1.168865e+02
   7.918617e+01   4.767277e+01
   1.882239e-01   1.194806e+02
  -2.099783e+01   7.234950e+01
  -7.073129e+01  -3.985184e+00
  -6.173397e+01  -2.959727e+01
  -2.170665e+01   1.643046e+00
  -1.073652e+01   6.153687e+01
  -4.221374e+01  -1.237606e+01
  -8.091634e+01  -7.896788e+01
  -4.355220e+01  -8.907334e+01
   3.628522e+01  -4.084731e+01
   1.186700e+02  -1.527013e+01
   8.979219e+01   7.430560e+01
   1.856857e+01   7.127770e+01
  -1.133604e+02   5.808357e+00
  -8.442902e+01  -8.315147e+00
  -1.089212e+01  -3.146243e+01
   4.433326e+01  -4.765503e+01
   1.957598e+00  -6.390043e+01
  -5.392493e+01   2.347620e+01
   2.097543e+01   2.280278e+01
   5.812205e+01  -1.272945e+01
   9.861109e+01  -9.592019e+00
   1.452942e+01   5.442696e+01
  -9.837027e+01   1.034856e+02
  -1.908900e+02   9.028174e+01
  -1.550155e+02  -7.814467e+01
  -3.719469e+01  -1.491322e+02
   7.213140e+01  -1.344879e+02
   1.070024e+02  -5.977770e+01
   9.586163e+01   3.204119e+01
   5.857418e+01   4.651955e+01
   4.148995e+00   5.383275e+01
   3.028181e+01  -3.009859e+01
   1.339802e+00   6.230929e+01
  -1.846847e+01   8.990095e+01
  -4.976554e+01   7.621701e+01
  -4.042795e+01  -2.549654e+01
  -7.585586e+01  -6.485106e+01
  -1.096932e+01  -1.222572e+02
   5.949176e+01  -8.314197e+00
   1.171723e+02   7.820124e+01
   3.149606e+01   1.222189e+02
  -1.203187e+02   8.140035e+01
  -1.271382e+02   6.565330e+00
  -6.306877e+01  -3.198971e+01
   5.312479e+01  -5.008211e+01
  -2.287363e+00  -2.626755e+01
   2.887632e+00  -5.345344e+01
  -3.372511e+01   4.502193e+00
  -3.196828e+01  -1.989941e+01
   1.070180e+02  -8.638554e+01
   1.308164e+02  -2.965414e+01
   4.196826e+01   3.021681e+01
   2.006300e+01   8.995010e+01
  -7.681648e+00   8.998888e+01
  -2.346560e+01  -2.864311e+01
  -1.701254e+01  -7.955099e+01
   1.544076e+01  -2.956586e+01
  -2.072100e+01   4.984198e+01
   1.671879e+01   5.911883e+01
  -1.068393e+01   1.988601e+01
  -8.445281e+01  -1.239646e+00
  -5.294954e+01  -4.873434e+00
  -1.153902e+01   6.281869e+00
   2.807964e+01   1.518839e+01
   3.505554e+01   4.197269e+01
   1.795318e+00   1.222911e+01
  -4.940610e-01  -3.994235e+00
   5.309193e+01   4.271017e+01
   2.519238e+01   4.101435e+01
  -1.000651e+01   4.432683e+01
  -3.862217e+01   1.882965e+01
  -5.053443e+01  -9.510018e+00
   2.386774e+01  -7.197093e+01
   5.138847e+01  -1.260909e+01
   8.877683e+01   1.131843e+01
   3.204056e+01   1.901287e+01
  -2.636266e+01   4.894176e+01
  -7.452859e+01  -2.341346e+00
  -1.305323e+01  -2.000566e+01
   1.650963e+01   3.934762e+01
   4.422137e+00   5.360683e+01
  -7.511468e+00   6.266537e+01
  -1.343559e+02   3.526759e+01
