
 $NMID
 id='ANONYMOUS ', fmtdat='(2E16.6)'
 volume=1.0
 tramp=1.0
 $END
  -3.144624e+03  -3.570106e+01
  -2.065568e+03  -1.536775e+03
   9.101362e+01  -1.850126e+03
   1.246457e+03  -1.118987e+03
   8.577607e+02  -1.746605e+02
   8.180083e+01   8.439986e+01
  -3.753357e+02  -9.029195e+01
  -2.663614e+01  -5.514843e+02
   3.774949e+02  -5.642451e+02
   6.584276e+02  -1.283774e+02
   4.148067e+02   4.806375e+02
   8.751315e+01   6.182914e+02
  -2.791124e+02   1.283149e+02
  -2.197977e+02  -4.336865e+02
  -1.833966e-01  -4.770674e+02
   4.562966e+02  -4.583670e+01
   1.803702e+02   4.858237e+02
  -1.401561e+02   5.825298e+02
  -4.048031e+02   2.696544e+02
  -4.443437e+02  -1.633171e+02
  -9.912593e+01  -3.493522e+02
   1.104147e+02  -2.391432e+02
   9.336832e+01  -1.076063e+02
  -2.250312e+02  -2.273141e+01
  -2.243378e+02  -2.545665e+02
   4.987023e+01  -3.347485e+02
   4.384661e+02  -2.275480e+02
   6.157385e+02   1.686605e+02
   2.201644e+02   3.477475e+02
  -3.205593e+02   1.734212e+02
  -4.972271e+02  -1.630937e+02
  -2.592713e+02  -3.422674e+02
   2.513356e+02  -3.025092e+02
   4.659471e+02  -1.144748e+02
   3.098470e+02   1.547727e+02
   1.006389e+02   2.691221e+02
  -4.135351e+01   1.610975e+02
   2.358674e+01  -4.046478e+01
   2.068985e+02  -1.190650e+02
   1.711716e+02   1.703771e+02
  -3.083605e+01   4.756881e+02
  -2.426547e+02   4.117764e+02
  -2.943962e+02  -1.657798e+01
  -1.090004e+02  -3.305034e+02
   8.239255e+01  -1.474859e+02
   1.768503e+02   2.480262e+02
  -1.122453e+02   3.623740e+02
  -4.621607e+02   6.014426e+01
  -4.626578e+02  -2.926910e+02
  -1.498037e+02  -4.660596e+02
   3.057129e+02  -2.894252e+02
   4.924630e+02   2.261843e+00
   3.641046e+02   2.099596e+02
   3.873938e+00   2.130441e+02
  -2.626972e+02   1.288437e+02
  -2.266871e+02  -2.156591e+01
  -4.272117e+01  -7.484739e+01
   1.952415e+01   1.553613e+01
  -1.146032e+02   3.372935e+01
  -2.304678e+02  -6.790975e+01
  -1.053499e+02  -2.036214e+02
   1.528459e+02  -2.578299e+02
   3.771663e+02  -1.665472e+02
   3.165526e+02   6.813355e+01
   1.060509e+01   3.568044e+02
  -2.675449e+02   4.105370e+02
  -3.365262e+02   1.655175e+02
  -2.150691e+02  -1.543454e+02
  -5.620262e+01  -3.380138e+02
   7.982433e+01  -2.826330e+02
   2.921740e+01  -1.634715e+02
   2.346194e+01  -1.147654e+02
   1.348800e+02  -1.331219e+02
   2.139214e+02  -1.653418e+01
   1.948615e+02   1.326241e+02
   4.848046e+01   2.526601e+02
  -4.884958e+01   1.751469e+02
  -1.337753e+02  -4.468820e+01
  -1.003494e+02  -2.155314e+02
   5.776303e+01  -2.547921e+02
   2.259436e+02  -3.992090e+01
   2.749980e+02   1.817097e+02
   1.517652e+02   2.605049e+02
  -2.367903e+01   2.901631e+02
  -1.218046e+02   1.266349e+02
  -1.333842e+02   8.052538e+01
  -1.777652e+02   7.384508e+01
  -2.863488e+02   5.619856e+01
  -4.183889e+02  -1.125959e+02
  -3.202714e+02  -2.901558e+02
   2.101503e+01  -4.060901e+02
   4.171179e+02  -3.685315e+02
   4.777247e+02  -1.495109e+02
   2.753552e+02   7.956174e+01
  -2.430582e-01   2.130810e+02
  -6.472222e+01   1.524658e+02
  -5.982752e+00   1.650848e+01
   1.980351e+02  -4.513327e+01
   1.727966e+02   6.902858e+01
   1.930927e+01   1.238041e+02
  -1.591392e+02   1.117800e+02
  -1.237100e+02   1.321184e+01
  -3.323680e+01  -1.132522e+02
   1.307906e+02   1.711245e+01
   1.526389e+02   2.226066e+02
  -6.222569e+01   3.032949e+02
  -2.364722e+02   1.713126e+02
  -3.377869e+02  -5.390131e+01
  -2.667763e+02  -2.921372e+02
  -7.057983e+01  -3.109841e+02
   8.431230e+01  -1.515608e+02
   1.033036e+02   4.882426e+00
   2.384346e+01   2.002816e+01
  -1.176577e+01  -9.109646e+01
   1.540967e+01  -1.690653e+02
   1.400871e+02  -7.618870e+01
   1.237382e+02   2.856162e+01
   1.440730e+01   5.068937e+01
  -5.762273e+01   2.472917e+01
  -4.299621e+00  -8.465620e+01
   1.468544e+02  -6.879376e+01
   2.792235e+02  -1.302394e+01
   2.020795e+02   1.403315e+02
  -7.812447e+00   2.275397e+02
  -2.213236e+02   2.150274e+02
  -2.638668e+02   8.798507e+01
  -1.382481e+02  -3.253539e+01
   3.166294e+01  -6.004217e+01
   7.895240e+01   1.417203e+01
  -4.444197e+01   6.480070e+01
  -1.768188e+02   4.962763e+01
  -1.953498e+02  -1.220670e+02
  -6.175833e+01  -1.753708e+02
   7.956316e+01  -1.496777e+02
   1.022769e+02  -2.019170e+01
   3.050433e+01   2.021021e+01
  -6.837899e+01  -2.737526e+01
  -5.833224e+00  -1.138143e+02
   1.194245e+02  -1.362043e+02
   2.207156e+02   6.061932e+00
   1.567951e+02   1.349305e+02
   2.230443e+00   2.050479e+02
  -1.177830e+02   1.745246e+02
  -1.649103e+02   2.524389e+01
  -3.330865e+01  -1.046206e+02
   7.667440e+01  -7.649091e+01
   7.230713e+01  -1.511212e+01
   1.007666e+00   4.846708e+01
  -3.063761e+01   3.067296e+01
   3.248290e+01  -2.595633e+00
   4.994285e+01   1.800283e+01
   9.570254e+01   9.452736e+01
  -8.803247e+00   2.341496e+02
  -1.385433e+02   1.615157e+02
  -2.521036e+02   9.117695e+00
  -1.853230e+02  -1.364169e+02
  -6.882955e+00  -2.380036e+02
   1.271323e+02  -1.727800e+02
   1.033032e+02  -1.096412e+00
   6.389432e+01   3.297534e+01
   1.838953e+01   4.195797e+01
   6.743640e+01  -2.256534e+01
   7.664024e+01  -4.833618e+01
   8.982810e+01   6.964368e+00
  -4.001269e+00   8.845576e+01
  -1.408349e+02   7.994368e+01
  -1.071841e+02  -4.799847e+01
   4.803564e+01  -1.109763e+02
   1.742902e+02  -9.213461e+01
   1.930863e+02   7.385816e+01
   1.051889e+02   2.111808e+02
  -1.426362e+02   2.267375e+02
  -2.688698e+02   8.609576e+01
  -2.365015e+02  -1.327276e+02
  -1.344566e+02  -1.669655e+02
   3.347601e+01  -1.388787e+02
   9.841904e+01  -7.071309e+01
   4.203971e+01  -4.620158e+01
   9.186865e+01  -1.064395e+02
   6.719501e+01  -1.151041e+02
   1.230542e+02   3.688122e+01
   7.654149e+01   1.625467e+02
  -2.418053e+00   1.950372e+02
  -9.694767e+01   1.821680e+02
  -1.213888e+02  -2.428571e+00
  -1.003056e+02  -1.354679e+02
  -1.869849e+01  -1.486885e+02
   8.187315e+01  -7.203950e+01
   5.440013e+01   6.931995e+01
  -6.953799e+00   5.561970e+01
  -6.292272e+00   1.168831e+01
   3.724524e+01   2.717748e+01
   1.130036e+02  -1.847277e+01
   7.905759e+01   2.758129e+01
  -7.224784e+01   8.763777e+01
  -1.731801e+02  -2.983812e+00
  -1.452936e+02  -4.323870e+01
  -1.862847e+01  -8.552461e+01
   1.225271e+02  -7.777565e+01
   1.498762e+02   9.834185e+00
   3.603884e+01   5.046725e+01
  -3.965953e+01   4.184635e+01
  -1.375354e+02  -2.131943e+01
  -5.396014e+01  -8.908582e+01
   5.079240e+01  -8.359186e+01
   7.924851e+01  -3.022901e+01
   7.852679e+01   6.969085e+01
   4.604334e+01   5.708864e+01
   1.080749e+01   9.432325e+00
   6.551305e+01  -1.683749e+01
  -9.087922e+00   2.764108e+01
  -6.455712e+01   1.473093e+02
  -9.629610e+01   1.498622e+02
  -1.808729e+02   5.002953e+01
  -1.611778e+02  -7.957806e+01
  -1.918691e+01  -1.833410e+02
   6.058573e+01  -6.733579e+01
   3.626239e+01   2.504950e+01
  -5.090987e+01   3.562578e+01
  -1.124746e+02  -2.997918e+01
  -4.709800e+01  -1.160345e+02
   9.961547e+01  -1.316799e+02
   1.451569e+02  -4.880755e+01
   1.945495e+02   3.882594e+01
   4.864259e+01   1.136965e+02
  -7.273328e+01   5.102433e+01
  -7.756760e+01   2.809156e+01
   8.304525e+00  -6.832826e+01
   1.116249e+02   1.141324e+01
   9.717282e+01   9.363046e+01
  -1.118021e+02   1.328555e+02
  -1.418231e+02   6.652451e+01
  -1.167415e+02  -6.364265e+01
  -5.682602e+00  -1.572644e+02
   1.129025e+02  -1.465670e+02
   1.153998e+02  -1.921952e+01
   3.650332e+01   1.495879e+02
  -1.565110e+01   1.117069e+02
  -5.198169e+01   3.470000e+01
  -1.174767e+00  -8.531646e+00
  -1.594974e+01   5.459463e+00
  -2.065135e+01   1.383751e+01
  -1.758458e+01  -4.325881e+01
  -3.288634e+01  -1.245349e+02
   1.084689e+01  -1.389729e+02
   4.197438e+01  -5.696635e+01
   9.399157e+01  -2.316616e+01
   1.204721e+02   6.544892e+01
   9.471197e+01   4.323801e+01
  -6.735046e+01   3.213084e+01
  -3.762902e+01  -1.065178e+01
  -3.542488e+01  -1.144120e+01
   6.576177e+01   1.113582e+01
   3.334554e+01  -2.936376e+01
   1.898328e+01   3.412711e+01
  -5.676819e+00   6.276329e+01
   1.371959e+01  -5.406538e+00
   3.783664e+01   2.222773e+01
   2.539714e+00   7.923270e+01
  -1.375400e+02   1.091711e+02
  -2.118695e+02   3.440670e+01
  -1.619165e+02  -6.909186e+01
   9.131432e+00  -1.514905e+02
   8.035020e+01  -1.836776e+02
   1.102176e+02  -5.675502e+01
   6.632165e+01   2.342255e+01
   3.162577e+01   5.490744e+01
  -9.951262e+00   8.087921e+00
   5.465691e+01  -5.537007e+01
   2.774980e+01  -4.215959e+00
   4.125834e+01   4.951581e+01
  -3.706471e+00   9.386928e+01
  -7.667677e+01  -1.476522e+01
  -3.833590e+01  -5.471033e+01
  -7.665231e+01  -9.505124e+01
   3.025423e+01  -5.017056e+01
   8.668846e+01   4.159947e+01
   1.722638e+01   1.041480e+02
  -1.977444e+01   9.495674e+01
  -8.471546e+01   2.648096e+00
  -8.748695e+01  -8.005473e+01
   3.073032e+01  -5.446116e+01
   5.413594e+01  -3.477646e+01
   6.723072e+00   1.656417e+01
  -6.142581e+01   1.104247e+01
  -2.524272e+01  -2.116327e+01
   5.403616e+01  -7.496814e+01
   1.168890e+02  -1.627469e+01
   6.047208e+01   4.300169e+01
  -3.481366e+01   6.414668e+01
  -8.563086e+01   6.743550e+01
  -6.369476e+01  -1.597686e+01
   2.324987e+01  -6.757878e+01
   4.569263e+01  -7.005900e+01
   2.657670e+01  -1.914508e+01
   5.387150e+01   4.357362e+01
  -3.294914e+01   4.075234e+01
  -2.296479e+01  -1.219638e+00
  -3.470447e+01  -6.532990e+01
  -1.746933e+01  -3.115717e+01
  -3.516263e+00   1.565754e+01
   1.075015e+01  -1.289244e+01
   3.607206e+01  -1.856180e+01
  -3.056597e+01  -3.976710e+01
  -3.140682e+00  -3.740385e+01
   6.515505e+01   5.062067e+01
   4.448847e+01   5.349018e+01
  -3.736572e+01   2.629126e+01
  -9.060740e+01  -4.832333e+00
   1.111372e+00  -1.072389e+01
   3.751430e+01  -7.095489e+01
   1.070570e+02   2.133721e+01
   4.034044e+01   2.860344e+01
  -1.754002e+01   1.053830e+01
  -5.406470e+01   3.943778e+01
  -2.210054e+01  -4.164819e+01
   5.952919e+00   1.854906e+01
   8.154220e+01  -6.767063e+00
   1.105632e+01   1.982566e+01
  -7.737651e+01  -4.565524e+00
