
 $NMID
 id='ANONYMOUS ', fmtdat='(2E16.6)'
 volume=1.0
 tramp=1.0
 $END
   3.116387e+03  -1.054983e+02
   1.934691e+03   1.716456e+03
  -1.569875e+02   1.863774e+03
  -1.152495e+03   9.474862e+02
  -9.167308e+02   1.902824e+02
   8.870280e+00  -1.564020e+02
   4.423512e+02   1.587793e+02
   1.809257e+02   5.946332e+02
  -4.973752e+02   5.715468e+02
  -6.800954e+02   1.736346e+01
  -4.112300e+02  -4.592953e+02
  -3.895274e+01  -5.954425e+02
   2.776862e+02  -1.840796e+02
   2.536451e+02   4.474001e+02
  -1.269190e+02   5.404915e+02
  -4.686716e+02   5.974106e+01
  -2.795713e+02  -4.892641e+02
   9.856037e+01  -5.475354e+02
   4.449339e+02  -3.651958e+02
   4.393074e+02   1.421205e+02
   5.570574e+01   3.492699e+02
  -1.284962e+02   1.842197e+02
  -4.034499e+01   5.090267e+01
   1.826796e+02   6.843154e+01
   2.871272e+02   2.634649e+02
   1.535599e+01   3.568938e+02
  -5.059561e+02   1.541065e+02
  -4.797968e+02  -2.160186e+02
  -1.872871e+02  -3.036388e+02
   3.284151e+02  -2.228103e+02
   4.401849e+02   1.300806e+02
   1.702663e+02   3.904384e+02
  -2.839187e+02   2.803379e+02
  -4.447533e+02   1.065045e+02
  -3.059341e+02  -1.734777e+02
  -4.811663e+01  -2.804388e+02
   6.071185e+01  -1.523763e+02
  -7.703759e+01   7.102225e+01
  -2.098874e+02   7.451814e+01
  -1.663654e+02  -1.882133e+02
   4.410983e+00  -5.046374e+02
   2.334496e+02  -4.225648e+02
   3.113328e+02  -2.911246e+01
   1.597046e+02   2.972292e+02
  -7.393367e+01   1.229608e+02
  -1.140908e+02  -2.374095e+02
   1.254535e+02  -3.856917e+02
   4.239812e+02  -2.786119e+01
   4.777353e+02   3.601580e+02
   1.661576e+02   5.255848e+02
  -2.701159e+02   2.761546e+02
  -4.914032e+02  -4.524145e+01
  -3.426762e+02  -2.482472e+02
   2.134953e+01  -2.547055e+02
   3.131231e+02  -9.868996e+01
   1.994300e+02   1.459606e+01
   4.671489e+01   1.864441e+01
  -1.771569e+01  -3.346272e+01
   1.233459e+02  -5.760113e+01
   2.153295e+02   4.836810e+01
   1.750995e+02   1.650061e+02
  -1.215618e+02   2.239974e+02
  -3.153240e+02   1.731796e+02
  -2.825981e+02  -3.046096e+01
  -1.478839e+01  -2.594267e+02
   2.593788e+02  -3.675854e+02
   3.677682e+02  -1.696945e+02
   2.408016e+02   1.412808e+02
   4.493919e+01   3.541003e+02
  -3.543488e+01   3.182936e+02
  -2.715460e+01   1.542058e+02
  -2.620462e+00   7.673783e+01
  -1.126940e+02   1.268567e+02
  -2.008863e+02   9.823198e+01
  -2.019304e+02  -6.004441e+01
  -8.283455e+01  -2.509739e+02
   7.075520e+01  -1.872440e+02
   1.522621e+02   1.206143e+02
   9.810261e+01   2.944847e+02
  -6.702553e+01   2.815085e+02
  -2.637289e+02   3.164668e+01
  -3.481783e+02  -1.802294e+02
  -1.361313e+02  -2.970049e+02
   5.753161e+01  -2.379981e+02
   1.273929e+02  -1.138888e+02
   8.712284e+01  -4.711907e+01
   1.298316e+02  -6.584473e+01
   2.724332e+02  -6.452429e+01
   3.939855e+02   7.045606e+01
   3.030731e+02   2.986662e+02
  -6.929325e+01   4.113463e+02
  -3.660897e+02   4.149007e+02
  -4.114493e+02   1.724910e+02
  -2.732925e+02  -9.671556e+01
  -3.125502e+01  -2.447514e+02
   7.994450e+01  -1.830342e+02
  -1.467525e+01   6.916313e+00
  -1.516726e+02   6.713681e+01
  -2.011516e+02  -4.893317e+01
  -2.466227e+01  -1.562860e+02
   9.855244e+01  -1.287446e+02
   1.054328e+02  -9.051609e+00
  -2.811208e+01   9.517155e+01
  -1.037950e+02   1.475480e+01
  -1.403880e+02  -2.012095e+02
   3.357907e+01  -3.087429e+02
   2.355659e+02  -2.073581e+02
   3.308415e+02   7.809615e+01
   2.603138e+02   2.481226e+02
   1.161731e+02   2.398229e+02
  -1.506885e+02   1.645475e+02
  -1.779751e+02   1.762215e+01
  -5.557195e+01  -8.911984e+00
   1.586097e+01   1.798698e+01
  -2.868142e+01   8.983317e+01
  -7.743671e+01   5.962079e+01
  -1.272917e+02  -1.151231e+01
  -3.777941e+01  -6.221311e+01
   6.361226e+01  -1.275237e+01
   4.125748e+01   1.190768e+02
  -1.663340e+02   8.574495e+01
  -2.877294e+02  -5.736018e+01
  -2.592234e+02  -1.618505e+02
  -4.371895e+01  -2.558135e+02
   2.289843e+02  -2.125640e+02
   2.763419e+02  -9.837956e+01
   1.156738e+02   2.731952e+01
  -1.473354e+01   9.006236e+01
  -3.271228e+01   5.050327e+01
   7.690049e+01  -4.624935e+01
   1.731116e+02  -2.398502e+01
   1.395961e+02   1.271742e+02
   4.181961e+01   1.795431e+02
  -5.188512e+01   8.104779e+01
  -9.736659e+01   2.341439e+01
  -8.898974e+01  -8.517362e+01
  -1.404380e+00   1.961072e+01
   4.611807e+01   8.239581e+01
  -5.204309e+01   7.638582e+01
  -1.877486e+02  -4.067847e+00
  -1.375182e+02  -1.280066e+02
  -1.229575e+01  -2.088521e+02
   1.477112e+02  -1.420178e+02
   1.638456e+02  -1.443492e+01
   2.356453e+01   9.521465e+01
  -3.485937e+01   1.347748e+02
  -1.076917e+02   1.152577e+01
  -2.995443e+01  -7.634235e+01
   4.426981e+01  -3.689883e+00
   3.498487e+00   5.102187e+00
  -7.459753e+01   1.387608e+01
  -1.382703e+02  -5.307896e+01
  -1.373799e+01  -1.699605e+02
   1.303585e+02  -1.498370e+02
   2.561717e+02  -1.258550e+01
   1.727793e+02   1.331582e+02
   1.205049e+01   2.025836e+02
  -1.443557e+02   1.481966e+02
  -1.225034e+02   4.792813e+01
  -1.819563e+01  -1.740321e+01
   3.406769e+01  -1.007862e+00
  -5.298343e+01   2.845420e+01
  -6.100265e+01   4.389175e+01
  -9.591478e+01  -2.647018e+01
   8.940594e+00  -1.157421e+02
   8.233301e+01  -4.534659e+01
   1.226269e+02   2.448628e+01
  -1.843396e+01   1.199198e+02
  -1.507874e+02   7.677996e+01
  -1.830573e+02  -6.213263e+01
  -8.371693e+01  -2.092022e+02
   1.464961e+02  -1.802570e+02
   2.984750e+02  -7.967908e+01
   2.475450e+02   1.076580e+02
   6.110795e+01   1.381018e+02
  -7.356472e+01   1.305479e+02
  -8.951696e+01   7.798848e+01
  -3.491271e+01   9.310243e+01
  -1.127839e+02   1.034138e+02
  -1.304266e+02   9.938539e+01
  -1.120931e+02  -3.561047e+01
  -8.281819e+01  -1.563436e+02
  -2.601439e+01  -2.001053e+02
   5.001636e+01  -1.761752e+02
   1.315543e+02  -2.142286e+01
   6.504247e+01   1.361555e+02
  -1.728734e+01   1.334362e+02
  -5.665550e+01   5.536772e+01
  -7.893496e+01  -8.923527e+00
   1.918121e+01  -1.175834e+02
   4.630979e+01  -5.820623e+00
  -1.326839e+01  -2.209828e+01
  -8.529180e+01  -9.085499e+00
  -3.662685e+01  -3.488687e+01
   6.835816e+01  -7.811586e+00
   1.928830e+02  -1.228935e+01
   1.513693e+02   1.073460e+02
  -2.374813e+01   7.013219e+01
  -1.195872e+02   4.400862e+01
  -9.347902e+01   1.037973e+01
  -4.495522e+01  -4.533310e+01
   7.684034e+01  -5.797948e+01
   5.984109e+01   4.863774e+00
  -2.696467e+01   6.526854e+01
  -3.548475e+01   2.975804e+01
  -3.180695e+01  -1.197754e+01
   1.768760e+01  -6.935391e+01
  -3.844379e+01  -5.762411e+01
  -2.571430e+01  -7.207771e+00
  -7.521301e+01  -1.647916e+01
  -3.100679e+01  -6.780645e+01
   2.181751e+01  -1.420605e+02
   1.397480e+02  -1.844731e+02
   1.888068e+02  -4.295665e+01
   1.771982e+02   1.024143e+02
  -1.094089e+01   1.287026e+02
  -3.390066e+01   7.968194e+01
  -5.510471e+01  -1.442921e+01
   1.100871e+02  -1.619395e+01
   1.551820e+02   6.223872e+01
   7.547394e+01   1.309616e+02
  -1.092021e+02   1.724049e+02
  -1.742771e+02   3.737954e+01
  -1.696310e+02  -3.801701e+01
  -4.119350e+01  -1.018076e+02
   1.122397e+02  -1.671838e+01
   3.726909e+01   3.512188e+00
  -4.675910e+01   5.543510e+01
  -1.067893e+02  -9.576265e+00
  -4.092382e+01  -8.256914e+01
   7.385379e+01  -1.900709e+02
   1.518674e+02  -3.897721e+01
   9.814123e+01   1.009317e+02
   3.616734e+01   2.049389e+02
  -7.347571e+01   1.227051e+02
  -8.996570e+01  -1.421791e+01
  -5.095377e+01  -1.261553e+02
   1.790114e+01  -9.803757e+01
   3.939939e+01   5.569611e-01
   2.770319e+01   5.508718e+01
   3.939105e+01   1.447558e+01
   1.360873e+01  -2.057429e+01
   2.381736e+01   9.544420e+00
   3.664905e+01   4.427108e+01
   2.829876e+01   9.130790e+01
  -3.632806e+01   1.524393e+01
  -9.091186e+01  -4.249385e+01
  -8.022807e+01  -7.271018e+01
  -1.112382e+01  -7.992920e+01
   1.163095e+02  -4.395155e+01
   9.749791e+01   3.122342e+01
   1.880868e+01   1.832274e+01
  -5.691556e+01   6.517444e+01
  -6.310536e+01   3.542734e+01
   1.280891e-01  -3.481252e+01
   9.649295e+00  -2.213745e+01
  -6.044218e+01   1.585112e+01
  -1.061855e+02  -3.985899e+01
   2.942687e+00  -6.300790e+01
   8.534493e+01  -8.500251e+01
   1.701540e+02  -4.804457e+01
   1.371984e+02   5.709675e+01
   8.943430e+01   1.755759e+02
  -7.874630e+01   1.154230e+02
  -1.078487e+02   5.228818e+01
  -8.381851e+01  -1.936005e+01
  -2.153339e+01  -3.023522e+01
  -4.659343e-01  -1.079419e+01
  -8.854979e+00  -7.446569e-01
  -1.700768e+01  -4.659515e+01
  -1.674235e+01  -9.602668e+01
   2.616956e+01  -6.163589e+01
   7.068434e+01   3.253211e+01
   7.876885e+01   9.678033e+01
  -1.784946e+00   7.778129e+01
  -7.196921e+01   2.180309e+01
  -1.287037e+02  -9.887114e+01
  -5.921650e+01  -9.909507e+01
   7.628354e+01  -1.086739e+02
   1.115456e+02   3.291089e+01
   6.138442e+01   7.985999e+01
  -4.016102e+01   6.688955e+01
  -4.755348e+01   1.086787e+01
   1.113091e+01   7.879558e+00
   3.449068e+01  -7.887151e+00
   3.734688e+01   8.733298e+01
  -6.187006e+01   1.245897e+02
  -8.591483e+01   8.480661e+01
  -7.113746e+01   2.589059e+00
  -1.836857e+01  -6.361762e+01
   5.993549e+01  -5.416136e+01
   7.115339e+01   1.458995e+01
   2.131524e+01   7.249209e+01
  -8.126040e+00   3.275910e+01
  -2.382828e+01  -2.741632e+01
  -2.908388e+01  -2.059499e+01
   3.274832e+01  -3.119106e+01
   5.710874e+01   1.472300e+01
   6.303019e+01   6.310557e-01
  -4.751576e+01   2.440924e+00
  -1.269023e+01  -4.355377e+01
   2.222090e+01   2.891949e+01
   1.158992e+01  -9.919430e+00
  -3.223250e+01   5.424782e+01
  -2.337901e+01   3.771650e+01
  -8.012108e+01  -2.026760e+01
   1.231205e+01  -1.190265e+02
  -1.684334e+01  -4.037552e+01
   3.082120e+01   4.729053e+01
   5.623376e+01   6.249513e+01
  -6.113670e+01   5.357542e+01
  -9.370733e+01  -2.798199e+01
  -2.085697e+01  -2.303682e+01
   2.642235e+01  -1.965938e+01
   4.121627e+01  -3.070590e+01
   5.906688e+01   8.623107e+00
  -3.896632e+01   1.417651e+01
  -4.538825e+01   1.596186e+01
  -1.758828e+01  -2.072400e+01
   4.772334e+01  -2.699002e+01
