
 $NMID
 id='ANONYMOUS ', fmtdat='(2E16.6)'
 volume=1.0
 tramp=1.0
 $END
   4.194609e+03   7.189667e+01
   2.477126e+03   2.339884e+03
  -5.637494e+02   2.703114e+03
  -2.046286e+03   1.055019e+03
  -8.624682e+02  -3.804957e+02
   4.702184e+02  -4.333122e+02
   7.156656e+02   3.321524e+02
  -5.775796e+00   9.964141e+02
  -7.826747e+02   7.290643e+02
  -9.271575e+02  -8.032252e+00
  -4.849693e+02  -7.184331e+02
   1.251954e+02  -7.841197e+02
   4.985033e+02  -1.190824e+02
   3.899359e+02   6.334141e+02
  -1.854304e+02   7.351056e+02
  -6.053729e+02   7.244966e+01
  -3.039097e+02  -6.777893e+02
   3.011977e+02  -6.764332e+02
   5.261251e+02  -1.834698e+02
   4.874438e+02   2.977118e+02
   6.716094e+01   3.584850e+02
  -1.645034e+02   2.792181e+02
  -1.733550e+02   4.984923e+01
   4.451393e+01  -7.422076e+01
   4.190988e+02   1.830914e+02
   9.316639e+01   4.426253e+02
  -5.012827e+02   3.378067e+02
  -7.566386e+02  -1.397138e+02
  -3.466801e+02  -4.797975e+02
   4.009208e+02  -3.667134e+02
   7.225841e+02   1.383762e+02
   2.610487e+02   5.317591e+02
  -3.757584e+02   5.189914e+02
  -5.753749e+02   1.797423e+02
  -4.289968e+02  -2.699395e+02
  -8.777989e+01  -4.334435e+02
   1.764025e+02  -2.557038e+02
   8.819332e+01   1.556349e+02
  -2.272344e+02   3.398493e+02
  -3.415583e+02  -7.361225e+01
  -1.919131e+02  -6.293733e+02
   3.023278e+02  -6.530923e+02
   5.771693e+02   1.837723e+01
   2.355977e+02   5.393607e+02
  -2.749375e+02   2.845629e+02
  -2.964404e+02  -3.215972e+02
   1.137905e+02  -5.219226e+02
   5.291485e+02  -1.122631e+02
   5.470467e+02   4.559973e+02
   1.544845e+02   5.869749e+02
  -3.172336e+02   3.445767e+02
  -6.271053e+02  -4.736291e+01
  -4.334704e+02  -3.229814e+02
   9.426513e+01  -3.422402e+02
   4.010410e+02  -1.139050e+02
   2.693908e+02   1.296548e+02
  -5.931146e+01   7.729817e+01
  -1.351977e+02  -1.053566e+02
   1.432805e+02  -1.245479e+02
   3.853399e+02   7.663639e+01
   1.709765e+02   2.795141e+02
  -2.033910e+02   2.649375e+02
  -3.623667e+02   7.539268e+01
  -2.211751e+02  -7.425790e+01
   3.690574e+00  -2.207599e+02
   2.392834e+02  -3.575278e+02
   3.402654e+02  -2.326236e+02
   3.271898e+02   1.090544e+02
   1.054368e+02   4.004578e+02
  -2.951410e+01   3.840460e+02
  -8.086497e+01   1.571482e+02
  -4.617772e+00   4.808493e+01
  -4.566592e+01   1.233635e+02
  -1.878181e+02   1.077848e+02
  -2.513405e+02   2.503655e+01
  -1.183852e+02  -2.076687e+02
   7.542323e+01  -2.203251e+02
   1.951214e+02   3.497036e+01
   1.828376e+02   2.778751e+02
  -7.187948e+01   3.035635e+02
  -2.840400e+02   1.148919e+02
  -3.230033e+02  -1.735638e+02
  -1.819700e+02  -3.605636e+02
   7.278084e+01  -3.084525e+02
   1.414602e+02  -1.397483e+02
   1.743219e+02  -7.116054e+01
   1.333614e+02  -9.491452e+01
   2.485643e+02  -7.016615e+01
   4.257846e+02   6.271210e+01
   3.467447e+02   2.751631e+02
   2.194703e+01   5.131183e+02
  -3.405633e+02   4.685957e+02
  -5.214788e+02   2.050016e+02
  -3.457528e+02  -9.551532e+01
  -4.093027e+01  -3.106431e+02
   1.479637e+02  -2.224366e+02
   6.996918e+01  -2.415014e+01
  -1.379645e+02   7.552237e+01
  -2.097602e+02   2.876150e+00
  -6.787272e+01  -1.777418e+02
   1.482216e+02  -1.667793e+02
   1.520047e+02   4.161601e+01
  -3.018419e+01   1.305320e+02
  -1.935260e+02   2.495093e+01
  -1.693845e+02  -2.550475e+02
   1.514493e+01  -3.183172e+02
   2.604664e+02  -2.407879e+02
   3.952372e+02   3.809779e+01
   2.578273e+02   2.358790e+02
   6.777836e+01   3.136240e+02
  -1.300816e+02   1.608854e+02
  -1.632435e+02  -1.971882e+01
  -5.165180e+01  -1.703198e+01
   1.268880e+02   3.729244e+01
   2.865533e+01   1.672345e+02
  -1.468418e+02   1.158195e+02
  -1.903243e+02  -2.746450e+01
  -5.433661e+01  -1.028590e+02
   8.775087e+01  -1.196503e+01
   3.000286e+01   9.677928e+01
  -1.396286e+02   1.212895e+02
  -3.017417e+02   2.267828e-01
  -3.018595e+02  -1.635640e+02
  -1.912393e+01  -2.809968e+02
   2.108649e+02  -2.548574e+02
   2.884778e+02  -9.557825e+01
   1.956120e+02   1.175365e+02
  -5.666477e+01   1.384898e+02
  -1.164680e+02   4.387345e+01
   7.334096e+00  -1.448275e+02
   1.996503e+02  -5.987086e+01
   2.127294e+02   1.132518e+02
   4.181743e+01   2.283418e+02
  -1.371930e+02   1.604803e+02
  -1.650301e+02  -2.955336e+01
  -4.023711e+01  -4.251407e+01
   7.299573e+01   2.567550e+01
   7.279023e+01   1.159890e+02
  -7.739325e+01   1.302738e+02
  -2.205356e+02   4.042955e+01
  -2.272662e+02  -8.594168e+01
  -4.715415e+01  -1.921252e+02
   1.295974e+02  -2.012805e+02
   2.052531e+02  -5.547438e+01
   1.073968e+02   1.187107e+02
  -6.762061e+01   9.507445e+01
  -9.129418e+01   1.681856e+01
   3.755350e+01  -1.560532e+01
   5.874769e+01   1.317103e+01
  -1.270799e+01   3.523103e+01
  -8.149516e+01   1.167345e+01
  -8.168409e+01  -5.544287e+01
   3.179766e+00  -1.959747e+02
   1.524031e+02  -1.539962e+02
   2.211307e+02  -4.492545e+01
   2.092599e+02   1.556745e+02
   5.009953e+01   2.087917e+02
  -9.720368e+01   2.216787e+02
  -1.455617e+02   5.899719e+01
  -7.400811e+01  -3.862046e+01
  -7.164856e+01  -4.337315e+01
  -8.712429e+01   2.794191e+01
  -1.190580e+02   4.659998e-01
  -7.243818e+01  -1.017224e+02
   6.175410e+01  -1.146158e+02
   1.432223e+02  -1.180261e+01
   6.575587e+01   7.441132e+01
  -6.791876e+01   1.338919e+02
  -1.738232e+02   6.605921e+01
  -1.953213e+02  -4.690231e+01
  -8.325930e+01  -2.078297e+02
   1.415917e+02  -2.302147e+02
   2.846922e+02  -5.852266e+01
   2.296178e+02   3.217235e+01
   8.482403e+01   1.691121e+02
  -3.051626e+01   1.188165e+02
  -1.160951e+02   1.098777e+02
  -5.958043e+01   9.345939e+01
  -1.491460e+01   9.977906e+01
  -1.054908e+02   1.132023e+02
  -1.878901e+02  -4.652380e+01
  -8.275461e+01  -1.689491e+02
  -2.044326e+01  -2.450177e+02
   1.213544e+02  -1.612156e+02
   1.679666e+02   5.756705e+00
   1.377015e+02   1.716179e+02
  -1.725698e+01   1.585752e+02
  -1.040056e+02   4.366812e+01
  -6.095101e+01  -1.546388e+01
  -6.557814e+00  -2.504645e+01
   5.347602e+00  -4.980645e+01
   4.070211e-02   5.506631e+00
  -7.329577e+01  -6.762872e+00
  -6.555399e+01  -4.584950e+01
   5.602216e+01  -7.939463e+01
   1.638389e+02  -3.289514e+01
   1.461896e+02   8.730170e+01
  -1.171989e+01   8.811525e+01
  -1.185848e+02   9.719194e+01
  -1.279614e+02  -8.424106e+00
  -2.948187e+01  -3.706388e+01
   4.005896e+01  -2.548814e+01
   4.495006e+01  -1.030189e+01
   8.417505e+00   5.351290e+01
  -9.877161e+00   2.506134e+01
  -3.131781e+01   8.832488e+00
  -6.052239e+01   2.036763e+01
  -4.924301e+01  -2.730174e+00
  -8.519331e+01   2.616165e+01
  -7.185026e+01   7.343195e+00
  -2.139661e+01  -8.403211e+01
   5.803393e+01  -1.443713e+02
   9.301919e+01  -9.713400e+01
   1.730466e+02   5.491672e+00
   1.293183e+02   5.886924e+01
  -4.958088e+01   1.423506e+02
  -8.702071e+01   2.815138e+01
  -6.415810e+01  -7.779844e+01
   7.328217e+01  -1.478817e+01
   1.299282e+02   3.078452e+01
   6.071656e+01   9.978865e+01
  -5.092392e+01   9.653556e+01
  -2.001415e+02   6.874097e+01
  -1.468843e+02  -6.017724e+01
  -2.622638e+01  -5.407775e+01
   3.252820e+01  -1.010291e+02
   4.138736e+01   1.586859e+01
  -7.184628e+01   7.680530e+00
  -1.135294e+02  -4.033171e+01
  -4.754282e+01  -1.097124e+02
   9.924087e+01  -1.572200e+02
   1.376365e+02  -3.948672e+01
   1.086779e+02   7.173337e+01
   5.659836e+01   1.598540e+02
  -7.200847e+01   1.371082e+02
  -9.092904e+01  -2.715160e+01
  -5.131531e+01  -1.026055e+02
   2.142042e+01  -8.644159e+01
   4.062277e+01  -2.290029e+01
   9.851474e+00   5.635222e+01
   2.843269e+01  -2.853836e+01
  -1.023455e+01  -2.766528e+01
   1.514051e+01   5.845628e+00
   5.577845e+01   9.994829e+01
  -8.252021e-01   6.130818e+01
  -2.439489e+01   1.587436e+01
  -1.150081e+02  -4.821272e+01
  -1.513930e+02  -6.345500e+01
  -1.088641e+01  -7.186800e+01
   4.927867e+01  -5.263311e+01
   9.010873e+01  -1.244840e+01
   2.691406e+00  -3.247941e+01
   1.376190e+01   2.768322e+01
  -2.808168e+01   1.659316e+01
   2.044380e+01  -2.102297e+01
  -1.227818e+01  -4.408102e+01
  -8.650596e+01  -3.043426e+01
  -7.954620e+01  -1.037320e+00
   2.423835e+01  -1.096510e+02
   1.584578e+02  -1.068807e+02
   1.621139e+02  -4.505521e+01
   1.374684e+02   1.009895e+02
   5.555646e+01   1.511740e+02
  -4.996874e+01   1.276727e+02
  -8.081331e+01   5.519324e+01
  -6.183375e+01   4.799501e+00
  -2.527406e+01   1.373131e+01
   2.053588e+01   1.953032e+01
  -6.810579e+01  -1.253290e+01
  -2.172198e+01  -6.754173e+01
  -4.487517e+01  -9.168667e+01
   3.703415e+01  -3.819413e+01
   5.805216e+01   2.516653e+01
   5.693436e+01   9.042074e+01
  -1.716681e+01   1.379520e+02
  -1.036271e+02   6.893845e-01
  -7.969326e+01  -9.574899e+01
  -5.636362e+01  -9.333727e+01
   4.719823e+01  -6.994255e+01
   1.297484e+02  -2.257921e+01
   6.476409e+01   8.195318e+01
  -1.390516e+00   9.188895e+01
  -3.680280e+01   3.682646e+01
   2.114413e+01  -1.009128e+01
   3.542420e+01   3.100636e+01
   8.821246e+00   8.651319e+00
  -6.939075e+01   7.891326e+01
  -9.370810e+01   5.638722e+01
  -6.785550e+01  -2.176032e+01
  -1.566260e+01  -9.827752e+01
   3.008067e+01  -1.217303e+02
   2.190111e+01  -2.945048e+01
  -1.267955e+01   7.227285e+01
  -8.224808e+01   5.807314e+01
  -7.606976e+01   2.196268e+00
  -1.688806e+01  -4.521204e+01
   1.308384e+01  -3.091390e+01
   5.046195e+00  -9.004183e+00
   3.428513e+01   5.463217e+00
  -6.333534e+00  -9.089799e+00
   5.657992e+00  -1.474782e+01
   9.897887e+00   1.206944e+01
   6.214746e-01   3.718137e+01
  -1.010863e+01   2.285018e+01
  -5.194001e+01  -5.368975e+01
  -3.058069e+01  -6.645405e+01
  -2.750634e+01  -3.542359e+01
   2.499525e+01   3.097574e+00
   6.457650e+01   2.163223e+01
   9.597800e+00   4.922964e+01
  -3.428955e+01   3.049370e+01
  -1.266817e+02  -2.416426e+01
  -4.873921e+01  -6.788732e+01
   4.425123e+01  -3.298999e+01
   6.228384e+01  -1.686416e+01
  -5.897896e+00   1.135720e+01
  -4.431763e+01   3.186167e+01
   2.064920e+00  -3.132356e+00
   1.686105e+01  -5.165627e+01
   6.038278e+01  -2.715588e+01
