
 $NMID
 id='ANONYMOUS ', fmtdat='(2E16.6)'
 volume=1.0
 tramp=1.0
 $END
   3.856058e+03  -5.962938e+01
   2.536269e+03   1.921467e+03
  -2.973128e+02   2.685763e+03
  -1.837869e+03   1.217239e+03
  -1.082450e+03  -3.599870e+02
   3.160699e+02  -5.322146e+02
   6.331791e+02   2.079013e+02
   2.156118e+02   9.784228e+02
  -6.064430e+02   7.486089e+02
  -8.513068e+02  -1.421282e+01
  -5.457672e+02  -6.663859e+02
   1.305806e+02  -8.209819e+02
   5.129174e+02  -1.494672e+02
   3.774064e+02   6.221296e+02
  -1.845101e+02   7.001718e+02
  -5.568956e+02   5.934566e+01
  -3.360019e+02  -5.815503e+02
   2.637535e+02  -6.919635e+02
   6.299403e+02  -1.972566e+02
   4.583967e+02   3.229763e+02
   8.270121e+01   4.340175e+02
  -1.362881e+02   3.203869e+02
  -1.438219e+02   1.300412e+02
   8.588088e+01   2.905517e+01
   3.453827e+02   1.929105e+02
   1.021845e+02   4.325517e+02
  -4.885452e+02   2.895265e+02
  -7.682341e+02  -1.451442e+02
  -3.322492e+02  -4.373816e+02
   3.617862e+02  -3.405473e+02
   6.501187e+02   9.120011e+01
   2.534105e+02   3.909494e+02
  -3.200118e+02   4.132489e+02
  -5.082336e+02   1.627517e+02
  -3.849971e+02  -1.684727e+02
  -2.227540e+01  -4.101551e+02
   1.270698e+02  -2.308910e+02
   8.188217e+01   1.453653e+02
  -1.292971e+02   3.075423e+02
  -2.943346e+02  -4.050764e+01
  -1.670631e+02  -5.660023e+02
   2.531764e+02  -5.571957e+02
   4.800933e+02  -1.554824e+01
   2.064694e+02   4.543404e+02
  -2.145801e+02   2.051171e+02
  -3.051237e+02  -3.036248e+02
   1.075388e+02  -4.452329e+02
   5.191782e+02  -4.854292e+01
   5.768319e+02   3.846735e+02
   1.432450e+02   5.428901e+02
  -3.799057e+02   2.927946e+02
  -5.957273e+02  -5.905606e+01
  -3.640645e+02  -2.913965e+02
   1.478449e+02  -2.765704e+02
   3.947598e+02  -4.869778e+01
   2.653246e+02   1.202102e+02
  -7.966996e+01   7.232029e+01
  -7.529247e+01  -9.806392e+01
   1.301121e+02  -6.253368e+01
   3.374197e+02   5.268449e+01
   1.262692e+02   2.649198e+02
  -1.277808e+02   2.250914e+02
  -3.161799e+02   1.504615e+02
  -2.311984e+02  -6.700714e+01
  -6.605026e+00  -2.835047e+02
   2.668301e+02  -3.544451e+02
   3.852045e+02  -1.774019e+02
   2.971472e+02   1.796411e+02
   6.635438e+01   3.956258e+02
  -1.125246e+02   3.711007e+02
  -7.733050e+01   1.300216e+02
  -5.820156e+01   9.813347e+01
  -1.257066e+02   8.678126e+01
  -2.185644e+02   9.636028e+01
  -3.085402e+02  -1.184207e+02
  -1.016322e+02  -2.718369e+02
   9.795377e+01  -2.692732e+02
   2.109989e+02   7.870923e-01
   1.816375e+02   2.479238e+02
  -8.793986e+00   2.824883e+02
  -2.426969e+02   9.838342e+01
  -3.300091e+02  -1.691152e+02
  -1.893564e+02  -3.266146e+02
   5.783818e+01  -2.854384e+02
   2.353076e+02  -1.353451e+02
   1.135991e+02  -4.262510e+01
   1.387908e+02  -4.034960e+01
   2.517156e+02   2.215736e+00
   3.569958e+02   4.613350e+01
   3.002553e+02   2.475981e+02
   1.673738e+01   4.072836e+02
  -3.256031e+02   4.285031e+02
  -4.323169e+02   1.837004e+02
  -2.798193e+02  -9.118955e+01
  -8.072236e+01  -2.588190e+02
   8.403165e+01  -2.290824e+02
   8.446502e+00  -2.532228e+01
  -5.876134e+01   4.923382e+01
  -1.535535e+02  -3.267379e+01
  -3.574694e+01  -2.056722e+02
   1.202948e+02  -1.617982e+02
   1.441497e+02   6.049268e+01
   2.447263e+01   1.873459e+02
  -1.667830e+02   4.084250e+01
  -1.537771e+02  -2.174349e+02
  -4.421313e+00  -3.569637e+02
   2.865749e+02  -2.505281e+02
   3.331716e+02   5.908376e+01
   2.593890e+02   3.108193e+02
   5.404766e+01   3.041389e+02
  -1.373137e+02   1.250466e+02
  -1.572819e+02   4.522526e+01
  -5.374645e+01  -2.776654e+01
   3.527857e+01   7.538886e+01
   1.834118e+01   8.570271e+01
  -1.420703e+02   5.222863e+01
  -1.428670e+02  -4.468918e+01
  -1.840339e+01  -6.557060e+01
   3.750474e+01   5.340931e+01
   4.919760e+01   7.971166e+01
  -1.632979e+02   5.289891e+01
  -3.210481e+02  -3.193892e+01
  -2.068428e+02  -1.435115e+02
   1.428950e+00  -3.103743e+02
   1.610420e+02  -2.304325e+02
   2.339037e+02  -1.307262e+02
   1.325949e+02   5.940093e+01
  -1.508019e+01   7.561797e+01
  -6.208087e+01  -6.218672e+01
   4.034664e+01  -1.330136e+02
   1.712003e+02  -4.871923e+01
   2.342743e+02   1.193917e+02
   6.605001e+01   2.635191e+02
  -5.002138e+01   1.531489e+02
  -1.302401e+02   1.145189e+01
  -2.752640e+01  -4.702566e+01
   9.103015e+01  -1.102080e+01
   5.896973e+01   7.007700e+01
  -7.834412e+01   1.511422e+02
  -2.214856e+02   7.669978e+00
  -1.486831e+02  -1.413105e+02
   1.051573e+01  -1.966950e+02
   1.039189e+02  -1.851686e+02
   1.644443e+02  -1.624462e+01
   5.554134e+01   1.063927e+02
  -4.370464e+01   9.346601e+01
  -7.834714e+01   1.818397e+01
   3.433655e+01  -3.001242e+01
   4.503326e+01   4.216281e+01
  -3.274412e-01   4.108441e+01
  -1.234696e+02   9.007172e+00
  -1.161191e+02  -6.422096e+01
   1.454062e+00  -1.296417e+02
   1.130047e+02  -1.550230e+02
   2.392805e+02  -6.101402e+01
   2.252720e+02   1.384000e+02
   3.863352e+01   2.562334e+02
  -7.778437e+01   1.963603e+02
  -1.531960e+02   1.558575e+01
  -9.345519e+01  -6.369431e+01
  -4.523835e+01  -6.289833e+01
  -4.251950e+01  -1.927699e-01
  -6.135963e+01   2.281604e+01
  -6.517275e+01  -5.493679e+01
   7.139950e+01  -1.025830e+02
   1.273163e+02  -7.197628e+01
   1.328596e+02   3.431081e+01
  -2.460665e+01   1.084388e+02
  -1.879210e+02   4.903049e+01
  -2.228829e+02  -7.548671e+01
  -5.229517e+01  -2.197578e+02
   1.307897e+02  -2.297980e+02
   3.040817e+02  -7.433980e+01
   2.117127e+02   9.845519e+01
   6.154598e+01   1.718063e+02
  -4.611313e+01   1.587559e+02
  -6.552196e+01   5.511390e+01
  -7.258999e+01   4.130639e+01
  -4.827085e+01   5.749097e+01
  -1.059507e+02   4.899341e+01
  -1.031293e+02  -2.980117e+01
  -9.890250e+01  -1.146318e+02
  -6.731064e+00  -1.899648e+02
   9.516033e+01  -1.766138e+02
   2.132266e+02  -2.359920e+01
   1.612949e+02   9.543225e+01
   6.333588e+00   1.507418e+02
  -3.843653e+01   1.028430e+02
  -7.370395e+01   1.180988e+00
   2.370550e+01  -3.022969e+01
  -1.103166e+01  -4.265920e+00
  -6.038389e+01   1.540503e+00
  -6.703612e+01  -1.709157e+01
  -4.802711e+01  -3.590918e+00
   8.141349e+01  -1.805643e+01
   1.985179e+02   1.953407e+01
   1.367850e+02   9.480290e+01
  -3.894310e+00   1.219144e+02
  -6.216353e+01   6.310667e+01
  -1.565272e+02  -4.744422e+00
  -6.535914e+01  -4.379040e+01
   5.152816e+01  -3.356324e+01
   8.889474e+01   4.017582e+01
   3.787535e+01   7.747062e+01
  -4.644415e+01   9.725703e+01
  -4.966511e+01   1.690487e+01
  -8.201718e+01  -5.793832e+01
  -3.119219e+01  -6.023867e+01
  -2.918329e+01  -4.001142e+01
  -5.771111e+01  -3.927878e+01
   7.488072e+00  -7.252759e+01
   5.519585e+01  -1.403002e+02
   1.096312e+02  -1.392616e+02
   1.859274e+02  -3.436241e+01
   1.819187e+02   4.489773e+01
   6.693960e+00   1.160024e+02
  -8.521906e+01   4.005387e+01
  -4.343745e+01   9.103324e+00
   7.349023e+01  -2.205170e+01
   1.586566e+02   2.499977e+01
   3.824625e+01   1.214308e+02
  -9.418649e+01   5.914652e+01
  -1.725042e+02   2.892671e+01
  -1.718752e+02  -5.160188e+00
  -3.638181e+01  -4.679106e+01
   6.152184e+01  -3.808239e+01
   1.813130e+01  -4.338732e+00
  -2.897062e+01   1.158991e+01
  -1.043393e+02  -3.084989e+01
  -5.445469e+01  -8.240799e+01
   6.698071e+01  -1.490173e+02
   1.339347e+02  -9.854189e+01
   9.822669e+01   6.721591e+01
   1.886977e+01   1.797870e+02
  -4.851605e+01   1.451605e+02
  -8.224443e+01   2.555951e+00
  -4.850272e+01  -6.107404e+01
   1.701051e+01  -5.998605e+01
   1.797033e+01  -1.648110e+01
   6.207029e+01   1.796706e+01
   2.716157e+01   2.949328e+01
   1.317290e+01   1.279320e+01
   1.966021e+01   2.458962e+01
   6.194440e+01   8.883077e+01
   1.857566e+01   8.525503e+01
  -3.709892e+01   5.137381e+01
  -1.311162e+02   2.234818e+01
  -8.331552e+01  -8.545163e+01
   2.474871e+01  -5.786564e+01
   8.257953e+01  -1.831148e+01
   6.324107e+01  -1.116834e+01
   1.664808e+01   9.550247e+00
  -3.522915e-01  -1.315560e+01
   4.258832e+01  -1.061462e+01
   8.147369e+01  -2.964553e+01
   1.592674e+01   3.645404e+01
  -5.633945e+01   8.771850e-01
  -6.342531e+01  -2.437226e+01
  -2.006614e+01  -7.951422e+01
   1.230176e+02  -1.800985e+02
   1.679043e+02  -7.652934e+01
   1.588819e+02   8.570934e+01
   4.020820e+01   1.550871e+02
  -7.176078e+01   1.719191e+02
  -1.185133e+02   2.454214e+01
  -1.092667e+02  -2.002166e+01
  -3.044869e+01   1.568124e+01
  -2.773521e+00  -6.824457e+00
  -2.075271e+01  -8.969533e+00
  -2.448375e+01  -5.662322e+01
   7.337160e+00  -1.120593e+02
   1.399151e+01  -3.982220e+01
   5.215439e+01   2.600972e+01
   3.832924e+01   7.231091e+01
   5.398582e+01   6.280218e+01
  -5.165788e+01   2.915382e+01
  -9.568027e+01  -5.704790e+01
  -8.287626e+00  -8.067928e+01
   8.519664e+01  -3.896317e+01
   7.140640e+01   2.573558e+01
   1.891069e+01   6.639868e+01
  -5.361978e+01   5.059914e+01
  -7.255037e+01   3.350588e+01
   2.486351e+01  -1.680751e+01
   7.234027e+01   2.910242e+01
  -1.133707e+01   4.675651e+01
  -5.266635e+01   8.430736e+01
  -1.114030e+02   3.471967e+01
  -9.474370e+01   3.989300e+00
   3.855954e+01  -8.242106e+01
   5.025544e+01  -7.572701e+01
   7.677177e+01  -5.748164e+00
   3.742224e+01   8.390532e+01
  -4.226951e+01   6.178120e+01
  -3.925089e+01  -2.544739e+00
  -2.714003e+01  -3.620840e+01
   1.948530e+01  -3.466622e+01
   2.658388e+01   1.366312e+01
   3.194216e+01   7.639691e+00
   6.301750e+01   1.517588e+01
   8.112463e+00  -2.818111e+01
  -1.335363e+01   3.145129e+00
  -2.212772e+00   1.864181e+01
   1.177386e+01   5.284227e+01
  -4.400895e-01   2.342150e+01
   7.823727e+00  -5.068143e+01
  -1.214335e+01  -1.332584e+00
   2.360279e+01  -4.539358e+01
   7.644085e+01   4.651690e+01
  -4.421051e+00   8.194127e+01
  -1.081934e+02   2.589399e+01
  -1.221926e+02  -5.811257e+01
  -7.520407e+01  -1.083238e+02
   4.099080e+01  -9.978244e+01
   6.753067e+01  -1.934811e+01
   3.032055e+01   6.509680e+00
  -3.098688e+01   1.683203e+01
  -4.736650e+01   3.791649e+00
   5.076668e+01  -3.297771e+01
   9.336928e+01  -1.477617e+01
