
 $NMID
 id='ANONYMOUS ', fmtdat='(2E16.6)'
 volume=1.0
 tramp=1.0
 $END
  -4.009420e+03   2.200613e+02
  -2.654283e+03  -2.284041e+03
   3.127895e+02  -2.506531e+03
   1.893248e+03  -1.168733e+03
   8.690794e+02   2.614874e+02
  -3.326240e+02   4.655452e+02
  -6.756473e+02  -2.100531e+02
  -1.229491e+02  -7.917425e+02
   6.093371e+02  -7.825270e+02
   8.513401e+02  -4.818356e-02
   4.764322e+02   7.171853e+02
  -1.410418e+02   7.945030e+02
  -4.159579e+02   1.273186e+02
  -3.109129e+02  -6.026336e+02
   2.080668e+02  -6.122369e+02
   5.090756e+02  -7.303412e+01
   3.393988e+02   6.133583e+02
  -1.821076e+02   6.908551e+02
  -5.305563e+02   1.533645e+02
  -4.376219e+02  -2.576821e+02
  -7.727472e+01  -3.694058e+02
   1.347884e+02  -2.109716e+02
   9.045878e+01   1.644376e+01
  -2.296032e+02   6.599437e+01
  -4.023164e+02  -2.413030e+02
  -4.045049e+01  -4.613281e+02
   4.523139e+02  -3.368253e+02
   7.294125e+02   1.508123e+02
   3.655210e+02   4.482647e+02
  -2.680660e+02   2.791930e+02
  -6.294415e+02  -9.024494e+01
  -2.939853e+02  -3.942851e+02
   2.690054e+02  -4.726318e+02
   5.715385e+02  -2.611860e+02
   4.757990e+02   2.527238e+02
   6.677802e+01   4.644932e+02
  -1.691638e+02   2.234226e+02
  -1.166509e+02  -1.369545e+02
   2.339900e+02  -3.251107e+02
   3.657569e+02   2.895526e+01
   1.516593e+02   5.780249e+02
  -3.369292e+02   6.122628e+02
  -4.967754e+02   2.721299e+01
  -2.271981e+02  -4.520189e+02
   1.789938e+02  -2.265591e+02
   3.109767e+02   3.085715e+02
  -2.439364e+01   4.379977e+02
  -4.593597e+02   8.715397e+01
  -5.810730e+02  -3.863713e+02
  -1.805321e+02  -5.448035e+02
   3.811797e+02  -3.317519e+02
   6.315984e+02   6.580582e+01
   4.219407e+02   3.210122e+02
  -1.099664e+02   3.240655e+02
  -4.597901e+02   1.170859e+02
  -2.981184e+02  -1.420677e+02
   5.107838e+01  -1.128894e+02
   1.102195e+02   9.770435e+01
  -1.274960e+02   1.383918e+02
  -2.684873e+02  -6.073397e+01
  -1.406319e+02  -2.533870e+02
   1.534894e+02  -2.147876e+02
   3.580635e+02  -6.587662e+01
   2.361287e+02   1.117985e+02
  -4.341312e+01   2.740970e+02
  -2.796878e+02   3.684123e+02
  -3.301323e+02   1.840917e+02
  -3.224924e+02  -1.627753e+02
  -1.219491e+02  -4.318616e+02
   4.146222e+01  -4.043375e+02
   8.625030e+01  -1.672472e+02
   6.816793e+01  -6.896943e+01
   9.806968e+01  -1.359650e+02
   2.554717e+02  -1.398208e+02
   2.702292e+02   4.495835e+01
   1.258503e+02   2.944932e+02
  -6.427182e+01   2.246108e+02
  -2.603772e+02  -8.594713e+00
  -1.972382e+02  -2.337747e+02
   3.365306e+00  -2.951195e+02
   2.525653e+02  -1.560534e+02
   3.494679e+02   1.505115e+02
   1.883648e+02   3.409334e+02
  -7.090895e+01   3.323594e+02
  -2.488401e+02   1.469202e+02
  -1.893153e+02  -1.492293e+01
  -8.082614e+01   3.115873e+01
  -1.759914e+02   3.661671e+01
  -3.843069e+02  -2.864062e+01
  -3.338284e+02  -2.947366e+02
  -5.580720e+01  -4.989930e+02
   3.775673e+02  -3.947429e+02
   4.873977e+02  -1.703950e+02
   3.034339e+02   1.269390e+02
   2.498803e+01   2.674177e+02
  -9.753277e+01   2.405758e+02
  -4.683275e+01   5.981820e+01
   1.020893e+02  -6.948074e+01
   1.698620e+02   5.776329e+01
   6.277802e+01   1.639696e+02
  -1.319764e+02   1.514261e+02
  -1.517969e+02  -1.123178e+02
   5.396110e+01  -1.572077e+02
   2.166318e+02  -7.692536e+00
   1.810045e+02   3.191966e+02
  -2.833949e+01   3.098879e+02
  -2.781397e+02   1.709948e+02
  -3.734859e+02  -4.853746e+01
  -3.129812e+02  -2.151565e+02
  -8.602138e+01  -2.761968e+02
   1.146168e+02  -1.871164e+02
   1.914752e+02  -4.697262e+01
   7.919523e+01   1.639605e+01
  -2.142522e+01  -6.815200e+01
  -2.433817e+01  -1.459855e+02
   1.231470e+02  -8.101969e+01
   1.913740e+02   1.333218e+01
   3.642191e+01   8.146792e+01
  -8.564407e+01  -5.697415e+01
  -5.033416e+01  -1.142580e+02
   1.074205e+02  -1.462292e+02
   3.243419e+02   9.389452e+00
   2.699748e+02   1.401464e+02
   2.633152e+01   2.625641e+02
  -1.960639e+02   2.381950e+02
  -2.622640e+02   8.402124e+01
  -1.500631e+02  -2.768261e+01
   1.377092e+01  -1.012027e+02
   9.130519e+01  -7.017533e+00
  -4.122047e+01   7.430524e+01
  -2.005882e+02   4.774193e+01
  -2.097825e+02  -1.812054e+02
  -4.036803e+01  -2.496292e+02
   9.571024e+01  -1.568335e+02
   1.560003e+02   3.467860e+01
   7.525740e+01   8.206826e+01
  -8.243288e+00  -1.732592e+01
  -4.531008e+01  -6.426419e+01
   6.350764e+01  -1.406064e+02
   2.325144e+02  -3.677621e+01
   2.211057e+02   1.542366e+02
  -4.984149e+00   2.793779e+02
  -1.392778e+02   2.005058e+02
  -1.982597e+02   5.452157e+01
  -3.639659e+01  -1.091534e+02
   5.162850e+01  -9.946528e+01
   6.691579e+01  -1.840915e+01
   1.482122e+01   3.180512e+01
  -5.544793e+01   4.069947e+00
   6.675109e+00  -2.621424e+01
   1.026154e+02   4.759077e+00
   1.042617e+02   7.810632e+01
   6.016801e+01   1.773992e+02
  -1.247527e+02   1.685593e+02
  -2.746491e+02   3.021237e+01
  -1.934800e+02  -1.700658e+02
  -4.578252e+01  -2.519271e+02
   1.517902e+02  -1.540947e+02
   1.799541e+02   1.635994e+00
   1.062632e+02   7.159694e+01
   2.024419e+01   5.806996e+01
   5.898276e+01  -2.086162e+01
   6.188954e+01   6.095314e+00
   6.712981e+01   4.787674e+01
  -8.376050e+01   6.944830e+01
  -1.430016e+02   6.571212e+01
  -1.128190e+02  -6.842028e+01
   4.980433e+01  -1.478811e+02
   1.320515e+02  -1.021266e+02
   2.435735e+02   5.223746e+01
   1.206702e+02   2.173374e+02
  -1.386426e+02   2.355358e+02
  -3.068605e+02   1.185010e+02
  -2.641851e+02  -5.154222e+01
  -1.126314e+02  -1.790000e+02
   7.773377e+01  -1.477779e+02
   9.533491e+01  -7.210749e+01
   8.358176e+01  -6.541932e+01
   3.167794e+01  -1.034477e+02
   7.776039e+01  -8.787611e+01
   1.276666e+02   2.619421e+01
   1.602831e+02   1.930551e+02
   4.070722e+01   2.920251e+02
  -9.694094e+01   2.196129e+02
  -1.774643e+02   2.442821e+01
  -1.573845e+02  -1.630365e+02
  -1.224605e+01  -1.731177e+02
   3.838454e+01  -9.653038e+01
   1.013703e+02   2.729442e+01
   6.098473e+01   5.582574e+01
  -5.154763e+01   4.098991e+01
   1.494115e+01  -9.243003e+00
   1.051770e+02   2.290211e+01
   5.758207e+01   4.722163e+01
  -8.836501e+01   6.272614e+01
  -2.012379e+02   4.452643e+01
  -1.711524e+02  -7.188793e+01
   1.290602e+00  -1.305950e+02
   1.304661e+02  -8.901765e+01
   1.832534e+02   5.299114e+01
   3.731221e+01   6.567763e+01
  -4.022661e+01   6.212049e+01
  -3.748019e+01   1.188127e+01
  -1.630308e+01  -6.194693e+01
   1.803656e+01  -8.394151e+01
   4.845303e+01   1.155267e+01
   3.914161e+01   6.409151e+01
   5.950817e+01   5.059735e+01
   6.245056e+01   2.172403e+01
   5.046851e+01  -2.020714e+01
   1.327081e+01   7.072418e+01
  -2.672827e+01   1.636994e+02
  -1.703974e+02   1.469232e+02
  -1.743429e+02   3.977659e+01
  -1.581648e+02  -1.175669e+02
   4.467505e+01  -1.103099e+02
   1.300035e+02  -6.174058e+01
   1.004707e+02   3.232770e+01
  -4.416696e+01   3.435261e+01
  -1.619005e+02  -3.217832e+01
  -6.936109e+01  -8.456116e+01
   6.731386e+01  -1.136708e+02
   2.224785e+02  -1.048197e+02
   2.019784e+02   3.968881e+01
   2.545330e+01   8.769515e+01
  -6.448864e+01   8.330359e+01
  -5.353337e+01  -1.461847e+00
   5.674712e+01   1.107399e+01
   1.116853e+02   1.940523e+01
   4.051463e+01   9.868573e+01
  -7.222830e+01   1.894965e+02
  -1.568992e+02   9.592476e+01
  -1.338041e+02  -1.008094e+02
   1.500034e+00  -2.014544e+02
   1.009855e+02  -1.237143e+02
   1.199348e+02  -5.541323e+00
   8.473253e+01   1.182114e+02
   1.527727e+01   1.009726e+02
  -7.116929e+01   1.438897e+01
  -6.145789e+01  -8.579021e+01
  -5.059633e+01  -5.324825e+00
  -4.449350e+01  -1.713426e+00
  -4.355526e+00  -5.645424e+01
  -9.497803e+01  -1.381087e+02
  -2.708744e+01  -1.157113e+02
   1.788361e+01  -5.823480e+01
   1.943536e+02   1.992689e+01
   1.468685e+02   1.006942e+02
   1.341201e+01   6.667709e+01
  -1.299181e+02   6.601363e+01
  -1.354305e+02   3.918559e+01
  -1.641108e+01   9.927112e+00
   3.744141e+01   3.493188e+00
   2.259513e+01  -5.136926e+01
  -1.374772e+01   7.697516e+00
   3.624185e+01   2.190291e+01
   7.497117e+01   2.258309e+01
   1.306954e+02   4.081869e+01
  -3.196813e+00   5.632778e+01
  -1.214754e+02   1.245957e+02
  -1.952951e+02   7.551981e+01
  -1.352381e+02  -6.094714e+01
  -5.120837e+01  -1.754556e+02
   7.407489e+01  -1.915629e+02
   1.485855e+02  -1.005018e+02
   1.052746e+02   3.860484e+01
   5.044738e+00   1.244248e+01
   4.763329e+01   2.313672e+00
   3.971596e+01  -4.298449e+01
   5.162931e+01   7.242661e+01
   1.837658e+00   8.141819e+01
  -3.400142e+01   9.684975e+01
  -5.656419e+01  -4.356829e+01
  -7.027554e+01  -7.700736e+01
  -1.509561e+01  -1.114610e+02
   4.383797e+01  -3.049906e+01
   6.696764e+01   4.930470e+01
   1.021477e+02   7.822615e+01
  -3.213180e+01   4.385925e+01
  -1.009489e+02   1.495391e-01
  -4.242084e+01  -2.215998e+01
   2.377145e+01  -8.159944e+00
   3.408368e+01  -5.639856e+00
  -2.134819e+01   3.047906e+01
  -7.037491e+01  -2.655944e+01
   3.431612e+01  -3.286783e+01
   1.127772e+02  -4.636024e+01
   1.115254e+02  -1.384040e+01
   7.876755e+01   2.337233e+01
  -5.855047e+00   1.338414e+02
  -2.549903e+01   5.741755e+01
  -2.700361e+01   1.044500e+01
   2.568079e+01  -5.329379e+01
  -1.546467e+01  -4.664759e+01
  -7.660614e+00   1.885300e+01
  -1.421294e+01   4.341855e+01
  -7.752980e+00   3.145798e+01
  -7.207422e+01  -7.875963e+01
  -1.375629e+01  -4.204418e+01
   2.821445e+01  -5.732410e+00
  -3.893659e+01   2.819125e+01
  -2.453567e+00  -2.916281e+01
   1.190697e+01  -2.956349e+01
   2.509276e+01  -7.059512e+01
   4.942142e+00  -3.428441e+01
   8.577027e+01   7.757772e+00
  -1.335273e+01   8.695163e+01
  -5.456622e+00   2.350148e+01
  -6.875228e+01  -3.469237e+01
   3.366437e+01  -8.439909e+01
   7.309483e+01  -5.309274e+01
   1.028582e+02   8.590044e+00
   4.664733e+01   6.191350e+01
  -4.554786e+01   6.052010e+01
  -5.401920e+01  -9.206888e+00
  -3.126318e+01  -2.062360e+01
   2.410702e+01   1.950616e+00
  -4.226698e+00   1.347019e+00
  -3.703788e+01  -2.392169e+01
  -8.067218e+01   7.409536e-01
