
 $NMID
 id='ANONYMOUS ', fmtdat='(2E16.6)'
 volume=1.0
 tramp=1.0
 $END
   3.223260e+03   3.561589e+01
   2.132005e+03   1.921253e+03
  -2.352545e+01   2.051755e+03
  -1.259910e+03   1.234397e+03
  -9.351085e+02   2.281844e+02
   2.370719e+01  -2.033836e+02
   5.350353e+02   1.044930e+02
   2.822348e+00   6.911344e+02
  -4.560608e+02   6.832843e+02
  -6.593327e+02   6.816235e+01
  -4.085017e+02  -5.455076e+02
   1.398405e+01  -6.235759e+02
   3.617062e+02  -1.223094e+02
   2.845173e+02   5.480304e+02
  -1.044429e+02   5.126774e+02
  -4.081918e+02   5.745370e+01
  -3.064571e+02  -4.444849e+02
   1.178920e+02  -5.913544e+02
   4.125307e+02  -3.046082e+02
   4.079038e+02   1.800657e+02
   1.377580e+02   3.701112e+02
  -1.597582e+02   2.173816e+02
  -1.020773e+02   5.016242e+01
   2.075323e+02   5.887319e+01
   3.248204e+02   3.374056e+02
   2.458954e+01   4.423717e+02
  -4.495655e+02   2.565476e+02
  -5.724690e+02  -1.584556e+02
  -2.121748e+02  -3.059270e+02
   3.182546e+02  -2.937757e+02
   5.133897e+02   1.816995e+02
   2.000057e+02   3.970553e+02
  -2.940103e+02   4.311627e+02
  -4.830071e+02   1.538586e+02
  -3.647061e+02  -1.377051e+02
  -5.324309e+01  -3.408366e+02
   3.681564e+01  -1.662261e+02
  -5.054659e+01   4.946048e+01
  -1.769057e+02   1.854450e+02
  -2.396260e+02  -1.297847e+02
  -7.564961e+01  -5.103997e+02
   2.515126e+02  -4.928612e+02
   3.715241e+02   5.309784e+00
   1.372645e+02   3.439813e+02
  -1.541761e+02   1.454441e+02
  -1.737564e+02  -2.541927e+02
   6.555786e+01  -3.729379e+02
   4.036037e+02  -7.488493e+01
   4.727021e+02   3.682263e+02
   1.587062e+02   5.150632e+02
  -2.922029e+02   2.747574e+02
  -5.093299e+02  -3.286246e+01
  -3.510967e+02  -2.938610e+02
   5.370870e+01  -2.701776e+02
   3.221174e+02  -6.363217e+01
   2.141995e+02   3.469596e+01
  -2.380618e+01  -8.258264e-01
  -4.337327e+01  -5.145158e+01
   7.871439e+01  -7.402785e+01
   2.404312e+02   4.835968e+01
   1.200095e+02   1.986114e+02
  -1.441928e+02   1.913236e+02
  -3.061651e+02   9.079947e+01
  -2.668665e+02  -1.337531e+02
  -2.013859e+01  -3.477144e+02
   2.731641e+02  -3.568444e+02
   3.528276e+02  -1.496319e+02
   2.565379e+02   1.843112e+02
   6.918382e+01   3.278441e+02
  -4.967429e+01   2.683761e+02
   5.421499e+00   1.266315e+02
  -1.215959e+01   1.143922e+02
  -1.102160e+02   1.285912e+02
  -2.228522e+02   8.916329e+01
  -2.455594e+02  -9.605922e+01
  -1.163495e+02  -2.460136e+02
   1.018895e+02  -1.779758e+02
   2.014422e+02   6.056213e+00
   1.701354e+02   2.448809e+02
  -7.115985e+01   2.993066e+02
  -2.518887e+02   7.046624e+01
  -3.057221e+02  -1.653236e+02
  -1.450811e+02  -2.967211e+02
   9.709031e+01  -2.590678e+02
   1.849388e+02  -1.868029e+02
   1.715018e+02  -9.902879e+01
   1.717081e+02  -5.383950e+01
   2.788436e+02  -2.831723e+01
   4.017892e+02   1.300268e+02
   3.115012e+02   2.993779e+02
   4.265203e+00   4.626005e+02
  -3.961008e+02   4.276569e+02
  -4.785939e+02   1.682155e+02
  -3.085037e+02  -4.694049e+01
  -2.231134e+01  -2.925861e+02
   8.952225e+01  -1.781395e+02
  -4.344902e+01  -4.827542e+01
  -1.205196e+02   1.886817e+01
  -9.941795e+01  -2.405015e+01
   8.302140e+00  -1.692772e+02
   1.065153e+02  -8.297025e+01
   7.422082e+01   1.027080e+02
  -5.648741e+00   1.495247e+02
  -1.885370e+02   1.603309e+00
  -1.526218e+02  -2.588972e+02
   4.629350e+01  -3.574667e+02
   2.494936e+02  -2.380815e+02
   3.850497e+02   3.442989e+01
   3.095776e+02   2.524750e+02
   7.453358e+01   2.652286e+02
  -1.370521e+02   1.587275e+02
  -1.654447e+02   4.895858e+01
  -5.872799e+01   1.438044e+01
   4.230781e+01   9.199536e+01
  -2.092812e+01   1.267902e+02
  -1.187457e+02   8.947428e+01
  -1.149559e+02   3.935721e+00
  -9.516845e+01  -9.204513e+01
   6.139750e+01  -3.014455e+01
   4.672236e+01   8.675968e+01
  -6.145957e+01   7.812209e+01
  -2.737895e+02  -1.151264e+01
  -2.563319e+02  -1.533187e+02
  -6.653994e+01  -2.445243e+02
   1.887313e+02  -2.427231e+02
   2.867252e+02  -1.092969e+02
   1.344791e+02   2.316646e+01
  -2.327803e+01   5.041148e+01
  -3.038248e+01  -3.823628e+01
   7.627401e+01  -4.222344e+01
   1.974287e+02  -1.012937e+01
   1.639390e+02   1.270272e+02
   3.834018e+01   1.826669e+02
  -1.020031e+02   1.554922e+02
  -1.451911e+02  -5.783339e+00
  -3.824295e+01  -4.053589e+01
   2.403576e+01   1.169256e+01
  -1.322678e+01   7.954732e+01
  -1.197255e+02   1.147215e+02
  -1.993558e+02  -1.760162e+01
  -1.661450e+02  -1.393053e+02
   3.554389e+01  -1.728906e+02
   1.806692e+02  -1.214874e+02
   1.818840e+02   8.705699e+00
   5.437732e+01   8.958489e+01
  -7.286855e+01   4.937574e+01
  -5.874878e+01   2.702421e+01
   3.050029e+01  -2.300545e+01
   4.508139e+01  -2.226589e+01
  -5.353521e+00   2.237987e+01
  -8.042710e+01   1.360145e+01
  -1.406473e+02  -8.190368e+01
   3.180493e+00  -1.830950e+02
   1.443579e+02  -1.409890e+02
   2.789198e+02   1.963961e+01
   2.211681e+02   1.502124e+02
   3.127868e+01   2.387251e+02
  -1.338703e+02   1.841421e+02
  -1.136928e+02   5.317338e+01
  -5.977691e+01  -3.711956e+01
  -7.499939e+01  -3.708207e+01
  -4.691786e+01   1.143562e+01
  -6.674347e+01  -9.179967e+00
  -4.190022e+01  -1.862837e+01
   2.489697e+01  -8.331618e+01
   6.828218e+01  -7.208315e+01
   5.415040e+01   3.279255e+01
  -4.977590e+01   1.109420e+02
  -1.573666e+02   6.179867e+01
  -1.993037e+02  -6.822149e+01
  -1.001183e+02  -2.169060e+02
   1.086747e+02  -2.155607e+02
   2.779936e+02  -6.814696e+01
   2.721982e+02   1.253214e+02
   1.341962e+02   1.776276e+02
   2.854251e+00   9.698965e+01
  -9.090108e+01   7.229092e+01
  -5.758950e+01   3.993598e+01
  -6.238170e+01   1.062011e+02
  -1.145987e+02   9.721265e+01
  -1.175058e+02   6.930350e-01
  -1.666155e+02  -1.567721e+02
  -1.080477e+01  -2.041083e+02
   9.684606e+01  -1.303973e+02
   1.664244e+02  -3.391482e+01
   1.283699e+02   1.050748e+02
  -2.220452e+01   1.328736e+02
  -1.216136e+02   6.209528e+01
  -4.075527e+01   8.639872e+00
   9.849421e+00  -4.919017e+01
   4.367878e+01  -5.657108e+01
  -2.950598e+01  -5.626330e+00
  -6.244483e+01   1.473136e+00
  -1.347565e+01  -2.620838e+01
   6.857277e+01  -5.421032e+01
   2.005320e+02  -1.586424e+01
   1.745346e+02   9.693350e+01
   8.482390e+00   1.339917e+02
  -1.429870e+02   8.570801e+01
  -1.733103e+02   1.590695e+01
  -5.642717e+01  -4.419667e+01
   2.197750e+01  -2.215463e+01
   7.295900e+01   5.892834e+00
   1.010957e+01   4.575687e+01
  -6.743673e+01   8.720089e+01
  -3.997082e+01  -3.499183e+01
  -4.506292e+01  -6.332224e+01
  -3.524177e+01  -9.231926e+00
  -3.768453e+01  -1.951626e+01
  -5.479636e+01  -4.131805e+01
  -3.482841e+01  -6.922015e+01
   1.941708e+01  -1.431696e+02
   1.779016e+02  -1.160850e+02
   1.972752e+02  -5.804757e+01
   1.175180e+02   6.289394e+01
   4.098378e+01   1.372660e+02
  -7.615289e+01   8.213463e+01
  -1.999714e+01  -1.437698e+00
   8.982138e+01  -9.364287e-01
   9.151224e+01   6.226006e+01
   7.055944e+01   1.011586e+02
  -9.329514e+01   1.073397e+02
  -1.965713e+02   4.146783e+01
  -1.434179e+02  -3.183831e+01
  -9.387665e+00  -6.415741e+01
   1.051340e+02  -1.172894e+02
   3.328483e+01  -3.189929e+00
  -4.675891e+01   4.042320e+01
  -1.025544e+02  -5.058900e+01
   3.005894e+00  -1.105697e+02
   7.111837e+01  -1.744681e+02
   1.659915e+02  -8.022561e+01
   6.747027e+01   7.704832e+01
   1.075861e+01   1.749285e+02
  -1.123119e+02   1.487867e+02
  -9.648480e+01  -2.880422e+01
  -1.826840e+01  -1.280539e+02
   2.832479e+01  -1.358581e+02
   2.408794e+01  -9.651910e+00
   5.841357e+01  -1.097524e+01
   7.007490e+01  -9.312294e+00
   8.761474e+01  -3.546619e+00
   2.338072e+01   3.900561e+01
   2.439517e+01   1.123205e+02
   2.037033e+01   1.400698e+02
  -2.392355e+01   4.155994e+01
  -1.025348e+02  -2.481095e+01
  -1.368747e+02  -1.093122e+02
   1.137792e+01  -2.339085e+01
   6.326148e+01  -1.957100e+00
   4.524227e+01  -2.317108e+01
  -2.320590e+01  -6.649298e+00
  -7.713693e+01  -3.479976e+01
   6.959676e+00  -1.345385e+01
   3.871750e+01  -3.969353e+00
   2.632165e+01  -3.047801e+01
  -5.431335e+01  -3.584949e+01
  -8.546055e+01  -2.992224e+01
  -9.314784e+00  -1.268059e+02
   1.150715e+02  -1.337512e+02
   2.117446e+02  -1.330579e+01
   1.577108e+02   1.148909e+02
   3.304369e+01   1.673567e+02
  -8.193297e+01   1.775193e+02
  -9.932743e+01   7.140517e+01
  -6.066884e+01   7.509903e+00
  -3.395144e+01  -2.586476e+01
  -6.390586e+00   9.957477e+00
  -2.580124e+01   2.337463e+01
  -9.161601e+01  -6.571984e+01
  -4.743945e+01  -5.978597e+01
   2.697814e+01  -8.782323e+01
   7.011659e+01   1.930130e+01
   9.090867e+01   8.291127e+01
   3.296284e+00   6.843198e+01
  -7.926223e+01   3.566045e+01
  -8.836273e+01  -5.210339e+01
  -4.651313e+01  -9.730657e+01
   9.317178e+01  -8.538251e+01
   1.110701e+02   3.250555e+01
   5.050946e+01   3.430943e+01
  -9.986324e-01   7.810831e+01
  -5.799123e+00   4.838353e+01
   2.221849e+01   1.054325e+01
   6.748573e+01  -1.958502e+01
   1.808837e+01   3.007567e+01
  -5.718507e+01   4.353356e+01
  -9.916903e+01   6.120236e+01
  -4.301783e+01  -4.176288e+01
   1.625839e+01  -3.892871e+01
   3.912824e+01  -3.998273e+01
   5.636112e+01  -5.294242e+01
  -2.482116e+01   4.009008e+01
  -3.772789e+01   1.300505e+01
   2.106111e+01  -7.849422e+00
   1.085273e+01  -4.053998e+01
   1.014452e+01  -3.038387e+01
   7.768514e+01   1.178754e+01
   5.743137e+01   7.129618e+01
  -1.949661e+01  -1.941518e+01
  -1.503469e+01  -2.096389e+01
   1.017017e+01  -6.602046e+00
   1.488042e+01   3.402930e+01
  -1.856258e+01   5.965144e+01
  -1.448014e+01   3.879463e+01
  -7.144864e+01  -1.402192e+01
  -1.527344e+01  -3.035986e+01
   2.064189e+01  -2.627658e+01
   6.420838e+01   6.140831e+00
  -1.760595e+01   7.652505e+01
  -5.297674e+01   2.132056e+01
  -5.519448e+01  -4.359340e+01
  -5.805535e+01  -4.731477e+01
   1.979373e+01  -9.607843e+00
   3.961490e+01   5.976232e+00
   8.018369e+00   6.826913e+00
  -7.369023e+00  -6.139650e+00
  -3.853926e+01   3.686619e+01
   1.835271e+01  -1.799772e+01
   7.422015e+01   1.692193e+01
