
 $NMID
 id='ANONYMOUS ', fmtdat='(2E16.6)'
 volume=1.0
 tramp=1.0
 $END
   3.142053e+03   1.004570e+02
   1.956921e+03   1.548251e+03
  -2.543429e+02   1.901647e+03
  -1.282485e+03   9.417818e+02
  -9.115047e+02  -1.762703e+02
   1.801013e+02  -2.049345e+02
   3.488181e+02   2.631882e+02
  -3.731513e+01   5.920325e+02
  -4.954575e+02   5.250739e+02
  -5.698673e+02  -3.685559e+01
  -3.407319e+02  -4.685079e+02
   1.842933e+01  -6.455107e+02
   3.523909e+02  -1.582489e+02
   2.458021e+02   4.670989e+02
  -1.531892e+02   4.059848e+02
  -3.650594e+02  -4.706832e+01
  -1.845014e+02  -3.859187e+02
   1.755103e+02  -5.906401e+02
   5.025515e+02  -2.268622e+02
   4.120689e+02   2.607973e+02
   4.429192e+01   3.317579e+02
  -1.232964e+02   2.687322e+02
  -9.949557e+01  -9.061934e-01
   2.006514e+02   3.395926e+01
   2.533859e+02   2.154541e+02
   1.089985e+01   3.367564e+02
  -4.844887e+02   2.337545e+02
  -6.350252e+02  -1.575432e+02
  -1.839768e+02  -3.968215e+02
   3.198196e+02  -2.224955e+02
   5.222287e+02   1.362284e+02
   2.326401e+02   3.523843e+02
  -2.483011e+02   3.411674e+02
  -4.468142e+02   9.392463e+01
  -3.010477e+02  -1.202928e+02
  -4.745215e+01  -3.072212e+02
  -3.963182e+00  -1.746895e+02
  -1.271105e+00   8.552809e+01
  -1.509161e+02   1.976389e+02
  -2.314856e+02  -8.948019e+01
  -3.449568e+01  -4.958360e+02
   2.402568e+02  -4.046117e+02
   3.160300e+02  -1.463303e+01
   9.209592e+01   2.951047e+02
  -1.314945e+02   9.811844e+01
  -1.641506e+02  -2.604539e+02
   8.476967e+01  -2.781632e+02
   4.366533e+02  -5.973567e+01
   4.233993e+02   3.228203e+02
   1.286875e+02   4.793433e+02
  -3.042406e+02   2.366437e+02
  -4.860614e+02  -3.165251e+01
  -3.109951e+02  -2.058618e+02
   8.454740e+01  -2.041852e+02
   2.906360e+02  -1.195676e+02
   2.079578e+02   4.877519e+01
   5.002983e+01   5.021873e+01
  -9.627247e+01  -5.086608e+01
   7.858437e+01  -6.298176e+01
   1.971218e+02   8.088532e+00
   7.498738e+01   1.778127e+02
  -1.573663e+02   2.216380e+02
  -2.913532e+02   8.838963e+01
  -3.148439e+02  -1.083971e+02
  -1.132674e+01  -2.734786e+02
   2.678397e+02  -3.019954e+02
   3.623649e+02  -1.452171e+02
   2.317102e+02   1.419515e+02
   3.018492e+01   3.390170e+02
  -8.286354e+01   3.066488e+02
  -1.842107e+01   1.573901e+02
   9.958617e+00   3.127787e+01
  -1.060047e+02   1.079128e+02
  -2.145689e+02   3.708870e+01
  -2.298784e+02  -1.014216e+02
  -5.259128e+01  -2.403349e+02
   1.013002e+02  -1.976063e+02
   2.279116e+02   1.307679e+01
   1.370301e+02   1.887067e+02
  -1.449198e+01   2.452894e+02
  -2.381332e+02   4.715174e+01
  -2.510612e+02  -1.279337e+02
  -1.349843e+02  -2.311700e+02
   8.345217e+01  -2.091890e+02
   1.467885e+02  -1.230788e+02
   7.651062e+01  -6.761435e+01
   1.195383e+02  -9.423343e+01
   2.436604e+02  -6.959017e+01
   3.835975e+02   1.153926e+02
   3.015786e+02   2.943174e+02
   1.544433e+00   3.882297e+02
  -3.657665e+02   3.452392e+02
  -4.176361e+02   1.438112e+02
  -2.589267e+02  -7.486829e+01
  -4.003545e+01  -2.802389e+02
   9.439050e+01  -2.182136e+02
   3.365862e+01  -3.350744e+00
  -1.014093e+02   1.057144e+02
  -7.429885e+01  -5.172658e+00
  -2.684277e+01  -1.238457e+02
   1.437584e+02  -7.441558e+01
   1.384693e+02   3.589262e+01
  -7.236145e-01   1.105869e+02
  -1.218655e+02  -6.720372e-01
  -1.085214e+02  -2.315740e+02
   6.717616e+01  -2.780887e+02
   2.376592e+02  -1.409877e+02
   3.053795e+02   8.808353e+01
   2.245290e+02   2.397992e+02
   7.947489e+01   2.175489e+02
  -1.433093e+02   1.085513e+02
  -1.336947e+02   1.818210e+01
  -7.013843e+00   3.298609e+01
   1.208820e+01   6.343500e+01
   1.413744e+01   8.902472e+01
  -9.259637e+01   5.571015e+01
  -1.467678e+02  -6.166401e+01
  -4.422786e+01  -3.591625e+01
   1.191376e+02   9.126552e+00
   2.549806e+01   7.668336e+01
  -1.407612e+02   6.962684e+01
  -2.955416e+02   1.288732e+01
  -2.381200e+02  -1.634056e+02
  -3.894274e+01  -2.335840e+02
   1.686202e+02  -1.970850e+02
   2.611508e+02  -1.090651e+02
   1.397257e+02   1.796013e+01
  -1.986622e+01   7.588310e+01
  -5.230781e+01   1.871218e+01
   5.037104e+01  -5.332182e+01
   2.007033e+02  -3.959753e+01
   1.758097e+02   6.310055e+01
   5.998590e+01   1.348490e+02
  -7.082748e+01   1.345678e+02
  -1.099994e+02   4.844348e+01
  -5.278348e+01   2.763807e+00
   1.093503e+01   3.493936e+01
   7.701437e+01   6.832036e+01
  -9.060448e+01   7.165984e+01
  -2.353719e+02   2.785436e+01
  -2.017700e+02  -1.058251e+02
  -7.746995e+00  -1.764111e+02
   1.561992e+02  -1.529157e+02
   1.706812e+02  -3.096677e+01
   2.253058e+01   5.011766e+01
  -7.930402e+01   8.261816e+01
  -6.884429e+01   5.070302e+01
   8.047858e+00   1.051348e+01
   3.016744e+01  -1.472828e+01
  -1.122395e+01   1.833165e+00
  -9.916699e+01  -3.298758e+01
  -1.024029e+02  -7.875872e+01
   1.891116e+01  -1.755066e+02
   1.725829e+02  -1.186695e+02
   2.037680e+02  -3.769472e+01
   1.789886e+02   1.525042e+02
   6.241539e+01   2.669381e+02
  -1.059044e+02   1.473290e+02
  -1.045563e+02   1.727551e+01
  -6.468387e+01  -7.687821e+01
  -6.155211e+01  -6.234442e+01
  -8.952585e+00  -3.194296e+01
  -5.032059e+01  -1.321718e+01
  -3.539261e+01  -4.539573e+01
   4.292725e+01  -6.366645e+01
   1.293357e+02  -3.854287e+01
   7.961512e+01   7.301665e+01
   4.685196e+00   1.406889e+02
  -1.525533e+02   1.085571e+02
  -1.462677e+02  -4.786884e+00
  -6.525146e+01  -1.779033e+02
   1.096614e+02  -1.732038e+02
   2.282498e+02  -6.285534e+01
   2.223479e+02   8.767230e+01
   9.941831e+01   1.556657e+02
  -2.764387e+01   1.167375e+02
  -7.066868e+01   9.402923e+01
  -8.265419e+01   3.574282e+01
  -9.516185e+01   7.914442e+01
  -1.013227e+02   9.201884e+01
  -1.186041e+02  -5.492833e+01
  -5.463080e+01  -1.531767e+02
   1.353662e+01  -2.096054e+02
   9.865077e+01  -1.265138e+02
   1.481424e+02   1.869184e+01
   9.688414e+01   1.199980e+02
  -1.794049e+01   1.440011e+02
  -5.248730e+01   8.143536e+01
  -5.400121e+01  -9.535349e+00
   7.568518e+00  -6.367922e+01
  -6.740736e+00  -7.918336e+00
  -3.413773e+01   7.601474e+00
  -7.486078e+01  -9.484781e+00
  -2.897232e+01  -1.872077e+01
   5.780584e+01  -2.652199e+01
   1.654644e+02   2.743972e+01
   1.546419e+02   7.254034e+01
   1.372635e+00   3.067565e+01
  -1.231168e+02   2.290078e+01
  -1.115530e+02   2.651784e+00
  -2.094644e+01  -6.329012e+01
   8.753683e+01  -3.389016e+01
   4.709040e+01   1.968152e+01
  -3.596978e+00   6.624672e+01
  -8.376241e+01   5.492019e+01
  -4.485817e+01  -4.805207e+01
   1.648510e+01  -6.918154e+01
  -1.738287e+01  -4.496112e+01
  -5.444355e+01   1.390838e+01
  -4.009918e+01   4.743209e+00
  -2.479685e+01  -5.339325e+01
   6.630733e+01  -8.872959e+01
   1.441521e+02  -1.022622e+02
   1.249384e+02  -1.102913e+01
   9.306273e+01   9.758136e+01
   1.643618e+01   1.181206e+02
  -8.277446e+01   4.988076e+01
  -4.867975e+01   1.713329e+01
   6.326067e+01  -9.231764e+00
   1.481826e+02   5.029574e+01
   4.162547e+01   6.758958e+01
  -6.258242e+01   1.011507e+02
  -1.471358e+02   5.431657e+01
  -1.227532e+02   1.975755e+00
  -2.545047e+01  -3.348711e+01
   5.509517e+00  -7.814976e+01
   1.297427e+01   1.400189e+01
  -4.063696e+01  -1.002627e+01
  -9.763858e+01  -5.626422e+01
  -2.462831e+01  -9.117104e+01
   6.881066e+01  -1.007940e+02
   1.212731e+02  -2.466571e+01
   8.713202e+01   6.565575e+01
   4.317942e+01   1.473509e+02
  -8.967974e+01   1.285187e+02
  -9.736884e+01   1.998894e+01
  -6.021421e+01  -8.929813e+01
   8.916902e+00  -9.811996e+01
   5.782118e+01  -1.798160e+01
   3.569499e+01   2.150832e+01
   1.922481e+01  -2.012501e+01
  -9.698934e+00  -4.764652e+01
   3.809003e+01   4.266307e+01
   7.736366e+01   9.656081e+01
   1.686848e+01   7.413042e+01
  -2.457405e+01   3.300546e+01
  -1.683936e+02  -2.983820e+01
  -1.206204e+02  -3.866621e+01
  -3.570774e+01  -4.037927e+01
   2.428790e+01  -2.632773e+01
   7.064681e+01  -1.424526e+01
   4.568334e+00   2.752668e+01
  -4.410248e+01   3.563225e+01
   8.746314e+00   1.776471e+01
   1.293801e+01  -8.692494e+00
   8.014555e+00  -4.348504e+01
  -5.123091e+01  -1.666540e+01
  -1.038450e+02   1.916288e+00
  -4.357393e+01  -6.034986e+01
   1.025749e+02  -1.279318e+02
   1.619766e+02  -6.902413e+01
   1.554195e+02   7.573139e+01
   5.131572e+01   1.287916e+02
  -7.437188e+01   1.537988e+02
  -1.009367e+02   9.470556e+01
  -2.874506e+01   1.888590e+00
   7.118571e+00  -3.968132e+01
  -2.057947e+01   2.402375e+01
  -4.866123e+00   3.829506e+01
  -3.387298e+00  -4.128395e+01
  -3.685258e+01  -8.075980e+01
   6.298324e+01  -1.600825e+01
   8.356270e+01   4.409864e+01
   2.756457e+01   8.113227e+01
   1.071330e+01   8.807417e+01
  -7.227438e+01   8.283131e+00
  -1.058624e+02  -8.886863e+01
  -4.406602e+01  -1.230606e+02
   1.311633e+01  -9.108843e+01
   8.125784e+01   2.614553e+01
   4.384381e+01   2.352285e+01
  -4.398103e+01   3.651583e+01
  -1.586523e+01   5.765934e+01
   4.735947e+01  -3.226097e+01
   8.770785e+01  -2.373396e+01
  -1.228842e+01   1.454665e+01
  -9.522175e+01   5.214087e+01
  -1.384005e+02   5.016285e+01
  -8.452242e+01  -3.997827e+01
   1.093237e+01  -6.501703e+01
   8.928574e+01  -6.519673e+01
   1.625197e+01  -3.229288e+01
   1.573449e+01   5.146726e+01
  -8.005840e-01   4.816511e+00
  -3.663525e+01  -2.867402e+01
  -2.906336e+01  -3.296695e+01
  -2.863583e+01  -2.101717e+01
   8.971680e-02   1.184712e+01
   5.666186e+01   7.125592e-01
  -2.844855e+01   2.201305e+01
  -1.074846e+01  -2.159703e+01
   1.077826e+01  -2.718446e+01
  -3.581004e+00   8.702736e+00
   2.157638e+01   2.657753e+01
  -2.368285e+01   3.763297e+01
  -5.018784e+01  -2.410599e+01
  -1.403433e+01  -4.574482e+01
  -1.822404e+01  -4.026801e+00
   4.403438e+01   2.842714e+01
  -3.084128e+01   4.198650e+01
  -3.609639e+01   7.187385e+01
  -2.898612e+01   1.472261e+01
  -1.751316e+01   1.664441e+01
   3.939599e+01  -2.738449e+01
   6.397897e+01   6.871848e+00
   4.951516e+01   2.193240e+00
  -2.586071e+01  -3.037074e+01
  -6.324610e+01   3.383955e+01
   2.905030e+01  -2.401360e+01
   5.112075e+01  -4.606710e+01
