
 $NMID
 id='ANONYMOUS ', fmtdat='(2E16.6)'
 volume=1.0
 tramp=1.0
 $END
   4.477351e+03   6.455474e+01
   2.821278e+03   2.735446e+03
  -6.761974e+02   3.063609e+03
  -2.324992e+03   9.224571e+02
  -9.847596e+02  -7.164503e+02
   7.372644e+02  -7.214596e+02
   9.927526e+02   4.191624e+02
   4.310578e+01   1.106849e+03
  -8.572576e+02   7.816147e+02
  -1.065150e+03  -7.565374e+01
  -5.674882e+02  -9.047440e+02
   1.942953e+02  -9.480677e+02
   6.527619e+02  -1.638338e+02
   3.503950e+02   8.108760e+02
  -2.901230e+02   8.437602e+02
  -6.623453e+02   6.950021e+00
  -3.822618e+02  -7.316320e+02
   2.077507e+02  -7.446270e+02
   5.856817e+02  -1.507775e+02
   4.410348e+02   4.122931e+02
   4.905421e+01   5.043652e+02
  -2.172006e+02   3.313787e+02
  -2.603627e+02   2.810638e+01
   1.588077e+02  -1.195556e+02
   4.078800e+02   9.095371e+01
   2.248131e+02   3.702995e+02
  -5.310907e+02   4.226796e+02
  -9.278393e+02  -4.029346e+01
  -4.146898e+02  -5.718501e+02
   3.290087e+02  -5.685743e+02
   8.286111e+02  -1.867152e+01
   2.953671e+02   5.621913e+02
  -3.712789e+02   5.201685e+02
  -6.236245e+02   2.417048e+02
  -5.131710e+02  -2.640129e+02
  -4.732407e+01  -5.476721e+02
   2.355525e+02  -3.705283e+02
   2.029735e+02   2.069196e+02
  -1.408564e+02   4.558750e+02
  -4.775393e+02   8.867783e+00
  -2.378957e+02  -7.081483e+02
   3.507446e+02  -7.665627e+02
   6.501348e+02  -1.762283e+01
   2.680916e+02   5.925050e+02
  -3.394859e+02   3.390969e+02
  -4.027286e+02  -3.514719e+02
   5.801134e+01  -5.699234e+02
   6.011276e+02  -1.614031e+02
   6.483772e+02   4.040154e+02
   1.623350e+02   6.288886e+02
  -4.073601e+02   3.982583e+02
  -6.706088e+02  -4.912933e+01
  -3.858882e+02  -3.989116e+02
   1.956283e+02  -3.903175e+02
   4.878089e+02  -8.508649e+01
   2.740560e+02   2.045131e+02
  -1.463137e+02   1.031753e+02
  -1.304839e+02  -1.719581e+02
   1.765651e+02  -2.057747e+02
   3.535800e+02   6.476318e+01
   1.667239e+02   3.844366e+02
  -2.158999e+02   2.901972e+02
  -3.645683e+02   7.573771e+01
  -2.422543e+02  -1.036024e+02
   2.368376e+01  -2.030536e+02
   2.195240e+02  -2.996828e+02
   3.710305e+02  -2.162948e+02
   3.096194e+02   1.669021e+02
   7.261122e+01   4.491383e+02
  -1.393129e+02   4.350264e+02
  -1.648565e+02   9.973366e+01
  -6.013738e+01  -5.154937e+01
  -5.309081e+01   7.773510e+01
  -1.498320e+02   1.608129e+02
  -2.699321e+02  -2.976126e+01
  -9.565006e+01  -2.851758e+02
   5.303348e+01  -3.228677e+02
   1.953015e+02  -2.524460e+01
   1.880729e+02   2.559003e+02
  -4.283223e+01   2.801100e+02
  -2.919201e+02   8.854361e+01
  -4.008538e+02  -2.323065e+02
  -2.237624e+02  -4.046747e+02
   1.291397e+02  -3.397006e+02
   2.573656e+02  -1.641061e+02
   1.639299e+02  -4.538122e+01
   7.401333e+01  -7.804381e+01
   1.703502e+02  -7.821797e+01
   4.113721e+02   5.827281e+01
   4.189379e+02   3.001002e+02
   2.783060e+01   4.867232e+02
  -3.827840e+02   4.579514e+02
  -5.357171e+02   1.659449e+02
  -3.578052e+02  -9.509054e+01
  -5.238009e+01  -3.447410e+02
   1.540193e+02  -2.162794e+02
   1.173646e+02  -1.046345e+01
  -1.097507e+02   1.267004e+02
  -1.853012e+02   4.148525e+01
  -1.547678e+01  -1.997688e+02
   1.278529e+02  -1.935423e+02
   1.802244e+02   6.008907e+01
   4.005354e+00   1.941771e+02
  -1.814030e+02   3.725390e+01
  -1.596899e+02  -2.238868e+02
  -2.394925e+00  -3.462422e+02
   2.394951e+02  -2.255756e+02
   3.599967e+02   4.878746e+01
   2.715893e+02   2.259594e+02
   7.585513e+01   2.377951e+02
  -1.333020e+02   1.624626e+02
  -2.127551e+02   1.814889e+01
  -1.040248e+01  -2.235983e+01
   9.950821e+01   2.181596e+01
   7.582466e+01   1.223800e+02
  -1.037171e+02   1.315593e+02
  -2.124281e+02  -6.815583e+00
  -5.610520e+01  -6.975975e+01
   9.140490e+01  -4.798523e+01
   7.480851e+01   8.746739e+01
  -1.344065e+02   9.488687e+01
  -2.752634e+02   3.769853e+01
  -2.928382e+02  -1.414306e+02
  -6.884510e+01  -2.522626e+02
   1.616341e+02  -2.520694e+02
   3.169151e+02  -9.191813e+01
   1.714290e+02   6.919769e+01
  -5.645988e+01   1.335276e+02
  -1.178277e+02   1.358372e+01
  -1.182341e+01  -1.087721e+02
   1.990867e+02  -4.969658e+01
   1.973740e+02   1.034712e+02
   6.366673e+01   2.110160e+02
  -4.942858e+01   1.946456e+02
  -1.730950e+02   4.919235e+01
  -9.039579e+01  -2.582838e+01
   2.704451e+01  -2.527121e+01
   5.447205e+01   1.005960e+02
  -4.271324e+01   1.062448e+02
  -2.247249e+02   2.326294e+01
  -1.712735e+02  -1.145279e+02
   1.611266e+01  -2.246317e+02
   1.706190e+02  -1.723325e+02
   2.077166e+02  -1.498134e+01
   6.098867e+01   6.571227e+01
  -4.957810e+01   1.655163e+02
  -4.645871e+01   2.033303e+01
  -8.331973e+00   4.072491e+00
   4.437239e+01  -6.095122e+01
  -4.963884e+01   4.415269e+01
  -7.424184e+01  -1.756030e+01
  -9.060512e+01  -8.263115e+01
  -1.759305e+01  -1.720537e+02
   1.233419e+02  -1.313925e+02
   2.189500e+02   7.897038e-01
   2.272038e+02   2.133307e+02
   7.831251e+01   2.344028e+02
  -1.308256e+02   1.965187e+02
  -2.091686e+02   3.335106e+01
  -8.504878e+01  -4.744954e+01
  -2.635226e+01  -2.751254e+01
  -6.362012e+01  -1.746324e+01
  -5.756881e+01  -1.507160e+01
  -2.038737e+01  -4.421566e+01
   7.165162e+01  -9.650729e+01
   1.100794e+02   1.891069e+01
   9.363585e+01   6.423040e+01
  -2.439406e+01   1.453168e+02
  -1.273118e+02   9.026724e+01
  -2.309656e+02  -4.122326e+01
  -1.715889e+02  -1.979926e+02
   7.690164e+01  -2.452369e+02
   2.679935e+02  -4.452491e+01
   2.869809e+02   7.750939e+01
   1.427712e+02   1.470160e+02
  -2.841137e+01   1.380967e+02
  -1.068928e+02   8.381415e+01
  -9.393307e+01   5.979793e+01
  -6.023686e+01   8.986629e+01
  -1.028890e+02   6.695413e+01
  -1.265233e+02  -3.805223e+00
  -1.598477e+02  -8.213454e+01
  -4.009054e+01  -2.206228e+02
   1.478333e+02  -1.577404e+02
   1.684753e+02  -3.708592e+01
   1.321126e+02   1.204440e+02
  -2.040911e+01   1.460508e+02
  -7.745828e+01   1.027400e+02
  -7.418978e+01   4.427506e+01
  -4.013718e+01  -1.093926e+01
   1.841101e+01  -6.005814e-01
  -3.678598e+01  -3.611697e+01
  -7.624697e+01  -4.507061e+01
  -5.088020e+01  -3.482497e+01
   3.745944e+01  -2.625009e+01
   1.801919e+02   2.620405e+00
   1.375108e+02   5.106846e+01
   2.867213e+01   8.944989e+01
  -1.420417e+02   3.882441e+01
  -1.581027e+02   2.790391e-01
  -5.247141e+01  -3.989288e+01
   5.069471e+01  -6.804472e+01
   1.155075e+02   1.256941e+01
   7.759332e+00   7.918461e+01
  -6.245153e+01   1.026535e+02
  -3.049893e+01  -5.832530e+01
  -2.565622e+01  -5.604039e+01
  -7.040713e+01   8.632345e+00
  -3.759737e+01   3.839453e+00
  -6.266183e+01   3.911772e-01
  -2.394333e+01  -9.858763e+01
   1.703716e+01  -1.260983e+02
   1.582883e+02  -1.310926e+02
   1.899918e+02  -4.933596e+00
   1.016422e+02   1.277398e+02
   3.582827e+01   1.413226e+02
  -1.132529e+02   8.046963e+01
  -6.088724e+01   1.661689e+01
   4.840617e+01  -2.735439e+00
   1.223350e+02   3.713830e+01
   8.174348e+01   8.831830e+01
  -7.804471e+01   8.367130e+01
  -1.668971e+02   6.725628e+01
  -1.622348e+02  -5.410661e+01
  -2.322092e+01  -7.495222e+01
   5.041326e+01  -8.537210e+01
   7.070306e+01  -1.826009e+01
  -5.251393e+01   5.207994e+01
  -6.077089e+01  -1.664643e+01
  -2.126716e+00  -1.429875e+02
   1.119656e+02  -1.864376e+02
   1.695220e+02  -4.740875e+01
   1.207051e+02   6.923682e+01
   3.404099e+01   2.139810e+02
  -7.986934e+01   1.598066e+02
  -1.210483e+02   3.620036e+01
  -4.329570e+01  -1.205865e+02
   3.726466e+01  -1.058057e+02
   5.895597e+01   1.223970e+01
   4.893652e+01   1.878749e+00
   4.353370e+01  -1.965716e+00
  -3.699992e+01  -2.697464e+01
   6.614036e+00   3.028639e+01
   3.896416e+01   1.071817e+02
   4.563964e+01   1.187855e+02
  -4.332177e+01   6.011327e+01
  -1.509257e+02  -6.308205e+01
  -1.296364e+02  -4.557071e+01
  -3.767459e+01  -5.651345e+01
   8.715596e+01   2.120795e+01
   1.046694e+02   1.621603e+01
   8.462101e+00   1.048328e+01
  -3.011529e+01   4.483922e+01
   7.228624e+00   3.391487e+01
   5.199326e+01   2.299822e+01
   1.721160e+01  -3.138104e+01
  -6.701382e+01   6.511836e+00
  -4.363874e+01  -4.752907e+01
   1.744136e+01  -7.698449e+01
   1.016321e+02  -9.069407e+01
   2.067502e+02  -4.628872e+01
   1.526896e+02   3.272420e+01
   1.473852e+01   1.384171e+02
  -9.623788e+01   1.255516e+02
  -1.152109e+02   7.386136e+01
  -1.380517e+02  -1.731651e+01
   4.799694e-01  -9.848817e+00
   2.697674e+01   7.273742e+00
   1.063858e+01  -1.250496e+00
   1.185661e+01  -3.399562e+01
  -4.621041e+01  -1.042856e+02
   4.834523e+01  -5.334405e+01
   9.888563e+01   5.646828e+01
   8.675932e+01   1.138871e+02
   5.552704e+00   6.918021e+01
  -6.796679e+01  -1.007068e+01
  -1.090561e+02  -6.829054e+01
  -2.079567e+01  -1.552751e+02
   4.388769e+01  -6.304287e+01
   1.353873e+02   2.784134e+01
   3.810850e+01   7.394693e+01
  -2.968251e+01   4.233703e+01
  -2.452950e+01  -1.179749e+01
   2.524975e+01  -1.168958e+01
   9.061471e+01  -1.090243e+01
   3.978240e+01   1.394786e+01
  -5.267347e+01   4.391004e+01
  -7.225006e+01   7.041711e+01
  -4.922758e+01  -2.627192e+01
   3.364248e+01  -7.920940e+01
   6.637107e+01  -3.929227e+01
   6.467601e+01   8.858907e+00
  -2.933452e+01   9.652242e+01
  -3.559786e+01   4.810967e+00
  -6.730525e+01  -3.053625e+01
  -3.747931e+01  -4.663634e+01
  -1.554131e+01  -6.653289e+01
   3.089733e+01   1.951020e+01
   1.523160e+01   4.928350e+01
   2.619570e+01   1.581538e+01
   4.228964e-01   1.947461e+01
  -2.382834e+01   1.315083e+01
  -5.373139e+00   5.742202e+01
   1.873632e+01   5.226794e+01
  -5.089130e+01  -2.054510e+01
  -4.046292e+01  -3.257811e+01
   1.265131e+01  -1.264097e+01
   3.848160e+01  -2.460189e+01
   9.693557e+01   5.763223e+01
   4.052958e+01   7.123693e+01
  -7.985318e+01   3.290834e+01
  -1.010706e+02  -7.949717e+01
  -3.705843e+01  -3.708160e+01
   4.381308e+01  -4.977858e+01
   8.052790e+01  -1.814203e+01
   2.013187e+01   1.866531e+01
  -9.246546e+00   1.152820e+01
  -3.427105e+01  -2.443984e+01
   5.949666e+00  -2.186635e+01
   1.395095e+02   1.152045e+01
