
 $NMID
 id='ANONYMOUS ', fmtdat='(2E16.6)'
 volume=1.0
 tramp=1.0
 $END
  -4.403810e+03   2.648629e+01
  -2.543168e+03  -2.496186e+03
   4.944455e+02  -2.819727e+03
   1.986084e+03  -9.898066e+02
   9.375590e+02   3.579841e+02
  -4.743415e+02   4.927693e+02
  -9.249413e+02  -2.668595e+02
  -2.872932e+01  -1.134913e+03
   7.626461e+02  -8.443283e+02
   9.660796e+02  -3.508396e+01
   5.755683e+02   8.696511e+02
  -2.026252e+02   8.850990e+02
  -6.297757e+02   8.506007e+01
  -3.973104e+02  -7.595419e+02
   2.808053e+02  -7.941191e+02
   7.214640e+02  -1.958845e+01
   3.347410e+02   6.777221e+02
  -2.803749e+02   7.324472e+02
  -5.440489e+02   6.860389e+01
  -3.685620e+02  -3.273970e+02
  -1.859395e+01  -4.435350e+02
   2.203147e+02  -1.949280e+02
   2.053079e+02  -4.745650e+01
  -1.916963e+01   2.404318e+01
  -3.828587e+02  -1.535991e+02
  -1.612579e+02  -4.559487e+02
   4.933891e+02  -3.710085e+02
   8.303336e+02   1.299182e+02
   3.762521e+02   5.087331e+02
  -3.987297e+02   4.603926e+02
  -6.913407e+02  -3.338431e+01
  -3.364308e+02  -4.491612e+02
   2.523808e+02  -5.757945e+02
   5.654960e+02  -2.077701e+02
   4.634967e+02   2.074882e+02
   1.233344e+02   5.083558e+02
  -1.977292e+02   3.530178e+02
  -2.406735e+02  -2.048481e+02
   1.440290e+02  -4.538902e+02
   4.238047e+02  -3.482037e+00
   3.164182e+02   6.996744e+02
  -2.857471e+02   7.096103e+02
  -6.402409e+02  -2.858245e-01
  -2.596289e+02  -5.666203e+02
   3.187235e+02  -3.488243e+02
   3.576777e+02   2.980297e+02
  -8.153881e+01   5.124284e+02
  -5.454149e+02   2.016425e+02
  -5.995495e+02  -4.295126e+02
  -1.828215e+02  -5.952871e+02
   3.218427e+02  -3.411614e+02
   6.029825e+02   7.113256e+01
   3.951801e+02   3.732478e+02
  -1.369146e+02   3.935445e+02
  -5.176494e+02   1.031361e+02
  -2.786954e+02  -2.157287e+02
   1.128948e+02  -1.019510e+02
   1.625408e+02   1.161601e+02
  -1.664075e+02   1.897105e+02
  -3.657993e+02  -3.387567e+01
  -1.792665e+02  -2.870798e+02
   2.010282e+02  -2.957028e+02
   3.478364e+02  -9.780045e+01
   1.792225e+02   1.148943e+02
  -6.111360e+01   2.721194e+02
  -2.368721e+02   3.715050e+02
  -3.729556e+02   2.113260e+02
  -2.824654e+02  -2.075212e+02
  -1.131359e+02  -4.868215e+02
   1.376009e+02  -4.221596e+02
   1.405782e+02  -1.478947e+02
   6.281268e+01   1.092387e+01
   8.192615e+01  -8.839729e+01
   2.083980e+02  -1.230594e+02
   3.077194e+02   2.278540e+01
   1.841347e+02   2.216439e+02
  -7.131939e+01   2.618424e+02
  -2.406688e+02  -9.832387e+00
  -2.061164e+02  -2.407093e+02
   5.181887e+01  -3.118856e+02
   2.815948e+02  -1.226531e+02
   3.686439e+02   1.540566e+02
   1.978815e+02   3.783195e+02
  -9.581680e+01   3.103380e+02
  -2.380039e+02   9.507065e+01
  -1.738425e+02   1.311907e+01
  -8.198859e+01  -1.591192e+00
  -2.237145e+02   2.851867e+01
  -4.768296e+02  -9.015722e+01
  -3.141291e+02  -3.170096e+02
   1.197785e+01  -4.933016e+02
   3.959418e+02  -4.266749e+02
   5.119769e+02  -1.688361e+02
   2.836849e+02   6.718439e+01
   3.711855e+01   2.609871e+02
  -8.677589e+01   2.465659e+02
  -4.939802e+01   3.890217e+01
   1.337277e+02  -1.153871e+02
   1.863115e+02  -1.532980e+01
   9.875518e+01   2.384621e+02
  -1.555187e+02   2.038446e+02
  -1.543680e+02  -5.820351e+01
   2.226245e+01  -1.924311e+02
   1.806278e+02  -7.556649e+00
   1.503016e+02   2.545332e+02
  -1.443034e+01   3.581172e+02
  -2.448347e+02   2.224413e+02
  -3.541217e+02  -7.217395e+01
  -2.809173e+02  -2.524422e+02
  -6.290383e+01  -2.263937e+02
   1.092660e+02  -1.416065e+02
   1.982938e+02  -5.415872e+01
   6.238449e+01   5.801838e+01
  -4.015480e+01  -3.834797e+01
   4.514481e+00  -1.345010e+02
   1.514570e+02  -1.009096e+02
   1.749746e+02   2.560064e+01
   7.176056e+01   1.008952e+01
  -4.530807e+01   4.404930e+01
  -2.500917e-01  -5.380000e+01
   1.395422e+02  -7.753690e+01
   3.052485e+02  -2.556437e+01
   2.189613e+02   1.627882e+02
   5.417442e+01   2.536502e+02
  -2.140216e+02   2.407124e+02
  -2.583425e+02   1.183952e+02
  -1.677754e+02  -5.027708e+01
   2.178017e+01  -1.449485e+02
   7.157840e+01  -3.699243e+01
   9.335722e+00   1.383903e+02
  -1.747953e+02   6.170548e+01
  -2.012893e+02  -7.614387e+01
  -9.142038e+01  -1.748801e+02
   8.151147e+01  -2.159251e+02
   1.063536e+02  -3.480839e+01
   6.324383e+01   1.235150e+01
  -2.750016e+01  -3.275406e+01
  -9.253664e+00  -1.242371e+02
   4.279629e+01  -8.814695e+01
   1.762609e+02  -8.074943e+00
   1.530762e+02   1.109942e+02
   3.884474e+01   1.906592e+02
  -1.585172e+02   2.048736e+02
  -2.164553e+02   6.955373e+01
  -7.151061e+01  -1.052722e+02
   3.213055e+01  -1.108059e+02
   7.691198e+01  -7.129233e+01
   7.968659e+00   2.758407e+01
   4.502480e+00   2.791852e+01
   2.439748e+01  -2.725226e+01
   6.395478e+01  -1.049971e+01
   7.038281e+01   6.552318e+01
  -1.120816e+01   1.702354e+02
  -1.233971e+02   1.204987e+02
  -2.138334e+02   1.345909e+01
  -1.733996e+02  -1.573447e+02
  -6.157457e+01  -2.373293e+02
   7.592367e+01  -1.501058e+02
   1.158541e+02  -2.623564e+01
   6.807175e+01   7.002878e+01
   4.661621e+01   1.116387e+01
   4.862699e+01  -5.353151e+01
   5.082316e+01  -1.275564e+01
   3.547784e+01   3.087233e+01
  -3.198522e+01   3.216201e+01
  -5.793960e+01   7.506326e+01
  -4.297961e+01  -4.441298e+01
  -2.091505e+01  -1.265624e+02
   1.387230e+02  -9.930290e+01
   1.995879e+02   6.927130e+01
   5.924109e+01   2.095222e+02
  -1.338387e+02   1.936536e+02
  -3.157780e+02   7.792999e+01
  -2.529313e+02  -5.000494e+01
  -1.277759e+02  -2.216264e+02
   4.947672e+01  -1.793858e+02
   6.039947e+01  -1.070147e+02
   1.099770e+02  -7.527397e+01
   4.218957e+01  -1.079671e+02
   9.043891e+01  -5.375813e+01
   1.233863e+02  -2.744652e+00
   8.880855e+01   1.340317e+02
   4.129979e+01   2.574552e+02
  -6.690504e+01   1.906047e+02
  -1.795455e+02   2.046570e+01
  -1.325501e+02  -1.620456e+02
  -5.702303e+01  -1.070552e+02
   6.664934e+01  -1.049637e+02
   9.431815e+01   5.430206e+00
  -1.065917e+01   4.284279e+01
  -6.528445e+00   8.148758e+01
   2.589549e+01  -2.235533e+01
   7.213696e+01  -3.019230e+01
   5.732069e+01   2.368290e+01
  -8.860194e+01   1.833457e+01
  -2.156087e+02   1.770632e+01
  -1.344820e+02  -4.161338e+01
  -3.320064e+01  -6.076924e+01
   1.421762e+02  -5.818088e+01
   1.405267e+02   1.591412e+01
   1.217522e+01   3.351262e+01
  -7.098394e+01   1.313415e+01
  -4.613515e+01  -7.392611e+01
   2.460522e+01  -9.811272e+01
   6.792233e+01  -4.121403e+01
   7.812552e+01   1.692463e+00
   5.096816e+01   8.349684e+01
   1.839402e+01   7.672273e+01
   6.738751e+01  -3.395778e+00
   1.730789e+01  -2.482485e+01
   2.060969e+01   3.972135e+01
  -5.027810e+01   1.372705e+02
  -6.422104e+01   2.017256e+02
  -1.645912e+02   6.653561e+01
  -1.266398e+02  -7.819519e+01
   1.601754e+01  -1.536534e+02
   1.117886e+02  -5.211862e+01
   6.464522e+01   3.323828e+00
  -6.538653e+01   2.103130e+01
  -1.371594e+02  -6.355483e+01
  -1.227018e+02  -1.060211e+02
   5.235527e+01  -1.225371e+02
   1.837359e+02  -7.599783e+01
   1.360243e+02   1.582306e+00
   9.134015e+01   7.443438e+01
  -4.407354e+01   1.024542e+02
  -6.953929e+01   6.997204e+01
  -2.268231e+01  -2.719444e+01
   7.299315e+01   5.029461e+01
   6.300117e+01   1.343348e+02
  -9.580076e+01   1.419417e+02
  -1.726989e+02   4.299234e+01
  -1.318348e+02  -1.283952e+02
  -1.176310e+01  -2.034607e+02
   7.076511e+01  -1.522357e+02
   6.491021e+01  -1.504355e+01
   6.923308e+01   7.447098e+01
  -5.763294e+00   1.104347e+02
  -5.122204e+01  -1.599247e+01
  -5.307502e+01  -5.909259e+01
  -3.232304e+01  -3.564902e+00
  -1.193705e+01   1.578025e+01
  -1.575439e+01   2.129034e+01
  -7.705439e+01  -8.059773e+01
  -6.079019e+01  -1.102245e+02
   5.228550e+01  -9.344263e+00
   1.668669e+02   3.775550e+01
   1.350033e+02   8.308926e+01
  -3.359590e+01   1.989270e+01
  -6.721486e+01  -4.278558e+00
  -7.160767e+01  -2.901014e+00
   4.639546e+00  -1.762456e+01
   3.675501e+01  -5.274772e+01
  -1.695239e+01   5.434925e+01
  -5.104234e+01   3.098147e+01
  -2.260736e+01   9.904835e+00
   5.320549e+01  -5.337481e+00
   9.800494e+01  -1.214140e+01
  -9.129052e+00   5.358530e+01
  -1.091606e+02   1.167281e+02
  -1.672042e+02   4.720494e+01
  -1.786581e+02  -8.205919e+01
  -9.423930e+00  -2.094274e+02
   1.186568e+02  -1.514672e+02
   1.297485e+02  -1.117325e+02
   8.894443e+01   2.403341e+01
   5.547101e+01   1.364935e+01
  -2.991278e+01   4.503977e+01
  -1.900538e+01   7.115223e+00
   3.699537e+01   2.395604e+01
  -2.538873e+01   9.635308e+01
  -3.342276e+01   5.942309e+01
  -7.797369e+01  -1.455813e+01
  -5.664373e+01  -9.833650e+01
  -6.070214e+01  -1.179319e+02
   2.414396e+01  -3.337382e+01
   5.285247e+01   7.298521e+01
   7.101627e+00   5.466591e+01
  -4.332630e+01   3.937210e+01
  -1.080388e+02  -3.841350e+01
  -1.076669e+01  -4.507378e+01
   6.077108e+01  -4.650703e+01
   5.847511e+01  -1.967715e+01
  -3.766118e+01   9.438747e+00
  -7.676949e+01  -2.889873e+00
   9.176296e+00   8.126950e+00
   1.156588e+02  -3.760210e+01
   1.353957e+02  -2.796128e+01
   5.932464e+01   3.472098e+01
  -1.957731e+01   9.150675e+01
  -5.674466e+01   5.014370e+01
  -3.431167e+01   3.498639e+01
   8.467090e+00  -5.068068e+01
   1.668975e+01  -4.499051e+01
   7.876190e+01   5.919214e+01
   5.764869e+01   7.783099e+01
   2.687502e+00   3.074697e+01
  -6.830696e+01   2.282038e+01
  -5.334548e+01  -3.086337e+01
  -3.655685e+01  -1.939838e+01
   1.437815e+01  -3.582591e+00
   2.233907e+01  -3.316031e+01
   3.275077e+01  -8.500051e+01
   2.890454e+01  -3.920990e+01
   5.937798e+01  -9.973137e+00
  -1.618064e+00   5.202099e+01
  -1.628939e+01   6.377320e+01
  -3.599494e+01   2.547855e+01
  -1.171486e+02  -4.145801e+01
   1.899783e+01  -6.735783e+01
   6.388547e+01  -2.300184e+01
   1.088762e+02   2.378724e+01
   6.047275e+01   1.613923e+01
  -5.071796e+01   3.389297e+00
  -5.392431e+01   2.998078e+01
  -1.956349e+01   1.885375e+01
   4.765041e+01  -1.305927e+00
   1.139247e+01   3.338557e+01
  -1.937225e+01   6.002219e+01
  -6.603819e+01  -2.115406e+01
