
 $NMID
 id='ANONYMOUS ', fmtdat='(2E16.6)'
 volume=1.0
 tramp=1.0
 $END
   3.976596e+03  -8.359438e+01
   2.539574e+03   2.263499e+03
  -6.651031e+02   2.465098e+03
  -1.904448e+03   9.618850e+02
  -8.746280e+02  -3.267355e+02
   4.670067e+02  -5.094453e+02
   7.591762e+02   2.131219e+02
  -1.729929e+01   8.761414e+02
  -7.128610e+02   8.857678e+02
  -8.550332e+02  -7.667671e+01
  -4.805967e+02  -7.896810e+02
   1.663859e+02  -8.410434e+02
   5.874983e+02  -1.859874e+02
   3.620262e+02   6.430476e+02
  -1.401474e+02   6.280482e+02
  -5.264866e+02   7.412865e+01
  -2.806245e+02  -6.288513e+02
   2.851841e+02  -6.272788e+02
   5.527637e+02  -1.642654e+02
   4.483169e+02   3.743935e+02
   7.534715e+01   5.456442e+02
  -2.179171e+02   2.167724e+02
  -1.061561e+02   7.989314e+01
   1.208669e+02   1.540200e+01
   2.626752e+02   2.034899e+02
   6.286382e+01   3.808978e+02
  -4.908255e+02   3.204755e+02
  -7.554105e+02  -1.306843e+02
  -4.165611e+02  -4.579842e+02
   3.589450e+02  -3.232516e+02
   6.445543e+02   6.406685e+01
   3.121188e+02   3.590704e+02
  -3.089387e+02   4.474532e+02
  -5.425618e+02   1.780337e+02
  -3.895018e+02  -2.167055e+02
  -9.178964e+01  -4.511067e+02
   1.346964e+02  -2.928220e+02
   4.493932e+01   7.926649e+01
  -1.366328e+02   3.350271e+02
  -2.988032e+02  -8.695357e+01
  -9.226524e+01  -6.739942e+02
   3.268820e+02  -5.892149e+02
   4.967566e+02   8.905461e+00
   1.820233e+02   4.165891e+02
  -2.195655e+02   2.378590e+02
  -2.787101e+02  -3.323111e+02
   8.713062e+01  -5.088508e+02
   5.584766e+02  -1.566823e+02
   5.549349e+02   3.354512e+02
   2.004731e+02   5.725104e+02
  -3.261345e+02   3.570328e+02
  -6.280343e+02  -1.324627e+01
  -3.576945e+02  -3.497532e+02
   1.069634e+02  -3.365519e+02
   4.055216e+02  -6.911969e+01
   2.414997e+02   1.385202e+02
  -8.636385e+01   1.227993e+02
  -8.766525e+01  -1.009781e+02
   1.706640e+02  -2.052611e+02
   3.578640e+02   8.916243e+01
   1.530985e+02   2.644955e+02
  -1.792159e+02   2.655658e+02
  -3.117270e+02   3.035433e+01
  -2.400389e+02  -1.361587e+02
   4.810254e+01  -1.700814e+02
   2.380867e+02  -2.808061e+02
   3.143692e+02  -1.935048e+02
   2.145442e+02   6.321330e+01
   7.756892e+01   3.467497e+02
  -7.477638e+01   3.695237e+02
  -8.240464e+01   1.542474e+02
  -7.522435e+01   5.769729e+01
  -1.189723e+02   1.215966e+02
  -2.398079e+02   8.805562e+01
  -2.933248e+02  -1.257292e+02
  -9.589220e+01  -2.646806e+02
   1.438560e+02  -2.324941e+02
   2.282213e+02   1.728154e+01
   1.679294e+02   2.613489e+02
  -5.061788e+01   2.704419e+02
  -2.954302e+02   8.120289e+01
  -3.284206e+02  -2.311419e+02
  -1.730605e+02  -3.400314e+02
   1.241897e+02  -2.534844e+02
   2.150810e+02  -1.190548e+02
   1.304317e+02  -1.788898e+01
   1.446335e+02  -8.120717e+01
   2.830012e+02  -1.066438e+02
   4.122571e+02   1.081962e+02
   3.130217e+02   2.848326e+02
  -4.582952e+01   4.466813e+02
  -3.989684e+02   4.062779e+02
  -4.797434e+02   1.689933e+02
  -2.965065e+02  -9.818782e+01
   8.049483e+00  -2.813087e+02
   1.114288e+02  -2.742736e+02
   4.143242e+01  -7.196132e+01
  -1.310240e+02   8.561258e+01
  -1.784731e+02  -3.634160e+01
  -3.209982e+01  -1.270875e+02
   1.882016e+02  -8.721775e+01
   1.955395e+02   9.913857e+01
  -4.171428e+01   2.002420e+02
  -2.013568e+02   1.908730e+01
  -1.729649e+02  -2.514420e+02
   4.123993e+01  -3.715158e+02
   2.634560e+02  -2.069970e+02
   3.373211e+02   6.803685e+01
   2.664513e+02   2.755583e+02
   9.907864e+01   3.140162e+02
  -1.476474e+02   1.626772e+02
  -1.515550e+02   2.972667e+01
  -1.097670e+02  -9.749513e+00
   4.472965e+01   2.669183e+00
   1.043650e+01   6.731440e+01
  -1.191525e+02   7.373861e+01
  -1.588400e+02  -1.467775e+01
  -5.730904e+01  -1.950308e+01
   1.115369e+02   3.091324e+01
   2.526924e+01   9.672109e+01
  -1.183790e+02   1.143150e+02
  -3.153037e+02  -1.016553e+01
  -2.730278e+02  -1.634900e+02
  -3.607443e+01  -2.171414e+02
   2.094356e+02  -2.250268e+02
   3.029986e+02  -7.309659e+01
   1.460924e+02   4.397260e+01
  -4.860220e+01   5.856833e+01
  -7.514938e+01   2.152736e+01
   4.033875e+01  -8.216459e+01
   2.026793e+02  -6.530692e+01
   2.122339e+02   5.871548e+01
   5.302981e+01   1.504872e+02
  -7.702007e+01   1.740241e+02
  -1.373013e+02   1.604066e+01
  -5.616427e+01  -3.804922e+01
  -9.412791e+00   2.806418e+01
  -1.750176e+00   1.066828e+02
  -9.590732e+01   1.474864e+02
  -2.147319e+02  -1.161464e-03
  -1.759570e+02  -9.856523e+01
  -8.607251e-01  -2.053430e+02
   1.931169e+02  -1.981604e+02
   2.104454e+02  -5.260925e+01
   2.828113e+01   1.040023e+02
  -9.497349e+01   1.041690e+02
  -5.493950e+01   4.273497e+01
   1.431169e+01   1.133153e+01
   9.608287e+01  -3.724831e+01
  -1.287058e+01  -8.680301e+00
  -4.892493e+01   6.313576e+00
  -4.825895e+01  -1.186949e+02
  -5.465017e+00  -1.383642e+02
   1.284765e+02  -1.529398e+02
   2.472281e+02  -3.605726e+00
   2.108492e+02   1.317177e+02
   7.812890e+01   2.548761e+02
  -1.224369e+02   1.922661e+02
  -1.234326e+02   3.376726e+01
  -5.636778e+01  -5.707171e+01
  -2.793464e+01  -4.642093e+01
  -5.198460e+01   4.898685e+01
  -4.839220e+01  -1.847010e+01
  -5.076180e+01  -6.771483e+01
   7.844353e+01  -7.065390e+01
   9.239235e+01   2.188785e+01
   3.649223e+01   9.865043e+01
  -2.759011e+01   1.731913e+02
  -1.754220e+02   7.966082e+01
  -1.832891e+02  -1.311732e+02
  -1.328541e+02  -2.139260e+02
   1.228882e+02  -2.003318e+02
   2.425002e+02  -5.416103e+01
   2.562647e+02   7.558401e+01
   1.061266e+02   1.581906e+02
  -6.830393e+01   1.397778e+02
  -6.765840e+01   7.999916e+01
  -8.299737e+01   1.163789e+02
  -4.585185e+01   1.423093e+02
  -1.026360e+02   8.823121e+01
  -1.714474e+02  -5.425917e+00
  -1.128698e+02  -1.441506e+02
  -5.003613e+01  -2.049772e+02
   9.662578e+01  -1.785973e+02
   2.017578e+02  -3.558314e+01
   1.085546e+02   1.245910e+02
   7.720236e+00   1.213457e+02
  -8.048220e+01   5.309456e+01
  -4.771133e+01  -6.087548e+00
   6.437017e+01  -2.314345e+01
   2.961124e+00  -1.039185e+01
  -4.377365e+01  -1.495781e+01
  -1.111198e+02  -5.786735e+01
  -1.784271e+01  -6.509438e+01
   6.204931e+01  -4.630386e+01
   1.580230e+02   9.184927e+00
   1.238250e+02   1.012179e+02
  -3.762087e+00   7.999590e+01
  -1.592024e+02   5.300895e+01
  -1.615330e+02   2.766422e+01
  -2.569503e+01  -5.515282e+01
   7.706835e+01  -4.022324e+01
   8.907984e+01   3.210013e+01
  -1.941161e+01   8.319844e+01
  -5.499136e+01   8.038608e+01
  -9.861650e+01  -1.161332e+01
  -4.140002e+01  -3.800772e+01
   2.174169e+00  -6.566523e+01
  -1.263449e+01  -4.148748e+01
  -5.986532e+01  -3.206790e+00
  -1.048609e+01  -1.158249e+02
   2.443155e+01  -1.456811e+02
   1.049027e+02  -9.952735e+01
   1.829389e+02   1.698501e+01
   1.331273e+02   6.043949e+01
  -5.499857e+00   1.449997e+02
  -7.208962e+01   5.476083e+01
  -1.155700e+02  -2.358645e+00
   6.325950e+01  -2.167413e+01
   1.369135e+02   4.805600e+01
   5.892946e+01   8.934611e+01
  -6.590354e+01   7.620694e+01
  -1.788795e+02   6.587473e+01
  -1.498391e+02  -2.329393e+01
  -1.734858e+01  -8.105929e+01
   1.954540e+01  -6.490667e+01
   4.674367e+01  -9.672538e+00
  -3.912705e+01   1.123556e+01
  -1.129900e+02  -1.869387e+01
  -2.476893e+01  -9.781992e+01
   1.133541e+02  -1.489981e+02
   1.816854e+02  -4.775723e+01
   1.167555e+02   1.452204e+02
  -1.834072e+01   2.363265e+02
  -6.670390e+01   1.732391e+02
  -8.491662e+01   2.815897e+01
  -6.443909e+01  -8.251282e+01
   2.259233e+01  -9.265887e+01
   5.455085e+01  -2.569935e+01
   7.272452e+01   6.444684e+00
   2.916331e+01  -1.748825e+01
  -7.835226e+00  -7.530476e+01
   5.598464e+00   1.517967e+01
   7.909160e+01   1.547592e+02
   3.386817e+01   8.734248e+01
  -5.106452e+01   6.517624e+01
  -1.859231e+02  -6.138285e+01
  -1.449881e+02  -7.022714e+01
  -2.878591e+01  -5.609933e+01
   1.033013e+02  -6.383506e+01
   7.898576e+01  -2.623761e+00
  -8.474605e+00   7.789557e-01
  -6.628905e+01   5.995018e+01
  -2.328678e+01   1.452413e+00
   2.815218e+01   3.549568e+01
   1.280316e+01   2.864341e+00
  -8.989331e+01   1.180803e+01
  -1.163728e+02  -1.634002e-01
   2.194896e+01  -8.513847e+01
   9.431348e+01  -1.500353e+02
   1.972262e+02  -8.771446e+01
   1.492786e+02   7.185454e+01
  -1.320669e+00   1.505145e+02
  -4.733693e+01   1.532064e+02
  -9.125872e+01   8.063960e+01
  -9.372369e+01  -4.956574e+01
   3.594314e+01  -5.553393e+01
   4.023063e+00   3.912343e+01
   6.732519e+00   2.087506e+01
  -4.556976e+01  -1.471201e+01
  -6.362873e+01  -1.500433e+02
   7.135227e+00  -1.081602e+02
   9.911646e+01   1.457088e+01
   1.116359e+02   1.181238e+02
   3.673528e+01   1.388308e+02
  -7.657327e+01   5.329699e+01
  -1.136330e+02  -7.417807e+01
  -5.911028e+01  -1.024668e+02
   5.253683e+01  -6.432116e+01
   1.101654e+02  -1.172059e+01
   3.979541e+01   5.123935e+01
  -6.862632e+01   5.278493e+01
  -2.030954e+01   3.099609e+01
   2.931242e+01  -1.610185e+01
   7.878371e+01  -2.279214e+01
   4.486321e+01   5.132225e+01
  -6.677915e+01   7.029296e+01
  -1.141767e+02   6.360850e+01
  -1.003482e+02  -2.842106e+01
   2.894749e+01  -1.269618e+02
   6.058109e+01  -1.078096e+02
   5.176553e+01  -5.095815e+01
   7.660464e+00   7.805760e+01
  -2.281173e+01   1.050942e+02
  -2.094902e+01  -2.165952e+01
   1.679277e+01  -8.174858e+01
  -6.291649e+00  -2.658362e+01
   3.550844e+01   3.376462e+01
   5.727483e+01   4.093900e+01
   1.430633e+01   2.838177e+01
   1.639063e+00  -2.735862e+01
  -3.349331e+01   9.923984e+00
  -2.310395e+01   4.257456e+01
  -1.821057e+01   5.609549e+01
  -3.667779e+01   3.120264e-01
  -1.693384e+01  -6.206388e+01
  -3.561243e+01  -3.471546e+01
   3.629754e+01  -3.051300e+00
   5.361669e+01   6.483592e+01
  -2.086389e+01   3.389692e+01
  -8.217489e+01   4.769096e+00
  -1.136033e+02  -2.785017e+01
  -4.395122e+01  -5.586238e+01
   9.278656e+01  -2.859817e+01
   8.938011e+01  -2.342874e+01
   4.617582e+01  -7.141678e+00
   3.743157e+01   1.702023e+00
  -4.870031e+01  -1.701208e+01
  -2.846980e+00  -2.142338e+01
   7.598401e+01  -2.302654e-01
