
 $NMID
 id='ANONYMOUS ', fmtdat='(2E16.6)'
 volume=1.0
 tramp=1.0
 $END
  -4.105649e+03  -1.120370e+02
  -2.356487e+03  -2.339160e+03
   4.713084e+02  -2.488178e+03
   2.004200e+03  -9.818494e+02
   9.906920e+02   6.307582e+02
  -5.465360e+02   5.485779e+02
  -6.756167e+02  -4.423924e+02
   4.360028e+01  -9.675875e+02
   7.848671e+02  -7.078032e+02
   9.019058e+02   9.534550e+01
   4.851904e+02   8.146429e+02
  -1.813034e+02   9.023613e+02
  -4.962926e+02   1.173718e+02
  -3.115908e+02  -5.609643e+02
   1.783635e+02  -5.818786e+02
   5.159811e+02   1.495043e+01
   2.710588e+02   6.810341e+02
  -2.491775e+02   7.503025e+02
  -5.918549e+02   1.520047e+02
  -3.912278e+02  -2.915821e+02
  -7.416732e+01  -4.819823e+02
   1.865075e+02  -3.359743e+02
   1.729659e+02  -1.127110e+01
  -1.652676e+02   4.537420e+01
  -3.530839e+02  -1.731419e+02
  -1.235492e+02  -4.102689e+02
   4.646906e+02  -2.572535e+02
   7.268254e+02   6.051892e+01
   3.637143e+02   5.216278e+02
  -3.559956e+02   3.963480e+02
  -6.377823e+02  -2.063276e+01
  -3.051983e+02  -4.294470e+02
   2.597593e+02  -4.239788e+02
   4.718394e+02  -1.805386e+02
   3.534238e+02   2.088869e+02
   9.167254e+01   3.603112e+02
  -1.440737e+02   2.545490e+02
  -8.652960e+01  -1.965558e+02
   1.328270e+02  -2.855295e+02
   3.442858e+02   1.123568e+02
   1.756275e+02   5.980544e+02
  -3.414672e+02   5.754081e+02
  -5.304699e+02   1.733106e+00
  -1.721351e+02  -4.613039e+02
   2.446759e+02  -2.765044e+02
   2.960969e+02   3.165123e+02
  -5.399069e+01   4.399643e+02
  -4.971802e+02   6.474582e+01
  -5.146680e+02  -3.862595e+02
  -1.127766e+02  -5.150851e+02
   3.833426e+02  -2.825630e+02
   5.778379e+02   9.545753e+01
   2.971139e+02   3.562950e+02
  -1.499932e+02   2.927073e+02
  -4.186224e+02   4.650025e+01
  -2.225191e+02  -1.176310e+02
   7.208400e+01  -6.766859e+01
   5.738899e+01   1.156106e+02
  -1.862129e+02   1.342457e+02
  -3.248968e+02  -1.195659e+02
  -1.443141e+02  -3.268172e+02
   1.820762e+02  -2.666647e+02
   3.948888e+02  -3.831092e+01
   2.513792e+02   1.153469e+02
  -2.271694e+01   2.678897e+02
  -2.660701e+02   2.842977e+02
  -3.175983e+02   1.398539e+02
  -2.662948e+02  -1.160304e+02
  -6.464375e+01  -3.266486e+02
   8.642925e+01  -2.776361e+02
   4.727882e+01  -1.407743e+02
   8.720703e+00  -4.725251e+00
   1.187460e+02  -9.755668e+01
   1.772098e+02  -1.192450e+02
   2.344580e+02   1.447812e+01
   1.768211e+02   2.259104e+02
  -7.664282e+01   2.331251e+02
  -2.011531e+02  -3.357967e+00
  -1.766236e+02  -2.366800e+02
   1.971186e+01  -2.538692e+02
   2.783838e+02  -1.205424e+02
   3.541398e+02   1.852732e+02
   2.223030e+02   3.277450e+02
  -5.780557e+01   2.887718e+02
  -2.176668e+02   1.524923e+02
  -1.857924e+02   3.799519e+01
  -1.715517e+02   1.515735e+01
  -2.788398e+02   3.132711e+01
  -3.749379e+02  -8.390218e+01
  -2.956327e+02  -3.117132e+02
  -5.254298e+00  -4.036130e+02
   3.623588e+02  -3.973399e+02
   4.382562e+02  -1.837089e+02
   2.901236e+02   9.777021e+01
   6.117102e+01   2.815634e+02
  -7.840599e+01   2.431639e+02
  -2.444824e+01  -4.287490e+00
   1.316675e+02  -1.222415e+02
   1.790522e+02   5.162402e+00
  -1.740278e+01   1.937121e+02
  -1.779026e+02   1.291087e+02
  -1.086688e+02  -6.796751e+01
   1.011317e+02  -1.703458e+02
   2.391236e+02   3.299709e+01
   1.282442e+02   2.955208e+02
  -5.925022e+01   3.234110e+02
  -2.403601e+02   1.873562e+02
  -3.096680e+02  -9.375855e+01
  -2.739471e+02  -2.704612e+02
  -9.737195e+01  -2.594291e+02
   1.006479e+02  -1.448634e+02
   1.793711e+02  -3.305424e+01
   4.905743e+01  -1.210512e+01
  -2.482442e+01  -6.443837e+01
   2.511681e+01  -1.068590e+02
   1.232713e+02  -8.970260e+01
   1.433399e+02   3.798951e+01
   7.825808e+01   5.455839e+01
  -7.563415e+01  -1.963226e+01
  -5.971923e+01  -8.766516e+01
   1.407904e+02  -7.735606e+01
   2.897028e+02   6.224177e+01
   3.015590e+02   2.025652e+02
  -8.451850e+00   2.519626e+02
  -1.965978e+02   2.855151e+02
  -2.666190e+02   1.418418e+02
  -1.414795e+02  -1.508548e+01
   3.778236e+01  -8.548374e+01
   3.605759e+01   1.208875e+01
  -1.999500e+01   3.758513e+01
  -1.574758e+02  -3.532023e+01
  -1.768751e+02  -1.345732e+02
  -9.035762e+01  -2.142758e+02
   1.323067e+02  -1.202021e+02
   1.003967e+02   1.833849e+00
   2.732339e+01   2.163966e+01
  -1.210275e+01  -1.591195e+01
  -2.860617e+01  -9.432694e+01
   1.024981e+02  -1.416684e+02
   2.509154e+02  -3.832731e+01
   1.784527e+02   1.427174e+02
  -6.874714e+00   2.133867e+02
  -2.041245e+02   2.096547e+02
  -1.897129e+02   2.054642e+01
  -7.241289e+01  -8.438932e+01
   2.446116e+01  -1.063591e+02
   5.283804e+01  -8.469422e+01
  -4.569548e+01  -1.787181e+01
  -1.929338e+01   3.919955e+01
   3.636009e+00  -1.885762e+01
   6.682883e+01  -9.918934e+00
   1.128717e+02   6.130586e+01
  -3.859594e+01   1.512599e+02
  -1.762687e+02   1.618555e+02
  -1.897275e+02   7.189605e+00
  -1.982427e+02  -2.168227e+02
  -4.444072e+01  -2.587081e+02
   1.225235e+02  -1.852931e+02
   9.417195e+01  -4.623233e+00
   9.892475e+01   9.334406e+01
   4.985527e+01  -8.916426e+00
   5.149807e+01  -5.160130e+01
   8.264696e+01  -4.077275e+01
   6.684979e+01   6.280801e+01
  -2.483944e+01   6.584411e+01
  -7.312867e+01   6.353955e+01
  -1.175651e+02  -5.392764e+01
   2.693938e+00  -1.418800e+02
   1.633096e+02  -6.641752e+01
   1.986274e+02   5.350464e+01
   8.418498e+01   2.052835e+02
  -1.066916e+02   2.249482e+02
  -2.744429e+02   1.108486e+02
  -2.706022e+02  -8.672214e+01
  -9.612780e+01  -2.069720e+02
   7.313605e+01  -1.406246e+02
   1.040355e+02  -1.123760e+02
   6.689048e+01  -6.348987e+01
   1.050166e+02  -4.654986e+01
   9.525283e+01  -6.458951e+01
   1.368715e+02   2.839979e+01
   1.405356e+02   1.681134e+02
   1.346549e+01   2.453371e+02
  -1.058203e+02   1.977918e+02
  -1.661869e+02   7.082545e+00
  -1.342089e+02  -1.688740e+02
  -1.574878e+01  -1.856735e+02
   7.067168e+01  -8.628124e+01
   5.685440e+01   2.748778e+01
   1.276511e+01   6.075517e+01
  -3.514664e+00   3.935192e+01
   2.405032e+01   1.705898e+00
   9.443435e+01   3.543840e+01
   8.058881e+01   7.157135e+01
  -6.152042e+01  -1.186707e+00
  -2.043512e+02   1.208039e+01
  -1.790531e+02  -3.049330e+01
  -6.622033e+00  -8.468586e+01
   1.282888e+02  -8.254409e+01
   1.084233e+02  -3.331406e+01
   4.265704e+01   4.997725e+01
  -8.020769e+01   5.091490e+01
  -9.766508e+01  -6.578040e+00
   2.001161e+01  -6.255820e+01
   6.372253e+01  -6.205019e+01
   3.965817e+01  -1.498815e+01
   6.173519e+01   4.675813e+01
   4.715170e+01   7.118294e+01
   3.649137e+01  -5.536019e+01
   5.428411e+01  -2.428223e+01
   5.443645e+01   8.325171e+01
  -6.453559e+01   1.453001e+02
  -1.001623e+02   1.264723e+02
  -1.791464e+02   2.936447e+01
  -1.165438e+02  -1.238744e+02
   7.536082e-01  -1.543316e+02
   4.389089e+01  -1.354065e+02
   8.308208e+01   8.160406e+00
  -6.110788e+01   1.233053e+01
  -1.325382e+02  -5.826544e+01
  -9.493154e+01  -5.877690e+01
   6.337987e+01  -9.367207e+01
   1.523332e+02  -7.730544e+01
   1.651798e+02   1.051567e+01
   4.036554e+01   1.080638e+02
  -7.398363e+01   7.320530e+01
  -5.036816e+01  -2.724115e+01
   2.231689e+01  -3.368502e+01
   1.188551e+02   7.028830e+01
   2.868716e+01   1.582648e+02
  -8.328128e+01   1.736070e+02
  -1.784784e+02   5.281400e+01
  -1.076710e+02  -8.848728e+01
   2.251792e+00  -2.282309e+02
   8.700022e+01  -1.355655e+02
   7.441879e+01   2.843123e+01
   4.466006e+01   1.369737e+02
   2.504540e+01   1.452313e+02
  -5.983624e+01  -7.989009e+00
  -3.547121e+01  -5.467374e+01
  -3.528445e+01  -4.084993e+01
  -1.818738e+01   8.224946e+00
  -1.685053e+01  -2.211780e+01
  -7.054390e+01  -9.919740e+01
  -2.453694e+01  -1.436963e+02
   8.275040e+00  -7.314066e+01
   1.720888e+02   4.634780e+01
   1.778849e+02   8.185146e+01
   3.084764e+01   4.727946e+01
  -7.719116e+01   4.061944e+01
  -8.816299e+01   2.474079e+01
  -5.730426e+01   3.225223e+01
   4.239366e+01  -3.351518e+01
   1.837154e+01  -1.691266e+01
   4.206686e+01  -2.209116e+01
   5.427644e+00   3.411211e+01
   5.457423e+01   1.434658e+01
   1.190853e+02   3.499983e+01
   1.941789e+01   6.793462e+01
  -9.430449e+01   1.399063e+02
  -1.543547e+02   9.608532e+01
  -1.391137e+02  -6.352704e+01
  -4.180006e+01  -2.089135e+02
   7.983490e+01  -1.486841e+02
   1.010848e+02  -6.463951e+01
   9.132700e+01  -1.294405e+01
   3.863679e+01   3.973619e+01
   9.111187e+00   4.306214e+01
   8.285919e+00  -3.967871e+01
   5.805420e+00   3.840880e+01
   1.024081e-01   8.604290e+01
  -1.836025e+01   6.287606e+01
  -7.035857e+01  -7.075625e+00
  -8.596421e+01  -1.075100e+02
   1.957732e+01  -1.106753e+02
   9.409214e+01  -4.138882e+01
   1.013752e+02   6.078085e+01
   2.259666e+01   1.052874e+02
  -1.966188e+01   6.348776e+01
  -1.314272e+02  -2.223141e+01
  -1.064084e+02  -5.588985e+01
   2.381786e+01  -2.516801e+01
   1.196770e+01  -6.970592e+00
  -1.917371e+01   9.913715e+00
  -1.110524e+01   1.485552e+00
   4.335303e+01   1.852926e+01
   9.068092e+01  -5.146206e+01
   8.647162e+01  -7.500199e+01
   6.357810e+01   4.693214e+01
  -2.503417e+01   9.356939e+01
  -6.384196e+01   7.795105e+01
  -3.423814e+01   5.587987e+01
  -2.404199e+01  -5.234504e+01
   3.956970e+01  -7.978365e+01
   4.450525e+01   3.005541e+01
   3.466226e+01   2.994880e+01
   2.815807e+01   4.053902e+01
  -3.511625e+01  -2.405229e+01
  -2.550906e+01  -1.612369e+01
  -4.421484e+01   1.544011e+00
  -4.015245e+00   3.594502e+01
   2.735208e+01   7.826469e+00
   5.260258e+00   7.633255e+00
   3.475395e+01  -6.939261e+01
   4.240062e+01   1.883912e+01
   1.876211e+01   7.603155e+01
  -3.093186e+01   5.035234e+01
  -5.933396e+01   6.125409e+01
  -5.104745e+01  -1.749426e+01
  -1.232893e+01  -7.870227e+01
   6.884071e+01  -5.644351e+01
   1.094675e+02   1.404966e+00
   1.183429e+01   3.553600e+01
  -1.072491e+01   1.754417e+01
  -4.047284e+01   2.551585e+01
   6.415931e+00   2.105598e+00
   2.090489e+01  -1.024420e+01
   4.009510e+01   3.193970e+01
  -7.135948e+01  -9.763221e+00
  -8.740898e+01  -4.183325e+01
