
 $NMID
 id='ANONYMOUS ', fmtdat='(2E16.6)'
 volume=1.0
 tramp=1.0
 $END
   4.033358e+03  -4.422118e+01
   2.812542e+03   2.336654e+03
  -6.743492e+02   2.603871e+03
  -1.939701e+03   9.891286e+02
  -1.159823e+03  -5.962627e+02
   4.696946e+02  -6.548187e+02
   7.271782e+02   4.452007e+02
   8.394329e+01   9.928967e+02
  -7.944052e+02   7.342138e+02
  -9.260368e+02  -1.028635e+01
  -4.963116e+02  -7.927873e+02
   1.908990e+02  -8.852405e+02
   6.612356e+02  -1.077989e+02
   4.703178e+02   6.812904e+02
  -1.402509e+02   7.302999e+02
  -5.915257e+02   6.176715e+01
  -2.614835e+02  -6.301869e+02
   3.026300e+02  -7.965278e+02
   6.431646e+02  -1.850109e+02
   4.440681e+02   3.601699e+02
   7.379911e+01   4.422785e+02
  -2.707361e+02   2.168528e+02
  -1.639596e+02   8.206947e-01
   1.458766e+02  -4.903177e+01
   4.091820e+02   1.888644e+02
   1.728714e+02   4.145225e+02
  -4.848115e+02   3.299817e+02
  -8.250642e+02  -1.041028e+02
  -3.655726e+02  -5.521939e+02
   3.866847e+02  -4.259809e+02
   7.050438e+02   1.266463e+02
   2.972406e+02   4.913651e+02
  -3.101068e+02   4.961054e+02
  -5.860848e+02   1.486249e+02
  -4.253178e+02  -1.929331e+02
  -7.851514e+01  -4.147892e+02
   1.935563e+02  -3.088273e+02
   1.367893e+02   1.644906e+02
  -1.778598e+02   4.054340e+02
  -4.126091e+02  -4.219364e+01
  -2.186468e+02  -6.690054e+02
   3.461530e+02  -6.967824e+02
   5.967279e+02  -2.282488e+01
   2.878275e+02   5.233950e+02
  -2.666141e+02   3.645103e+02
  -3.424243e+02  -2.770100e+02
   5.750750e+01  -5.346768e+02
   5.350844e+02  -1.421026e+02
   6.011249e+02   4.085981e+02
   1.664371e+02   6.014709e+02
  -3.886924e+02   3.173440e+02
  -5.865294e+02  -4.513167e+01
  -3.600293e+02  -3.449489e+02
   1.215129e+02  -3.516382e+02
   4.125023e+02  -7.216295e+01
   2.368656e+02   1.685703e+02
  -9.399385e+01   1.291955e+02
  -1.846139e+02  -9.846076e+01
   8.964935e+01  -1.786406e+02
   3.112626e+02   1.356262e+00
   1.688221e+02   2.336906e+02
  -2.033006e+02   2.424922e+02
  -3.485040e+02   1.189224e+02
  -2.208673e+02  -7.052155e+01
   1.274036e+01  -2.619181e+02
   2.551592e+02  -3.539156e+02
   3.415489e+02  -2.097638e+02
   2.902063e+02   1.715660e+02
   9.113844e+01   3.798428e+02
  -1.149587e+02   3.656564e+02
  -7.665092e+01   8.848875e+01
  -1.443607e+01   3.613960e+01
  -9.404370e+01   1.401692e+02
  -1.931370e+02   1.337448e+02
  -2.596143e+02  -6.292302e+01
  -8.811403e+01  -2.960844e+02
   4.571517e+01  -2.320166e+02
   2.588782e+02  -4.018244e+01
   1.931632e+02   2.427276e+02
  -2.285320e+01   2.847889e+02
  -2.169411e+02   8.424023e+01
  -3.783505e+02  -1.828370e+02
  -1.838135e+02  -3.837597e+02
   9.002833e+01  -3.112892e+02
   2.596886e+02  -9.127461e+01
   1.529060e+02   2.198861e+01
   1.180836e+02  -7.701204e+00
   2.029431e+02  -3.810051e+01
   4.207861e+02   6.065753e+01
   3.441282e+02   3.130208e+02
  -3.255376e+01   4.722370e+02
  -4.327363e+02   4.056928e+02
  -5.065498e+02   1.918040e+02
  -3.102003e+02  -4.415440e+01
  -6.746606e+01  -3.101688e+02
   1.065284e+02  -2.450020e+02
   3.049014e+01  -2.581331e+01
  -1.387288e+02   1.317033e+02
  -2.054918e+02   1.927703e+01
  -5.439083e+01  -2.025943e+02
   1.354889e+02  -1.868715e+02
   1.464244e+02   3.389681e+01
   1.785284e+01   1.675658e+02
  -1.755446e+02   9.947628e+00
  -1.440721e+02  -2.547951e+02
   2.603187e+01  -3.135268e+02
   2.467313e+02  -2.165193e+02
   3.816901e+02   6.872049e+01
   3.318887e+02   2.925890e+02
   7.634324e+01   2.464021e+02
  -1.456364e+02   1.656838e+02
  -2.183124e+02   1.133794e+01
  -7.997366e+01  -4.010956e+01
   9.482807e+01   2.492078e+01
   2.062933e+01   1.081427e+02
  -1.255268e+02   1.059900e+02
  -1.574905e+02   3.115707e+01
  -9.713186e+01  -3.255037e+01
   1.041211e+02  -5.980577e+01
   4.696882e+01   7.932230e+01
  -1.435716e+02   1.381163e+02
  -3.189195e+02   7.801512e+01
  -2.570025e+02  -8.767729e+01
  -8.245977e+01  -2.977028e+02
   1.469545e+02  -3.360048e+02
   3.158125e+02  -1.529179e+02
   1.389017e+02   5.526097e+01
  -5.476652e+01   1.514961e+02
  -8.592060e+01   2.177700e+01
   2.902563e+01  -1.016329e+02
   1.858075e+02  -8.685900e+01
   1.897384e+02   1.096451e+02
   9.761541e+01   1.932405e+02
  -8.493780e+01   1.407966e+02
  -1.572685e+02   7.687658e+01
  -1.027060e+02  -5.301159e+01
   6.851517e+01  -2.555824e+01
   1.138941e+02   9.564321e+01
  -7.755935e+01   1.168449e+02
  -2.039999e+02   1.268734e+01
  -2.290344e+02  -7.546469e+01
  -5.248862e+01  -2.019332e+02
   1.391507e+02  -1.650308e+02
   1.982289e+02  -1.849127e+01
   5.999485e+01   1.109096e+02
  -6.477259e+01   1.043283e+02
  -4.595364e+01   4.020917e+01
  -2.635554e+01   8.506102e+00
  -6.671106e-01  -6.206826e+00
  -2.963788e+01  -3.814050e-01
  -9.522932e+01  -3.174631e-01
  -1.090914e+02  -7.971530e+01
  -3.742509e+01  -1.889953e+02
   1.376685e+02  -1.500909e+02
   2.173114e+02  -2.601267e+01
   2.150207e+02   1.287381e+02
   1.522854e+01   2.199790e+02
  -1.632676e+02   1.588978e+02
  -1.428278e+02   4.446851e+01
  -5.973431e+01   7.459518e+00
  -2.476748e+01  -3.023293e+01
  -5.962946e+01  -2.183389e+01
  -1.207104e+02   1.837133e+01
  -1.887846e+01  -3.589934e+01
   3.879993e+01  -6.892328e+01
   1.309507e+02  -9.161414e+01
   9.786590e+01   3.409913e+01
  -2.818491e+01   1.275200e+02
  -1.215727e+02   9.467330e+01
  -1.725104e+02  -3.061567e+01
  -9.908242e+01  -1.929172e+02
   8.766436e+01  -2.684042e+02
   2.772501e+02  -9.763088e+01
   2.729766e+02   9.855025e+01
   1.008507e+02   1.411228e+02
  -2.446543e+01   1.327331e+02
  -1.163858e+02   7.459831e+01
  -4.676723e+01   6.505488e+01
  -5.540384e+01   9.218837e+01
  -7.189057e+01   8.313604e+01
  -1.641463e+02  -3.339212e+01
  -1.288929e+02  -1.571373e+02
  -2.296113e+01  -2.298208e+02
   8.248771e+01  -1.781861e+02
   2.008343e+02  -3.429027e+01
   1.149032e+02   1.373104e+02
   3.961051e+01   1.768017e+02
  -3.568328e+01   1.084093e+02
  -6.667833e+01  -5.593059e+00
  -2.488084e+01  -4.505053e+01
  -2.913931e+00  -3.792584e+01
  -2.858785e+01  -2.250856e+01
  -6.932237e+01  -2.606182e+01
   1.091713e+01  -6.037790e+01
   8.537491e+01  -6.091200e+01
   1.641594e+02  -2.487367e+01
   1.535981e+02   8.308651e+01
  -3.591894e+00   8.992642e+01
  -1.282568e+02   1.195466e+02
  -1.465471e+02   3.226523e+01
  -2.994505e+01  -6.852654e+01
   4.523318e+01  -3.741772e+01
   9.070974e+01   3.274063e+01
   1.443491e+01   6.126536e+01
  -3.583435e+01   3.976630e+01
  -5.212001e+01   2.555565e+01
  -6.055703e+01  -5.879725e+01
  -4.777506e+01  -1.629566e+01
  -1.010316e+02  -9.963778e+00
  -5.393810e+01  -3.846636e+01
  -3.936890e+00  -9.028255e+01
   2.978102e+01  -1.606587e+02
   1.320011e+02  -1.433020e+02
   1.424893e+02  -2.174129e+01
   1.066066e+02   1.154791e+02
  -1.623292e+01   1.699943e+02
  -1.256628e+02   6.899367e+01
  -5.674658e+01   1.123563e+00
   4.601192e+01  -2.536217e+01
   1.035549e+02   9.080872e+00
   6.017961e+01   9.853650e+01
  -6.668490e+01   1.084680e+02
  -1.504811e+02   9.549991e+01
  -1.669556e+02  -1.113242e+01
  -5.818429e+01  -9.425523e+01
   7.007128e+01  -5.102767e+01
   2.840033e+01  -1.281161e+01
  -3.046808e+01   8.834990e+00
  -1.130084e+02  -3.134483e+01
  -2.163803e+01  -1.254418e+02
   1.215951e+02  -1.359377e+02
   2.021524e+02  -5.174393e+01
   1.325895e+02   1.184715e+02
  -2.613082e+01   1.946901e+02
  -1.219600e+02   1.444777e+02
  -1.185759e+02  -1.163988e+01
  -7.276278e+01  -1.281073e+02
   2.585840e+01  -1.160622e+02
   7.019916e+01  -1.579903e+01
   6.743126e+01   3.412177e+01
   4.043543e+01   2.333780e+01
   3.970111e+01   1.605701e+01
   3.524213e+01   9.614717e+00
   4.926540e+01   8.045525e+01
   4.401356e+01   9.812488e+01
  -4.252311e+01   5.056011e+01
  -1.498694e+02  -5.319548e+01
  -9.390670e+01  -8.173754e+01
  -2.271644e+01  -1.917978e+01
   5.482770e+01  -3.810446e+01
   6.326562e+01  -1.430300e+01
   1.348228e+00   9.217833e+00
  -3.148118e+01   8.020586e+01
   4.425727e-02   4.628916e+01
   1.408369e+01   1.130185e+01
  -2.308745e+01  -1.290931e+01
  -1.109565e+02  -1.062198e+00
  -1.155782e+02  -5.769833e+01
  -6.856147e+01  -9.977663e+01
   1.081192e+02  -1.230917e+02
   2.049220e+02  -5.344539e+01
   1.884095e+02   6.370193e+01
   4.566395e+01   1.242491e+02
  -6.419472e+01   9.999070e+01
  -1.023159e+02   3.996230e+01
  -1.193163e+02   7.157013e+00
  -3.030845e+01  -5.845045e+01
   3.806274e+01  -2.927614e+01
   1.008636e+00   5.038692e+00
  -1.856779e+01  -1.017969e+02
  -3.236100e+01  -5.198119e+01
   1.891384e+01  -4.683784e+01
   7.053813e+01  -2.454330e+01
   8.857478e+01   7.401880e+01
  -1.855160e+01   9.466932e+01
  -7.278050e+01   1.775207e+01
  -1.177333e+02  -2.978465e+01
  -6.736939e+01  -1.216542e+02
   4.995142e+01  -1.183015e+02
   1.108875e+02  -1.136762e+01
   4.080741e+01   4.822388e+01
  -5.943725e+01   7.721375e+01
  -2.478558e+01   8.232555e+01
   3.840272e+01   3.088215e+01
   6.867754e+01  -1.341777e+01
   5.358039e+01   1.503588e+01
  -7.427594e+01   7.038181e+01
  -1.072964e+02   1.886775e+01
  -8.102416e+01   2.805486e+01
   2.103566e+01  -5.943757e+01
   7.711921e+01  -7.541453e+01
   5.177588e+01  -3.470507e+01
   1.760034e+01   1.795572e+01
  -1.010356e+01   1.318056e+01
  -2.581061e+01  -2.979435e+01
  -3.345078e+01  -1.560832e+01
  -1.065603e+01  -5.378224e+01
   2.835980e+01  -9.889431e+00
   2.174148e+01  -1.047072e+01
  -4.382125e+00   1.695712e+00
   2.453686e+01  -3.044421e+00
  -1.944062e+01   2.885465e-02
  -2.784014e+01   1.245286e+01
  -5.288307e+00   4.871844e+01
  -4.682454e+01   6.948413e-01
  -1.915045e+01  -7.740735e+01
  -7.034818e+00  -6.263159e+01
   6.905977e+01  -3.610903e+01
   6.663547e+01   6.822475e+01
   2.386026e+01   6.364063e+01
  -5.051844e+01   3.218513e+01
  -1.128858e+02  -2.387928e+01
  -4.398876e+01  -2.494198e+01
   2.076830e+00  -5.428689e+00
   9.312803e+01  -4.694548e+01
   5.946636e+01   3.477228e-01
  -1.027549e+01  -4.277493e+01
  -4.916710e+01  -9.626683e+00
   6.149666e+01  -2.249987e+01
   1.031076e+02   1.112530e+01
