
 $NMID
 id='ANONYMOUS ', fmtdat='(2E16.6)'
 volume=1.0
 tramp=1.0
 $END
   3.193963e+03   2.839526e+00
   1.953358e+03   1.938347e+03
  -4.882044e+02   1.969623e+03
  -1.427722e+03   8.469424e+02
  -8.669857e+02  -2.418820e+02
   3.362003e+02  -4.026877e+02
   6.339501e+02   2.493664e+02
  -1.233200e+01   6.471354e+02
  -5.896380e+02   5.473915e+02
  -6.912987e+02  -7.074311e+01
  -3.564640e+02  -6.233939e+02
   1.202774e+02  -7.234086e+02
   4.211703e+02  -8.576433e+01
   2.873165e+02   5.532020e+02
  -1.866329e+02   4.866497e+02
  -3.994132e+02  -1.320622e+01
  -1.948441e+02  -4.421438e+02
   2.029618e+02  -5.231441e+02
   4.607315e+02  -1.679185e+02
   3.658905e+02   2.680411e+02
  -1.375004e+01   3.159110e+02
  -1.300752e+02   1.531452e+02
  -4.429883e+00   5.101446e+01
   1.116929e+02   8.157847e+01
   2.491617e+02   1.734046e+02
   9.415243e+01   3.122279e+02
  -3.685707e+02   2.194490e+02
  -6.302534e+02  -6.040598e+01
  -3.184971e+02  -4.024729e+02
   2.824436e+02  -3.074178e+02
   5.049276e+02   2.339639e+01
   2.050266e+02   3.705269e+02
  -2.508290e+02   3.234593e+02
  -4.084666e+02   1.905470e+02
  -3.358327e+02  -1.249311e+02
  -8.115464e+01  -3.031867e+02
   5.238622e+01  -1.939666e+02
   5.827270e+01   1.250047e+02
  -1.457739e+02   2.819868e+02
  -2.730913e+02  -3.573956e+01
  -8.195160e+01  -5.128344e+02
   2.887135e+02  -4.395105e+02
   3.802050e+02   3.806424e+01
   1.734648e+02   3.682415e+02
  -1.872043e+02   1.989241e+02
  -2.523608e+02  -2.247224e+02
  -1.589627e+00  -3.344501e+02
   3.810686e+02  -9.774509e+01
   4.519964e+02   2.837097e+02
   1.645560e+02   4.574472e+02
  -2.816054e+02   2.504721e+02
  -5.206828e+02  -6.945119e+01
  -3.149574e+02  -2.632458e+02
   7.788776e+01  -2.897644e+02
   3.542245e+02  -7.758803e+01
   2.182062e+02   9.254536e+01
  -5.511322e+01   1.065993e+02
  -8.560865e+01  -5.847088e+01
   1.069903e+02  -7.144130e+01
   2.401881e+02   8.443144e+01
   7.991593e+01   2.340052e+02
  -1.541937e+02   2.047445e+02
  -2.942006e+02   1.080669e+02
  -2.114838e+02  -7.868231e+01
   1.546695e+01  -1.831238e+02
   1.945477e+02  -2.706923e+02
   2.907631e+02  -1.864669e+02
   2.282178e+02   7.540647e+01
   6.608343e+01   3.342511e+02
  -1.076154e+02   2.943575e+02
  -9.152907e+01   1.470556e+02
  -4.574964e+01   6.494808e+01
  -6.606752e+01   1.359146e+02
  -1.875641e+02   5.764757e+01
  -2.006925e+02  -3.484582e+01
  -1.860665e+02  -2.186260e+02
   8.150549e+01  -2.069794e+02
   1.493091e+02  -3.739699e+00
   1.509794e+02   2.056259e+02
   1.093369e+01   1.875646e+02
  -2.132178e+02   4.518392e+01
  -3.086660e+02  -1.519615e+02
  -1.593981e+02  -3.011282e+02
   1.014459e+02  -2.906642e+02
   2.010058e+02  -1.195283e+02
   1.239499e+02   2.752125e+01
   8.763721e+01  -2.254357e+01
   1.984718e+02  -1.205332e+01
   3.329930e+02   6.109103e+01
   2.774090e+02   2.843894e+02
   8.242368e-01   3.972392e+02
  -3.213636e+02   3.522084e+02
  -4.364746e+02   1.168757e+02
  -2.487236e+02  -6.745344e+01
   2.054846e+01  -1.971278e+02
   1.062105e+02  -1.837083e+02
   5.793443e+01  -3.559086e+01
  -9.303548e+01   6.983913e+01
  -1.546533e+02  -5.390455e+00
  -3.301782e+01  -1.086524e+02
   1.585249e+02  -1.032978e+02
   1.280386e+02   8.458098e+01
  -1.758369e+01   1.495467e+02
  -1.537568e+02   5.020396e+01
  -1.427294e+02  -2.000508e+02
  -2.365285e+01  -2.651260e+02
   1.408243e+02  -1.230758e+02
   2.841745e+02   5.882909e+01
   2.577824e+02   1.968494e+02
   1.000249e+02   2.319224e+02
  -8.896049e+01   1.540875e+02
  -1.380553e+02   1.749646e-01
  -3.287579e+01  -1.683837e+01
   1.048569e+02   2.678260e+01
   3.204486e+01   8.142608e+01
  -9.144290e+01   7.912461e+01
  -1.323140e+02   9.867999e+00
  -5.835922e+01  -2.901476e+01
   8.069363e+01  -1.633387e+01
   5.216138e+01   4.294204e+01
  -1.441726e+02   5.748107e+01
  -2.867043e+02   5.931530e+00
  -2.381177e+02  -8.916192e+01
  -6.026237e+01  -2.030760e+02
   1.412429e+02  -2.507917e+02
   2.818487e+02  -1.261939e+02
   1.556304e+02   1.512389e+01
  -3.344404e+01   7.625744e+01
  -5.204167e+01   1.167510e+01
   4.246456e+01  -1.164624e+02
   1.686959e+02  -1.219801e+02
   1.948978e+02   9.607007e+01
   7.317193e+01   1.867036e+02
  -3.376175e+01   1.284397e+02
  -1.057821e+02   3.505790e+01
  -8.920277e+01  -3.788647e+01
  -4.640581e+00   1.346681e+00
   4.079495e+01   8.237491e+01
  -6.126526e+01   1.130435e+02
  -1.877944e+02   1.927738e+01
  -1.431824e+02  -6.419822e+01
  -5.730473e+00  -1.580813e+02
   1.049803e+02  -8.166114e+01
   1.293085e+02   1.165795e+01
   5.106610e+01   9.095167e+01
  -3.618537e+01   1.135558e+02
  -7.672965e+01   7.707143e+01
  -2.581328e+01  -1.165715e+01
   3.356186e+00  -4.148486e+00
  -9.267568e+00  -5.920493e+00
  -8.464482e+01  -3.941866e+00
  -1.284604e+02  -8.992883e+01
  -6.526721e+01  -1.555689e+02
   1.108334e+02  -1.275232e+02
   2.010086e+02  -2.103519e+01
   1.632722e+02   9.716826e+01
   8.240996e+00   2.263495e+02
  -1.041531e+02   1.298307e+02
  -1.245801e+02   7.290816e+00
  -7.778749e+01  -3.931343e+01
  -4.199887e+01  -4.944045e+01
  -1.382501e+01   3.095696e+01
  -1.802762e+01   6.940249e+00
  -1.065604e+01  -3.245733e+01
   5.643620e+01  -7.232052e+01
   9.533051e+01  -1.427281e+01
   8.477748e+01   2.608977e+01
  -6.958729e+00   1.144700e+02
  -1.251483e+02   7.957859e+01
  -1.766658e+02  -1.088743e+02
  -6.389197e+01  -1.937362e+02
   1.112234e+02  -1.912012e+02
   2.714782e+02  -4.835135e+01
   2.383622e+02   5.953284e+01
   6.537923e+01   1.414072e+02
  -3.321803e+01   1.116395e+02
  -9.743333e+01   5.686575e+01
  -7.286587e+01   3.449277e+01
  -4.216283e+01   1.222155e+02
  -1.098880e+02   6.503760e+01
  -1.349556e+02  -1.594937e+01
  -1.075758e+02  -1.449926e+02
  -1.089423e+00  -2.014431e+02
   1.131412e+02  -1.360868e+02
   1.470378e+02  -1.019601e+01
   1.015514e+02   5.900680e+01
   3.533699e+01   1.475884e+02
  -6.723399e+01   9.579525e+01
  -5.068276e+01   1.470355e+01
  -1.616873e+00  -6.261727e+01
   3.997137e+01  -3.296868e+01
   7.065724e+00  -2.526820e+01
   1.848114e-01  -2.210835e+01
  -1.383903e+01  -4.519350e+01
   7.814648e+01  -4.887161e+01
   1.445216e+02  -8.025639e+00
   1.357748e+02   8.197866e+01
  -3.225907e+00   1.242198e+02
  -1.089831e+02   8.226700e+01
  -1.464603e+02  -3.900795e+00
  -6.472975e+01  -1.628003e+01
   2.103445e+01  -3.989993e+01
   5.186977e+01   2.711552e+01
  -5.806032e-01   8.825555e+01
  -7.997865e+01   5.786411e+01
  -3.885943e+01   1.434840e+01
  -3.232154e+01  -5.103067e+01
  -2.000003e+01  -1.704009e+01
  -4.731399e+01   2.212740e+01
  -7.460764e+01   8.648061e+00
  -6.770048e+01  -8.080081e+01
   4.336735e+01  -1.137540e+02
   1.367010e+02  -1.597251e+02
   1.508202e+02  -3.276174e+01
   1.104890e+02   7.082655e+01
   2.023484e+01   8.172321e+01
  -5.143035e+01   4.469912e+01
  -5.104893e+01   6.418493e+00
   5.437404e+01  -1.460075e+01
   1.373638e+02   3.446068e+01
   4.188829e+01   1.043574e+02
  -6.309203e+01   9.177101e+01
  -1.031444e+02   5.215252e+01
  -1.276332e+02   2.008424e+01
  -5.957747e+01  -6.245854e+01
   4.788799e+01  -4.756259e+01
   4.316505e+01   1.662161e+01
   9.858318e+00   4.075149e+00
  -3.734821e+01  -2.694754e+01
  -3.003010e+01  -6.137052e+01
   7.205708e+01  -1.586780e+02
   1.172962e+02  -8.740948e+01
   1.033664e+02   6.225985e+01
   1.495454e+01   1.694444e+02
  -8.673322e+01   1.434028e+02
  -7.420183e+01  -3.298482e+00
  -8.276949e+01  -9.865893e+01
   9.555694e+00  -8.327230e+01
   1.584584e+01  -1.428008e+01
  -2.466010e+01   8.361458e+00
  -1.675253e+01  -4.935893e+01
   6.375811e+00  -4.337002e+01
  -3.298856e+00   2.155182e+01
   3.097479e+01   8.113909e+01
   6.178957e+01   8.921865e+01
  -3.839618e+01   8.141879e+01
  -9.122768e+01  -2.632139e+01
  -8.051696e+01  -5.738093e+01
  -2.565088e+00  -6.020933e+01
   9.052262e+01   3.174474e+01
   8.735720e+01   6.159976e+00
  -2.337202e+01   6.877328e+00
  -1.377001e+01   3.727532e+01
  -6.045936e+01  -2.609973e+01
   7.339846e-01  -2.888805e+01
  -1.439025e+01  -2.043850e+01
  -7.843341e+01  -2.651570e+00
  -7.462061e+01   7.482836e-01
   5.740117e+01  -8.878763e+01
   9.173599e+01  -1.414209e+02
   1.144426e+02  -2.853516e+01
   1.228216e+02   6.003778e+01
   1.810662e+01   1.312650e+02
  -3.005522e+01   1.209463e+02
  -6.374667e+01   6.189092e+01
  -5.586759e+01  -1.261741e+01
  -1.427257e+01  -3.073122e+01
   2.868698e-01   1.442889e+01
  -3.268889e+01  -4.681534e+00
  -1.206133e+01  -9.526842e+01
  -8.816540e+00  -1.341883e+02
   5.079898e+01  -3.804981e+01
   8.262279e+01   2.088505e+00
   8.549869e+01   8.428395e+01
   3.481033e+01   6.385463e+01
  -4.098649e+01   2.101121e+01
  -9.871731e+01  -7.617878e+01
  -7.211794e+00  -8.633213e+01
   5.102972e+01   1.421654e+01
   1.029365e+02   2.360928e+01
   1.902669e+01   6.798362e+01
  -3.463091e+01   6.050089e+01
  -3.112882e+00   4.049919e+01
   6.550973e-01   1.630659e+01
   3.648597e+01  -4.319984e+01
   2.731033e+01   3.252556e+00
  -4.466436e+01   6.408783e+01
  -8.595953e+01   8.636847e+01
  -5.492596e+01  -3.363493e+01
   5.211970e-01  -5.771946e+01
   5.377396e+01  -6.599146e+01
   4.188473e+01  -2.669055e+00
   3.222960e+01   4.103391e+01
  -2.961592e+01   5.655366e+01
  -7.770933e+01  -2.994405e+01
  -2.865807e+01  -5.707300e+00
  -5.133342e+01  -3.212751e+01
   7.247608e-01   2.706133e+01
   2.498825e+01   9.224323e+00
   5.085903e+01  -1.369244e+01
  -1.161691e+01  -2.034084e+01
   2.164597e+01  -6.520061e+00
  -3.102238e+01   2.913390e+01
   3.344839e+01   5.802744e+01
  -5.091275e+01  -5.206007e+00
   1.092865e+01  -5.225120e+01
   5.475025e+00  -2.148292e+01
   4.156083e+01   2.348663e+00
   5.163969e+01   4.216822e+01
   2.537808e+01   4.917142e+01
  -4.761369e+01   4.119723e+01
  -6.531654e+01  -5.151095e+01
   2.119756e+01  -2.533874e+01
   3.162913e+01  -2.136433e+01
   1.516849e+01  -4.162460e+00
  -2.166808e-01   3.708340e+00
  -1.020915e+01   1.507443e+01
  -2.635060e+01   1.435868e+00
   3.716037e+01  -3.023373e+01
   9.362519e+01  -3.977110e+01
