
 $NMID
 id='ANONYMOUS ', fmtdat='(2E16.6)'
 volume=1.0
 tramp=1.0
 $END
   4.416726e+03   3.459177e+01
   2.589399e+03   2.668807e+03
  -9.872382e+02   2.887297e+03
  -2.237951e+03   7.682489e+02
  -6.064258e+02  -7.692853e+02
   7.951586e+02  -4.373947e+02
   8.528882e+02   6.271587e+02
  -1.644450e+02   1.112875e+03
  -8.630739e+02   7.483765e+02
  -9.238640e+02  -2.503128e+02
  -3.861764e+02  -9.138138e+02
   2.668193e+02  -8.140041e+02
   6.906475e+02  -9.609999e+01
   3.609397e+02   7.739168e+02
  -3.840788e+02   6.822253e+02
  -6.842533e+02  -8.377301e+01
  -2.773399e+02  -6.327950e+02
   3.925310e+02  -6.906576e+02
   5.740855e+02  -7.747854e+01
   3.991287e+02   2.905331e+02
   2.784911e+01   4.856614e+02
  -3.263907e+02   2.006706e+02
  -1.830830e+02  -2.337887e+01
   1.024773e+02  -1.719924e+02
   4.617258e+02   1.555902e+02
   2.547732e+02   4.498263e+02
  -4.891254e+02   4.976410e+02
  -8.845220e+02  -3.060473e+01
  -4.315220e+02  -6.528380e+02
   4.570604e+02  -5.020304e+02
   8.664736e+02   1.059703e+02
   4.394167e+02   5.273684e+02
  -2.841704e+02   5.637127e+02
  -5.410882e+02   1.928146e+02
  -4.292304e+02  -2.956604e+02
  -4.658932e+01  -5.189893e+02
   2.487888e+02  -2.981037e+02
   1.780656e+02   2.765555e+02
  -2.681587e+02   5.373902e+02
  -5.613976e+02  -3.908649e+01
  -2.982111e+02  -7.151445e+02
   3.923617e+02  -7.983842e+02
   6.634277e+02   1.027747e+01
   2.682513e+02   5.948964e+02
  -3.552674e+02   3.145128e+02
  -4.334433e+02  -3.558061e+02
   1.249349e+02  -5.648695e+02
   5.804167e+02  -1.510373e+02
   6.147600e+02   4.247788e+02
   1.598525e+02   6.032944e+02
  -4.298091e+02   3.348159e+02
  -6.761858e+02  -1.345812e+02
  -3.614430e+02  -4.111154e+02
   1.983881e+02  -3.491610e+02
   4.942796e+02  -3.190609e+01
   2.804407e+02   2.479957e+02
  -1.867390e+02   1.020518e+02
  -1.670575e+02  -1.963493e+02
   1.492521e+02  -2.262264e+02
   3.734699e+02   5.952953e+01
   1.051098e+02   3.019040e+02
  -2.203194e+02   3.033218e+02
  -3.369698e+02   5.901135e+01
  -1.955425e+02  -1.082424e+02
  -4.927974e+00  -3.005117e+02
   2.086205e+02  -3.918369e+02
   3.493674e+02  -2.528047e+02
   2.867605e+02   1.508187e+02
   7.669230e+01   4.582953e+02
  -9.781563e+01   3.958342e+02
  -1.644796e+02   9.462309e+01
  -4.478046e+01  -5.071709e+01
  -1.681962e+01   5.468926e+01
  -1.529753e+02   1.754917e+02
  -2.696484e+02  -8.295699e+01
  -1.808724e+02  -2.844467e+02
   1.231736e+02  -2.933216e+02
   2.657820e+02  -2.468946e+01
   2.225468e+02   2.764494e+02
  -5.356104e+01   3.268242e+02
  -3.368348e+02   1.041685e+02
  -3.474277e+02  -1.842140e+02
  -9.821820e+01  -3.505833e+02
   1.380541e+02  -2.728583e+02
   2.601659e+02  -1.205638e+02
   1.302606e+02   1.198788e+01
   1.465537e+02  -1.549646e+01
   2.564328e+02  -3.409061e+01
   3.790060e+02   9.231387e+01
   3.008876e+02   3.224866e+02
   8.070342e+00   4.803651e+02
  -3.405513e+02   3.999195e+02
  -4.715196e+02   2.033892e+02
  -3.414873e+02  -1.593650e+02
  -7.513713e+01  -3.651511e+02
   1.377981e+02  -3.002299e+02
   8.229827e+01  -2.443975e+01
  -9.997247e+01   1.104859e+02
  -1.836006e+02   3.743570e+01
  -9.581902e+01  -2.235403e+02
   1.410351e+02  -1.702281e+02
   1.848806e+02   3.690530e+01
   8.195863e+00   2.311338e+02
  -1.989350e+02   6.309761e+01
  -1.503660e+02  -2.384775e+02
   1.048227e+01  -3.448563e+02
   2.467381e+02  -2.164088e+02
   2.920844e+02   2.715647e+01
   2.775522e+02   2.682286e+02
   1.129074e+02   2.749427e+02
  -5.709851e+01   1.191130e+02
  -1.477377e+02   2.186411e+01
  -1.146970e+02  -6.532493e+01
   9.402686e+01   4.820874e+01
   9.381665e+01   1.344984e+02
  -9.237245e+01   1.438090e+02
  -1.863540e+02  -8.036568e+00
  -4.803249e+01  -1.176305e+02
   4.941295e+01  -3.037011e+01
   7.148546e+01   4.854383e+01
  -5.397565e+01   4.181653e+01
  -2.823411e+02   2.326313e+01
  -2.465477e+02  -1.293788e+02
  -3.562841e+01  -2.337588e+02
   1.510389e+02  -2.666190e+02
   3.392455e+02  -1.115412e+02
   1.793416e+02   8.726343e+01
  -1.846841e+01   1.422475e+02
  -1.091598e+02  -2.287391e+01
  -2.322170e+01  -1.037545e+02
   1.822177e+02  -5.337638e+01
   2.364601e+02   1.040019e+02
   1.084637e+02   2.420662e+02
  -8.355987e+01   1.161784e+02
  -1.287881e+02  -2.432241e+01
  -3.232758e+01  -6.706837e+01
   4.228660e+01  -4.240998e+01
   8.534216e+01   8.846544e+01
  -5.393583e+01   1.580527e+02
  -2.239108e+02   4.364317e+01
  -2.124846e+02  -1.191650e+02
  -5.392048e+01  -2.204628e+02
   1.953541e+02  -1.399364e+02
   2.214398e+02   2.231090e+01
   9.707960e+01   1.392770e+02
  -9.687276e+01   1.302697e+02
  -9.890286e+01   5.916746e+01
  -4.074202e+01  -5.790460e+01
   2.123556e+01  -2.416353e+01
   1.241063e+01   1.399598e+01
  -8.022199e+01   1.035914e+01
  -1.090698e+02  -9.325150e+01
  -3.847219e+01  -1.410766e+02
   1.132609e+02  -1.813253e+02
   2.778200e+02  -6.896353e+01
   2.276259e+02   1.843973e+02
   8.454137e+01   2.447492e+02
  -1.107510e+02   1.602338e+02
  -1.558591e+02   3.365768e+01
  -1.020054e+02  -6.158631e+01
  -4.110692e+01  -2.632020e+01
  -8.270732e+01   1.663427e+01
  -8.812442e+01   4.596486e+01
  -5.270212e+01  -8.632210e+01
   4.412405e+01  -7.458506e+01
   9.904411e+01  -4.991263e+01
   5.848026e+01   7.049162e-01
   7.857429e+00   8.944653e+01
  -1.557996e+02   5.504292e+01
  -1.874151e+02  -1.942325e+01
  -1.042279e+02  -1.894647e+02
   9.936990e+01  -2.372260e+02
   2.535239e+02  -6.527530e+01
   3.023083e+02   7.990556e+01
   1.285294e+02   1.806884e+02
  -6.365199e+01   1.534144e+02
  -1.354608e+02   7.666084e+01
  -7.853326e+01   5.500226e+01
  -4.773696e+01   1.438442e+02
  -6.134090e+01   9.832750e+01
  -1.354549e+02  -1.827613e+00
  -1.232174e+02  -1.814922e+02
  -6.021181e+01  -2.598669e+02
   1.198256e+02  -2.264994e+02
   2.353757e+02  -1.725773e+01
   1.735563e+02   1.531822e+02
   2.170681e+01   2.184487e+02
  -9.529094e+01   1.163158e+02
  -8.672122e+01   3.010810e+00
  -1.264019e+01  -5.778773e+01
  -5.785583e+00  -1.624076e+01
  -3.271065e+01   6.057834e+00
  -9.371513e+01   3.221634e+00
  -8.398599e+01   2.325809e+00
   3.580279e+01  -4.436062e+01
   1.485097e+02  -3.776104e+01
   1.589233e+02   3.356978e+01
   7.389723e+01   8.809201e+01
  -7.683542e+01   5.818390e+01
  -1.294865e+02  -2.431500e+01
  -6.351147e+01  -3.586463e+01
   5.752466e+01  -7.056200e+01
   9.472692e+01   5.735324e+01
   2.350718e+01   6.492262e+01
  -7.867484e+01   7.642491e+01
  -2.765117e+01  -3.897140e+01
  -4.606870e+01  -4.422691e+01
  -4.866899e+01  -9.268308e+01
  -5.712577e+01  -1.754551e+01
  -5.189013e+01  -3.301669e+01
  -5.067312e+01  -6.342419e+01
   5.843824e+01  -1.218183e+02
   1.180267e+02  -1.058691e+02
   1.324320e+02  -2.620064e+01
   1.503609e+02   8.009598e+01
  -1.093667e+01   1.137277e+02
  -2.713987e+01   5.494002e+01
  -4.335555e+01  -5.175292e+01
   7.596106e+01  -4.342466e+00
   1.778865e+02   3.696382e+01
   4.824595e+01   9.862876e+01
  -8.927320e+01   1.361979e+02
  -1.790220e+02   1.122382e+02
  -1.054966e+02  -1.847747e+01
  -2.138840e+01  -5.156060e+01
   2.826200e+01  -6.710109e+01
   4.543024e+01  -2.147335e+00
  -3.632510e+01   3.797297e+01
  -1.259357e+02  -8.293692e+01
  -5.643774e+01  -1.436123e+02
   1.085331e+02  -1.741230e+02
   1.731285e+02  -5.942632e+01
   1.677882e+02   1.505413e+02
   7.846932e+00   1.778343e+02
  -1.224772e+02   1.301641e+02
  -7.821232e+01   7.272100e+00
  -2.449944e+01  -8.934234e+01
   2.768077e+01  -9.208776e+01
   5.295623e+01  -3.961064e+01
   1.786406e+01   3.794316e+01
  -2.231527e+00   4.492956e+01
  -3.086573e+00  -4.625730e+01
   3.479418e+01   2.475904e+01
   5.505619e+01   6.228585e+01
  -1.029634e+01   7.009355e+01
  -3.946507e+01   4.801830e+01
  -1.381049e+02  -6.155184e+01
  -1.278007e+02  -1.046961e+02
   2.170100e+00  -5.546542e+01
   8.590848e+01  -3.445516e+01
   5.228541e+01  -2.006138e+01
   7.854428e+00   2.124996e+01
  -1.147558e+01   2.385069e+01
  -1.409679e+01  -7.111271e+00
   5.183723e+01  -5.500974e+00
   9.514870e+00   1.382299e+01
   7.477473e+00   2.773667e+01
  -9.655094e+01  -3.697930e+01
   4.977351e+00  -6.476947e+01
   1.285355e+02  -1.052181e+02
   1.858549e+02  -8.975174e+01
   8.924960e+01   7.132705e+01
   3.320459e+01   1.868597e+02
  -7.225204e+01   1.331427e+02
  -1.244439e+02   7.303203e+00
  -4.772776e+01  -3.613006e+01
  -2.118595e+01  -4.472093e+00
  -4.378973e+01  -2.677571e+01
  -7.671657e+00  -5.215074e+01
  -3.732672e+01  -5.106720e+01
  -5.325797e+00  -1.020122e+02
   2.240792e+01  -5.229891e+01
   1.456479e+02   2.609676e+01
   8.399473e+01   9.969622e+01
  -6.294146e+00   1.008635e+02
  -1.131461e+02   3.756402e+01
  -1.402681e+02  -9.125166e+01
  -2.806765e+01  -9.358569e+01
   4.708079e+01  -7.165606e+01
   1.085243e+02   2.720600e+01
   6.223561e+01   7.053433e+01
  -7.149300e+01   4.358806e+01
  -3.158266e+01   1.809096e+01
   1.364706e+01  -4.053700e+00
   1.251083e+02  -1.405514e+00
   2.393369e+01   3.078365e+01
  -5.103381e+01   8.644730e+01
  -1.177601e+02   1.022015e+02
  -1.017615e+02  -2.037374e+01
   1.738147e+01  -1.397914e+02
   6.208684e+01  -7.685153e+01
   2.370143e+01  -4.589567e+01
   5.617195e+00   5.620358e+01
  -1.850593e+01   4.736258e+01
  -3.915234e+01  -1.878382e+01
  -3.615440e+01  -6.601981e+01
   6.350182e+01  -2.670696e+01
   2.235114e+01  -2.187937e+01
   5.349702e+01   2.843943e+01
   3.084258e+01  -5.587956e+00
   2.507368e+01  -2.155388e+01
  -3.667934e+01   2.167058e+00
   7.445314e+00   2.387676e+01
  -1.631319e+01   3.191658e+01
  -4.925019e+01  -5.326636e+00
  -1.623203e+01  -3.104869e+01
   4.346234e+01  -6.496510e+01
   3.241350e+01  -4.299467e+01
   1.399330e+01   2.872371e+01
   1.516494e+01   6.242317e+01
  -7.494719e+01   3.478439e+01
  -1.185914e+02  -3.225501e+01
  -6.017407e+01  -5.448125e+01
   7.456061e+01  -7.131505e+01
   1.199889e+02  -2.669175e+01
   6.020416e+01   2.904242e+01
   3.078623e+00  -2.906480e+01
  -1.790583e+01  -3.567410e+01
   2.087309e+01  -2.222718e+01
   8.840585e+01   3.787604e+01
