
 $NMID
 id='ANONYMOUS ', fmtdat='(2E16.6)'
 volume=1.0
 tramp=1.0
 $END
  -4.408600e+03   2.179281e+02
  -2.572444e+03  -2.814756e+03
   7.737948e+02  -3.036614e+03
   2.289665e+03  -7.318509e+02
   1.005175e+03   6.696322e+02
  -7.630175e+02   7.372366e+02
  -1.118452e+03  -4.309023e+02
   3.773565e+01  -1.197321e+03
   9.174698e+02  -8.371272e+02
   1.148396e+03   1.284697e+02
   4.889929e+02   1.035005e+03
  -3.063050e+02   8.740011e+02
  -6.893358e+02   1.542681e+02
  -3.556116e+02  -7.899461e+02
   3.421491e+02  -8.362636e+02
   6.922655e+02   6.800703e+01
   2.472489e+02   8.069512e+02
  -2.920901e+02   6.220969e+02
  -6.490916e+02   3.033695e+01
  -3.818817e+02  -3.915664e+02
   5.928790e+01  -5.260818e+02
   2.891726e+02  -2.801430e+02
   2.241200e+02   4.126092e+01
  -1.931381e+02   7.009129e+01
  -4.498564e+02  -7.943454e+01
  -2.953487e+02  -4.956618e+02
   4.721171e+02  -5.303855e+02
   8.638347e+02   6.335429e+01
   4.473732e+02   5.757173e+02
  -4.205630e+02   5.561025e+02
  -7.818494e+02   1.059468e+01
  -3.717909e+02  -5.071564e+02
   2.655464e+02  -5.577418e+02
   6.106000e+02  -2.446829e+02
   3.998416e+02   2.458369e+02
   5.979577e+01   5.330620e+02
  -3.233412e+02   2.748223e+02
  -2.496919e+02  -1.856448e+02
   1.411995e+02  -4.679131e+02
   4.416792e+02  -2.794333e+01
   2.868657e+02   7.219336e+02
  -2.964469e+02   7.455941e+02
  -6.502408e+02  -1.237995e+00
  -2.962548e+02  -6.038421e+02
   3.289757e+02  -4.086117e+02
   4.611518e+02   3.408266e+02
   2.084801e+01   6.210121e+02
  -5.984644e+02   1.994834e+02
  -6.325817e+02  -3.424888e+02
  -1.929565e+02  -6.286483e+02
   3.833180e+02  -3.743525e+02
   6.491478e+02   6.020372e+01
   3.994781e+02   4.782054e+02
  -2.144102e+02   4.414552e+02
  -4.972037e+02   8.465770e+01
  -2.305720e+02  -2.320075e+02
   1.497768e+02  -1.340144e+02
   1.531110e+02   1.493683e+02
  -2.389383e+02   1.572349e+02
  -4.448501e+02  -5.667030e+01
  -1.835790e+02  -3.520864e+02
   2.268580e+02  -2.582048e+02
   3.631156e+02  -5.631675e+01
   1.865270e+02   8.015421e+01
  -6.922931e+01   1.871137e+02
  -2.457911e+02   2.755178e+02
  -3.532577e+02   2.465811e+02
  -2.949066e+02  -1.554328e+02
  -4.540315e+01  -4.878138e+02
   1.771711e+02  -4.093971e+02
   1.569534e+02  -8.195388e+01
  -1.703693e+01   1.530849e+01
   3.183922e+01  -1.182537e+02
   2.400336e+02  -1.952283e+02
   2.837937e+02   5.063639e+01
   2.093890e+02   2.921300e+02
  -5.146327e+01   3.027948e+02
  -2.507665e+02   2.177334e+01
  -1.666675e+02  -2.071998e+02
  -2.805285e+01  -3.169470e+02
   2.805681e+02  -1.596325e+02
   3.922878e+02   1.460310e+02
   1.924540e+02   3.380593e+02
  -9.251236e+01   3.758862e+02
  -2.577166e+02   1.185559e+02
  -2.052513e+02  -4.520362e+01
  -9.264945e+01   2.687160e+00
  -2.385816e+02   4.769914e+01
  -4.067914e+02  -7.283544e+00
  -3.789150e+02  -2.527365e+02
  -3.011088e+01  -4.413923e+02
   3.403339e+02  -4.089084e+02
   4.784993e+02  -2.582828e+02
   3.305825e+02   7.392712e+01
   8.836803e+01   2.816847e+02
  -1.304741e+02   2.922518e+02
  -8.102580e+01   7.045924e+01
   1.021376e+02  -1.232199e+02
   2.408970e+02   3.061619e+01
   2.811396e+01   2.285898e+02
  -2.110026e+02   1.859483e+02
  -1.907817e+02  -3.443425e+01
   1.580971e+01  -1.689993e+02
   1.901499e+02  -2.534629e+01
   1.350452e+02   2.658299e+02
  -4.085296e+01   3.512663e+02
  -2.186672e+02   2.073858e+02
  -3.782635e+02  -7.408396e+01
  -3.011098e+02  -2.956534e+02
  -1.166768e+02  -3.258463e+02
   1.095516e+02  -1.811071e+02
   1.778901e+02  -5.398319e+00
   9.910034e+01  -1.063678e+01
  -3.888392e+01  -5.234754e+01
   1.282498e+01  -1.400274e+02
   1.004685e+02  -1.441278e+02
   1.807114e+02   1.553544e+01
   3.043322e+01   6.540322e+01
  -7.396881e+01   2.996969e+01
  -7.478785e+01  -1.025048e+02
   1.144589e+02  -1.072446e+02
   2.766144e+02  -1.197918e+01
   2.525702e+02   1.350222e+02
   9.505132e+01   2.622234e+02
  -1.670600e+02   2.693236e+02
  -3.026678e+02   1.282204e+02
  -2.045913e+02  -4.623315e+01
   3.926914e+01  -1.219301e+02
   1.113568e+02  -4.788616e+00
  -5.502351e+01   7.475165e+01
  -1.905888e+02   4.764573e+01
  -2.522835e+02  -9.012394e+01
  -9.440769e+01  -1.779700e+02
   9.534758e+01  -1.791644e+02
   1.600435e+02  -6.847079e+01
   8.966075e+01  -2.878082e+00
  -1.442618e+01   3.664554e+01
  -3.337615e+01  -5.744233e+01
   5.959814e+01  -1.030569e+02
   2.105790e+02   1.319441e+01
   1.913477e+02   1.166153e+02
   2.695725e+01   2.299195e+02
  -1.803955e+02   1.517592e+02
  -2.174019e+02   7.352231e+00
  -5.795332e+01  -1.125827e+02
   6.133981e+01  -1.212929e+02
   8.883635e+01  -2.181355e+01
   2.757135e+01   1.633746e+01
   8.426898e-01   3.468830e+01
   1.714323e+01   3.686311e+00
   6.224514e+01  -5.131675e+00
   9.309189e+01   8.977093e+01
   2.243463e+01   1.491325e+02
  -1.260403e+02   1.722789e+02
  -2.445532e+02   5.154996e+01
  -2.376527e+02  -1.545301e+02
  -2.432754e+01  -2.317831e+02
   1.087103e+02  -1.851275e+02
   1.224039e+02  -3.485298e+01
   3.947093e+01   7.918835e+01
   1.367725e+01   2.155749e+01
   6.367940e+01  -1.382998e+01
   8.120847e+01  -3.551613e+00
   6.509542e+01   5.367904e+01
  -8.020012e+01   1.003217e+02
  -9.067355e+01   2.883309e+01
  -6.233779e+01  -8.304148e+01
   3.367435e+01  -1.437872e+02
   1.596679e+02  -6.068134e+01
   1.864310e+02   1.174118e+02
   8.858489e+01   2.300170e+02
  -9.730318e+01   2.648710e+02
  -2.677803e+02   1.096649e+02
  -2.542743e+02  -1.063810e+02
  -8.923808e+01  -1.827651e+02
   6.704266e+01  -1.763693e+02
   7.260927e+01  -5.258059e+01
   8.537043e+01  -6.145309e+01
   1.004040e+02  -1.114809e+02
   9.794711e+01  -5.667798e+01
   1.443965e+02   7.831226e+00
   1.043201e+02   1.391510e+02
   7.062573e+00   2.368892e+02
  -9.711438e+01   1.960678e+02
  -1.994590e+02   1.204022e+01
  -1.453670e+02  -1.517243e+02
   5.670227e+00  -1.107640e+02
   5.732565e+01  -6.681315e+01
   4.403318e+01  -1.882482e+01
   1.486355e+01   3.237798e+01
  -2.283777e+01   4.124775e+01
   3.738649e+01   3.418289e+01
   9.267055e+01   5.313173e+01
   7.071192e+01   1.492014e+01
  -8.557225e+01   3.276082e+01
  -1.954251e+02  -5.545340e+01
  -1.590909e+02  -6.446837e+01
   2.559742e+00  -1.374589e+02
   1.273470e+02  -8.918759e+01
   1.441499e+02  -2.742819e+01
   8.322748e+00   5.313389e+01
  -5.167469e+01   4.830147e+01
  -6.436544e+01  -2.254096e+01
  -3.000986e+00  -3.640469e+01
   2.446998e+01  -3.953300e+01
   7.497552e+01  -4.542061e+01
   4.553905e+01   5.001493e+00
   7.428336e+01   1.774979e+01
   4.268188e+01   6.095071e+00
   6.690982e+01   1.563022e+01
   5.188571e+01   6.202231e+01
  -2.420107e+01   1.405795e+02
  -8.012834e+01   1.848316e+02
  -1.482342e+02   1.676053e+01
  -1.342936e+02  -1.138059e+02
   2.140031e+01  -1.090769e+02
   7.550741e+01  -4.603822e+01
   6.832293e+01   4.225887e+01
  -7.260315e+01   2.528549e+00
  -1.420826e+02  -3.680317e+01
  -1.047606e+02  -1.168322e+02
   8.151944e+01  -1.175286e+02
   1.730329e+02  -8.559155e+01
   1.432251e+02   4.622550e+01
   8.516960e+00   1.108529e+02
  -9.947454e+01   1.009045e+02
  -2.542597e+01  -2.151564e+01
   7.161573e+01  -4.338702e+01
   9.667345e+01   3.633826e+01
   2.092849e+01   1.406478e+02
  -8.992726e+01   1.531077e+02
  -1.930190e+02   7.027180e+01
  -1.802480e+02  -8.122349e+01
  -5.188472e+01  -1.843709e+02
   1.008500e+02  -1.278645e+02
   8.400614e+01  -6.720707e+00
   1.011510e+02   1.202605e+02
  -1.575588e+00   9.127991e+01
  -4.233028e+01   2.955281e+01
  -3.159049e+01  -9.681167e+00
  -1.511063e+01  -2.137476e+01
  -1.811007e+01   3.789172e+01
  -4.802722e+01  -6.595425e+00
  -4.252284e+01  -8.302258e+01
  -5.064379e+01  -1.390794e+02
   1.639762e+01  -1.529951e+01
   8.839310e+01   3.878612e+01
   1.169276e+02   7.720245e+01
   1.733500e+01   5.194243e+01
  -5.244493e+01   2.875127e+01
  -9.573883e+01  -3.894154e+01
  -3.197410e+01   4.096237e+01
   1.767650e+01  -3.087133e+01
  -5.347406e+00  -4.372810e+01
  -2.795114e+01  -2.602619e+01
   3.765962e+01  -9.547749e-01
   1.060088e+02  -3.724986e+01
   7.360018e+01   3.902438e+01
  -7.260699e+00   5.366644e+01
  -1.435159e+02   8.608021e+01
  -1.874483e+02   3.460925e+01
  -1.183112e+02  -6.751256e+01
  -1.042917e+01  -1.409839e+02
   2.658512e+01  -1.251321e+02
   1.113583e+02  -1.254289e+02
   7.458480e+01  -2.180944e+01
   1.607244e+01   9.989235e+00
  -9.716394e+00   1.686207e+01
   2.669827e+01   1.517794e+01
   2.670117e+01   4.157294e+01
   2.001730e+01   6.359550e+01
  -3.475608e+01   6.372398e+01
  -8.472473e+01   9.126190e+00
  -6.532244e+01  -1.468765e+02
   1.151158e+01  -1.286929e+02
   6.036276e+01  -1.732469e+01
   1.385751e+02   9.112563e+01
   4.845927e+01   1.143243e+02
  -8.784549e+01   5.113276e+01
  -1.018454e+02  -2.756950e+01
  -2.409842e+01  -4.840662e+01
   5.406965e+01  -3.422216e+01
   1.273333e+01  -7.358102e+00
  -3.288160e+01  -1.481603e+01
  -9.082039e+01  -9.521975e+00
   2.040773e+01  -3.987332e+01
   1.113046e+02  -4.963968e+01
   9.009859e+01  -4.044355e+01
   4.644726e+01   7.526752e+01
  -1.242215e+01   8.271217e+01
  -4.483868e+01   5.215141e+01
  -1.468308e+01   3.796228e+00
  -1.561387e+01  -8.036151e+01
   1.726328e+01  -6.520464e+01
   3.419683e+01   4.914236e+01
   1.267891e+01   3.836400e+01
  -2.016694e+01  -9.534187e+00
  -2.696706e+01  -6.149772e+00
  -3.855018e+01   2.212124e+01
  -3.308647e+01  -4.091321e+01
  -1.294535e+01   2.473809e+01
  -3.575455e+01   2.751139e+01
  -3.086293e+01  -3.100413e+01
   1.965713e+01  -2.187109e+01
   3.521923e+01  -1.225537e+00
   2.643162e+01   3.175789e+01
   3.664271e+01   2.739611e+01
  -4.195154e+01   1.333127e+01
  -4.107372e+01  -1.389814e+01
  -2.101651e+01  -2.812320e+01
   7.437808e+01  -3.035626e+01
   1.019524e+02   3.912031e+01
   8.053553e+01   1.072247e+02
  -5.490464e+01   1.297409e+01
  -8.199461e+01   2.932649e+01
   1.380167e+01   5.272281e+00
   3.924202e+01   1.116898e+01
   6.295593e+01   6.232432e+01
  -3.463249e+01   3.714570e+01
  -7.980831e+01  -2.447404e+01
