
 $NMID
 id='ANONYMOUS ', fmtdat='(2E16.6)'
 volume=1.0
 tramp=1.0
 $END
  -3.817632e+03   1.161925e+02
  -2.389487e+03  -2.284694e+03
   3.759119e+02  -2.552386e+03
   1.843487e+03  -1.045616e+03
   9.662405e+02   3.758107e+02
  -3.496100e+02   4.100022e+02
  -7.160394e+02  -2.504804e+02
  -7.999346e+01  -8.562225e+02
   5.621223e+02  -7.585109e+02
   8.326594e+02   3.639053e+00
   4.466993e+02   7.466805e+02
  -5.453268e+01   8.454884e+02
  -5.270786e+02   2.329498e+02
  -3.731536e+02  -6.251096e+02
   2.321875e+02  -6.927477e+02
   5.618382e+02  -9.252467e+01
   3.433488e+02   6.814886e+02
  -2.632217e+02   5.617685e+02
  -5.482804e+02   2.272626e+02
  -3.991147e+02  -3.219111e+02
  -5.569624e+01  -4.060107e+02
   1.894462e+02  -2.458232e+02
   2.384918e+02  -5.089662e+01
  -7.047925e+01  -4.835159e+01
  -3.661048e+02  -1.156479e+02
  -1.444095e+02  -4.789553e+02
   5.444421e+02  -3.536609e+02
   8.420196e+02   1.404475e+02
   3.930436e+02   5.055603e+02
  -3.805658e+02   3.801832e+02
  -6.790824e+02  -9.975273e+01
  -3.313289e+02  -4.510690e+02
   2.356458e+02  -4.627118e+02
   5.000209e+02  -1.895399e+02
   4.228897e+02   1.781213e+02
   9.065198e+01   4.299064e+02
  -1.396030e+02   2.872258e+02
  -8.966827e+01  -1.918342e+02
   2.029371e+02  -3.306755e+02
   3.793301e+02   3.495205e+01
   2.011468e+02   6.741965e+02
  -2.948969e+02   6.802064e+02
  -5.597097e+02   5.791539e+01
  -2.428535e+02  -4.406893e+02
   2.164326e+02  -2.501479e+02
   2.989049e+02   2.776282e+02
  -2.040073e+01   4.898388e+02
  -4.838936e+02   1.276611e+02
  -5.414703e+02  -3.521609e+02
  -2.074023e+02  -5.449113e+02
   3.424602e+02  -3.448306e+02
   6.308325e+02  -1.768706e+00
   4.121345e+02   3.292125e+02
  -9.378690e+01   3.502657e+02
  -3.976653e+02   1.012250e+02
  -2.613595e+02  -1.658481e+02
   4.238346e+01  -1.440705e+02
   1.405507e+02   9.841682e+01
  -1.039945e+02   1.921402e+02
  -3.003039e+02  -1.770474e+01
  -1.597245e+02  -2.384658e+02
   1.160546e+02  -3.008234e+02
   3.237230e+02  -1.076481e+02
   2.535254e+02   3.582323e+01
   3.360479e+01   2.495780e+02
  -2.318695e+02   3.876461e+02
  -3.827808e+02   2.542265e+02
  -3.229853e+02  -1.177512e+02
  -7.656168e+01  -3.900973e+02
   5.337010e+01  -3.919977e+02
   6.731842e+01  -1.139891e+02
   5.032228e+01  -1.987140e+01
   7.539019e+01  -4.769469e+01
   1.869781e+02  -1.263468e+02
   2.393482e+02   5.490511e+01
   1.067124e+02   2.697692e+02
  -5.173015e+01   2.271068e+02
  -2.032722e+02   2.020897e+01
  -1.798690e+02  -2.504806e+02
   1.227242e+00  -2.913347e+02
   2.285675e+02  -1.324892e+02
   3.413236e+02   1.261178e+02
   1.908257e+02   3.119259e+02
  -6.900383e+01   2.850394e+02
  -1.437727e+02   1.194609e+02
  -1.213614e+02   2.966201e+01
  -8.790664e+01   6.896553e+01
  -2.481734e+02   1.084287e+02
  -3.461873e+02  -2.419952e+01
  -3.221723e+02  -2.718000e+02
  -2.696175e+01  -4.609815e+02
   3.434642e+02  -4.479904e+02
   4.988116e+02  -2.205851e+02
   3.808844e+02   1.146006e+02
   2.882879e+01   3.400820e+02
  -1.495288e+02   3.129068e+02
  -6.072041e+01   5.786169e+01
   1.246736e+02  -9.563216e+01
   1.729348e+02   2.090857e+01
   3.269324e+01   1.970020e+02
  -1.874306e+02   1.452394e+02
  -1.965838e+02  -2.670605e+01
  -3.285735e+01  -1.674599e+02
   1.383621e+02  -7.237173e+01
   2.182379e+02   1.935437e+02
   3.947944e+01   3.200296e+02
  -1.601825e+02   2.545511e+02
  -3.675341e+02  -1.691377e+01
  -2.950955e+02  -2.132232e+02
  -1.172550e+02  -2.765415e+02
   1.313747e+02  -1.823888e+02
   1.872372e+02  -1.398222e+01
   9.547925e+01   6.040407e+01
  -2.864201e+01  -5.273873e+01
  -3.429837e+01  -1.020661e+02
   1.076166e+02  -1.094107e+02
   1.308601e+02   3.705887e+01
   4.977930e+01   7.848053e+01
  -7.703444e+01   5.225818e+01
  -6.446076e+01  -5.253494e+01
   9.027034e+01  -7.169676e+01
   2.514519e+02  -4.218820e+01
   3.115705e+02   1.136864e+02
   6.112519e+01   2.219911e+02
  -1.819563e+02   2.584125e+02
  -2.878715e+02   1.056099e+02
  -1.806112e+02  -4.391165e+01
   1.942953e+00  -9.326001e+01
   1.004855e+02  -4.006366e+01
  -2.427818e-01   8.485708e+01
  -1.525231e+02   8.747634e+01
  -1.872954e+02  -8.249154e+01
  -8.265001e+01  -1.787898e+02
   1.408729e+02  -1.546180e+02
   1.745670e+02  -8.652281e+00
   9.398757e+01   7.801715e+01
  -2.595888e+01   2.967022e+01
  -7.167827e+01  -1.233695e+02
   5.921219e+01  -1.239773e+02
   1.742887e+02  -1.665187e+01
   2.398028e+02   1.365668e+02
   7.588141e+01   2.240627e+02
  -1.405679e+02   1.599350e+02
  -2.155435e+02  -2.236965e+01
  -6.461420e+01  -1.443378e+02
   3.140885e+01  -8.719336e+01
   7.934623e+01  -5.182990e+01
   3.517194e+00   3.843309e+01
  -5.443664e+00  -1.474178e+00
   3.678495e+01   4.303123e+00
   6.646201e+01  -9.485289e+00
   1.199614e+02   1.021377e+02
   1.437746e+01   2.003132e+02
  -1.346256e+02   1.696365e+02
  -2.190269e+02   5.357978e+00
  -2.005739e+02  -1.416538e+02
  -5.018737e+01  -2.045435e+02
   8.299598e+01  -1.603126e+02
   1.379678e+02  -1.021101e+01
   6.440706e+01   4.539169e+01
   1.441495e+01   1.219654e+01
   5.020884e+01   1.743788e+01
   9.628700e+01  -5.955775e+00
   5.150881e+01   5.650947e+01
  -5.101968e+01   9.088753e+01
  -1.089792e+02   5.668542e+01
  -1.302704e+02  -6.966870e+01
   1.774917e+01  -1.420861e+02
   1.359573e+02  -8.109126e+01
   2.141553e+02   8.827142e+00
   1.228913e+02   1.613518e+02
  -6.173947e+01   2.281748e+02
  -2.773579e+02   1.417237e+02
  -2.683099e+02  -7.508448e+01
  -9.622359e+01  -1.404650e+02
   1.967002e+01  -1.414338e+02
   9.047197e+01  -1.039003e+02
   6.669840e+01  -1.070498e+02
   6.170108e+01  -1.586019e+02
   8.984989e+01  -9.010219e+01
   1.370663e+02  -1.436315e+01
   1.447952e+02   1.690735e+02
   3.295594e+01   2.350122e+02
  -1.313450e+02   1.575028e+02
  -2.099082e+02   3.421087e+01
  -1.362834e+02  -1.362124e+02
   5.045324e+01  -1.721295e+02
   8.036327e+01  -1.091897e+02
   4.268106e+01  -5.649792e-01
  -3.061173e+00   2.722155e+01
  -7.695778e-01   7.382960e+01
   2.613383e+01   3.016434e+01
   8.972749e+01   5.677032e+00
   5.413869e+01   5.176404e+01
  -3.253862e+01   3.042309e+01
  -1.679739e+02   1.938617e+01
  -1.350121e+02  -6.651258e+01
   3.623672e+01   9.010271e-01
   9.685267e+01  -9.912915e+01
   1.022475e+02  -1.861914e+01
   4.127695e+01  -2.671392e+00
  -4.992543e+01  -7.344284e+00
  -1.253433e+02  -4.272426e+01
  -7.214052e+00  -7.951959e+01
   5.112833e+01  -4.812556e+01
   7.619218e+01   2.921676e+01
   6.582080e+01   6.271006e+01
   4.956051e+01   2.912826e+01
   3.277869e+01   1.601080e+00
   6.498265e+01  -2.023201e+01
   5.090688e+01   8.038999e+01
  -1.250129e+01   1.375963e+02
  -1.183073e+02   1.498463e+02
  -1.823916e+02   4.754569e+01
  -1.561814e+02  -4.304872e+01
   1.205818e+01  -1.544472e+02
   9.553620e+01  -8.934568e+01
   7.667074e+01  -3.345330e+01
  -5.138189e+01   9.965389e+00
  -1.069822e+02  -4.091727e+01
  -7.568837e+01  -1.025973e+02
   1.240814e+02  -1.205170e+02
   2.554782e+02  -2.558266e+01
   1.826346e+02   3.297019e+01
   8.247470e+00   9.496255e+01
  -9.953890e+01   5.872613e+01
  -5.051493e+01   1.552515e+01
  -3.676531e+00  -4.734028e+01
   1.026249e+02   6.249262e+01
   4.023324e+01   1.028921e+02
  -1.126906e+02   1.487191e+02
  -1.879229e+02   7.622298e+01
  -1.363766e+02  -9.772883e+01
   3.865089e+00  -2.100457e+02
   1.004437e+02  -1.406078e+02
   1.221862e+02   2.235387e+01
   3.988646e+01   1.190119e+02
  -3.599959e+00   1.330642e+02
  -2.336622e+01   3.538405e+01
  -8.870759e+01  -1.020098e+01
  -1.342447e+01  -1.618544e+00
  -2.712579e+00   7.208092e+00
   1.043308e+01  -1.117237e+01
  -8.515511e+01  -3.495987e+01
  -4.722180e+01  -5.673756e+01
   3.800021e+01  -1.427223e+01
   1.521276e+02   1.049203e+01
   1.066524e+02   2.827703e+01
   2.958920e+01   2.546940e+01
  -7.930839e+01   6.028822e+01
  -9.078837e+01   3.601881e+01
  -3.538331e+00   1.258997e+01
   9.944854e+00  -6.229661e+01
  -1.351977e+01  -7.242449e+01
  -1.750135e+01   2.727651e+01
  -9.797856e+00   3.106414e+01
   5.928886e+01   6.417244e+00
   7.496578e+01   7.721419e-01
   1.096373e+01   4.736450e+01
  -1.454067e+02   1.155112e+02
  -1.437641e+02   5.543027e+01
  -1.253768e+02  -2.279943e+01
  -6.918116e+01  -1.182148e+02
   4.444389e+01  -1.337512e+02
   7.868073e+01  -6.231539e+01
   2.912600e+01  -2.455486e+01
   1.236421e+01   3.433213e+01
   4.187208e+01   2.731913e+01
   3.501593e+01   3.885532e+01
   5.118328e+01   4.097970e+01
   2.485227e+01   1.002140e+02
  -3.300707e+01   3.796561e+01
  -9.802407e+01   3.674208e-01
  -5.758892e+01  -8.439954e+01
  -1.737501e+01  -6.797447e+01
   6.209909e+01  -4.753507e+01
   1.165965e+02   1.544911e+01
   4.217963e+01   6.007665e+01
  -1.835142e+01   2.583104e+01
  -8.981215e+01   3.239810e+01
  -1.459452e+01  -7.734506e+01
   2.853161e+01  -5.435209e+01
   2.163377e+01  -3.397805e+01
  -6.311215e+01   4.234274e+01
  -5.325379e+01   1.474621e+01
  -3.385609e+01  -1.545641e+01
   9.576542e+01  -6.053662e+01
   9.887174e+01  -5.680061e+01
  -4.846536e+00  -5.897761e+00
  -3.153150e+01   7.374969e+01
  -5.196057e+01   1.068758e+02
  -5.198259e+01  -7.284610e+00
   4.690830e+01  -7.289845e+01
   3.173784e+01  -6.985347e+01
   1.908361e+01   4.996322e+01
   3.839220e+01   6.124928e+01
   4.585263e+00   3.928492e+01
  -2.690670e+01  -9.460316e+00
  -3.911690e+01  -6.620338e+01
  -2.688198e+01   1.201864e+01
   3.101284e+00   9.279580e+00
   2.340630e+01  -3.240276e+01
   4.202253e+01  -5.448658e+01
   2.124826e+01  -2.565163e-01
   2.541107e+01  -2.676994e+01
   6.391126e+01   4.319404e+01
  -1.931856e+01   9.530756e+01
  -3.116221e+01   6.181089e+01
  -6.759335e+01   3.692839e+00
  -2.972702e+01  -8.459217e+01
   1.240530e+01  -5.249030e+01
   5.415265e+01  -9.313459e-01
   3.066383e+01   3.211279e+01
  -3.563872e+01   3.604250e+01
  -5.846058e+01   1.831153e+01
  -7.489896e+00   1.179613e+01
   3.549836e+01  -3.441364e+01
   3.184498e+01  -1.706641e+01
  -1.749888e+01   4.100684e+01
  -8.431133e+01   5.531935e+01
