
 $NMID
 id='ANONYMOUS ', fmtdat='(2E16.6)'
 volume=1.0
 tramp=1.0
 $END
   4.050163e+03  -2.626157e+01
   2.621366e+03   2.588802e+03
  -4.579200e+02   2.908399e+03
  -1.877230e+03   1.324828e+03
  -1.078394e+03  -3.384627e+02
   4.241160e+02  -5.149062e+02
   7.593600e+02   4.477180e+02
   6.096637e+01   9.721759e+02
  -6.562759e+02   7.749563e+02
  -9.272904e+02   2.364289e+01
  -5.377810e+02  -7.665154e+02
   1.275380e+02  -8.071431e+02
   5.153144e+02  -2.202477e+02
   3.358733e+02   6.557445e+02
  -2.797965e+02   7.047378e+02
  -6.267229e+02   2.127412e+01
  -3.634220e+02  -6.612009e+02
   2.870132e+02  -7.169281e+02
   6.489152e+02  -1.650241e+02
   4.193285e+02   3.121593e+02
   2.480760e+01   4.020397e+02
  -2.898366e+02   3.099085e+02
  -1.556124e+02   2.628093e+01
   2.447755e+02  -1.059972e+02
   3.443788e+02   2.052527e+02
   1.155705e+02   4.680391e+02
  -4.255303e+02   3.394649e+02
  -8.069687e+02  -1.301958e+02
  -3.985554e+02  -5.162207e+02
   4.040044e+02  -4.414072e+02
   7.250571e+02   1.046737e+02
   2.884567e+02   4.982881e+02
  -2.934020e+02   4.991599e+02
  -5.860752e+02   1.767624e+02
  -4.170564e+02  -1.926999e+02
  -1.200131e+02  -4.015782e+02
   1.763709e+02  -2.642596e+02
   1.482353e+02   2.216720e+02
  -2.049004e+02   3.476361e+02
  -4.228708e+02  -9.346924e+01
  -1.902144e+02  -6.380466e+02
   3.231263e+02  -6.480465e+02
   5.574491e+02  -2.382117e+01
   1.862788e+02   5.846458e+02
  -2.901683e+02   3.239588e+02
  -3.731060e+02  -3.143470e+02
   7.675915e+01  -5.143493e+02
   5.155128e+02  -1.196665e+02
   5.599032e+02   3.809190e+02
   1.610997e+02   6.007657e+02
  -3.945501e+02   3.497955e+02
  -6.352640e+02  -3.195560e+01
  -4.387176e+02  -3.755103e+02
   1.200258e+02  -3.859238e+02
   4.285617e+02  -7.883329e+01
   2.547738e+02   1.422809e+02
  -3.988682e+01   7.286590e+01
  -1.323476e+02  -1.735505e+02
   1.408686e+02  -1.619167e+02
   3.333169e+02   4.011926e+01
   1.446385e+02   2.673621e+02
  -1.952496e+02   2.528154e+02
  -3.429193e+02   7.615788e+01
  -2.217750e+02  -1.523193e+02
   2.210595e+01  -3.002962e+02
   2.911988e+02  -4.046308e+02
   3.765330e+02  -2.060676e+02
   2.611212e+02   1.557930e+02
   6.632026e+01   4.416684e+02
  -1.207189e+02   3.991302e+02
  -1.022903e+02   1.657356e+02
  -8.072100e+01   1.447731e+01
  -9.686072e+01   9.306692e+01
  -2.415388e+02   1.267052e+02
  -2.673301e+02  -7.851169e+01
  -1.362803e+02  -2.752087e+02
   8.871881e+01  -2.768214e+02
   2.470359e+02   1.200923e+01
   1.916057e+02   2.453057e+02
  -1.821142e+01   2.926978e+02
  -3.006599e+02   6.897755e+01
  -3.664733e+02  -1.728138e+02
  -1.893873e+02  -3.745261e+02
   1.279461e+02  -3.192861e+02
   2.691146e+02  -1.587063e+02
   2.149737e+02  -2.137259e+01
   1.169989e+02  -5.739638e+01
   2.461273e+02  -6.636756e+01
   3.746263e+02   1.057510e+02
   3.522974e+02   3.106457e+02
   3.359161e+01   4.728281e+02
  -3.992936e+02   4.457582e+02
  -5.423382e+02   1.745696e+02
  -3.784434e+02  -1.005155e+02
  -3.840890e+01  -3.022092e+02
   1.325021e+02  -2.460103e+02
   9.424332e+01  -4.227081e+01
  -1.054224e+02   5.580359e+01
  -1.455796e+02  -2.534301e+00
   1.962769e+01  -1.781187e+02
   1.587379e+02  -1.550528e+02
   1.341493e+02   7.633853e+01
  -5.250721e+01   1.877104e+02
  -1.959173e+02   1.806097e+01
  -1.674441e+02  -2.644523e+02
   3.624675e+01  -3.766181e+02
   2.680962e+02  -2.111112e+02
   3.513210e+02   8.012041e+01
   2.796990e+02   2.738503e+02
   7.099381e+01   3.053943e+02
  -1.643216e+02   1.952633e+02
  -2.453443e+02   2.756499e+01
  -4.883331e+01  -5.584780e+01
   6.547638e+01   1.047492e+01
   4.442356e+01   1.379850e+02
  -1.679880e+02   8.318728e+01
  -1.752891e+02  -4.983303e+01
   6.305326e+00  -8.214340e+01
   1.176427e+02  -1.699337e+01
   5.238256e+01   8.320235e+01
  -1.413462e+02   1.222900e+02
  -3.131603e+02  -1.459335e+01
  -2.644931e+02  -2.024326e+02
  -2.241157e+01  -2.840575e+02
   2.469303e+02  -2.835024e+02
   3.223294e+02  -6.255783e+01
   1.318211e+02   1.200464e+02
  -3.805582e+01   1.619929e+02
  -8.738187e+01   2.943276e+01
   4.805927e+01  -1.054654e+02
   2.271619e+02  -8.790484e+01
   2.138867e+02   1.246159e+02
   5.979865e+01   2.458630e+02
  -1.228990e+02   1.810315e+02
  -1.583158e+02   6.614437e+01
  -9.919839e+01  -4.738320e+01
   2.618279e+01  -5.590621e+01
   3.947212e+01   4.209067e+01
  -2.083770e+01   7.026076e+01
  -1.762337e+02   7.402926e+00
  -2.122756e+02  -1.358442e+02
  -1.259539e+01  -2.335774e+02
   1.450502e+02  -1.831307e+02
   1.856948e+02  -2.728347e+01
   1.186109e+02   7.723443e+01
  -5.429316e+01   1.536331e+02
  -9.671569e+01   7.324791e+01
  -2.179513e+01   8.746766e+00
   3.361437e+01   1.665491e+00
  -1.781017e+01  -8.085205e+00
  -8.995929e+01  -2.243513e+01
  -9.591698e+01  -5.191609e+01
  -1.758145e+01  -1.661968e+02
   1.516784e+02  -1.445813e+02
   2.771857e+02  -3.990464e+01
   2.250502e+02   1.184414e+02
   6.830983e+01   2.603944e+02
  -1.366837e+02   2.168993e+02
  -1.598609e+02   6.005600e+01
  -1.209255e+02  -5.239208e+01
  -7.853091e+01  -5.501085e+01
  -7.561706e+01  -4.937613e+01
  -6.418967e+01   2.262805e+01
  -4.837117e+01  -6.871461e+01
   7.228168e+01  -1.124838e+02
   1.146219e+02  -9.524155e+01
   8.140079e+01   3.770005e+01
  -3.261294e+00   9.897502e+01
  -1.632993e+02   1.065474e+02
  -1.994754e+02  -4.862931e+01
  -1.025075e+02  -2.218354e+02
   1.268429e+02  -2.112758e+02
   3.144515e+02  -1.378596e+02
   2.842830e+02   9.720401e+01
   1.111956e+02   2.065579e+02
  -3.716847e+01   1.798345e+02
  -1.287718e+02   1.294035e+02
  -5.830242e+01   1.014692e+02
  -3.752021e+01   9.457325e+01
  -5.285763e+01   6.859654e+01
  -1.650474e+02  -5.843195e+01
  -1.682389e+02  -1.897190e+02
   3.183777e+00  -2.320927e+02
   1.033676e+02  -1.565806e+02
   1.983102e+02  -2.309091e+01
   1.118471e+02   1.047281e+02
  -4.197932e+00   2.088432e+02
  -6.537211e+01   1.247260e+02
  -3.246714e+01   1.729541e+01
   1.025751e-01  -1.404683e+00
   5.048579e+00  -1.182709e+01
  -5.133927e+01  -1.285601e+01
  -9.182850e+01   2.167422e+01
  -1.919090e+01  -4.522361e+01
   6.622549e+01  -7.461530e+01
   1.749249e+02  -9.358112e+00
   1.448350e+02   8.400019e+01
   9.779414e+00   1.136052e+02
  -1.454192e+02   1.183588e+02
  -1.916129e+02   4.069144e+01
  -9.490467e+01  -5.321384e+01
   1.324212e+01  -4.557267e+01
   1.105827e+02   2.371740e+01
   4.886585e+01   7.107433e+01
  -4.353550e+01   3.518511e+01
  -8.754187e+01  -1.775655e+01
  -9.149033e+01  -4.425773e+01
  -7.300517e+01  -9.790244e+01
  -1.232099e+01  -9.524468e+00
  -3.156235e+00  -1.431467e+01
  -3.863595e+01  -9.221953e+01
   3.223736e+01  -1.903103e+02
   9.895048e+01  -1.400090e+02
   2.034217e+02  -3.079807e+01
   1.268725e+02   7.708909e+01
   2.368562e+00   1.396163e+02
  -1.108566e+02   4.526323e+01
  -5.906585e+01  -8.095789e+00
   8.874622e+01  -2.888629e+01
   1.821767e+02   5.693002e+01
   5.714123e+01   1.233319e+02
  -1.417969e+02   1.201989e+02
  -1.985714e+02   2.782178e+01
  -1.842857e+02  -5.575957e+01
  -8.830533e+00  -1.127342e+02
   7.267452e+01  -8.158854e+01
   5.312302e+01  -2.520939e+00
  -7.579212e+01   2.349257e+01
  -6.276105e+01  -1.929384e+01
  -2.523231e+01  -1.044650e+02
   9.992835e+01  -1.531614e+02
   1.595620e+02  -8.358520e+01
   1.504267e+02   7.269302e+01
   3.647988e+00   2.475349e+02
  -8.109559e+01   1.681547e+02
  -1.294046e+02   8.899931e+00
  -5.916270e+01  -9.102360e+01
  -6.957012e+00  -9.279442e+01
   1.926060e+00  -1.730763e+01
   6.031806e+01   1.010060e+01
   2.112879e+01   3.804329e+01
  -1.542642e+01   3.434860e+01
   2.831429e+00   2.190367e+01
   2.279302e+01   9.765923e+01
   7.681020e+00   1.513235e+02
  -1.632090e+01   5.067013e+01
  -1.522365e+02  -7.739904e+01
  -1.436171e+02  -5.150761e+01
  -5.909808e+01  -7.166384e+01
   1.480749e+02  -6.702331e+01
   1.164934e+02  -4.128091e+01
   8.230115e+00   4.991138e+00
  -2.591249e+01  -2.367837e+00
  -3.429938e+01   4.953917e+01
  -1.262507e+01   2.778891e+01
  -1.549898e+01  -2.478560e+01
  -8.425768e+01  -3.433118e+01
  -1.264685e+02  -5.363120e+01
  -1.777494e+01  -8.455535e+01
   1.568437e+02  -1.312568e+02
   2.281143e+02  -9.610112e+01
   2.000536e+02   5.007215e+01
   1.786017e+01   1.742134e+02
  -6.293123e+01   1.899567e+02
  -1.169677e+02   8.471073e+01
  -8.740934e+01  -7.378062e+00
   1.965144e+01  -2.392347e+01
   1.016320e+01  -2.444757e+01
  -3.320592e+01  -7.050192e+01
  -9.686572e+00  -5.940636e+01
  -1.456631e+01  -3.229171e+01
   3.835417e+01  -5.658256e+01
   1.026320e+02   4.455012e+01
   9.448080e+01   7.255986e+01
   1.156000e+01   8.666251e+01
  -8.860980e+01   3.221537e+01
  -6.722743e+01  -8.139881e+01
  -1.386628e+01  -9.996571e+01
   3.284563e+01  -2.611109e+01
   6.125302e+01   1.557546e+01
   6.632123e+01   8.153166e+01
  -1.553138e+01   5.914086e+01
  -3.969296e+01  -3.559028e-02
   3.872832e+01   3.525280e+00
   2.571030e+01   6.008587e+01
  -4.455969e+01   4.459937e+01
  -1.020520e+02   6.868638e+01
  -1.567295e+02   6.315407e+01
  -8.320576e+01   2.785121e+01
  -4.329835e+00  -1.189212e+02
   4.754577e+01  -1.302211e+02
   4.087806e+01  -7.799866e+01
  -2.472987e+01   3.698303e+01
  -1.815897e+01   1.900366e+01
  -1.205709e+01   1.209437e+00
  -1.562789e+01  -5.637090e+01
   3.863376e+00  -4.779896e+01
   3.518391e+01   1.890823e+01
   8.029106e+00   4.409629e+01
   2.310764e+01  -4.428643e+01
   3.475511e+01  -7.212236e+00
  -4.472219e+01   1.059670e+01
  -4.163983e+00   6.630857e+01
  -3.421759e+01   4.747443e+01
  -6.075458e+01   3.533783e+01
  -5.532283e+01  -3.417379e+01
   2.167459e+01  -7.151210e+01
   5.103301e+01  -3.027260e+01
   1.471716e+01   4.162730e+01
   1.759808e+01   8.369155e+01
  -3.093803e+01   2.712347e+01
  -1.126491e+02  -7.183564e+00
  -5.450688e+01  -5.294699e+01
   3.013218e+01  -1.748666e+01
   4.449371e+01  -4.313254e-01
   1.328860e+01   6.404500e+01
   1.266329e+01   3.516095e+01
  -6.829986e+01  -2.397742e+01
   1.045721e-01  -6.257809e+01
   5.246300e+01  -4.601836e+01
