
 $NMID
 id='ANONYMOUS ', fmtdat='(2E16.6)'
 volume=1.0
 tramp=1.0
 $END
  -4.504556e+03   3.014678e+02
  -2.936534e+03  -2.495278e+03
   6.549773e+02  -2.897155e+03
   2.088795e+03  -1.115161e+03
   1.149356e+03   4.820015e+02
  -5.875739e+02   6.215730e+02
  -9.029890e+02  -2.946553e+02
  -7.197449e+01  -1.010206e+03
   8.424879e+02  -8.746285e+02
   9.662230e+02  -7.319193e+00
   5.190353e+02   8.339421e+02
  -1.924380e+02   9.923215e+02
  -7.158780e+02   1.937890e+02
  -4.368316e+02  -6.965722e+02
   2.320849e+02  -7.560428e+02
   6.867670e+02  -1.170602e+02
   4.122744e+02   6.904670e+02
  -2.236473e+02   7.107717e+02
  -6.333138e+02   1.391241e+02
  -4.065094e+02  -3.844646e+02
   1.787416e+01  -3.820910e+02
   2.540658e+02  -1.877951e+02
   2.210653e+02  -4.961747e+01
  -1.847610e+02  -2.051782e+01
  -3.226584e+02  -1.094926e+02
  -1.533971e+02  -3.994740e+02
   5.254564e+02  -3.742973e+02
   9.210120e+02   1.352664e+02
   3.920095e+02   5.394870e+02
  -3.422762e+02   4.512281e+02
  -7.023770e+02  -3.499852e+01
  -3.871351e+02  -4.281566e+02
   2.460884e+02  -4.827647e+02
   5.738878e+02  -1.966961e+02
   4.695576e+02   2.542594e+02
   1.351319e+01   4.707595e+02
  -1.779421e+02   2.178594e+02
  -1.699764e+02  -2.304598e+02
   1.859421e+02  -4.523337e+02
   4.725234e+02   3.842743e-01
   2.544116e+02   6.938085e+02
  -2.887433e+02   7.288854e+02
  -6.142230e+02   1.690736e+01
  -2.611305e+02  -5.427461e+02
   3.039492e+02  -3.697731e+02
   4.125057e+02   3.237073e+02
  -7.533327e+01   5.697180e+02
  -6.125587e+02   1.182275e+02
  -6.375839e+02  -4.556791e+02
  -1.519836e+02  -6.393520e+02
   4.278125e+02  -3.347341e+02
   6.960428e+02   8.834835e+01
   4.207579e+02   3.450635e+02
  -1.198384e+02   3.914720e+02
  -5.115149e+02   9.336043e+01
  -3.058324e+02  -2.156447e+02
   1.481906e+02  -1.008090e+02
   1.576501e+02   1.969616e+02
  -1.741104e+02   1.613123e+02
  -3.939378e+02  -5.157632e+01
  -2.024753e+02  -3.198942e+02
   2.063856e+02  -3.326110e+02
   3.816471e+02  -1.004551e+02
   2.095671e+02   5.284496e+01
  -4.317368e+01   2.717458e+02
  -2.399284e+02   3.559131e+02
  -3.658408e+02   1.837700e+02
  -2.619259e+02  -1.733704e+02
  -5.892935e+01  -4.243905e+02
   8.449608e+01  -3.662539e+02
   6.174471e+01  -1.232497e+02
   7.424635e+01  -4.652800e+01
   4.976722e+01  -1.099974e+02
   2.273258e+02  -1.694583e+02
   3.105266e+02   5.582197e+01
   1.580283e+02   2.578070e+02
  -5.442195e+01   2.802887e+02
  -2.323171e+02  -1.709850e+01
  -1.755643e+02  -2.558167e+02
   1.257748e+01  -3.561048e+02
   3.088795e+02  -1.196646e+02
   3.625034e+02   1.515161e+02
   2.069635e+02   3.564655e+02
  -8.944327e+01   3.062669e+02
  -2.333231e+02   1.648576e+02
  -1.583547e+02   1.958610e+01
  -1.076116e+02  -6.593552e-01
  -2.356795e+02   1.194818e+01
  -4.037832e+02  -1.129340e+02
  -2.985309e+02  -2.954053e+02
   2.894860e+01  -4.383226e+02
   3.604678e+02  -4.480028e+02
   5.301535e+02  -2.256837e+02
   3.859693e+02   8.679040e+01
   4.598212e+01   2.930854e+02
  -7.940187e+01   2.846899e+02
  -4.676837e+01   1.517488e+01
   1.011098e+02  -8.149703e+01
   1.473005e+02  -8.821711e+00
   3.012988e+01   2.168287e+02
  -1.430863e+02   2.133242e+02
  -1.740671e+02  -3.414342e+01
   1.539566e+01  -1.951644e+02
   1.573682e+02  -2.070605e+01
   1.689532e+02   1.888689e+02
  -1.024300e+01   3.389317e+02
  -2.662261e+02   2.133696e+02
  -3.313913e+02  -4.355594e+01
  -2.659380e+02  -2.673035e+02
  -1.171724e+02  -3.002195e+02
   1.274884e+02  -2.047193e+02
   2.175796e+02  -6.715272e+00
   9.460180e+01   7.017076e+01
  -9.217190e+01  -6.254286e+01
  -5.735831e+01  -1.346695e+02
   8.029670e+01  -1.160810e+02
   1.885167e+02  -2.358756e+01
   1.148606e+02   6.142796e+01
  -4.540905e+01   3.683748e+01
  -4.691305e+01  -8.328905e+01
   1.563159e+02  -1.124411e+02
   3.119404e+02   3.110217e+01
   3.038005e+02   1.421666e+02
   5.858950e+01   2.603363e+02
  -2.257681e+02   2.493901e+02
  -3.073399e+02   1.230704e+02
  -1.559741e+02  -1.783368e+00
   2.990520e+01  -1.296584e+02
   1.198953e+02  -3.712300e+00
  -6.402968e+01   9.326016e+01
  -1.821617e+02   7.834397e+01
  -2.295037e+02  -9.772106e+01
  -7.932808e+01  -2.213907e+02
   8.225111e+01  -1.905994e+02
   1.530564e+02  -1.369341e+01
   6.939191e+01   1.592970e+01
  -1.914045e+01  -1.570234e+01
  -3.299377e+01  -9.637474e+01
   1.140150e+02  -1.118106e+02
   2.593112e+02   4.392606e+00
   1.917932e+02   1.460688e+02
   2.513746e+01   2.280471e+02
  -1.386071e+02   1.673783e+02
  -1.814818e+02  -8.160345e+00
  -7.304368e+01  -1.060407e+02
   6.381187e+01  -8.019420e+01
   6.359858e+01  -1.082397e+01
  -1.016641e+01   6.253108e+01
  -3.324057e+01   1.224879e+00
   3.861594e+01  -9.152271e+00
   5.460665e+01   8.804133e+00
   7.038411e+01   8.379902e+01
  -3.968785e+01   1.878229e+02
  -1.635976e+02   1.129962e+02
  -2.384057e+02  -6.902443e+00
  -1.987055e+02  -1.468643e+02
  -4.599973e+01  -2.059868e+02
   1.174756e+02  -1.795908e+02
   1.417460e+02  -2.973434e+01
   4.615636e+01   4.423794e+01
   2.617580e+01   3.647569e+01
   4.922895e+01   1.157594e+01
   7.048269e+01  -3.457099e+00
   6.990596e+01   3.047942e+01
  -2.203476e+01   8.314758e+01
  -1.139330e+02   2.807104e+01
  -8.305559e+01  -4.696739e+01
   4.601952e+01  -1.760924e+02
   1.424569e+02  -9.700583e+01
   2.123177e+02   2.123758e+01
   8.127198e+01   2.439336e+02
  -1.409402e+02   2.628397e+02
  -2.844520e+02   1.251715e+02
  -2.996936e+02  -1.142979e+02
  -1.199611e+02  -2.425111e+02
   2.028129e+01  -1.762742e+02
   1.265101e+02  -6.948764e+01
   7.730817e+01  -8.402050e+01
   5.508081e+01  -6.548363e+01
   1.097682e+02  -8.469447e+01
   1.651211e+02   5.748160e+01
   1.629857e+02   1.458757e+02
   6.021172e+01   2.196699e+02
  -1.307665e+02   1.604105e+02
  -2.025093e+02   4.306395e+01
  -1.110411e+02  -1.304365e+02
  -7.586332e+00  -1.996877e+02
   7.911696e+01  -7.533014e+01
   6.650090e+01  -6.470151e+01
   7.429591e+00   4.024196e+01
  -2.229712e+01   2.405251e+01
   1.474846e+01   9.905657e+00
   9.672223e+01   5.386670e+01
   7.398393e+00   6.740228e+01
  -1.022352e+02   3.449267e+01
  -1.464974e+02   2.487679e+01
  -1.283776e+02  -5.070930e+01
  -1.054709e-01  -1.066721e+02
   1.137192e+02  -3.974478e+01
   1.107764e+02  -5.441480e+00
   1.114336e+01   9.678121e+00
  -5.606515e+01   3.175937e+01
  -6.592973e+01  -4.388072e+00
   2.081938e+01  -7.085611e+01
   8.645999e+01  -8.507452e+01
   7.133715e+01  -4.283149e+01
   5.320389e+01   2.743790e+01
   4.408818e+01  -5.829637e+00
   5.149606e+01   1.866071e+01
   6.766144e+01  -6.787623e+00
   7.325363e+01   7.667533e+01
  -1.839126e+01   1.550501e+02
  -1.365441e+02   1.495180e+02
  -1.832541e+02   9.589758e+00
  -1.674952e+02  -1.128062e+02
  -1.586798e+01  -1.320160e+02
   9.535539e+01  -6.769807e+01
   5.975613e+01   5.076307e+01
  -6.324466e+01   3.034795e+01
  -1.464081e+02  -6.747333e+01
  -7.074316e+01  -1.340957e+02
   1.027235e+02  -1.438140e+02
   2.057594e+02  -6.159102e+01
   1.713229e+02   6.518919e+01
   1.786830e+01   7.867792e+01
  -4.753915e+01   6.970728e+01
  -3.838103e+01   2.334546e+01
   6.199054e+01  -2.079188e+01
   1.276469e+02   8.921788e+00
   6.020693e+01   1.099348e+02
  -9.420491e+01   1.822369e+02
  -2.167735e+02   7.778326e+01
  -9.138641e+01  -1.072339e+02
  -8.223409e+01  -1.941781e+02
   9.357736e+01  -1.396293e+02
   1.317173e+02  -2.524743e+01
   9.558773e+01   8.723501e+01
   3.864385e+01   7.909993e+01
  -3.476783e+01  -7.039804e-01
  -8.116958e+01  -2.004760e+01
  -4.610325e+01   9.231702e+00
   8.357530e+00   4.931722e+01
  -2.719922e+00  -1.966970e+01
  -5.261603e+01  -1.185482e+02
  -6.155250e+01  -1.551192e+02
   5.702775e+01  -2.651646e+01
   1.605493e+02  -6.356852e+00
   9.057514e+01   1.160722e+02
   3.968494e+01   5.588232e+01
  -6.297888e+01  -2.152392e+01
  -8.089712e+01  -3.436263e-01
  -7.065806e+00  -2.220295e+00
   1.180643e+01   2.081531e+01
   1.203654e+01   3.072948e+01
  -5.714842e+01   1.840341e+00
  -2.700270e+01  -1.337551e+01
   4.929452e+01   3.098257e+01
   8.368433e+01   1.868938e+01
  -1.957121e+01   8.603968e+01
  -1.162352e+02   1.137234e+02
  -1.945047e+02   2.282382e+01
  -1.494945e+02  -9.135048e+01
  -5.275553e+00  -1.727847e+02
   1.032686e+02  -1.612403e+02
   1.668267e+02  -4.745812e+01
   8.055798e+01   1.935351e+01
   2.347279e+01   5.409238e+01
   3.140064e+01   4.605113e+00
   1.502147e+01  -2.120047e+01
   2.651041e+01   3.076631e+01
   4.124609e+01   1.450480e+02
  -1.572934e+01   8.904582e+01
  -9.687827e+01  -7.000006e+00
  -7.319171e+01  -1.304947e+02
   7.638764e+00  -1.501014e+02
   1.318259e+02  -5.590740e+01
   1.161685e+02   6.331850e+01
   3.649994e+01   1.394884e+02
  -9.265135e+01   6.360824e+01
  -4.310222e+01  -2.365212e+01
  -6.977550e+01  -8.298653e+01
   5.411088e+01  -6.905538e+01
   5.865983e+01  -4.424806e+01
  -4.822987e+01  -2.497940e+00
  -5.975888e+01   2.099983e+00
  -1.083614e+01  -3.535241e+01
   5.981321e+01  -2.993742e+01
   1.192197e+02  -7.351045e+01
   4.412113e+01   2.024874e+01
  -1.201708e+00   5.787589e+01
  -9.085475e+01   7.679971e+01
  -3.476473e+01  -3.462126e-01
   1.810207e+01  -4.320550e+00
   1.081805e+01  -3.175201e+01
  -2.955873e+01   2.010989e+01
   6.436439e-01   5.956968e+01
  -8.801806e+00   5.379981e+01
  -2.341305e+01   1.087647e+01
  -3.209902e+01  -2.644880e+01
  -6.426096e+01  -4.059831e+00
  -1.990542e+01  -1.903859e+00
  -2.574708e+00  -2.989305e+01
   1.084061e+01  -7.984750e+01
   3.808901e+01  -7.369040e+01
   7.363207e+01  -6.180810e+00
   4.845416e+01   4.796955e+01
   2.687962e+01   6.340213e+01
  -4.751333e+01   3.039795e+01
  -2.123848e+01  -3.907814e+01
  -4.505242e-01  -6.689462e+01
   3.793039e+01  -2.200207e+01
   9.902965e+01   2.017084e+01
   5.570870e+01   4.981610e+01
  -6.457868e+01   4.981882e+01
  -8.998121e+01   3.797055e+01
  -4.353632e+01  -5.829507e+01
   5.033078e+01  -3.563742e+01
   5.778175e+01  -2.526727e+01
  -2.983535e+01   3.531215e+01
  -6.814188e+01   1.096283e+01
