
 $NMID
 id='ANONYMOUS ', fmtdat='(2E16.6)'
 volume=1.0
 tramp=1.0
 $END
   3.782176e+03   6.032203e+00
   2.410912e+03   2.291473e+03
  -4.792297e+02   2.653441e+03
  -1.687848e+03   9.489068e+02
  -9.191250e+02  -2.392494e+02
   3.342589e+02  -4.341219e+02
   7.510302e+02   1.787763e+02
   5.412587e+01   8.601093e+02
  -6.545611e+02   7.390281e+02
  -7.553618e+02  -4.482707e+01
  -3.752476e+02  -6.745568e+02
   9.619785e+01  -7.559722e+02
   5.278231e+02  -1.355307e+02
   3.255806e+02   5.885592e+02
  -1.906103e+02   6.186964e+02
  -5.085327e+02   8.086529e+01
  -2.609540e+02  -5.981446e+02
   2.578702e+02  -6.099657e+02
   5.219022e+02  -1.302416e+02
   3.896059e+02   2.392409e+02
   9.299722e+01   4.188063e+02
  -1.841133e+02   2.579501e+02
  -1.173864e+02   7.308894e+01
   1.643671e+02   2.202610e-01
   3.318422e+02   2.310235e+02
   4.197169e+01   4.573093e+02
  -4.552918e+02   2.959080e+02
  -8.094492e+02  -1.148442e+02
  -3.667791e+02  -5.060192e+02
   3.906813e+02  -3.368049e+02
   6.913860e+02   5.443423e+01
   3.023261e+02   4.141906e+02
  -3.123960e+02   5.010777e+02
  -5.530460e+02   2.105878e+02
  -4.007055e+02  -2.240103e+02
  -8.912847e+01  -4.414785e+02
   8.476406e+01  -2.645359e+02
   7.034423e+01   1.964483e+02
  -2.133886e+02   2.848394e+02
  -3.655575e+02  -1.014230e+02
  -1.314463e+02  -6.072600e+02
   2.824916e+02  -5.946522e+02
   4.850086e+02   6.699858e+00
   1.788086e+02   4.393669e+02
  -2.706984e+02   2.438217e+02
  -3.156552e+02  -3.097121e+02
   1.128712e+02  -4.784742e+02
   5.590286e+02  -9.168184e+01
   5.345097e+02   3.882819e+02
   1.707206e+02   5.220138e+02
  -3.500281e+02   2.925512e+02
  -5.690220e+02  -7.466663e+01
  -3.373134e+02  -2.959074e+02
   8.063875e+01  -3.057229e+02
   4.022093e+02  -5.921002e+01
   2.236057e+02   1.075904e+02
  -9.749838e+01   9.117757e+01
  -1.464252e+02  -1.133477e+02
   1.525018e+02  -1.476778e+02
   3.779880e+02  -1.923653e+00
   1.828659e+02   3.026124e+02
  -1.836314e+02   3.519628e+02
  -3.700898e+02   1.958523e+02
  -2.513258e+02  -7.204236e+01
  -2.391753e+00  -3.181298e+02
   2.358926e+02  -3.791497e+02
   4.183767e+02  -1.833623e+02
   2.916185e+02   2.021074e+02
   4.842797e+01   4.033620e+02
  -1.330492e+02   3.473746e+02
  -1.253016e+02   1.224981e+02
  -3.459553e+01   3.868843e+01
  -1.133293e+02   1.218967e+02
  -2.436836e+02   7.260262e+01
  -2.413771e+02  -1.324125e+02
  -9.312775e+01  -2.926470e+02
   7.367638e+01  -1.982750e+02
   2.134294e+02   4.466323e+01
   1.541253e+02   2.674635e+02
  -5.191484e+01   3.026108e+02
  -2.841119e+02   1.056275e+02
  -3.970344e+02  -1.982022e+02
  -1.990699e+02  -3.633442e+02
   1.223432e+02  -3.279189e+02
   2.203825e+02  -1.372527e+02
   1.497704e+02  -6.235248e+01
   9.203371e+01  -9.027421e+01
   2.696550e+02  -4.605159e+01
   4.416556e+02   5.332363e+01
   3.493812e+02   3.493540e+02
   2.314040e+01   4.385612e+02
  -3.718327e+02   3.898457e+02
  -5.029250e+02   1.829663e+02
  -3.318197e+02  -1.201298e+02
  -3.161800e+01  -2.624276e+02
   1.440319e+02  -2.260632e+02
   5.429274e+01  -2.075987e+01
  -6.710236e+01   1.257935e+02
  -1.586586e+02  -6.074558e-01
  -2.048481e+01  -1.498531e+02
   1.687164e+02  -1.604839e+02
   1.387425e+02   6.565249e+01
  -9.373653e+00   1.981197e+02
  -1.963466e+02   5.402961e+00
  -1.609849e+02  -2.184109e+02
   2.645272e+01  -3.443891e+02
   2.369020e+02  -1.965691e+02
   3.603169e+02   7.406424e+01
   2.693563e+02   2.513004e+02
   2.982673e+01   2.749489e+02
  -1.808216e+02   1.281554e+02
  -1.914525e+02  -4.644903e+00
  -2.254974e+01  -2.254411e+01
   5.487007e+00   3.548800e+01
   1.344134e+00   1.012201e+02
  -1.454816e+02   2.166699e+01
  -1.496771e+02  -4.450422e+01
  -6.299198e+00  -7.474712e+01
   1.065322e+02  -2.109493e+01
   5.650715e+01   7.159325e+01
  -1.421194e+02   1.025097e+02
  -2.785995e+02   2.744000e+01
  -2.111120e+02  -1.655038e+02
  -8.703047e+00  -2.865377e+02
   2.252128e+02  -2.538001e+02
   2.865226e+02  -1.046584e+02
   1.336514e+02   7.570164e+01
  -6.780815e+01   1.053975e+02
  -1.085966e+02  -3.061849e+01
   9.484008e+00  -1.368388e+02
   2.227837e+02  -8.889034e+01
   2.071446e+02   9.177763e+01
   1.201635e+02   2.031047e+02
  -7.915708e+01   1.769278e+02
  -1.159797e+02   3.091285e+01
  -1.017784e+02  -5.603138e+01
   2.554437e+01  -3.751329e+00
   1.042071e+01   1.264121e+02
  -7.066373e+01   8.866021e+01
  -1.834645e+02   2.009991e+01
  -1.795378e+02  -1.543412e+02
  -4.632979e+01  -2.111967e+02
   1.616541e+02  -1.672052e+02
   1.953258e+02  -3.091446e+01
   9.455337e+01   1.358209e+02
  -3.209994e+01   1.255793e+02
  -4.221105e+01   3.662789e+01
  -4.864879e+01  -1.685602e+01
   1.774665e+00  -4.188012e+01
   2.055153e+01   1.741595e+01
  -9.561587e+01   1.454361e+01
  -1.171564e+02  -8.866667e+01
  -4.809356e+01  -1.678980e+02
   1.585114e+02  -1.646418e+02
   2.695152e+02  -9.964952e+00
   2.258012e+02   2.077419e+02
   3.275451e+01   2.258438e+02
  -1.300641e+02   1.755637e+02
  -1.380724e+02   3.349919e+01
  -8.262132e+01  -8.671938e+01
  -5.451259e+01  -2.244901e+01
  -4.508938e+01   7.399329e+00
  -6.422877e+01   8.673083e+00
  -3.805633e+01  -5.558420e+01
   3.541453e+01  -1.032171e+02
   1.084865e+02  -4.647191e+01
   6.708445e+01   3.662312e+01
   3.769851e+00   1.170129e+02
  -1.438544e+02   9.531856e+01
  -2.139283e+02  -1.378665e+01
  -7.435584e+01  -1.978022e+02
   1.309422e+02  -1.933469e+02
   2.040759e+02  -1.204309e+02
   2.414477e+02   6.625442e+01
   8.241162e+01   1.521643e+02
  -3.490431e+01   1.485263e+02
  -1.250753e+02   5.169923e+01
  -2.175882e+01   6.253997e+01
  -5.232617e+01   9.407052e+01
  -4.784495e+01   7.904876e+01
  -1.103196e+02   1.899557e+01
  -1.216773e+02  -1.380134e+02
  -2.650129e+01  -2.239515e+02
   1.022087e+02  -1.268658e+02
   1.657770e+02  -2.686578e+01
   1.556825e+02   1.036310e+02
   7.637185e+00   1.372785e+02
  -4.124595e+01   7.599198e+01
  -4.615522e+01  -2.376400e-01
  -2.745095e+01  -8.982580e+01
   5.890217e+01  -8.772239e+01
  -4.093328e+01   3.060353e+00
  -7.595022e+01   7.705527e+00
  -1.399705e+01  -1.100427e+01
   5.828070e+01  -5.535380e+01
   1.779758e+02  -7.882505e+01
   1.513817e+02   1.454680e+01
   1.085743e+01   6.912734e+01
  -1.084336e+02   8.041866e+01
  -1.216270e+02   2.375541e+01
  -4.890586e+01  -2.389386e+01
   3.691214e+01  -1.286768e+01
   8.215698e+01   7.333095e+00
   8.225304e+01   5.380487e+01
  -3.703635e+01   7.997309e+01
  -5.531255e+01  -1.596293e+01
  -8.123200e+01  -4.102796e+01
  -3.562431e+01  -2.551238e+01
  -4.571952e+01  -1.100682e+01
  -4.823854e+01   2.577255e+01
  -5.699187e+01  -4.551530e+01
   2.888761e+01  -1.434101e+02
   1.027090e+02  -1.481593e+02
   1.405792e+02  -4.183414e+01
   1.095952e+02   5.602870e+01
  -2.102104e+01   1.456989e+02
  -8.546635e+01   3.317755e+01
  -4.082972e+01  -8.562006e+00
   5.462005e+01  -1.738429e+01
   1.516454e+02   1.781399e+01
   1.021157e+02   1.140483e+02
  -1.072297e+02   1.273591e+02
  -2.236449e+02   8.105158e+01
  -2.111891e+02   4.305361e-01
  -4.333999e+01  -6.538461e+01
   2.747109e+01  -1.074192e+02
   7.499543e+01  -4.172192e+01
  -7.032129e+01   2.824600e+01
  -1.057056e+02  -2.370210e+01
   1.566162e+00  -1.331252e+02
   7.378850e+01  -1.552729e+02
   1.525256e+02  -5.699701e+01
   1.348111e+02   1.278643e+02
  -3.127198e+00   2.223786e+02
  -1.097959e+02   1.077068e+02
  -1.385856e+02  -6.260268e+00
  -8.035473e+01  -1.324171e+02
  -1.402122e+01  -8.706413e+01
   7.215960e+01  -2.972623e+01
   4.982821e+01   4.702721e+01
   9.873603e+00   2.333214e+01
   1.503249e+00  -5.030301e+01
   4.300339e+01   2.436822e+01
   4.769610e+01   8.045940e+01
   7.096064e+01   8.490770e+01
  -4.739206e+01   4.630602e+01
  -1.350750e+02  -8.141639e+00
  -1.259784e+02  -5.758070e+01
  -9.204105e+00  -3.908496e+01
   1.028873e+02  -5.176292e+01
   1.006421e+02   4.433365e+01
   1.400587e+01   1.995585e+01
  -4.096357e+01   3.370614e+01
  -2.893051e+01   6.502671e+00
   2.256536e+01   2.363171e+01
   1.267004e+00  -3.291513e+01
  -8.742157e+01  -8.513041e+00
  -7.978929e+01  -3.087693e+01
   3.981663e+01  -6.370990e+01
   1.447938e+02  -8.165620e+01
   1.402454e+02  -7.780847e+01
   1.580448e+02   6.018906e+01
   2.589129e+01   1.616727e+02
  -4.525985e+01   1.483592e+02
  -6.796420e+01   4.559634e+01
  -1.041329e+02  -2.442858e+01
  -7.438228e+01  -4.679106e+01
  -3.706546e+00   1.033718e+01
   4.509622e+00   6.887751e+00
  -1.124559e+01  -9.886743e+01
  -2.684850e+01  -9.556827e+01
   2.527585e+01  -4.662487e+01
   6.557260e+01   4.337010e+01
   9.220200e+01   9.592023e+01
   1.350177e+01   7.177607e+01
  -5.932374e+01  -9.944671e-02
  -1.122184e+02  -8.574507e+01
  -3.483231e+01  -1.374621e+02
   5.003051e+01  -8.115808e+01
   9.347640e+01   2.799445e+01
   4.123060e+01   5.984061e+01
  -4.337036e+01   6.560397e+01
  -2.869437e+01   4.450623e+01
   4.252680e+01   3.352398e+01
   4.904778e+01  -2.924800e+01
   3.664115e+01   3.932107e+01
  -4.843713e+01   8.159789e+01
  -1.156244e+02   4.875675e+01
  -8.138567e+01  -1.661752e+01
  -3.780836e+01  -5.900086e+01
   2.461021e+01  -7.028891e+01
   8.883850e+01   3.456437e-01
   8.264109e+00   4.308634e+01
  -5.207293e+01   4.298673e+01
  -4.795794e+01  -2.343677e+01
  -1.276560e+01  -6.475752e+01
  -5.783378e+00  -4.247096e+01
  -3.861035e+00  -4.333862e+01
   9.007381e+01  -1.293124e+01
   5.747455e+01  -3.309112e+01
   9.766183e+00   6.765758e+00
   1.001699e+01   1.638175e+01
  -1.573272e+01   3.903172e+00
  -3.197276e+01   2.744993e+01
  -5.403936e+01   2.192198e+01
   1.442691e+01  -3.165159e+01
   2.598884e+01  -2.787739e+01
   5.125380e+01   5.807686e+00
   7.299124e+01   3.929800e+01
  -5.313079e+01   1.023849e+02
  -9.668330e+01   4.705809e+01
  -9.751779e+01  -4.006883e+01
  -9.257008e+01  -5.549350e+01
   1.676041e+01  -2.952549e+01
   8.573910e+01  -2.402234e+01
   4.255847e+01  -5.617727e+00
  -1.721526e+01  -1.559138e+01
   7.069706e+00  -8.176595e+00
   5.494315e+01  -5.022681e+01
   8.947915e+01  -1.288715e+00
