
 $NMID
 id='ANONYMOUS ', fmtdat='(2E16.6)'
 volume=1.0
 tramp=1.0
 $END
   2.744843e+03   1.025481e+02
   1.609305e+03   1.628611e+03
  -5.221047e+02   1.553388e+03
  -1.287753e+03   5.183991e+02
  -5.550877e+02  -4.600171e+02
   5.067027e+02  -3.481318e+02
   5.208484e+02   4.108011e+02
  -1.782008e+02   6.529690e+02
  -5.509799e+02   4.044639e+02
  -5.848947e+02  -1.741364e+02
  -2.695239e+02  -5.267205e+02
   1.086817e+02  -5.279506e+02
   3.367631e+02  -6.284174e+01
   1.802840e+02   4.424078e+02
  -1.620500e+02   3.708703e+02
  -3.265209e+02  -6.727418e+01
  -1.625336e+02  -3.110930e+02
   2.055036e+02  -3.383224e+02
   3.696277e+02  -2.728138e+01
   2.079795e+02   2.396212e+02
  -9.681437e+00   2.994073e+02
  -9.062186e+01   1.640994e+02
  -1.095425e+02   5.328465e+01
   1.330473e+02  -1.144318e+02
   2.734353e+02   7.912627e+01
   9.561566e+01   2.435718e+02
  -2.709034e+02   2.940176e+02
  -5.148626e+02  -6.243646e+01
  -3.039073e+02  -4.292092e+02
   2.198637e+02  -3.244739e+02
   4.863742e+02   2.766052e+01
   2.308419e+02   2.929390e+02
  -2.094116e+02   3.127364e+02
  -2.916049e+02   1.444153e+02
  -2.100924e+02  -1.681789e+02
   1.271606e+00  -2.697179e+02
   1.527828e+02  -1.732233e+02
   1.159653e+02   1.188496e+02
  -1.100670e+02   2.629479e+02
  -3.090411e+02   1.389660e+00
  -1.505605e+02  -3.912821e+02
   1.805499e+02  -4.161200e+02
   4.193355e+02  -1.112461e+01
   1.786685e+02   3.517946e+02
  -1.655627e+02   2.341230e+02
  -2.263083e+02  -2.509041e+02
   6.868844e+01  -3.583933e+02
   3.242760e+02  -1.025447e+02
   3.367263e+02   2.167180e+02
   6.600718e+01   3.522536e+02
  -2.492637e+02   2.294402e+02
  -3.613275e+02  -3.925836e+01
  -1.928713e+02  -2.522316e+02
   9.463542e+01  -2.442527e+02
   2.518497e+02  -1.787253e+01
   1.180924e+02   1.102535e+02
  -6.457608e+01   6.907953e+01
  -6.879704e+01  -8.433179e+01
   9.949756e+01  -1.400219e+02
   2.109718e+02   5.737517e+01
   9.503950e+01   1.842352e+02
  -5.712046e+01   1.538249e+02
  -1.548883e+02   4.156039e+01
  -9.750033e+01  -3.733081e+01
   2.625086e+01  -1.309617e+02
   1.088568e+02  -1.778467e+02
   1.891412e+02  -1.242350e+02
   1.661082e+02   5.851980e+01
   1.295955e+01   2.372139e+02
  -1.093755e+02   1.606568e+02
  -9.513990e+01   5.888543e+01
   1.209610e+00  -3.035156e+01
   2.598572e+01   3.060187e+01
  -8.214492e+01   9.078787e+01
  -1.544739e+02  -1.178490e+01
  -1.371734e+02  -1.106778e+02
   1.045746e+01  -1.083433e+02
   9.026271e+01  -2.976027e+01
   8.175396e+01   1.163428e+02
  -6.070388e+00   1.915808e+02
  -1.733248e+02   9.409958e+01
  -2.403665e+02  -1.511109e+02
  -1.241479e+02  -2.489585e+02
   8.460853e+01  -2.354924e+02
   1.453457e+02  -6.258946e+01
   1.414903e+02  -6.979683e+00
   7.637648e+01  -1.396144e+01
   1.359192e+02  -2.157017e+01
   2.207360e+02   5.415586e+01
   1.848971e+02   1.590987e+02
   3.846666e+01   2.268797e+02
  -1.793625e+02   2.395370e+02
  -2.773971e+02   1.510905e+02
  -1.975392e+02  -2.898457e+01
  -4.262530e+01  -1.674216e+02
   4.840859e+01  -1.664703e+02
   4.805308e+01  -1.377742e+01
  -6.435244e+01   7.041077e+01
  -1.261371e+02   9.269569e+00
  -6.063086e+01  -7.369407e+01
   1.317185e+02  -1.206821e+02
   1.436339e+02   2.315537e+01
   5.629036e+00   1.099951e+02
  -1.081478e+02   1.374043e+01
  -9.334159e+01  -1.407905e+02
   1.216043e+00  -1.822518e+02
   1.075307e+02  -1.039263e+02
   1.685846e+02   4.003580e+01
   1.326030e+02   9.340881e+01
   5.798828e+01   1.608920e+02
  -4.206788e+01   7.664526e+01
  -1.016898e+02   2.555338e+01
  -4.551155e+01  -7.133621e+01
   2.487565e+01   3.429097e+00
   3.788591e+01   8.165505e+01
  -6.163770e+01   7.159503e+01
  -1.149179e+02  -8.607175e+00
  -5.451321e+01  -2.402558e+01
   1.910480e+01  -3.234181e+01
   1.498382e+01   3.497909e+01
  -5.418978e+01   5.828072e+01
  -1.483722e+02   1.230211e+01
  -1.552399e+02  -1.163160e+02
  -2.935399e+00  -9.249330e+01
   1.179634e+02  -8.614590e+01
   1.756028e+02  -4.990216e+01
   8.750675e+01   2.941723e+01
  -1.698990e+01   6.522770e+01
  -5.055380e+01   3.371657e+01
   6.294969e+00  -7.294124e+01
   1.063147e+02  -5.307616e+01
   1.436279e+02   7.110017e+01
   5.388223e+01   1.256940e+02
  -5.732094e+01   8.855405e+01
  -9.464271e+01   1.029640e+01
  -5.827059e+01  -1.824039e+01
  -1.456974e+01   5.338356e+00
   2.038971e+01  -1.153149e+01
  -2.436390e+01   3.467387e+01
  -1.221852e+02   1.774748e+01
  -7.175161e+01  -9.124746e+01
  -1.018915e+01  -1.125234e+02
   8.708444e+01  -1.091402e+02
   1.243018e+02  -3.432542e+01
   5.471357e+01   8.371402e+01
  -3.075587e+01   1.630994e+01
  -4.727190e+01   3.005399e+01
   1.638289e+01  -1.482183e+01
   1.025242e+00   9.862596e+00
  -8.477444e+00  -4.256585e+01
  -4.472698e+01  -5.209220e+01
  -4.815528e+01  -3.595191e+01
   6.355461e+00  -8.214146e+01
   8.594541e+01  -5.350377e+01
   1.131599e+02  -2.748316e+01
   7.374701e+01   7.186995e+01
   4.488294e+00   1.411235e+02
  -8.147212e+01   1.002311e+02
  -9.466551e+01   5.397946e+00
  -4.818776e+01  -6.087830e+01
  -4.554419e+01  -7.185870e+01
  -4.125277e+01  -1.605730e+01
  -3.381192e+01  -2.664561e+01
   2.349645e+00  -2.344370e+01
   4.500028e+00  -3.612545e+01
   7.663886e+01  -2.686746e+01
   2.366644e+01   2.359000e+01
   5.368034e+00   3.173319e+01
  -5.807097e+01   7.519177e+01
  -1.265408e+02   1.127909e+01
  -7.251759e+01  -7.836141e+01
   1.619175e+01  -9.540090e+01
   1.406120e+02  -5.378561e+01
   1.752262e+02  -6.258235e+00
   6.352887e+01   8.680480e+01
  -6.102818e+01   8.718786e+01
  -8.206473e+01   6.270511e+01
  -3.194777e+01   7.667107e+01
  -2.995135e+01   6.827268e+01
  -3.523449e+01   3.495981e+01
  -7.379196e+01  -1.088399e+01
  -6.706355e+01  -8.258767e+01
  -1.789529e+01  -1.406250e+02
   6.839272e+01  -7.795617e+01
   5.955301e+01   1.953740e+01
   8.056297e+01   7.896938e+01
   2.016777e+01   1.087182e+02
  -7.338895e+01   3.758407e+01
  -5.926706e+00   9.319041e+00
  -2.604594e+01  -1.774757e+01
  -1.101855e+01  -2.164174e+01
  -4.166552e+01   1.274376e+01
  -3.171156e+01  -2.739047e+01
  -4.327082e+01  -2.917956e+01
   2.082642e+01  -2.727751e+01
   9.571782e+01  -2.016268e+01
   1.396633e+02   4.516485e+00
   6.320057e+01   6.340379e+01
  -5.033319e+01   5.721653e+01
  -6.697084e+01  -3.253317e+00
  -2.243755e+01  -1.324491e+01
   2.738272e+01  -6.692747e+00
   4.746765e+01   3.749544e+01
   2.873544e+00   3.168765e+01
  -2.083481e+01   3.001984e+01
  -7.216266e+01   1.474782e+01
  -6.700583e+00  -3.002160e+01
  -4.728487e+00   5.196258e-01
  -5.429251e+01   9.976326e+00
  -3.920025e+01   8.056055e+00
  -7.265116e+00  -6.188288e+01
   8.078192e+01  -8.754326e+01
   1.125258e+02  -9.826816e+01
   1.220103e+02  -3.824162e+01
   9.537598e+01   1.102600e+01
   6.912512e+00   3.961140e+01
  -4.577905e+01   1.149483e+01
  -6.832808e+01   3.518429e+01
  -6.247677e+00  -1.521549e+00
   7.553048e+01   1.272932e+00
   3.748381e+01   2.651725e+01
  -6.324784e+01   3.295559e+01
  -1.379953e+02   4.422940e+01
  -8.810599e+01  -1.327598e+01
  -2.922352e+01  -3.087495e+01
   1.934968e+01  -4.096326e+01
   5.705992e+00  -3.582975e+01
   1.945105e+01   7.405142e+00
  -6.066643e+01  -4.347184e+01
  -5.718154e+00  -7.274252e+01
   4.217052e+01  -1.031342e+02
   7.401935e+01  -4.325750e+01
   4.907631e+01   1.174844e+01
  -1.969165e+01   1.256020e+02
  -3.096984e+01   9.155061e+01
  -4.251472e+01   7.631836e+00
  -1.688981e+01  -5.152155e+01
   1.947894e+00  -5.614405e+01
   4.543852e+01   7.480791e+00
   8.403837e+00   5.954458e+01
   3.752027e+01  -2.781902e+01
   2.134751e+01  -2.842053e+01
   5.746850e+00   2.655143e+01
   1.881232e+01   5.994270e+01
   1.058213e+01   4.596566e+01
  -3.835744e+01   1.979321e+01
  -9.668377e+01  -3.638012e+01
  -3.425579e+01  -5.711990e+01
  -1.722087e+01  -2.464322e+01
   3.773100e+01  -1.729794e+01
   5.638552e+01   1.890032e+01
   2.061761e+00   5.129458e+00
  -3.121317e+01   8.811320e+00
  -5.230577e+00   7.710123e+00
  -2.004844e+01   1.818887e+01
  -5.247230e+00   2.580879e+01
  -2.178643e+01   4.308277e+00
  -6.114116e+01   5.471756e-01
   1.875656e+01  -1.143421e+01
   4.897386e+01  -5.790723e+01
   1.175070e+02  -4.035658e+01
   8.339177e+01   2.242019e+01
   1.425861e+01   1.387520e+02
  -4.869311e+01   9.801055e+01
  -6.484429e+01   4.235070e+01
  -5.028482e+01  -2.094616e+01
  -6.615373e+00  -1.158084e+01
  -2.244910e+01  -2.781689e+01
  -6.579759e+00  -1.122019e+01
  -7.607268e+00  -4.440139e+01
  -1.877258e+01  -6.258797e+01
   2.374865e+01  -6.197630e+00
   6.473065e+01   6.239518e+01
   8.649018e+01   2.622753e+01
  -4.603674e+00   4.205215e+01
  -3.666253e+01   3.294505e+01
  -8.731851e+01  -3.812122e+01
  -5.797625e+01  -6.328587e+01
   4.631690e+00  -3.549151e+01
   7.142457e+01  -1.689941e+01
   5.285269e+01   5.639005e+00
  -4.128025e+00   2.964931e+01
  -4.879302e+01   2.510223e+01
   2.056051e+01   2.082839e+01
   3.780207e+01  -1.716512e+01
   9.757605e+00  -4.776357e+00
  -5.443542e+01   9.689614e+00
  -5.764157e+01   4.883249e+00
  -3.713806e+01  -3.253673e+00
   5.968673e+01  -3.031814e+01
   3.435586e+01  -6.003620e+01
   3.967825e+01   1.533032e+01
  -1.768688e+00  -2.585494e+01
  -7.662695e+00   1.837670e+01
   9.602037e-01   1.835969e+01
   1.104903e+01  -3.604725e+01
  -3.765257e+01  -1.443009e+01
  -1.508670e+01   2.176798e+00
   2.152596e+01  -3.624913e+00
   1.672392e+01  -2.262246e+01
   2.414939e+00   9.618065e+00
  -1.188570e+01   1.931403e+01
  -2.496160e+01   3.249458e+01
  -5.516677e+01   4.845512e+01
  -5.379143e+01   4.556522e+01
  -1.891344e+01  -2.447824e+01
   1.765423e+00  -5.352887e+01
   2.500883e+01  -4.460733e+00
   6.015668e+01  -1.403675e+01
   1.526675e+01   2.807202e+01
  -7.539532e+00   3.411145e+01
  -4.962268e+01  -4.199427e+01
  -1.686855e+00   1.284638e+01
  -4.859429e-01  -7.858295e+00
   2.324539e+01   2.271604e+01
  -7.249890e+00  -1.010648e+01
   2.730094e+00  -7.465940e+00
  -1.390540e+01  -6.790208e+00
   3.260431e+01  -9.101437e+00
   2.761932e+01  -1.878823e+01
