
 $NMID
 id='ANONYMOUS ', fmtdat='(2E16.6)'
 volume=1.0
 tramp=1.0
 $END
   4.561515e+03  -2.199778e+02
   2.201099e+03   2.832235e+03
  -8.439041e+02   2.624007e+03
  -1.977282e+03   7.392769e+02
  -9.941345e+02  -8.322915e+02
   7.027034e+02  -6.842924e+02
   9.776864e+02   3.979250e+02
   5.114218e+00   1.059883e+03
  -8.224751e+02   9.364447e+02
  -8.938340e+02  -6.086652e+00
  -4.415375e+02  -8.708475e+02
   4.121042e+02  -9.784736e+02
   7.288587e+02   2.153376e+00
   4.440491e+02   7.873543e+02
  -3.325935e+02   7.663895e+02
  -6.006944e+02  -1.142632e+01
  -2.255696e+02  -6.941683e+02
   3.239955e+02  -6.255254e+02
   6.493227e+02  -7.023815e+01
   3.572166e+02   3.859721e+02
   2.334767e+01   4.214164e+02
  -3.059650e+02   3.171670e+02
  -2.048656e+02   6.508430e+01
   1.120924e+02  -1.745958e+02
   3.969674e+02   1.087996e+02
   1.443831e+02   4.435304e+02
  -3.848741e+02   4.992526e+02
  -9.111590e+02  -1.891950e+01
  -4.853324e+02  -5.669305e+02
   3.839973e+02  -5.882945e+02
   7.741085e+02  -1.165716e+01
   3.280769e+02   5.257785e+02
  -2.884171e+02   5.467936e+02
  -5.503639e+02   2.041890e+02
  -4.045849e+02  -2.567261e+02
  -2.569691e+01  -4.840626e+02
   1.953220e+02  -2.814342e+02
   2.109637e+02   2.232355e+02
  -1.825563e+02   4.539544e+02
  -4.676080e+02  -2.268509e+01
  -2.352906e+02  -7.236230e+02
   3.171845e+02  -6.996823e+02
   6.513492e+02  -2.667271e+01
   2.751580e+02   6.114548e+02
  -3.170369e+02   3.586290e+02
  -4.281108e+02  -2.957642e+02
   5.761513e+01  -5.394773e+02
   5.562120e+02  -1.840322e+02
   5.810694e+02   3.967665e+02
   1.744697e+02   5.708045e+02
  -3.603695e+02   3.481024e+02
  -6.364898e+02  -3.289509e+01
  -4.068947e+02  -3.946663e+02
   1.512571e+02  -3.279036e+02
   4.921661e+02  -1.118082e+02
   2.369782e+02   2.029693e+02
  -1.430890e+02   9.881532e+01
  -2.257094e+02  -1.805073e+02
   1.779100e+02  -2.058095e+02
   3.898940e+02   9.693366e+01
   1.874799e+02   3.539538e+02
  -2.340573e+02   3.077118e+02
  -3.880953e+02   7.823604e+01
  -2.194455e+02  -6.316910e+01
  -3.898373e-01  -2.388687e+02
   1.743639e+02  -3.493405e+02
   3.253640e+02  -2.008851e+02
   3.037298e+02   9.510705e+01
   8.038334e+01   4.470988e+02
  -1.643496e+02   4.063757e+02
  -1.910929e+02   6.322448e+01
   2.557904e+00  -6.453886e+01
  -2.187931e+00   1.323073e+02
  -1.685275e+02   1.495142e+02
  -2.599444e+02  -7.891859e+01
  -1.750731e+02  -2.766362e+02
   7.202132e+01  -2.785862e+02
   2.447613e+02  -6.322381e+00
   1.566943e+02   2.354293e+02
  -5.412128e-01   3.307008e+02
  -2.622842e+02   1.502352e+02
  -3.669176e+02  -1.648751e+02
  -2.101085e+02  -3.338544e+02
   1.053839e+02  -3.073144e+02
   1.645082e+02  -1.154582e+02
   1.329194e+02   2.194574e+01
   9.875691e+01  -4.645443e+01
   2.125061e+02  -4.468210e+01
   3.665996e+02   6.605785e+01
   3.557603e+02   3.033929e+02
   1.044778e+00   4.400181e+02
  -3.264788e+02   3.843956e+02
  -4.631715e+02   1.783781e+02
  -3.489273e+02  -1.382242e+02
  -6.734471e+01  -2.993388e+02
   9.956439e+01  -2.258383e+02
   9.408983e+01   2.522981e+00
  -8.537228e+01   1.312265e+02
  -2.051234e+02  -5.154748e+01
  -2.773763e+01  -2.330549e+02
   1.944002e+02  -2.352278e+02
   2.115276e+02   1.167542e+02
  -3.698646e+01   2.341455e+02
  -2.293861e+02   5.618088e+01
  -2.090314e+02  -2.363848e+02
   2.318561e+01  -3.773549e+02
   2.461662e+02  -1.739636e+02
   3.135584e+02   6.242078e+01
   2.337938e+02   2.030811e+02
   5.618444e+01   2.216292e+02
  -1.291774e+02   1.555025e+02
  -1.759639e+02   3.661452e+00
  -4.813585e+01  -5.771979e+01
   7.066085e+01   2.592085e+01
   1.939988e+01   1.782379e+02
  -1.079916e+02   1.331350e+02
  -1.889221e+02  -1.317257e+01
  -1.786853e+01  -6.489581e+01
   5.337379e+01  -5.195509e+01
   4.007180e+01   8.152041e+01
  -1.017170e+02   1.287562e+02
  -3.196303e+02  -1.779196e+00
  -2.446188e+02  -1.398295e+02
  -7.094872e+01  -2.850597e+02
   1.528750e+02  -2.890409e+02
   3.021264e+02  -1.114484e+02
   1.894623e+02   6.588667e+01
  -1.296857e+01   1.486999e+02
  -9.058018e+01   8.396034e+00
  -1.589160e+01  -1.447139e+02
   2.104183e+02  -8.654718e+01
   2.374136e+02   6.312721e+01
   9.345369e+01   2.175148e+02
  -1.037257e+02   1.391638e+02
  -1.295710e+02  -1.960623e+01
  -6.355070e+01  -3.419117e+01
   2.133549e+01  -4.110653e+01
   5.282627e+01   8.199118e+01
  -7.431515e+01   1.590105e+02
  -1.988545e+02   1.735452e+01
  -1.756798e+02  -1.026879e+02
  -2.218681e+01  -1.941259e+02
   1.748723e+02  -1.752961e+02
   1.730478e+02   2.237004e+01
   6.233828e+01   1.455609e+02
  -6.197038e+01   8.576214e+01
  -4.567279e+01  -4.096999e+00
   3.448160e+00  -7.356932e+01
   1.743809e+01  -5.584421e+01
  -1.758150e+01   4.929148e+01
  -3.559446e+01  -2.404462e+01
  -7.109932e+01  -1.042568e+02
  -3.156904e+01  -1.413253e+02
   6.373698e+01  -1.642763e+02
   2.416241e+02  -6.493730e+01
   2.170851e+02   1.301874e+02
   9.620519e+01   2.318152e+02
  -8.860397e+01   2.063784e+02
  -1.724862e+02   5.791004e+01
  -9.066589e+01  -5.723963e+01
  -2.143539e+01  -1.048378e+01
  -5.877713e+01   9.064891e+00
  -5.962519e+01   2.331981e+01
  -1.702286e+01  -8.076215e+01
   5.569949e+01  -1.263365e+02
   5.526365e+01  -6.909032e+01
   1.014993e+02  -2.431279e+01
   2.024626e+01   7.313360e+01
  -1.296295e+02   7.777147e+01
  -1.520803e+02  -4.178760e+01
  -9.118997e+01  -2.090204e+02
   9.647033e+01  -2.186826e+02
   2.481516e+02  -9.013310e+01
   2.507289e+02   5.467048e+01
   9.901236e+01   1.391900e+02
  -1.982179e+01   1.431787e+02
  -1.221440e+02   1.097928e+02
  -9.686602e+01   8.082603e+01
  -8.345732e+01   9.430918e+01
  -1.045490e+02   5.472133e+01
  -1.085375e+02  -3.936442e+01
  -6.714129e+01  -1.782916e+02
  -3.428184e+01  -2.369637e+02
   1.376821e+02  -1.581488e+02
   1.732106e+02  -1.029836e+01
   1.506695e+02   1.080564e+02
   4.489079e+00   1.433605e+02
  -5.941216e+01   8.543714e+01
  -7.021514e+01   7.741125e+00
  -1.179570e+01  -4.783888e+01
  -1.625313e+01  -2.143751e+01
  -6.331506e+01  -5.947195e+00
  -6.781853e+01  -5.089522e+01
  -9.689487e+00  -4.259488e+01
   4.664821e+01  -4.608356e+01
   1.614406e+02   6.888316e+00
   1.407107e+02   6.587935e+01
   1.515144e+01   1.355984e+02
  -1.057529e+02   4.339938e+01
  -1.290130e+02   3.959554e+00
  -4.163985e+01  -5.348336e+01
   7.911676e+01  -3.638695e+01
   1.086261e+02   3.363255e+01
   1.561879e+01   6.219900e+01
  -3.398025e+01   9.122363e+01
  -2.945693e+01   2.854319e+01
  -7.511123e+01  -1.256804e+01
  -6.375120e+01  -1.448811e+01
  -1.174254e+02  -1.434984e+01
  -1.065746e+02  -3.795533e+01
   2.057038e+01  -1.212568e+02
   5.703740e+01  -1.790723e+02
   1.402877e+02  -1.204820e+02
   2.205630e+02  -6.805128e+00
   1.372817e+02   1.085161e+02
   2.310092e+01   1.668726e+02
  -1.244558e+02   7.113338e+01
  -4.590929e+01  -1.120176e+01
   1.108219e+02  -2.547708e+01
   1.441048e+02   2.558672e+01
   8.622606e+01   1.373197e+02
  -6.525139e+01   9.759825e+01
  -2.035442e+02   4.787770e+01
  -1.059359e+02  -3.634895e+01
  -1.412700e+01  -9.002503e+01
   4.203978e+01  -9.996644e+01
   3.233570e+01  -8.943778e+00
  -1.486939e+01   4.526451e+01
  -9.235492e+01  -6.164822e+01
   6.999100e-01  -1.428736e+02
   1.129411e+02  -1.566765e+02
   1.726629e+02  -6.028750e+01
   1.435468e+02   1.110329e+02
   1.177864e+01   2.371735e+02
  -1.101676e+02   1.223220e+02
  -1.260225e+02  -1.565626e+00
  -8.857775e+00  -1.140091e+02
   1.726376e+01  -1.183887e+02
   5.100262e+01  -4.966211e+01
   3.788324e+01   4.103153e+01
   5.115821e+01   1.242714e+01
   9.046737e+00  -7.049865e+00
   5.092581e+01   4.399043e+00
   6.929005e+01   6.311317e+01
   2.351583e+01   1.163478e+02
  -4.833438e+01   4.462814e+01
  -1.525103e+02  -2.944134e+01
  -1.197441e+02  -5.477662e+01
  -1.702996e+01  -7.131613e+01
   5.069175e+01  -2.849633e+01
   9.115445e+01  -3.483050e+00
  -2.266989e+01   1.890318e+01
  -5.376136e+01   1.778081e+01
  -5.780088e+00   8.540246e+00
   3.258201e+01  -8.294713e+00
  -1.809301e+01  -2.724362e+01
  -6.193936e+01   2.937470e+00
  -1.182972e+02  -4.408379e+01
   2.453562e+01  -9.321904e+01
   8.966400e+01  -1.152287e+02
   2.586997e+02  -5.717238e+01
   1.463879e+02   7.863074e+01
   4.704692e+01   1.791713e+02
  -9.481455e+01   1.655363e+02
  -1.280884e+02   6.442155e+01
  -1.023671e+02  -4.492866e+01
  -3.836913e+01  -3.632441e+01
   2.613036e+00  -2.909559e+01
  -1.022195e+00  -3.500396e+01
  -3.482941e+01  -5.701540e+01
  -2.924640e+01  -5.161571e+01
   4.684416e+01  -5.529413e+01
   7.616431e+01   3.161086e+01
   3.947495e+01   6.555418e+01
  -1.432278e+01   7.600746e+01
  -6.488559e+01   7.644398e+00
  -7.419739e+01  -4.405897e+01
  -2.488517e+01  -7.727386e+01
   5.609534e+01  -6.389329e+01
   1.367845e+02   2.714372e+01
   5.597992e+01   6.933934e+01
   8.985093e-01   9.552838e+01
  -2.999282e+01   5.958869e+01
   5.653785e+00  -1.094076e+01
  -1.553927e+01  -5.267118e+01
   1.599117e+01  -1.002141e+01
  -5.379299e+01   1.156431e+01
  -1.102551e+02   1.352912e+01
  -3.620599e+01  -5.660325e+01
   7.192458e+00  -1.256764e+02
   4.740998e+01  -7.530868e+01
   8.513168e+01  -2.593950e+01
   1.774024e+00   7.256266e+01
   3.545464e+00   7.243937e+01
  -5.197357e+01   3.203557e+01
  -4.729336e+01  -5.374109e+01
  -7.258717e+00  -2.736474e+01
   2.019374e+01   1.092754e+01
   9.046303e+00   1.559210e+01
   5.323696e+01   2.478510e+01
   4.193478e+01   1.124858e+01
  -3.690219e+00   4.100431e+01
  -1.189591e+01   7.235073e+01
  -1.380212e+01   1.972292e+01
  -4.653066e+01  -6.742314e+00
  -2.967134e+01   2.518872e-01
   3.123030e+01  -3.734171e+01
   6.375913e+00   1.332942e+01
   2.036279e+01   7.744121e+00
   1.672923e+01   3.235050e+00
  -4.589183e+01   2.684638e+01
  -7.376731e+01  -2.538423e+01
  -3.482873e+01  -4.552306e+01
   5.291945e+01  -1.897037e+01
   7.944317e+01  -1.517699e+01
   3.267276e+01  -1.743147e+01
  -6.599878e+00   3.852081e+01
  -3.458407e+01   3.861630e+01
   1.878201e+01  -6.424383e+01
   1.194402e+02  -1.738579e+01
