
 $NMID
 id='ANONYMOUS ', fmtdat='(2E16.6)'
 volume=1.0
 tramp=1.0
 $END
  -4.812663e+03  -2.575381e+01
  -2.896544e+03  -2.616603e+03
   9.741930e+02  -2.900362e+03
   2.302270e+03  -8.963089e+02
   8.884442e+02   7.663246e+02
  -6.559982e+02   5.980335e+02
  -8.040221e+02  -4.714232e+02
   1.328434e+01  -1.164726e+03
   7.930281e+02  -7.842612e+02
   1.070875e+03   7.003086e+01
   4.348955e+02   9.334572e+02
  -2.663044e+02   9.781848e+02
  -7.818497e+02   1.522868e+02
  -4.518395e+02  -7.330755e+02
   2.706399e+02  -8.810728e+02
   7.605015e+02   8.231422e+00
   3.174053e+02   7.396052e+02
  -3.237837e+02   6.411373e+02
  -6.168409e+02   1.034482e+02
  -3.593247e+02  -4.022439e+02
  -5.422956e+01  -4.646444e+02
   2.688503e+02  -2.639914e+02
   2.455152e+02  -5.927649e+00
  -1.331954e+02   1.778182e+02
  -4.880292e+02  -7.316547e+01
  -2.579460e+02  -4.343417e+02
   4.531651e+02  -4.556182e+02
   9.893101e+02   9.112811e+01
   4.804155e+02   5.743283e+02
  -3.876761e+02   5.438339e+02
  -8.555127e+02  -6.889096e+01
  -4.168597e+02  -5.077491e+02
   2.644623e+02  -5.488721e+02
   6.086119e+02  -1.790019e+02
   3.933426e+02   2.831861e+02
   4.657580e+01   5.507271e+02
  -1.283742e+02   2.815865e+02
  -1.454392e+02  -2.722090e+02
   1.900195e+02  -5.391231e+02
   4.559699e+02  -1.668263e+01
   3.090260e+02   7.441685e+02
  -3.202708e+02   8.461362e+02
  -6.534574e+02   9.108956e+01
  -3.247038e+02  -6.025443e+02
   2.571476e+02  -3.449665e+02
   3.987978e+02   3.402359e+02
  -8.122793e+01   5.951246e+02
  -5.801494e+02   1.330172e+02
  -6.184706e+02  -4.390680e+02
  -1.810645e+02  -6.087595e+02
   3.811043e+02  -3.242406e+02
   6.223944e+02   1.190036e+02
   3.775697e+02   4.261120e+02
  -1.954214e+02   3.856741e+02
  -4.902766e+02   3.011717e+01
  -2.706699e+02  -2.395664e+02
   1.011820e+02  -1.330180e+02
   1.369038e+02   1.771706e+02
  -1.798036e+02   2.301191e+02
  -3.347849e+02  -1.176179e+02
  -1.343102e+02  -3.632967e+02
   1.977234e+02  -2.832344e+02
   3.126890e+02  -8.906883e+01
   2.057029e+02   1.070403e+02
  -9.113116e+00   2.073589e+02
  -1.889853e+02   3.771804e+02
  -3.373500e+02   2.231163e+02
  -2.801640e+02  -1.506489e+02
  -7.565569e+01  -4.672953e+02
   8.702001e+01  -4.236321e+02
   7.170420e+01  -8.822051e+01
  -1.786815e+01   1.088726e+01
   9.362054e+01  -1.024653e+02
   2.211349e+02  -1.474905e+02
   2.905610e+02   5.092500e+01
   2.029062e+02   2.834272e+02
  -6.669669e+01   3.139611e+02
  -2.521070e+02   5.486043e+01
  -2.577698e+02  -2.188350e+02
  -2.792976e+00  -2.713017e+02
   3.164770e+02  -1.371304e+02
   3.794616e+02   1.743514e+02
   2.361957e+02   3.618637e+02
  -1.228090e+02   2.692229e+02
  -2.268522e+02   1.142541e+02
  -1.301080e+02  -4.286707e+00
  -8.294613e+01   1.616159e+01
  -2.499085e+02   8.830931e+01
  -3.806303e+02   4.411690e+00
  -3.621452e+02  -2.494210e+02
  -4.713380e+01  -4.463950e+02
   3.652602e+02  -4.396562e+02
   5.078417e+02  -2.301696e+02
   3.733805e+02   7.304094e+01
   5.120081e+01   3.398728e+02
  -1.357966e+02   2.863384e+02
  -9.206978e+01   3.784805e+01
   1.327619e+02  -1.325308e+02
   2.588814e+02  -5.326927e+01
   9.556596e+01   2.150038e+02
  -1.891884e+02   1.929791e+02
  -1.987577e+02  -1.925198e+01
   1.801016e+01  -2.311322e+02
   2.162717e+02  -7.212037e+01
   1.890299e+02   2.678221e+02
  -1.326721e+01   3.444375e+02
  -2.226495e+02   2.092731e+02
  -3.386219e+02  -5.325061e+01
  -2.257099e+02  -2.295483e+02
  -1.294395e+02  -2.995932e+02
   1.121397e+02  -1.376012e+02
   1.931410e+02  -6.814593e+00
   3.439054e+01   2.687016e+01
  -6.064291e+01  -5.400120e+01
   1.639327e+00  -1.281344e+02
   1.299518e+02  -9.086873e+01
   1.993000e+02  -2.528170e+01
   5.520260e+01   4.381932e+01
  -8.383992e+01   2.473572e+01
  -6.635388e+01  -9.112938e+01
   1.544308e+02  -6.867851e+01
   2.685082e+02   2.020600e+00
   2.930798e+02   1.328468e+02
   9.614641e+01   2.591634e+02
  -1.731172e+02   2.740974e+02
  -2.845073e+02   1.374578e+02
  -1.683681e+02  -3.743026e+01
   4.082610e+01  -1.123895e+02
   5.341138e+01  -1.465092e+01
  -4.336875e+01   1.056445e+02
  -2.005182e+02   7.419907e+01
  -2.616739e+02  -1.457074e+02
  -4.013721e+01  -2.056593e+02
   1.159823e+02  -1.310131e+02
   1.735573e+02  -3.004199e+01
   5.131677e+01   7.290566e+01
  -2.164746e+01   3.751044e+00
  -6.529926e+01  -7.097089e+01
   7.349015e+01  -1.118817e+02
   1.878088e+02  -5.190774e+01
   2.041046e+02   9.385999e+01
   1.741565e+01   1.774488e+02
  -1.655808e+02   2.214298e+02
  -1.893765e+02   3.698762e+01
  -6.357756e+01  -1.365449e+02
   5.201160e+01  -1.571545e+02
   8.080729e+01  -4.925043e+01
   2.138754e+01   2.111731e+01
  -7.294985e+01   5.334308e+01
  -1.243650e+01   1.749301e+01
   1.363309e+02   3.593115e+00
   1.077378e+02   8.970960e+01
   1.318124e+01   1.361073e+02
  -1.000006e+02   1.456369e+02
  -2.433905e+02   1.233247e+01
  -1.590847e+02  -1.499318e+02
  -4.611534e+01  -2.378201e+02
   8.451501e+01  -1.620521e+02
   1.122975e+02  -2.674532e+01
   6.199790e+01   8.883598e+01
  -2.731151e+00  -2.173659e+01
   1.007221e+02  -3.584338e+01
   1.221584e+02  -4.046816e+01
  -1.602963e+01   5.245671e+01
  -6.678051e+01   1.307367e+02
  -1.018709e+02   6.413482e+01
  -8.773774e+01  -5.666755e+01
   3.404379e+01  -1.684304e+02
   1.716578e+02  -1.064423e+02
   2.056057e+02   7.736303e+01
   6.563915e+01   2.085935e+02
  -9.794796e+01   2.753163e+02
  -3.158578e+02   1.041275e+02
  -2.798807e+02  -1.277631e+02
  -1.274282e+02  -1.794094e+02
   6.609418e+01  -1.452490e+02
   7.890711e+01  -7.720651e+01
   1.026613e+02  -5.965479e+01
   5.348467e+01  -1.034452e+02
   8.810559e+01  -5.508686e+01
   1.127718e+02   9.174402e+00
   1.393878e+02   1.475553e+02
   7.105276e+01   2.341779e+02
  -6.272181e+01   1.790748e+02
  -1.932055e+02   4.881598e+01
  -1.423583e+02  -1.355637e+02
  -4.608466e+01  -1.816363e+02
   8.890180e+01  -1.176187e+02
   6.420584e+01   2.530214e+00
   6.503485e+01   2.916476e+01
   4.886982e+01   1.708113e+01
   1.554053e+01   5.504856e+01
   8.145514e+01   2.920179e+01
   8.172078e+01   3.814650e+01
  -6.268905e+01   4.879295e+01
  -1.096183e+02   3.454835e+01
  -1.293062e+02  -4.780313e+01
  -4.455525e+01  -8.745332e+01
   8.973508e+01  -4.508991e+01
   1.905216e+02  -1.245359e+01
   3.977535e+01   2.713557e+01
  -9.792938e+01   4.674206e+01
  -9.561016e+01  -1.893344e+01
  -1.369084e+01  -6.411063e+01
   2.153185e+01  -7.111667e+01
   1.679965e+01   3.073408e+01
   2.834188e+01   6.638993e+01
   3.163967e+01  -2.361749e+00
   7.338777e+01  -1.621570e+01
   9.580001e+01   1.841332e+01
   1.019115e+02   8.026067e+01
  -1.425137e+01   1.667876e+02
  -1.293231e+02   1.087799e+02
  -1.646192e+02   1.904304e+01
  -1.037774e+02  -4.283801e+01
  -2.275880e+01  -6.482172e+01
   8.569622e+01  -1.691931e+01
   5.277136e+01   3.818177e+01
  -6.612292e+01   3.269785e+01
  -1.456045e+02  -9.960619e+00
  -2.265408e+01  -1.118028e+02
   9.233272e+01  -9.312446e+01
   1.890976e+02  -2.527910e+01
   1.583878e+02   5.604784e+01
   3.710193e+01   5.585041e+01
  -1.042567e+02   1.044887e+02
   6.402352e-01   3.086185e+01
  -8.778244e+00  -6.408593e+01
   1.055254e+02   7.391959e+00
   4.317804e+01   1.350301e+02
  -6.036189e+01   1.662323e+02
  -1.441750e+02   7.459509e+01
  -1.550138e+02  -6.593611e+01
  -6.905355e+00  -2.278649e+02
   8.181152e+01  -1.710816e+02
   1.226039e+02  -1.709722e+01
   9.333558e+01   8.328229e+01
  -2.431481e+01   1.230930e+02
  -5.955766e+01   2.237987e+01
  -3.763260e+01   4.087447e+01
  -3.269240e+01   5.263964e-02
  -1.090665e+01  -8.967903e+00
  -1.180238e+01  -2.698285e+01
  -3.528745e+01  -1.012695e+02
  -2.177569e+01  -1.363862e+02
   1.532789e+01  -4.921618e+01
   1.642890e+02   3.486634e+01
   2.361424e+01   9.964178e+01
   2.492994e+01   6.869427e+01
  -4.900180e+01   1.010151e+01
  -6.234109e+01  -1.045305e+01
  -1.145958e+01  -1.588852e+01
   5.680612e+01   1.144978e+01
   2.979696e+00  -6.200024e+01
  -3.494002e+01  -3.410419e+01
  -4.337372e+01  -3.226955e+01
   1.092492e+02  -2.267382e+01
   1.055850e+02   8.082476e+01
   1.703118e+01   1.394399e+02
  -8.779564e+01   9.078401e+01
  -2.063526e+02   4.385837e+01
  -1.640099e+02  -1.054780e+02
  -3.186617e-01  -1.592820e+02
   4.344981e+01  -1.413499e+02
   9.556712e+01  -3.866400e+01
   1.305687e+02   3.761039e+01
   1.681653e+01  -6.476393e+00
   2.500159e+01  -1.962859e+01
   7.620845e+00   4.129418e+01
   2.580836e+01   6.832795e+01
   2.416189e+01   8.616975e+01
  -7.214381e+01   2.216724e+01
  -9.736550e+01  -2.429293e+01
  -1.067083e+02  -7.038677e+01
   1.575365e+01  -1.156060e+02
   7.622675e+01  -3.596100e+01
   1.289766e+02   7.402057e+01
   5.508639e+01   1.031962e+02
  -9.061381e+01   1.034623e+02
  -1.189245e+02  -1.428030e+01
  -5.251089e+01  -6.570548e+01
   4.652634e+01  -7.458351e+01
   5.719349e+01  -1.492793e+01
   2.425228e+00   3.770672e+00
  -9.749285e+01   5.119570e+01
   9.879817e+00  -4.655458e+00
   1.058218e+02  -4.113533e+01
   1.229792e+02  -4.827556e+01
   5.242880e+01   6.927343e+00
  -2.720640e+01   9.063759e+01
  -1.080558e+02   2.895466e+01
  -1.993034e+01  -1.267141e+01
  -1.753153e+01  -6.196878e+01
   6.667997e+01  -6.392216e+01
   9.897298e+00   2.344688e+01
   9.342647e+00   6.526723e+01
   1.172134e+01   1.457772e+01
   1.064783e+01  -2.238484e+01
  -1.546832e+01  -6.176853e+00
  -7.713852e+00   2.004650e+01
   4.345743e+00  -6.031354e+00
  -1.047692e+01  -6.325108e+00
   2.215250e+01  -7.247318e+01
   4.962480e+01  -4.207017e+01
   2.913949e+01  -1.438890e+01
   4.458069e+01   2.473457e+01
  -2.348388e+01   7.834441e+01
  -6.902176e+01   5.581985e+01
  -3.763367e+01  -3.294649e+01
  -4.681284e+01  -4.886132e+01
   7.110409e+01  -2.239284e+01
   6.996930e+01  -1.004547e+01
   4.702188e+01   4.070361e+01
  -2.313918e+01   7.488039e+00
  -7.070477e+01  -2.621542e+01
  -1.090242e+01   8.183572e+00
   4.087703e+01   2.696446e+01
   5.342844e+01   7.521552e+00
  -2.563461e+01   3.276610e+01
  -6.206855e+01   1.377431e+01
