
 $NMID
 id='ANONYMOUS ', fmtdat='(2E16.6)'
 volume=1.0
 tramp=1.0
 $END
   2.520757e+03   6.023986e+01
   1.436619e+03   1.416183e+03
  -5.265310e+02   1.562174e+03
  -1.201873e+03   6.315679e+02
  -5.390480e+02  -3.893192e+02
   3.018128e+02  -3.547935e+02
   5.147048e+02   2.792761e+02
   1.134059e+00   5.974940e+02
  -3.936046e+02   3.825935e+02
  -5.552159e+02  -7.485988e+01
  -2.038068e+02  -5.352458e+02
   8.145464e+01  -4.496665e+02
   3.462317e+02  -1.463252e+02
   2.164852e+02   4.443540e+02
  -1.023426e+02   3.266063e+02
  -3.648490e+02  -8.539479e+01
  -1.337465e+02  -4.350330e+02
   2.823077e+02  -3.662537e+02
   2.834267e+02  -2.151996e+01
   2.464915e+02   1.917236e+02
   5.702053e+01   2.792035e+02
  -9.466972e+01   1.263262e+02
  -9.553411e+01   4.948827e+01
   6.587196e+01   5.557820e+01
   2.540563e+02   3.773068e+01
   9.670163e+01   2.244284e+02
  -2.374011e+02   2.150230e+02
  -4.497027e+02   3.428465e+00
  -2.688101e+02  -3.192396e+02
   2.018279e+02  -2.914490e+02
   4.152039e+02   5.159943e+01
   2.300408e+02   2.430136e+02
  -1.934121e+02   3.128975e+02
  -3.544368e+02   6.569178e+01
  -2.265012e+02  -1.303027e+02
  -2.739301e+01  -2.420353e+02
   1.237218e+02  -1.414590e+02
   1.147266e+02   1.221214e+02
  -7.412220e+01   2.254183e+02
  -2.070536e+02   6.085632e+01
  -1.210513e+02  -3.601726e+02
   1.580408e+02  -3.590618e+02
   3.351135e+02   2.754892e+01
   1.283075e+02   2.896571e+02
  -2.428530e+02   1.661046e+02
  -2.787089e+02  -2.124149e+02
   3.581542e+01  -3.173723e+02
   3.566971e+02  -7.617624e+01
   3.778080e+02   2.215070e+02
   1.281692e+02   2.954659e+02
  -1.530067e+02   1.675550e+02
  -3.233060e+02  -3.810032e+01
  -2.055611e+02  -2.056131e+02
   3.919001e+01  -1.591498e+02
   2.242367e+02  -6.958531e+00
   1.104850e+02   1.039758e+02
  -6.368158e+01   4.284393e+01
  -3.167982e+01  -1.203380e+02
   1.584684e+02  -1.000276e+02
   2.142984e+02   6.396800e+01
   2.928270e+01   1.846442e+02
  -1.677926e+02   1.601339e+02
  -1.839839e+02   3.836737e+01
  -1.140288e+02  -5.444648e+01
   2.672285e+01  -1.697044e+02
   9.630988e+01  -1.842511e+02
   2.110932e+02  -1.071953e+02
   1.932593e+02   1.110557e+02
   3.552695e+01   2.417190e+02
  -7.085776e+01   1.954585e+02
  -8.128458e+01   3.337787e+01
   1.583929e+01  -2.637262e+01
  -4.157706e+00   6.706339e+01
  -1.135065e+02   8.336869e+01
  -1.405527e+02  -2.230779e+01
  -8.443556e+01  -1.301933e+02
   6.256738e+01  -1.064787e+02
   1.157050e+02  -1.024919e+01
   1.101694e+02   1.174298e+02
  -4.217112e+01   1.430973e+02
  -1.521829e+02   6.101177e+01
  -1.773338e+02  -7.024191e+01
  -9.289931e+01  -1.793052e+02
   1.218886e+02  -1.768746e+02
   1.480984e+02  -4.741408e+01
   4.726693e+01   2.499112e+01
   6.591176e+01   1.493833e+01
   1.210486e+02  -3.727591e+01
   2.181486e+02   2.062761e+01
   2.239969e+02   1.993333e+02
  -2.135865e+01   2.502262e+02
  -2.301284e+02   2.255163e+02
  -2.949822e+02   5.770099e+01
  -1.545766e+02  -5.564986e+01
  -4.523079e+00  -1.647041e+02
   8.640276e+01  -9.823582e+01
   4.403160e+01   2.761152e+01
  -7.445107e+01   5.549612e+01
  -1.000709e+02   2.259205e+01
  -4.233833e+01  -8.849816e+01
   8.830115e+01  -8.242995e+01
   1.023253e+02   3.526412e+01
  -1.450339e+01   8.642334e+01
  -1.469866e+02   3.106722e+01
  -1.039401e+02  -1.662026e+02
   7.131794e+01  -1.492338e+02
   1.294814e+02  -7.799147e+01
   1.675132e+02   4.614219e+01
   1.335986e+02   1.151659e+02
   3.290077e+01   1.188759e+02
  -4.182126e+01   6.177259e+01
  -1.169416e+02   2.727112e+01
  -8.398717e+01   1.745865e+01
   5.428709e+00   1.995792e+01
   1.618718e+01   4.796772e+01
  -5.875055e+01   4.053351e+01
  -1.360805e+02  -3.266179e+01
  -5.114828e+01  -3.630401e+01
   3.740217e+01  -1.250796e+01
  -1.384351e-01   4.007272e+01
  -7.880433e+01   3.729798e+01
  -1.070540e+02   8.305228e+00
  -1.294112e+02  -8.690022e+01
  -6.442382e+01  -1.495137e+02
   1.349122e+02  -1.361600e+02
   1.955047e+02  -6.300793e+01
   1.232750e+02   5.570306e+01
   1.432245e+01   1.022068e+02
  -8.258297e+01   3.861633e+01
   1.901204e+01  -4.149259e+01
   1.003503e+02   6.933669e+00
   1.151975e+02   5.571379e+01
   2.386560e+01   1.229078e+02
  -6.591427e+01   8.377609e+01
  -7.207145e+01  -5.719004e+00
  -4.779475e+01  -3.245968e+01
   4.222614e+01   3.443840e+01
   2.231425e+01   6.226232e+01
  -1.087172e+02   6.887956e+01
  -1.366972e+02  -2.017770e+01
  -1.210819e+02  -8.489363e+01
  -2.401890e+00  -1.328441e+02
   1.061026e+02  -8.506287e+01
   1.080085e+02  -6.429989e+00
   2.330262e+01   4.815610e+01
  -4.846540e+01   3.890435e+01
  -4.305556e+01   1.132670e+01
   8.096618e+00  -3.606436e+00
   1.854330e+01  -1.667744e+01
   2.462615e+01   1.264827e+01
  -5.559086e+01  -2.589997e+00
  -3.863749e+01  -7.655029e+01
   6.423208e+00  -9.421161e+01
   6.658251e+01  -4.750372e+01
   9.287514e+01  -3.088691e+01
   4.562829e+01   9.873127e+01
   2.032061e+01   1.282213e+02
  -9.527157e+01   8.841764e+01
  -4.724881e+01   4.267775e+00
  -2.965569e+01  -4.935362e+01
  -6.690905e+01  -7.543395e+00
  -2.256818e+01   1.174766e+00
  -5.309369e+01   5.521777e+00
  -3.718612e+01  -5.014717e+01
   2.741198e+01  -4.498151e+01
   6.273638e+01  -4.180284e+01
   6.733538e+01   5.194238e+01
  -4.144688e+01   5.772605e+01
  -8.837465e+01   4.815172e+01
  -1.221965e+02  -5.067550e+01
  -4.237958e+01  -8.478250e+01
   4.622804e+01  -1.337716e+02
   9.655363e+01  -5.876801e+00
   1.494359e+02  -6.663884e+00
   6.966527e+01   8.554981e+01
  -4.645276e+00   6.542634e+01
  -3.086470e+01   2.060732e+01
  -5.297433e+01   2.093191e+01
  -3.986676e+01   5.426107e+01
  -7.283137e+01   2.122629e+01
  -8.044027e+01  -1.057254e+01
  -8.053334e+01  -8.297868e+01
  -2.625710e+00  -1.546362e+02
   6.435993e+01  -1.172236e+02
   9.973314e+01  -3.226456e+01
   1.041361e+02   6.475826e+01
   3.119805e+01   1.028691e+02
  -3.700950e+01   1.758537e+01
  -6.423646e+01  -2.173631e+01
  -5.449567e+01  -1.375118e+01
   3.843994e+01  -2.426039e+01
  -3.719333e+00  -1.144863e+01
  -4.998246e+01  -6.830046e+01
  -2.270671e+01  -2.074949e+01
   6.231681e+00  -5.693967e+01
   5.336305e+01  -2.422525e+01
   6.640496e+01   4.240495e+01
   1.841823e+00   1.024371e+01
  -6.566730e+01   3.837465e+01
  -3.883905e+01   1.997821e+01
  -3.044753e+01  -6.181880e+01
   4.514427e+01  -1.110329e+01
   6.474813e+01  -2.542698e+01
   1.770911e+01   2.183852e+01
  -6.511545e+00   4.097537e+01
  -2.282550e+01  -4.483332e+00
  -2.209987e+01  -1.094612e+00
  -2.511405e+01  -1.289913e+01
  -2.569595e+01  -4.171344e+00
  -6.096420e+01  -3.441731e+01
   2.729579e+01  -3.804220e+01
   1.548950e+01  -6.863525e+01
   9.180241e+01  -6.992419e+01
   9.575548e+01  -2.480195e+01
   4.497376e+01   4.399164e+01
  -1.953501e+01   8.414893e+01
  -6.074945e+01   2.785126e+01
  -3.774257e+01  -5.363762e-01
   6.560063e+01  -3.214182e+00
   6.817697e+01   2.270701e+01
   3.917611e+01   7.062718e+01
  -4.446456e+01   7.112817e+01
  -1.082281e+02   2.831136e+01
  -7.261625e+01  -5.938623e+01
  -3.885721e+01  -7.189699e+01
   7.222291e+01   3.202633e+00
   5.653084e+01   3.564258e+01
  -3.679183e+01   4.360787e+01
  -8.633294e+01   6.074699e+00
  -5.328643e+01  -5.650622e+01
   3.645083e+01  -7.476914e+01
   8.404308e+01  -7.285349e+01
   4.916825e+01   2.866857e+01
  -1.696363e+00   1.177503e+02
  -7.293984e+01   8.378371e+01
  -7.075801e+01  -1.565936e+01
  -4.298245e+00  -9.213187e+01
   2.134809e+01  -4.590402e+01
   2.939419e+01   6.964597e+00
   5.151152e+01  -1.783391e+01
   4.541367e+00  -1.779969e+00
  -1.902073e+00  -1.942602e+01
  -1.384228e+01  -3.159128e+00
   2.962757e+01   8.069674e+01
  -1.954999e+01   9.277479e+01
  -2.953285e+01   7.363934e+00
  -9.267806e+01  -1.478314e+01
  -5.837040e+01  -5.329556e+01
  -6.548993e+00  -6.743961e+01
   6.592161e+01   1.092395e+01
   4.065952e+01   7.940361e+00
  -6.009637e+00   1.926214e+01
  -1.061105e+01   1.627632e+01
  -3.339654e+01   7.903273e+00
  -1.724199e+00   8.053442e+00
  -1.307350e+01   4.450792e+01
  -9.295252e+01   1.750528e+01
  -2.694463e+01  -3.326584e+01
   7.524675e+00  -3.682523e+01
   8.192368e+01  -4.325040e+01
   5.809598e+01  -3.868045e+01
   6.964717e+01   3.280713e+01
   3.040090e+00   8.012914e+01
  -7.127600e+01   7.670737e+01
  -7.795208e+01   1.271687e+01
  -6.908196e+01  -3.995624e+01
  -2.702187e+00  -4.983267e+01
   3.936747e+00  -1.301447e+01
  -1.803876e+01   4.396498e+01
  -2.294530e+01  -2.440189e+01
  -3.248975e+01  -4.473562e+01
   3.784988e+01  -2.143708e+01
   9.022179e+00   3.848913e+01
   2.324203e+01   8.089964e+01
  -2.499854e+01   7.889264e+01
  -6.603255e+01   2.966027e+01
  -5.066979e+01  -8.729742e+01
  -2.889982e+01  -6.158449e+01
   3.967368e+01  -3.112017e+01
   9.187236e+01   4.478266e+00
   5.763065e+00   4.889287e+01
  -1.203798e+01   4.099135e+01
  -4.096935e+01   1.159422e+01
   5.707419e+00   7.883421e+00
   3.966725e+01   8.170946e-01
   7.136745e+00  -2.961116e+00
  -8.093594e+01   3.171848e+01
  -7.014746e+01   3.553483e+01
  -3.849959e+01   2.322089e-01
   8.461870e+00  -5.069689e+01
   3.222695e+01  -7.329468e+01
   2.158023e+01  -2.972476e+01
   2.434203e+01  -7.397582e+00
   3.329411e+00   4.622269e+01
  -2.519688e+00   2.730151e+01
   2.110104e+01  -1.068361e+01
   1.538054e+00  -4.416947e+01
   1.001213e+01  -7.540680e+00
   1.687008e+01  -6.223172e+00
   4.951319e+00  -1.906314e+00
   5.144593e+00   1.958788e+00
  -1.144262e+01   9.813633e+00
  -9.173243e+00   3.713523e+01
  -1.792539e+01   9.149707e+00
  -2.656066e+01  -6.787611e+00
  -1.521064e+00  -3.327689e+01
   3.125325e+01  -5.334382e+01
   2.730461e+01  -7.008776e+00
   7.756007e+01   2.983724e+01
   1.644341e+01   7.552341e+01
  -4.223361e+01   2.411144e+01
  -5.920418e+01   7.998910e-01
  -2.565837e+01  -1.973142e+01
   1.384744e+01  -1.592491e+00
   6.100449e+01   6.334094e-01
   1.184015e+01   3.249359e+01
  -9.337734e+00  -2.800381e+01
  -4.658669e+01   3.453992e+01
  -1.802334e+01  -1.994090e+01
   2.314413e+01  -2.403241e+00
