
 $NMID
 id='ANONYMOUS ', fmtdat='(2E16.6)'
 volume=1.0
 tramp=1.0
 $END
  -4.411378e+03  -1.809086e+02
  -2.812075e+03  -2.643620e+03
   8.017492e+02  -2.713325e+03
   2.219588e+03  -6.883290e+02
   9.320238e+02   7.124234e+02
  -6.312736e+02   5.025513e+02
  -9.729786e+02  -4.726237e+02
   5.244719e+01  -1.151274e+03
   9.540261e+02  -7.230016e+02
   9.376613e+02   2.439035e+02
   3.858666e+02   8.324335e+02
  -2.697973e+02   8.991879e+02
  -6.680101e+02   1.449844e+02
  -3.899822e+02  -7.490166e+02
   2.547114e+02  -7.775093e+02
   5.765940e+02  -1.463186e+00
   2.604392e+02   7.899436e+02
  -3.473624e+02   6.204413e+02
  -6.568625e+02   6.165210e+01
  -2.894842e+02  -4.260065e+02
   6.252543e+01  -4.372576e+02
   2.481440e+02  -2.252839e+02
   2.702564e+02   3.544896e+01
  -1.254201e+02   2.536868e+02
  -5.290104e+02  -5.503620e+01
  -2.377847e+02  -4.821166e+02
   4.830034e+02  -4.273165e+02
   9.255617e+02   9.056144e+01
   4.677960e+02   5.263502e+02
  -3.459758e+02   4.868841e+02
  -7.292634e+02  -4.179837e+01
  -3.554827e+02  -5.043156e+02
   2.748829e+02  -4.899473e+02
   6.157003e+02  -2.034060e+02
   4.024588e+02   2.486759e+02
   4.286229e+01   5.419626e+02
  -2.275918e+02   2.614047e+02
  -1.892694e+02  -2.902637e+02
   2.161949e+02  -4.966615e+02
   4.053052e+02   4.483912e+01
   2.246433e+02   6.823709e+02
  -3.180106e+02   7.331984e+02
  -6.225536e+02  -2.534542e+01
  -2.381693e+02  -5.913777e+02
   2.848239e+02  -3.147073e+02
   3.914477e+02   3.202242e+02
  -3.329563e+01   5.504561e+02
  -5.365095e+02   1.345997e+02
  -6.713906e+02  -4.268075e+02
  -1.750172e+02  -6.105126e+02
   4.094752e+02  -3.697555e+02
   6.813652e+02   9.090949e+01
   3.653351e+02   4.262356e+02
  -1.716076e+02   3.749321e+02
  -4.601737e+02   3.143120e+01
  -2.670701e+02  -2.342379e+02
   1.083770e+02  -9.694386e+01
   8.467200e+01   1.306784e+02
  -1.711781e+02   1.362921e+02
  -3.380709e+02  -1.391428e+02
  -1.204948e+02  -3.301259e+02
   2.222341e+02  -2.309215e+02
   3.428954e+02  -1.168433e+01
   1.527988e+02   1.108424e+02
  -3.660874e+01   2.120355e+02
  -1.906163e+02   2.909994e+02
  -3.007664e+02   2.396106e+02
  -2.901995e+02  -1.802718e+02
  -9.504141e+01  -4.173003e+02
   1.156445e+02  -3.851099e+02
   1.034059e+02  -7.391559e+01
   2.817657e+01   5.366468e+01
  -1.961436e+01  -1.114922e+02
   2.088732e+02  -1.911301e+02
   2.711785e+02   3.580646e+01
   1.598234e+02   2.774510e+02
  -8.087225e+01   2.991631e+02
  -2.089175e+02   2.822546e+01
  -1.729652e+02  -2.568485e+02
   3.153531e+01  -3.335007e+02
   2.917586e+02  -9.825644e+01
   3.390590e+02   2.110822e+02
   1.860154e+02   3.789756e+02
  -1.324611e+02   3.035244e+02
  -2.533097e+02   1.227923e+02
  -1.285568e+02  -3.542712e+01
  -7.559083e+01   1.766155e+01
  -2.489269e+02   5.467224e+01
  -4.086093e+02  -8.518879e+01
  -3.296182e+02  -2.976681e+02
   2.797948e+01  -4.382026e+02
   4.084147e+02  -4.515332e+02
   5.052571e+02  -1.962243e+02
   3.471847e+02   9.658233e+01
   5.010463e+01   3.150673e+02
  -1.398434e+02   2.888914e+02
  -1.028124e+02   3.531684e+00
   8.238550e+01  -1.401534e+02
   2.103205e+02  -1.118863e+01
   7.698219e+01   1.827061e+02
  -1.859694e+02   1.896946e+02
  -2.371423e+02  -6.313135e+01
  -4.490086e+00  -2.242291e+02
   2.166098e+02  -7.975699e+01
   1.933307e+02   2.631206e+02
   9.363978e-01   3.371437e+02
  -2.226392e+02   2.163567e+02
  -2.976481e+02  -4.352697e+01
  -2.779018e+02  -2.098176e+02
  -6.871962e+01  -2.386085e+02
   9.854499e+01  -1.540221e+02
   1.828344e+02  -1.542462e-01
   5.676304e+01   2.558379e+01
  -9.511722e+01  -2.297449e+01
  -7.919769e+01  -1.412644e+02
   8.400630e+01  -8.934233e+01
   1.956158e+02   4.399000e+01
   3.199276e+01   7.962055e+01
  -7.706888e+01   6.661045e+00
  -4.947383e+01  -1.000761e+02
   9.081173e+01  -6.185649e+01
   2.877450e+02   3.837891e+01
   2.509240e+02   1.324944e+02
   7.374287e+01   2.974778e+02
  -1.667699e+02   2.787833e+02
  -2.822029e+02   1.552094e+02
  -1.559970e+02  -2.455613e+01
   3.274419e+01  -1.271118e+02
   6.549701e+01   1.292146e+01
  -3.995591e+01   8.951989e+01
  -2.079962e+02   6.381869e+01
  -1.662620e+02  -1.095118e+02
  -5.375636e+01  -1.888180e+02
   1.012895e+02  -1.575843e+02
   1.768954e+02  -4.567358e+01
   9.193954e+01   6.141325e+01
  -2.053362e+01   1.774341e+01
  -4.779182e+01  -8.038979e+01
   4.923358e+01  -1.153596e+02
   1.909277e+02  -1.971178e+01
   1.980713e+02   1.141351e+02
   1.110052e+01   2.266028e+02
  -1.670016e+02   1.585740e+02
  -1.948213e+02  -1.120952e+01
  -6.867173e+01  -1.415152e+02
   6.374500e+01  -9.534002e+01
   7.782139e+01  -2.201248e+01
   2.754914e+01   1.030783e+01
  -1.574894e+00   1.779497e+01
   2.246618e+01  -1.442892e+01
   4.063090e+01   3.611136e+01
   4.719852e+01   1.006715e+02
   1.224600e+01   9.579363e+01
  -1.257538e+02   1.731308e+02
  -2.447376e+02   3.489831e+01
  -2.030771e+02  -1.862456e+02
  -5.386613e+01  -2.354057e+02
   1.167841e+02  -1.911354e+02
   1.624281e+02  -5.051973e+00
   7.121030e+01   7.430346e+01
   3.954907e+00   6.194075e+01
   3.964620e+01   5.291454e+00
   4.231075e+01   3.604443e+01
   4.571323e+01   2.442284e+01
  -4.435254e+01   6.650089e+01
  -1.329355e+02   3.181515e+01
  -1.164077e+02  -2.650953e+00
  -1.001866e+00  -7.561251e+01
   1.427066e+02  -1.016665e+02
   2.362312e+02   4.028110e+01
   1.305761e+02   1.987818e+02
  -8.155091e+01   2.223787e+02
  -2.784634e+02   1.071704e+02
  -1.993904e+02  -6.620936e+01
  -7.357302e+01  -1.557204e+02
   4.298648e+01  -1.367965e+02
   8.130972e+01  -7.740655e+01
   7.918524e+01  -5.317277e+01
   7.631820e+01  -1.203823e+02
   7.002981e+01  -8.201193e+01
   8.075103e+01   2.321986e+01
   9.948938e+01   1.257444e+02
   3.486892e+01   2.681569e+02
  -8.347301e+01   1.897902e+02
  -1.771277e+02   4.417763e+01
  -1.406179e+02  -1.100488e+02
  -4.590639e+01  -1.651212e+02
   2.925203e+01  -1.380076e+02
   8.486665e+01  -2.735937e+01
  -3.380451e+00   4.067552e+01
   1.304868e+01   5.947234e+01
   5.563377e+01   2.624887e+01
   8.951649e+01  -2.549226e+01
   4.525002e+01   6.970131e+00
  -1.101625e+01   5.947570e+01
  -1.121682e+02   3.940340e+01
  -1.643729e+02  -3.787876e+01
  -4.693001e+01  -7.019893e+01
   8.603421e+01  -8.571914e+01
   1.531659e+02  -4.192318e+01
   3.824058e+01   3.147410e+01
  -6.814834e+01   4.330238e+01
  -1.020091e+02  -3.678040e+01
   1.379852e+01  -9.885605e+01
   5.924673e+01  -7.651572e+01
   6.898874e+01   3.084602e-01
   4.648950e+01   5.852556e+01
   7.551231e+01   4.961698e+01
   5.209184e+01   2.196616e+01
   4.899390e+01   3.787132e+01
   3.612638e+00   8.495263e+01
  -7.600290e+01   1.462765e+02
  -9.166278e+01   1.282149e+02
  -1.283537e+02   7.240380e+00
  -8.872066e+01  -1.153358e+02
   1.714169e+01  -8.954109e+01
   8.458150e+01  -1.694922e+01
   1.753489e+01  -8.322358e+00
  -4.649989e+01  -1.094927e+01
  -1.223131e+02  -4.348388e+01
  -1.101532e+02  -8.795847e+01
   5.228893e+01  -1.090083e+02
   1.821290e+02  -5.273788e+01
   1.419065e+02   3.388780e+00
   4.533153e+01   1.029416e+02
  -5.289338e+01   7.826817e+01
  -8.260848e+01   5.162818e+01
   4.805538e+01  -3.638347e+01
   6.400587e+01   3.314913e+01
   5.379577e+01   8.553633e+01
  -6.166789e+01   1.419930e+02
  -1.793465e+02   7.286803e+01
  -1.161382e+02  -1.100312e+02
   6.092767e+01  -2.133587e+02
   8.894138e+01  -1.529745e+02
   9.868806e+01  -2.419287e+01
   7.276037e+01   1.243676e+02
   2.092361e+01   8.329657e+01
  -3.971045e+01   2.473992e+01
  -5.659103e+01  -2.468055e+01
  -6.765842e+01  -1.345025e+01
  -2.390546e+01   1.287190e+01
  -7.932027e+00   2.951176e+01
  -5.309066e+01  -1.169432e+02
  -4.372236e+01  -1.152659e+02
   1.708674e+01  -2.941175e+01
   1.197403e+02   5.611358e+01
   9.795398e+01   5.831369e+01
   2.714078e+01   4.018476e+01
  -8.534407e+01   5.369072e+00
  -1.017938e+02  -8.811974e+00
   1.203171e+01   3.433645e+00
   7.017674e+00   4.069502e+00
  -1.465208e+01  -2.127972e+01
  -4.279611e+01  -7.782465e+00
  -6.506349e+00   3.159010e+01
   9.246100e+01  -3.173788e-01
   1.272461e+02   1.508268e+00
  -1.406389e+01   9.827253e+01
  -9.548710e+01   1.337029e+02
  -1.628038e+02   6.401290e+01
  -1.431770e+02  -6.309092e+01
  -3.151115e+01  -1.562036e+02
   5.711606e+01  -1.232580e+02
   1.205912e+02  -4.590465e+01
   9.308644e+01   8.370910e+00
   3.912979e+01   3.175023e+01
  -1.435436e+00  -1.779086e+01
   8.045594e+00   7.553442e+00
   3.025250e+01   8.757913e+01
   3.760971e+01   6.157129e+01
   1.475962e+01   9.889871e+01
  -2.268559e+00  -1.052099e+01
  -7.281038e+01  -1.000073e+02
  -2.978518e+01  -9.198066e+01
   2.564645e+01  -2.012417e+01
   9.134351e+01   5.899647e+01
   5.562910e+01   7.063285e+01
  -8.015017e+00   5.257973e+01
  -2.433177e+01  -2.516285e+01
  -4.311980e+01   1.350416e+01
   3.251881e+01  -2.907448e+01
  -5.300996e+00  -4.341188e+01
  -8.473897e+01   1.274894e+01
  -8.108650e+01  -2.578378e+01
  -1.897063e+01  -5.536367e+01
   4.788084e+01  -6.322751e+01
   4.838919e+01  -3.888320e+01
   1.632081e+01  -3.200689e+01
  -8.699788e+00   7.558117e+01
  -5.880749e+01   6.889113e+01
  -1.282896e+00   3.477057e+01
   8.688911e+00  -7.343186e+01
  -1.084663e+00  -2.871139e+01
   1.926622e+01   6.283023e+01
  -2.254614e+00   6.573013e+01
  -4.367941e+01   1.135554e+01
  -3.595766e+01  -4.594652e+01
  -1.648700e+01  -7.649714e+01
   5.489842e+00  -1.437685e+01
   1.940454e+01  -2.284165e+01
  -1.288647e+01   3.086667e+01
  -9.573900e+00  -3.217836e+01
   4.430843e+01  -1.164887e+01
   2.760661e+01  -1.820902e+01
   8.204073e+01   5.033066e+01
   8.047080e+00   9.675142e+01
  -6.029610e+01   2.798014e+01
  -1.035103e+02   7.939534e+00
  -5.239729e+01  -4.017605e+01
   3.685028e+01  -4.331774e+00
   1.085004e+02   2.701657e+01
   9.388538e+01   1.470420e+01
  -2.054362e+01   2.295941e+01
  -5.477429e+01   1.935186e+01
  -1.362092e+01   5.044931e+01
   5.526791e+01   3.842093e+00
   1.082632e+01   7.062062e+01
  -2.251876e+00   9.466300e+00
  -7.173047e+01   1.182556e+01
