
 $NMID
 id='ANONYMOUS ', fmtdat='(2E16.6)'
 volume=1.0
 tramp=1.0
 $END
  -4.952463e+03   1.294256e+02
  -2.473943e+03  -2.926735e+03
   1.005627e+03  -2.861460e+03
   2.408029e+03  -1.060549e+03
   1.070994e+03   8.236257e+02
  -8.945934e+02   6.447787e+02
  -1.059565e+03  -4.863678e+02
  -2.063215e+01  -1.314946e+03
   9.981685e+02  -8.775391e+02
   1.076038e+03   8.068883e+01
   5.800234e+02   1.007270e+03
  -2.459327e+02   9.867468e+02
  -8.549395e+02   1.080807e+02
  -3.859857e+02  -7.738048e+02
   2.924691e+02  -9.054010e+02
   7.451718e+02   6.280407e+01
   2.520135e+02   7.912058e+02
  -3.761927e+02   6.041757e+02
  -6.501060e+02  -8.542406e+00
  -4.305878e+02  -4.326050e+02
  -2.920283e+01  -4.579379e+02
   2.216234e+02  -2.899356e+02
   2.998972e+02  -8.896297e+01
  -4.362384e+01   7.515243e+01
  -4.550525e+02  -8.619781e+01
  -2.806613e+02  -4.441318e+02
   4.574463e+02  -4.777199e+02
   9.512459e+02  -3.098032e+01
   5.100975e+02   5.975322e+02
  -4.050662e+02   5.598693e+02
  -8.093536e+02  -6.164728e+00
  -3.214392e+02  -5.458040e+02
   3.527989e+02  -6.318608e+02
   6.943293e+02  -2.724649e+02
   4.810066e+02   3.190886e+02
   9.475120e+01   5.175971e+02
  -2.090180e+02   3.552602e+02
  -2.236572e+02  -2.266165e+02
   1.155320e+02  -5.215662e+02
   4.423108e+02   3.230406e+00
   3.221521e+02   7.665406e+02
  -3.675610e+02   8.205765e+02
  -6.898436e+02  -7.540805e+01
  -2.785971e+02  -6.327985e+02
   3.261981e+02  -3.873066e+02
   5.147590e+02   3.715567e+02
  -8.928926e+01   6.742718e+02
  -6.291251e+02   1.492597e+02
  -6.492739e+02  -4.465784e+02
  -2.081115e+02  -6.096506e+02
   3.632337e+02  -3.471153e+02
   6.485719e+02   2.428222e+01
   4.271148e+02   4.313295e+02
  -1.891966e+02   4.379872e+02
  -4.906061e+02   7.149460e+01
  -2.328688e+02  -2.012536e+02
   1.578585e+02  -1.317931e+02
   2.055114e+02   1.504829e+02
  -2.444976e+02   2.469497e+02
  -3.925333e+02  -3.546306e+01
  -1.724709e+02  -3.255378e+02
   2.271910e+02  -2.869767e+02
   3.384656e+02  -8.652082e+00
   2.078822e+02   5.730253e+01
  -3.054982e+01   1.656201e+02
  -2.471230e+02   2.937310e+02
  -3.406863e+02   1.776403e+02
  -2.528078e+02  -1.190380e+02
  -1.500486e+01  -4.474789e+02
   1.228135e+02  -3.701971e+02
   1.163900e+02  -1.149108e+02
   1.129032e+01   5.331162e+01
   4.026228e+01  -1.359389e+02
   2.228330e+02  -1.318508e+02
   2.852032e+02   4.106367e+01
   1.547987e+02   2.656169e+02
  -1.217627e+02   2.889690e+02
  -2.797705e+02   2.504563e+01
  -1.855982e+02  -2.236877e+02
   2.784352e+01  -3.261934e+02
   3.079324e+02  -1.566752e+02
   3.579899e+02   1.247610e+02
   1.925461e+02   3.665157e+02
  -1.188567e+02   3.729533e+02
  -2.261567e+02   1.435167e+02
  -8.898658e+01   1.607375e+01
  -1.104209e+02  -1.819734e+01
  -2.623259e+02   4.697357e+01
  -4.128027e+02  -2.542974e+01
  -3.377924e+02  -2.819049e+02
   2.406491e+01  -4.783996e+02
   3.691624e+02  -4.571567e+02
   5.180131e+02  -1.951444e+02
   3.311283e+02   8.980973e+01
   4.582725e+01   3.068142e+02
  -1.906826e+02   2.827080e+02
  -1.091910e+02   3.017883e+01
   1.178639e+02  -1.393316e+02
   2.391281e+02   2.523991e+01
   8.654199e+01   2.396163e+02
  -2.249845e+02   2.126554e+02
  -2.544328e+02  -6.214970e+01
   6.209583e-01  -2.014478e+02
   2.075343e+02  -4.647274e+01
   1.760177e+02   2.668414e+02
  -3.341557e+01   3.858295e+02
  -2.218237e+02   1.900126e+02
  -3.545346e+02  -1.008931e+02
  -2.300935e+02  -2.339059e+02
  -1.042575e+02  -2.297171e+02
   7.720426e+01  -1.377209e+02
   1.376759e+02  -1.384427e+01
   5.732553e+01   7.872575e+01
  -1.118091e+02  -2.147483e+01
  -2.757937e+01  -1.383846e+02
   1.486429e+02  -1.350661e+02
   1.926670e+02   1.217489e+01
   7.524744e+01   9.054130e+01
  -7.993004e+01   4.567250e+00
  -7.549221e+01  -4.504625e+01
   1.479938e+02  -1.127867e+02
   2.388940e+02  -4.883263e+01
   2.646628e+02   1.557573e+02
   9.079573e+01   2.309190e+02
  -1.717062e+02   2.397655e+02
  -2.809524e+02   1.086496e+02
  -1.738632e+02  -6.200233e+01
   2.942984e+01  -1.014036e+02
   1.236151e+02  -5.711488e+00
  -5.847066e+01   1.137936e+02
  -2.041843e+02   7.816652e+01
  -2.658044e+02  -9.371274e+01
  -9.590751e+01  -2.360517e+02
   1.034799e+02  -1.772807e+02
   1.828774e+02  -2.388068e+01
   8.816466e+01   5.564630e+01
   4.214150e+00   2.317331e+01
  -2.107985e+01  -5.579560e+01
   9.527704e+01  -7.930164e+01
   2.282031e+02  -2.117335e+01
   1.742998e+02   1.348918e+02
   2.313757e+01   2.563432e+02
  -1.747671e+02   1.390724e+02
  -2.320641e+02  -3.255471e+01
  -1.079255e+02  -1.307980e+02
   8.716391e+01  -1.317859e+02
   9.191397e+01  -3.112184e+01
   5.500326e+01   3.981883e+01
  -3.349418e+01   1.445061e+01
  -3.453855e+01  -2.066924e+01
   6.241362e+01   3.603212e+01
   1.092783e+02   5.418499e+01
   1.878143e+01   1.448577e+02
  -1.297426e+02   1.732959e+02
  -2.196279e+02   4.459649e+01
  -1.938120e+02  -1.461134e+02
   5.650082e+00  -2.606588e+02
   1.134833e+02  -2.350368e+02
   9.426516e+01  -4.749942e+01
   1.265087e+02   9.551527e+01
   5.514278e+01   5.475315e+01
   4.683968e+01   7.637764e+00
   3.447894e+01  -2.311194e+01
  -4.076627e+01   4.216419e+01
  -7.304208e+01   6.445934e+01
  -7.464667e+01   1.161102e+01
  -6.510151e+01  -5.648316e+01
   7.049250e+00  -1.302896e+02
   1.354770e+02  -5.838780e+01
   2.217166e+02   9.439402e+01
   6.824480e+01   2.302277e+02
  -1.125779e+02   2.052654e+02
  -2.564134e+02   1.262940e+02
  -2.718187e+02  -1.027319e+02
  -1.222642e+02  -1.828157e+02
   9.206115e+00  -1.469948e+02
   9.270505e+01  -8.842270e+01
   8.596638e+01  -1.013713e+02
   8.791475e+01  -1.290950e+02
   9.333078e+01  -4.636558e+01
   1.290728e+02  -1.576604e-01
   1.146871e+02   1.867781e+02
   2.570130e+01   2.248959e+02
  -9.536819e+01   1.954956e+02
  -1.621865e+02   9.096231e+01
  -1.423187e+02  -1.412719e+02
  -3.084742e+01  -1.735032e+02
   7.903658e+01  -4.732013e+01
   5.783736e+01   2.692516e+01
  -2.718905e+00   2.572242e+01
   2.452249e+01   1.909119e+01
   2.503745e+01   1.152194e+01
   2.474982e+01  -1.293952e+01
   9.802917e+01   4.802637e+01
  -5.888589e+01   6.083376e+01
  -1.672052e+02   9.554446e+00
  -1.009659e+02  -8.703456e+01
  -2.166462e+01  -5.307098e+01
   1.140542e+02  -7.009829e+01
   1.437789e+02  -2.228053e+01
   6.344825e+01   4.283155e+01
  -6.827081e+01   4.226379e+01
  -7.312748e+01  -1.257560e+01
  -1.453494e+01   2.420960e+00
   5.113948e+01  -5.738696e+01
   5.136403e+01  -3.166796e+01
   9.197488e+00   3.804469e+01
   3.695492e+01   2.557906e+01
   4.815880e+01  -2.044238e+01
   1.061491e+02   4.087404e+00
   3.113744e+01   3.950449e+01
  -2.998311e+01   1.386917e+02
  -1.172751e+02   1.560889e+02
  -1.694879e+02   5.701437e+01
  -1.106984e+02  -9.544389e+01
   1.113224e+00  -1.158529e+02
   1.056385e+02  -4.151200e+01
   7.354912e+01   4.843846e+01
  -6.164436e+01   1.831806e+01
  -1.463876e+02  -2.756098e+01
  -4.542680e+01  -1.257946e+02
   1.153277e+02  -9.101819e+01
   2.124136e+02  -7.458654e+01
   1.958605e+02  -1.437981e+01
   2.225167e+01   7.805817e+01
  -2.980662e+01   5.397347e+01
  -4.876328e+01  -3.735601e+01
   5.983425e+01  -1.292968e+01
   7.313103e+01   9.918854e+00
   2.695589e+00   1.186277e+02
  -1.006794e+02   1.185664e+02
  -1.199003e+02   3.382655e+01
  -1.064350e+02  -1.449015e+02
  -2.962828e+01  -2.001119e+02
   9.968983e+01  -1.672268e+02
   1.214071e+02  -2.011663e+01
   8.978566e+01   1.291939e+02
  -2.290310e+01   8.326028e+01
  -6.163884e+01   3.111030e+01
  -5.224795e+01  -2.684356e+01
  -5.618742e+01  -5.460574e+01
   3.658994e+00   3.127573e+01
  -1.333425e+01  -4.808324e+00
  -5.993395e+01  -2.216559e+01
  -8.000334e+01  -6.552585e+01
   2.434866e+01   9.555991e-01
   7.929496e+01   2.827389e+01
   9.253810e+01   1.177181e+02
   1.921764e+01   3.145725e+01
  -5.455242e+01  -3.251285e+01
  -7.369020e+01  -6.783065e+00
  -4.902687e+00   2.462563e+01
   2.259426e+01  -3.318238e+01
   4.292784e+01  -5.432627e+01
  -2.583059e+00  -7.911361e+00
  -7.406894e+00   2.325191e+01
   1.135183e+02   3.195457e+01
   9.216075e+01   4.918261e+01
   2.397827e+01   1.008901e+02
  -1.498895e+02   1.320962e+02
  -1.703568e+02   5.130965e+01
  -1.253856e+02  -1.117809e+02
  -5.845654e+01  -1.780689e+02
   8.478077e+01  -9.264063e+01
   1.165322e+02  -7.011645e+01
   1.054110e+02   9.681635e+01
   1.483677e+01   4.913305e+01
  -3.741583e+01   4.443213e+01
   4.775988e+00   1.643929e+01
   4.664638e+01   4.371309e+01
   1.605493e+01   1.215054e+02
  -4.291345e+01   8.162147e+01
  -7.060501e+01  -1.903781e+01
  -8.265140e+01  -1.351794e+02
   4.213845e+01  -1.600824e+02
   6.178609e+01   3.670054e+00
   9.483783e+01   7.926602e+01
   4.954316e+01   8.102948e+01
  -6.964508e+01   6.883016e+01
  -8.679221e+01  -2.238934e+01
  -4.866983e+01  -8.290429e+01
   5.384237e+01  -5.098563e+01
   7.345703e+01  -1.390620e+00
  -5.076800e+00   1.060392e+01
  -7.659545e+01   4.104725e+01
  -1.587718e+01   4.699182e+01
   8.352216e+01  -1.065876e+02
   9.072113e+01  -5.732700e+01
  -2.404708e+00   7.360693e+00
  -2.214448e+01   1.101923e+02
  -7.106167e+01   8.794471e+01
   6.008626e+00   4.832719e+01
  -1.555070e+01  -6.386519e+01
   3.353478e+01  -5.982632e+01
   3.098248e+00   4.203988e+01
   1.419666e+01  -1.811653e+01
   6.394579e+00   3.057296e+01
   2.641360e+01  -3.379407e+01
   2.755071e+01   1.467909e+01
  -1.994482e+01   6.387706e+01
   3.556019e+01   2.265992e+01
   1.432883e+00  -9.172535e-01
   1.244571e+01  -8.423456e+01
   1.332542e+01  -5.955854e+01
   5.480687e+01   1.902777e+01
   3.569389e+01   3.089356e+01
   1.057684e+01   6.776088e+01
  -4.403766e+01   5.109931e+01
  -4.515449e+01  -1.923367e+01
   3.852883e+01  -3.651266e+01
   4.372297e+01  -6.723602e+01
   7.111125e+01   1.093937e+01
   4.888831e+01   4.740182e+01
  -3.835769e+01   7.570608e+01
  -3.720865e+01   6.829327e+00
  -4.634129e+01   8.789448e+00
   2.821837e+01   4.135185e+01
   4.271680e+01   1.529539e+01
  -6.504889e+01   4.020830e+01
  -1.139390e+02   2.796246e+01
