
 $NMID
 id='ANONYMOUS ', fmtdat='(2E16.6)'
 volume=1.0
 tramp=1.0
 $END
   4.551902e+03  -8.912790e+01
   2.686412e+03   2.877898e+03
  -7.984131e+02   2.969474e+03
  -2.368026e+03   9.084926e+02
  -1.089359e+03  -8.417270e+02
   6.593841e+02  -7.191907e+02
   1.025614e+03   4.752523e+02
   9.737482e+00   1.130741e+03
  -8.420210e+02   8.140414e+02
  -1.049054e+03  -8.391202e+01
  -5.243791e+02  -9.533314e+02
   2.370239e+02  -1.036595e+03
   7.285583e+02  -7.584667e+01
   5.415120e+02   7.916044e+02
  -3.023634e+02   7.638246e+02
  -7.100339e+02   5.681721e+01
  -2.483539e+02  -7.968829e+02
   3.902907e+02  -6.841104e+02
   6.140407e+02  -8.472047e+01
   3.700428e+02   4.545197e+02
  -1.763096e+01   4.686692e+02
  -3.039127e+02   3.275615e+02
  -2.302469e+02   5.778452e+01
   2.125550e+02  -1.031696e+02
   3.748198e+02   1.335963e+02
   1.255709e+02   4.808858e+02
  -4.261800e+02   3.628871e+02
  -8.699656e+02  -7.346463e+01
  -4.718582e+02  -5.698558e+02
   3.914400e+02  -5.495629e+02
   7.744704e+02  -2.721107e+01
   3.801616e+02   4.954583e+02
  -2.968226e+02   5.717334e+02
  -5.822161e+02   2.501343e+02
  -4.368549e+02  -1.842642e+02
  -5.874865e+01  -4.994302e+02
   2.276503e+02  -2.806318e+02
   2.306651e+02   2.406167e+02
  -1.939428e+02   4.789264e+02
  -4.719173e+02   3.398315e+00
  -2.447787e+02  -6.849047e+02
   3.214060e+02  -7.978525e+02
   6.224654e+02  -5.889270e+01
   2.788350e+02   5.301063e+02
  -2.671041e+02   3.159484e+02
  -4.058927e+02  -3.344943e+02
   1.206038e+02  -5.420460e+02
   6.064331e+02  -9.385043e+01
   6.348509e+02   4.435236e+02
   1.661130e+02   6.737514e+02
  -4.012500e+02   3.670543e+02
  -7.391010e+02  -3.210354e+01
  -3.974402e+02  -4.142922e+02
   1.698801e+02  -3.756268e+02
   5.069928e+02  -7.547947e+01
   2.462035e+02   2.608841e+02
  -1.420341e+02   1.413367e+02
  -1.914710e+02  -1.835790e+02
   1.496584e+02  -2.470568e+02
   3.723270e+02   3.942938e+01
   1.561323e+02   3.548013e+02
  -2.118427e+02   3.265773e+02
  -3.639740e+02   1.061063e+02
  -2.084280e+02  -7.316023e+01
   2.941357e+01  -2.391039e+02
   2.463006e+02  -3.400939e+02
   3.557406e+02  -2.140008e+02
   2.653284e+02   1.370471e+02
   5.919073e+01   4.260663e+02
  -1.032317e+02   3.771336e+02
  -1.225797e+02   1.289635e+02
   1.232270e+01  -4.420034e+01
  -6.452961e+01   6.557129e+01
  -1.684296e+02   1.360857e+02
  -2.997480e+02  -4.894626e+01
  -1.059472e+02  -2.742217e+02
   8.029920e+01  -2.469411e+02
   2.300921e+02  -1.009590e+00
   2.115903e+02   2.310070e+02
   1.444120e+01   3.077691e+02
  -2.627197e+02   1.095842e+02
  -3.889939e+02  -1.382713e+02
  -1.825526e+02  -3.911765e+02
   5.352651e+01  -3.348728e+02
   2.336143e+02  -1.518704e+02
   1.418796e+02   3.121345e+01
   1.416448e+02  -3.746242e+00
   2.457492e+02  -5.324393e+01
   3.899795e+02   3.845235e+01
   3.610685e+02   2.774346e+02
   2.447420e+01   4.318888e+02
  -3.294655e+02   4.380051e+02
  -4.645568e+02   2.275013e+02
  -3.362699e+02  -8.034120e+01
  -9.776608e+01  -3.088561e+02
   1.189254e+02  -2.698105e+02
   8.994804e+01  -2.459397e+01
  -7.708942e+01   7.897824e+01
  -1.712045e+02   6.864637e-01
  -3.512414e+01  -2.015121e+02
   1.612836e+02  -2.082144e+02
   1.764745e+02   1.050817e+02
  -2.315418e+01   2.086216e+02
  -1.766664e+02   4.192529e+01
  -1.774210e+02  -3.027701e+02
   2.665909e+01  -3.748079e+02
   2.370283e+02  -2.016994e+02
   3.448286e+02   7.081740e+01
   2.474563e+02   2.222163e+02
   8.342533e+01   2.225510e+02
  -6.587540e+01   1.423160e+02
  -1.638929e+02   6.650620e+00
  -4.747223e+01  -4.249669e+01
   8.459983e+01  -1.287938e+01
   3.123962e+01   1.051656e+02
  -9.735763e+01   8.859023e+01
  -1.218003e+02   1.290480e-01
  -2.773293e+01  -5.239556e+01
   4.802119e+01  -3.684143e+01
   3.629779e+01   5.664669e+01
  -9.292116e+01   7.823698e+01
  -2.463147e+02  -3.531679e+01
  -2.638093e+02  -1.677016e+02
  -6.067387e+01  -2.940609e+02
   1.745514e+02  -2.595500e+02
   2.824882e+02  -1.486739e+02
   1.632342e+02   3.345313e+01
  -1.339386e+01   8.245027e+01
  -4.860140e+01   5.709688e+00
   3.666476e+01  -1.289631e+02
   2.496819e+02  -6.522124e+01
   2.623634e+02   9.533885e+01
   4.748459e+01   2.089134e+02
  -1.163622e+02   1.513522e+02
  -1.132297e+02   6.543635e+00
  -6.836514e+01  -1.643894e+01
   9.308145e+00   6.045003e+00
   6.437358e+01   1.004223e+02
  -6.354524e+01   1.717559e+02
  -1.696541e+02   4.009352e+01
  -1.933183e+02  -1.187797e+02
  -4.722268e+01  -2.113821e+02
   1.478574e+02  -2.088329e+02
   1.764390e+02  -1.121667e+01
   5.179143e+01   9.822072e+01
  -1.019389e+02   8.061662e+01
  -4.054340e+01   2.922504e+01
  -1.083131e+01  -3.450652e+01
   1.552786e+01   1.876412e+00
  -4.762279e+01   4.147114e-01
  -8.809250e+01  -1.476081e+01
  -4.985390e+01  -1.271974e+02
   4.357167e+00  -1.965012e+02
   1.143024e+02  -1.838531e+02
   2.430105e+02  -2.882353e+01
   2.633071e+02   1.406661e+02
   7.479613e+01   2.678182e+02
  -1.038507e+02   1.439619e+02
  -1.347913e+02   3.321899e+01
  -9.100506e+01  -1.111731e+02
   1.750863e+01   2.550933e+01
  -6.121064e+01   4.820516e+01
  -8.570321e+01   1.494704e+01
  -3.519003e+01  -8.026873e+01
   6.674455e+01  -8.308338e+01
   8.737973e+01  -1.419003e+00
   5.317899e+01  -1.105914e+01
   1.925213e+00   9.653133e+01
  -1.868138e+02   9.247934e+01
  -2.121824e+02  -5.348605e+01
  -8.088544e+01  -1.978592e+02
   8.614438e+01  -2.739266e+02
   2.562115e+02  -1.380366e+02
   2.482612e+02   7.004099e+01
   1.671307e+02   1.444111e+02
  -5.968536e+01   1.420020e+02
  -1.015127e+02   7.898718e+01
  -2.983268e+01   9.392090e+01
  -7.760721e+01   1.144028e+02
  -8.322574e+01   1.031989e+02
  -7.153123e+01  -2.488720e+01
  -1.599681e+02  -1.452444e+02
   8.856533e+00  -2.259639e+02
   1.297024e+02  -1.847116e+02
   1.985774e+02  -2.855465e+01
   1.415977e+02   1.202391e+02
   2.831080e+00   1.770299e+02
  -4.232898e+01   6.003689e+01
  -3.696521e+01  -1.223057e+01
   1.944775e+01  -5.063967e+01
   7.659764e+00  -7.945493e+00
  -4.018881e+01   9.844742e+00
  -6.077365e+01  -4.354920e+01
   9.374897e+00  -6.917359e+00
   9.185204e+01  -1.251132e+00
   2.069188e+02   1.538672e+01
   1.010601e+02   2.443545e+00
   2.707616e+01   8.271868e+01
  -1.551583e+02   5.048362e+01
  -1.668259e+02  -2.372236e+00
   6.380272e-01  -1.053446e+01
   1.128681e+02  -4.864945e+01
   8.985910e+01   3.980986e+01
   4.638374e+01   8.266759e+01
  -8.536245e+01   1.464385e+01
  -9.414592e+01  -5.172503e+01
  -1.445365e+01  -7.712475e+01
  -2.997156e+01  -3.399761e+01
  -5.621691e+01   3.429776e+01
  -4.921687e+01   5.104710e+01
  -8.318908e+00  -9.263149e+01
   4.526230e+01  -1.320353e+02
   1.366971e+02  -1.301104e+02
   1.702340e+02  -2.182130e+00
   1.284578e+02   8.721180e+01
   1.702149e+01   1.560463e+02
  -9.759766e+01   3.796879e+01
  -3.467465e+01  -2.579033e+00
   9.504725e+01   2.533467e-01
   1.496196e+02   5.275106e+01
   7.886500e+01   9.286130e+01
  -1.101971e+02   1.482756e+02
  -1.575853e+02   4.183483e+01
  -1.630675e+02  -1.205428e+01
  -7.328024e+01  -1.167237e+02
   9.125519e+01  -3.508351e+01
   3.759209e+01  -5.128171e+00
  -1.103535e+01   1.755198e+01
  -9.445335e+01  -7.265440e+01
  -5.449648e+00  -1.650966e+02
   1.081370e+02  -1.459437e+02
   1.631311e+02  -9.005912e+01
   1.405024e+02   1.273092e+02
  -3.806468e+01   2.262862e+02
  -8.259439e+01   9.987930e+01
  -1.442574e+02  -3.588656e+01
  -9.131149e+00  -1.486092e+02
   2.027212e+01  -1.313117e+02
   2.778739e+01   5.223187e+00
   4.358561e+01   3.903429e+01
   7.576800e-02   4.139530e+01
   5.983185e+00  -2.977216e+01
   1.261538e+01   6.675236e+00
   5.883482e+01   3.583264e+01
   5.078892e+01   6.885511e+01
  -1.413347e+01   6.092036e+01
  -1.245468e+02  -1.152786e+01
  -1.373386e+02  -6.861421e+01
  -3.036430e+01  -3.133163e+01
   1.000637e+02  -2.688128e+01
   2.398687e+01  -1.453964e+01
  -9.117498e+00   2.371875e+01
  -5.181249e+01   5.170007e+01
  -4.341023e+01  -3.014672e+01
   3.528546e+01  -1.597353e+01
  -2.365868e+01  -8.927125e+00
  -8.819409e+01  -2.248617e+01
  -3.487542e+01  -2.585466e+01
   2.538141e+01  -1.109017e+02
   1.313167e+02  -1.339483e+02
   2.340766e+02  -7.029786e+01
   1.490058e+02   7.747293e+01
   1.109107e+01   1.676427e+02
  -1.202483e+02   1.473195e+02
  -1.449820e+02   6.674316e+01
  -9.252001e+01   8.662135e+00
  -1.684578e+00  -5.348814e+01
   1.262697e+01  -2.271277e+01
  -5.213805e+01  -5.090572e+01
  -6.341105e+01  -2.871191e+01
   3.327112e+01  -9.523919e+01
   3.032639e+01  -6.868550e+01
   9.182640e+01   5.495278e+01
   7.494379e+01   1.089207e+02
   1.745937e+01   1.445028e+02
  -6.238203e+01   1.200005e+01
  -1.042144e+02  -7.419772e+01
  -6.787452e+01  -1.107028e+02
   3.891576e+01  -1.776874e+01
   1.040556e+02  -2.515545e+01
   7.620212e+01   4.545928e+01
  -3.249755e+01   4.280760e+01
  -2.182271e+01   5.026959e+01
   5.848639e+01  -1.396649e+01
   3.034191e+01   4.492518e-01
  -4.419961e+00   2.739569e+01
  -9.550460e+01   5.295213e+01
  -9.951639e+01   6.088419e+01
  -6.408842e+01   2.184568e+01
   3.216156e+01  -1.215272e+02
   5.881547e+01  -8.081557e+01
   6.887240e+01  -4.866691e+01
  -1.568515e+01   5.115520e+01
  -3.552142e+01   3.141972e+01
  -6.246184e+01  -2.207913e+01
  -3.545582e+01  -4.521474e+01
   7.451080e+00  -4.509862e+01
   4.792909e+01  -9.456009e+00
   2.644556e+01   1.407081e+01
   3.868346e+01  -2.822038e+01
   2.687000e+01   1.088838e+01
  -7.109911e+00  -7.745803e-01
  -6.095984e+00   4.805432e+01
  -5.719591e+00   5.777048e+01
  -4.815120e+01  -1.749708e+01
  -2.347687e+01  -4.518352e+01
   3.076786e+00  -4.777558e+01
   2.955918e+01  -3.969533e+01
   4.773011e+01   8.573266e+01
   1.162025e+01   6.359495e+01
  -1.007936e+02   8.139491e+01
  -1.191901e+02  -4.498036e+01
  -3.213049e+01  -6.246346e+01
   4.838685e+01  -2.190647e+01
   7.643574e+01  -2.670040e+01
   5.720265e+01  -1.319432e+01
  -2.983994e+01  -1.259521e+01
  -4.631772e+01   6.457139e+00
   3.695608e+01  -5.024194e+01
   1.115663e+02  -4.404939e+01
