
 $NMID
 id='ANONYMOUS ', fmtdat='(2E16.6)'
 volume=1.0
 tramp=1.0
 $END
  -4.839685e+03   1.021028e+02
  -2.985244e+03  -2.955675e+03
   1.019368e+03  -3.360013e+03
   2.428244e+03  -9.227846e+02
   9.255048e+02   7.353455e+02
  -8.786293e+02   4.978358e+02
  -8.996133e+02  -5.966757e+02
   5.726298e+01  -1.205566e+03
   9.212336e+02  -8.651314e+02
   9.648987e+02   1.000226e+02
   5.084725e+02   9.626660e+02
  -3.149180e+02   9.982794e+02
  -7.279136e+02   1.059462e+02
  -4.492383e+02  -7.809858e+02
   3.731592e+02  -8.307450e+02
   7.377105e+02   5.874854e+01
   2.951479e+02   7.228086e+02
  -4.716062e+02   6.790805e+02
  -7.403707e+02   5.123409e+01
  -3.564551e+02  -3.629521e+02
  -5.413781e+01  -4.366341e+02
   1.892186e+02  -3.422004e+02
   1.829946e+02  -2.734441e+01
  -1.241162e+02   4.877371e+01
  -3.450325e+02  -1.130153e+02
  -2.216276e+02  -5.036262e+02
   4.837073e+02  -5.166168e+02
   9.061553e+02   6.742619e+01
   4.940255e+02   6.515003e+02
  -3.629162e+02   5.351219e+02
  -7.628278e+02  -2.460797e+01
  -3.657770e+02  -5.174027e+02
   3.486681e+02  -5.968859e+02
   6.480460e+02  -2.499993e+02
   5.102652e+02   2.958174e+02
   8.426894e+01   5.579878e+02
  -2.455376e+02   3.331936e+02
  -2.208815e+02  -2.322005e+02
   1.729764e+02  -5.090152e+02
   5.058803e+02   2.080871e+01
   2.567636e+02   7.322989e+02
  -3.271066e+02   7.655672e+02
  -6.603226e+02   1.856750e+01
  -3.063280e+02  -6.248260e+02
   3.140903e+02  -3.686471e+02
   4.672104e+02   3.359077e+02
  -3.264581e+01   6.173856e+02
  -5.434054e+02   1.907538e+02
  -6.537270e+02  -4.259977e+02
  -1.895100e+02  -5.694972e+02
   4.111547e+02  -3.251751e+02
   6.482392e+02   8.834189e+01
   3.069769e+02   4.076620e+02
  -2.077084e+02   4.084431e+02
  -5.267361e+02   7.806197e+01
  -2.830846e+02  -2.335484e+02
   1.101992e+02  -1.590957e+02
   1.658798e+02   1.198241e+02
  -1.777572e+02   2.509585e+02
  -3.561766e+02  -2.701084e+01
  -1.678906e+02  -3.308137e+02
   1.821725e+02  -2.833596e+02
   3.658344e+02  -1.073006e+02
   1.990227e+02   1.068844e+02
  -5.148373e+01   2.652852e+02
  -2.269059e+02   3.260450e+02
  -3.420663e+02   2.134705e+02
  -2.945647e+02  -1.127942e+02
  -1.075952e+02  -4.628939e+02
   9.510094e+01  -3.689094e+02
   1.384897e+02  -1.401678e+02
   6.537563e+01   6.569549e+01
   5.182184e+01  -3.210419e+01
   1.258340e+02  -1.176470e+02
   2.593534e+02   5.459666e+01
   2.038323e+02   2.113178e+02
  -3.571874e+01   3.073475e+02
  -2.441428e+02   6.897354e+01
  -2.124998e+02  -2.124719e+02
  -1.057959e+01  -2.869851e+02
   2.914873e+02  -1.682184e+02
   4.181005e+02   1.846196e+02
   2.022209e+02   3.727183e+02
  -6.460572e+01   3.332400e+02
  -2.091834e+02   1.538048e+02
  -1.981116e+02   4.401767e+00
  -9.667455e+01  -1.573870e+00
  -1.975329e+02   6.857351e+01
  -4.192224e+02  -5.817362e+01
  -3.729348e+02  -3.070961e+02
   8.178027e+00  -5.019192e+02
   3.590482e+02  -4.205863e+02
   5.054009e+02  -1.981215e+02
   3.704973e+02   1.207412e+02
   7.404602e+01   3.289830e+02
  -1.539440e+02   2.165551e+02
  -8.339585e+01  -2.812426e+00
   1.370393e+02  -9.005281e+01
   2.374628e+02  -1.335181e+01
   7.273427e+01   2.216995e+02
  -2.087095e+02   2.013797e+02
  -1.881339e+02  -1.205281e+02
   7.882274e+01  -2.262915e+02
   2.302701e+02  -1.700245e+01
   1.733838e+02   2.994730e+02
  -7.612515e+01   4.192020e+02
  -2.537454e+02   2.109097e+02
  -3.671022e+02  -6.322122e+01
  -2.611696e+02  -2.475601e+02
  -1.101246e+02  -2.879139e+02
   8.329719e+01  -1.658919e+02
   1.959205e+02  -1.491654e-01
   9.750173e+01   4.239307e+01
  -1.195486e+02  -3.143215e+01
  -6.672375e+01  -1.224394e+02
   1.107276e+02  -1.598439e+02
   2.174573e+02   8.500099e+00
   1.284039e+02   6.094693e+01
  -1.072355e+02   8.895696e+01
  -4.430216e+01  -7.079798e+01
   1.344896e+02  -9.822625e+01
   2.514997e+02   4.208771e+01
   2.941843e+02   1.589352e+02
   6.907928e+01   2.468167e+02
  -1.968553e+02   2.716886e+02
  -3.355359e+02   1.190476e+02
  -2.188864e+02  -4.351721e+01
   5.909643e+01  -1.164111e+02
   1.360908e+02  -7.982109e+01
  -4.426751e+01   7.911451e+01
  -2.218672e+02   3.599257e+01
  -2.362356e+02  -1.385930e+02
  -5.613637e+01  -1.777428e+02
   1.114811e+02  -2.298552e+02
   1.981989e+02  -7.469267e+01
   1.084358e+02   2.780725e+01
   2.005983e+00   7.259154e+01
  -2.904540e+01  -9.046669e+01
   6.356484e+01  -1.019451e+02
   1.615200e+02  -4.176212e+01
   2.178938e+02   1.515526e+02
   2.991866e+01   2.388193e+02
  -2.227855e+02   2.098477e+02
  -2.154957e+02  -1.310907e+01
  -8.205450e+01  -1.429143e+02
   8.741356e+01  -1.048731e+02
   7.323127e+01  -3.410478e+01
   4.239630e+01   4.069572e+01
  -1.203170e+01  -7.781272e+00
  -2.161850e+01  -2.712940e+01
   4.106430e+01   4.926506e+01
   8.961474e+01   9.204003e+01
   5.178581e+01   1.504514e+02
  -8.642530e+01   1.698093e+02
  -2.052206e+02   4.240360e+01
  -2.289411e+02  -1.182916e+02
  -7.989950e+01  -2.209828e+02
   1.250406e+02  -2.083900e+02
   1.692704e+02  -5.250949e+00
   1.034680e+02   6.488231e+01
  -3.919487e+00   1.512371e+01
   2.706867e+01   1.121315e+01
   1.203843e+02  -1.899533e+01
   2.319998e+01   9.581302e+01
  -4.110251e+01   8.407659e+01
  -1.408826e+02   4.325697e+01
  -6.446684e+01  -2.261537e+00
   2.333525e+01  -9.363463e+01
   1.381415e+02  -1.097608e+02
   1.950257e+02   2.837744e+01
   8.129957e+01   1.704513e+02
  -1.312460e+02   2.652769e+02
  -2.761951e+02   1.685888e+02
  -2.536692e+02  -1.028958e+02
  -1.251282e+02  -1.873448e+02
   2.430115e+01  -1.632116e+02
   6.089899e+01  -4.865459e+01
   1.101800e+02  -5.777586e+01
   4.078232e+01  -6.469206e+01
   7.603525e+01  -3.824961e+01
   1.284416e+02  -9.117489e+00
   1.079407e+02   1.717407e+02
   4.204460e+00   2.129049e+02
  -1.000744e+02   1.957129e+02
  -2.076026e+02   4.886818e+01
  -1.753800e+02  -8.777094e+01
  -3.362970e+01  -1.390303e+02
   8.682167e+01  -8.020131e+01
   7.152096e+01  -4.017447e+01
   7.131581e-01   4.084743e+00
  -9.876731e+00   1.766279e+01
   6.587584e+01  -1.457462e+01
   1.048970e+02   2.462880e+01
   5.562136e+01   6.913017e+01
  -3.250723e+01   8.248273e+01
  -1.671616e+02   1.871855e+01
  -1.494588e+02  -2.720393e+01
  -3.087296e+00  -1.043029e+02
   1.237357e+02  -7.853044e+01
   1.074427e+02  -8.892633e+00
   3.193173e+01   8.195537e+01
  -5.531253e+01   6.845197e+01
  -1.250123e+02  -9.387297e+00
   2.424053e+01  -8.842738e+01
   3.484335e+01  -8.744994e+01
   7.683336e+01   3.988993e+01
  -1.239372e+01   6.867126e+01
   1.723510e+01   5.017553e+01
   2.965866e+01   3.778079e+00
   9.495372e+01  -1.796169e+01
  -1.766949e+00   2.627423e+01
  -5.753834e+01   1.181191e+02
  -1.034940e+02   1.310557e+02
  -1.091553e+02   2.237869e+01
  -1.207964e+02  -4.254792e+01
  -3.068916e+01  -1.188187e+02
   1.008488e+02  -1.977660e+01
   7.745175e+01   4.773105e+01
  -8.057808e+01   2.199751e+01
  -1.334677e+02  -7.610767e+01
  -7.442328e+01  -1.205982e+02
   7.590473e+01  -1.027544e+02
   2.033752e+02  -4.381462e+01
   1.432130e+02   7.173517e+01
   3.005396e+01   9.009560e+01
  -7.452957e+01   6.816995e+01
  -6.070343e+01   2.488013e+01
   2.898299e+01  -6.113344e+01
   9.483212e+01  -1.965864e+00
   5.050153e+01   8.734993e+01
  -8.962006e+01   1.435835e+02
  -1.741934e+02   7.742348e+01
  -1.801437e+02  -6.274132e+01
  -1.732092e+01  -2.086202e+02
   9.901952e+01  -1.608791e+02
   1.317166e+02   1.724556e+01
   8.188607e+01   9.599852e+01
   6.123571e+01   8.966703e+01
  -3.156513e+01  -2.047242e+00
  -7.655419e+01  -8.444533e+01
  -3.589336e+01   5.699871e+00
  -4.054397e+01   5.244128e+01
  -2.171614e+01  -1.953360e+01
  -8.029681e+01  -8.943847e+01
  -2.766608e+01  -1.237898e+02
   1.465200e+01  -3.263120e+01
   1.600756e+02   2.781140e+01
   1.507189e+02   4.047318e+01
   3.172247e+00   2.050703e+01
  -1.020979e+02   3.027815e+01
  -8.800931e+01  -1.780185e+01
  -2.266647e+01   4.701709e+01
   7.797976e+01  -2.360505e+00
   8.484870e+00  -2.307903e+01
  -2.059485e+01  -2.118755e+01
  -2.986176e+00  -2.269830e+01
   4.317195e+01   1.054371e+01
   1.048041e+02  -1.653316e+01
   3.432072e+01   8.581805e+01
  -8.340392e+01   1.488292e+02
  -1.466882e+02   2.201632e+01
  -1.749557e+02  -7.337690e+01
  -3.009586e+01  -1.269340e+02
   6.427251e+01  -1.062508e+02
   1.044064e+02  -6.022265e+01
   9.490002e+01   4.615335e+00
   4.547763e+01  -3.064825e+00
   3.155540e+01  -8.701367e+00
   8.065115e+01   3.392390e+00
   7.571429e+01   3.926698e+01
   2.760937e+01   1.102047e+02
  -2.292928e+01   1.156646e+02
  -8.538290e+01  -1.983668e+01
  -6.142695e+01  -1.199264e+02
  -3.547098e+01  -1.266717e+02
   6.312373e+01   8.107540e+00
   1.339334e+02   4.989376e+01
   4.164620e+01   1.157491e+02
  -7.334103e+01   1.533737e+01
  -1.023873e+02  -1.441364e+01
  -7.855981e+01  -3.273452e+01
   4.191586e+01  -4.118372e+01
   7.576516e+01  -7.263403e-01
  -2.772783e+01   2.643879e+01
  -7.476480e+01  -9.919456e+00
  -2.301626e+01  -6.658322e+01
   6.998961e+01  -9.520164e+01
   9.435756e+01  -8.579630e+01
   3.782022e+01   4.550207e+01
   7.377580e+00   8.445288e+01
  -5.066227e+01   9.576195e+01
  -3.998410e+01   4.565162e+01
   2.735864e+00  -8.008317e+00
   2.678445e+01  -4.790800e+01
  -1.842799e+01  -1.542098e+01
   5.770914e+00   2.457450e+01
  -1.225480e+01  -1.083880e+01
   3.652859e+00  -4.267494e+01
  -2.549405e+01  -2.761477e+01
   4.708230e+00   5.435731e+00
   1.510429e+01   9.792309e+00
   4.379313e+00  -8.169118e+00
   5.108769e+01  -1.993855e+01
   4.053538e+01  -7.800841e+01
   5.318742e+01  -9.997165e+00
   2.871450e+01   7.761709e+01
  -1.109561e+01   7.254429e+01
  -7.331027e+01  -2.013953e+01
  -6.877815e+01  -7.313980e+01
  -1.037828e+01  -8.660597e+01
   7.751417e+01  -2.444610e+01
   1.146215e+02   2.253247e+01
   5.271643e+01   1.383365e+01
  -2.046458e+01  -1.425475e+01
  -7.549097e+01   1.204271e+01
  -3.141401e+01   2.803702e+01
   3.468504e+01  -7.266286e+00
   3.978728e+01  -1.180744e+01
  -3.459441e+01   5.554568e+01
  -8.721634e+01  -1.535296e+00
