
 $NMID
 id='ANONYMOUS ', fmtdat='(2E16.6)'
 volume=1.0
 tramp=1.0
 $END
  -4.268639e+03   1.903617e+02
  -2.760178e+03  -2.503607e+03
   4.445489e+02  -3.011791e+03
   2.159259e+03  -1.181294e+03
   1.196940e+03   5.010920e+02
  -7.221781e+02   5.826116e+02
  -8.816130e+02  -3.426952e+02
  -6.071286e+01  -1.066373e+03
   8.383044e+02  -8.114877e+02
   1.019706e+03  -5.599226e+01
   5.079126e+02   8.903635e+02
  -2.329411e+02   9.583373e+02
  -6.302948e+02   1.421901e+02
  -4.145992e+02  -7.012728e+02
   3.127918e+02  -7.317303e+02
   6.818378e+02  -2.464976e+00
   3.455369e+02   7.172605e+02
  -3.038833e+02   6.956302e+02
  -6.960297e+02   6.023595e+01
  -3.592975e+02  -3.550775e+02
  -6.252071e+01  -3.720152e+02
   3.074294e+02  -2.336179e+02
   1.691933e+02  -5.572117e+01
  -1.181669e+02  -1.381189e+01
  -4.118484e+02  -1.310101e+02
  -1.594487e+02  -4.437971e+02
   5.325521e+02  -3.459890e+02
   8.520446e+02   1.084156e+02
   4.560560e+02   5.800693e+02
  -4.160491e+02   4.383195e+02
  -7.415150e+02  -2.977778e+01
  -3.056436e+02  -5.121746e+02
   3.355790e+02  -5.083158e+02
   6.077677e+02  -1.387539e+02
   4.366525e+02   2.786915e+02
   1.051748e+02   4.965471e+02
  -1.685095e+02   2.771688e+02
  -1.071186e+02  -1.848761e+02
   2.028446e+02  -3.525341e+02
   4.694731e+02   7.084173e+01
   2.178049e+02   7.587875e+02
  -3.496657e+02   7.182987e+02
  -6.315630e+02   4.234929e+00
  -2.995205e+02  -5.781452e+02
   3.259755e+02  -3.231428e+02
   3.996823e+02   3.977672e+02
  -7.950094e+01   6.271584e+02
  -6.157257e+02   1.251009e+02
  -6.295565e+02  -4.256401e+02
  -1.886012e+02  -6.077362e+02
   3.695456e+02  -3.176263e+02
   6.449140e+02   7.370323e+01
   4.083147e+02   3.520538e+02
  -1.774042e+02   3.529664e+02
  -4.887150e+02   4.886608e+01
  -2.426633e+02  -1.962320e+02
   1.374895e+02  -8.929440e+01
   1.781432e+02   1.451250e+02
  -1.569228e+02   1.672840e+02
  -3.508467e+02  -7.033799e+01
  -1.427048e+02  -2.793416e+02
   1.933460e+02  -2.380069e+02
   3.569334e+02  -1.166328e+02
   2.414314e+02   8.919757e+01
   2.476195e+01   2.571405e+02
  -2.017328e+02   3.582106e+02
  -3.614335e+02   2.472362e+02
  -3.056522e+02  -1.527748e+02
  -8.545203e+01  -4.480975e+02
   1.724650e+02  -3.776897e+02
   8.837156e+01  -9.104823e+01
   1.220599e+01  -4.806406e-01
   3.906927e+01  -1.162035e+02
   2.316824e+02  -1.300746e+02
   3.419194e+02   8.381185e+01
   1.716768e+02   2.749918e+02
  -8.317042e+01   2.082256e+02
  -2.389139e+02   5.491057e+00
  -1.972548e+02  -2.210520e+02
   4.901407e+01  -3.137203e+02
   3.401693e+02  -6.433501e+01
   3.802084e+02   2.162292e+02
   1.916999e+02   3.972396e+02
  -1.024103e+02   2.964876e+02
  -2.867069e+02   1.289911e+02
  -1.579613e+02   6.861735e+00
  -1.188938e+02  -1.729779e+01
  -2.254766e+02   1.099692e+02
  -4.120785e+02  -6.708942e+01
  -3.679009e+02  -2.871364e+02
   1.171559e+01  -4.553702e+02
   3.949755e+02  -4.131080e+02
   5.243967e+02  -1.975677e+02
   3.357136e+02   9.342649e+01
   2.086460e+01   2.990098e+02
  -8.211695e+01   2.342681e+02
  -8.153676e+01   4.401964e+01
   6.467022e+01  -9.132068e+01
   1.861089e+02  -1.272780e+01
   9.655026e+01   1.870495e+02
  -1.083126e+02   1.646822e+02
  -1.369668e+02  -6.161744e+01
   4.124100e+01  -1.848148e+02
   1.819415e+02  -4.932959e+01
   1.362621e+02   2.492434e+02
  -4.865612e+01   3.614292e+02
  -2.590968e+02   1.973749e+02
  -3.432581e+02  -5.930129e+01
  -2.989900e+02  -2.933934e+02
  -1.350817e+02  -2.586812e+02
   1.055693e+02  -1.717735e+02
   1.459350e+02  -3.040910e+01
   1.585287e+01   1.462491e+01
  -9.675779e+01  -7.757901e+01
  -2.199190e+01  -1.402813e+02
   1.711463e+02  -6.129581e+01
   2.416106e+02   2.759108e+01
   4.364587e+01   9.341614e+01
  -1.020698e+02   1.077671e+01
  -1.067906e+02  -1.061895e+02
   9.693266e+01  -6.535926e+01
   2.830571e+02   2.968787e+01
   2.795247e+02   1.647431e+02
   8.155294e+01   3.055972e+02
  -2.014221e+02   2.800060e+02
  -2.733724e+02   1.311135e+02
  -1.521274e+02  -2.153007e+01
   1.473998e+01  -6.255835e+01
   1.112061e+02   1.644585e+01
  -4.300281e+01   1.332432e+02
  -2.253446e+02   8.289740e+01
  -1.999139e+02  -1.048522e+02
  -2.002811e+01  -1.882120e+02
   1.105028e+02  -1.632414e+02
   1.140195e+02  -5.685443e+01
   5.497811e+01   2.697518e-01
   3.876635e+00   8.540816e+00
  -2.188543e+01  -1.029623e+02
   1.143283e+02  -1.388424e+02
   2.009332e+02  -2.279731e+00
   1.797998e+02   1.153076e+02
  -1.496199e+01   2.063819e+02
  -2.419551e+02   1.328275e+02
  -2.083362e+02  -2.092528e+01
  -3.985686e+01  -1.401615e+02
   8.588191e+01  -1.154556e+02
   7.741670e+01  -4.223130e+00
  -1.268847e+01   5.429475e+01
  -6.109747e+01   3.038106e+01
   9.018517e+00   5.100174e+00
   8.577661e+01  -1.843683e+01
   1.011402e+02   1.163471e+02
  -1.283773e+01   2.047946e+02
  -1.682925e+02   1.982810e+02
  -2.635188e+02   1.335977e+01
  -2.027924e+02  -2.019826e+02
  -4.032166e+01  -2.926290e+02
   1.124886e+02  -1.874673e+02
   1.429976e+02  -5.033051e+01
   4.736122e+01   6.435011e+01
   2.225448e+01   6.094759e+01
   4.779142e+01  -1.333335e+01
   5.734688e+01  -1.258108e+01
   5.069623e+01  -1.444984e-02
  -3.113169e+01   8.051899e+01
  -1.352530e+02   1.786555e+01
  -6.766264e+01  -8.410204e+01
   6.712626e+00  -9.804530e+01
   1.643334e+02  -7.784262e+01
   2.041917e+02   6.688731e+01
   5.836949e+01   2.141034e+02
  -1.173435e+02   2.148121e+02
  -2.945659e+02   1.069232e+02
  -2.643448e+02  -9.483929e+01
  -1.580937e+02  -2.154336e+02
   2.887585e+01  -1.669551e+02
   7.013837e+01  -9.207994e+01
   7.695183e+01  -8.398192e+01
   1.162694e+02  -1.180231e+02
   1.002239e+02  -5.470466e+01
   1.260700e+02   3.209700e+00
   1.489227e+02   1.772032e+02
   3.862754e+01   2.132118e+02
  -7.819042e+01   1.981438e+02
  -1.970588e+02   3.642790e+01
  -1.188069e+02  -1.435841e+02
  -2.485852e+01  -1.571988e+02
   8.206331e+01  -1.626337e+02
   7.540078e+01  -1.407095e+00
   3.688543e+01   2.647370e+01
   3.088517e+01   4.444868e+01
   3.312239e+01   4.474897e+01
   6.041416e+01   2.982901e+01
   1.999908e+01   3.763812e+01
  -1.142937e+02   1.626937e+01
  -1.445224e+02  -4.249912e+01
  -1.326094e+02  -5.280121e+01
   1.749536e+01  -1.072416e+02
   1.303660e+02  -1.104456e+02
   1.489388e+02   1.076070e+01
   8.082823e+01   8.430104e+01
  -6.914505e+01   3.073083e+01
  -6.548798e+01  -1.136100e+01
   3.638197e+00  -8.825237e+01
   3.936669e+01  -7.079205e+01
   6.002095e+01  -2.956558e+00
   2.848084e+01   6.220209e+01
  -5.660490e+00   8.063029e+01
   5.526828e+01   1.085319e+01
   7.834893e+01   3.766635e+01
   2.038191e+01   7.795039e+01
  -7.062640e+01   1.397674e+02
  -1.067771e+02   1.220509e+02
  -1.790068e+02   8.420628e+00
  -1.260052e+02  -1.186031e+02
   2.696278e+01  -1.274107e+02
   9.320131e+01  -1.922659e+01
   4.922653e+01   7.922107e+01
  -6.776374e+01   1.332105e+01
  -1.493660e+02  -5.882439e+01
  -6.268977e+01  -1.261048e+02
   1.146283e+02  -1.195928e+02
   1.877235e+02  -9.273750e+00
   1.542500e+02   4.184495e+00
   2.113930e+01   9.445574e+01
  -8.604634e+01   4.982123e+01
  -6.218266e+01   8.001428e+01
   2.317200e+01  -1.908570e+01
   8.838222e+01   4.141340e+01
   3.613152e+01   1.224944e+02
  -8.844045e+01   1.701710e+02
  -2.448133e+02   1.019648e+02
  -1.530877e+02  -3.944807e+01
  -6.174299e+01  -1.684137e+02
   7.036730e+01  -1.777868e+02
   9.898360e+01  -3.827662e-01
   3.043784e+01   8.071152e+01
   1.333035e+01   7.008323e+01
  -4.773307e+01  -1.884037e+00
  -1.199011e+02  -6.488590e+01
  -9.069727e+00  -1.720177e+01
   3.862558e+01   3.758602e+00
   2.410387e+01  -4.647335e+00
  -3.349648e+01  -1.095676e+02
  -4.336246e+01  -1.318136e+02
   5.816252e+01  -8.501042e+01
   1.095428e+02   4.446114e+01
   1.026586e+02   6.554384e+01
  -1.307251e+01   3.446484e+01
  -1.014175e+02   7.604368e+00
  -6.957529e+01  -4.583849e-01
  -6.402069e+00   2.670077e+00
   5.351824e+01  -4.469158e+01
   4.938938e+00  -1.970049e+01
  -4.139309e+01  -1.944908e+01
  -5.525239e-01  -1.139793e+01
   7.278211e+01  -6.100698e+00
   7.536670e+01   1.615972e+01
   3.292854e+01   6.826999e+01
  -1.017425e+02   9.939728e+01
  -2.076067e+02   2.455587e+01
  -1.308130e+02  -5.967207e+01
  -1.533721e+01  -1.667891e+02
   1.130587e+02  -1.389484e+02
   1.040947e+02  -5.764052e+01
   4.804203e+01   3.182526e+01
   3.270719e+01   1.324546e+01
   1.033305e+01  -4.602541e+00
   3.887994e+01   6.251195e+00
   3.706458e+01   9.377458e+01
   5.572854e+00   1.200010e+02
  -3.206428e+01   7.938097e+01
  -6.799657e+01  -5.275810e+01
  -7.799703e+01  -1.571681e+02
   1.526589e+01  -1.589785e+02
   1.253248e+02  -3.312578e+01
   1.312451e+02   5.101513e+01
   7.273187e+01   9.588480e+01
  -1.002909e+02   1.083434e+02
  -1.060366e+02  -2.005958e+01
  -4.724070e+01  -3.655337e+00
   6.397298e+01  -8.579486e+01
   6.365576e+01  -2.473688e+01
   5.851340e+00  -3.802260e+01
  -5.847581e+01  -1.721261e+01
  -3.223408e+01  -9.965098e-01
   1.232391e+02  -5.846678e+01
   1.542938e+02  -5.757724e+01
   8.193102e+01  -1.120165e+01
  -2.073241e+01   1.165564e+02
  -5.562709e+01   1.174749e+02
  -4.670828e+01   6.744643e+01
  -5.315978e+00  -7.198114e+01
   3.378663e+01  -3.733219e+01
   6.903992e+01   1.342747e+01
   3.975634e+01   9.481082e+01
  -1.186113e+01   1.980954e+01
  -2.389987e+01  -2.913038e+01
  -3.268177e+01  -5.744589e+01
   2.798465e+00  -1.306503e+01
   3.385332e+01   3.473808e+00
   5.403980e+01   8.516394e+00
   1.127971e+01  -2.011719e+01
   4.395741e+01  -3.635713e+01
   4.963780e+00  -3.988732e+01
   2.791398e+01   6.659684e+00
   4.360095e+00   8.412114e+01
  -5.374210e+01   3.562253e+01
  -6.864293e+01  -6.263884e+00
  -6.089462e+01  -6.576346e+01
   3.498757e+01  -5.309757e+01
   1.082458e+02   3.735633e+01
   1.686452e+01   5.944583e+01
  -7.248983e+01   5.030662e+01
  -5.443668e+01  -6.315002e+00
  -1.415144e+01   4.611145e+01
   4.204174e+01   3.983560e+01
   4.156702e+01   2.554009e+01
  -9.933640e+01   6.544352e+01
  -1.089537e+02   5.867668e+01
