
 $NMID
 id='ANONYMOUS ', fmtdat='(2E16.6)'
 volume=1.0
 tramp=1.0
 $END
  -4.540939e+03   2.048302e+02
  -2.823579e+03  -2.723904e+03
   8.964546e+02  -3.052854e+03
   2.258078e+03  -1.012962e+03
   1.144577e+03   7.926244e+02
  -7.194728e+02   5.710657e+02
  -8.920274e+02  -4.517908e+02
   1.090508e+02  -1.100167e+03
   8.420253e+02  -8.424009e+02
   1.084080e+03   1.594931e+02
   4.623294e+02   9.996461e+02
  -2.839701e+02   8.932258e+02
  -6.268924e+02   1.100127e+02
  -4.519996e+02  -8.138446e+02
   2.773279e+02  -7.888882e+02
   6.549461e+02  -1.333613e+01
   3.129008e+02   6.890611e+02
  -3.653617e+02   7.176701e+02
  -7.349302e+02   1.093145e+02
  -3.850117e+02  -3.847860e+02
   3.525643e+01  -4.551361e+02
   2.060898e+02  -2.666693e+02
   2.103339e+02   1.367580e+01
  -7.796024e+01   1.077943e+02
  -4.421359e+02  -1.646365e+02
  -2.096073e+02  -4.804223e+02
   4.714441e+02  -4.420037e+02
   8.770764e+02   5.712514e+01
   5.416851e+02   6.049114e+02
  -3.784366e+02   5.704906e+02
  -7.953494e+02  -4.128365e+01
  -3.580814e+02  -5.283107e+02
   2.679183e+02  -5.341084e+02
   6.189574e+02  -1.966513e+02
   4.244392e+02   2.392596e+02
   6.294081e+01   5.402504e+02
  -2.137328e+02   3.198818e+02
  -1.455040e+02  -3.020127e+02
   1.968299e+02  -5.012552e+02
   5.425969e+02   5.238546e+00
   2.646669e+02   7.350316e+02
  -3.751019e+02   7.568149e+02
  -6.653486e+02   4.102615e+00
  -2.472671e+02  -5.991646e+02
   3.424819e+02  -3.410283e+02
   3.813884e+02   4.122541e+02
  -8.518496e+01   5.544507e+02
  -5.584188e+02   1.434035e+02
  -6.194289e+02  -4.294641e+02
  -1.661395e+02  -6.066733e+02
   3.422693e+02  -3.131668e+02
   7.030975e+02   1.105236e+02
   3.778833e+02   4.529026e+02
  -1.851198e+02   4.005795e+02
  -4.898378e+02   1.014791e+02
  -2.645780e+02  -2.258597e+02
   1.473814e+02  -1.432857e+02
   2.022611e+02   1.662006e+02
  -1.555396e+02   2.822339e+02
  -4.062115e+02  -4.459837e+01
  -1.928461e+02  -3.076696e+02
   2.491833e+02  -2.549079e+02
   3.097853e+02  -1.704852e+01
   1.351067e+02   8.191874e+01
  -9.145533e+01   2.100734e+02
  -2.520634e+02   2.464846e+02
  -3.905631e+02   1.803593e+02
  -3.415297e+02  -1.313030e+02
  -6.693407e+01  -4.479033e+02
   1.338915e+02  -4.186173e+02
   1.719993e+02  -1.072643e+02
   2.786801e+01   6.442867e+01
  -3.762605e+01  -4.764453e+01
   1.301749e+02  -1.284649e+02
   2.894144e+02   3.967840e+01
   1.589835e+02   2.570375e+02
  -3.852880e+01   3.296940e+02
  -2.452243e+02   2.064740e+01
  -1.885744e+02  -2.670960e+02
   1.683065e+01  -3.387423e+02
   2.754308e+02  -1.282414e+02
   3.608775e+02   1.677945e+02
   2.139727e+02   4.015947e+02
  -1.454684e+02   3.325308e+02
  -2.853693e+02   1.550025e+02
  -1.844162e+02   1.191449e+01
  -9.171451e+01  -6.666830e+00
  -2.413545e+02   6.547765e+01
  -4.561668e+02  -8.431880e+01
  -4.072898e+02  -3.490200e+02
   1.463292e-01  -5.225280e+02
   3.849468e+02  -4.406855e+02
   5.429070e+02  -1.772828e+02
   3.368323e+02   9.754536e+01
   3.349236e+01   2.876058e+02
  -1.239691e+02   2.202635e+02
  -5.921553e+01   1.297094e+01
   1.252436e+02  -6.533731e+01
   1.782367e+02   3.430688e+01
   1.014283e+02   2.410600e+02
  -2.040093e+02   1.651234e+02
  -2.243888e+02  -6.268624e+01
   3.871828e+01  -2.204607e+02
   2.175600e+02  -3.943441e+01
   1.654619e+02   2.273123e+02
  -1.061551e+02   4.072721e+02
  -2.572166e+02   2.121858e+02
  -3.421384e+02  -9.254941e+01
  -2.907253e+02  -2.476632e+02
  -1.101057e+02  -3.058783e+02
   1.117008e+02  -1.766881e+02
   2.313096e+02  -2.653375e+01
   1.004686e+02   1.494093e+01
  -4.767027e+00  -4.266063e+01
  -6.862528e+01  -1.277527e+02
   1.056202e+02  -6.887682e+01
   1.963962e+02   4.023443e+01
   5.024808e+01   5.350682e+01
  -1.182325e+02  -1.600922e+01
  -5.132920e+01  -4.980506e+01
   1.369996e+02  -7.953247e+01
   2.668217e+02   1.822535e+01
   2.618526e+02   1.241772e+02
   6.794578e+01   2.309166e+02
  -1.649611e+02   2.494096e+02
  -2.382369e+02   1.504259e+02
  -1.791212e+02  -4.118411e+01
  -1.117581e+01  -1.455054e+02
   8.376031e+01  -5.999885e+00
  -2.598226e+01   1.354902e+02
  -1.857588e+02   4.460197e+01
  -1.961968e+02  -8.998880e+01
  -1.182748e+02  -2.431349e+02
   6.768211e+01  -1.888602e+02
   1.316989e+02  -6.619995e+01
   5.569981e+01   4.395180e+01
  -7.039601e+00   3.240849e+01
   4.938935e+00  -8.113093e+01
   9.734445e+01  -8.947108e+01
   2.139487e+02  -1.923097e+00
   1.975258e+02   1.444949e+02
   1.344066e+01   2.317539e+02
  -1.634860e+02   2.070266e+02
  -2.117109e+02  -2.736514e+00
  -6.384128e+01  -1.170903e+02
   2.853675e+01  -1.344595e+02
   7.164871e+01  -2.269645e+01
   2.039042e+01   2.012831e+00
  -9.751895e-02   2.456664e+01
   4.021467e+01   1.145809e+01
   5.952923e+01   2.943852e+01
   8.039117e+01   6.847852e+01
  -9.453316e+00   1.476305e+02
  -1.103974e+02   1.369450e+02
  -2.020692e+02  -1.415193e+01
  -1.972814e+02  -1.357467e+02
  -5.187374e+01  -2.276037e+02
   9.054520e+01  -1.794953e+02
   1.503699e+02  -3.773215e+01
   1.022565e+02   3.880292e+01
  -2.470192e+01   1.881830e+01
   7.237760e+01  -2.516962e+01
   8.974667e+01  -4.433093e+00
   3.775062e+01   3.947768e+01
  -7.541218e+01   5.792897e+01
  -7.634655e+01   4.603355e+01
  -5.428742e+01  -1.764760e+01
  -1.940125e+00  -6.622611e+01
   1.661975e+02  -7.248752e+01
   1.528076e+02   5.707954e+01
   9.462318e+01   2.249795e+02
  -9.073307e+01   2.216511e+02
  -2.727793e+02   1.021132e+02
  -2.929663e+02  -5.535149e+01
  -1.198696e+02  -1.849447e+02
   5.971058e+01  -1.428076e+02
   1.063621e+02  -9.894174e+01
   8.278812e+01  -7.989745e+01
   6.381140e+01  -8.616905e+01
   1.175279e+02  -8.376864e+01
   1.100972e+02   5.102008e+01
   1.087245e+02   1.482930e+02
   5.815032e+01   2.364758e+02
  -8.547635e+01   1.715782e+02
  -2.013128e+02   9.729317e+00
  -1.282328e+02  -1.345636e+02
   3.004185e-01  -1.381575e+02
   4.100885e+01  -6.872654e+01
   4.233184e+01  -2.293373e+01
  -1.070815e+01   3.342040e+01
   1.001559e+00   2.815233e+01
   4.490732e+01   4.600344e+01
   8.176102e+01   7.058894e+01
   2.019922e+01   3.178440e+01
  -8.018597e+01   7.714158e+01
  -1.488133e+02   2.167070e+01
  -1.304815e+02  -3.889737e+01
  -2.638513e+01  -8.996440e+01
   8.884537e+01  -6.334416e+01
   1.326354e+02   7.816776e+00
   3.022496e+01   2.905907e+01
  -8.705702e+01   3.929330e+01
  -4.267653e+01  -3.580452e+01
  -2.519493e+01  -7.616589e+01
   5.450335e+01  -5.663379e+01
   1.670876e-02  -2.455854e+01
   9.008166e+01   3.864276e+01
   4.900605e+01   5.886810e+01
   9.188256e+01   1.651158e+01
   4.191619e+01   2.327983e+01
  -2.100809e+01   6.720626e+01
  -3.339249e+01   1.525249e+02
  -7.681666e+01   1.001765e+02
  -1.842425e+02   5.025490e+01
  -1.570238e+02  -9.437129e+01
   3.169972e+01  -1.013987e+02
   1.084795e+02  -8.481052e+01
   3.583001e+01   1.408861e+01
  -5.093356e+01   2.158573e+01
  -1.663916e+02  -3.751288e+01
  -1.121740e+02  -1.304290e+02
   1.101884e+02  -1.483001e+02
   2.168844e+02  -6.976097e+01
   1.920016e+02   4.874756e+01
   4.803704e+01   7.628695e+01
  -5.436412e+01   7.721430e+01
  -4.144372e+01  -1.630020e+01
   6.264093e+01  -7.655416e+01
   4.652398e+01  -1.334403e+00
   2.174078e+01   1.110684e+02
  -8.154750e+01   1.724710e+02
  -1.327615e+02   6.607497e+01
  -1.251189e+02  -9.551455e+01
  -2.921155e+01  -2.009881e+02
   7.461665e+01  -1.894791e+02
   1.218388e+02  -4.665246e+00
   5.473695e+01   1.250519e+02
   1.553701e+01   9.957038e+01
  -2.923294e+01   1.587070e+01
  -2.198056e+01  -8.256614e+01
   1.129334e+01  -7.868051e+00
   1.734534e+01   3.823203e+01
  -2.789551e+01   2.603368e+00
  -5.130137e+01  -8.708589e+01
  -6.801550e+01  -9.446175e+01
   1.027148e+02  -2.959359e+01
   1.206388e+02   4.412263e+01
   1.037230e+02   9.440992e+01
   1.500227e+01   5.602097e+01
  -5.880324e+01   4.530081e+01
  -7.195136e+01  -5.089305e+00
   2.732285e+01  -3.715161e+01
   8.607502e+01  -4.157400e+01
   3.871917e+01  -2.569314e+01
  -3.020511e+00   8.299470e+01
   2.628890e-01   8.933039e-01
   1.077757e+02   5.106756e+00
   5.213555e+01   1.728695e+01
   4.746105e+01   8.908291e+01
  -1.256414e+02   1.736347e+02
  -2.201563e+02   7.674477e+01
  -1.699168e+02  -1.847690e+01
  -3.170841e+01  -1.714017e+02
   5.120973e+01  -1.820554e+02
   9.372780e+01  -5.201426e+01
   3.111942e+01   3.507221e+01
   1.693638e+01   3.666417e+01
  -3.214739e+01  -2.128323e+01
  -2.979353e+01  -5.419757e+01
   7.486411e+00   6.436049e+01
   1.492939e+01   7.796779e+01
  -1.529799e+01   7.715474e+01
  -6.834458e+01  -2.872649e+01
  -5.144077e+01  -8.696687e+01
   2.330877e+01  -9.422705e+01
   3.668380e+01  -3.219707e+01
   9.525154e+01   9.395548e+01
   2.349709e+01   1.086091e+02
  -4.953227e+01   2.674065e+01
  -4.836272e+01  -2.232974e+01
  -4.561757e+01  -7.348995e+01
   1.140725e+01  -6.507553e+01
   6.052908e+01   2.801310e+01
  -2.919472e+01   1.208016e+01
  -1.135609e+02   5.413402e+01
  -4.984777e+01  -1.876482e+01
   7.610359e+01  -6.729217e+01
   1.555630e+02  -7.565694e+01
   7.610952e+01   1.177629e+01
   3.941760e+00   6.790227e+01
  -5.635850e+01   9.732688e+01
  -5.608003e+01  -5.365064e+01
   2.047965e+00  -4.413397e+01
   4.537355e+01  -8.191771e+01
   4.865352e+01   3.652488e+00
   4.607914e+01   2.376913e+01
  -7.932987e+00   1.025603e+01
  -4.184555e+01   3.632121e+01
  -2.042840e+01  -1.047090e+01
   9.272940e+00  -1.058643e+01
  -9.860859e+00   1.154279e+01
   2.397301e+01   5.540491e+00
   1.127466e+01  -3.143865e+01
   3.862810e+01  -5.895207e+01
   1.545377e+01  -1.550142e+01
   2.765156e+01   7.931695e+01
  -2.027899e+01   1.387451e+02
  -9.113372e+01   3.325801e+01
  -1.754498e+01  -2.393630e+01
  -2.608197e+01  -8.156124e+01
   5.195760e+01  -6.073404e+01
   7.129873e+01  -7.718141e+00
   5.703387e+01  -6.716124e+00
  -6.991290e+00   7.785087e+00
  -1.517918e+01   7.915314e+00
  -3.129262e+00   2.920447e+01
   6.240618e+01  -3.886668e+01
   5.147595e+01  -2.530617e+00
  -3.569956e+01   3.814406e+01
  -5.796581e+01   3.570957e+01
