
 $NMID
 id='ANONYMOUS ', fmtdat='(2E16.6)'
 volume=1.0
 tramp=1.0
 $END
   4.536010e+03  -1.186301e+02
   2.683290e+03   2.862291e+03
  -8.983066e+02   2.938937e+03
  -2.312108e+03   1.012604e+03
  -1.046922e+03  -6.091377e+02
   6.874536e+02  -5.753778e+02
   8.702937e+02   5.201387e+02
   1.072102e+02   1.095113e+03
  -8.350130e+02   8.926795e+02
  -1.102600e+03  -2.296476e+01
  -4.448709e+02  -9.455346e+02
   2.625605e+02  -9.368735e+02
   7.000643e+02  -1.370842e+02
   4.059467e+02   7.781444e+02
  -3.068997e+02   8.219528e+02
  -7.220303e+02  -3.926235e+01
  -3.077676e+02  -7.237879e+02
   2.676288e+02  -5.842562e+02
   6.265434e+02  -9.648419e+01
   4.234797e+02   4.174437e+02
   2.468332e+01   5.923178e+02
  -2.212342e+02   2.622378e+02
  -2.564551e+02   2.438853e+01
   1.799063e+02  -1.273126e+02
   4.323072e+02   1.023980e+02
   1.856280e+02   4.548893e+02
  -4.836417e+02   3.943919e+02
  -9.151175e+02  -1.027729e+02
  -4.691504e+02  -6.160019e+02
   4.514943e+02  -5.659854e+02
   7.822410e+02  -1.628165e+01
   3.001947e+02   4.891322e+02
  -3.703601e+02   6.248004e+02
  -6.737889e+02   1.823344e+02
  -3.947396e+02  -2.645347e+02
  -5.082556e+01  -5.092277e+02
   2.142012e+02  -3.126837e+02
   1.723710e+02   2.660189e+02
  -2.234682e+02   4.868926e+02
  -4.982489e+02  -3.065370e+01
  -2.667189e+02  -6.968821e+02
   3.527856e+02  -7.318712e+02
   6.392623e+02   3.093012e+01
   2.886987e+02   5.683068e+02
  -3.356930e+02   3.125487e+02
  -4.308280e+02  -3.814105e+02
   1.756419e+01  -6.489293e+02
   5.656645e+02  -1.610320e+02
   6.538694e+02   4.312513e+02
   2.175766e+02   6.796718e+02
  -3.984818e+02   3.508152e+02
  -6.464731e+02  -5.277772e+01
  -4.092492e+02  -3.524345e+02
   1.857635e+02  -3.399626e+02
   4.607461e+02  -5.185833e+01
   2.637145e+02   2.195205e+02
  -1.730067e+02   1.255731e+02
  -1.686285e+02  -1.439678e+02
   2.246969e+02  -2.103865e+02
   3.964368e+02   6.160349e+01
   2.075725e+02   3.112325e+02
  -2.342871e+02   2.644126e+02
  -3.711345e+02   8.876310e+01
  -2.348678e+02  -5.757722e+01
   7.042099e+01  -2.198737e+02
   2.154140e+02  -3.179323e+02
   3.664631e+02  -2.269526e+02
   2.870400e+02   1.489898e+02
   6.771247e+01   4.695151e+02
  -1.493542e+02   3.843952e+02
  -1.255288e+02   1.281512e+02
  -3.036602e+01   1.586283e-01
  -2.291119e+01   1.024931e+02
  -2.257196e+02   2.042846e+02
  -3.408109e+02  -3.831069e+01
  -2.393683e+02  -2.662199e+02
   3.418967e+01  -2.890887e+02
   2.698176e+02   5.888328e+00
   2.336415e+02   2.412623e+02
  -4.191071e+01   3.094864e+02
  -3.153800e+02   1.077621e+02
  -3.911135e+02  -1.791144e+02
  -1.958228e+02  -3.812772e+02
   1.469994e+02  -3.134076e+02
   2.361325e+02  -4.251756e+01
   1.302288e+02  -3.359490e+00
   7.244109e+01  -6.160209e+00
   2.066298e+02  -1.230109e+02
   3.960107e+02   3.829165e+01
   3.381793e+02   2.601266e+02
  -2.440036e-01   4.171972e+02
  -3.615731e+02   4.158039e+02
  -5.081785e+02   1.832992e+02
  -3.361085e+02  -7.390691e+01
  -8.039250e+01  -3.111606e+02
   9.398603e+01  -2.862737e+02
   8.615354e+01  -4.668403e+00
  -1.211955e+02   1.525726e+02
  -2.374814e+02   5.782028e+00
  -8.605085e+01  -2.222975e+02
   1.822213e+02  -1.971884e+02
   1.799962e+02   8.693501e+00
  -2.416189e+01   1.899729e+02
  -2.467540e+02   1.722509e+01
  -1.896968e+02  -2.461770e+02
   5.783120e+01  -3.877458e+02
   2.508000e+02  -2.250510e+02
   4.068911e+02  -3.094433e+00
   3.170727e+02   2.056426e+02
   9.399515e+01   2.447312e+02
  -1.124539e+02   1.844488e+02
  -1.885990e+02   3.787507e+01
  -8.215990e+00  -5.955583e+01
   1.139073e+02   2.264190e+01
   1.010358e+02   1.134864e+02
  -1.187316e+02   1.344085e+02
  -1.731544e+02  -2.578101e+01
  -9.052632e+01  -6.922149e+01
   7.684182e+01  -1.400139e-01
   1.006391e+02   6.495052e+01
  -1.220341e+02   1.235017e+02
  -2.987070e+02  -6.442054e+00
  -2.332799e+02  -1.776461e+02
  -5.201251e+01  -3.014027e+02
   1.678890e+02  -2.390057e+02
   2.765986e+02  -1.129563e+02
   1.880062e+02   6.952152e+01
  -4.975986e+00   1.181566e+02
  -1.087475e+02  -9.569520e-01
   4.056985e+01  -1.167649e+02
   2.014228e+02  -6.351573e+01
   2.937626e+02   1.159293e+02
   7.144252e+01   2.236919e+02
  -1.146690e+02   1.617168e+02
  -1.570048e+02   5.571604e+01
  -1.020506e+02  -9.426416e+01
   5.525966e+00  -5.623897e+00
   4.143783e+01   5.289935e+01
  -9.462483e+01   1.261708e+02
  -2.194130e+02   4.323735e+01
  -1.893275e+02  -1.535574e+02
   9.290004e+00  -1.842243e+02
   1.486760e+02  -1.758145e+02
   1.782993e+02  -6.155315e+00
   6.917614e+01   9.949805e+01
  -3.691367e+01   1.324481e+02
  -1.147372e+02   2.006529e+01
  -4.517092e+01  -5.941823e+01
   1.280761e+01  -4.672509e+01
   1.439241e+01   2.408536e+01
  -8.654452e+01   2.337152e+01
  -8.841762e+01  -4.702843e+01
  -3.243484e+01  -1.864522e+02
   1.178054e+02  -1.349341e+02
   2.557338e+02  -2.301391e+01
   1.654275e+02   1.542229e+02
   2.754527e+01   2.267199e+02
  -1.195230e+02   1.523982e+02
  -1.387159e+02   4.722957e+01
  -3.124522e+01  -3.242538e+01
  -5.984777e+01  -5.919893e+01
  -2.458918e+01   1.310045e+00
  -8.824079e+01   8.693671e+00
   1.961255e+01  -2.656612e+01
   8.718935e+01  -7.700214e+01
   9.475451e+01  -1.206926e+01
   8.134663e+01   3.389608e+01
  -1.106752e+01   1.163769e+02
  -1.582570e+02   1.007435e+02
  -1.971181e+02  -5.381472e+01
  -9.329884e+01  -2.180171e+02
   1.006761e+02  -2.497536e+02
   2.800487e+02  -7.890962e+01
   2.275744e+02   7.133465e+01
   1.436018e+02   1.999760e+02
  -2.992234e+01   1.195014e+02
  -1.077985e+02   1.026804e+02
  -8.894611e+01   5.834579e+01
  -4.210379e+01   1.133006e+02
  -1.033750e+02   6.914486e+01
  -1.537599e+02  -4.302346e+01
  -1.282650e+02  -1.875828e+02
  -3.218727e+01  -2.184069e+02
   8.857518e+01  -1.310840e+02
   1.714322e+02  -2.490579e+01
   1.297530e+02   1.068021e+02
  -6.797083e+00   1.333385e+02
  -3.067520e+01   7.596657e+01
  -4.754645e+01  -6.833869e+00
  -2.474153e+01   1.852668e+00
   2.239786e+01  -3.879851e+00
  -8.011815e+01  -2.354289e+01
  -1.449135e+02   2.105708e+01
  -5.576320e+01  -1.470985e+01
   8.648505e+01  -5.709187e+01
   1.502161e+02   2.254910e+01
   1.314437e+02   6.905200e+01
  -5.669573e+01   7.103707e+01
  -1.237957e+02   7.248572e+01
  -1.453090e+02  -2.108383e+01
  -5.622725e+01  -1.593977e+01
   9.832436e+01  -3.633638e+01
   3.526406e+01   3.849317e+01
   1.074012e+01   2.946433e+01
  -6.147617e+01   3.738899e+01
  -6.921989e+01  -2.497880e+01
  -3.984726e+01  -4.847514e+01
  -3.057035e+01  -1.225266e+01
  -5.878023e+01  -2.424443e+01
  -7.646342e+01  -1.003818e+01
  -4.461355e+01  -1.136714e+02
   2.101555e+01  -2.014621e+02
   8.768196e+01  -1.456630e+02
   1.627354e+02  -1.344011e+01
   1.260045e+02   1.957689e+01
   2.233145e+01   7.261376e+01
  -6.266319e+01   3.172927e+01
  -7.752271e+01  -6.710740e+00
   1.032033e+02  -9.599164e+00
   2.046368e+02   4.548192e+01
   7.811499e+01   8.145270e+01
  -9.813058e+01   1.200458e+02
  -2.264987e+02   3.780856e+01
  -1.566405e+02  -4.396997e+01
  -6.189887e+00  -1.092562e+02
   5.620599e+01  -2.840750e+01
   4.868249e+01  -5.271176e+00
  -8.602037e+01   3.568476e+01
  -4.857795e+01  -4.703998e+01
  -1.584411e+01  -1.258087e+02
   8.394680e+01  -1.694885e+02
   2.168494e+02  -8.646409e+01
   1.396676e+02   9.680440e+01
   4.608243e+01   2.499706e+02
  -9.559257e+01   1.517863e+02
  -1.410833e+02   2.590245e+01
  -7.279996e+01  -1.468290e+02
   1.428783e+00  -1.307903e+02
   2.845932e+01  -3.029335e+01
   1.281379e+01   3.790765e+01
   2.576325e+01  -6.655854e+00
   5.122177e+01  -6.193237e+01
   7.912002e+01  -1.286773e+01
   4.078860e+01   1.011918e+02
   2.310218e+01   9.251914e+01
  -5.525438e+01   6.013338e+01
  -8.663918e+01  -2.375923e+00
  -1.556293e+02  -6.965763e+01
  -4.417893e+01  -7.065821e+01
   9.808439e+01   5.582340e-01
   1.032364e+02  -1.001200e+01
   1.881049e+01   3.206320e+00
   4.584729e-01   2.801468e+01
  -5.938152e+01   4.151484e+01
  -1.813676e+01   4.917886e+01
  -2.198102e+01   5.188425e+01
  -1.002944e+02   4.247199e+01
  -1.044483e+02  -5.365383e+01
  -3.004461e+01  -8.162686e+01
   9.612890e+01  -1.578768e+02
   1.792048e+02  -6.560402e+01
   1.445247e+02   4.335565e+01
   3.567578e+01   1.221642e+02
  -4.701345e+01   1.514036e+02
  -1.370900e+02   4.240734e+01
  -6.980291e+01   9.933509e+00
   3.101351e+01  -4.189732e+01
  -6.342251e+00  -2.286709e+01
   5.312824e+00  -1.717788e+01
  -4.537291e+01  -3.943984e+01
  -7.588961e+01  -9.653739e+01
   2.056192e+01  -1.273326e+02
   8.801558e+01   3.108130e+01
   1.180845e+02   8.899849e+01
   4.337185e+01   1.112053e+02
  -7.767418e+01   8.472253e+01
  -1.034960e+02  -4.372523e+01
  -7.633693e+01  -1.197792e+02
   5.277985e+01  -5.401618e+01
   1.087044e+02   1.996903e+01
   7.649961e+00   8.476854e+01
  -5.185426e+01   8.331686e+01
  -7.398085e+01  -2.202865e+01
   2.326653e+01   3.798527e+01
   7.540475e+01  -1.001708e+01
   6.037997e+00   2.725536e+01
  -3.547566e+01   6.694555e+01
  -9.292212e+01   7.121021e+01
  -5.373312e+01   1.441290e+01
  -1.598943e+00  -2.114852e+01
  -1.252650e+01  -8.745058e+01
   4.653887e+01  -4.991262e-01
   2.816723e+01   1.048480e+00
   7.084846e+00   5.797651e+01
   1.264048e+01   2.457611e+01
  -7.312222e+01  -2.774380e+01
   5.332910e+00  -3.211234e+01
   2.761804e+01   1.613239e+01
   2.847799e+01   1.073104e+01
   4.583156e+01   4.497169e+00
   2.869306e+01  -3.139565e-01
   3.668384e+00   1.366617e+01
   1.810264e+01   4.050456e+01
  -4.791921e+01   7.004864e+01
  -5.301497e+01   2.593507e+01
  -6.093292e+01  -3.907700e+01
   1.540090e+01  -5.052050e+01
   1.856302e+01  -4.607397e+01
   8.845123e+01  -1.085985e+00
   1.786855e+01   3.199299e+01
  -3.821097e+01   1.314878e+01
  -9.548337e+01  -2.208211e+01
  -4.583104e+01  -6.253902e+01
   5.392019e+01  -2.853042e+01
   6.316826e+01  -1.003273e+01
   3.752103e+01  -5.791490e+00
  -6.275561e+01   1.819640e+00
  -8.503728e+01   2.476692e+00
   7.197042e+01  -1.955126e+01
   1.234845e+02  -7.520628e+00
