
 $NMID
 id='ANONYMOUS ', fmtdat='(2E16.6)'
 volume=1.0
 tramp=1.0
 $END
  -4.386033e+03   3.171048e+01
  -2.950977e+03  -2.806842e+03
   6.329288e+02  -2.994993e+03
   2.312735e+03  -1.029936e+03
   1.069849e+03   7.610667e+02
  -6.863634e+02   8.873614e+02
  -1.058797e+03  -3.949636e+02
  -2.813081e+01  -1.225392e+03
   9.189518e+02  -8.178156e+02
   1.044498e+03   1.193178e+02
   5.534887e+02   8.768273e+02
  -1.758083e+02   9.800942e+02
  -6.989457e+02   1.851888e+02
  -4.715264e+02  -7.222804e+02
   2.228858e+02  -8.556078e+02
   6.749162e+02  -8.595454e+01
   3.538124e+02   6.857455e+02
  -3.904710e+02   6.494798e+02
  -6.102883e+02   1.301878e+02
  -3.893330e+02  -3.401617e+02
   7.369273e+00  -4.676629e+02
   2.778706e+02  -2.807314e+02
   1.353477e+02  -8.237282e+00
  -6.076595e+01   7.565064e+01
  -3.673433e+02  -1.612888e+02
  -2.052940e+02  -4.419686e+02
   4.491562e+02  -4.422030e+02
   8.881500e+02   7.978230e+01
   4.736057e+02   6.099376e+02
  -4.086548e+02   4.964120e+02
  -7.335845e+02  -6.071218e+00
  -3.487883e+02  -4.882877e+02
   3.111447e+02  -4.903235e+02
   6.453729e+02  -2.424644e+02
   4.439829e+02   1.950467e+02
   9.942751e+01   4.586241e+02
  -2.130521e+02   3.041229e+02
  -1.940824e+02  -1.844425e+02
   1.683233e+02  -4.988328e+02
   5.202614e+02  -2.085953e+01
   3.281156e+02   7.072088e+02
  -3.163645e+02   8.075997e+02
  -6.607071e+02   5.511437e+01
  -3.273959e+02  -5.613062e+02
   2.380327e+02  -3.298908e+02
   4.099654e+02   3.539584e+02
  -4.611271e+01   5.517739e+02
  -5.633790e+02   1.025461e+02
  -6.291646e+02  -4.024471e+02
  -1.511428e+02  -5.699863e+02
   4.139737e+02  -3.701118e+02
   6.605756e+02  -4.736372e+00
   3.885749e+02   3.664272e+02
  -1.772819e+02   4.205275e+02
  -4.816245e+02   1.178060e+02
  -2.789953e+02  -1.879310e+02
   7.783525e+01  -1.641019e+02
   1.357986e+02   1.035029e+02
  -1.654539e+02   1.491572e+02
  -3.723020e+02  -9.102907e+01
  -1.393488e+02  -3.222935e+02
   2.335596e+02  -2.651243e+02
   3.759923e+02  -1.017639e+02
   2.247628e+02   1.016884e+02
  -1.930146e+01   1.902040e+02
  -2.259555e+02   3.053466e+02
  -3.293528e+02   2.303652e+02
  -2.532874e+02  -9.427337e+01
  -5.445658e+01  -3.825765e+02
   8.557917e+01  -3.996532e+02
   7.747508e+01  -1.345881e+02
   2.560989e+01  -3.878513e+00
   3.749052e+01  -1.987644e+01
   2.227110e+02  -1.138961e+02
   2.965318e+02   2.748828e+01
   1.460092e+02   2.582096e+02
  -3.711822e+01   2.517871e+02
  -1.913252e+02   1.407389e+01
  -2.034344e+02  -2.482589e+02
  -1.701148e+01  -3.003768e+02
   2.966908e+02  -1.350215e+02
   3.595832e+02   1.954335e+02
   2.331564e+02   3.988789e+02
  -9.335101e+01   3.587962e+02
  -2.544539e+02   1.592732e+02
  -1.949469e+02   5.364811e+00
  -1.135828e+02   8.993674e+00
  -2.451906e+02   3.924091e+01
  -3.874537e+02  -8.412403e+01
  -3.212362e+02  -3.086503e+02
   8.253250e+00  -4.913924e+02
   3.973310e+02  -4.354271e+02
   4.975914e+02  -2.063380e+02
   3.328950e+02   8.112146e+01
   6.552239e+01   3.098295e+02
  -1.200511e+02   2.625489e+02
  -1.182622e+02   3.722265e+01
   1.096757e+02  -1.032958e+02
   2.593039e+02   4.199221e+00
   5.564105e+01   1.409909e+02
  -1.790673e+02   1.740609e+02
  -2.097055e+02  -4.186529e+01
  -1.241105e+01  -2.077018e+02
   1.942403e+02  -2.635780e+01
   2.059999e+02   2.099222e+02
  -4.948564e+01   3.254689e+02
  -2.437351e+02   1.676129e+02
  -3.110886e+02  -7.795961e+01
  -2.402424e+02  -2.086954e+02
  -1.042738e+02  -2.573334e+02
   1.299086e+02  -1.636781e+02
   1.577017e+02  -6.057669e+01
   7.126540e+01  -1.745601e+01
  -7.687488e+01  -5.811525e+01
  -2.445545e+01  -1.392979e+02
   1.219598e+02  -8.043497e+01
   1.922986e+02   5.879662e+01
   3.382757e+01   9.273710e+01
  -8.443565e+01  -1.210725e+01
  -6.501068e+01  -1.023551e+02
   1.347028e+02  -9.579709e+01
   2.673709e+02  -3.692973e+00
   2.746817e+02   1.655239e+02
   5.419538e+01   2.433742e+02
  -1.745318e+02   2.543906e+02
  -2.841449e+02   1.213334e+02
  -1.517947e+02  -3.915089e+01
  -4.667864e+00  -1.000415e+02
   1.250919e+02  -1.929413e+01
  -6.218750e+01   1.056947e+02
  -2.294391e+02   4.279300e+01
  -2.106270e+02  -8.323291e+01
  -7.974913e+01  -1.952904e+02
   6.843594e+01  -1.577496e+02
   1.472141e+02  -7.111338e+01
   5.424394e+01  -2.890220e-01
  -2.276052e+01  -4.487782e+00
  -5.937783e+01  -7.899202e+01
   5.486825e+01  -1.122982e+02
   2.229147e+02  -2.361201e+01
   1.894235e+02   1.159975e+02
   1.404246e+01   2.297567e+02
  -2.089861e+02   1.357549e+02
  -2.126478e+02  -2.820279e+01
  -5.351984e+01  -6.701460e+01
   9.883744e+01  -8.699824e+01
   7.241049e+01  -4.284497e+01
   2.915399e+01   3.084753e+01
  -2.446776e+01  -6.396075e-01
  -1.513691e+01  -1.815003e+01
   6.887441e+01  -6.611791e+00
   5.767728e+01   4.845207e+01
   1.598188e+01   1.538273e+02
  -1.092322e+02   1.508063e+02
  -3.094542e+02   4.916707e+01
  -2.131466e+02  -1.532508e+02
  -3.186693e+01  -2.794744e+02
   1.408778e+02  -2.047321e+02
   1.493119e+02   1.156426e+01
   3.097339e+01   4.129192e+01
   3.278715e+01   9.307515e+00
   9.518252e+01  -1.225364e+01
   1.312213e+02   3.635378e+01
   4.581782e+01   7.217856e+01
  -4.509500e+01   1.114590e+02
  -1.125611e+02   9.427919e+01
  -7.235322e+01  -1.611709e+01
   2.197587e+01  -1.132986e+02
   1.472116e+02  -9.328550e+01
   2.273277e+02   8.992719e+01
   8.763117e+01   1.861276e+02
  -1.497963e+02   2.199572e+02
  -3.274582e+02   1.027580e+02
  -2.842708e+02  -1.215751e+02
  -3.693705e+01  -2.024255e+02
   4.880615e+01  -1.427136e+02
   1.128470e+02  -1.339563e+02
   1.185793e+02  -5.871276e+01
   1.027877e+02  -9.489427e+01
   8.873772e+01  -5.418616e+01
   1.292136e+02   5.469413e+01
   1.229478e+02   1.348216e+02
   9.232616e+00   2.735021e+02
  -1.614067e+02   1.896783e+02
  -1.770142e+02   3.235478e+01
  -1.394448e+02  -1.224435e+02
  -4.012288e+00  -1.318354e+02
   3.406885e+01  -8.412715e+01
   5.031890e+01   9.045485e+00
   1.849179e+01   5.293875e+01
  -2.559981e+01   1.874291e+01
   1.166780e+01   2.129763e+00
   6.487425e+01  -3.842642e+01
   3.961819e+01   2.757207e+01
  -6.079177e+01   1.784465e+00
  -1.570532e+02   7.932431e+00
  -1.876819e+02  -1.067769e+01
  -3.486808e+01  -1.060791e+02
   9.812172e+01  -1.087943e+02
   1.441980e+02  -1.345092e+01
   5.618242e+01   2.579669e+01
  -3.463765e+01   3.166940e+01
  -9.939622e+01   1.015437e+01
  -1.322363e+01  -6.319729e+01
   2.768516e+01  -3.428056e+01
   7.286463e+01   1.315551e+01
   4.960043e+01   8.002551e+01
   4.412409e+01   2.013620e+01
   1.570317e+01  -2.026669e+01
   6.042552e+01  -2.191983e+01
   5.165135e+01   8.997633e+01
  -1.790299e+01   1.478369e+02
  -1.141679e+02   1.375329e+02
  -1.821405e+02   3.354912e+01
  -1.798203e+02  -9.515201e+01
  -2.754743e+01  -1.313644e+02
   1.016815e+02  -7.100574e+01
   6.588590e+01  -2.245087e+01
  -6.724783e+01  -2.145129e+01
  -1.412056e+02  -5.504270e+01
  -8.268798e+01  -8.562241e+01
   8.332634e+01  -1.659245e+02
   1.877844e+02  -7.460897e+01
   1.314001e+02   2.767990e+01
   4.869851e+01   9.701188e+01
  -7.591710e+01   6.808603e+01
  -5.271896e+01  -5.536570e+00
   4.493772e+01  -3.097053e+01
   9.613352e+01   5.597938e+01
   4.855959e+01   1.299437e+02
  -8.696796e+01   2.078368e+02
  -1.569011e+02   3.688789e+01
  -1.173224e+02  -9.609034e+01
  -3.029801e+01  -2.211652e+02
   1.024698e+02  -1.148598e+02
   1.065241e+02   1.555400e+00
   5.265767e+01   1.121245e+02
  -1.241872e+01   1.286836e+02
  -3.928422e+01   1.737645e+01
  -1.062723e+02  -2.771178e+01
  -3.536361e+01  -1.648979e+01
   3.760071e+01   3.737687e+01
  -3.806321e+01  -4.314911e+01
  -5.067158e+01  -7.920830e+01
  -6.788701e+01  -6.736342e+01
   3.270925e+01  -4.866174e+01
   1.396444e+02  -1.554880e+01
   1.181221e+02   9.098021e+01
   3.071550e+01   5.605804e+01
  -1.076914e+02   2.370093e+01
  -1.035281e+02  -1.630602e+01
   1.552157e+01  -2.724524e+01
   5.924070e+01  -6.291793e+00
   6.643903e+01  -1.730355e+01
  -5.366140e+01   3.234559e+01
  -5.301767e+01  -6.501361e+00
   4.168064e+01   2.425128e+01
   1.177312e+02   3.473133e+01
   3.985076e+01   5.654489e+01
  -1.022367e+02   7.732853e+01
  -1.794107e+02   5.299107e+01
  -1.545474e+02  -5.360107e+01
  -3.560352e+01  -1.164627e+02
   5.436099e+01  -1.651089e+02
   9.955425e+01  -8.617384e+01
   8.498218e+01   3.103452e+01
   7.082084e+00  -3.044523e-01
  -1.106055e+01   2.587438e+00
   6.936022e+01   1.628965e+01
   4.193357e+01   5.821564e+01
  -9.175826e+00   1.050495e+02
  -1.159203e+01   7.989570e+01
  -5.125910e+01  -1.828554e+01
  -6.180116e+01  -1.191029e+02
  -1.784425e+01  -1.227500e+02
   8.191064e+01  -5.908658e+00
   9.896204e+01   8.745115e+01
   2.506164e+01   1.173123e+02
  -1.133204e+02   6.227602e+01
  -1.069389e+02  -3.209680e+01
  -2.778221e+01  -5.312088e+01
   4.914956e+01  -4.826428e+01
   6.435542e+01  -5.717292e+01
  -2.882189e+01   1.808977e+01
  -6.518058e+01   2.302885e+01
  -3.068996e+01   6.769431e+00
   4.760218e+01  -6.572974e+01
   9.344407e+01  -6.931710e+01
   7.890342e+01  -3.045973e+01
  -2.490246e+01   1.038285e+02
  -7.513545e+01   9.979732e+01
  -2.672627e+01   1.830888e+01
  -3.165291e-01  -4.306741e+01
   2.719357e+01  -3.103600e+01
   2.429069e+01   2.870655e+01
   4.985536e+01   7.000318e+01
  -1.263904e+01   3.065618e+01
  -8.037978e+01  -1.733116e+01
  -6.143180e+01  -2.267306e+01
  -2.119371e+01   1.165702e+00
   1.632160e+00   2.656003e+00
   3.122240e+01   4.067426e+01
  -1.035702e+01  -6.160580e+01
  -2.809897e+01  -4.835430e+01
   4.609926e+01   7.105977e+00
   2.503221e+01   3.887470e+01
  -1.362856e+01   2.710081e+01
  -1.734764e+01   3.391782e+01
  -7.567106e+01  -2.340900e+01
  -2.764743e+01  -3.441593e+01
   3.559833e+01  -5.780120e+01
   8.009068e+01  -2.525092e+00
   7.208866e+01   7.249863e+01
  -1.211879e+01   4.732353e+01
  -7.349925e+01   1.357216e+01
  -1.570021e+01   2.301290e+01
   1.894335e+01   1.589189e+01
   5.155860e+01   5.165233e-01
   1.268260e+01  -7.566178e-01
  -1.176281e+02   2.159167e+01
