
 $NMID
 id='ANONYMOUS ', fmtdat='(2E16.6)'
 volume=1.0
 tramp=1.0
 $END
   3.632336e+03   3.709392e+01
   1.932002e+03   1.945058e+03
  -8.769059e+01   2.043953e+03
  -1.478390e+03   1.044199e+03
  -1.078244e+03   3.122995e+01
   4.427876e+01  -2.749384e+02
   5.594035e+02   2.364496e+02
   8.243596e+01   7.322012e+02
  -6.192331e+02   5.922337e+02
  -6.756198e+02  -1.493416e+01
  -3.233499e+02  -5.848456e+02
   7.739915e+01  -7.478875e+02
   4.188616e+02  -1.071536e+02
   2.476110e+02   5.371386e+02
  -1.437818e+02   5.571936e+02
  -4.391885e+02   8.558986e+01
  -2.820216e+02  -5.916378e+02
   1.838760e+02  -6.931545e+02
   5.677015e+02  -2.034145e+02
   4.194453e+02   1.853823e+02
   1.548858e+02   3.909562e+02
  -2.216096e+02   2.392357e+02
  -2.072294e+02   6.417037e+01
   9.728394e+01   6.321827e+01
   2.609995e+02   2.348724e+02
  -8.516317e+00   3.434226e+02
  -5.137720e+02   1.413990e+02
  -6.451441e+02  -1.682755e+02
  -2.308163e+02  -4.622870e+02
   3.086303e+02  -2.649637e+02
   5.637324e+02   4.583350e+01
   1.999774e+02   3.776484e+02
  -2.351778e+02   3.996586e+02
  -4.272091e+02   1.614308e+02
  -3.422169e+02  -2.354586e+02
  -5.457503e+01  -3.265044e+02
   7.754236e+01  -1.982776e+02
   2.603037e+01   1.548663e+02
  -2.174510e+02   2.208964e+02
  -3.648662e+02  -1.249104e+02
  -5.692553e+01  -5.053423e+02
   2.622089e+02  -3.910755e+02
   3.642818e+02  -2.562366e+01
   1.435710e+02   3.124349e+02
  -2.117368e+02   2.067286e+02
  -2.261400e+02  -2.676190e+02
   1.010639e+02  -3.832648e+02
   4.669057e+02  -6.089173e+01
   5.185895e+02   3.374163e+02
   1.573599e+02   5.061763e+02
  -3.036123e+02   2.725997e+02
  -4.920672e+02  -3.422851e+01
  -3.557044e+02  -3.202030e+02
   1.006059e+02  -2.867517e+02
   3.275026e+02  -8.376306e+01
   2.208225e+02   9.231505e+01
   5.085780e+01   1.019625e+01
  -6.433968e+01  -5.371287e+01
   5.608840e+01  -1.067570e+02
   2.322681e+02   8.310394e+01
   1.068902e+02   2.165266e+02
  -1.406317e+02   2.595058e+02
  -3.005768e+02   1.135480e+02
  -1.956716e+02  -1.221124e+02
   5.784184e+01  -3.420472e+02
   3.079789e+02  -3.015149e+02
   3.763404e+02  -9.765093e+01
   2.371925e+02   2.303657e+02
   1.850933e+01   3.812884e+02
  -7.031934e+01   3.175359e+02
  -3.228272e+01   1.424894e+02
  -3.885675e+01   1.076268e+02
  -1.032939e+02   9.216201e+01
  -2.647142e+02   7.992859e+01
  -2.433181e+02  -7.291910e+01
  -7.737500e+01  -2.679043e+02
   5.893224e+01  -1.789519e+02
   1.488944e+02   5.256422e+01
   1.500181e+02   2.330675e+02
  -1.778924e+01   2.178919e+02
  -2.520880e+02   2.734362e+01
  -2.951890e+02  -1.564244e+02
  -1.511447e+02  -3.064087e+02
   5.353996e+01  -2.425950e+02
   1.984917e+02  -1.632460e+02
   1.886837e+02  -1.241621e+02
   1.765715e+02  -6.192315e+01
   3.116886e+02  -3.742900e+01
   4.002646e+02   1.493613e+02
   2.464524e+02   3.376975e+02
  -6.746663e+01   4.430858e+02
  -4.033449e+02   3.906558e+02
  -4.666275e+02   1.549975e+02
  -2.753524e+02  -6.675445e+01
  -4.328851e+01  -2.434582e+02
   6.598614e+01  -2.142742e+02
  -5.899265e+00  -2.125682e+01
  -1.618317e+02   5.370953e+01
  -1.506203e+02  -5.248159e+01
   3.441061e+01  -1.499261e+02
   1.588151e+02  -8.354197e+01
   1.399419e+02   6.906022e+01
  -3.562334e+00   1.458042e+02
  -1.552735e+02  -7.858836e+00
  -1.701543e+02  -2.507101e+02
   5.415051e+01  -3.493983e+02
   2.656864e+02  -1.296171e+02
   3.437345e+02   1.186600e+02
   3.017776e+02   2.475944e+02
   8.245263e+01   2.933226e+02
  -9.031300e+01   1.243322e+02
  -1.492188e+02   2.247775e+00
  -2.009465e+01  -1.645544e+01
   6.657877e+01   7.738673e+01
  -3.517775e+01   1.336644e+02
  -1.127284e+02   3.996807e+01
  -1.335633e+02  -8.986978e+00
  -5.573622e+01  -7.441768e+01
   6.691815e+01  -3.275987e+01
   4.551873e+01   8.387733e+01
  -1.621089e+02   7.665680e+01
  -3.064991e+02   3.226517e+00
  -2.556505e+02  -1.366384e+02
  -5.916088e+01  -2.406212e+02
   1.972748e+02  -2.126122e+02
   1.944319e+02  -1.125539e+02
   1.335152e+02   3.504224e+01
  -2.067203e+01   7.153419e+01
  -1.037590e+02  -2.361152e+01
   9.091456e+01  -7.908319e+01
   1.685577e+02   2.295818e+01
   1.767551e+02   1.140578e+02
   2.683522e+01   1.986792e+02
  -8.641697e+01   1.213005e+02
  -1.009955e+02   2.023654e+01
  -3.565635e+01  -4.011719e+01
   4.548139e+01   2.571890e+01
   9.792227e+00   1.330711e+02
  -9.862548e+01   1.326276e+02
  -1.728178e+02   3.460155e+00
  -1.568165e+02  -1.262709e+02
  -2.147381e+01  -1.806477e+02
   1.498012e+02  -1.731342e+02
   1.891691e+02  -1.769011e+01
   5.298257e+01   7.176637e+01
  -2.135330e+01   3.791080e+01
  -8.089492e+01   5.034077e+00
   2.122689e+01  -2.798577e+01
   1.985079e+01  -2.606543e+01
  -3.712389e+01   1.833171e+01
  -4.338046e+01  -3.108209e+01
  -9.494381e+01  -9.856125e+01
   1.710756e+00  -1.649713e+02
   1.264599e+02  -1.289168e+02
   2.320744e+02   3.558976e+01
   1.756820e+02   1.492065e+02
   4.254744e+00   2.132108e+02
  -1.181954e+02   1.378503e+02
  -1.060833e+02   1.620362e+01
  -4.414100e+01   6.226121e+00
  -3.110622e+01  -1.817860e+01
  -1.216830e+02   4.491858e+01
  -1.054985e+02   8.641457e+00
  -5.792330e+01  -6.764695e+01
   3.401087e+01  -1.369834e+02
   1.184872e+02  -6.796487e+01
   1.091889e+02   4.895703e+01
   1.091045e+01   1.571784e+02
  -1.548613e+02   1.080897e+02
  -2.252476e+02  -1.162040e+01
  -8.174340e+01  -1.951939e+02
   1.414247e+02  -2.137493e+02
   2.379246e+02  -8.796471e+01
   2.268738e+02   9.783167e+01
   1.204830e+02   1.677368e+02
   7.496469e+00   1.321510e+02
  -8.152444e+01   9.852710e+01
  -9.965554e+01   6.259115e+01
  -9.298495e+00   8.045597e+01
  -7.206516e+01   7.779650e+01
  -8.457213e+01  -3.031197e+01
  -1.083875e+02  -1.352116e+02
  -5.950218e+01  -1.993241e+02
   8.176660e+01  -1.221152e+02
   1.775275e+02  -1.508843e+01
   1.202200e+02   1.096081e+02
  -1.085650e+01   1.064367e+02
  -5.613390e+01   4.839585e+01
  -3.489371e+01  -4.411049e+00
   7.018239e-02  -1.006194e+02
   3.605095e+01  -4.998212e+01
   2.086451e+01  -1.561263e+01
  -4.940798e+01   2.110096e+01
  -7.733559e+01   2.158478e+01
   7.271463e+01  -8.757039e+00
   2.000565e+02   2.005442e+00
   1.419454e+02   6.900881e+01
  -1.832167e+01   1.105053e+02
  -1.568429e+02   6.734533e+01
  -1.620123e+02   3.834841e+01
  -6.357524e+01  -3.853764e+01
   7.890521e+01  -2.665629e+01
   8.170300e+01   4.237281e+01
  -1.869783e+01   5.245078e+01
  -3.677243e+01   3.462647e+01
  -5.596914e+01  -2.422060e+01
  -7.327955e+01  -4.445233e+01
  -8.839340e+01  -2.699033e+01
  -2.441261e+01   2.241680e+01
  -7.112587e+01   1.514450e+01
  -3.868332e+01  -1.098673e+02
   4.588877e+01  -1.905136e+02
   1.632536e+02  -1.270488e+02
   1.846394e+02  -1.944779e+01
   1.197455e+02   7.916518e+01
  -1.738712e+01   1.145387e+02
  -8.946070e+01   1.395215e+01
  -6.867756e+01  -3.920397e+01
   5.692777e+01  -2.212995e+01
   1.576881e+02   8.355236e+01
   4.151167e+01   1.125746e+02
  -8.888619e+01   1.042747e+02
  -1.941470e+02   9.725704e+01
  -1.736167e+02  -2.249542e+01
  -5.049847e+01  -8.023105e+01
   8.022337e+01  -3.536826e+01
   1.479475e+01   6.514727e+01
  -1.005038e+02   4.408682e+01
  -9.925601e+01  -4.166190e+01
  -3.381206e+01  -1.317057e+02
   8.212519e+01  -1.729612e+02
   1.674431e+02  -9.931830e+01
   1.637784e+02   1.181625e+02
   2.007124e+01   2.045742e+02
  -6.745078e+01   1.419763e+02
  -7.203873e+01  -1.505571e+01
  -7.559647e+01  -1.501182e+02
   3.422529e+01  -1.299255e+02
   5.422510e+01   1.685378e+01
   7.318644e+01   8.323270e+00
   2.142800e+01   6.485802e+00
  -5.859719e-01  -4.155442e+01
   3.950599e+01   5.270950e+01
   5.431715e+01   1.435718e+02
   3.915639e+01   1.141994e+02
  -4.258106e+01   3.075370e+01
  -1.658462e+02  -2.616603e+01
  -1.027893e+02  -7.107948e+01
  -7.757786e+00  -7.485875e+01
   8.795429e+01  -3.495080e+01
   1.070977e+02  -3.913840e+01
   4.569262e+01   5.483150e+01
  -3.693721e+01   3.369782e+01
   6.187780e+00   1.242522e+01
   4.595083e+01  -2.956507e+01
   7.937064e+00   2.043502e+00
  -8.510578e+01   2.100110e+01
  -1.082089e+02  -5.233208e+01
  -2.770219e+01  -8.587412e+01
   1.022245e+02  -8.290714e+01
   2.041792e+02  -4.657749e+01
   1.596785e+02   5.351841e+01
   3.462074e+01   1.509208e+02
  -7.751384e+01   1.159172e+02
  -1.331797e+02   7.160037e+01
  -4.967083e+01  -1.069072e+01
  -2.707658e+01  -2.583725e+01
  -3.802450e+01  -4.141405e+01
  -6.488269e+00  -1.198267e+01
  -4.526690e+01  -7.690817e+01
   8.347635e+00  -1.176962e+02
   4.613875e+01  -8.277298e+01
   1.252746e+02   3.474181e+01
   6.252606e+01   1.080135e+02
  -1.426746e+01   8.796849e+01
  -9.053570e+01   4.140443e+01
  -8.255696e+01  -9.241533e+01
  -1.261442e+01  -1.322191e+02
   1.049371e+02  -5.521053e+01
   1.256283e+02   4.417806e+01
   1.471611e+01   6.993370e+01
  -7.200445e+01   7.965132e+01
  -2.339577e+01  -6.778831e+00
   2.718391e+01   1.378197e+00
   5.763007e+01   1.189314e+01
   2.443653e+01   6.170551e+01
  -7.938858e+01   7.905566e+01
  -1.258873e+02   2.562447e+01
  -9.029177e+01  -3.867320e+01
  -5.786392e+00  -7.628811e+01
   7.580957e+01  -6.882570e+01
   1.350213e+01  -1.064433e+00
  -2.350061e+01   3.172504e+01
  -3.117906e+01   6.088372e+01
  -5.989558e+01  -1.057842e+01
  -3.599334e+01  -2.369725e+01
   8.189745e+00  -1.804119e+01
   2.082636e+01  -2.521726e+01
   4.237720e+01  -7.283823e+00
   3.711985e+01   2.436720e+00
  -4.211784e+00   5.136061e+00
  -8.696731e+00   6.554043e+00
   5.949226e+00   6.183685e+01
   1.246744e+01   8.649948e+01
  -6.587889e+01   3.399068e+01
  -6.960196e+01  -4.723545e+01
  -1.745064e+01  -5.389639e+01
   3.423205e+01  -1.370957e+01
   4.815149e+01   4.219862e+01
   1.287045e+01   5.402438e+01
  -3.534701e+01   5.415564e+01
  -1.018265e+02   2.185761e+01
  -6.835143e+01  -1.266211e+01
   1.488004e+01  -2.943010e+01
   1.544951e+01  -1.841968e+01
  -1.493441e-01  -2.085365e+01
  -2.717097e+01  -4.815830e+01
   8.441098e+00  -1.675968e+00
   5.692466e+01  -2.205755e+01
   8.139398e+01   4.502537e+00
