
 $NMID
 id='ANONYMOUS ', fmtdat='(2E16.6)'
 volume=1.0
 tramp=1.0
 $END
  -4.445773e+03   1.063873e+02
  -2.810054e+03  -2.670842e+03
   8.327866e+02  -2.945798e+03
   2.118555e+03  -9.897029e+02
   1.263595e+03   6.735444e+02
  -6.201847e+02   7.268348e+02
  -1.000332e+03  -3.284642e+02
   1.144545e+02  -1.170954e+03
   9.155528e+02  -7.767134e+02
   1.094567e+03   4.899760e+01
   5.366313e+02   8.879127e+02
  -2.387944e+02   9.836470e+02
  -6.763070e+02   2.273518e+02
  -4.213281e+02  -7.103301e+02
   2.635249e+02  -7.579578e+02
   5.993390e+02   2.957468e+00
   3.523952e+02   7.661299e+02
  -3.315495e+02   6.528387e+02
  -6.037944e+02   6.933799e+01
  -4.258334e+02  -3.896132e+02
  -3.496080e+01  -4.450632e+02
   1.824720e+02  -2.054453e+02
   1.406949e+02  -7.106604e+01
  -8.915648e+01   1.793441e+01
  -3.500391e+02  -8.438459e+01
  -1.831437e+02  -3.398664e+02
   4.576082e+02  -3.785509e+02
   8.050628e+02   6.050678e+01
   5.358725e+02   4.778335e+02
  -3.144413e+02   4.517538e+02
  -7.757335e+02  -8.165522e+01
  -3.420492e+02  -4.302318e+02
   2.754927e+02  -5.196929e+02
   5.318414e+02  -1.882887e+02
   4.445461e+02   2.020360e+02
   1.609518e+02   4.749804e+02
  -1.868875e+02   3.315328e+02
  -1.964336e+02  -1.784234e+02
   1.395624e+02  -4.396505e+02
   4.484380e+02  -7.185118e+00
   2.195513e+02   6.958373e+02
  -3.659951e+02   7.467182e+02
  -6.336297e+02  -4.268708e+00
  -2.411108e+02  -5.782319e+02
   2.979604e+02  -3.778034e+02
   3.771186e+02   3.077537e+02
  -4.989876e+01   5.369755e+02
  -5.261893e+02   1.239067e+02
  -5.774454e+02  -3.871179e+02
  -1.763103e+02  -5.932584e+02
   3.555506e+02  -3.506572e+02
   6.355431e+02   3.692307e+01
   4.025479e+02   3.771730e+02
  -1.441805e+02   3.612733e+02
  -4.800813e+02   7.728718e+01
  -2.784566e+02  -2.017308e+02
   1.254265e+02  -1.182455e+02
   1.554237e+02   1.652442e+02
  -1.595810e+02   2.127279e+02
  -3.486368e+02  -5.775099e+01
  -1.704364e+02  -3.083947e+02
   2.161690e+02  -2.594265e+02
   3.317485e+02  -5.519202e+01
   1.746705e+02   1.040856e+02
  -4.130739e+01   2.293823e+02
  -2.862649e+02   2.976684e+02
  -3.667838e+02   2.149453e+02
  -2.678250e+02  -1.434425e+02
  -5.218983e+01  -4.107530e+02
   1.394311e+02  -3.899378e+02
   1.321500e+02  -8.312818e+01
  -6.155263e+00   5.125374e+00
   4.464518e+01  -8.948763e+01
   2.281953e+02  -1.253929e+02
   2.810152e+02   3.836250e+01
   1.789488e+02   2.413265e+02
  -5.965402e+01   2.080246e+02
  -2.061686e+02   1.067124e+01
  -1.922117e+02  -2.281835e+02
   5.204590e+01  -2.827999e+02
   2.596620e+02  -1.099162e+02
   3.303988e+02   1.512172e+02
   1.815154e+02   3.456251e+02
  -7.131329e+01   3.292942e+02
  -2.276656e+02   1.202597e+02
  -1.643700e+02   1.303289e+01
  -7.721646e+01   3.903773e+01
  -2.388411e+02   8.983343e+01
  -3.959970e+02  -4.955031e+01
  -3.402653e+02  -2.740367e+02
  -9.367252e+00  -4.508848e+02
   3.748433e+02  -3.816134e+02
   5.723591e+02  -1.786676e+02
   3.481744e+02   1.013157e+02
   5.137941e+01   2.728766e+02
  -1.298736e+02   2.384150e+02
  -5.568771e+01   8.105126e+01
   9.892541e+01  -5.893890e+01
   1.363345e+02  -9.579168e+00
   4.436336e+01   1.609784e+02
  -1.237459e+02   1.604406e+02
  -1.760123e+02  -6.003655e+01
  -3.024029e+01  -1.644492e+02
   1.831366e+02  -4.102606e+01
   1.571249e+02   2.376972e+02
  -2.810768e+01   3.417744e+02
  -2.613785e+02   1.906064e+02
  -3.581504e+02  -6.089714e+01
  -2.751446e+02  -2.888817e+02
  -6.712346e+01  -2.899308e+02
   9.619723e+01  -1.538425e+02
   1.551410e+02  -4.289106e+01
   6.393602e+01   7.029659e+01
  -6.385541e+01  -1.893969e+01
  -3.343269e+01  -1.581166e+02
   1.086088e+02  -1.101731e+02
   1.503717e+02   6.431417e+01
   5.711883e+01   7.498548e+01
  -7.668503e+01   1.721239e+01
  -7.781554e+01  -9.245251e+01
   9.339452e+01  -1.031309e+02
   2.613778e+02   8.694909e+00
   2.572696e+02   1.413812e+02
   3.603011e+01   2.334105e+02
  -1.440274e+02   2.682282e+02
  -2.591001e+02   1.328608e+02
  -2.208530e+02   8.310604e+00
  -4.966091e+00  -9.663753e+01
   2.763389e+01  -2.287881e+01
   2.380900e+00   8.685461e+01
  -1.825735e+02   5.915715e+01
  -1.954748e+02  -7.586633e+01
  -6.804440e+01  -1.924487e+02
   7.217172e+01  -1.285658e+02
   9.473629e+01  -4.102456e+01
   6.337685e+01   1.827226e+01
  -6.106409e+00  -3.544054e+01
   2.557438e-01  -5.595802e+01
   1.087420e+02  -6.169210e+01
   2.077678e+02  -6.166361e+00
   1.359338e+02   1.279509e+02
   1.989846e+01   2.226097e+02
  -1.593721e+02   1.932846e+02
  -1.999817e+02   4.054281e+01
  -6.897419e+00  -1.031046e+02
   6.995933e+01  -8.567034e+01
   4.064476e+01  -1.239195e+01
   2.570004e+01   6.622994e+01
  -4.945771e+01   1.146546e+01
   5.430734e+00  -6.265828e+00
   3.206720e+01   9.388159e+00
   7.890860e+01   9.896771e+01
   9.669603e-01   1.715133e+02
  -1.314241e+02   1.177196e+02
  -2.093407e+02   2.799701e+01
  -1.866158e+02  -1.537787e+02
  -2.690712e+01  -2.497685e+02
   1.297856e+02  -2.010178e+02
   1.696869e+02  -5.029910e+01
   1.028953e+02   9.762037e+01
   5.889550e+00   4.404087e+00
   6.194733e+01  -2.143081e+01
   9.982194e+01  -4.181655e+00
   4.458322e+01   5.040750e+01
  -1.045529e+01   9.873749e+01
  -1.041756e+02   5.131717e+01
  -5.237986e+01   1.272810e-02
   3.899000e+01  -9.293402e+01
   1.440257e+02  -9.795531e+01
   1.509358e+02   3.965653e+01
   4.504267e+01   2.215988e+02
  -1.003041e+02   2.089756e+02
  -2.660680e+02   9.084430e+01
  -2.717772e+02  -7.962490e+01
  -9.755843e+01  -1.898354e+02
   1.196653e+01  -1.509636e+02
   1.301623e+02  -5.459294e+01
   5.507437e+01  -6.311865e+01
   5.829530e+01  -1.002230e+02
   1.003997e+02  -7.691684e+01
   9.910462e+01   1.660719e+01
   1.609825e+02   1.391693e+02
   5.080307e+01   2.076853e+02
  -9.157183e+01   1.406249e+02
  -1.650831e+02   6.949302e+01
  -1.778857e+02  -1.075896e+02
  -2.631041e+01  -1.204663e+02
   8.237478e+01  -1.050967e+02
   8.815168e+01  -1.767030e+01
  -2.105650e+01   4.822699e+01
  -3.209638e+00   4.637193e+01
   5.139815e+01   3.202801e+01
   4.553594e+01   1.887455e+01
   3.308822e+01   7.870157e+01
  -5.517482e+01   1.593350e+01
  -1.513374e+02  -1.125432e+01
  -1.319037e+02  -5.978221e+01
  -8.441204e+00  -8.061673e+01
   9.976030e+01  -5.765151e+01
   1.800799e+02   4.736528e+01
   3.570993e+01   2.953742e+01
  -8.218613e+01   4.684714e+01
  -8.848349e+01  -2.974594e+01
  -9.185816e+00  -6.286735e+01
   4.476661e+01  -4.277865e+01
   5.166063e+01  -2.138662e+01
   2.219393e+01   4.234542e+01
   5.119361e+01   2.964092e+01
   7.864672e+01  -9.449395e+00
   8.175650e+01  -2.943152e+00
   3.590084e+01   7.795411e+01
  -7.675088e+00   1.431644e+02
  -1.439155e+02   2.027216e+02
  -1.688957e+02   1.702729e+00
  -1.826591e+02  -9.357768e+01
   2.852612e+01  -1.461083e+02
   9.858360e+01  -1.145493e+02
   5.007241e+01   3.507543e+01
  -5.926303e+01   2.329177e+01
  -1.914234e+02  -3.844304e+01
  -8.398772e+01  -9.885381e+01
   7.554379e+01  -1.712152e+02
   2.047902e+02  -3.177090e+01
   1.284980e+02   4.702537e+01
   1.504323e+01   9.571641e+01
  -5.830307e+01   4.106696e+01
  -4.901637e+01  -1.970945e+01
   2.104055e+01  -3.577325e+01
   1.122648e+02   3.551675e+01
   3.826128e+01   1.530855e+02
  -9.679607e+01   1.721605e+02
  -1.484765e+02   6.242913e+01
  -1.126812e+02  -8.177872e+01
  -5.579047e+00  -1.614140e+02
   1.048984e+02  -1.658494e+02
   8.832984e+01   7.017655e+00
   4.644382e+01   1.471889e+02
  -1.675640e+01   1.120728e+02
  -2.255282e+01   4.326914e+01
  -7.699056e+01  -4.433968e+01
  -5.265964e+01  -1.201224e+01
  -4.574367e+01  -4.154775e+00
  -4.007232e+01  -1.138081e+01
  -7.313804e+01  -6.501011e+01
  -4.776620e+01  -1.428138e+02
   4.194393e+01  -3.248960e+01
   1.200991e+02   3.498486e+01
   1.375175e+02   9.551319e+01
   2.047596e+01   4.340046e+01
  -1.037378e+02   2.667689e+00
  -9.542141e+01   1.171704e+01
   2.108460e+01   1.304642e+01
   2.526496e+01  -1.450828e+01
  -1.848096e+00   7.969891e+00
   6.610248e+00   1.618563e+01
  -2.467897e+01  -2.751373e+01
   1.218385e+02  -7.226528e+00
   6.908815e+01   7.451322e+00
  -1.373123e+01   8.810358e+01
  -1.197635e+02   1.553665e+02
  -1.776866e+02   2.305764e+01
  -1.539944e+02  -4.578935e+01
  -1.001003e+00  -1.511860e+02
   8.031633e+01  -1.621620e+02
   1.053496e+02  -2.324798e+01
   5.854437e+01  -8.395388e+00
  -2.263347e+01   4.091201e+01
  -7.884456e+00   1.089885e+01
   1.263368e+01   1.407723e+00
   1.828592e+01   1.015133e+02
   2.465938e+01   1.013651e+02
  -1.772277e+00   7.722225e+01
  -7.229469e+01  -1.191278e+01
  -9.149898e+01  -6.790451e+01
   2.319520e+01  -9.580714e+01
   7.777300e+01  -1.360220e+00
   1.071977e+02   8.406021e+01
   2.454090e+00   1.239451e+02
  -1.005650e+02   6.311307e+01
  -1.193538e+02  -9.466862e+00
  -9.111715e+01  -4.415162e+01
   3.331566e+01  -2.499210e+01
   3.854331e+01  -9.648399e+00
  -6.184172e+01   3.224147e+01
  -7.160512e+01   3.479834e+01
  -4.393358e+01  -2.512782e+01
   5.434169e+01  -8.171566e+01
   1.041043e+02  -7.531620e+01
   5.097275e+01  -2.488545e+01
   1.273878e+01   8.483541e+01
  -4.145425e+01   1.087219e+02
  -5.427708e+01   1.754559e+01
   2.837845e+00  -4.113581e+01
   8.246529e+00  -2.103009e+01
   6.091793e+01   2.910965e+01
   3.156084e+01   7.013305e+01
  -1.353158e+01   3.153938e+01
  -8.107024e+01  -2.340536e+01
  -2.723744e+01  -5.800104e+01
  -2.697660e+01  -2.287959e+01
   2.471631e+01   2.227930e+01
  -3.262703e+01  -2.025862e+01
  -2.560465e+01  -2.366801e+01
   3.408775e+01  -4.375403e+01
   3.097576e+01  -5.272623e+01
   2.297241e+01   9.596689e+01
   2.319172e+01   5.040167e+01
  -7.639080e+01   4.331623e+01
  -8.638964e+01  -5.339385e+01
   8.646747e+00  -4.641257e+01
   7.031459e+01  -1.542963e+01
   9.033010e+01   3.664688e+01
   7.068816e+01   4.647769e+01
  -3.805490e+01   8.278119e+01
  -5.624347e+01   3.901626e+01
  -1.102448e+01  -2.516697e+00
   2.413206e+01   1.110686e+01
   5.931405e+01  -1.536792e+01
  -1.750170e+01  -8.898842e-01
  -8.225012e+01   3.624611e+01
