
 $NMID
 id='ANONYMOUS ', fmtdat='(2E16.6)'
 volume=1.0
 tramp=1.0
 $END
  -4.705348e+03  -9.068371e+01
  -2.720090e+03  -2.877338e+03
   4.894290e+02  -2.843927e+03
   2.174556e+03  -9.983288e+02
   1.057650e+03   5.837437e+02
  -5.895464e+02   7.775353e+02
  -1.036488e+03  -3.181171e+02
  -1.708128e+02  -9.675529e+02
   7.669200e+02  -8.587898e+02
   9.750647e+02   1.110759e+02
   5.278069e+02   8.490377e+02
  -2.606079e+02   9.276587e+02
  -6.713361e+02   1.174837e+02
  -3.830964e+02  -7.577832e+02
   3.072468e+02  -7.576654e+02
   5.478895e+02  -3.153456e+01
   2.669530e+02   7.310350e+02
  -3.179379e+02   6.984862e+02
  -6.084766e+02   2.006428e+02
  -3.869835e+02  -3.606391e+02
  -5.315371e+01  -3.227555e+02
   2.591272e+02  -2.870989e+02
   2.337721e+02  -5.146173e+01
  -1.748300e+02   1.515318e+02
  -3.898725e+02  -1.095920e+02
  -3.102623e+02  -4.244471e+02
   4.539849e+02  -4.205789e+02
   8.954821e+02  -6.243464e+00
   4.140340e+02   5.977472e+02
  -3.934761e+02   5.092107e+02
  -7.898236e+02  -2.105821e+01
  -4.222155e+02  -5.253960e+02
   2.255527e+02  -5.834998e+02
   5.673607e+02  -2.318106e+02
   4.451193e+02   2.708452e+02
   5.882165e+01   4.254773e+02
  -2.133043e+02   3.572671e+02
  -2.102810e+02  -1.954980e+02
   8.998005e+01  -4.646168e+02
   4.969210e+02  -2.658833e+01
   2.783828e+02   6.253910e+02
  -2.851300e+02   7.023852e+02
  -6.345845e+02   1.126594e+01
  -2.471203e+02  -5.827024e+02
   3.142495e+02  -2.848501e+02
   3.813953e+02   3.607454e+02
  -7.792790e+01   5.618570e+02
  -5.484217e+02   1.034193e+02
  -5.850856e+02  -4.507541e+02
  -1.625600e+02  -5.987910e+02
   3.905750e+02  -2.952548e+02
   6.241439e+02   1.045521e+02
   4.211443e+02   4.059654e+02
  -1.587454e+02   3.657677e+02
  -4.831974e+02   5.843778e+01
  -2.954005e+02  -1.995190e+02
   1.240095e+02  -1.146689e+02
   1.565294e+02   1.461782e+02
  -2.035770e+02   1.771698e+02
  -3.475557e+02  -1.083278e+02
  -8.180139e+01  -3.348885e+02
   2.458352e+02  -2.522908e+02
   3.526993e+02  -8.628239e+01
   2.316323e+02   3.973233e+01
  -4.894567e+01   2.487513e+02
  -2.096020e+02   3.756978e+02
  -3.533847e+02   2.461208e+02
  -3.424991e+02  -1.482916e+02
  -1.030764e+02  -4.721623e+02
   1.187386e+02  -4.094628e+02
   1.490913e+02  -1.263157e+02
   3.477090e+01   2.275742e+01
   4.464360e+01  -8.360476e+01
   1.668880e+02  -1.572626e+02
   2.737615e+02   4.806930e+01
   1.358562e+02   3.031066e+02
  -7.393508e+01   2.445513e+02
  -2.622771e+02  -9.072381e+00
  -2.242360e+02  -2.651569e+02
   1.022550e+01  -3.343879e+02
   2.667709e+02  -1.590369e+02
   3.787058e+02   1.494993e+02
   2.250491e+02   3.395146e+02
  -1.114469e+02   3.087479e+02
  -2.111499e+02   1.713515e+02
  -1.400382e+02   4.143543e+01
  -1.496510e+02  -7.290704e-01
  -2.586551e+02   4.044140e+01
  -4.290950e+02  -6.738503e+01
  -3.536881e+02  -2.616396e+02
   6.163773e+00  -4.508310e+02
   3.732962e+02  -4.310349e+02
   5.326555e+02  -1.946630e+02
   3.404610e+02   1.629747e+02
   4.150735e+01   3.723497e+02
  -1.742628e+02   2.788794e+02
  -1.179182e+02   1.515021e+01
   1.026559e+02  -9.852581e+01
   1.706627e+02   3.168189e+01
   1.907292e+01   2.051082e+02
  -1.322045e+02   1.602300e+02
  -1.626660e+02  -5.590866e+01
   5.241065e+00  -2.099037e+02
   2.025212e+02  -5.517758e+01
   1.695959e+02   2.724623e+02
   1.811833e+01   3.347051e+02
  -2.466918e+02   2.140217e+02
  -3.168950e+02  -6.597383e+01
  -2.676503e+02  -2.050781e+02
  -1.310629e+02  -2.385372e+02
   1.077805e+02  -1.554492e+02
   1.803067e+02  -5.181317e+01
   5.634822e+01   5.962898e+01
  -5.108278e+01   8.187027e+00
  -7.827615e+01  -1.034462e+02
   1.119435e+02  -1.042205e+02
   1.944274e+02   1.065535e+01
   2.096743e+01   7.102003e+01
  -1.071972e+02   3.123652e+01
  -6.518759e+01  -6.787505e+01
   1.418424e+02  -1.277848e+02
   3.151804e+02   2.439554e+00
   2.506400e+02   1.293196e+02
   2.326833e+01   2.884456e+02
  -1.837267e+02   2.528298e+02
  -2.736746e+02   1.325946e+02
  -1.365588e+02  -3.709021e+01
   2.906534e+01  -1.048950e+02
   1.334783e+02   1.140091e+01
  -3.567320e+01   1.171639e+02
  -1.759442e+02   9.436717e+01
  -2.204473e+02  -1.020128e+02
  -1.138360e+02  -1.992493e+02
   4.691579e+01  -1.179557e+02
   1.605920e+02  -3.433304e+01
   7.278025e+01   6.539355e+01
  -4.051719e+01   7.535353e-01
  -4.553902e+01  -8.013578e+01
   7.560435e+01  -1.411770e+02
   1.975644e+02  -5.066523e+01
   1.783427e+02   9.315564e+01
   2.359285e+01   2.038202e+02
  -1.530873e+02   1.538323e+02
  -1.989762e+02  -6.868423e+00
  -9.278156e+01  -1.462526e+02
   7.832481e+01  -1.265295e+02
   1.052180e+02  -3.555306e+01
   4.368961e+01  -1.294241e+00
  -1.628707e+01   9.779446e+00
   2.128916e+01  -4.502812e+00
   1.282006e+02   4.637049e+01
   9.815482e+01   1.243794e+02
   2.395384e+01   1.360537e+02
  -1.341970e+02   1.172931e+02
  -2.756544e+02   4.537483e+01
  -2.348146e+02  -1.415638e+02
  -4.044335e+01  -2.444176e+02
   1.386197e+02  -1.668599e+02
   1.416663e+02  -1.131339e+01
   5.585034e+01   8.067112e+01
  -1.034455e+01   3.470408e+01
   5.622611e+01   1.010315e+01
   5.998820e+01  -3.101887e+01
   2.650068e+01   3.468752e+01
  -4.573539e+01   8.952613e+01
  -1.144558e+02   5.347610e+01
  -8.561418e+01  -4.779977e+01
   6.286290e+01  -1.388375e+02
   1.772290e+02  -9.438375e+01
   2.366187e+02   7.624231e+01
   1.021463e+02   2.159645e+02
  -1.229247e+02   2.323082e+02
  -2.904313e+02   6.345456e+01
  -2.860492e+02  -9.199232e+01
  -8.316879e+01  -2.242126e+02
   4.827117e+01  -1.344756e+02
   1.274481e+02  -5.200619e+01
   4.974207e+01  -7.487413e+01
   3.461538e+01  -9.569818e+01
   8.270440e+01  -6.619584e+01
   1.180743e+02  -6.137786e+00
   1.450391e+02   1.696462e+02
   1.083000e+01   2.599863e+02
  -1.498917e+02   2.072494e+02
  -2.129557e+02   3.532237e+01
  -1.547770e+02  -1.545034e+02
  -6.468327e+01  -1.609605e+02
   8.494595e+01  -9.220980e+01
   1.159982e+02   3.062595e+01
   3.757813e+00   2.281284e+01
  -1.169811e+01  -1.265467e+01
   1.064947e+01   4.199229e+01
   1.107264e+02   5.920530e+01
   8.550480e+01   2.909630e+01
  -4.574710e+01   2.043809e+01
  -1.701818e+02   4.980918e+01
  -1.708113e+02  -7.527031e+01
  -8.863145e+00  -9.519896e+01
   1.623276e+02  -1.018450e+02
   1.765518e+02   6.381246e+00
   5.795252e+01   7.468299e+01
  -1.698813e+01   7.950817e+01
  -1.139540e+02   7.279849e+00
  -3.361405e+01  -7.612589e+01
   7.768299e+01  -8.367495e+01
   3.130900e+01  -1.477860e-01
   4.587541e+01   3.291001e+01
   4.272542e+01  -2.874178e+00
   3.892305e+01   1.720738e+01
   7.558767e+01  -1.147116e+01
   6.052302e+01   3.795034e+01
   1.677310e+01   1.594530e+02
  -1.186292e+02   1.376533e+02
  -1.433354e+02   3.777800e+01
  -1.182020e+02  -8.634149e+01
   8.585623e+00  -9.273798e+01
   4.038245e+01  -3.537029e+01
   4.010944e+01   1.318153e+01
  -1.622702e+01  -1.203459e+01
  -1.354138e+02  -6.703097e+01
  -1.052212e+02  -1.067496e+02
   3.710579e+01  -1.091217e+02
   1.917787e+02  -2.875175e+01
   1.499727e+02   2.195848e+01
   6.974132e+01   1.124100e+02
  -5.392460e+01   4.416194e+01
  -3.875016e+01   8.325044e+00
   2.459311e+01  -4.242018e+00
   1.052300e+02  -3.335623e-01
   5.721491e+00   1.292372e+02
  -1.071240e+02   1.563205e+02
  -1.597116e+02   3.493841e+01
  -1.580085e+02  -8.859100e+01
   1.347751e+01  -2.056369e+02
   1.013104e+02  -1.361031e+02
   1.318110e+02   2.949172e+01
   4.649416e+01   1.637181e+02
  -1.148593e+01   1.134428e+02
  -2.035611e+01   4.464799e+01
  -5.808394e+01  -5.065335e+01
  -4.269740e+01   2.009930e+01
  -3.179748e+01   1.193348e+01
  -4.287558e+01  -4.766141e+01
  -5.079485e+01  -7.436114e+01
  -5.666216e+01  -1.348624e+02
   7.079071e+01  -7.553906e-01
   1.829258e+02   6.580072e+01
   1.536169e+02   5.564420e+01
   3.986323e+01   6.042062e+01
  -1.171275e+02   1.669593e+01
  -1.276363e+02  -2.501280e+01
   1.361380e+01  -1.209806e+01
   4.714886e+01  -1.384499e+01
   2.085094e+01   1.147414e+01
  -3.165104e+01  -1.733705e+01
  -7.856799e+00  -2.267224e+01
   8.517650e+01   1.885514e+01
   9.334808e+01   7.971803e+00
   3.483367e+01   7.014911e+01
  -1.223357e+02   1.199690e+02
  -1.768890e+02   6.439253e+01
  -1.652008e+02  -4.687768e+01
  -2.642001e+01  -1.325948e+02
   6.783429e+01  -1.910549e+02
   1.075999e+02  -8.500833e+01
   8.527563e+01   3.626960e+01
   2.184393e+01   5.103464e+01
  -1.634555e+01   2.787879e+00
  -1.515751e+01  -2.699896e+01
   1.693532e+01   4.564862e+01
   3.373902e+01   1.142279e+02
  -6.347870e+01   1.147322e+02
  -8.038682e+01  -1.248238e+01
  -1.088950e+02  -7.700821e+01
   4.237620e+00  -1.167774e+02
   8.856989e+01  -5.480266e+01
   1.566498e+02   6.675597e+01
   5.577623e+01   1.253303e+02
  -3.548176e+01   9.570590e+01
  -1.047035e+02  -3.171241e+01
  -8.145978e+01  -4.641045e+01
   2.588963e+00  -3.868951e+01
   2.588584e+01  -2.428973e+00
  -3.664506e+01  -5.304249e+00
  -5.484526e+01  -1.085486e+01
  -1.646894e+01   1.320332e+01
   1.072735e+02  -1.092893e+02
   1.106586e+02  -8.145490e+01
   7.619284e+01   3.456926e+01
  -6.071354e+01   9.264982e+01
  -5.288093e+01   9.873512e+01
  -2.639459e+01  -2.307616e+01
  -1.875867e+01  -6.268702e+01
   2.127500e+01  -5.853134e+01
   5.171203e+01   6.315486e+00
   3.145100e+01   3.194011e+01
  -1.366306e+01   1.291891e+01
  -3.639640e+01   2.419966e+01
  -4.019041e+01  -4.989964e+01
  -2.604769e+00   1.903044e+01
   2.855982e+01   5.798219e+01
   1.026310e+01  -5.835189e-01
  -6.537639e+00  -4.273737e+01
   1.675803e+01  -5.549248e+01
   1.344160e+01  -2.644850e+01
   1.278725e+01   5.720276e+01
   1.262577e+01   4.910018e+01
  -5.937481e+01   5.019435e+01
  -5.857251e+01  -1.915772e+01
   1.060154e+01  -4.761449e+01
   6.873640e+01   3.652518e+00
   8.349896e+01  -1.875883e+01
   9.299719e+00  -1.151717e+00
  -3.414960e+01   5.731457e+01
  -5.090180e+01   7.676389e+01
  -2.585538e+01   1.886168e+01
   5.141073e+01  -6.471290e+01
   6.456285e+01  -1.388792e+01
  -2.827157e+01   2.921539e+01
  -9.668374e+01   1.832131e+01
