
 $NMID
 id='ANONYMOUS ', fmtdat='(2E16.6)'
 volume=1.0
 tramp=1.0
 $END
   3.893930e+03   1.892265e+02
   2.196253e+03   2.218234e+03
  -5.832505e+02   2.392539e+03
  -1.706395e+03   8.312537e+02
  -8.143965e+02  -3.293525e+02
   3.792896e+02  -3.372109e+02
   6.012704e+02   3.707227e+02
  -6.780227e+01   8.830340e+02
  -7.820876e+02   6.932901e+02
  -8.113917e+02  -9.967208e+01
  -3.684077e+02  -8.367776e+02
   2.222082e+02  -7.264020e+02
   4.768403e+02  -6.055224e+01
   3.202445e+02   5.727665e+02
  -2.063355e+02   6.464538e+02
  -5.850164e+02   4.354543e+00
  -1.705917e+02  -5.974550e+02
   2.099940e+02  -6.056499e+02
   5.663651e+02  -1.413171e+02
   4.880623e+02   3.569372e+02
  -6.870314e+01   4.550157e+02
  -1.810386e+02   2.363471e+02
  -1.609876e+02   4.001939e+01
   2.108498e+02  -5.704398e+01
   3.957844e+02   2.511984e+02
   1.036396e+02   4.746682e+02
  -4.508231e+02   3.484114e+02
  -7.867151e+02  -1.258803e+02
  -3.367490e+02  -5.344975e+02
   3.149257e+02  -4.164027e+02
   6.300078e+02   4.529005e+01
   2.474763e+02   4.586870e+02
  -3.123053e+02   4.553285e+02
  -5.227953e+02   1.808298e+02
  -3.189634e+02  -1.770842e+02
  -8.274497e+01  -3.548023e+02
   1.088495e+02  -1.972396e+02
   4.878751e+01   1.889702e+02
  -1.853631e+02   3.352327e+02
  -3.773705e+02  -1.411264e+02
  -1.404175e+02  -6.021595e+02
   3.017022e+02  -5.586165e+02
   4.649660e+02   3.883749e+01
   1.381347e+02   4.185188e+02
  -2.049877e+02   1.546778e+02
  -2.466255e+02  -3.407749e+02
   5.393716e+01  -4.712444e+02
   4.559671e+02  -1.110576e+02
   5.292703e+02   3.439041e+02
   1.749852e+02   5.328946e+02
  -3.365954e+02   2.955376e+02
  -5.701422e+02  -9.429824e+01
  -3.256830e+02  -3.669952e+02
   1.559521e+02  -2.953730e+02
   3.703108e+02  -4.532843e+01
   2.081387e+02   1.798608e+02
  -6.315998e+01   9.922020e+01
  -1.113925e+02  -1.492968e+02
   1.373864e+02  -1.662581e+02
   2.731282e+02   5.446117e+01
   1.425460e+02   2.916246e+02
  -2.077509e+02   2.653538e+02
  -2.956133e+02   8.543587e+01
  -1.959762e+02  -7.403957e+01
  -2.904601e+00  -2.380130e+02
   1.992207e+02  -3.217052e+02
   3.222550e+02  -2.045602e+02
   2.332127e+02   1.118245e+02
   4.182341e+01   3.816066e+02
  -8.977424e+01   3.331658e+02
  -4.494594e+01   8.198950e+01
   2.472811e+01   3.020248e+00
  -6.367337e+01   1.058040e+02
  -2.500099e+02   1.447766e+02
  -3.056546e+02  -5.739771e+01
  -1.493078e+02  -2.654620e+02
   1.034067e+01  -2.577568e+02
   2.620404e+02  -5.653692e+00
   1.883076e+02   2.215087e+02
  -4.278926e+01   2.856155e+02
  -2.848941e+02   1.334010e+02
  -3.824694e+02  -1.313161e+02
  -2.313489e+02  -3.516450e+02
   1.149296e+02  -3.007349e+02
   2.098102e+02  -1.184908e+02
   1.614571e+02  -5.341922e+01
   1.262147e+02  -1.994371e+01
   2.382474e+02  -5.696237e+01
   3.749256e+02   6.151429e+01
   3.337603e+02   2.773219e+02
  -4.683663e+00   4.185503e+02
  -3.416079e+02   4.258921e+02
  -4.800497e+02   1.781557e+02
  -3.124214e+02  -1.076110e+02
  -7.438680e+01  -2.697253e+02
   9.136529e+01  -2.469636e+02
   9.589026e+01  -2.146828e+01
  -1.012077e+02   5.053386e+01
  -1.634155e+02  -6.842404e+01
  -2.420263e+01  -1.630876e+02
   1.235072e+02  -1.174598e+02
   1.396059e+02   4.043260e+01
   7.422355e+00   1.692301e+02
  -1.824646e+02  -1.986406e+01
  -1.187627e+02  -2.030666e+02
   2.145915e+01  -3.395248e+02
   2.142336e+02  -2.232870e+02
   3.913148e+02   3.903554e+01
   3.211178e+02   2.637954e+02
   9.123372e+01   2.475097e+02
  -7.487511e+01   1.815907e+02
  -1.938969e+02   1.850912e+01
  -2.902641e+01   1.688363e+01
   3.403689e+01   9.029894e+01
   8.330773e+00   1.137172e+02
  -1.021836e+02   6.701991e+01
  -1.718057e+02  -7.200396e+00
  -6.871011e+01  -7.517455e+01
   5.711464e+01  -8.996541e+00
   2.754984e+01   1.855513e+01
  -7.822628e+01   8.526754e+01
  -2.436298e+02  -1.372528e+01
  -2.309397e+02  -9.775337e+01
  -8.087942e+01  -2.415930e+02
   2.006450e+02  -2.314630e+02
   2.828121e+02  -1.446210e+02
   1.332575e+02   4.012886e+01
  -2.133537e+01   6.887671e+01
  -7.264153e+01  -3.851726e+00
   6.471346e+01  -5.910118e+01
   1.593025e+02  -2.235005e+01
   2.325559e+02   8.856687e+01
   3.706673e+01   1.714747e+02
  -8.460381e+01   1.329055e+02
  -8.241078e+01   6.028378e+01
  -5.988834e+00  -4.941701e+01
   2.534126e+01  -1.376077e+00
   3.150588e+01   1.242642e+02
  -1.158196e+02   1.441193e+02
  -2.248838e+02   3.200447e+00
  -1.763658e+02  -1.516375e+02
  -6.919458e+01  -2.278160e+02
   1.177843e+02  -1.289240e+02
   1.863275e+02   6.284887e+00
   2.892374e+01   1.129135e+02
  -6.659149e+01   8.892004e+01
  -8.221327e+01   1.817645e+01
  -1.792678e+01  -7.026582e+01
   3.999601e+01  -3.573891e+01
  -5.429344e+01   6.369652e+00
  -8.685970e+01  -3.416282e+01
  -7.741501e+01  -1.422067e+02
  -7.150917e+00  -1.906367e+02
   1.123135e+02  -1.416632e+02
   2.176705e+02  -3.611299e+01
   2.101170e+02   1.409875e+02
   5.707119e+01   2.092348e+02
  -1.329715e+02   1.812560e+02
  -1.696812e+02   6.960839e+01
  -6.578023e+01  -3.894197e+01
  -5.159143e+01  -2.253401e+01
  -6.804826e+01   2.458802e+01
  -7.086869e+01  -2.734600e+00
  -6.793958e+01  -4.968263e+01
   5.571184e+01  -9.379933e+01
   9.238155e+01  -1.091966e+02
   7.456272e+01   2.453596e+01
   9.693833e+00   1.096313e+02
  -1.338960e+02   8.293169e+01
  -1.805770e+02   5.186213e-01
  -8.880408e+01  -1.637229e+02
   1.326480e+02  -2.364036e+02
   2.776372e+02  -1.186711e+02
   2.124920e+02   8.011773e+01
   8.388290e+01   1.603916e+02
  -2.007583e+01   1.594981e+02
  -1.137192e+02   3.400223e+01
  -6.839973e+01   3.550320e+01
  -4.513258e+01   7.864885e+01
  -9.900600e+01   9.125357e+01
  -1.315117e+02   8.441701e+00
  -9.048582e+01  -1.494179e+02
  -5.488279e+01  -1.931009e+02
   1.348587e+02  -1.586675e+02
   1.994025e+02  -6.695725e+01
   1.865918e+02   1.422298e+02
   3.649029e+01   1.418669e+02
  -8.927355e+01   5.562169e+01
  -6.940222e+01   1.321541e+01
  -1.972001e+00  -2.109595e+01
  -1.311070e+00  -1.902365e+01
  -7.061536e+01  -4.499250e+01
  -7.135326e+01  -3.258476e+01
  -7.224929e+01  -2.191281e+01
   1.130439e+02  -4.665272e+01
   1.748693e+02   1.220764e+01
   1.481568e+02   1.481927e+01
   3.752639e+01   8.464165e+01
  -1.125102e+02   9.233281e+01
  -1.692388e+02  -1.826750e-01
  -3.203546e+01  -4.380582e+01
   1.099065e+01  -4.358599e+01
   8.062957e+01  -1.892926e+01
  -4.118324e+01   5.218755e+01
  -7.073733e+01   7.762823e+01
  -5.258533e+01  -1.874751e+01
  -4.214932e+01  -6.085798e+01
  -6.720068e+01  -3.238701e+01
  -1.310743e+01  -2.176885e+01
  -4.646961e+01   3.893823e+00
  -2.761721e+01  -7.132646e+01
   4.899921e+01  -1.567458e+02
   1.358917e+02  -1.279721e+02
   1.471259e+02  -4.604523e+01
   1.522547e+02   7.835318e+01
  -1.908193e+01   1.266357e+02
  -7.458591e+01   4.442486e+01
  -1.674732e+01   2.856508e+01
   3.122702e+01  -1.004179e+01
   1.249404e+02   2.730678e+01
   5.633075e+01   1.097846e+02
  -7.695660e+01   1.458750e+02
  -2.384404e+02   4.178229e+01
  -1.252383e+02  -2.628246e+00
  -3.678871e+01  -1.230268e+02
   8.760118e+01  -2.873636e+01
   5.146076e+00   1.439429e+01
  -6.862211e+01  -2.260117e+01
  -1.045069e+02   2.128516e+00
  -3.311740e+01  -1.023268e+02
   8.381720e+01  -1.720320e+02
   1.627496e+02  -5.001396e+01
   1.076920e+02   6.384504e+01
   4.112300e+01   1.869088e+02
  -1.186978e+02   1.317906e+02
  -1.043601e+02   1.977779e+01
  -6.952055e+01  -4.346748e+01
  -4.821882e-01  -5.549296e+01
   1.096187e+01  -2.222424e+01
   1.905871e+01   2.613553e+01
   1.216954e+01  -7.667476e+01
  -2.497265e+01  -5.214935e+01
   6.635280e+00   3.049454e+01
   5.219874e+01   1.037812e+02
   6.882030e+01   8.417890e+01
  -4.937070e+01   6.988486e+01
  -1.752348e+02  -2.492973e+01
  -1.329241e+02  -6.568339e+01
   3.055036e+00  -5.988458e+01
   6.607835e+01  -6.199105e+01
   7.304846e+01  -3.871371e+00
   8.784624e+00  -9.818697e+00
  -2.249535e+01   1.030684e+01
  -1.058903e+01   5.720676e+01
   1.552645e+01   3.051726e+01
  -6.850841e+01   1.074062e+00
  -6.326127e+01   6.635927e+00
  -1.259414e+02  -1.524701e+01
  -1.710880e+01  -7.744207e+01
   9.561096e+01  -9.601375e+01
   2.023178e+02  -8.779794e+01
   1.834069e+02   5.406433e+01
   2.469661e+01   1.358946e+02
  -1.030681e+02   1.319934e+02
  -1.339845e+02   5.851915e+01
  -8.166304e+01  -1.332111e+01
  -4.486836e+01  -2.297419e+01
   1.377554e+00   7.908101e-01
  -5.695862e+01  -6.995931e+00
  -5.998917e+01  -2.884107e+01
  -3.112653e+01  -3.765743e+01
   3.228123e+01  -4.770385e+01
   4.822511e+01   3.173238e+01
   8.135039e+01   6.762474e+01
  -1.096450e+00   8.044907e+01
  -7.413405e+01  -2.678282e+00
  -5.619723e+01  -7.175224e+01
  -4.304701e+01  -7.351064e+01
   4.154190e+01  -5.024293e+01
   8.892263e+01   3.965512e+01
   5.744290e+00   5.717467e+01
  -5.395707e+01   6.012960e+01
  -1.476692e+00   1.868539e+01
   6.593159e+01  -1.423402e+01
   2.467176e+01  -3.948918e+01
   5.340833e+00   3.448428e+01
  -6.200544e+01   6.256740e+01
  -9.535640e+01   4.496005e+01
  -6.871710e+01  -3.614967e+01
   2.543264e+01  -6.193970e+01
   6.660511e+01  -6.907992e+01
   6.305390e+01  -4.428324e+01
   3.613811e+01   3.602031e+01
  -1.650534e+01   8.644412e+01
  -2.754085e+01   3.788324e+01
  -3.060055e+01  -4.571466e+01
   3.299345e+01  -7.634003e+01
   3.848136e+01   1.027429e+01
  -1.185796e+01   4.315954e+01
   1.272246e+01  -7.444090e+00
  -3.366746e+01  -3.850835e+00
  -4.064634e+01  -5.419558e+00
  -1.834251e+00   4.756130e+01
  -4.118923e+01   1.967692e+01
  -2.270699e+01  -4.834999e+01
  -1.980999e+01  -7.873457e+01
   1.779973e+01  -6.906032e+01
   2.012934e+01  -5.820321e+01
   3.332046e+01   7.996362e+00
   2.422949e+00   6.136927e+01
  -1.175815e+01   3.000323e+01
  -2.091499e+01  -3.826407e+01
  -4.722451e+01  -2.521631e+01
   1.099054e+00  -4.488549e+01
   5.811974e+01  -2.086699e+01
   5.864565e+01  -9.362878e+00
  -5.231556e+00   1.567834e+01
  -2.296802e+01  -5.830988e+01
   1.259593e+00  -6.205641e+01
   8.721725e+01  -3.538992e+01
