
 $NMID
 id='ANONYMOUS ', fmtdat='(2E16.6)'
 volume=1.0
 tramp=1.0
 $END
   3.942990e+03   9.668083e+01
   2.573635e+03   1.943632e+03
  -1.140005e+02   2.326657e+03
  -1.477411e+03   1.165951e+03
  -8.896970e+02   7.804282e+01
   1.824537e+02  -3.789350e+02
   5.837027e+02   9.446329e+01
  -6.058492e+01   7.041567e+02
  -5.714782e+02   6.821498e+02
  -7.757805e+02   6.713782e+01
  -4.954697e+02  -6.250082e+02
   1.556948e+01  -7.750687e+02
   4.609095e+02  -1.725045e+02
   3.811658e+02   5.114175e+02
  -1.230074e+02   6.588386e+02
  -5.508219e+02   3.871169e+01
  -3.044360e+02  -5.293068e+02
   2.260380e+02  -6.234857e+02
   5.133080e+02  -2.470304e+02
   3.618417e+02   2.436512e+02
   7.327607e+01   3.629745e+02
  -9.892109e+01   2.437935e+02
  -1.012524e+02   1.305584e+02
   8.514703e+01   3.776059e+01
   2.909366e+02   2.607457e+02
   4.548296e+01   3.853096e+02
  -4.853717e+02   2.277433e+02
  -6.628514e+02  -1.396709e+02
  -3.623929e+02  -4.145649e+02
   3.531648e+02  -2.592207e+02
   6.090090e+02   2.026979e+01
   2.998009e+02   4.514471e+02
  -2.737932e+02   3.957063e+02
  -5.472933e+02   2.251172e+02
  -3.923585e+02  -1.761329e+02
  -7.158708e+01  -4.188151e+02
   1.017311e+02  -2.351871e+02
   5.168073e+01   1.184810e+02
  -1.863188e+02   3.091587e+02
  -2.923175e+02  -4.498026e+01
  -1.823489e+02  -5.022117e+02
   2.369904e+02  -5.424477e+02
   3.645357e+02  -2.518353e+01
   1.661000e+02   3.249493e+02
  -1.469401e+02   2.134419e+02
  -2.105373e+02  -2.381926e+02
   1.268266e+02  -4.194099e+02
   5.205774e+02  -1.090085e+02
   5.375423e+02   3.785544e+02
   1.620894e+02   5.111961e+02
  -2.978534e+02   3.095617e+02
  -5.624547e+02  -5.984594e+01
  -3.275739e+02  -2.651470e+02
   7.973096e+01  -2.573001e+02
   3.351680e+02  -6.590875e+01
   1.713789e+02   9.184248e+01
  -4.946191e+01   1.443946e+01
  -8.836788e+01  -8.510284e+01
   1.604713e+02  -1.128947e+02
   2.877311e+02   9.227134e+01
   1.758838e+02   2.134150e+02
  -1.422141e+02   2.090230e+02
  -2.993845e+02   7.976604e+01
  -2.477074e+02  -9.447233e+01
   3.280647e+01  -2.740554e+02
   3.163785e+02  -3.060905e+02
   3.577315e+02  -1.819003e+02
   2.426215e+02   1.873089e+02
   6.116062e+01   4.130636e+02
  -1.361114e+02   3.649057e+02
  -4.456367e+01   1.560440e+02
  -2.412105e+01   6.371753e+01
  -1.437164e+02   1.269864e+02
  -2.431618e+02   1.280996e+02
  -2.844649e+02  -1.070436e+02
  -7.033965e+01  -3.110504e+02
   6.249435e+01  -1.755137e+02
   2.078536e+02   7.311241e+01
   1.535805e+02   2.916451e+02
  -3.671871e+01   2.796426e+02
  -2.687755e+02   6.406110e+01
  -3.138808e+02  -1.831703e+02
  -2.016309e+02  -3.061616e+02
   7.430451e+01  -2.927496e+02
   2.110347e+02  -1.582819e+02
   1.356993e+02  -7.188926e+01
   1.347063e+02  -8.786095e+01
   2.692665e+02  -2.924215e+01
   4.443485e+02   1.237320e+02
   3.939469e+02   3.261385e+02
  -3.037748e+01   4.291857e+02
  -4.285061e+02   4.535963e+02
  -5.027404e+02   1.672933e+02
  -3.313871e+02  -9.678139e+01
  -4.351821e+01  -2.790704e+02
   1.235331e+02  -2.315585e+02
   3.719175e+01  -6.553978e+01
  -9.293629e+01   1.207941e+02
  -1.139374e+02  -4.191609e+01
  -4.269826e+01  -1.502611e+02
   1.375639e+02  -7.763523e+01
   9.903641e+01   4.012990e+01
   1.715707e+01   1.871736e+02
  -1.489304e+02   2.536816e+01
  -1.342144e+02  -2.511860e+02
   4.543513e+00  -3.210697e+02
   2.531899e+02  -1.825564e+02
   3.635866e+02   9.819854e+01
   2.848339e+02   2.615410e+02
   9.030491e+01   2.817913e+02
  -1.251790e+02   9.979181e+01
  -1.661637e+02   2.466275e+01
  -3.863155e+01   2.111688e+01
   5.526624e+01   7.268162e+01
  -3.193272e+01   1.394762e+02
  -1.464717e+02   4.006902e+01
  -1.717427e+02  -9.417358e+01
  -1.405002e+01  -9.086350e+01
   6.757757e+01   7.533017e+00
   7.946485e+01   7.962910e+01
  -1.444585e+02   9.209797e+01
  -3.153095e+02  -1.113679e+00
  -2.630009e+02  -1.634531e+02
  -1.155502e+01  -2.652592e+02
   2.379587e+02  -2.436610e+02
   2.782444e+02  -1.113110e+02
   1.511566e+02   9.648439e+01
  -2.630625e+01   1.150625e+02
  -9.931461e+01  -3.701718e+01
   5.457145e+01  -1.211368e+02
   1.771311e+02  -3.522036e+01
   2.187825e+02   1.035217e+02
   9.695659e+01   2.292611e+02
  -4.543307e+01   1.453845e+02
  -1.197991e+02  -1.442675e+01
  -3.345045e+01  -5.434918e+01
   2.687910e+01   1.165919e+01
   4.160596e+01   1.105045e+02
  -7.762467e+01   1.656023e+02
  -1.943842e+02   1.718238e+01
  -1.862160e+02  -1.403651e+02
  -1.819622e+01  -2.014052e+02
   1.590652e+02  -1.243936e+02
   1.777244e+02  -1.799504e+01
   4.061648e+01   7.425244e+01
  -9.920465e+01   1.362253e+02
  -8.765762e+01   3.171285e+01
  -5.548522e+00   3.911558e-01
   3.367137e+01  -3.911113e+01
  -2.428758e+01  -3.925881e-01
  -9.830983e+01  -2.000710e+01
  -1.141362e+02  -9.490877e+01
  -3.334293e+01  -1.223600e+02
   1.869885e+02  -1.139793e+02
   2.678364e+02   9.351600e-01
   1.940757e+02   1.637234e+02
   4.261716e+01   2.825989e+02
  -1.420627e+02   2.116177e+02
  -1.624325e+02   4.468143e+01
  -1.100542e+02  -6.201831e+01
  -4.825249e+01  -4.819750e+01
  -9.052233e+01   1.834971e+01
  -8.520254e+01  -6.641457e+00
  -5.669964e+01  -8.279941e+01
   6.397961e+01  -9.558892e+01
   1.093665e+02  -9.268567e+01
   1.058923e+02   1.460489e+01
  -5.079629e+01   1.159014e+02
  -1.304853e+02   8.789163e+01
  -1.773444e+02  -3.511932e+01
  -6.328281e+01  -2.259178e+02
   1.320716e+02  -2.112595e+02
   2.708237e+02  -4.480984e+01
   2.533924e+02   9.060417e+01
   1.110820e+02   1.608065e+02
  -4.179530e+01   1.948897e+02
  -1.154436e+02   4.735587e+01
  -5.878386e+01   9.208260e+01
   1.125966e+00   1.244605e+02
  -6.640967e+01   2.943910e+01
  -1.038262e+02  -5.339879e+01
  -9.531225e+01  -1.600555e+02
   1.105887e+00  -2.216547e+02
   1.302885e+02  -1.760390e+02
   2.405725e+02   1.221061e+01
   1.496663e+02   1.551755e+02
   3.629073e+01   1.969503e+02
  -6.945915e+01   4.257989e+01
  -4.426478e+01  -5.612038e+01
   1.256040e+01  -5.376833e+01
   2.809626e+01  -4.750437e+01
  -1.667504e+01   9.129178e+01
  -1.049915e+02   2.254986e+01
  -8.617859e+01   6.329867e-01
   4.783521e+01  -3.700376e+01
   1.240533e+02  -3.936289e+01
   1.322403e+02   3.739398e+01
   1.599465e+01   1.038172e+02
  -1.326653e+02   7.623882e+01
  -1.383850e+02   2.168540e+01
  -7.046255e+01  -8.291486e+01
   5.690798e+01  -7.496397e+01
   7.551793e+01   1.643122e+01
   2.225018e+00   6.635910e+01
  -5.125658e+01   1.134482e+02
  -7.064007e+01   3.018377e+01
  -5.799869e+01  -4.181447e+01
  -9.948089e+01  -8.938996e+01
  -1.440725e+01  -7.137036e+01
  -7.059062e+01  -4.421025e+01
  -4.126618e+01  -2.267902e+01
   2.105228e+01  -1.516134e+02
   1.149171e+02  -1.289709e+02
   1.500563e+02  -4.365042e+00
   8.152550e+01   5.636890e+01
  -9.809569e-02   1.010466e+02
  -7.958684e+01   1.072211e+02
  -7.251233e+01   1.580019e+01
   4.993074e+01   1.913161e+01
   1.371216e+02   3.780256e+01
   3.190454e+01   1.324030e+02
  -1.127557e+02   1.144486e+02
  -2.078483e+02   5.704186e+01
  -1.629521e+02  -2.264498e+01
  -2.843155e+01  -1.043339e+02
   4.636280e+01  -4.433636e+01
   6.236340e+01  -4.661773e+01
  -2.642060e+01   1.524933e+01
  -9.104119e+01  -7.906647e+01
  -3.075984e+00  -1.432743e+02
   1.018631e+02  -1.653258e+02
   1.315058e+02  -8.741952e+01
   1.389927e+02   5.594173e+01
   4.281299e+01   2.028959e+02
  -9.033492e+01   1.824764e+02
  -7.577444e+01  -1.829433e+01
  -3.024756e+01  -1.022134e+02
   2.700455e+01  -9.952441e+01
   4.605244e+01  -2.444858e+01
   4.441000e+01   4.761119e+00
  -1.217780e+01   6.325691e+01
  -4.503197e+01  -4.226669e+01
   2.767985e+01   1.597406e+01
   1.417426e+01   1.026003e+02
   6.585829e+01   1.196215e+02
  -2.060056e+01   6.083434e+01
  -1.004675e+02  -7.306861e+01
  -1.283811e+02  -7.245783e+01
  -6.003176e+01  -5.354126e+01
   5.713554e+01  -2.149893e+01
   7.696363e+01  -1.918893e+01
   1.609122e+01  -1.586288e+01
  -2.891730e+01   3.554328e+01
  -5.950096e+01  -1.856151e+01
  -2.775226e-01   3.345454e+00
   2.799961e+01  -1.307568e+01
  -9.934644e+01  -1.100850e+01
  -9.818866e+01  -3.223925e+01
  -3.272643e+01  -4.852450e+01
   9.544797e+01  -1.166453e+02
   1.676372e+02  -7.802849e+01
   1.553973e+02   1.783663e+01
   2.954046e+01   1.438662e+02
  -8.448266e+01   1.926034e+02
  -1.167562e+02   1.117009e+02
  -4.725761e+01  -4.483897e+01
  -3.654501e+01  -6.887331e+01
  -8.811006e+00  -1.284135e+01
  -1.806966e+00   4.538370e+00
  -8.260641e+00  -6.240509e+01
  -2.766836e+01  -8.063838e+01
   5.614408e+00  -6.891186e+01
   6.085919e+01   8.059051e+00
   5.758848e+01   1.216497e+02
  -1.979818e+01   7.236780e+01
  -9.748785e+01   2.366239e+01
  -1.109027e+02  -6.181471e+01
  -3.473393e+01  -7.406893e+01
   6.232917e+01  -7.214167e+01
   6.913606e+01   1.239827e+01
   3.385275e+01   3.281041e+01
  -4.586735e+01   3.314062e+01
  -2.783711e+01   3.064914e+01
   1.279301e+01   3.674645e+01
   1.133260e+02  -5.440125e+00
   1.644953e+01   4.341189e+01
  -9.445893e+01   5.839753e+01
  -1.268532e+02   5.118388e+01
  -5.281962e+01  -3.500044e+00
   2.608867e+01  -7.533748e+01
   6.852452e+01  -8.342592e+01
   5.365449e+01  -5.224676e+01
   5.676487e+00   5.086057e+01
  -9.979882e+00   2.903154e+01
  -7.614072e+01   3.337659e+01
  -5.917432e+01  -5.728219e+01
   8.868889e+00  -6.383066e+01
   3.428664e+01   6.766138e+00
   4.121295e+01   2.741477e+01
   2.448383e+01   2.025940e+01
  -9.981667e+00  -1.277712e+01
  -1.740673e+01  -1.939645e+01
  -1.001695e+01   3.584541e+01
  -2.757724e+01   2.989477e+01
  -2.215539e+01   2.514293e+01
  -3.452634e+01  -2.342983e+01
  -3.712313e+01  -2.722981e+01
   2.683842e+01  -8.840015e+01
   8.233464e+01   2.109968e+01
   5.606919e+01   6.507900e+01
  -5.389992e+01  -8.112919e+00
  -1.075673e+02  -2.197495e+01
  -7.325251e+01   7.289457e-01
   4.641310e+01  -2.992313e+01
   7.909531e+01  -2.877847e+01
   1.898889e+01  -4.808048e+01
  -3.423800e+01  -7.929428e+00
  -4.385274e+01   4.398324e+01
   2.494883e+01  -2.855521e+01
   8.189980e+01  -1.838203e+01
