
 $NMID
 id='ANONYMOUS ', fmtdat='(2E16.6)'
 volume=1.0
 tramp=1.0
 $END
   4.661623e+03  -1.216133e+02
   3.027356e+03   2.827375e+03
  -7.665675e+02   3.064366e+03
  -2.354543e+03   1.044616e+03
  -1.043052e+03  -7.809083e+02
   7.692741e+02  -7.534040e+02
   9.911868e+02   4.341181e+02
   4.466914e+01   1.237870e+03
  -9.649140e+02   8.991866e+02
  -1.142899e+03  -8.864739e+01
  -4.566735e+02  -9.142190e+02
   1.637827e+02  -1.100885e+03
   7.797589e+02  -1.774534e+02
   5.276296e+02   7.604849e+02
  -2.760997e+02   8.738556e+02
  -6.863541e+02  -6.054490e+01
  -3.433511e+02  -7.368752e+02
   4.197769e+02  -7.568713e+02
   6.654344e+02  -2.947696e+01
   4.448979e+02   4.729163e+02
   1.732177e+01   5.250243e+02
  -2.878602e+02   2.360202e+02
  -2.827050e+02   1.841157e+01
   6.464184e+01  -1.716933e+02
   4.528896e+02   7.605346e+01
   2.529206e+02   4.683204e+02
  -4.878331e+02   5.365352e+02
  -9.163846e+02  -1.032570e+02
  -5.067553e+02  -6.058601e+02
   4.052515e+02  -5.825515e+02
   8.556481e+02   1.060958e+01
   3.760122e+02   4.804164e+02
  -3.070953e+02   5.311920e+02
  -5.877629e+02   2.275577e+02
  -4.476803e+02  -2.862659e+02
  -8.527929e+01  -5.024617e+02
   2.320674e+02  -3.509768e+02
   2.496692e+02   2.203854e+02
  -1.520428e+02   5.108259e+02
  -5.200970e+02  -2.933963e+01
  -2.774154e+02  -7.838641e+02
   3.822574e+02  -8.158073e+02
   7.196224e+02   9.936063e+00
   2.720719e+02   6.227641e+02
  -3.340044e+02   3.767827e+02
  -4.060240e+02  -4.045872e+02
   4.939497e+01  -6.140189e+02
   5.022660e+02  -1.397288e+02
   6.222720e+02   5.108837e+02
   1.883305e+02   6.607074e+02
  -3.756809e+02   3.621147e+02
  -6.692523e+02  -5.183749e+01
  -4.562647e+02  -4.057027e+02
   1.468575e+02  -3.493979e+02
   4.680441e+02  -7.524364e+01
   2.560639e+02   2.078770e+02
  -1.398084e+02   1.429904e+02
  -1.805244e+02  -1.394417e+02
   1.745388e+02  -2.368249e+02
   4.024539e+02   1.320496e+01
   1.912377e+02   3.140509e+02
  -2.238513e+02   2.848026e+02
  -3.738878e+02   1.297335e+02
  -2.236229e+02  -1.076638e+02
   5.738402e+01  -2.708505e+02
   2.409286e+02  -3.304650e+02
   3.792745e+02  -1.785744e+02
   2.997925e+02   1.360304e+02
   2.970114e+01   4.407048e+02
  -1.364099e+02   3.686758e+02
  -1.022641e+02   6.664932e+01
  -4.609437e-01  -3.302116e+01
  -1.782426e+01   6.622809e+01
  -1.920765e+02   1.152818e+02
  -2.913576e+02  -3.022178e+01
  -1.554371e+02  -2.648294e+02
   4.470267e+01  -2.679141e+02
   1.923740e+02  -2.675372e+01
   1.782551e+02   2.424770e+02
  -3.899867e+01   2.881452e+02
  -2.719174e+02   9.799325e+01
  -3.700018e+02  -1.994184e+02
  -1.945279e+02  -3.346077e+02
   1.294996e+02  -3.216497e+02
   2.447116e+02  -1.323105e+02
   1.243939e+02   3.221964e+01
   9.745519e+01  -1.898363e+01
   2.209117e+02  -3.311526e+01
   4.436661e+02   4.554735e+01
   4.089403e+02   2.244047e+02
   2.498269e+01   5.009277e+02
  -3.541133e+02   4.428406e+02
  -5.239756e+02   2.592813e+02
  -3.530558e+02  -1.034727e+02
  -9.020741e-01  -3.573550e+02
   1.201963e+02  -2.808007e+02
   1.147727e+02  -2.385580e+01
  -1.296638e+02   1.149898e+02
  -2.061606e+02   2.530605e+01
  -2.265934e+01  -2.169052e+02
   1.530226e+02  -1.965953e+02
   2.172167e+02   7.614198e+01
   6.391519e+00   2.297392e+02
  -1.730253e+02   7.355528e+01
  -1.765749e+02  -2.731784e+02
   1.022380e+01  -3.929779e+02
   2.151908e+02  -1.858772e+02
   3.449856e+02   8.663599e+01
   2.446542e+02   2.702696e+02
   9.201762e+01   2.627511e+02
  -1.521605e+02   1.411253e+02
  -2.003201e+02  -9.691765e+00
  -2.147872e+01  -2.685215e+01
   8.575066e+01   6.866244e+01
   1.548633e+01   1.121640e+02
  -1.440063e+02   1.218270e+02
  -2.096607e+02  -5.493693e+01
  -3.281107e+01  -1.057464e+02
   1.155324e+02  -1.685009e+01
   1.258858e+02   7.699283e+01
  -9.818610e+01   1.036179e+02
  -2.993303e+02  -1.918532e+01
  -2.907412e+02  -1.202370e+02
  -6.226444e+01  -1.977848e+02
   1.679277e+02  -2.598844e+02
   2.443960e+02  -1.341521e+02
   1.310746e+02   5.727384e+01
  -6.728308e+01   7.831731e+01
  -9.537400e+01   8.251890e+00
   3.706506e+01  -1.238863e+02
   1.741226e+02  -5.511321e+01
   1.923526e+02   7.672033e+01
   1.223083e+02   1.934766e+02
  -6.105405e+01   1.924966e+02
  -1.809073e+02   5.006631e+01
  -1.182522e+02  -5.885125e+01
   4.370466e+01   4.332758e+01
   4.571382e+01   7.104093e+01
  -5.406850e+01   1.598228e+02
  -1.803753e+02   4.790654e+01
  -1.813375e+02  -1.228644e+02
  -6.102444e+01  -2.130600e+02
   1.698170e+02  -1.446749e+02
   1.978245e+02  -2.741499e+01
   5.978339e+01   1.186886e+02
  -7.298411e+01   1.049207e+02
  -8.906269e+01   6.405025e+01
  -2.091776e+00  -5.686003e+01
   2.694340e+01  -3.701744e+01
  -1.470608e+01   9.628798e+00
  -4.912436e+01   4.477012e+00
  -8.564110e+01  -9.920356e+01
  -8.640539e+00  -1.435446e+02
   1.237453e+02  -1.715514e+02
   2.519644e+02   1.264094e+01
   1.981085e+02   1.475652e+02
   3.138053e+01   2.317995e+02
  -1.302174e+02   1.430206e+02
  -1.521858e+02   2.185412e+01
  -5.775167e+01  -4.945487e+01
  -3.364261e+01  -2.279428e+01
  -7.372420e+01  -2.688504e+00
  -8.232362e+01   1.212788e+01
  -1.627596e+01  -5.837535e+01
   1.352296e+01  -8.927380e+01
   1.296999e+02  -5.836218e+01
   1.061844e+02   3.927467e+01
   1.851918e+01   1.076844e+02
  -1.661362e+02   1.350578e+02
  -2.074707e+02  -6.304961e+01
  -9.351938e+01  -1.964067e+02
   1.292083e+02  -2.398482e+02
   2.883976e+02  -1.130903e+02
   2.429389e+02   5.732237e+01
   1.083935e+02   2.192077e+02
  -7.344316e+01   1.734236e+02
  -9.513529e+01   1.357080e+02
  -7.011059e+01   4.079074e+01
  -4.130231e+01   1.148604e+02
  -9.190664e+01   5.392479e+01
  -1.029452e+02  -2.012153e+00
  -1.559925e+02  -9.625402e+01
  -6.110515e+01  -1.971702e+02
   6.795632e+01  -1.676430e+02
   1.503860e+02  -6.202897e+01
   9.224742e+01   7.606055e+01
   5.791078e+01   1.614575e+02
  -5.153885e+01   9.188589e+01
  -6.888126e+01   2.641764e+01
  -4.919369e+01  -3.880601e+01
   7.133245e+01  -4.252867e+01
  -8.087600e+00  -2.733266e+01
  -4.581473e+01   2.042126e+01
  -3.727422e+01   6.484083e+00
   5.170107e+01  -2.525368e+01
   8.958494e+01  -3.663351e+01
   1.256205e+02   6.198406e+01
   9.878341e+00   9.679397e+01
  -8.472438e+01   7.220550e+01
  -1.142013e+02   1.401324e+01
  -3.623639e+01  -2.223456e+01
   2.901129e+01  -3.212371e+01
   6.411979e+01  -3.781618e+00
   1.890151e+01   4.014923e+01
  -6.087249e+01   9.843088e+01
  -1.004695e+02   1.882897e+01
  -5.929889e+01  -6.770560e+01
  -8.544774e+01  -6.118200e+01
  -1.023461e+02  -1.996249e+01
  -5.670846e+01   1.423383e+01
  -3.614605e+01  -1.528580e+01
   4.265680e+01  -1.254026e+02
   6.841986e+01  -1.451564e+02
   1.467109e+02  -2.510226e+01
   1.062071e+02   5.900457e+01
   2.166345e+01   5.822709e+01
  -8.783478e+01   2.264792e+01
  -5.519977e+01  -3.626026e+01
   4.296744e+01   2.057995e+01
   1.537945e+02   3.433425e+01
   1.264293e+02   1.306749e+02
  -8.055700e+01   1.259450e+02
  -1.675863e+02   9.720491e+01
  -1.781515e+02  -5.628936e+01
  -5.617443e+01  -6.975855e+01
   6.887556e+01  -6.648832e+01
   5.624509e+01  -5.723800e+00
  -7.138636e+01   3.824752e+01
  -1.414409e+02  -2.938922e+01
  -5.606476e+01  -1.235871e+02
   1.261973e+02  -1.800609e+02
   2.095996e+02  -1.057388e+02
   1.251756e+02   1.276109e+02
   3.178313e+01   2.351581e+02
  -9.282445e+01   1.532081e+02
  -1.271449e+02  -7.457224e+00
  -4.021209e+01  -1.292595e+02
  -1.424621e+01  -1.507997e+02
   4.192545e+01  -5.926239e+00
   8.039097e+01   3.437738e+01
   3.308948e+01   6.336900e+01
  -3.532441e+01   3.822492e+00
   8.229547e+00   2.992016e+01
   6.769789e+01   6.064266e+01
   5.227248e+01   6.252977e+01
  -3.527201e+01   5.085336e+01
  -1.330541e+02  -8.766909e-02
  -1.364527e+02  -4.131598e+01
  -2.546410e+01  -6.496812e+01
   1.024432e+02  -6.616152e+01
   1.127323e+02  -4.473113e+01
   2.234590e+01  -1.405155e+01
  -6.514114e+01   2.379186e+01
  -1.080680e+01   5.214283e+01
   2.009032e+01   1.492775e+00
  -1.554449e+00  -3.450495e+00
  -1.048083e+02   1.143113e+01
  -1.185925e+02  -2.845002e+01
  -3.092437e+01  -9.037752e+01
   1.015611e+02  -8.342847e+01
   1.543536e+02  -5.980544e+01
   1.353766e+02   8.338824e+01
   5.441993e+01   1.781259e+02
  -9.283636e+01   1.507828e+02
  -1.248834e+02   7.092857e+01
  -1.050982e+02  -2.950126e+01
  -6.420434e+01  -3.699257e+01
   1.396052e+01  -2.266063e+01
   7.389366e+00   3.079651e+01
  -8.843819e+00  -5.908057e+01
  -4.804305e+00  -8.967513e+01
   5.929078e+01  -1.184633e+02
   8.124016e+01   6.793693e+00
   9.277353e+01   1.202098e+02
   4.342024e+01   1.442762e+02
  -8.364388e+01   2.752984e+01
  -1.210186e+02  -5.635727e+01
  -2.797408e+00  -1.152109e+02
   1.204823e+02  -3.800433e+01
   1.093785e+02   2.115766e+01
   1.606867e+01   6.843455e+01
  -6.097877e+01   5.550124e+01
  -2.529019e+00   2.559216e+01
   3.115336e+01  -3.506670e+01
   6.173570e+01  -2.960797e+01
   2.817783e+01   4.145099e+01
  -7.645205e+01   7.161318e+01
  -1.176509e+02   8.407243e+01
  -1.217799e+02   4.485427e+00
   2.219015e+01  -7.426773e+01
   7.886028e+01  -9.349474e+01
   4.171039e+01   1.368872e+01
   1.251631e+01   6.805608e+01
  -2.573541e+01   4.842741e+01
  -6.730068e+01  -1.735139e+01
  -4.412955e+01  -3.681260e+01
  -1.618722e+01  -4.013588e+01
   5.850239e+01  -2.706568e+01
   4.229965e+01  -8.180122e+00
   1.826795e+01   3.043862e+01
   1.569895e+01   7.083607e+00
   8.001988e+00   1.365761e+01
  -2.133953e+01   2.143310e+01
  -2.205088e+01   4.647150e+01
  -9.971001e+00  -8.355201e+00
  -4.045095e+01  -3.992530e+01
   2.320713e+00  -6.808586e+01
   4.975553e+01   1.142883e+01
   3.159379e+01   5.720188e+01
  -1.732682e+01   7.395979e+01
  -6.897623e+01   4.206649e+01
  -7.961856e+01   2.493705e-01
  -5.918085e+01  -2.420434e+01
   2.321417e+01  -3.438533e+01
   8.896376e+01  -1.604045e+01
   4.833919e+01  -1.674913e+01
  -1.593718e+01   1.300484e+01
  -7.097485e+01  -2.646426e+01
   1.337729e+01  -2.521397e+01
   1.222664e+02  -3.138207e+01
