
 $NMID
 id='ANONYMOUS ', fmtdat='(2E16.6)'
 volume=1.0
 tramp=1.0
 $END
  -4.083921e+03   1.850588e+02
  -2.580209e+03  -2.457486e+03
   4.343930e+02  -2.560609e+03
   1.812104e+03  -1.045555e+03
   1.156784e+03   2.181007e+02
  -3.258651e+02   4.397868e+02
  -7.307745e+02  -3.513057e+02
  -1.577681e+02  -9.081488e+02
   7.629825e+02  -7.206832e+02
   8.433367e+02   1.635414e+01
   5.292235e+02   7.187249e+02
  -1.099935e+02   8.292546e+02
  -4.823923e+02   1.572588e+02
  -3.787452e+02  -6.402782e+02
   2.594729e+02  -7.252818e+02
   5.778329e+02   1.890385e+00
   3.361162e+02   5.745174e+02
  -2.166895e+02   6.894465e+02
  -6.083292e+02   2.633887e+02
  -4.451946e+02  -2.057002e+02
  -1.050005e+02  -3.621869e+02
   1.989546e+02  -3.063324e+02
   1.423034e+02  -8.859407e+00
  -1.848150e+02   6.303592e+01
  -4.238757e+02  -2.397534e+02
  -1.353229e+02  -4.588152e+02
   5.035822e+02  -3.306788e+02
   7.773488e+02   1.342229e+02
   3.497062e+02   4.998513e+02
  -4.116880e+02   3.660585e+02
  -6.884687e+02  -1.542722e+02
  -3.298402e+02  -4.495414e+02
   3.040423e+02  -5.400617e+02
   5.369787e+02  -1.257456e+02
   4.106551e+02   2.328761e+02
   7.793423e+01   4.335611e+02
  -1.588335e+02   2.224370e+02
  -9.508340e+01  -1.901605e+02
   1.474854e+02  -3.368013e+02
   4.096879e+02   1.395590e+02
   1.536507e+02   6.697198e+02
  -3.678517e+02   6.678763e+02
  -5.616499e+02  -3.584549e+01
  -2.395672e+02  -4.850704e+02
   2.295796e+02  -2.880145e+02
   2.769094e+02   3.481447e+02
  -1.131421e+02   5.055389e+02
  -5.577756e+02   6.187479e+01
  -5.393105e+02  -4.671128e+02
  -1.403907e+02  -5.759330e+02
   3.483936e+02  -3.151901e+02
   6.179867e+02   8.876520e+01
   3.528986e+02   3.750295e+02
  -9.709754e+01   3.374331e+02
  -3.834714e+02   5.009054e+01
  -1.782041e+02  -1.467475e+02
   9.765348e+01  -9.694706e+01
   1.239656e+02   1.063882e+02
  -1.073319e+02   1.762393e+02
  -3.107847e+02  -1.676504e+01
  -1.663073e+02  -2.386458e+02
   1.648502e+02  -2.657884e+02
   3.756613e+02  -1.018437e+02
   2.441709e+02   1.079352e+02
   3.126634e+01   2.921163e+02
  -2.933205e+02   3.715703e+02
  -3.567044e+02   2.382393e+02
  -3.048901e+02  -1.243877e+02
  -8.922497e+01  -4.561881e+02
   1.181853e+02  -4.227883e+02
   1.195146e+02  -1.558121e+02
   4.993632e+01  -2.842640e+01
   1.058704e+02  -1.046844e+02
   2.314862e+02  -8.249384e+01
   2.720023e+02   6.069007e+01
   1.494283e+02   3.261584e+02
  -4.568932e+01   2.659135e+02
  -2.215114e+02  -2.709051e+01
  -1.755518e+02  -2.549264e+02
  -4.255971e+01  -3.296469e+02
   2.539869e+02  -1.240942e+02
   3.472101e+02   1.647957e+02
   2.106634e+02   3.505235e+02
  -9.718289e+01   3.310673e+02
  -2.307134e+02   1.813813e+02
  -1.474516e+02   6.926331e+01
  -1.264084e+02   8.812184e+01
  -2.282617e+02   5.102318e+01
  -4.150616e+02  -8.370191e+01
  -3.177304e+02  -2.773951e+02
   1.678469e+01  -4.476759e+02
   3.914599e+02  -4.379751e+02
   5.272668e+02  -1.915294e+02
   3.355682e+02   8.599377e+01
   4.410149e+01   3.336148e+02
  -1.261113e+02   2.658723e+02
  -6.562202e+01   6.356211e+01
   1.169082e+02  -3.146047e+01
   1.848636e+02   2.415686e+01
   4.974771e+01   1.767946e+02
  -1.347452e+02   1.832807e+02
  -2.004113e+02  -8.012876e+01
  -4.754942e+01  -1.879052e+02
   1.953596e+02  -2.709004e+01
   1.219234e+02   2.533038e+02
  -4.452065e+01   3.490056e+02
  -2.387065e+02   2.062885e+02
  -3.723265e+02  -5.975831e+01
  -3.054522e+02  -2.397704e+02
  -8.293600e+01  -2.999410e+02
   1.598972e+02  -1.438763e+02
   1.736398e+02  -2.158725e+00
   5.924403e+01   6.961250e+01
  -2.648148e+01  -3.772371e+01
   3.528666e+01  -1.405656e+02
   1.582289e+02  -7.470443e+01
   2.033385e+02   5.278874e+01
   4.431845e+01   1.266800e+02
  -6.031926e+01   1.685521e+01
  -6.620243e+01  -1.229531e+02
   1.538426e+02  -1.012544e+02
   2.987233e+02  -2.294338e+00
   2.596781e+02   1.671986e+02
   5.972858e+01   2.589418e+02
  -2.224565e+02   2.370864e+02
  -2.781600e+02   1.448387e+02
  -1.739680e+02  -1.738631e+01
   3.656202e+01  -8.623464e+01
   7.981827e+01   4.530471e+00
  -6.572171e+01   7.416861e+01
  -2.103368e+02   8.075406e+01
  -2.008624e+02  -8.774068e+01
  -1.039944e+02  -1.766216e+02
   1.012677e+02  -1.711069e+02
   6.946359e+01  -1.159686e+01
   9.604658e+01   5.360336e+01
   2.830456e+01  -7.101267e+00
  -2.594027e+01  -8.122687e+01
   3.574677e+01  -1.325962e+02
   1.904238e+02  -4.887374e+01
   2.173642e+02   1.145987e+02
   1.769164e+01   2.003425e+02
  -1.926750e+02   1.235307e+02
  -1.730085e+02  -1.762595e+01
  -1.745094e+01  -1.149905e+02
   1.011426e+02  -7.083799e+01
   8.961336e+01  -2.595833e+01
  -1.929293e+01   6.850152e+00
  -5.393542e+01   2.081758e+01
  -7.131593e+00  -9.332662e-01
   9.893466e+01   3.414504e+01
   1.140735e+02   1.541103e+02
   4.072574e+01   1.880634e+02
  -1.558951e+02   1.747589e+02
  -2.676784e+02   2.953734e+01
  -2.286200e+02  -1.375388e+02
  -9.999785e+01  -2.591158e+02
   1.062415e+02  -2.175430e+02
   1.630543e+02  -2.856319e+01
   8.782696e+01   7.364273e+01
   9.001659e+00   5.179436e+01
   9.943424e+01  -2.910185e+00
   1.055899e+02   2.281893e+01
   1.504063e+01   4.475861e+01
  -8.157006e+01   9.570097e+01
  -1.301111e+02   3.836227e+01
  -1.131738e+02  -4.418761e+01
   3.526521e+01  -1.572944e+02
   1.688073e+02  -6.995758e+01
   1.908383e+02   2.509085e+01
   8.514523e+01   2.220776e+02
  -1.313732e+02   2.188704e+02
  -3.103816e+02   8.615195e+01
  -3.166692e+02  -8.844168e+01
  -1.452577e+02  -1.736505e+02
   6.293031e+01  -1.517778e+02
   9.657760e+01  -8.628236e+01
   8.078228e+01  -8.641315e+01
   7.393282e+01  -8.299697e+01
   8.585669e+01  -6.600459e+01
   1.442516e+02   2.695011e+01
   1.321370e+02   1.329955e+02
   8.809262e+01   1.951435e+02
  -8.611340e+01   2.128591e+02
  -1.519793e+02   7.436660e+01
  -1.543018e+02  -1.096016e+02
   1.003438e+00  -1.684227e+02
   1.080316e+02  -8.269693e+01
   4.856542e+01  -1.664192e+00
  -2.266065e+01   4.831864e+01
  -3.611095e+01   9.361694e+01
   9.215735e+00   1.239660e+01
   1.152645e+02   2.189363e+01
   2.404774e+01   2.606283e+01
  -1.175195e+02   3.583423e+01
  -2.070874e+02  -2.641857e+01
  -1.814604e+02  -9.647857e+01
  -1.273528e+01  -1.676233e+02
   1.496887e+02  -1.143027e+02
   1.581365e+02  -7.280882e+01
   1.109282e+02   3.789548e+01
  -3.719120e+01   4.345362e+01
  -4.445153e+01  -3.744080e+01
   2.867908e+01  -9.865118e+01
   4.507193e+01  -7.604303e+01
   9.095815e+01  -1.967003e+01
   7.640466e+01   4.812254e+01
   6.736770e+01   3.994304e+01
   7.248424e+01   1.582278e+01
   5.603556e+01  -1.209515e+01
   1.943481e+01   5.543531e+01
  -1.032270e+01   1.362121e+02
  -1.368095e+02   1.630308e+02
  -1.815398e+02   2.922665e+01
  -1.281696e+02  -1.049231e+02
   3.630741e+00  -1.246131e+02
   3.553209e+01  -6.461461e+01
   5.027146e+01   3.744533e+01
  -1.188566e+02  -1.080128e+01
  -1.420272e+02  -2.798765e+01
  -8.905672e+01  -1.068793e+02
   7.864940e+01  -1.238685e+02
   1.977881e+02  -5.641994e+01
   1.557130e+02  -3.882025e-01
   1.004683e+01   9.642978e+01
  -2.049397e+01   1.212015e+02
  -1.196398e+01   1.702631e+01
   3.067824e+01  -1.886922e+01
   6.961666e+01   2.003679e+01
   2.199971e+01   7.477397e+01
  -5.081678e+01   1.611681e+02
  -1.823356e+02   6.146241e+01
  -1.074093e+02  -8.283044e+01
  -2.510701e+01  -1.830212e+02
   9.357346e+01  -1.652474e+02
   1.182469e+02   3.267941e+01
   7.377570e+01   9.404131e+01
  -1.118964e+01   8.523056e+01
  -4.070932e+01   1.423733e+01
  -5.164888e+01  -3.313798e+01
  -2.695742e+01  -1.104569e+01
  -9.382731e+00   4.137794e+01
  -5.809805e+01   1.736487e+00
  -7.296210e+01  -9.111226e+01
  -1.854598e+01  -1.041725e+02
   7.897036e+01  -7.852105e+01
   1.226323e+02  -7.377500e+00
   1.390343e+02   6.831387e-02
   3.226908e+01   5.858958e+01
  -6.207890e+01   5.146364e+01
  -1.146114e+02   3.215096e+01
  -9.682426e+00  -6.350881e+00
   2.942348e+01  -5.059990e+01
  -7.055174e+00  -5.948731e+00
   6.023331e+00   1.076217e+01
   2.716046e-01   2.942488e+01
   7.058964e+01   2.430021e+01
   7.599263e+01   1.434762e+01
   3.368267e-01   8.512541e+01
  -8.774053e+01   1.340902e+02
  -1.911238e+02   6.964064e+01
  -2.220365e+02  -8.036013e+01
  -2.129442e+01  -1.960188e+02
   9.457024e+01  -1.640441e+02
   1.271401e+02  -7.626690e+01
   7.794960e+01  -7.771321e+00
   3.007682e+01   5.663833e+01
   9.982279e+00  -2.956334e+01
   5.578925e+01   1.952920e+01
   7.354538e+01   6.990075e+01
   2.518722e+01   9.019530e+01
  -7.708046e+01   9.553927e+01
  -7.065929e+01  -2.586026e+01
  -6.710852e+01  -1.142715e+02
   2.918864e+01  -1.242078e+02
   6.990852e+01  -4.903331e+01
   1.359279e+02   5.554321e+01
   5.186149e+01   8.079835e+01
  -7.051112e+01   8.040534e+01
  -1.544885e+02  -1.792432e+01
  -1.965340e+01  -6.189466e+01
   4.464222e+01  -7.119509e+01
   3.980684e+01   2.246118e+01
  -1.663092e+01   1.757157e+01
  -7.362650e+01   4.274878e+01
  -3.488845e+01  -2.412415e+01
   6.509790e+01  -8.657204e+01
   1.218804e+02  -6.008195e+01
   2.751205e+01   7.876370e+01
  -3.778073e+01   8.085493e+01
  -8.022159e+01   6.151046e+01
  -7.660823e+01   2.444668e+01
  -2.882830e+01  -9.247763e+01
   4.308110e+01  -6.672687e+01
   7.296068e+01   5.592357e+00
   6.416865e+01   7.024084e+01
   1.230807e+00   4.302709e+01
  -7.701696e+01   8.313050e+00
  -5.214898e+01  -1.605630e+01
  -5.433693e+01  -7.712523e+01
   2.883847e+00   1.416498e+01
   4.394230e+00   1.197278e+01
   9.581673e+00  -5.418061e+01
   1.573316e+01  -4.101763e+01
   4.993203e+01  -3.051097e+01
   3.792698e+01   2.209713e+01
  -2.939675e+01   3.908823e+01
  -4.826668e+01   4.246564e+01
  -3.308564e+01  -6.409913e+01
   1.774712e+01  -6.868618e+01
   1.167379e+02  -4.851799e+01
   8.991052e+01  -9.510432e+00
   5.954442e+01   4.766629e+01
  -2.949730e+01   5.902335e+01
  -5.402119e+01   4.063346e+01
  -1.636584e+01   6.205072e+01
  -1.551815e+00   2.744263e+01
   1.277781e+00   1.227593e+01
  -4.910439e+01   1.874626e+01
  -6.542334e+01  -3.884641e+01
