
 $NMID
 id='ANONYMOUS ', fmtdat='(2E16.6)'
 volume=1.0
 tramp=1.0
 $END
  -3.544337e+03  -1.011768e+02
  -2.322315e+03  -1.906669e+03
   2.514532e+02  -2.393671e+03
   1.457745e+03  -1.133516e+03
   7.431041e+02   6.417838e+01
  -3.316212e+02   1.981736e+02
  -4.461620e+02  -3.727202e+02
   8.564845e+01  -7.278087e+02
   5.970445e+02  -6.187153e+02
   7.690938e+02  -1.474950e+01
   4.480815e+02   6.711021e+02
  -6.665334e+01   7.015327e+02
  -4.560379e+02   5.880859e+01
  -3.056986e+02  -5.296701e+02
   2.315175e+02  -6.138589e+02
   5.121136e+02  -1.887449e+01
   2.828970e+02   5.675099e+02
  -1.204105e+02   6.163192e+02
  -5.696706e+02   1.982167e+02
  -4.147633e+02  -2.982115e+02
  -1.082771e+02  -4.232760e+02
   1.320857e+02  -2.263558e+02
   2.099498e+02  -2.849032e+01
  -9.695516e+01  -6.609174e+01
  -3.756675e+02  -1.628012e+02
  -8.344482e+01  -3.936164e+02
   4.487280e+02  -1.766384e+02
   6.478077e+02   1.541698e+02
   2.705989e+02   4.476940e+02
  -3.969873e+02   2.688427e+02
  -6.166270e+02  -1.464740e+02
  -2.269646e+02  -4.378267e+02
   2.685737e+02  -4.208289e+02
   4.756034e+02  -1.316498e+02
   3.628113e+02   1.861797e+02
   3.986229e+01   3.548882e+02
  -1.517248e+02   1.949842e+02
  -2.344865e+01  -1.281290e+02
   1.991825e+02  -2.641150e+02
   2.794827e+02   1.188353e+02
   4.497905e+01   6.065974e+02
  -3.344987e+02   5.219198e+02
  -4.564734e+02  -4.116626e+00
  -1.368720e+02  -4.607921e+02
   2.223438e+02  -1.938742e+02
   2.213845e+02   3.327256e+02
  -1.212694e+02   4.801457e+02
  -4.716155e+02   7.563198e+01
  -5.115697e+02  -4.137883e+02
  -1.484720e+02  -5.301975e+02
   3.184888e+02  -2.805430e+02
   5.628679e+02   6.274958e+01
   3.836931e+02   2.907224e+02
  -6.644833e+01   2.875371e+02
  -3.657689e+02   1.231051e+02
  -2.199600e+02  -1.152845e+02
   4.032182e+01  -6.942913e+01
   6.073103e+01   6.160371e+01
  -1.749962e+02   1.343652e+02
  -2.725063e+02  -1.070284e+02
  -1.149956e+02  -2.405587e+02
   1.584695e+02  -2.334676e+02
   3.092598e+02  -8.355398e+01
   2.082932e+02   1.393545e+02
   1.663496e+01   3.005756e+02
  -2.457878e+02   3.885176e+02
  -3.894152e+02   1.753672e+02
  -2.588298e+02  -1.426592e+02
  -5.018000e+01  -3.600622e+02
   1.017927e+02  -3.155659e+02
   4.072170e+01  -1.727571e+02
   2.536334e+01  -1.272569e+02
   1.119228e+02  -1.236105e+02
   2.782561e+02  -5.594962e+01
   2.870275e+02   1.118744e+02
   7.541972e+01   2.893021e+02
  -1.343682e+02   1.875979e+02
  -2.299404e+02  -2.746785e+01
  -1.830567e+02  -2.687938e+02
   5.500665e+01  -2.671742e+02
   2.736947e+02  -7.475813e+01
   2.861554e+02   2.004213e+02
   1.738216e+02   3.203468e+02
  -2.945194e+01   2.774276e+02
  -1.479182e+02   1.534264e+02
  -1.583854e+02   6.999968e+01
  -1.658000e+02   6.524959e+01
  -2.729222e+02   5.533199e+01
  -3.943322e+02  -6.032854e+01
  -3.331671e+02  -2.830612e+02
   4.977948e+00  -4.792024e+02
   3.784754e+02  -4.453831e+02
   4.872704e+02  -1.325842e+02
   3.235717e+02   1.218319e+02
  -2.046745e+00   2.731568e+02
  -1.280244e+02   1.856760e+02
  -1.260577e+01   1.579524e+01
   1.219421e+02  -2.085620e+01
   1.833568e+02   5.290361e+01
   4.439385e+01   1.487064e+02
  -1.829496e+02   9.701115e+01
  -1.766450e+02  -5.234830e+01
   2.121393e+00  -1.098838e+02
   1.743103e+02   7.803298e-01
   1.950595e+02   1.949321e+02
  -2.290679e+01   3.873176e+02
  -2.723215e+02   2.147386e+02
  -3.962976e+02  -4.338018e+01
  -3.280828e+02  -2.231843e+02
  -6.770163e+01  -2.700807e+02
   1.355289e+02  -1.293888e+02
   1.401567e+02   3.718295e+01
   4.703235e+01   6.434989e+01
  -2.900427e+01  -6.470601e+01
   6.954944e+00  -1.683569e+02
   1.196626e+02  -1.073588e+02
   1.770843e+02   4.260073e+01
   3.246096e+01   9.090894e+01
  -5.722304e+01  -3.663266e+01
  -5.524973e+01  -9.530553e+01
   1.247052e+02  -8.571687e+01
   2.414618e+02   3.464070e+01
   2.529866e+02   1.844583e+02
   2.768251e+01   2.763940e+02
  -2.056434e+02   2.963203e+02
  -3.006041e+02   1.194133e+02
  -2.092313e+02  -7.282457e+01
   4.858541e+01  -1.290503e+02
   1.295864e+02   2.035897e+01
  -1.076658e+01   1.097530e+02
  -2.020856e+02   6.764353e+01
  -2.301382e+02  -1.028031e+02
  -6.629529e+01  -1.633688e+02
   8.852295e+01  -1.685014e+02
   1.285167e+02  -4.954968e+01
   3.857567e+01   1.245963e+01
  -4.948438e+01  -3.416636e+01
  -3.375750e+01  -1.389569e+02
   1.159417e+02  -1.193142e+02
   1.993324e+02  -4.094036e+01
   1.653298e+02   1.569403e+02
   4.678893e+01   2.045816e+02
  -1.573073e+02   2.173997e+02
  -1.753044e+02   2.977922e+01
  -6.720466e+01  -1.211985e+02
   1.461905e+01  -1.461105e+02
   7.768676e+01  -4.445681e+01
   9.357931e+00   3.585492e+01
  -3.295434e+01   5.618343e+01
  -1.647014e+00  -1.336156e+01
   6.337541e+01   1.091277e+01
   1.078512e+02   8.608119e+01
   2.620765e+01   1.912441e+02
  -1.502925e+02   1.803583e+02
  -2.697951e+02  -1.721150e+01
  -1.874588e+02  -1.870214e+02
  -2.975992e+01  -2.242897e+02
   1.171832e+02  -1.967910e+02
   8.260446e+01  -4.087448e+01
   3.960282e+01   2.241420e+01
   3.358355e+01   8.853527e+00
   8.818671e+01  -1.460812e+01
   1.015833e+02  -4.028149e+01
   4.530326e+01   5.530941e+01
  -3.131690e+01   1.432179e+02
  -9.235790e+01   1.015014e+02
  -8.900094e+01  -3.167638e+01
   9.018387e+01  -1.331241e+02
   1.718618e+02  -5.982503e+01
   1.886207e+02   1.034034e+02
   5.749668e+01   2.137119e+02
  -1.193088e+02   1.956599e+02
  -2.731567e+02   8.277394e+01
  -2.630621e+02  -9.605906e+01
  -1.129500e+02  -1.597726e+02
   5.869854e+01  -1.394168e+02
   1.111310e+02  -7.588453e+01
   8.531113e+01  -8.123065e+01
   5.732032e+01  -7.153648e+01
   8.203756e+01  -8.653956e+01
   1.491985e+02   6.137991e+00
   1.077072e+02   1.721470e+02
   3.162379e+01   2.582654e+02
  -4.881941e+01   1.479077e+02
  -1.481211e+02  -3.207004e+01
  -1.063751e+02  -1.363309e+02
   1.667388e+01  -1.788480e+02
   1.003278e+02  -9.639733e+01
   9.380724e+01   7.744086e+00
   1.919607e+01   9.402062e+01
  -1.947780e+01   6.262061e+01
   4.278706e+01   4.672531e+01
   5.604193e+01   2.043454e+01
   3.965169e+01   4.331300e+01
  -7.977176e+01   4.216377e+01
  -1.923347e+02   7.153912e+01
  -1.461731e+02  -7.571799e+01
   1.654849e+01  -9.846600e+01
   1.381130e+02  -9.435938e+01
   1.377228e+02  -3.269153e+01
   3.343588e+01   7.064144e+00
  -4.888349e+01   3.680543e+01
  -7.782445e+01  -8.444945e+01
  -4.402176e-01  -8.100912e+01
   7.989312e+01  -6.027266e+01
   5.981075e+01   4.137487e+01
   7.681211e+01   3.594809e+01
   2.213195e+01   6.544201e+01
   3.224749e+01  -1.013625e+01
   5.415334e+01   1.391952e+01
   3.171191e+01   5.758953e+01
  -3.117298e+01   1.742829e+02
  -1.073794e+02   1.571794e+02
  -1.346367e+02   2.798785e+01
  -1.126543e+02  -7.898145e+01
   4.229966e+01  -1.486388e+02
   1.076185e+02  -9.160510e+01
   4.884294e+01   3.592704e+00
  -3.802222e+01   1.375194e+01
  -1.299721e+02  -4.886143e+01
  -7.630670e+01  -1.228152e+02
   8.664167e+01  -1.156536e+02
   2.068944e+02  -4.242537e+01
   1.719629e+02   2.140990e+01
   8.103714e+00   8.733377e+01
  -5.900308e+01   5.160982e+01
  -4.429022e+01  -1.620378e+01
   3.076809e+01   3.580183e+00
   5.766780e+01   2.330833e+01
   4.590072e+01   1.417424e+02
  -9.450541e+01   1.331205e+02
  -1.800125e+02   3.905070e+01
  -1.354191e+02  -9.744428e+01
  -2.907843e+01  -1.713887e+02
   7.338743e+01  -1.449217e+02
   1.335295e+02   4.504445e+01
   6.699424e+01   1.248595e+02
  -4.814244e+01   1.022493e+02
  -7.653243e+01  -3.756376e+00
  -4.932686e+01  -3.788337e+01
  -6.579655e+01  -7.387666e+01
  -8.168014e+00   7.319894e+00
  -2.909729e+01  -2.610921e+01
  -7.563141e+01  -8.269084e+01
  -2.777759e+01  -9.548740e+01
   5.863532e+01  -2.207685e+01
   1.248949e+02   3.932145e+01
   1.318608e+02   8.851529e+01
   4.211924e+01   3.871316e+01
  -1.166953e+02   4.501113e+01
  -1.266611e+02   6.010554e+00
  -1.967280e+00  -2.900311e-01
   4.395610e+01  -6.824302e+01
   1.304105e+01  -2.797570e+01
  -4.497430e+01  -2.658594e+01
  -3.411206e-01  -4.680726e+00
   6.873982e+01   3.065479e+01
   7.431370e+01   9.839299e+00
   1.460587e+01   1.051311e+02
  -1.232763e+02   1.296408e+02
  -2.029388e+02   8.531708e+01
  -1.362562e+02  -7.106714e+01
  -5.346100e+01  -1.450483e+02
   7.479605e+01  -1.682143e+02
   1.311905e+02  -6.364065e+01
   7.557694e+01  -1.855844e+01
   1.775370e+01   1.476578e+01
   1.735177e-01  -4.376025e+00
   1.193302e+01  -3.786068e+01
   7.429406e+01   2.478509e+01
   4.023674e+01   1.021425e+02
  -3.501442e+01   9.592064e+01
  -1.006212e+02  -1.528994e+01
  -6.815659e+01  -1.144543e+02
  -4.520205e+01  -1.291412e+02
   6.085320e+01  -2.406985e+01
   1.218652e+02   2.426854e+01
   5.470744e+01   9.372273e+01
  -4.123931e+01   2.882907e+01
  -9.103011e+01   4.274980e+00
  -4.208930e+01  -8.316593e+01
   8.685421e+00  -6.605606e+01
   3.574379e+01  -2.346376e+01
  -3.484808e+01   1.552481e+01
  -9.755644e+01   2.927105e+01
  -6.566100e+00  -3.094041e+01
   7.913520e+01  -6.928091e+01
   1.207534e+02  -4.029426e+01
   9.437407e+01   1.451338e+00
  -5.506240e+01   9.616931e+01
  -5.098246e+01   9.447024e+01
  -2.716837e+01   3.119115e+01
   3.728098e+00  -6.831433e+01
   2.797764e+01  -6.951232e+01
   1.905034e+01   5.425996e+01
   2.568578e+01   7.110424e+01
  -2.026566e+00   4.607495e+01
  -8.668041e+00   4.582365e+00
  -3.869548e+00  -4.053794e+01
   3.972691e+01   2.990098e+01
   3.694456e+01   4.956889e+01
  -2.622138e+00   3.623372e+01
   1.410144e+01  -5.270694e+01
  -1.389220e+01  -2.893239e+01
   3.996092e+01  -3.917524e+01
   6.908622e+01  -1.904081e+01
   2.651916e+01   4.542129e+01
  -6.774230e+01   2.256475e+01
  -2.662996e+01  -9.594284e+01
  -4.015486e+01  -6.661874e+01
   7.301148e+01  -2.157404e+01
   1.077256e+02   1.300392e+01
   3.564499e+01   4.470881e+01
  -2.718129e+01   9.550303e+01
  -4.999402e+01   5.992816e+01
  -6.400714e+01   3.391645e+01
   8.567254e+00   8.866584e+00
   3.724833e+01  -1.263323e+01
  -3.269493e+01   1.579770e+01
  -8.883448e+01  -7.167477e-01
