
 $NMID
 id='ANONYMOUS ', fmtdat='(2E16.6)'
 volume=1.0
 tramp=1.0
 $END
   3.177718e+03   1.284302e+02
   2.001816e+03   1.586522e+03
  -1.156001e+02   2.000786e+03
  -1.256471e+03   1.110263e+03
  -9.276712e+02   1.667089e+02
  -9.865896e+01  -1.385094e+02
   3.123795e+02   2.316224e+01
   1.937232e+02   5.386143e+02
  -4.764581e+02   6.156051e+02
  -6.087420e+02   1.226652e+02
  -4.094216e+02  -4.918231e+02
   6.481029e+01  -6.682373e+02
   3.394983e+02  -1.759165e+02
   2.742225e+02   4.825403e+02
  -1.273018e+02   5.286450e+02
  -4.380455e+02   8.432268e+00
  -3.173066e+02  -5.394569e+02
   1.018489e+02  -6.197021e+02
   4.153195e+02  -3.169184e+02
   5.427824e+02   1.225385e+02
   2.110090e+02   3.713167e+02
  -1.941031e+02   2.506398e+02
  -3.055573e+01   1.910005e+02
   1.523586e+02   5.152708e+01
   2.367169e+02   2.215305e+02
   4.065876e+01   3.739504e+02
  -4.294208e+02   1.681652e+02
  -6.300564e+02  -9.099860e+01
  -1.782872e+02  -3.292893e+02
   3.018464e+02  -1.760670e+02
   4.569314e+02   1.237997e+02
   2.300135e+02   3.461772e+02
  -2.226770e+02   3.577565e+02
  -4.554194e+02   1.207021e+02
  -3.136630e+02  -1.516958e+02
  -1.314202e+02  -3.430424e+02
  -1.970402e+01  -2.492353e+02
  -1.466847e+01   5.055710e+01
  -1.036458e+02   1.024468e+02
  -2.043570e+02  -1.200769e+02
  -2.214090e+01  -4.311615e+02
   2.291863e+02  -4.534911e+02
   2.797985e+02  -2.499942e+01
   1.283491e+02   2.565247e+02
  -9.691578e+01   9.315215e+01
  -1.985478e+02  -2.454462e+02
   1.127604e+02  -3.960608e+02
   4.587517e+02  -5.004600e+01
   4.898770e+02   3.164401e+02
   1.786820e+02   4.990877e+02
  -2.541514e+02   2.488717e+02
  -4.970234e+02  -3.462407e+01
  -3.177440e+02  -2.266035e+02
   4.632834e+01  -2.335758e+02
   2.736407e+02  -1.179511e+02
   1.531672e+02   1.945813e+01
   8.599495e+00   2.239140e+01
  -3.711953e+01  -8.833053e+01
   1.148463e+02  -1.019648e+02
   2.436517e+02   9.753794e+00
   1.147093e+02   1.413449e+02
  -1.673660e+02   2.496020e+02
  -3.315380e+02   1.078880e+02
  -2.411677e+02  -1.215849e+02
   5.846392e+01  -3.569943e+02
   3.146129e+02  -4.263467e+02
   3.871604e+02  -1.743084e+02
   2.336548e+02   1.802503e+02
   8.909500e+01   3.965425e+02
  -3.755960e+01   3.383750e+02
  -3.936206e+01   1.793702e+02
  -3.270869e+01   1.298445e+02
  -1.167846e+02   1.043316e+02
  -2.257869e+02   5.635446e+01
  -2.574932e+02  -1.185512e+02
  -8.810212e+01  -2.758379e+02
   7.479525e+01  -2.289435e+02
   1.883554e+02   4.185575e+01
   1.493547e+02   2.569700e+02
  -5.524180e+01   2.860685e+02
  -2.806436e+02   9.120419e+01
  -3.261653e+02  -1.767697e+02
  -1.751016e+02  -2.599800e+02
   4.372219e+01  -2.710112e+02
   1.809543e+02  -1.454998e+02
   1.520456e+02  -5.044721e+01
   1.811576e+02  -3.432122e+01
   3.035393e+02  -2.730760e+01
   4.086325e+02   1.001651e+02
   2.843966e+02   3.384547e+02
  -1.594529e+01   4.553192e+02
  -3.348700e+02   4.194630e+02
  -4.786745e+02   1.560694e+02
  -2.579257e+02  -8.428869e+01
  -3.770489e+01  -2.104637e+02
   8.418690e+01  -1.815854e+02
  -1.126468e+01  -3.517995e+00
  -1.357263e+02   8.703441e+01
  -1.085285e+02  -4.236534e+01
  -1.948271e+01  -1.250331e+02
   1.248201e+02  -1.377658e+02
   7.846601e+01   4.232612e+01
  -3.645374e+01   1.185396e+02
  -1.554363e+02  -4.673548e+01
  -1.246338e+02  -2.513505e+02
   6.480154e+01  -3.498089e+02
   2.629687e+02  -2.222896e+02
   3.615492e+02   6.946505e+01
   2.548889e+02   3.185694e+02
   5.167749e+01   2.813840e+02
  -1.194975e+02   1.095418e+02
  -1.243213e+02   3.094872e+01
  -2.058912e+01  -8.678623e+00
   5.740668e+01   4.405115e+01
  -1.625962e+01   6.143943e+01
  -1.160221e+02   6.346490e+01
  -1.610131e+02  -8.147512e+00
  -2.028436e+01  -4.732797e+01
   9.035505e+01   1.047472e+01
   1.819414e+01   8.386368e+01
  -1.670815e+02   8.171892e+01
  -2.592868e+02  -1.780593e+01
  -2.840828e+02  -2.005137e+02
  -3.317217e+01  -2.779713e+02
   2.341358e+02  -2.282486e+02
   2.639112e+02  -6.238986e+01
   1.353089e+02   3.509901e+01
   3.044524e+00   7.563574e+01
  -3.321783e+01  -1.939014e+01
   7.351652e+01  -8.504893e+01
   1.592824e+02   3.353508e+01
   1.468176e+02   1.344685e+02
   4.134408e+01   2.174595e+02
  -5.537755e+01   1.542949e+02
  -1.028198e+02   2.192232e+01
  -5.444664e+01  -4.291575e+01
   3.721339e+01   4.144604e+01
  -2.618573e+01   1.187244e+02
  -1.402643e+02   1.770938e+02
  -2.107886e+02   2.246896e+01
  -1.252730e+02  -1.731074e+02
  -1.693122e+00  -2.198688e+02
   1.563967e+02  -1.746404e+02
   1.824332e+02  -1.058936e+01
   4.992388e+01   9.576420e+01
  -5.025527e+01   1.322661e+02
  -6.834118e+01   6.565998e+01
   1.492446e+01  -1.005483e+01
   3.620859e+01  -3.635559e+01
  -9.607615e+00   1.003356e+01
  -9.812481e+01  -5.776326e+00
  -1.281496e+02  -9.130931e+01
  -3.479307e+01  -2.097788e+02
   1.589259e+02  -1.867482e+02
   2.726971e+02  -1.581922e+00
   2.176580e+02   1.806906e+02
   3.397886e+01   2.246526e+02
  -1.052697e+02   1.932167e+02
  -1.454627e+02   2.540612e+01
  -6.973988e+01  -6.851686e+01
  -6.439832e+01  -1.341347e+01
  -7.910196e+01   5.053384e+01
  -8.606855e+01   1.252095e+01
  -7.437820e+01  -9.146595e+01
   5.639123e+01  -1.328668e+02
   1.296434e+02  -8.975234e+01
   1.023346e+02   6.591270e+01
  -3.712097e+01   1.393677e+02
  -1.735324e+02   9.335672e+01
  -2.732055e+02  -7.113363e+01
  -8.688443e+01  -2.320140e+02
   1.361809e+02  -2.457611e+02
   2.873329e+02  -6.630112e+01
   2.649198e+02   1.478198e+02
   1.431026e+02   2.284658e+02
  -4.165853e+01   1.795752e+02
  -1.080706e+02   7.789896e+01
  -4.563335e+01   7.888138e+01
  -2.930348e+01   8.192963e+01
  -9.375318e+01   1.078058e+02
  -1.172043e+02   1.409696e+01
  -1.250539e+02  -1.745943e+02
  -4.718739e+01  -2.351883e+02
   1.120722e+02  -1.803022e+02
   1.772484e+02  -8.248391e-01
   1.245443e+02   1.704237e+02
   1.953309e+00   1.594209e+02
  -1.050384e+02   6.261734e+01
  -2.735798e+01   6.519520e+00
   7.895678e+00  -5.438677e+01
   1.412376e+01  -6.097227e+01
  -5.746961e+01  -4.023293e+01
  -8.368945e+01   3.735428e+00
  -7.636420e+01  -7.220324e+01
   5.748998e+01  -8.033366e+01
   2.254390e+02  -3.504013e+01
   1.586438e+02   5.763576e+01
   3.263366e+00   8.235597e+01
  -1.176711e+02   6.204305e+01
  -1.467189e+02   2.676834e+01
  -5.284936e+01  -6.405186e+01
   4.516665e+01  -4.064046e+01
   8.150666e+01   1.779456e+01
  -2.282855e+01   1.066579e+02
  -7.847235e+01   5.755001e+01
  -8.289438e+01  -6.948331e-01
  -6.952834e+01  -7.297213e+01
  -7.907585e+01  -4.378967e+01
  -5.800545e+01   1.941778e+01
  -8.503998e+01   3.154042e+00
  -3.755731e+01  -6.797291e+01
   4.184895e+01  -1.665923e+02
   1.384614e+02  -1.162293e+02
   1.713960e+02   9.539637e+00
   1.120119e+02   1.023553e+02
   1.542292e+01   1.131053e+02
  -1.361030e+02   6.840681e+01
  -9.536435e+01   4.313714e-01
   2.731279e+01  -3.156615e+01
   1.238827e+02   4.013786e+01
   5.632981e+01   8.193366e+01
  -7.339168e+01   7.617046e+01
  -1.804580e+02   5.538533e+01
  -1.515179e+02  -2.012743e+01
  -6.590068e+01  -7.186986e+01
   4.109485e+01  -3.071849e+00
   6.190404e+01   2.388772e+01
   5.010926e+00   5.863363e+01
  -7.015237e+01  -6.535438e+01
  -1.283679e+01  -1.205212e+02
   9.792477e+01  -1.603562e+02
   1.305979e+02  -9.194756e+01
   1.071236e+02   1.189698e+02
   2.671984e+01   1.867610e+02
  -7.753769e+01   1.243293e+02
  -1.015830e+02  -7.574517e+01
  -1.909734e+01  -1.203602e+02
  -2.428110e-02  -9.959903e+01
   6.823202e+01   2.373488e+00
   4.769401e+01   6.238071e+01
   2.062130e+01   2.341966e+01
   4.696451e+00   2.516963e+00
   3.467342e+01  -8.759540e+00
   4.125925e+01   3.104116e+01
   1.647712e+01   1.050084e+02
  -5.339518e+01   3.615849e+01
  -1.159885e+02  -4.090114e+01
  -1.618802e+02  -7.289671e+01
  -1.690123e+01  -4.862834e+01
   6.655900e+01  -9.210793e+01
   1.304547e+02  -3.791164e+01
   3.345547e+01   2.444299e+01
  -6.730036e+00   2.836116e+01
   9.317507e-01   1.604278e+01
   1.838246e+01  -3.926274e+01
  -7.865358e+00   1.235576e+01
  -8.455408e+01   6.548484e+00
  -1.017750e+02  -2.691563e+01
  -3.377689e+01  -3.796874e+01
   8.078180e+01  -1.185419e+02
   1.824299e+02  -6.319535e+01
   1.584196e+02   7.065011e+01
   9.735000e+00   1.593742e+02
  -7.706517e+01   1.661551e+02
  -1.030660e+02   5.436569e+01
  -8.529740e+01  -2.886908e+01
  -1.434422e+01  -6.140788e+01
   8.667994e+00  -5.262455e+01
   1.342241e+01  -2.282840e+01
  -1.685878e+01  -6.028076e+01
  -9.029869e+00  -8.125894e+01
   6.287050e+01  -8.580926e+01
   8.720052e+01   5.770984e+01
   6.000432e+01   1.358134e+02
   2.914917e+01   1.122377e+02
  -1.070927e+02   3.924611e+01
  -1.203012e+02  -8.106712e+01
  -1.711508e+01  -6.945171e+01
   3.618844e+01  -6.022467e+01
   1.384406e+02  -2.540678e+01
   5.077127e+01   3.265983e+01
  -3.639889e+01   6.464506e+01
  -9.431127e+00   6.822550e+00
   6.164106e+01  -5.458644e+00
   7.164546e+01  -2.023280e+01
   2.624156e+01   5.692492e+01
  -6.641413e+01   1.356591e+02
  -1.348501e+02   5.395122e+01
  -9.982060e+01  -1.404766e+01
   2.144444e+01  -9.732886e+01
   6.717548e+01  -8.280876e+01
   9.232370e+01  -1.605804e+01
   1.055420e+01   7.933934e+01
  -3.572674e+01   6.243709e+01
  -2.016243e+01   1.336787e+01
  -3.942399e+01  -2.391265e+01
  -9.971918e+00  -3.259523e+01
   2.627028e+01   2.416762e+01
   5.831437e+01   1.076433e+01
   4.945484e+01   2.844811e+00
  -1.583894e+01  -8.078162e+00
   1.405810e+01  -5.061246e+00
   2.407501e+00   3.497637e+01
  -2.150204e+01   4.841578e+01
   6.634788e+00   2.510929e+01
  -3.290722e+01  -2.996127e+01
   3.020492e+00  -5.718899e+01
   1.202548e+01  -1.421875e+01
   6.301023e+01   4.057831e+01
  -1.873939e+01   8.076098e+01
  -7.375367e+01   5.689671e+01
  -1.248758e+02   2.429035e+01
  -5.575292e+01  -5.127948e+01
   4.034856e+01  -6.460139e+01
   9.062235e+01  -7.767829e+01
   3.834546e+01  -6.663243e+01
  -1.347430e+01   2.677091e+01
  -5.079863e+01   6.359090e-01
   1.849430e+01  -3.870583e+01
   6.092052e+01  -5.753328e+00
