
 $NMID
 id='ANONYMOUS ', fmtdat='(2E16.6)'
 volume=1.0
 tramp=1.0
 $END
   4.571717e+03  -3.164425e+01
   2.935204e+03   2.908214e+03
  -5.781424e+02   3.248278e+03
  -2.479548e+03   1.075016e+03
  -1.132998e+03  -8.265476e+02
   5.953340e+02  -7.708794e+02
   1.112603e+03   4.398595e+02
   9.879614e+01   1.299115e+03
  -8.606765e+02   8.905454e+02
  -1.070823e+03  -2.375072e+01
  -5.215315e+02  -9.823325e+02
   3.138025e+02  -1.064768e+03
   7.290525e+02  -2.272555e+02
   5.300066e+02   7.931405e+02
  -3.116398e+02   8.758692e+02
  -6.898164e+02   4.331633e+01
  -3.312247e+02  -7.514077e+02
   3.780762e+02  -7.457178e+02
   6.853109e+02  -1.212850e+02
   3.718166e+02   3.485703e+02
   3.510075e+00   4.464342e+02
  -3.017054e+02   2.589917e+02
  -2.387072e+02  -6.017563e+01
   1.776397e+02  -1.103189e+02
   4.581814e+02   1.187728e+02
   1.992009e+02   4.586973e+02
  -4.908661e+02   4.041115e+02
  -8.172081e+02  -2.033856e+01
  -5.050919e+02  -5.870675e+02
   3.678542e+02  -5.205425e+02
   8.457425e+02   1.563231e+01
   3.871156e+02   5.489985e+02
  -2.933469e+02   5.516790e+02
  -5.461498e+02   2.635775e+02
  -4.448577e+02  -1.993588e+02
  -1.361009e+02  -4.772474e+02
   2.526558e+02  -3.210503e+02
   2.123455e+02   2.121946e+02
  -2.051593e+02   4.874047e+02
  -5.434664e+02   6.222466e+01
  -3.465254e+02  -7.135518e+02
   3.307820e+02  -8.008799e+02
   7.235672e+02  -7.165677e+01
   3.824319e+02   5.838628e+02
  -3.595571e+02   4.100517e+02
  -3.977826e+02  -2.809774e+02
   6.348801e+01  -5.685108e+02
   6.460765e+02  -1.110111e+02
   6.231291e+02   4.340245e+02
   1.795088e+02   6.575078e+02
  -4.247963e+02   3.911274e+02
  -6.764829e+02  -6.661499e+01
  -4.760975e+02  -4.170856e+02
   1.265010e+02  -4.170320e+02
   4.671642e+02  -1.183527e+02
   2.698136e+02   2.158658e+02
  -1.153540e+02   1.566220e+02
  -1.287717e+02  -1.527830e+02
   2.133193e+02  -1.685776e+02
   3.905722e+02   7.791022e+01
   1.600536e+02   3.268871e+02
  -2.522140e+02   2.641794e+02
  -3.205049e+02   5.484994e+01
  -1.709591e+02  -1.023799e+02
   6.815289e+01  -2.004681e+02
   2.532304e+02  -3.492571e+02
   3.440224e+02  -2.102982e+02
   3.273301e+02   1.202868e+02
   1.304511e+02   4.287134e+02
  -1.259908e+02   3.851835e+02
  -1.140639e+02   1.099370e+02
  -1.975336e+01  -2.353972e+01
  -7.900890e+01   6.825143e+01
  -2.101749e+02   9.361063e+01
  -3.070366e+02  -5.232853e+01
  -1.553222e+02  -2.812519e+02
   6.357979e+01  -2.139119e+02
   2.089609e+02  -2.457712e+01
   1.813694e+02   2.392280e+02
  -4.885212e+00   2.832940e+02
  -2.731141e+02   1.665637e+02
  -4.065750e+02  -1.712598e+02
  -1.982478e+02  -3.818160e+02
   9.030169e+01  -3.744432e+02
   2.739579e+02  -1.489620e+02
   1.611062e+02   3.042521e+01
   9.037611e+01   1.866544e+01
   2.467374e+02  -5.929094e+01
   3.631979e+02   5.652098e+01
   3.123813e+02   2.649863e+02
  -1.222552e+01   4.318229e+02
  -3.796540e+02   4.201798e+02
  -5.116197e+02   2.065046e+02
  -3.714042e+02  -1.367930e+02
  -1.278893e+02  -3.485605e+02
   1.332598e+02  -3.224618e+02
   9.662251e+01  -5.816344e+01
  -1.080039e+02   1.167697e+02
  -2.562841e+02   1.019225e+01
  -6.974347e+01  -1.838741e+02
   1.613816e+02  -1.646500e+02
   2.251489e+02   7.604078e+01
   2.759263e+00   1.809801e+02
  -2.050384e+02  -6.332603e-01
  -1.608101e+02  -2.368466e+02
   4.672863e+01  -3.183259e+02
   2.419411e+02  -1.772012e+02
   3.019602e+02   7.036973e+01
   3.075030e+02   2.286192e+02
   1.227963e+02   3.009678e+02
  -1.062207e+02   1.481350e+02
  -1.640771e+02   1.696421e+01
  -6.171629e+01  -3.363140e+01
   8.200926e+01   3.004021e+01
   4.268694e+01   1.490618e+02
  -1.074260e+02   1.061535e+02
  -1.761818e+02  -4.830142e+00
  -8.146653e+01  -7.805641e+01
   9.313250e+01  -2.119812e+01
   5.017397e+01   9.126830e+01
  -1.203783e+02   8.587196e+01
  -3.100915e+02   8.134394e-01
  -2.717028e+02  -1.504379e+02
  -6.556518e+01  -3.022647e+02
   2.238125e+02  -3.054951e+02
   3.125600e+02  -1.331518e+02
   1.922516e+02   6.551737e+01
  -5.484248e+01   9.979327e+01
  -1.165515e+02  -1.790323e+01
   6.908476e+00  -1.254477e+02
   2.646245e+02  -4.621158e+01
   2.670014e+02   1.112095e+02
   9.102824e+01   2.347379e+02
  -6.917466e+01   1.758833e+02
  -1.761162e+02   6.273247e+01
  -6.185823e+01  -6.443246e+01
   2.413872e+01  -3.446288e+01
   5.966228e+01   7.304607e+01
  -6.261992e+01   1.358880e+02
  -1.982586e+02   4.584016e+01
  -1.858436e+02  -1.524650e+02
  -3.711123e+01  -2.454081e+02
   1.695615e+02  -2.016821e+02
   2.221981e+02  -1.047824e+01
   5.770358e+01   1.263505e+02
  -6.590662e+01   1.531173e+02
  -1.192254e+02   2.899134e+01
  -3.255702e+01  -6.697518e+01
  -2.143070e+01  -5.473634e+01
  -1.547434e+01   1.432098e+00
  -7.974935e+01  -5.541915e+01
  -7.824114e+01  -8.765706e+01
  -2.413172e+01  -1.630507e+02
   1.642381e+02  -1.448055e+02
   2.451795e+02   7.558916e+00
   1.942671e+02   1.853767e+02
   2.908003e+01   2.362539e+02
  -9.417914e+01   2.210362e+02
  -1.708004e+02  -9.192585e-01
  -9.235735e+01  -5.211195e+01
  -7.678713e+01  -1.874188e+01
  -4.164078e+01  -1.110732e+01
  -2.052729e+01  -2.159828e+01
  -3.941468e+01  -6.543719e+01
   6.872623e+01  -1.375260e+02
   9.783437e+01  -1.476504e+01
   7.672079e+01   3.640906e+01
  -5.673455e+01   1.443935e+02
  -1.512572e+02   6.280755e+01
  -2.305074e+02  -8.100320e+01
  -1.130051e+02  -2.033331e+02
   9.993759e+01  -2.525196e+02
   2.636327e+02  -8.302341e+01
   2.451325e+02   9.225006e+01
   1.111914e+02   1.816115e+02
  -5.791231e+01   1.680103e+02
  -8.571928e+01   1.045694e+02
  -5.984183e+01   9.499517e+01
  -5.899604e+01   5.063033e+01
  -1.206525e+02   8.591192e+01
  -1.422356e+02  -8.254610e+01
  -1.180928e+02  -1.564515e+02
   1.759123e+01  -2.338243e+02
   1.064912e+02  -1.760082e+02
   1.621408e+02  -1.942437e+01
   1.641522e+02   9.835401e+01
   3.772737e+01   1.454451e+02
  -6.260367e+01   8.777806e+01
  -4.249712e+01  -1.920086e+01
  -7.013864e+00  -8.094664e+01
  -1.514270e+01  -7.722560e+00
  -7.433458e+01  -2.638166e+01
  -9.884477e+01   2.068898e+00
  -4.734015e+01  -5.667112e+01
   8.695980e+01  -6.518831e+01
   1.525445e+02  -1.712385e+01
   1.663216e+02   5.900772e+01
   3.428021e+01   7.675624e+01
  -1.238045e+02   9.998109e+01
  -1.156176e+02   3.067492e+01
  -4.129824e+01  -1.383879e+01
   7.473657e+01  -2.004837e+01
   9.295561e+01  -1.269811e+01
  -1.302751e+01   6.014127e+01
  -4.807384e+01   4.459988e+01
  -1.062449e+02  -2.587410e+01
  -6.226108e+01  -5.652788e+01
  -5.593934e+01  -2.098073e+01
  -3.982039e+01   1.758661e+01
  -4.607611e+01  -2.885635e+01
  -1.958451e+01  -7.534264e+01
   2.689080e+01  -1.365481e+02
   1.163518e+02  -1.066319e+02
   1.907498e+02  -1.748985e+01
   9.663300e+01   1.131410e+02
  -4.065830e+01   1.849554e+02
  -1.052924e+02   7.311102e+01
  -5.897047e+01  -1.792158e+01
   9.040679e+01  -2.917328e+01
   1.270698e+02  -8.300622e+00
   8.319978e+01   1.182491e+02
  -8.832875e+01   9.607593e+01
  -2.226884e+02   7.154227e+01
  -1.661838e+02  -6.440323e+01
  -2.263783e+01  -1.212186e+02
   9.538089e+01  -8.095255e+01
   6.178830e+01   2.345994e+01
  -5.974025e+01   3.620232e+01
  -8.487774e+01  -3.686635e+01
  -5.453257e+01  -1.598500e+02
   1.199023e+02  -1.537974e+02
   1.574681e+02  -5.130449e+01
   1.085642e+02   1.208977e+02
   3.651453e+01   2.216477e+02
  -9.443286e+01   1.574286e+02
  -1.167263e+02   2.954738e+01
  -9.921216e+01  -1.172655e+02
   5.765650e+00  -1.297855e+02
   4.100630e+01  -2.217510e+01
   2.986298e+01   2.008741e+01
   2.050902e+01  -4.860309e+00
   1.500295e+01  -4.676869e+01
   5.069428e+01   3.371256e+01
   5.481640e+01   9.061220e+01
   2.142580e+01   9.905671e+01
  -6.569953e+01   3.415040e+01
  -1.182887e+02  -4.395591e+01
  -7.548835e+01  -5.286371e+01
   1.698205e+01  -5.169217e+01
   7.620492e+01  -3.763387e+01
   5.822321e+01  -7.246289e+00
   1.547954e+01   1.864928e+01
  -1.392595e+01   4.664376e+00
  -2.749260e+01   4.877237e+01
   3.015556e+00  -2.338574e+00
  -3.918549e+01   1.347738e+01
  -1.030910e+02  -1.616912e+01
  -1.185154e+02  -5.116092e+01
  -1.529589e+01  -1.065223e+02
   9.576777e+01  -1.255081e+02
   1.884253e+02  -1.482969e+01
   1.610772e+02   6.139313e+01
  -1.480442e-01   1.769611e+02
  -8.455426e+01   1.592351e+02
  -8.732381e+01   6.331031e+01
  -9.762623e+01  -1.228159e+01
   2.554747e+01  -4.631775e+01
  -2.721048e+00  -2.638601e+00
   1.371565e+01   5.893323e+00
  -4.423338e+01  -3.928313e+01
  -5.044678e+01  -2.995067e+01
   5.638907e+01  -6.862349e+01
   1.161722e+02   1.114659e+00
   6.685871e+01   6.457056e+01
  -4.251880e+01   8.546155e+01
  -9.300013e+01   1.049678e+01
  -1.021483e+02  -7.337962e+01
  -2.555931e+01  -1.143427e+02
   3.392864e+01  -4.795245e+01
   1.041467e+02  -1.061144e+01
   1.085736e+01   6.209776e+01
  -5.414120e+01   6.395798e+01
  -4.771374e+01   1.877681e+01
   4.491862e+01  -1.903928e+01
   8.300596e+01   2.207486e+01
  -9.634991e+00   4.648016e+01
  -7.024391e+01   8.198910e+01
  -1.005526e+02   5.141190e+01
  -4.471490e+01  -1.228591e+01
   4.361351e+01  -5.893452e+01
   7.402114e+01  -5.380412e+01
   7.302339e+01   3.350109e+01
   4.680623e-01   7.893111e+01
  -2.379948e+01   7.988206e+01
  -1.905188e+01  -1.639485e+01
  -4.122738e+00  -1.561179e+01
  -3.459502e+01  -3.861586e+01
   2.751267e+01  -8.226682e+00
   2.428432e+01   4.087626e+01
   2.118762e+00  -4.133692e+01
   1.645447e+01  -3.446537e+01
   7.594781e+01   1.484028e+01
   1.215262e+01   5.691835e+01
  -6.243357e+00   5.621825e+01
  -1.442655e+01  -9.892627e+00
  -6.714655e+01  -5.288220e+01
  -1.712841e+01  -7.236325e+01
   3.357669e+00  -6.375522e+01
   9.176046e+01   1.885461e+01
   3.547985e+01   6.504738e+01
  -3.983998e+01   5.455734e+01
  -1.180978e+02  -1.040723e+01
  -6.046640e+01  -4.178852e+01
   1.414682e+00  -5.975307e+01
   6.018870e+01  -7.819243e+01
   4.979676e+01   1.401533e+01
  -7.254244e+01   2.441400e+01
  -6.132514e+01   3.298325e+01
   1.278752e+01  -7.118172e+01
   1.167072e+02  -3.923273e+01
