
 $NMID
 id='ANONYMOUS ', fmtdat='(2E16.6)'
 volume=1.0
 tramp=1.0
 $END
  -4.559831e+03   1.945541e+02
  -2.612062e+03  -2.967475e+03
   5.829861e+02  -3.016524e+03
   2.180248e+03  -9.026758e+02
   1.141326e+03   6.642026e+02
  -6.636882e+02   6.040087e+02
  -9.495316e+02  -5.428067e+02
   3.172122e+01  -1.047535e+03
   8.853357e+02  -7.926310e+02
   9.834316e+02   1.798742e+01
   5.557282e+02   8.906282e+02
  -2.363799e+02   9.368098e+02
  -6.735013e+02   8.308220e+01
  -3.915817e+02  -7.619224e+02
   2.258945e+02  -8.486199e+02
   6.960777e+02   1.025641e+02
   3.126343e+02   7.543921e+02
  -4.021599e+02   6.855708e+02
  -6.351071e+02   1.146372e+02
  -4.100089e+02  -3.328161e+02
  -8.775533e+01  -3.903160e+02
   1.822476e+02  -2.761077e+02
   2.153719e+02  -6.359227e+01
  -1.425717e+02   1.960323e+02
  -4.305394e+02  -1.007070e+02
  -1.876840e+02  -4.727074e+02
   5.206980e+02  -4.741101e+02
   9.259180e+02   1.107671e+02
   4.386420e+02   6.753479e+02
  -4.454174e+02   5.099998e+02
  -7.998321e+02  -1.340008e+02
  -3.203151e+02  -5.409133e+02
   3.357612e+02  -5.603093e+02
   6.005354e+02  -1.485019e+02
   4.482134e+02   2.319542e+02
   1.267443e+02   4.553540e+02
  -2.236164e+02   2.549283e+02
  -1.527813e+02  -3.009989e+02
   2.626335e+02  -4.865029e+02
   5.584506e+02   3.678136e+01
   2.634957e+02   7.465985e+02
  -3.682504e+02   7.716481e+02
  -6.546714e+02  -9.536318e+00
  -2.682277e+02  -6.437798e+02
   3.851889e+02  -2.903507e+02
   4.389302e+02   3.700861e+02
  -7.243323e+01   5.477433e+02
  -6.276687e+02   1.554526e+02
  -6.164884e+02  -4.154690e+02
  -1.372081e+02  -6.121264e+02
   4.349794e+02  -3.726023e+02
   6.736308e+02   6.877155e+01
   3.931581e+02   4.415296e+02
  -1.693174e+02   3.743459e+02
  -4.258168e+02   5.518582e+01
  -2.357755e+02  -2.097893e+02
   1.194169e+02  -1.288051e+02
   1.395325e+02   1.792077e+02
  -1.606068e+02   2.291449e+02
  -3.588875e+02  -7.946943e+01
  -1.957497e+02  -3.197518e+02
   2.205703e+02  -2.811793e+02
   3.442993e+02  -7.703652e+01
   2.011779e+02   1.320572e+02
  -6.803176e+01   2.526076e+02
  -2.266312e+02   3.135829e+02
  -3.725793e+02   2.105892e+02
  -3.414805e+02  -1.657340e+02
  -4.777586e+01  -4.334711e+02
   1.832357e+02  -3.666618e+02
   1.015599e+02  -5.857307e+01
  -4.286270e+01   1.653830e+01
  -1.718303e+01  -8.667124e+01
   1.799671e+02  -1.859352e+02
   3.427548e+02   7.749127e+01
   1.476344e+02   2.929289e+02
  -5.453310e+01   3.047124e+02
  -2.890855e+02   4.059319e+01
  -2.725565e+02  -2.587884e+02
  -1.184145e+01  -3.297497e+02
   2.903017e+02  -1.886988e+02
   4.572067e+02   1.984512e+02
   2.214267e+02   3.795825e+02
  -6.256726e+01   3.762462e+02
  -2.664670e+02   1.341744e+02
  -1.405176e+02   7.730319e+00
  -8.614931e+01   4.386472e+01
  -2.234787e+02   9.833777e+01
  -4.378039e+02   6.984113e+00
  -3.741493e+02  -2.729670e+02
  -4.003810e+01  -4.724709e+02
   3.872983e+02  -4.538492e+02
   5.324537e+02  -1.988209e+02
   3.609027e+02   1.095276e+02
   6.717467e+01   3.029622e+02
  -1.465925e+02   2.229371e+02
  -9.794229e+01  -8.888505e+00
   1.719099e+02  -7.052670e+01
   2.125419e+02   2.599563e+01
   5.150625e+01   2.108620e+02
  -1.687581e+02   1.394524e+02
  -1.964823e+02  -9.245390e+01
   2.206826e+01  -2.324479e+02
   2.204414e+02  -2.491927e+01
   1.781724e+02   2.297937e+02
   4.324313e+00   4.003418e+02
  -2.753190e+02   2.236062e+02
  -3.387698e+02  -5.266641e+01
  -3.429509e+02  -2.492741e+02
  -5.665013e+01  -2.994963e+02
   1.280372e+02  -1.667849e+02
   1.811167e+02   5.418765e+00
   2.818911e+01   5.016719e+01
  -1.102968e+02   6.453862e+00
  -5.489377e+01  -1.451219e+02
   1.048885e+02  -1.178412e+02
   2.216186e+02   1.485158e+01
   5.607569e+01   1.106837e+02
  -8.345364e+01   2.485082e+01
  -9.130361e+01  -7.092407e+01
   8.996848e+01  -1.161839e+02
   2.837415e+02   4.646021e+00
   2.927869e+02   8.628113e+01
   1.234582e+02   2.544563e+02
  -1.516681e+02   2.504259e+02
  -3.174328e+02   1.535515e+02
  -1.889497e+02  -3.108356e+01
   3.627503e+01  -9.391286e+01
   1.401046e+02  -3.371263e+01
   9.077771e+00   1.257546e+02
  -1.965188e+02   1.169875e+02
  -2.551184e+02  -5.831461e+01
  -1.048276e+02  -1.891482e+02
   4.811763e+01  -1.755995e+02
   1.235986e+02  -5.406300e+01
   5.571535e+01   2.133760e+01
   5.968731e+00  -1.281719e+00
  -3.446034e+01  -1.016917e+02
   9.871235e+01  -1.625610e+02
   2.109213e+02  -4.989233e+01
   2.084717e+02   1.279153e+02
   7.391439e+01   1.925496e+02
  -1.304221e+02   1.708987e+02
  -1.924231e+02   2.679564e+01
  -7.628256e+01  -1.029697e+02
   6.352440e+01  -6.193780e+01
   7.623160e+01  -8.696919e+00
  -6.450075e+00   3.882651e+01
  -3.817558e+01  -2.497399e+01
  -3.545880e+01  -5.147986e+01
   8.890030e+01   3.112543e+01
   7.943644e+01   7.973890e+01
   1.808551e+01   1.859381e+02
  -1.048109e+02   2.029292e+02
  -2.584731e+02   4.320080e+01
  -2.456680e+02  -1.876114e+02
  -5.335950e+01  -2.244007e+02
   1.572072e+02  -1.910276e+02
   1.739334e+02  -1.848783e+00
   7.172055e+01   6.539098e+01
   7.588935e+01   4.960500e+01
   9.136395e+01  -1.561899e+01
   7.731956e+01   1.173622e+01
   2.685146e+01   3.475525e+01
  -5.117671e+01   1.120191e+02
  -1.504209e+02   8.946228e+01
  -1.018782e+02  -2.345583e+01
   4.193220e+01  -1.818856e+02
   1.373111e+02  -8.537065e+01
   1.812294e+02   3.044621e+00
   9.347591e+01   2.194629e+02
  -9.698625e+01   2.540740e+02
  -2.683060e+02   1.107069e+02
  -2.505729e+02  -4.805656e+01
  -1.116703e+02  -1.697075e+02
   3.359122e+01  -1.689990e+02
   8.483524e+01  -8.275361e+01
   1.294518e+02  -8.490939e+01
   7.123927e+01  -7.166222e+01
   9.196082e+01  -4.007856e+01
   1.388183e+02  -1.396380e+01
   1.561755e+02   1.592818e+02
   4.250690e+01   2.391308e+02
  -9.859282e+01   1.485430e+02
  -1.633647e+02   4.102622e+00
  -1.478036e+02  -1.359456e+02
  -9.371952e+00  -1.806468e+02
   5.303257e+01  -1.276701e+02
   7.176546e+00   1.966165e+01
   2.813595e+01   4.339107e+01
   1.365412e+01   3.916936e+00
   5.658372e+01   1.967702e+01
   8.196078e+01   3.985273e+01
   3.890716e+01   3.235337e+01
  -6.130994e+01   2.019832e+01
  -1.678022e+02   6.718473e+00
  -1.364415e+02  -6.011840e+01
   1.258001e+01  -5.442098e+01
   1.446335e+02  -6.462653e+01
   1.851964e+02  -1.659124e+01
   4.622800e+00   2.958160e+01
  -7.816355e+01   3.550621e+01
  -7.618368e+01   1.908013e+01
  -1.024722e+01  -4.932715e+01
   6.077026e+01  -7.080673e+01
   5.631571e+01   1.396728e+01
   5.380555e+01   8.212807e+01
  -1.565235e+01   4.449551e+01
   5.309935e+01   5.603648e+00
   7.136346e+01  -9.279955e-01
   4.427089e+00   6.293204e+01
  -4.239054e+01   1.598341e+02
  -1.067596e+02   1.032419e+02
  -1.765219e+02   6.311890e+01
  -1.402560e+02  -6.957295e+01
   2.812477e+01  -1.324481e+02
   1.022333e+02  -1.206665e+02
   4.344057e+01  -1.996235e+01
  -1.570749e+01   1.544577e+01
  -1.258180e+02  -3.056116e+01
  -1.179866e+02  -9.254513e+01
   5.048567e+01  -1.130015e+02
   1.935655e+02  -7.420133e+01
   1.639046e+02   2.832677e+01
   5.112804e+01   5.437977e+01
  -5.732395e+01   3.942036e+01
  -7.471962e+01   3.568598e+00
   3.006428e+01  -5.306152e+01
   9.476892e+01   2.236807e+01
   8.783603e+01   1.189312e+02
  -8.120085e+01   1.811980e+02
  -1.385297e+02   6.318054e+01
  -9.401429e+01  -6.485957e+01
   1.898653e+01  -2.465522e+02
   7.255047e+01  -9.971742e+01
   7.923389e+01  -2.377520e+01
   1.001471e+02   1.520028e+02
   4.394833e+01   1.606324e+02
  -1.775444e-02   4.792546e+01
  -6.065279e+01  -4.304627e+01
  -3.836472e+01   9.710728e+00
  -2.310089e+01  -1.592784e+01
  -2.444570e+01  -4.964156e+01
  -1.313996e+00  -1.072461e+02
  -5.892469e+01  -1.025595e+02
   6.565634e+01  -2.581909e+01
   1.186565e+02   8.561937e+01
   1.379491e+02   7.246619e+01
  -1.080533e+01   1.775478e+01
  -7.664669e+01   5.911145e+00
  -7.517739e+01   7.124001e+00
  -1.562552e+01  -1.626557e+01
   2.034574e+01  -5.841440e+01
  -1.289466e+01  -4.909853e+01
   2.618684e+01  -6.569062e+00
   4.595978e+00   1.992376e+01
   1.001328e+02  -1.771874e+01
   1.044228e+02   1.918374e+01
   2.168127e+01   9.573869e+01
  -1.424728e+02   1.005504e+02
  -1.679915e+02   6.396066e+01
  -1.196764e+02  -6.728442e+01
  -2.200614e+01  -1.282589e+02
   9.652615e+01  -1.656956e+02
   6.581837e+01  -4.841612e+01
   1.039166e+02   2.730130e+01
   1.764458e+01  -9.077312e+00
   8.916511e+00  -2.110215e+01
   1.395156e+01  -3.123226e+00
   6.395774e+01   7.507163e+01
   3.602303e+01   1.107399e+02
  -3.397505e+01   4.502409e+01
  -5.773890e+01   8.635363e-01
  -9.043384e+01  -1.573056e+02
   9.164313e+00  -1.400136e+02
   1.041529e+02  -3.533703e+01
   9.595114e+01   7.060579e+01
   5.693144e+01   1.255126e+02
  -4.022521e+01   6.382920e+01
  -1.045208e+02  -3.339057e+00
  -3.622337e+01  -6.677454e+01
   6.249957e+01  -1.063404e+02
   3.594308e+01  -4.104128e+01
  -1.433242e+01   5.971504e+01
  -9.585881e+01   2.900548e+01
  -8.281675e+00   7.535688e+00
   9.325953e+01  -6.942071e+01
   1.134575e+02  -6.578448e+01
   3.683424e+01  -3.121051e+01
  -5.211939e+00   7.227058e+01
  -6.651426e+01   1.050833e+02
  -1.945387e+01  -2.193645e+01
  -3.652437e+01  -1.829655e+01
  -2.024638e+00  -3.204188e+01
   1.084378e+01   4.180227e+01
   6.906676e+01   3.905004e+01
  -1.060629e+01   2.471332e+01
  -6.195277e+01   1.972571e+00
  -6.005493e+01  -3.551317e+01
  -8.799777e+01  -6.782428e+00
   3.070805e+01   2.106327e+01
  -6.349963e+00   1.157556e+01
  -2.731014e+01  -4.530718e+01
   3.517901e+01  -7.659197e+01
   9.594714e+00  -2.318580e+01
  -2.549963e+01   3.331644e+01
  -2.079250e+01   3.302404e+00
  -3.220627e+01   1.638206e+01
  -6.324181e+01  -2.865171e+01
   3.481265e+01  -2.323813e+01
   6.404970e+01  -3.860897e+01
   6.703177e+01  -3.252975e+01
   6.910695e+01   4.888222e+01
  -5.897938e+00   3.666147e+01
  -8.441868e+01   3.270752e+01
  -1.518270e+01   8.350867e+00
   7.941916e+01   5.148992e+01
   5.195459e+01   3.129484e+01
  -4.194493e+01   3.120662e+01
  -1.040253e+02  -8.218681e-01
