
 $NMID
 id='ANONYMOUS ', fmtdat='(2E16.6)'
 volume=1.0
 tramp=1.0
 $END
   4.490575e+03  -8.040305e+01
   2.937144e+03   2.437186e+03
  -7.618267e+02   2.742198e+03
  -2.012471e+03   9.926259e+02
  -1.016732e+03  -4.840100e+02
   6.635655e+02  -7.583385e+02
   9.053910e+02   3.406315e+02
  -4.416527e+01   1.115942e+03
  -7.418066e+02   9.548686e+02
  -8.706595e+02  -1.413747e+02
  -4.414216e+02  -8.137372e+02
   1.078329e+02  -8.846866e+02
   5.991898e+02  -1.042205e+02
   4.103636e+02   7.288864e+02
  -2.310636e+02   8.367171e+02
  -7.067872e+02   1.106698e+02
  -3.401149e+02  -7.371571e+02
   3.550725e+02  -7.346493e+02
   5.687378e+02  -1.354112e+02
   4.744751e+02   3.382511e+02
   8.267857e+01   4.735978e+02
  -2.409959e+02   3.238184e+02
  -2.568117e+02  -2.243019e+01
   1.416934e+02  -7.015487e+01
   3.966292e+02   1.549246e+02
   1.258237e+02   4.194789e+02
  -5.901517e+02   3.985305e+02
  -9.465494e+02  -8.385210e+01
  -3.836610e+02  -5.374904e+02
   4.133066e+02  -4.691799e+02
   7.839495e+02   3.423290e+01
   3.840827e+02   5.397662e+02
  -3.081511e+02   5.664560e+02
  -6.216602e+02   1.843445e+02
  -4.114870e+02  -2.345136e+02
  -3.081540e-01  -5.022933e+02
   2.288758e+02  -2.725171e+02
   1.629367e+02   2.927051e+02
  -1.702294e+02   5.275044e+02
  -4.511076e+02   2.884122e+01
  -2.317889e+02  -6.780523e+02
   2.806397e+02  -7.543794e+02
   5.917695e+02   1.462784e+00
   2.545100e+02   5.595383e+02
  -2.997590e+02   3.534373e+02
  -3.603656e+02  -3.219737e+02
   4.013674e+01  -6.121111e+02
   5.700761e+02  -1.911818e+02
   6.091717e+02   4.192919e+02
   2.113780e+02   6.092282e+02
  -4.030051e+02   3.840098e+02
  -6.973429e+02  -9.062542e+01
  -3.813756e+02  -4.206028e+02
   1.746596e+02  -3.728572e+02
   4.648629e+02  -9.986727e+01
   2.685828e+02   2.610417e+02
  -1.163953e+02   1.154996e+02
  -1.383297e+02  -1.421216e+02
   1.280114e+02  -2.147375e+02
   3.361894e+02   8.714095e+01
   1.961007e+02   3.002300e+02
  -1.876860e+02   2.523031e+02
  -3.517439e+02   1.186570e+02
  -2.461571e+02  -3.955354e+01
  -3.683069e+00  -2.227946e+02
   2.245105e+02  -3.814330e+02
   3.436867e+02  -2.779093e+02
   3.202562e+02   1.608989e+02
   8.714031e+01   5.176978e+02
  -1.557685e+02   4.251899e+02
  -1.603661e+02   1.135924e+02
  -3.308436e+01  -5.647999e+01
  -2.579179e+01   4.139784e+01
  -1.768673e+02   1.967848e+02
  -3.164719e+02  -6.909635e+01
  -1.787671e+02  -2.637399e+02
   5.738354e+01  -2.306803e+02
   2.422162e+02  -2.866588e+01
   2.140475e+02   2.289905e+02
  -2.975238e+00   2.906199e+02
  -2.380896e+02   8.924277e+01
  -3.804983e+02  -1.623995e+02
  -2.187384e+02  -2.938505e+02
   6.333871e+01  -3.218136e+02
   2.281862e+02  -1.199634e+02
   1.609597e+02  -2.658481e+01
   6.672824e+01  -2.351785e+01
   2.105036e+02  -6.048089e+01
   3.829699e+02   2.030858e+01
   3.467576e+02   2.405531e+02
   2.038180e+01   4.064775e+02
  -3.339504e+02   4.303432e+02
  -4.896065e+02   2.469461e+02
  -3.396982e+02  -7.157517e+01
  -5.428350e+01  -3.334650e+02
   9.777951e+01  -2.620419e+02
   7.169871e+01  -6.037765e+01
  -7.506094e+01   8.791585e+01
  -1.879907e+02   1.159933e+01
  -7.338936e+01  -1.581993e+02
   1.252228e+02  -1.613744e+02
   1.983207e+02   5.402335e+01
   1.027704e+01   2.073147e+02
  -1.944571e+02   5.421524e+01
  -1.809195e+02  -2.253638e+02
   4.135799e+01  -3.453801e+02
   1.914191e+02  -2.120536e+02
   3.255221e+02   5.071191e+01
   3.126173e+02   2.534530e+02
   1.168334e+02   2.396697e+02
  -1.281890e+02   1.864813e+02
  -1.804497e+02   5.687579e+01
  -6.964393e+01  -1.472164e+01
   3.936095e+01  -1.327952e+01
   3.317965e+01   9.785125e+01
  -1.521067e+02   1.227978e+02
  -1.907392e+02  -1.246856e+01
  -7.679788e+01  -7.853165e+01
   4.575281e+01  -5.734173e+01
   9.088534e+01   5.116878e+01
  -9.682217e+01   9.772757e+01
  -2.422611e+02   2.141735e+01
  -2.475961e+02  -1.266293e+02
  -6.826118e+01  -2.183452e+02
   1.613805e+02  -2.653103e+02
   2.899871e+02  -1.423500e+02
   1.952986e+02   6.885641e+01
   1.994305e+00   1.094340e+02
  -1.030682e+02  -1.441952e+00
  -2.254084e+01  -1.019648e+02
   1.931365e+02  -4.659074e+01
   2.410485e+02   7.824896e+01
   8.064367e+01   1.930812e+02
  -5.021792e+01   1.807967e+02
  -1.296523e+02   4.302619e+01
  -6.087701e+01  -1.531121e+01
   1.740255e+01   1.629400e+01
   6.615868e+01   8.421151e+01
  -8.389570e+01   1.152651e+02
  -2.234923e+02   8.649752e+01
  -2.344106e+02  -9.479176e+01
  -3.856310e+00  -2.042711e+02
   1.454364e+02  -1.820904e+02
   1.924210e+02  -4.700218e+01
   2.161027e+01   1.122179e+02
  -1.278391e+02   8.159191e+01
  -5.539509e+01   5.210121e+01
  -2.673213e+01  -8.330514e+01
   1.538313e+01  -2.308087e+01
  -2.250683e+00  -1.916313e+01
  -7.417338e+01   3.340946e+01
  -5.354578e+01  -5.932296e+01
  -3.111033e+01  -1.585626e+02
   1.252325e+02  -1.605761e+02
   2.317325e+02  -2.889645e+01
   2.321328e+02   1.676217e+02
   6.586218e+01   2.572677e+02
  -9.255105e+01   1.748766e+02
  -2.004393e+02   7.034333e+00
  -6.778930e+01  -8.414487e+01
  -5.849705e+01  -3.590955e+01
  -4.038049e+01   4.147516e+01
  -7.418609e+01   4.457213e+00
  -3.949030e+01  -6.143235e+01
   6.202266e+01  -1.034705e+02
   9.492099e+01  -1.030033e+02
   8.437930e+01   6.298155e+01
  -4.954617e+01   1.111865e+02
  -1.235152e+02   1.032713e+02
  -2.067590e+02  -6.186770e+01
  -9.236057e+01  -2.289093e+02
   1.335066e+02  -2.847062e+02
   3.128394e+02  -7.758309e+01
   2.796213e+02   9.228136e+01
   9.933305e+01   1.958018e+02
  -5.504308e+01   1.274262e+02
  -1.253068e+02   1.014321e+02
  -9.048412e+01   8.216893e+01
  -2.476054e+01   8.385353e+01
  -7.586371e+01   7.931045e+01
  -1.037921e+02  -1.282092e+01
  -1.646281e+02  -1.458077e+02
  -5.141107e+01  -2.524710e+02
   9.256965e+01  -2.081922e+02
   2.119667e+02  -2.214089e+01
   1.553838e+02   1.283290e+02
   2.485379e+01   2.129999e+02
  -7.063846e+01   9.992699e+01
  -7.597581e+01  -4.338423e+01
  -1.913617e-01  -9.985339e+01
   2.083603e+01  -3.619799e+01
  -4.056982e+01  -1.185043e+01
  -9.471243e+01   1.772833e+01
  -2.308178e+01  -6.763475e+01
   6.663648e+01   9.316558e+00
   1.616143e+02  -1.148126e+00
   1.536733e+02   4.634847e+01
   1.788026e+01   7.284375e+01
  -1.368402e+02   8.375198e+01
  -1.937872e+02   3.274677e+00
  -4.878842e+01  -5.426413e+01
   7.476719e+01  -3.719017e+01
   4.855377e+01   4.307810e+01
  -2.868609e+01   3.193750e+01
  -3.592646e+01   5.254865e+01
  -5.828541e+01  -2.329675e+00
  -1.327340e+01  -4.329285e+01
  -4.471228e+01  -2.609444e+01
  -6.088900e+01  -2.008463e+00
  -6.152778e+01   3.571985e+01
  -4.351251e+01  -4.994093e+01
   4.908998e+00  -1.528010e+02
   1.209347e+02  -1.655323e+02
   1.557197e+02  -1.000240e+02
   1.389066e+02   1.056014e+02
  -1.560129e+01   1.303183e+02
  -1.115423e+02   8.133302e+01
  -6.961919e+01  -4.325628e-01
   7.959145e+01  -5.544563e+01
   1.490234e+02   1.163094e+01
   8.267471e+01   8.602580e+01
  -6.539588e+01   9.559256e+01
  -1.713477e+02   5.282941e+01
  -1.320777e+02  -3.303391e+01
  -4.430529e+01  -8.432507e+01
   5.810813e+01  -2.466476e+01
   5.925539e+01  -4.058820e-01
  -4.299033e+01   3.401132e+01
  -8.591108e+01   2.642980e+00
  -7.412176e+01  -1.186979e+02
   1.030176e+02  -1.579879e+02
   1.316670e+02  -4.207330e+01
   1.615009e+02   1.036005e+02
   2.047073e+01   2.036674e+02
  -5.958980e+01   1.445307e+02
  -1.016782e+02   1.294091e+01
  -1.003285e+02  -1.249505e+02
   3.320418e+00  -1.203896e+02
   1.303280e+01  -9.000825e+00
   6.137506e+01   8.536591e+01
   2.676818e+00   3.170796e+01
  -5.987116e-01  -3.657077e+01
  -9.993758e+00  -5.026865e+00
   1.097415e+02   5.171457e+01
   5.728640e+00   1.196800e+02
  -6.691514e+01   2.490523e+01
  -1.337704e+02  -2.243102e+01
  -1.556399e+02  -1.180727e+02
  -1.211332e+01  -1.833669e+01
   1.125952e+02  -1.736904e+01
   7.547357e+01   2.580784e+00
   3.506742e+01  -3.861099e+01
  -1.014014e+01   2.714019e+01
  -4.675560e+01   2.674415e+01
   4.914501e+01   2.085419e+01
  -5.942677e+00   1.436367e+01
  -9.693237e+01  -4.257049e+01
  -1.118059e+02  -4.372119e+01
  -1.290905e+01  -9.504926e+01
   1.078751e+02  -9.199486e+01
   2.257164e+02  -4.279060e+01
   1.709378e+02   5.037128e+01
   3.980812e+01   1.831223e+02
  -8.557267e+01   1.520730e+02
  -1.004699e+02   4.593019e+01
  -7.612977e+01  -1.241154e+01
  -1.120851e+01  -1.277665e+01
  -2.570139e+01   2.020417e+01
  -2.209734e+01   3.450154e+00
  -5.435991e+01  -4.110248e+01
  -6.247120e+01  -9.017847e+01
   2.190666e+01  -6.827970e+01
   4.416447e+01  -1.533316e+01
   4.566447e+01   9.064462e+01
   3.189465e+01   9.277224e+01
  -6.928059e+01   4.147955e+01
  -5.708864e+01  -7.534477e+01
  -4.436507e+01  -6.886828e+01
   8.931501e+01  -6.331076e+01
   7.304003e+01   3.007156e+00
  -1.740327e+01   2.143451e+01
  -6.867298e+01   6.761183e+01
  -2.948623e+00   3.861875e+01
   4.897623e+01  -5.139231e+01
   6.965986e+01  -4.944675e+01
   2.455392e+01   1.606478e+01
  -4.711179e+01   8.523802e+01
  -1.233844e+02   3.643290e+01
  -4.648049e+01  -2.360484e+00
  -4.978474e+00  -1.199931e+02
   1.383636e+01  -6.596283e+01
   1.050364e+01   5.122809e+00
   2.250420e+01   8.085262e+01
   1.462015e+01   4.689166e+01
  -7.956104e+00  -4.449962e+01
  -3.963041e+01  -5.493001e+01
   1.381511e+01  -2.895722e+00
   6.507950e+01  -5.057291e+00
   2.789237e+01   4.410154e+01
   2.263471e+01   1.560469e+00
  -1.544087e+01  -1.203136e+01
  -2.404631e+01   4.780824e+00
  -3.588643e+01   6.247082e+01
  -6.511094e+01   6.078880e+01
  -4.593933e+01   9.320032e+00
  -6.906230e+01  -4.705570e+01
  -7.116154e+00  -7.783057e+01
   6.565342e+01   1.420587e+00
   8.088708e+01   3.690119e+00
   5.901494e+00   7.899121e+01
  -1.658040e+01   5.177968e+01
  -5.877576e+01  -3.512846e+01
  -6.606833e+01  -3.859498e+01
  -2.077516e+01  -1.577312e+01
   2.429017e+01   9.090398e+00
  -3.197543e+01  -1.397644e+01
  -4.693043e+01   8.450198e+00
  -2.503479e+01  -2.377046e+01
   1.133025e+01  -2.618130e+01
   7.678186e+01  -4.856440e+00
