
 $NMID
 id='ANONYMOUS ', fmtdat='(2E16.6)'
 volume=1.0
 tramp=1.0
 $END
   4.266268e+03  -2.716313e+02
   2.679930e+03   2.603364e+03
  -4.573645e+02   2.822314e+03
  -2.089245e+03   9.795957e+02
  -1.118275e+03  -4.671956e+02
   5.408305e+02  -5.430182e+02
   9.063048e+02   3.191422e+02
   7.261990e+01   1.116763e+03
  -8.003617e+02   8.505337e+02
  -1.016545e+03  -5.958779e+01
  -4.980840e+02  -8.010912e+02
   2.830401e+02  -9.390096e+02
   6.223760e+02  -7.902601e+01
   4.086971e+02   7.115736e+02
  -2.552716e+02   8.570812e+02
  -6.523464e+02   5.473141e+01
  -3.729508e+02  -7.931213e+02
   2.975377e+02  -7.116079e+02
   6.049285e+02  -2.306907e+02
   3.288895e+02   3.059570e+02
   2.089687e+01   4.584774e+02
  -2.610948e+02   2.272142e+02
  -1.995635e+02  -5.108967e+01
   1.310341e+02  -9.072558e+01
   3.932110e+02   1.932264e+02
   1.146904e+02   4.956157e+02
  -5.233183e+02   3.789904e+02
  -8.366936e+02  -4.196711e+01
  -4.071088e+02  -5.670433e+02
   4.011771e+02  -4.814046e+02
   7.847710e+02   5.150199e+01
   3.281897e+02   4.889237e+02
  -3.415150e+02   5.265689e+02
  -5.554521e+02   1.864037e+02
  -4.093514e+02  -2.044508e+02
  -7.032575e+01  -4.352229e+02
   2.028367e+02  -2.990387e+02
   1.553993e+02   2.477483e+02
  -2.096041e+02   4.562705e+02
  -5.235417e+02  -3.614074e+01
  -2.927945e+02  -7.062018e+02
   2.946734e+02  -7.120667e+02
   6.203720e+02  -2.144857e+01
   2.880576e+02   5.495179e+02
  -3.177670e+02   3.350559e+02
  -4.033894e+02  -3.372413e+02
   8.632352e+01  -5.526787e+02
   5.565135e+02  -9.752964e+01
   6.028754e+02   4.777566e+02
   1.594498e+02   6.189317e+02
  -3.802707e+02   2.994168e+02
  -6.339391e+02  -1.529738e+02
  -4.057954e+02  -4.072969e+02
   1.712022e+02  -3.687776e+02
   4.754232e+02  -4.754452e+01
   2.614846e+02   2.224468e+02
  -1.272643e+02   1.851231e+02
  -1.883621e+02  -1.098678e+02
   1.210844e+02  -2.113824e+02
   3.346860e+02   4.983157e+01
   1.821835e+02   2.686132e+02
  -1.806815e+02   2.635284e+02
  -3.597106e+02   1.067253e+02
  -2.342013e+02  -1.169170e+02
   6.827912e+01  -2.467026e+02
   2.722436e+02  -3.415642e+02
   3.833879e+02  -1.782058e+02
   2.616370e+02   1.501159e+02
   7.354133e+01   4.533751e+02
  -1.008624e+02   3.573818e+02
  -1.074774e+02   7.395863e+01
  -8.359895e+00  -2.588175e+00
  -6.188753e+01   1.135136e+02
  -2.087563e+02   1.470543e+02
  -2.726390e+02  -8.990624e+01
  -1.940141e+02  -2.862096e+02
   1.014569e+02  -2.539240e+02
   2.157203e+02  -1.618175e+01
   1.714767e+02   2.356990e+02
   3.094577e+01   2.660576e+02
  -2.945060e+02   1.204380e+02
  -3.939516e+02  -1.897321e+02
  -1.838975e+02  -3.767326e+02
   1.388013e+02  -2.846789e+02
   2.511527e+02  -1.171077e+02
   1.451342e+02   1.024802e+01
   1.108932e+02  -6.390780e+01
   2.647731e+02  -6.966668e+01
   4.627041e+02   9.306675e+01
   3.495985e+02   3.284756e+02
  -3.688042e+01   4.576350e+02
  -3.694161e+02   4.625235e+02
  -5.240374e+02   1.994840e+02
  -3.549245e+02  -1.265038e+02
  -1.634708e+01  -3.423349e+02
   1.193673e+02  -2.717319e+02
   5.633852e+01  -9.682748e+00
  -1.002706e+02   6.822230e+01
  -1.592759e+02  -2.800628e+01
   8.197125e+00  -2.309275e+02
   1.869532e+02  -1.765716e+02
   2.033173e+02   6.716131e+01
  -3.971924e+01   2.786563e+02
  -2.133853e+02   5.514472e+01
  -1.227673e+02  -2.281882e+02
   3.218548e+01  -3.345215e+02
   2.139336e+02  -2.146076e+02
   3.061191e+02   2.433799e+01
   3.434184e+02   2.201817e+02
   1.067309e+02   3.117877e+02
  -1.032094e+02   1.925354e+02
  -1.611639e+02   3.019377e+01
  -1.999790e+01  -4.281261e+01
   9.084515e+01   6.936877e+01
   2.297968e+01   1.353337e+02
  -1.372864e+02   1.020918e+02
  -1.996846e+02  -6.425867e+01
  -5.329188e+01  -1.156389e+02
   9.202165e+01   1.062623e+01
   4.898864e+01   1.361594e+02
  -1.022859e+02   1.052674e+02
  -2.517638e+02  -1.682421e+01
  -2.395775e+02  -1.488876e+02
  -7.088388e+01  -2.576175e+02
   1.904153e+02  -2.004152e+02
   2.993917e+02  -8.726844e+01
   1.197627e+02   7.496008e+01
  -4.888550e+01   8.159665e+01
  -1.221528e+02  -4.380762e+01
   6.221362e+01  -1.164008e+02
   2.222970e+02  -5.273797e+01
   2.440711e+02   1.037407e+02
   7.023186e+01   1.971089e+02
  -9.698561e+01   1.493389e+02
  -1.400764e+02   4.169168e+01
  -6.417339e+01  -1.851277e+01
   4.705163e+01   1.103204e+01
   7.172084e+01   9.667060e+01
  -6.048109e+01   1.217282e+02
  -2.093597e+02   1.331607e+01
  -1.733951e+02  -1.632364e+02
  -7.196352e+01  -2.029982e+02
   1.431360e+02  -1.526939e+02
   2.131765e+02  -1.441344e+01
   2.338648e+01   9.549390e+01
  -2.759528e+01   1.137998e+02
  -6.370555e+01   4.399652e+01
   8.468625e+00   2.290264e+01
  -1.099181e+00  -1.048762e+01
   4.593635e+00  -1.730087e+01
  -5.223720e+01   3.109010e+01
  -1.098630e+02  -8.428290e+01
  -4.614096e+01  -1.311285e+02
   1.326255e+02  -1.909694e+02
   2.360857e+02  -2.131383e+01
   2.311058e+02   1.518737e+02
   1.982370e+01   2.453240e+02
  -1.310791e+02   2.428925e+02
  -1.623458e+02   2.354299e+01
  -7.790175e+01  -1.149809e+02
  -2.733439e+01  -4.761417e+01
  -4.842325e+01  -3.897677e+00
  -3.892835e+01  -9.698457e+00
  -4.129630e+01  -5.125947e+01
   1.445372e+01  -6.832668e+01
   1.085058e+02  -5.707759e+01
   1.059870e+02   2.608674e+01
  -6.141361e+01   1.162437e+02
  -1.690715e+02   9.070534e+01
  -2.463814e+02  -3.728427e+01
  -1.278860e+02  -2.296365e+02
   1.018754e+02  -2.212805e+02
   2.517427e+02  -1.140301e+02
   2.853836e+02   4.624802e+01
   1.425001e+02   1.534277e+02
  -1.001747e+01   1.322285e+02
  -8.368330e+01   1.096487e+02
  -6.206647e+01   7.598400e+01
  -8.529587e+01   9.253593e+01
  -8.795656e+01   3.328679e+01
  -1.246499e+02  -1.789943e+01
  -1.064118e+02  -1.668515e+02
  -6.546276e+01  -2.376289e+02
   5.697091e+01  -2.198936e+02
   1.946532e+02  -5.589136e+01
   1.341086e+02   1.209977e+02
   1.786829e+01   1.554813e+02
  -2.544985e+01   9.680225e+01
  -5.085739e+01  -2.107627e+00
  -2.351842e+01  -3.119073e+01
  -3.911450e+01  -4.831501e+01
  -3.737968e+01  -1.026287e+01
  -6.313446e+01  -1.959119e+01
  -6.251967e+01  -5.150076e+01
   1.038534e+02  -5.143420e+01
   1.501956e+02   3.293260e+01
   1.978289e+02  -9.288701e+00
   2.617509e+01   1.120638e+02
  -1.587928e+02   1.076276e+02
  -1.409838e+02   4.451384e+01
  -6.907228e+01  -9.826688e+01
   7.772571e+01  -7.043317e+00
   7.381791e+01   3.467782e+01
   3.591312e+01   8.183507e+01
  -6.048396e+01   7.628389e+01
  -9.485954e+01  -2.219504e+01
  -1.449332e+01  -6.229416e+01
  -5.469592e+01  -9.256704e+00
  -8.469322e+01  -2.763640e+01
  -6.137428e+01  -8.091421e+00
  -6.279319e+01  -3.977683e+01
   3.413397e+00  -1.351330e+02
   1.307871e+02  -1.407190e+02
   1.715596e+02  -6.676158e+01
   1.308754e+02   1.040397e+02
  -5.927132e+00   1.023328e+02
  -1.188197e+02   4.020949e+01
  -1.065782e+02  -1.587553e+01
   5.989643e+01  -1.719628e+01
   1.331894e+02   4.762212e+01
   8.608906e+01   9.208879e+01
  -7.241624e+01   1.334622e+02
  -2.066956e+02   5.865461e+01
  -1.897575e+02  -2.933711e+01
  -5.168378e+01  -7.402841e+01
   9.182264e+01  -1.117746e+02
   8.499913e+01  -2.002651e+00
  -1.582095e+01   2.741889e+01
  -1.153695e+02  -4.021533e+01
  -2.899679e+01  -1.522587e+02
   1.342272e+02  -1.815356e+02
   2.040744e+02  -3.274880e+01
   9.870462e+01   1.074836e+02
   8.018414e+00   2.373534e+02
  -9.701072e+01   1.854734e+02
  -1.270192e+02   2.835894e+00
  -9.927765e+01  -9.411521e+01
   5.235165e+01  -1.408234e+02
   6.392078e+01  -2.324505e+01
   3.186660e+01   3.458589e+01
  -1.716415e+01   4.977071e+01
  -3.440484e+01  -2.153633e+01
   4.126897e+01  -2.417272e+01
   6.649486e+01   8.227497e+01
   1.926354e+01   9.135498e+01
  -5.823025e+01   3.179632e+01
  -1.618351e+02  -4.440587e+01
  -1.336683e+02  -8.787548e+01
  -1.971205e+01  -1.705909e+01
   8.912783e+01  -5.404765e+01
   9.773246e+01  -2.039499e+01
  -1.003269e-01   3.207667e+01
  -5.341907e+01   1.609760e+01
  -5.234266e+01  -3.027278e+01
   3.235209e+01  -3.877301e+01
  -3.277843e+01   9.148639e+00
  -4.621163e+01   3.818456e+01
  -1.306720e+02  -1.816954e+00
  -3.270181e+01  -1.497689e+02
   1.271009e+02  -1.329794e+02
   1.975875e+02  -7.153937e+01
   1.547235e+02   8.721299e+01
   2.612339e+01   1.945608e+02
  -7.210749e+01   1.328462e+02
  -1.037851e+02   2.033758e+01
  -1.084555e+02  -1.805488e+01
  -5.066167e+01  -9.574373e+01
  -2.035514e+01  -1.818461e+01
   6.570094e+01   1.886793e+01
  -5.504879e+01  -2.316148e+01
  -4.101673e+01  -9.732435e+01
   2.723120e+01  -1.083879e+02
   9.772182e+01   1.605535e+01
   7.296516e+01   1.420126e+02
   2.525003e+01   1.056434e+02
  -4.366109e+01   1.783746e+00
  -7.485520e+01  -8.629975e+01
  -2.782162e+01  -1.008733e+02
   8.176360e+01  -3.731335e+01
   1.161684e+02   4.257085e+01
   2.196285e+01   5.327510e+01
  -3.975998e+01   5.172214e+01
  -5.541072e+01   3.477078e+01
   8.750409e+00  -2.255138e+01
   1.110447e+02  -7.075124e+00
   6.259609e+01   2.948268e+01
  -5.833853e+01   1.094071e+02
  -1.491106e+02   2.530101e+01
  -6.379613e+01  -2.591686e+01
   4.432513e+01  -4.376210e+01
   5.540073e+01  -1.146241e+01
   3.293076e+01   4.880169e+01
   5.865756e+00   7.524505e+01
  -6.843991e+01   6.667668e+01
  -7.404808e+01  -3.722140e+01
  -3.443934e+01  -4.637892e+01
  -2.613583e+00  -2.542214e+01
   5.996035e+01  -4.317171e+01
   3.941144e+01   4.374339e+01
   2.301152e+00  -2.776937e+00
  -1.681255e+01  -3.155467e+01
   5.663821e+01  -3.198019e+00
   3.053318e+01   5.623705e+01
  -2.667741e+01   7.247585e+01
  -5.547657e+01  -8.592081e+00
  -5.797809e+01  -1.606937e+01
  -6.609613e+00  -4.646299e+01
   8.639948e+01   8.320021e+00
   5.196331e+01   5.539266e+01
   1.618812e+01   7.882170e+01
  -1.104188e+02   7.558595e+01
  -7.713416e+01  -1.982250e+01
  -6.972323e+01  -2.079982e+01
   4.739330e+00  -5.913579e+01
   7.649416e+01  -7.820613e+00
   5.552146e+00  -4.166877e-01
  -2.695086e+01  -4.128310e+00
  -2.544257e+01  -4.956263e+01
  -1.508804e+00  -1.856040e+01
   9.409746e+01  -7.917988e+00
