
 $NMID
 id='ANONYMOUS ', fmtdat='(2E16.6)'
 volume=1.0
 tramp=1.0
 $END
   4.080674e+03  -8.077894e+01
   2.488052e+03   2.474543e+03
  -5.657486e+02   2.750932e+03
  -1.983414e+03   8.708485e+02
  -8.642476e+02  -6.926353e+02
   5.425307e+02  -5.362718e+02
   7.351920e+02   3.743819e+02
   1.547380e+01   9.398226e+02
  -7.833187e+02   6.423227e+02
  -9.169461e+02  -9.491133e+01
  -4.891011e+02  -8.117074e+02
   1.846713e+02  -8.222043e+02
   5.945096e+02  -6.105054e+01
   2.956504e+02   6.574782e+02
  -3.222035e+02   6.535057e+02
  -5.711435e+02  -2.237534e+01
  -2.567034e+02  -6.652208e+02
   2.626635e+02  -6.730474e+02
   4.908888e+02  -2.096447e+02
   4.141016e+02   3.352807e+02
   3.114059e+01   4.997511e+02
  -2.498768e+02   2.917778e+02
  -1.783936e+02  -3.727976e+01
   1.207544e+02  -8.712019e+01
   3.753870e+02   5.191148e+01
   1.887650e+02   3.695037e+02
  -3.805077e+02   3.420247e+02
  -7.109788e+02  -4.700489e+01
  -3.706241e+02  -5.047589e+02
   3.488299e+02  -4.057492e+02
   7.008715e+02   6.441457e+01
   2.862937e+02   3.762532e+02
  -3.081293e+02   5.269606e+02
  -5.116358e+02   2.006863e+02
  -4.307178e+02  -1.955146e+02
  -8.156406e+01  -4.499881e+02
   1.007159e+02  -2.871039e+02
   1.221974e+02   2.147830e+02
  -1.339144e+02   3.590388e+02
  -3.713534e+02  -8.883630e+01
  -1.976066e+02  -6.599074e+02
   3.360057e+02  -6.241054e+02
   5.607649e+02   3.145264e+01
   2.363392e+02   5.479892e+02
  -2.926636e+02   2.901969e+02
  -3.439816e+02  -3.125865e+02
   6.601199e+01  -5.498856e+02
   5.272609e+02  -1.114605e+02
   5.364101e+02   4.185442e+02
   1.797675e+02   5.845875e+02
  -3.573480e+02   2.895124e+02
  -6.015375e+02  -7.413325e+01
  -3.575250e+02  -3.948662e+02
   1.164225e+02  -3.283977e+02
   4.050932e+02  -7.587228e+01
   2.572154e+02   1.755315e+02
  -4.023438e+01   5.386281e+01
  -7.706830e+01  -1.480716e+02
   1.525896e+02  -1.279806e+02
   3.076137e+02   9.204934e+01
   1.042132e+02   2.943733e+02
  -2.087761e+02   2.668143e+02
  -3.508228e+02   9.099936e+01
  -2.517999e+02  -7.039633e+01
   1.814186e+01  -2.317320e+02
   2.793944e+02  -3.152173e+02
   3.540243e+02  -2.524139e+02
   2.746872e+02   1.574343e+02
   7.337661e+01   3.920365e+02
  -6.623527e+01   3.682020e+02
  -8.153980e+01   1.018560e+02
   2.016761e+01   5.650270e+01
  -6.968328e+01   1.319456e+02
  -1.985400e+02   1.189674e+02
  -2.736517e+02  -6.227425e+01
  -1.437640e+02  -2.059434e+02
   5.472010e+01  -2.250487e+02
   2.115220e+02   5.963825e+01
   1.809912e+02   2.374423e+02
  -5.999293e+01   2.710226e+02
  -2.748904e+02   8.315804e+01
  -3.446835e+02  -1.523030e+02
  -1.822337e+02  -3.130924e+02
   7.571705e+01  -2.662021e+02
   2.069272e+02  -1.642036e+02
   1.162815e+02  -2.096103e+01
   9.640162e+01  -3.695888e+01
   2.297820e+02  -7.288236e+01
   3.851112e+02   7.208136e+01
   3.558308e+02   3.016338e+02
   1.422695e+00   4.673095e+02
  -3.610747e+02   3.891351e+02
  -4.934219e+02   1.761267e+02
  -3.264005e+02  -8.565390e+01
  -2.944220e+01  -2.992716e+02
   1.332146e+02  -2.416638e+02
   1.031950e+02  -7.537409e+01
  -5.108967e+01   7.179306e+01
  -1.823566e+02   1.018015e+01
  -6.706325e+01  -1.525251e+02
   1.236140e+02  -1.278315e+02
   1.350291e+02   5.609735e+01
   7.851186e-01   2.032012e+02
  -2.056491e+02   1.792873e+01
  -1.918578e+02  -2.800659e+02
   7.434685e+00  -3.629669e+02
   1.975973e+02  -2.445420e+02
   3.548654e+02   1.019718e+02
   2.862798e+02   2.416411e+02
   9.535549e+01   2.987312e+02
  -1.488126e+02   1.476466e+02
  -1.426312e+02   2.767502e+01
  -2.897579e+01  -2.286006e+01
   9.929536e+01   3.077120e+01
  -2.856289e+01   1.010271e+02
  -1.557682e+02   6.611790e+01
  -1.612484e+02  -5.023075e+01
  -1.214707e+01  -9.550309e+01
   1.111724e+02   7.125545e+00
   3.277722e+01   9.113823e+01
  -1.215130e+02   7.820334e+01
  -2.804118e+02   1.159605e+01
  -2.474157e+02  -1.601055e+02
  -2.729669e+01  -2.432838e+02
   2.144499e+02  -2.650640e+02
   2.865949e+02  -1.608565e+02
   1.666656e+02   2.485005e+01
  -4.628240e+01   6.784666e+01
  -8.237429e+01   1.320970e+01
   7.206884e+01  -9.004188e+01
   2.523532e+02  -3.964453e+01
   2.493107e+02   1.171561e+02
   8.023265e+01   2.071996e+02
  -7.293847e+01   1.523550e+02
  -1.819252e+02   3.932923e+01
  -6.580783e+01  -1.133000e+01
   1.839776e+01   3.176464e+01
   3.356522e+01   1.354518e+02
  -1.036038e+02   1.284107e+02
  -2.508582e+02  -1.605939e+01
  -2.488028e+02  -1.292536e+02
  -5.832244e+01  -2.389411e+02
   1.345960e+02  -1.468345e+02
   1.761145e+02   7.605528e+00
   4.798318e+01   1.314399e+02
  -4.589030e+01   9.269701e+01
  -1.687321e+01   4.112113e+01
  -2.102745e+01   1.380784e+01
   4.932752e+01  -4.528522e+01
   4.372157e+00  -1.763008e+01
  -8.847981e+01  -1.037820e+00
  -6.587711e+01  -6.834534e+01
  -6.430380e+00  -1.879855e+02
   1.723718e+02  -1.450376e+02
   2.249062e+02  -2.431073e+01
   1.813043e+02   1.401529e+02
   4.006759e+01   2.465607e+02
  -8.371846e+01   1.621928e+02
  -1.431250e+02   4.077512e+01
  -7.234016e+01   1.393818e+01
  -3.514101e+01  -6.022689e+01
  -5.678224e+01  -2.252257e+01
  -1.360926e+02   2.741125e+01
  -2.461235e+01  -2.974639e+01
   8.154142e+01  -9.018296e+01
   1.166652e+02  -9.670180e+01
   9.724105e+01   4.443622e+01
  -5.716996e+00   1.152420e+02
  -1.480870e+02   6.531449e+01
  -2.284157e+02  -5.554275e+01
  -8.807609e+01  -2.182951e+02
   1.106628e+02  -2.147385e+02
   2.779339e+02  -1.430141e+02
   2.737048e+02   8.381696e+01
   1.811562e+02   1.604887e+02
   3.310187e+01   1.604468e+02
  -3.519755e+01   9.250574e+01
  -1.226764e+01   9.644448e+01
  -6.434303e+01   8.411171e+01
  -1.193422e+02   9.658502e+01
  -1.543144e+02  -1.724854e+01
  -1.366966e+02  -1.384742e+02
  -1.079641e+02  -2.348495e+02
   8.723411e+01  -1.636364e+02
   1.464505e+02  -3.571288e+01
   1.272816e+02   7.638863e+01
   3.531474e+00   1.301378e+02
  -9.005121e+01   8.980868e+01
  -3.680094e+01   2.203820e+00
   1.732000e+01  -1.004665e+01
   3.914723e+00  -1.340759e+01
  -1.272894e+01  -6.678763e+01
  -8.207718e+01  -1.408906e+01
   1.838893e+01  -5.467371e+01
   4.046387e+01  -5.047346e+01
   1.467521e+02  -1.934641e+01
   1.511516e+02   6.176154e+01
   3.326435e+01   9.857132e+01
  -1.090109e+02   6.518295e+01
  -1.442491e+02   7.095894e+01
  -4.938922e+01   2.901236e+00
   5.777437e+01  -1.067749e+01
   2.342153e+01   5.407835e+01
   1.763277e+01   5.580748e+01
  -7.121118e+01   6.381642e+01
  -9.470448e+01   2.717384e+00
  -4.816760e+01  -7.766072e+01
  -1.969006e+01  -4.367892e+01
  -3.169470e+01   2.813020e+01
  -8.254294e+01   8.353450e+00
  -3.883534e+01  -5.368384e+01
   1.210780e+01  -1.592477e+02
   1.105303e+02  -1.305758e+02
   2.205749e+02  -2.145913e+01
   1.727639e+02   9.524092e+01
   1.346156e+00   1.424309e+02
  -1.215343e+02   7.975604e+01
  -7.215388e+01  -1.189143e+01
   2.140593e+01  -1.588115e+01
   1.403491e+02   8.475665e+00
   5.785928e+01   8.167690e+01
  -6.494095e+01   1.232836e+02
  -1.985409e+02   1.108016e+02
  -1.296794e+02  -3.259335e+01
  -6.656148e+01  -1.293011e+02
   5.039245e+01  -8.934556e+01
   2.804476e+01   1.409017e+01
  -9.161740e+01   1.279344e+01
  -1.272549e+02  -4.339441e+01
  -5.908588e+01  -1.184158e+02
   9.071043e+01  -1.406965e+02
   1.582395e+02  -7.590363e+01
   1.724582e+02   9.418858e+01
  -6.491313e-01   1.502892e+02
  -7.137635e+01   1.300512e+02
  -9.793841e+01  -1.621873e+01
  -5.499585e+01  -6.219260e+01
  -1.086409e+00  -9.958005e+01
   7.861108e+01  -2.132837e+01
   7.346141e+00   6.066929e+01
   3.541623e+00  -2.593930e+01
  -4.782668e+01   1.354927e+01
   8.853273e+00   4.817864e+01
   6.382211e+01   1.067732e+02
   1.986411e+01   1.021113e+02
  -4.572730e+01   2.906453e+01
  -1.666524e+02   5.885554e+00
  -1.194575e+02  -9.510284e+01
  -1.760388e+01  -4.327928e+01
   6.108881e+01  -4.008940e+00
   7.492823e+01  -3.038609e+01
  -2.736108e-01   2.554722e+01
  -1.905133e+00   4.081416e+00
   9.878509e+00  -1.980058e+01
   3.151989e+01  -1.699498e+01
  -9.560479e+00   1.575685e+00
  -5.600898e+01   3.270215e+01
  -6.464515e+01  -1.184842e+01
   2.064629e+01  -2.170329e+01
   1.151992e+02  -9.978758e+01
   1.785320e+02  -7.122450e+01
   1.554445e+02   4.748540e+01
   6.613636e+00   1.477928e+02
  -7.742025e+01   1.372752e+02
  -6.330463e+01   7.549694e+01
  -7.608376e+01  -4.268421e+01
  -1.295258e+01  -2.431057e+01
   2.043906e+01  -2.770010e+01
  -1.757372e+01  -3.461203e+01
  -6.764501e+01  -2.843636e+00
  -3.400536e+01  -8.052572e+01
   5.855838e+01  -4.175952e+01
   9.095927e+01   1.877031e+01
   7.891123e+01   1.300015e+02
  -6.018943e+00   1.216418e+02
  -6.029685e+01   4.244301e+01
  -1.074732e+02  -7.089344e+01
  -3.717371e+01  -1.370901e+02
   1.045788e+02  -5.789466e+01
   1.187179e+02   4.610019e+01
   4.494959e+01   5.006091e+01
   8.967352e+00   9.251221e+01
  -1.433916e+01   8.057799e+01
   3.635429e+01   1.321318e+01
   3.997313e+01   1.533523e+01
  -3.616482e+00   1.450193e+01
  -5.169815e+01   8.229808e+01
  -9.726551e+01   7.223943e+01
  -2.545811e+01   1.529615e+01
   4.554384e+01  -9.187705e+01
   8.959693e+01  -1.107779e+02
   4.323712e+01   1.909098e+00
  -2.906267e+01   9.220644e+01
  -3.756537e+01   4.792578e+01
  -4.212939e+01  -5.686152e+01
  -2.309949e+01  -3.550848e+01
   5.222694e+01  -1.758095e+01
   4.657645e+01   3.150985e+01
   4.074950e+01   2.624602e+01
   2.511524e+00   1.060169e+01
   1.094059e+01  -1.087679e+00
   1.601801e+01  -2.252203e+01
   3.568722e+00   6.075148e+01
   2.637746e+00   9.693270e+01
  -5.829997e+01   3.203059e+01
  -6.226757e+01  -2.566351e+01
  -9.005702e+00  -9.192256e+01
   8.891475e+01  -6.051263e+01
   9.753621e+01   4.565780e+01
   7.865196e+00   4.890228e+01
  -6.453905e+01   6.645473e+01
  -1.052605e+02  -3.904869e+01
  -4.096854e+01  -5.458947e+01
   4.018035e+01  -4.476029e+01
   6.637284e+01  -1.411146e+01
   4.138869e+01   3.015324e+01
  -5.162379e+01   2.396031e+01
  -4.050701e+01  -3.149699e+01
   3.693034e+01  -2.081469e+01
   8.838982e+01  -3.772262e+01
