
 $NMID
 id='ANONYMOUS ', fmtdat='(2E16.6)'
 volume=1.0
 tramp=1.0
 $END
   3.972111e+03  -9.126831e+01
   2.524966e+03   2.203963e+03
  -4.674902e+02   2.493350e+03
  -2.026993e+03   1.057150e+03
  -9.887072e+02  -4.187857e+02
   5.236435e+02  -6.495900e+02
   8.358329e+02   3.023446e+02
   4.314937e+01   9.234093e+02
  -6.955503e+02   8.937734e+02
  -9.420199e+02   9.479493e+01
  -4.803292e+02  -7.988886e+02
   1.525954e+02  -8.904593e+02
   4.959051e+02  -1.799415e+02
   3.853694e+02   5.762036e+02
  -2.851576e+02   7.363752e+02
  -5.557905e+02  -4.598130e+01
  -3.339148e+02  -6.513222e+02
   1.724266e+02  -6.646178e+02
   5.776339e+02  -1.617928e+02
   4.078735e+02   2.756857e+02
   7.249608e+01   4.608085e+02
  -2.459252e+02   2.713009e+02
  -2.276770e+02   8.837634e+01
   1.724148e+02  -8.841877e+01
   3.871448e+02   1.789397e+02
   1.788657e+02   4.636079e+02
  -4.387089e+02   3.450198e+02
  -7.749917e+02  -7.220513e+01
  -4.328676e+02  -4.862116e+02
   3.362078e+02  -3.566391e+02
   6.988186e+02   5.302995e+01
   3.241209e+02   3.989061e+02
  -2.751510e+02   4.910022e+02
  -5.122661e+02   2.301219e+02
  -4.332809e+02  -1.931480e+02
  -9.290072e+01  -4.533387e+02
   1.404637e+02  -3.116130e+02
   1.493994e+02   1.319376e+02
  -1.370625e+02   3.661840e+02
  -3.879613e+02  -3.156720e+01
  -2.136038e+02  -6.664306e+02
   2.707043e+02  -7.135255e+02
   5.315095e+02  -4.299820e+01
   2.798277e+02   4.751845e+02
  -2.035697e+02   3.151408e+02
  -3.253573e+02  -2.746613e+02
   4.793001e+01  -5.015261e+02
   5.510064e+02  -1.422437e+02
   5.786133e+02   4.140766e+02
   1.533458e+02   5.490447e+02
  -3.341400e+02   3.375049e+02
  -6.131460e+02  -1.009756e+02
  -3.366743e+02  -3.665039e+02
   1.716434e+02  -3.758872e+02
   4.953116e+02  -4.607714e+01
   2.078757e+02   2.088235e+02
  -8.779206e+01   1.333651e+02
  -1.632397e+02  -1.141705e+02
   1.346229e+02  -1.832934e+02
   3.103338e+02   5.363027e+01
   1.574207e+02   2.589047e+02
  -1.859435e+02   2.876860e+02
  -3.065142e+02   1.050696e+02
  -2.241709e+02  -7.992685e+01
   6.463273e+01  -2.642288e+02
   2.428066e+02  -3.267605e+02
   3.045125e+02  -1.856813e+02
   2.533993e+02   1.639085e+02
   6.365806e+01   3.834911e+02
  -9.397921e+01   3.528600e+02
  -1.130943e+02   9.340514e+01
  -1.097650e+01   2.222555e+01
  -3.256240e+01   1.167016e+02
  -1.783560e+02   9.892761e+01
  -2.421912e+02  -2.821872e+01
  -1.252938e+02  -2.198090e+02
   2.694171e+01  -2.820170e+02
   1.610938e+02  -2.331541e+01
   1.752132e+02   2.355367e+02
  -3.381965e+01   2.924652e+02
  -2.726962e+02   8.971512e+01
  -3.621799e+02  -1.559899e+02
  -1.646251e+02  -3.772435e+02
   8.413713e+01  -2.927302e+02
   2.155992e+02  -1.861214e+02
   1.180941e+02  -6.389978e+01
   1.003058e+02  -5.100763e+01
   2.334845e+02  -5.575893e+01
   3.811638e+02   6.143102e+01
   3.371806e+02   3.079381e+02
  -9.891521e+00   4.463855e+02
  -3.839332e+02   3.937048e+02
  -5.101706e+02   1.907362e+02
  -2.826136e+02  -1.216313e+02
  -2.011069e+01  -2.735899e+02
   1.523818e+02  -2.140548e+02
   6.764135e-02  -2.781778e+01
  -1.566010e+02   1.006838e+02
  -1.793016e+02  -3.113851e+01
  -3.912208e+01  -1.340295e+02
   9.024647e+01  -1.357894e+02
   1.603215e+02   4.726815e+01
  -1.600538e+01   1.457754e+02
  -1.326414e+02   1.310981e+01
  -1.599042e+02  -2.244441e+02
   4.358157e+01  -3.410409e+02
   2.271840e+02  -2.006910e+02
   3.330035e+02   6.121275e+01
   2.561773e+02   2.808779e+02
   7.307184e+01   2.617446e+02
  -1.637287e+02   1.438938e+02
  -1.954894e+02   1.154392e+01
  -8.334858e+01  -4.146881e+01
   7.331861e+01   3.193981e+01
   1.539430e+01   8.930808e+01
  -1.231592e+02   6.976465e+01
  -1.643921e+02  -7.263270e+00
  -5.727421e+01  -5.335592e+01
   7.718780e+01  -7.868201e-01
   6.638005e+01   7.221646e+01
  -1.315006e+02   1.039377e+02
  -3.069464e+02  -2.687296e+01
  -2.902091e+02  -1.562127e+02
  -5.730470e+01  -2.572808e+02
   2.126445e+02  -2.172601e+02
   2.706607e+02  -1.178663e+02
   1.233596e+02   3.559151e+01
  -4.709405e+01   8.865737e+01
  -4.996562e+01   6.712246e+00
  -1.593005e+00  -1.037343e+02
   2.047495e+02  -6.832173e+01
   1.860349e+02   1.007257e+02
   5.003899e+01   1.873522e+02
  -8.207961e+01   1.490001e+02
  -1.353434e+02   1.791419e+01
  -6.435678e+01  -6.570802e+01
   4.954712e+01  -2.444771e+00
   2.006693e+01   1.546605e+02
  -6.320314e+01   1.860196e+02
  -1.510273e+02   3.841833e+01
  -1.545500e+02  -1.174835e+02
  -2.592954e+01  -1.819538e+02
   1.559038e+02  -1.309498e+02
   1.704895e+02   6.750659e+00
   4.398391e+01   7.708103e+01
  -4.894389e+01   1.516541e+02
  -7.521709e+01   7.071747e+01
  -6.954794e+01   3.797682e+00
  -6.458692e-02  -5.194612e+01
  -2.458785e+01   6.126528e+01
  -5.260741e+01  -1.890117e+01
  -8.825384e+01  -1.008993e+02
  -5.603628e+01  -2.247840e+02
   1.547644e+02  -1.801787e+02
   2.419641e+02  -9.596987e+00
   1.897142e+02   1.571627e+02
   1.299517e+01   2.145168e+02
  -1.210786e+02   1.462658e+02
  -1.541585e+02   1.952424e+01
  -6.941957e+01  -1.482957e+01
  -4.483827e+01  -4.198741e+00
  -2.743970e+01  -7.221535e+00
  -8.299053e+01   3.587420e+01
  -4.399325e+01  -2.128436e+01
   7.494220e+01  -7.154314e+01
   8.653721e+01  -7.826814e+01
   9.307432e+01   4.462999e+01
   1.535771e+01   1.142942e+02
  -1.548189e+02   8.368574e+01
  -2.024892e+02  -7.869497e+01
  -1.209777e+02  -2.133431e+02
   1.174784e+02  -2.299579e+02
   2.662123e+02  -7.942760e+01
   2.594263e+02   3.758068e+01
   1.170740e+02   1.292938e+02
  -3.846121e+01   1.615166e+02
  -5.366871e+01   8.119280e+01
  -5.164293e+01   8.269736e+01
  -6.892069e+01   8.546301e+01
  -1.082072e+02   5.906693e+01
  -1.614543e+02  -1.171935e+01
  -1.562690e+02  -1.364475e+02
  -2.768910e+01  -2.452990e+02
   8.780907e+01  -2.050843e+02
   2.085605e+02  -2.439733e+01
   1.182274e+02   1.145546e+02
   1.658619e+01   1.506488e+02
  -9.839908e+01   7.162074e+01
  -8.007735e+01   1.191445e+01
   3.206909e+01  -8.290318e+01
   8.008861e+00  -5.179634e+01
  -3.079079e+01  -4.374494e+01
  -6.108888e+01  -1.843629e+01
  -6.713925e+01  -1.274054e+01
   7.627538e+01  -2.341962e+01
   1.463647e+02  -2.974146e+01
   1.647621e+02  -1.356385e+01
   4.087446e+01   7.740780e+01
  -1.081998e+02   5.799224e+01
  -1.573439e+02   2.804844e+01
  -5.068647e+01  -1.868665e+01
   5.439429e+01  -1.916159e+01
   6.978771e+01   4.658708e+01
  -1.985363e+01   7.543119e+01
  -3.240474e+01   5.045175e+01
  -5.734984e+01  -3.807216e+01
  -5.030442e+01  -7.404313e+01
  -4.578709e+01  -5.634274e+01
   3.072723e+00  -2.394618e+00
  -5.101772e+00   1.546367e+01
  -8.134381e+00  -3.644159e+01
   8.651732e+00  -1.229593e+02
   1.010923e+02  -9.661136e+01
   1.171450e+02  -1.660177e+01
   9.175259e+01   9.475252e+01
  -3.720227e+01   1.186955e+02
  -1.105777e+02   6.765758e+01
  -1.042553e+02  -2.450711e+01
   2.791676e+01  -9.688092e+00
   1.861599e+02   5.807291e+01
   8.263546e+01   7.799154e+01
  -9.218912e+01   2.601131e+01
  -1.933749e+02   5.654805e+01
  -1.431715e+02  -6.921856e+01
  -2.215697e+01  -6.665606e+01
   1.125783e+02  -8.937679e+01
   6.952304e+01  -1.651023e+01
  -9.259528e+00  -2.633815e+00
  -8.742326e+01  -3.746571e+01
  -6.938856e+01  -1.143450e+02
   7.205334e+01  -1.620641e+02
   1.641738e+02  -5.345475e+01
   1.553136e+02   1.623620e+02
  -2.491666e+01   2.186109e+02
  -9.356000e+01   1.309469e+02
  -9.430616e+01  -8.445269e+00
  -5.450844e+01  -1.240243e+02
   4.378039e+01  -1.255877e+02
   5.891921e+01  -2.288670e+01
   4.769850e+01   4.464298e+01
   3.998438e+01   2.782771e+01
  -6.604717e+00  -9.152147e+00
   8.176169e+00   2.143205e+01
   3.782138e+01   1.157949e+02
   6.521376e+01   1.213875e+02
  -4.470709e+01   5.244167e+01
  -1.295927e+02  -6.081710e+01
  -1.764101e+02  -1.000927e+02
  -8.226886e+00  -9.734897e+01
   1.456783e+02  -1.562837e+01
   1.029006e+02  -6.652021e+00
  -3.649274e+01   2.073211e+01
  -6.315717e+01   1.675516e+01
  -5.987372e+00   1.694264e+01
  -2.522342e+00   3.455261e+01
  -3.075521e+01  -3.738280e+01
  -4.913376e+01  -2.100829e+01
  -9.886800e+01  -1.597377e+00
   1.068588e+01  -9.549823e+01
   1.372486e+02  -1.249466e+02
   1.559100e+02  -4.821584e+01
   1.353746e+02   4.299959e+01
   1.119652e+01   1.627088e+02
  -8.643502e+01   1.713892e+02
  -1.022088e+02   6.574945e+01
  -7.453826e+01  -6.989895e+00
  -1.643244e+01  -6.401912e+01
   2.649139e+01   6.042907e+00
  -2.206611e+01   1.527041e+01
  -6.054441e+01  -6.356496e+01
  -4.523556e+01  -6.128306e+01
   5.463280e+01  -1.615167e+02
   8.598484e+01   2.834207e+00
   7.056254e+01   9.734471e+01
   6.718692e+01   7.733461e+01
  -3.582945e+01   3.763745e+01
  -1.087084e+02  -5.609098e+01
  -8.031786e+01  -9.973667e+01
   5.930412e+01  -7.147579e+01
   6.583598e+01   1.839558e+01
   2.014837e+01   2.325477e+01
  -5.115792e+01   3.363494e+01
  -3.385225e+01   1.855624e+01
   3.421902e+01  -3.377687e+01
   8.641246e+01   2.736008e+01
   2.962073e+01   9.518842e+01
  -5.883066e+01   4.290319e+01
  -8.437785e+01   3.003874e+01
  -3.142335e+01  -1.929585e+01
   7.008612e+01  -1.054124e+02
   3.329222e+01  -5.767219e+01
   1.164652e+01  -1.027087e+01
  -2.395194e+01   4.051243e+01
  -4.565355e+01   1.489228e+01
  -1.683540e+01  -5.332439e+01
  -1.562682e+00  -4.402883e+01
   3.215243e+01  -5.472006e+01
   3.516772e+01   3.454704e+01
   6.983084e+01   3.956078e+01
   1.335095e+01  -5.562355e+00
   2.420403e+00  -2.199275e+01
   2.199930e+01  -6.842628e+00
   1.235650e+01   5.159418e+01
  -1.233163e+00   7.898633e+01
  -4.119688e+01  -8.426077e-01
  -4.180708e+01  -3.925221e+01
  -3.382781e+01  -6.472804e+01
   6.105868e+01  -4.856458e+01
   6.633792e+01   2.924058e+01
  -3.488430e+00   6.442175e+01
  -4.422180e+01   7.002131e+01
  -1.267597e+02  -1.421434e+01
  -6.747332e+01  -5.472155e+01
   3.321039e+01  -5.457298e+01
   1.127055e+02  -4.486069e+01
   2.817212e+01   1.212798e+01
   2.223615e+01   1.445868e+01
  -4.073646e+01   2.015634e+01
   2.530436e+01  -2.528051e+01
   1.118410e+02  -9.496876e+00
