
 $NMID
 id='ANONYMOUS ', fmtdat='(2E16.6)'
 volume=1.0
 tramp=1.0
 $END
  -3.061663e+03   1.852789e+01
  -1.949886e+03  -1.649741e+03
   6.876257e+01  -1.889344e+03
   1.075955e+03  -1.336154e+03
   8.867268e+02  -2.771445e+02
   1.270662e+02   1.473774e+01
  -2.274164e+02  -6.084465e+01
  -4.028572e+01  -4.421614e+02
   4.325423e+02  -5.191519e+02
   5.629094e+02   8.932200e+00
   3.371838e+02   4.301406e+02
  -2.535573e+01   5.540005e+02
  -3.255045e+02   5.898191e+01
  -1.753841e+02  -3.292681e+02
   8.249029e+01  -4.509864e+02
   2.779641e+02  -7.636524e+01
   2.201939e+02   4.763931e+02
  -1.416964e+02   5.733734e+02
  -4.268812e+02   2.135143e+02
  -4.378641e+02  -1.349533e+02
  -1.799800e+02  -3.797706e+02
   6.064973e+01  -1.852247e+02
   7.422761e+01  -9.771401e+01
  -1.721458e+02  -1.682249e+02
  -2.595115e+02  -3.366348e+02
  -9.867394e+00  -4.187709e+02
   4.766983e+02  -1.528639e+02
   6.150779e+02   1.806079e+02
   2.313072e+02   4.125293e+02
  -3.371969e+02   1.796048e+02
  -4.054485e+02  -1.593151e+02
  -1.755146e+02  -3.196444e+02
   2.206489e+02  -2.858967e+02
   4.297508e+02  -9.108470e+01
   3.072377e+02   1.607012e+02
   1.435993e+02   2.263799e+02
   4.401573e+01   2.104778e+02
   7.621706e+01  -6.655028e+00
   1.336830e+02  -9.230530e+01
   1.493781e+02   2.074734e+02
   1.901443e+01   4.347953e+02
  -2.126580e+02   3.558197e+02
  -2.745848e+02  -3.104572e+01
  -5.989322e+01  -2.348173e+02
   8.288334e+01  -1.139078e+02
   1.834629e+02   2.462463e+02
  -1.181399e+02   3.540838e+02
  -4.015085e+02   3.796084e+01
  -4.584883e+02  -3.153751e+02
  -1.259862e+02  -4.710585e+02
   2.259668e+02  -2.406844e+02
   4.615262e+02   8.253963e+01
   3.304358e+02   2.110519e+02
  -3.062498e+01   1.994972e+02
  -2.776471e+02   1.013310e+02
  -1.806468e+02   7.493179e+00
  -7.265139e+01   4.222322e+01
   6.538798e+01   8.271074e+01
  -9.246475e+01   4.148992e+01
  -1.769122e+02  -3.708150e+01
  -1.067827e+02  -2.059156e+02
   1.418521e+02  -2.504568e+02
   3.569905e+02  -1.638940e+02
   2.703970e+02   9.821178e+01
  -2.954160e+01   2.942199e+02
  -2.825214e+02   3.590738e+02
  -3.670121e+02   1.017716e+02
  -1.902843e+02  -2.167854e+02
  -8.368311e+01  -3.743574e+02
   2.953997e+01  -3.036019e+02
  -1.810180e+01  -2.227071e+02
   2.749060e+01  -1.291140e+02
   1.752557e+02  -9.656972e+01
   2.817588e+02  -5.051228e+01
   2.624186e+02   1.225108e+02
   1.021368e+02   2.964809e+02
  -1.152676e+02   1.955201e+02
  -1.878153e+02  -9.451402e+00
  -1.553223e+02  -2.325156e+02
   4.617999e+01  -1.952477e+02
   2.100198e+02  -3.065510e+01
   3.144625e+02   1.980491e+02
   1.811692e+02   2.926818e+02
  -9.506982e+00   2.687192e+02
  -1.495682e+02   1.460518e+02
  -1.524359e+02   1.066459e+02
  -1.700547e+02   7.089718e+01
  -2.945670e+02   5.507833e+01
  -4.226387e+02  -1.203234e+02
  -2.974775e+02  -3.307813e+02
   5.258712e+01  -4.896114e+02
   3.951672e+02  -4.102475e+02
   4.827359e+02  -1.675984e+02
   2.479546e+02   1.188495e+02
   1.371345e+01   2.509800e+02
  -1.139192e+02   1.849649e+02
  -1.427067e+01   7.025649e+01
   1.310865e+02   1.127463e+01
   1.355219e+02   2.934098e+01
  -2.320235e+01   1.079361e+02
  -1.103832e+02   7.179027e+01
  -7.719381e+01  -4.260405e+01
   6.304037e+01  -8.220395e+01
   1.692106e+02   4.731159e+01
   1.317282e+02   2.856633e+02
  -4.092112e+01   3.649664e+02
  -1.924744e+02   2.375853e+02
  -3.521077e+02  -3.615972e+01
  -2.508982e+02  -2.709061e+02
  -7.533064e+01  -3.037795e+02
   8.774613e+01  -1.444066e+02
   1.273036e+02  -8.898352e+00
   5.067120e+01   2.061683e+01
   9.176524e+00  -3.867815e+01
  -4.578044e+00  -9.887259e+01
   8.887053e+01  -2.932827e+01
   1.033790e+02   4.307481e+01
  -1.009905e+01   3.424280e+01
  -7.908648e+01  -3.983503e+01
  -7.181325e+01  -1.348398e+02
   1.367446e+02  -1.220634e+02
   3.316268e+02   4.115903e+01
   2.935946e+02   1.596881e+02
   3.381005e+01   2.657665e+02
  -1.820804e+02   2.243094e+02
  -2.374036e+02   9.954652e+01
  -1.414921e+02  -5.178282e+01
   6.528702e+00  -4.149691e+01
   8.790598e+01   3.597447e+01
  -3.501167e+01   4.700338e+01
  -1.873082e+02   2.799894e+01
  -1.811603e+02  -8.538932e+01
  -5.456670e+01  -1.504791e+02
   6.893362e+01  -1.031105e+02
   1.098975e+02   7.890817e+00
   5.442404e+01   1.871696e+01
  -2.940953e+01  -3.017110e+01
   2.974780e+01  -1.180337e+02
   1.179003e+02  -1.297593e+02
   2.421609e+02  -1.168758e+01
   1.647145e+02   1.273711e+02
   5.249055e+00   1.976242e+02
  -1.630398e+02   1.743383e+02
  -1.852303e+02   3.627803e+01
  -4.981603e+01  -7.048068e+01
   2.958442e+01  -6.428197e+01
   9.627623e+01  -2.608934e+01
   1.990816e+01   2.524522e+01
  -2.362411e+01  -1.737569e+01
  -1.116911e+01  -4.833571e+01
   4.853180e+01  -5.802186e+00
   1.120356e+02   1.113397e+02
  -1.855010e+01   1.868168e+02
  -1.409732e+02   1.345674e+02
  -2.532049e+02   2.805154e+01
  -1.561056e+02  -1.710769e+02
   1.010044e+01  -2.121804e+02
   9.750709e+01  -1.458596e+02
   9.906734e+01  -3.372827e+00
   1.052562e+02   4.401148e+01
   1.584477e+01   1.477858e+01
   8.104708e+01  -1.830506e+01
   8.018339e+01   1.892627e-01
   7.507574e+01   7.566040e+01
  -1.724037e+01   1.401361e+02
  -9.272739e+01   5.776001e+01
  -1.251131e+02  -4.370475e+01
   2.302818e+01  -1.489813e+02
   1.827534e+02  -7.522089e+01
   2.081126e+02   9.158598e+01
   9.524417e+01   2.057008e+02
  -9.221781e+01   2.381432e+02
  -2.717112e+02   3.490547e+01
  -2.441315e+02  -6.516473e+01
  -1.194995e+02  -1.984520e+02
   2.105078e+01  -1.383263e+02
   7.625182e+01  -8.102588e+01
   6.551276e+01  -1.346495e+02
   5.417180e+01  -1.075568e+02
   1.125708e+02  -7.496248e+01
   1.672253e+02   1.952793e+01
   1.208022e+02   1.945105e+02
   1.471259e+01   2.246950e+02
  -9.588067e+01   1.761088e+02
  -1.975364e+02  -1.535089e+01
  -1.192584e+02  -1.301750e+02
  -2.172799e+01  -1.672153e+02
   1.196411e+02  -8.258951e+01
   9.893618e+01   3.568651e+01
  -3.782628e+00   5.169523e+01
  -6.447034e+01   5.980140e+01
  -2.663416e+01   4.007165e+01
   9.517625e+01   3.032401e+01
   4.983333e+01   6.059846e+01
  -5.866965e+01   5.928270e+01
  -1.421705e+02   3.050564e+01
  -1.133725e+02  -6.861775e+01
   3.194060e+01  -9.249520e+01
   1.435899e+02  -8.710654e+01
   1.708821e+02  -1.262079e+01
   4.370910e+01   1.405770e+00
  -7.232463e+01   3.161447e+01
  -4.126980e+01  -1.597597e+01
   2.255069e+01  -7.241416e+01
   7.755696e+01  -4.658631e+01
   6.540394e+01   2.999121e+01
   6.224795e+01   5.683159e+01
   3.754952e+01   7.088835e+01
   7.166412e+01  -5.844123e+00
   1.004813e+02   1.185034e+01
   5.569412e+01   3.079462e+01
   5.403703e+00   1.496748e+02
  -1.147625e+02   1.428814e+02
  -1.811151e+02   2.239782e+01
  -1.265214e+02  -7.448289e+01
  -1.374429e+01  -1.475955e+02
   7.975231e+01  -5.977402e+01
   4.680437e+01   2.306724e+00
  -8.310939e+01   2.180511e+01
  -1.146633e+02  -4.652397e+01
  -8.304989e+01  -1.115197e+02
   7.441845e+01  -6.603384e+01
   1.805841e+02  -3.167880e+01
   1.550080e+02   5.014612e+01
   4.655567e+01   4.173405e+01
  -9.626240e+01   5.268700e+01
  -5.907343e+01   2.303396e+01
   3.071342e+01  -4.866063e+01
   1.065678e+02  -6.517874e+00
   1.861126e+01   9.762419e+01
  -7.065488e+01   1.531660e+02
  -1.061194e+02   9.239238e+01
  -7.639819e+01  -4.153884e+01
   3.489608e+01  -1.530980e+02
   6.189252e+01  -1.124679e+02
   6.268486e+01   1.714588e+01
   4.419925e+01   1.146257e+02
  -3.004133e+01   9.038436e+01
  -4.441983e+01  -1.865119e+01
  -3.935164e+01  -3.668118e+01
  -1.898683e+01  -5.414991e+00
  -1.539926e+01  -4.722893e-02
  -3.204786e+01  -4.893402e+01
  -6.450055e+01  -5.367292e+01
   3.945436e+00  -1.334591e+02
   7.114853e+01  -6.444515e+01
   1.591042e+02   2.439129e+01
   1.432610e+02   9.010863e+01
   2.485369e+00   5.698697e+01
  -8.774497e+01  -1.072189e+01
  -1.028169e+02  -4.136396e+01
  -3.800494e+01  -3.167265e+01
   3.852202e+01  -3.448963e+01
   1.015132e+01  -2.783200e+01
   4.279573e+00   6.548158e-01
  -6.465068e+00  -4.788802e+00
   8.153006e+01   9.667486e+00
   1.078570e+02   2.752392e+01
   6.611851e+00   7.857178e+01
  -1.363450e+02   1.684215e+02
  -1.911299e+02   8.286738e+01
  -1.604402e+02  -7.365094e+01
  -1.807891e+01  -1.636980e+02
   6.570196e+01  -2.041240e+02
   9.848801e+01  -1.081325e+02
   5.914552e+01   6.687073e+00
   2.191736e+01   3.517150e+01
   3.233759e+00   6.815329e+00
   3.142086e+01  -3.343383e+01
   2.072314e+01   6.252705e+01
   1.161663e+00   8.654918e+01
  -3.139997e+01   7.437969e+01
  -1.079450e+02  -2.103870e+01
  -5.855803e+01  -1.263566e+02
  -3.721070e+01  -1.079418e+02
   5.351451e+01  -5.745847e+01
   1.393274e+02   8.151992e+01
   7.141522e+01   1.139964e+02
  -3.975858e+01   6.415428e+01
  -9.608949e+01  -2.308112e+01
  -4.502364e+01  -8.067329e+01
   7.197528e+01  -6.370959e+01
   7.861505e+01  -3.603145e+01
  -2.452428e+01   2.419304e+01
  -1.053178e+02   6.743107e+01
  -7.263425e+01  -4.308590e+01
   8.834572e+01  -9.349877e+01
   1.182530e+02  -7.974805e+01
   7.495116e+01   3.118083e+00
  -1.150017e+01   9.345979e+01
  -5.077141e+01   1.004698e+02
  -4.440915e+01   4.501990e+01
  -2.136410e+01  -5.659868e+01
   6.435157e+01  -7.571258e+01
   7.350874e+01  -2.000109e+01
   3.908725e+01   5.471344e+01
  -7.996973e+00   3.265673e+01
  -3.622284e+01   2.318863e+01
  -3.252575e+01  -1.589422e+01
  -3.934888e+01   2.715206e+01
  -2.153497e+00   4.749307e+01
   1.604200e+01   2.915827e+01
  -3.627610e+01  -2.738667e+01
  -1.355497e+01  -7.443836e+01
   5.440594e+01  -5.803997e+01
   2.622866e+01   3.478369e+01
  -1.554886e+01   7.600832e+01
  -4.328974e+01   4.171450e+01
  -3.593292e+01  -3.125748e+01
  -2.216970e+01  -3.469167e+01
   8.951250e+01  -7.076492e+01
   9.343035e+01   2.388388e+01
   3.853390e+01   3.281323e+01
  -2.119566e+01   6.079750e+01
  -8.349537e+01   1.966628e+01
  -5.639287e+00   6.932245e+00
   2.152956e+01  -1.993849e+01
   3.524425e+01   1.447698e+01
  -3.568373e+01   4.785982e+01
  -8.680127e+01   3.405893e+01
