
 $NMID
 id='ANONYMOUS ', fmtdat='(2E16.6)'
 volume=1.0
 tramp=1.0
 $END
  -3.714856e+03  -1.274458e+02
  -2.371770e+03  -1.699051e+03
   1.650451e+02  -2.077906e+03
   1.469217e+03  -1.211838e+03
   8.695603e+02   6.564275e+01
  -2.830435e+02   3.618643e+02
  -5.534078e+02  -1.580264e+02
  -2.274607e+01  -6.828467e+02
   5.673958e+02  -6.742586e+02
   7.012896e+02  -4.121771e+01
   4.251013e+02   6.209758e+02
   2.581855e+01   6.732978e+02
  -2.716400e+02   1.316437e+02
  -2.603474e+02  -4.288300e+02
   1.907328e+02  -6.495650e+02
   3.624461e+02  -4.359141e+01
   3.365355e+02   4.452299e+02
  -1.771463e+02   5.453908e+02
  -4.725737e+02   1.585351e+02
  -3.157511e+02  -2.166979e+02
  -8.962800e+01  -4.252609e+02
   1.609191e+02  -3.012905e+02
   4.635268e+01  -3.327890e+01
  -1.429019e+02  -2.401463e+01
  -3.434379e+02  -2.575025e+02
  -3.267368e+01  -3.380883e+02
   4.131427e+02  -2.750116e+02
   6.937415e+02   1.706344e+02
   2.103995e+02   4.501301e+02
  -3.062374e+02   2.425912e+02
  -5.174078e+02  -7.258566e+01
  -2.214370e+02  -4.275500e+02
   2.899384e+02  -3.729885e+02
   5.361577e+02  -1.535589e+02
   3.708782e+02   1.894877e+02
   1.151812e+02   3.981601e+02
  -5.259099e+01   2.120377e+02
   1.137917e-01  -8.706517e+01
   1.763719e+02  -2.368554e+02
   2.312333e+02   8.412156e+01
   4.531425e+01   5.584099e+02
  -3.069740e+02   4.602835e+02
  -4.110218e+02  -3.085993e+01
  -1.739768e+02  -3.315536e+02
   2.486958e+02  -2.014758e+02
   2.590495e+02   3.181521e+02
  -9.103069e+01   4.123900e+02
  -4.240005e+02   1.081802e+02
  -5.317556e+02  -3.447642e+02
  -1.925872e+02  -4.839385e+02
   3.153671e+02  -2.951345e+02
   5.136199e+02   4.246362e+01
   3.770243e+02   2.924395e+02
  -4.137598e+01   2.627945e+02
  -3.353014e+02   7.395401e+01
  -2.343413e+02  -9.007841e+01
  -1.516219e+01  -3.099983e+01
   6.486175e+01   6.086947e+01
  -1.100014e+02   1.030038e+02
  -2.518266e+02  -6.509389e+01
  -1.195067e+02  -2.034720e+02
   1.520065e+02  -2.076091e+02
   3.587923e+02  -1.785917e+02
   2.480571e+02   6.313276e+01
  -2.123138e+01   2.227746e+02
  -2.307114e+02   3.357368e+02
  -3.205280e+02   2.104775e+02
  -2.278240e+02  -1.011945e+02
  -7.642527e+00  -3.491550e+02
   9.896402e+01  -3.062794e+02
   7.608030e+01  -1.130912e+02
  -1.188307e+01   1.958444e+00
   8.271498e+01  -8.122464e+01
   2.069541e+02  -3.661744e+01
   2.635130e+02   8.433699e+01
   9.977586e+01   2.659123e+02
  -1.063651e+02   1.673400e+02
  -1.989755e+02  -6.593469e+01
  -1.112070e+02  -2.421775e+02
   4.154613e+01  -2.666090e+02
   2.373444e+02  -7.055839e+01
   2.830356e+02   1.827169e+02
   1.675636e+02   3.361308e+02
  -5.468195e+01   2.660454e+02
  -2.037150e+02   1.077616e+02
  -8.941833e+01   3.772044e+01
  -1.461987e+02   7.305380e+01
  -2.831294e+02   6.135964e+01
  -4.022954e+02  -9.089881e+01
  -3.172239e+02  -2.527102e+02
   1.531858e+01  -4.200753e+02
   3.981215e+02  -3.941463e+02
   4.671276e+02  -1.852122e+02
   2.818862e+02   7.824335e+01
   3.238037e+01   2.673848e+02
  -1.573439e+02   1.718970e+02
  -5.329520e+01   2.270609e+01
   9.181989e+01  -9.628019e+01
   1.753298e+02   4.194555e+01
   6.379242e+01   1.291084e+02
  -9.624759e+01   9.804366e+01
  -1.137475e+02  -5.365447e+01
   3.069243e+01  -1.278828e+02
   1.510447e+02  -2.223977e+01
   1.408124e+02   2.402891e+02
  -3.337094e+01   3.465384e+02
  -2.040654e+02   1.811612e+02
  -2.903761e+02  -4.199202e+01
  -2.559551e+02  -3.090710e+02
  -4.835966e+01  -2.304246e+02
   1.145812e+02  -1.078007e+02
   1.199660e+02   3.353216e+01
   7.454231e+01   4.243318e+01
  -6.063669e+01  -6.096936e+01
  -1.697607e+01  -1.318570e+02
   9.615833e+01  -5.601413e+01
   1.591000e+02   4.795481e+01
   7.542969e+01   7.405582e+01
  -8.499656e+01  -9.407445e-01
  -9.129189e+01  -1.043473e+02
   1.240744e+02  -1.231044e+02
   2.714812e+02   1.776853e+01
   2.744906e+02   1.021592e+02
   4.592350e+01   2.387522e+02
  -1.899884e+02   2.248019e+02
  -2.714580e+02   1.318945e+02
  -1.233200e+02   6.795840e+00
   2.329556e+01  -9.513275e+01
   5.899262e+01  -2.963095e+01
  -6.127441e+01   6.291225e+01
  -2.105398e+02   6.114356e+01
  -1.789978e+02  -1.021011e+02
  -2.584736e+01  -1.703450e+02
   8.104630e+01  -1.599404e+02
   1.066635e+02   5.696639e+00
   1.810768e+01   9.369625e+01
  -6.984871e+01  -1.543102e+00
  -3.584711e+01  -1.032485e+02
   3.327138e+01  -1.261958e+02
   1.763640e+02   1.167372e+01
   1.602461e+02   1.121582e+02
   9.760879e+00   1.862754e+02
  -1.021984e+02   1.417138e+02
  -2.019478e+02   4.443264e+01
  -1.027132e+02  -1.164221e+02
   3.530616e+01  -1.282273e+02
   1.930714e+01  -7.415798e+00
  -1.769676e+01   5.431706e+01
  -6.407008e+01  -1.259826e+01
   9.631980e+00  -4.815714e+01
   8.513934e+01   1.958875e+00
   8.598927e+01   3.583061e+01
   5.359910e+01   1.303519e+02
  -1.555920e+02   1.582291e+02
  -1.919363e+02   2.365954e+01
  -1.897261e+02  -1.165226e+02
  -3.120295e+01  -1.956989e+02
   9.088191e+01  -1.828763e+02
   1.320597e+02  -2.303383e+01
   4.929641e+01   4.803339e+01
   6.365549e+01   1.821360e+01
   5.613531e+01  -8.865320e+00
   1.128335e+02  -4.183507e+01
   2.829947e+01   1.382544e+01
  -5.178697e+01   1.224400e+02
  -1.025317e+02   6.457232e+01
  -8.908129e+01  -2.833405e+01
  -3.865982e+00  -1.175980e+02
   1.482947e+02  -6.471686e+01
   1.936958e+02   7.663786e+01
   1.034710e+02   2.452672e+02
  -1.279818e+02   1.804551e+02
  -2.557286e+02   7.120147e+01
  -2.568970e+02  -9.184463e+01
  -1.079462e+02  -1.643432e+02
   4.926166e+01  -1.703728e+02
   5.404761e+01  -8.711847e+01
   8.706517e+01  -4.898474e+01
   7.835072e+01  -7.306615e+01
   1.009574e+02  -4.855440e+01
   1.258720e+02  -5.602635e+00
   1.027624e+02   1.461203e+02
   3.965892e+01   2.438414e+02
  -9.755782e+01   1.980257e+02
  -1.780468e+02   5.029800e+01
  -1.367059e+02  -1.018341e+02
  -9.095245e+00  -1.182418e+02
   1.610931e+01  -9.118696e+01
   8.235828e+01   6.772896e+00
   1.345035e+01   2.592983e+01
  -3.313792e+01   1.677151e+01
   3.403618e+01   6.946763e+00
   9.193186e+01   6.164107e+00
   4.795124e+01   7.159716e+01
  -8.443878e+01   5.803618e+01
  -1.818176e+02  -1.354085e+01
  -1.623234e+02  -3.566267e+01
  -2.116925e+01  -7.961912e+01
   1.396709e+02  -9.467573e+01
   1.534047e+02   5.507155e+00
   7.761079e+01   3.481921e+01
  -6.425091e+01   8.865098e+01
  -6.482797e+01   1.247369e+01
  -3.900300e+01  -1.128956e+02
   8.700917e+01  -4.106983e+01
   4.251314e+01  -4.080027e+01
   1.325492e+01   6.501163e+01
   2.328504e+01   6.458751e+01
   5.032939e+01   2.289281e+01
   6.047046e+01  -3.016003e+01
   1.694116e+01   5.350911e+01
  -2.593432e+01   1.771007e+02
  -8.923123e+01   1.467616e+02
  -1.480318e+02   3.646479e+01
  -1.528926e+02  -8.889227e+01
   1.226024e+01  -1.412266e+02
   7.607949e+01  -6.504780e+01
   9.098703e+01   2.901915e+01
  -4.226989e+01   1.374363e+01
  -1.149623e+02  -3.381728e+01
  -6.212884e+01  -8.432064e+01
   5.684663e+01  -9.378688e+01
   1.938488e+02  -4.174777e+01
   1.604358e+02   1.688317e+01
   6.093615e+01   5.920624e+01
  -6.080776e+01   6.848870e+01
  -3.321351e+01   4.835841e+01
   4.866926e+01  -6.658277e+01
   9.199384e+01  -1.764862e+01
   5.159114e+01   5.818644e+01
  -1.122867e+02   1.649814e+02
  -1.649581e+02   8.677790e+01
  -1.402118e+02  -8.300422e+01
  -3.150548e+01  -2.287844e+02
   8.427547e+01  -1.131752e+02
   1.306572e+02   4.652215e+01
   6.579239e+01   1.464487e+02
  -6.721688e-01   1.594388e+02
  -3.803168e+01  -7.680026e+00
  -3.840490e+01  -4.378043e+01
  -4.545835e+01  -1.375115e+01
  -4.884075e+01   4.876702e+01
  -2.573424e+01  -3.947515e+01
  -5.445343e+01  -9.676477e+01
  -3.245573e+01  -1.250901e+02
   3.813759e+01  -1.514203e+01
   1.315445e+02   6.242278e+01
   1.194486e+02   4.140149e+01
   2.580678e+01   5.379126e+01
  -7.308835e+01   4.513073e+00
  -8.521824e+01   6.413681e+01
  -1.488359e+01   2.625924e+01
   3.300615e+01  -6.959547e+00
   1.566062e+01  -2.463067e+01
  -4.594344e+01   2.372523e+01
  -3.656604e+01  -2.405971e+00
   8.027226e+01   1.069071e+01
   7.759547e+01  -5.023169e+00
   1.226459e+01   5.383381e+01
  -1.134434e+02   9.638409e+01
  -1.777574e+02   6.128609e+01
  -1.441595e+02  -7.332107e+01
   1.390262e+01  -1.668463e+02
   5.847425e+01  -1.609487e+02
   1.541839e+02  -4.588028e+01
   8.032594e+01   2.678704e+00
   3.507294e+01   4.717967e+01
   1.875321e+01  -1.584749e+01
   1.021423e+01  -1.155532e+00
   8.515957e+00   3.829002e+01
  -8.018611e+00   9.939259e+01
  -4.294229e+01   7.680124e+01
  -4.307329e+01  -1.420272e+01
  -6.288938e+01  -1.214613e+02
  -3.128717e+01  -7.319565e+01
   9.843061e+01  -3.779667e+01
   1.063672e+02   9.833893e+01
   3.659419e+01   1.683502e+02
  -4.853667e+01   6.342597e+01
  -1.043917e+02   2.021004e+01
  -3.760796e+01   3.403627e+00
   2.100132e+01  -3.569401e+01
   4.613298e+01   2.721335e+00
  -5.528722e+01  -9.242311e-01
  -5.512714e+01   2.988809e+01
  -3.678352e+01   3.449646e+01
   8.016503e+01  -4.486440e+01
   9.257081e+01  -6.908810e+01
   8.259945e+01   2.240803e+01
  -4.197681e+01   6.983762e+01
  -5.576907e+01   9.260484e+01
   4.742425e+00   1.248522e+01
  -3.816113e+01  -6.052042e+01
   1.683145e+01  -8.261020e+01
  -2.609513e+01  -3.143741e+00
   2.052097e+01   3.766288e+01
  -3.914503e+01   3.963709e+01
  -4.069219e+01   1.823290e+01
  -7.133236e+01  -4.232802e+01
  -2.636855e+01  -7.179448e+00
  -2.364936e+01   2.368107e+01
  -1.988379e+01  -1.020721e+01
  -1.947836e+01  -6.923456e+01
  -8.772102e+00  -7.340579e+01
   7.155717e+01   1.130181e+01
   3.956708e+01   5.784193e+01
   4.405599e+01   9.969409e+01
   7.244364e+00   5.700309e+01
  -8.206646e+01  -4.203080e+01
  -1.722588e+01  -9.741484e+01
   5.461493e+01  -2.509524e+01
   8.415782e+01   3.309995e+01
   3.127390e+01   5.682652e+01
  -1.408368e+01   1.785719e+01
  -1.136767e+02   3.761080e+01
  -1.223447e+01   2.114062e+00
   1.450423e+01  -2.459184e+01
   1.902534e+01   2.681308e+01
  -8.352748e+01   4.228134e+01
  -9.366022e+01   4.573910e+01
