
 $NMID
 id='ANONYMOUS ', fmtdat='(2E16.6)'
 volume=1.0
 tramp=1.0
 $END
  -4.587456e+03   8.563934e+01
  -2.551453e+03  -2.820774e+03
   1.066127e+03  -2.580784e+03
   2.215410e+03  -8.096097e+02
   9.499901e+02   6.397281e+02
  -8.391930e+02   6.589521e+02
  -9.807925e+02  -5.283654e+02
  -6.263640e+00  -1.118255e+03
   9.384870e+02  -7.552161e+02
   9.573510e+02   2.183475e+02
   3.823993e+02   9.318051e+02
  -3.132142e+02   9.162727e+02
  -6.287199e+02   4.397785e+01
  -3.329066e+02  -8.227186e+02
   3.153767e+02  -7.623608e+02
   7.653772e+02   4.218547e+01
   2.097641e+02   7.807442e+02
  -3.271919e+02   6.353065e+02
  -6.905435e+02   1.674295e+02
  -3.913144e+02  -3.783084e+02
  -8.549220e-02  -4.948318e+02
   2.533008e+02  -2.670223e+02
   2.909871e+02  -2.122193e+01
  -2.569489e+01   9.018194e+01
  -5.130840e+02  -7.604827e+01
  -1.864306e+02  -4.671882e+02
   4.305983e+02  -4.837467e+02
   9.290204e+02   1.180362e+02
   4.624216e+02   5.387127e+02
  -4.134978e+02   4.980523e+02
  -8.754119e+02  -8.375739e+01
  -3.571890e+02  -5.382761e+02
   3.147208e+02  -5.493881e+02
   5.732289e+02  -2.420156e+02
   4.527273e+02   2.786753e+02
   3.837859e+01   5.343484e+02
  -1.717440e+02   2.677829e+02
  -1.817380e+02  -2.209719e+02
   2.063030e+02  -4.964332e+02
   4.443075e+02   2.177120e+01
   2.491588e+02   7.527076e+02
  -2.923223e+02   7.548383e+02
  -6.351130e+02  -4.687012e+01
  -2.683265e+02  -6.352767e+02
   3.418646e+02  -3.412185e+02
   4.076435e+02   3.351969e+02
  -3.918840e+01   5.878018e+02
  -6.016166e+02   1.745512e+02
  -6.326550e+02  -4.015551e+02
  -2.181437e+02  -6.041861e+02
   3.866906e+02  -3.295336e+02
   6.992196e+02   1.022314e+02
   3.840343e+02   3.718878e+02
  -1.848702e+02   3.816375e+02
  -5.258479e+02   8.530552e+01
  -2.628464e+02  -2.161182e+02
   2.019433e+02  -1.046810e+02
   1.580805e+02   1.502170e+02
  -1.454595e+02   1.281492e+02
  -3.442627e+02  -1.127055e+02
  -1.409437e+02  -2.978180e+02
   2.557096e+02  -2.924073e+02
   3.210205e+02  -1.121332e+02
   1.797213e+02   1.118822e+02
  -6.696449e+00   2.411233e+02
  -1.910488e+02   3.386263e+02
  -3.539735e+02   2.511343e+02
  -3.447757e+02  -1.415110e+02
  -5.885086e+01  -4.790388e+02
   1.600553e+02  -4.079045e+02
   1.068182e+02  -8.211570e+01
   6.666917e+01   5.652953e+01
   5.988642e+01  -2.861050e+01
   1.895878e+02  -1.659362e+02
   3.508861e+02   2.025920e+01
   1.809044e+02   2.780032e+02
  -2.642418e+01   2.795143e+02
  -2.334228e+02   2.396468e+01
  -2.153072e+02  -2.432139e+02
   1.495229e+00  -3.258838e+02
   2.590485e+02  -1.455719e+02
   4.150313e+02   1.757086e+02
   2.660394e+02   3.442398e+02
  -1.555440e+02   3.159633e+02
  -2.689713e+02   1.242882e+02
  -1.825228e+02   3.612231e+01
  -7.921315e+01   3.887480e+01
  -2.358979e+02   6.927366e+01
  -4.195310e+02  -3.842329e+01
  -3.696632e+02  -2.566560e+02
  -3.625781e+00  -4.339403e+02
   4.081589e+02  -4.071315e+02
   4.990161e+02  -2.481900e+02
   2.980060e+02   1.185682e+02
   8.672836e+00   3.085616e+02
  -1.467317e+02   2.576705e+02
  -1.379277e+02   3.781137e+01
   8.520780e+01  -1.581824e+02
   2.006679e+02  -4.049446e+01
   9.086001e+01   1.682223e+02
  -9.107570e+01   1.775726e+02
  -1.868117e+02  -5.332065e+01
  -2.250432e+01  -2.575049e+02
   1.431805e+02  -7.135397e+00
   1.738393e+02   2.919206e+02
  -2.085396e+01   3.789319e+02
  -2.379390e+02   1.659864e+02
  -2.982954e+02  -9.562069e+01
  -2.926730e+02  -2.958830e+02
  -9.733007e+01  -2.571151e+02
   9.275659e+01  -1.715591e+02
   2.426575e+02  -2.456070e+01
   7.330819e+01   3.891502e+01
  -7.716459e+01  -2.116452e+01
  -2.119191e+01  -1.156331e+02
   1.245465e+02  -1.388497e+02
   1.853559e+02  -2.902374e+00
   9.181227e+01   3.077156e+01
  -8.482742e+01   1.858953e+01
  -4.121664e+01  -3.930402e+01
   1.075550e+02  -7.247270e+01
   3.153839e+02  -3.746321e+00
   2.567121e+02   1.186055e+02
   4.678722e+01   2.929786e+02
  -1.853328e+02   2.739348e+02
  -2.671632e+02   1.282101e+02
  -1.844327e+02  -6.970569e+01
   3.155143e+01  -1.036673e+02
   8.265910e+01  -4.820857e+01
  -2.145999e+01   1.040503e+02
  -1.661924e+02   4.182686e+01
  -1.963651e+02  -1.211055e+02
  -7.074781e+01  -2.103605e+02
   1.064979e+02  -1.564334e+02
   1.503242e+02  -3.754935e+01
   5.727675e+01   5.627591e+01
  -6.278579e+01  -1.033272e+00
  -2.275261e+01  -1.405787e+02
   1.072449e+02  -1.256514e+02
   2.449380e+02  -4.609438e+01
   1.754963e+02   1.128537e+02
   3.101605e+01   2.394128e+02
  -1.635559e+02   2.055691e+02
  -1.820784e+02  -1.793032e+01
  -4.011545e+01  -1.436397e+02
   6.045667e+01  -1.293380e+02
   6.135107e+01   1.643933e+01
   3.059414e+01  -5.879254e+00
  -2.920112e+00   4.969611e+01
  -2.079447e+00  -3.610856e+01
   5.984367e+01   1.217569e+01
   1.123494e+02   5.699276e+01
   4.585192e+01   1.609983e+02
  -1.243249e+02   1.398897e+02
  -2.377763e+02   1.453464e+00
  -1.839659e+02  -1.274567e+02
   1.388080e+01  -2.747184e+02
   1.171143e+02  -1.831099e+02
   1.675187e+02  -3.471386e+01
   3.198322e+01   5.799443e+01
   5.232319e+01   7.799353e+01
   7.417179e+01   1.043731e+01
   7.612293e+01   2.217776e+01
   1.750936e+01   5.667214e+01
  -5.042174e+01   1.130262e+02
  -1.187979e+02   6.006999e+01
  -7.210212e+01  -4.774789e+01
   2.043492e+01  -9.033700e+01
   1.195892e+02  -1.600386e+02
   1.877585e+02   3.890047e+01
   7.147953e+01   2.036722e+02
  -1.092937e+02   2.957992e+02
  -2.997801e+02   7.818448e+01
  -2.926573e+02  -9.521378e+01
  -1.276477e+02  -1.361833e+02
   1.495449e+01  -1.374137e+02
   8.904143e+01  -1.153717e+02
   8.968572e+01  -8.554796e+01
   8.609127e+01  -5.824134e+01
   1.024731e+02  -6.902138e+01
   1.763752e+02   2.681226e+01
   1.305399e+02   1.519558e+02
   3.834119e+01   2.210785e+02
  -1.000625e+02   1.884279e+02
  -2.008826e+02   1.495299e+01
  -1.757625e+02  -1.562994e+02
  -2.384112e+01  -1.567814e+02
   8.882300e+01  -8.826637e+01
   4.513009e+01   1.862506e+01
  -2.408604e+01   5.959769e+01
   2.050388e+01   9.373172e+01
   5.470283e+01   3.588281e+01
   4.970074e+01   8.993417e+00
   1.630299e+01   6.375367e-01
  -9.080663e+01   4.305099e+01
  -1.303620e+02  -8.840459e+00
  -1.440769e+02  -4.027799e+01
  -4.513422e+01  -8.073679e+01
   8.742796e+01  -9.301737e+01
   1.100704e+02  -1.831401e+01
   6.195112e+01   1.669660e+01
  -4.220041e+01   5.091839e+01
  -1.055138e+02  -5.135281e+01
   2.420520e+01  -5.923961e+01
   4.965981e+01  -3.555597e+01
   4.053753e+01   3.549804e+01
   5.576583e+01   7.275179e+01
   7.340548e+01   2.771333e+01
   8.571416e+01  -2.806358e+01
   6.751034e+01  -2.579098e+01
   2.871012e+01   8.664484e+01
  -1.075039e+01   1.077676e+02
  -1.185408e+02   1.502103e+02
  -1.820138e+02   5.759279e+01
  -8.646085e+01  -8.841231e+01
  -2.582942e+01  -9.781662e+01
   8.988002e+01  -8.062791e+01
   4.977450e+01   8.699240e+00
  -5.803580e+01  -6.452520e+00
  -1.549743e+02  -2.969601e+01
  -4.599111e+01  -1.122524e+02
   7.665541e+01  -9.691894e+01
   2.267432e+02  -5.467373e+01
   1.765624e+02   4.762196e+01
   1.224026e+01   1.110828e+02
  -4.663620e+01   7.620577e+01
  -2.642935e+01   5.073396e+01
   4.398973e+01  -4.772350e+01
   3.683694e+01   4.063896e+01
   3.824156e+01   1.491560e+02
  -1.016746e+02   1.722846e+02
  -1.412274e+02   7.414464e+01
  -7.345256e+01  -9.035373e+01
   2.364892e+01  -1.723986e+02
   8.160721e+01  -1.183498e+02
   8.779799e+01   4.258891e+01
   1.077491e+02   1.338498e+02
  -3.774824e+01   9.533319e+01
  -7.491431e+01  -2.424825e+01
  -4.005635e+01  -5.353506e+01
  -3.226228e+01  -6.669087e+00
   2.896041e+01   3.942075e+01
   3.218695e+00  -1.698544e+01
  -2.578627e+01  -4.845049e+01
  -3.977343e+01  -1.096721e+02
   7.100335e+01  -2.008261e+01
   1.392520e+02   5.122430e+01
   1.084469e+02   8.289096e+01
   6.669367e+00   5.035425e+01
  -5.187460e+01   2.525207e+01
  -1.100475e+02   1.187521e+01
  -3.740085e+01  -1.459891e+01
   2.822455e+01  -3.367990e+01
   1.656141e+01  -4.029809e+01
  -4.092636e+01   6.460187e+01
   1.859911e+01   1.887148e+01
   8.375599e+01   2.960515e+01
   1.100881e+02   2.626210e+01
  -3.049734e+01   7.115710e+01
  -9.685279e+01   1.003592e+02
  -2.161674e+02   3.412966e+01
  -1.188002e+02  -5.945016e+01
  -1.679090e+01  -1.661335e+02
   7.956156e+01  -1.503500e+02
   1.019159e+02  -7.568149e+01
   6.042844e+01   4.058412e+00
  -1.110000e+01   4.623448e+01
  -1.689568e+01  -1.294000e+01
   4.606683e+01   2.527614e+01
   2.709466e+01   9.824098e+01
  -1.482017e+01   1.007101e+02
  -3.068779e+01   6.220350e+01
  -6.939257e+01  -2.883185e+01
  -8.553391e+01  -8.256727e+01
  -5.312233e+01  -1.040735e+02
   4.425114e+01  -1.410069e+01
   9.459743e+01   7.137595e+01
   3.935567e+01   1.172734e+02
  -2.576302e+01   4.361238e+01
  -9.944670e+01   2.440380e+00
  -4.603071e+01  -6.654580e+01
  -1.085533e+01  -3.654325e+01
   5.879774e+00  -3.979583e+01
  -6.990551e+01  -6.337090e+00
  -4.397583e+01   1.122217e+00
  -1.367819e+01  -1.874695e+01
   9.405847e+01  -5.619162e+01
   1.493587e+02  -5.047194e+01
   3.177947e+01   2.127107e+00
  -1.992741e+01   9.085369e+01
  -4.775369e+01   7.033716e+01
  -3.095358e+01   5.912277e+01
  -3.399231e+00  -6.131789e+01
  -7.715381e+00  -7.908272e+01
   8.410610e+01   1.582074e+01
  -1.134979e+01   5.574939e+01
  -2.269915e+00   6.754767e+01
  -6.588559e+01   9.976297e+00
  -1.004887e+02  -5.719348e+00
  -1.590712e+01   2.606277e+01
  -7.765779e+00  -1.808439e+01
   1.913135e+01   7.175205e+00
   5.820241e+01  -4.811164e+01
   3.768321e+01  -1.536115e+01
   4.488092e+01   5.363519e+01
   1.617377e+01   9.388810e+01
  -2.910333e+01   3.885315e+01
  -5.264080e+01  -1.965824e+01
  -3.558963e+01  -5.336109e+01
  -1.372262e+01  -8.940139e+01
   5.908370e+01  -5.860122e+01
   8.582126e+01  -2.043105e+00
   6.817245e+01   4.019021e+01
  -4.261836e+01   2.884883e+01
  -3.805982e+01   9.285648e+00
  -6.116929e+00   5.963224e+01
   4.439815e+01   1.094334e+01
   2.811725e+01  -5.925712e+00
   6.356064e+00   6.706444e+00
  -7.307736e+01   3.829658e+01
