
 $NMID
 id='ANONYMOUS ', fmtdat='(2E16.6)'
 volume=1.0
 tramp=1.0
 $END
  -3.780394e+03   3.842853e+01
  -2.272498e+03  -2.116195e+03
   4.727021e+02  -2.267259e+03
   1.786841e+03  -8.207470e+02
   9.521784e+02   3.000213e+02
  -4.188529e+02   5.142201e+02
  -6.046938e+02  -3.036284e+02
  -4.057648e+01  -9.187439e+02
   6.758869e+02  -7.379699e+02
   7.923646e+02   1.089505e+01
   5.190003e+02   7.164996e+02
  -1.471100e+02   8.045450e+02
  -4.829458e+02   9.063246e+01
  -2.791449e+02  -5.939543e+02
   1.959507e+02  -6.871456e+02
   4.519154e+02   1.988159e+01
   2.593200e+02   5.107601e+02
  -1.749580e+02   6.666632e+02
  -5.103249e+02   1.881325e+02
  -3.800973e+02  -2.663229e+02
  -4.550371e+01  -4.091713e+02
   2.072686e+02  -2.974833e+02
   9.748544e+01  -2.102134e+01
  -1.356491e+02   1.232638e+01
  -3.227573e+02  -1.436632e+02
  -9.227045e+01  -4.004573e+02
   4.578000e+02  -2.503298e+02
   8.679600e+02   1.342227e+02
   3.727092e+02   4.990070e+02
  -4.013465e+02   3.640986e+02
  -6.989641e+02  -8.089819e+01
  -2.674527e+02  -4.856999e+02
   3.246392e+02  -4.148446e+02
   5.432865e+02  -1.526269e+02
   3.345811e+02   2.012005e+02
  -7.352302e+00   3.896419e+02
  -1.235656e+02   1.884038e+02
  -6.392771e+01  -2.400587e+02
   2.159068e+02  -3.492652e+02
   3.393159e+02   5.651709e+01
   1.241443e+02   5.838859e+02
  -3.424128e+02   5.268643e+02
  -4.831127e+02  -1.771236e+01
  -1.165472e+02  -4.404755e+02
   2.822728e+02  -1.855184e+02
   2.970579e+02   3.675283e+02
  -1.253321e+02   5.310024e+02
  -5.251253e+02   1.525745e+02
  -5.682014e+02  -4.036745e+02
  -1.604815e+02  -5.831083e+02
   3.632232e+02  -3.368247e+02
   6.040554e+02   9.734057e+01
   3.860121e+02   3.962047e+02
  -1.509576e+02   3.227416e+02
  -3.870346e+02   6.366252e+01
  -2.253907e+02  -9.766357e+01
   1.145742e+02  -8.848629e+01
   1.008183e+02   1.214648e+02
  -1.873357e+02   1.052729e+02
  -2.893707e+02  -5.090195e+01
  -1.176697e+02  -2.293083e+02
   1.478878e+02  -2.019865e+02
   3.631882e+02  -6.390805e+01
   2.094565e+02   8.882253e+01
   2.351911e+01   2.710080e+02
  -2.407401e+02   3.622654e+02
  -3.647078e+02   2.271280e+02
  -2.682552e+02  -1.480198e+02
  -3.489402e+01  -4.206290e+02
   8.128066e+01  -3.825816e+02
   8.177178e+01  -1.146724e+02
  -9.688962e+00  -4.322756e+01
   6.218502e+01  -1.787990e+02
   1.914442e+02  -1.605088e+02
   2.520884e+02   1.280223e+01
   1.191453e+02   2.717040e+02
  -1.027453e+02   2.501798e+02
  -2.090030e+02  -2.431780e+01
  -1.357167e+02  -2.610589e+02
   3.291719e+01  -2.612197e+02
   2.580631e+02  -8.271898e+01
   3.366015e+02   2.255092e+02
   1.811005e+02   3.867052e+02
  -6.443167e+01   2.864713e+02
  -2.711669e+02   1.399724e+02
  -1.826273e+02   8.488316e+00
  -1.061961e+02   8.670375e+01
  -2.330678e+02   1.125379e+02
  -3.733744e+02  -5.964809e+01
  -3.377605e+02  -2.738851e+02
   5.497861e+00  -4.145697e+02
   3.942649e+02  -4.024767e+02
   4.690687e+02  -1.625658e+02
   2.867758e+02   9.577946e+01
   9.881633e+00   2.534489e+02
  -1.513397e+02   2.092338e+02
  -1.684609e+01  -9.743587e+00
   1.965516e+02  -8.224566e+01
   1.895816e+02   3.968139e+01
   4.979224e+01   1.737332e+02
  -1.681210e+02   2.017735e+02
  -1.633550e+02  -2.937738e+01
   7.506752e+01  -1.418544e+02
   1.865525e+02  -3.706338e+01
   1.540376e+02   1.983147e+02
  -5.335189e+01   3.467387e+02
  -2.565277e+02   1.831828e+02
  -3.328635e+02  -3.712459e+01
  -2.390954e+02  -2.241539e+02
  -1.045002e+02  -2.558610e+02
   1.171831e+02  -1.468245e+02
   1.141381e+02   1.971610e+01
   2.151475e+01   2.776521e+01
  -7.011163e+01  -5.274586e+01
  -1.562309e+01  -1.280336e+02
   1.528662e+02  -8.679000e+01
   1.746412e+02   1.170828e+01
   5.752258e+01   4.038142e+01
  -1.120199e+02  -9.980645e+00
  -1.047924e+02  -3.584325e+01
   1.204570e+02  -6.029263e+01
   2.685548e+02  -1.134210e+01
   2.479816e+02   1.157593e+02
   1.994400e+01   2.336802e+02
  -2.308288e+02   2.661758e+02
  -2.862861e+02   1.114753e+02
  -1.883994e+02  -5.865626e+01
   3.421395e+01  -9.129902e+01
   1.329041e+02   9.143441e+00
   1.329445e+01   9.494190e+01
  -1.855574e+02   7.550843e+01
  -2.065137e+02  -9.613345e+01
  -8.596452e+01  -1.977631e+02
   5.951146e+01  -1.837594e+02
   1.806415e+02  -4.189853e+01
   1.028102e+02   2.658749e+01
   2.060560e+01  -1.060016e+01
  -2.003514e+00  -1.214266e+02
   8.522798e+01  -1.369856e+02
   1.871349e+02  -3.406143e+01
   1.536173e+02   1.288162e+02
  -8.009414e-01   1.932979e+02
  -1.166033e+02   1.400972e+02
  -1.430698e+02  -6.832891e+00
  -7.134334e+01  -1.350111e+02
   1.015884e+02  -1.089138e+02
   1.185970e+02  -2.471069e+01
   5.492651e+01   4.647000e+01
  -4.090606e+01   2.083867e+01
  -4.215209e+00   4.127391e-02
   5.771599e+01  -1.369356e+01
   7.752540e+01   6.889435e+01
   1.815409e+01   1.393646e+02
  -9.219616e+01   1.654877e+02
  -1.879167e+02   1.337449e+01
  -1.739873e+02  -1.555079e+02
  -6.989311e+01  -2.314744e+02
   9.135224e+01  -1.846270e+02
   1.449641e+02  -3.092990e+01
   5.881313e+01   6.712800e+01
   2.709981e+01   6.213923e+01
   2.151021e+01  -3.790937e-01
   8.191332e+01   2.984930e+01
   5.782596e+01   2.756698e+01
  -3.308462e+01   9.370842e+01
  -1.425213e+02   7.803393e+01
  -7.621753e+01  -3.633010e+01
   5.722479e+01  -1.504115e+02
   1.762543e+02  -1.004107e+02
   1.993330e+02   7.949805e+01
   1.046977e+02   2.657698e+02
  -9.874347e+01   2.589925e+02
  -2.752826e+02   1.161142e+02
  -2.437892e+02  -6.142230e+01
  -1.072923e+02  -1.448109e+02
   8.981013e+01  -1.331152e+02
   8.971505e+01  -8.307767e+01
   5.973068e+01  -4.798962e+01
   2.770313e+01  -8.356457e+01
   1.026572e+02  -7.607072e+01
   1.150003e+02  -3.313770e+01
   1.290710e+02   9.183059e+01
  -5.815667e+00   2.039236e+02
  -9.072718e+01   1.725256e+02
  -1.606169e+02   4.102442e+01
  -1.523035e+02  -7.518172e+01
  -9.460958e+00  -1.635695e+02
   6.970184e+01  -1.522116e+02
   9.891043e+01   4.021058e+00
  -2.183123e+00   7.190490e+01
  -4.165475e+01   5.286888e+01
   4.966042e+01   4.037821e+01
   1.023034e+02  -1.817926e+00
   8.696501e+01   5.293867e+01
  -1.525548e+01   4.756598e+01
  -1.478794e+02   3.544861e+01
  -1.424798e+02  -2.309844e+01
  -8.372420e+00  -8.596642e+01
   1.251591e+02  -2.961209e+01
   1.435357e+02  -2.703707e+01
   5.876205e+01   4.710571e+01
  -6.379853e+01   5.148538e+01
  -6.506073e+01  -1.222450e+01
  -3.776420e+01  -5.696452e+01
   2.008297e+01  -2.594436e+01
   1.135261e-01  -9.537947e+00
   7.259664e+01   1.171188e+00
   6.118275e+01   3.985768e+01
   5.643559e+01  -4.658826e+01
   7.899644e+01  -1.469358e+01
   2.408052e+01   4.931177e+01
  -1.159610e+01   1.427560e+02
  -8.376002e+01   1.644951e+02
  -1.581416e+02   3.931986e+01
  -1.265928e+02  -7.482977e+01
   3.061744e+01  -1.445704e+02
   8.571951e+01  -8.525595e+01
   8.735828e+01   5.114549e+00
  -1.147172e+01  -8.970125e+00
  -1.618975e+02  -5.810587e+01
  -8.955217e+01  -1.182906e+02
   4.358928e+01  -1.525416e+02
   2.079555e+02  -5.034947e+01
   1.567993e+02   8.018294e+00
   3.356362e+01   8.884732e+01
  -7.916268e+01   7.619025e+01
  -5.208677e+01  -1.350695e+01
   3.096623e+01  -2.726211e+01
   7.506589e+01   6.388129e-01
   4.939857e+01   1.365675e+02
  -8.841463e+01   1.073460e+02
  -1.657952e+02   7.898214e+01
  -1.407913e+02  -1.234774e+02
   5.076517e+00  -1.898359e+02
   5.491969e+01  -1.331600e+02
   7.942921e+01  -4.455980e+00
   2.242089e+01   9.704953e+01
   2.022753e+01   8.155740e+01
  -1.845845e+01   2.233276e+01
   2.362042e+00  -4.673123e+01
   1.584818e+01   1.685738e+01
  -1.074481e+01  -1.173126e+01
  -2.173859e+01   2.536489e+01
  -5.529062e+01  -6.456987e+01
  -1.725105e+01  -1.002007e+02
   2.531015e+01  -5.866959e+01
   8.501887e+01   4.378512e+01
   1.455815e+02   9.894039e+01
   7.357652e+01   8.716417e+01
  -9.362729e+01   2.751651e+01
  -5.604196e+01   1.411084e+01
   9.283193e+00  -8.201672e+00
   5.118992e+00   2.664021e+01
   2.515531e+00  -6.746632e+00
  -2.129310e+01  -2.663070e+01
   2.227032e+01   4.249118e+00
   7.009704e+01  -3.226813e+01
   1.651034e+02   4.912785e+01
  -1.207650e+01   9.881013e+01
  -1.924630e+02   1.306470e+02
  -1.951663e+02   5.900041e+01
  -1.476662e+02  -6.668237e+01
   1.059684e+01  -1.725963e+02
   8.221207e+01  -1.864653e+02
   8.204878e+01  -9.536983e+01
   6.051888e+01   2.707665e+01
   4.309841e+01   8.500817e+00
  -3.372495e+01  -1.347328e+01
   4.287306e+01   2.278036e+01
   1.245505e+01   7.891883e+01
   5.355969e+01   9.523421e+01
  -4.180341e+01   6.385794e+01
  -8.449461e+01  -3.632673e+01
  -8.988420e+01  -1.375804e+02
  -3.933797e+01  -1.236703e+02
   7.689065e+01  -3.636293e+01
   1.137635e+02   8.135860e+01
   8.174623e+01   1.149351e+02
  -4.090219e+01   1.002119e+02
  -1.308703e+02   1.273292e+00
  -3.150155e+01  -5.971486e+01
   6.105127e+01  -7.641646e+01
   8.591277e+01  -4.612493e+01
  -1.506496e+01  -3.825172e+01
  -6.985064e+01  -1.933266e+01
  -1.908698e+01  -1.733103e+01
   7.551783e+01  -6.247722e+01
   1.420861e+02  -7.357946e+01
   5.009100e+01   2.885331e+01
  -8.448244e+00   8.357829e+01
  -6.633479e+01   4.749218e+01
  -6.365708e+01   2.158152e+01
   6.241632e+00  -5.275633e+01
   5.695079e+01  -3.403214e+01
   4.987551e+01   1.777611e+01
   6.399443e+01   2.386510e+01
  -5.730184e-01   4.008463e+01
  -3.357307e+01   1.731149e+01
  -3.650852e+01   1.753657e+01
   9.971579e+00   2.329072e+01
  -3.781460e+01   2.545381e+01
   8.435818e+00  -4.343016e+00
  -1.004785e+01  -7.470010e+01
   3.226297e+01  -6.722176e+01
   3.186386e+01   4.681070e-01
   4.762096e+01   4.621353e+01
   3.624445e+01   4.192179e+01
  -6.702528e+01   4.126643e+00
  -2.767236e+01  -2.691320e+01
  -1.525975e+01  -1.255002e+00
   5.059671e+01  -5.975737e+00
   8.341639e+01   9.457847e+00
  -8.944031e+00   4.586849e+01
  -7.906032e+01   5.100986e+01
  -8.983725e+01  -3.569343e+00
   3.193945e+00   6.814061e+01
   2.730327e+01  -4.294335e+00
   3.864880e+00   9.031307e+01
  -6.246570e+01   6.454780e+01
  -1.247787e+02   2.139555e+00
