
 $NMID
 id='ANONYMOUS ', fmtdat='(2E16.6)'
 volume=1.0
 tramp=1.0
 $END
  -2.725930e+03   8.738793e+01
  -1.633682e+03  -1.549637e+03
   7.004821e+00  -1.640524e+03
   9.065872e+02  -1.156736e+03
   8.061225e+02  -3.902107e+02
   1.614962e+02  -5.280943e+01
  -1.943500e+02  -1.936130e+02
   4.159431e+01  -3.856937e+02
   3.250515e+02  -3.319573e+02
   4.975245e+02  -1.605855e+02
   3.862663e+02   3.864158e+02
   3.049399e+01   4.859190e+02
  -1.673073e+02   1.335648e+02
  -1.454445e+02  -4.076233e+02
   1.942366e+02  -4.583956e+02
   3.444399e+02  -1.279149e+02
   3.438104e+02   3.568833e+02
  -1.275164e+02   5.828442e+02
  -3.738136e+02   2.400516e+02
  -4.022916e+02  -8.906653e+01
  -1.881960e+02  -2.753746e+02
   8.961865e+00  -2.588898e+02
   3.555326e+01  -4.850995e+01
  -2.441167e+02  -7.238309e+01
  -1.888537e+02  -2.439461e+02
   8.473369e+01  -3.377701e+02
   5.007506e+02  -1.028337e+02
   5.010286e+02   2.352086e+02
   1.721839e+02   3.343024e+02
  -3.243911e+02   1.385283e+02
  -3.641550e+02  -2.060445e+02
  -1.000949e+02  -3.146719e+02
   2.550485e+02  -2.252538e+02
   3.825477e+02  -9.481830e+01
   2.431520e+02   9.366561e+01
   1.502138e+02   1.979238e+02
   5.801726e+01   1.510726e+02
   1.330274e+02  -9.178670e+00
   1.697485e+02   2.976241e+01
   1.224501e+02   2.049404e+02
  -8.677588e+01   4.257224e+02
  -2.481876e+02   2.942780e+02
  -2.263319e+02  -8.292057e+00
  -6.567928e+01  -1.943579e+02
   7.982533e+01  -2.184840e+01
   5.251441e+01   2.766945e+02
  -1.755360e+02   3.213019e+02
  -3.817839e+02   2.861131e+01
  -4.122318e+02  -3.321247e+02
  -1.273693e+02  -4.172276e+02
   2.454083e+02  -2.033437e+02
   4.339637e+02   8.494461e+01
   2.827726e+02   1.670825e+02
  -4.072837e+01   1.740859e+02
  -2.363573e+02   7.395086e+01
  -1.643669e+02   7.131090e+00
  -4.023891e+01  -7.338724e-02
  -3.655802e+01   1.431619e+01
  -1.102204e+02  -3.048097e+01
  -1.709336e+02  -9.161780e+01
  -5.361585e+01  -1.465829e+02
   1.432928e+02  -1.703355e+02
   2.945989e+02  -1.341284e+02
   2.417699e+02   1.176923e+02
  -1.371069e+01   3.362033e+02
  -3.050653e+02   3.936381e+02
  -3.641152e+02   7.991255e+01
  -2.506772e+02  -1.731846e+02
  -8.914074e+01  -3.484715e+02
   1.537548e+01  -2.748674e+02
   2.459228e+00  -1.859585e+02
   9.726306e+01  -1.436362e+02
   1.580960e+02  -9.324376e+01
   2.910656e+02  -3.283677e+01
   2.245696e+02   1.939684e+02
  -5.403598e+00   2.662451e+02
  -1.433898e+02   1.693511e+02
  -1.660317e+02  -8.324913e+01
  -1.031542e+02  -2.206651e+02
   6.482553e+01  -2.188731e+02
   2.550281e+02  -4.939401e+01
   2.738041e+02   2.236549e+02
   1.493827e+02   2.831292e+02
  -7.403670e+01   2.496412e+02
  -1.447326e+02   1.799459e+02
  -1.365402e+02   7.924914e+01
  -1.457001e+02   7.127348e+01
  -2.633987e+02   1.374922e+01
  -3.623284e+02  -1.383774e+02
  -2.788193e+02  -2.858198e+02
   2.655804e+01  -4.280882e+02
   3.337897e+02  -3.907404e+02
   4.536570e+02  -1.646849e+02
   2.649273e+02   1.153679e+02
   7.283384e+00   2.709231e+02
  -4.054409e+01   1.983278e+02
  -7.840358e+00  -1.928682e+01
   1.396787e+02  -1.382067e+00
   1.516771e+02   1.017447e+02
  -2.543088e+01   1.448067e+02
  -1.353402e+02   9.682576e+01
  -8.756477e+01  -5.512468e+01
   7.009139e+01  -7.855953e+01
   1.356127e+02   4.592382e+01
   9.709624e+01   2.178011e+02
  -1.932555e+01   3.176736e+02
  -1.919955e+02   1.754440e+02
  -3.362384e+02  -4.282303e+01
  -2.598755e+02  -2.329918e+02
  -6.164369e+01  -2.584445e+02
   1.196556e+02  -1.320976e+02
   1.561960e+02   1.277148e+01
   7.723680e+01   5.346680e+01
  -7.114520e+01  -3.685350e+01
  -3.032063e+01  -1.014795e+02
   1.290546e+02  -6.713757e+01
   1.549553e+02   3.618149e+01
   1.983942e+01   6.764504e+01
  -8.543731e+01  -5.167636e+00
  -1.483698e+01  -1.036250e+02
   1.523542e+02  -1.164916e+02
   2.660186e+02   4.882386e+01
   2.186083e+02   2.008921e+02
   2.769492e+01   2.621595e+02
  -2.435962e+02   2.271886e+02
  -2.468505e+02   7.467338e+01
  -1.283805e+02  -5.595715e+01
  -1.425925e+01  -6.264938e+01
   8.630364e+01   2.175828e+01
  -4.643342e+01   6.802173e+01
  -1.987129e+02  -1.686467e+01
  -1.706074e+02  -1.356328e+02
  -1.342008e+01  -1.438332e+02
   9.587004e+01  -8.730130e+01
   5.380294e+01  -1.954747e+00
   1.150463e+01   1.792329e+01
  -9.334072e+01  -2.161658e+01
  -4.101872e+01  -1.713861e+02
   5.448213e+01  -1.510038e+02
   2.100392e+02  -5.229340e+01
   1.923052e+02   1.411402e+02
   4.546068e+01   2.140610e+02
  -1.526954e+02   1.395881e+02
  -1.912162e+02  -2.716989e+01
  -1.115202e+02  -9.397416e+01
   5.576124e+01  -7.162022e+01
   4.715133e+01   1.031783e+01
   9.484278e+00   2.684537e+01
  -3.732612e+01  -2.782159e+01
   5.742335e+01  -3.896734e+01
   5.109846e+01  -8.593864e+00
   7.162090e+01   8.285846e+01
   2.628873e+01   1.654260e+02
  -1.219588e+02   1.631925e+02
  -2.110187e+02  -1.271769e+01
  -1.285299e+02  -1.166436e+02
  -4.136645e+01  -1.709207e+02
   8.736560e+01  -1.228703e+02
   6.388385e+01  -8.626717e-02
   6.882192e+01   7.444343e+01
  -1.475495e+01   3.401831e+01
   6.040408e+00  -2.953713e+01
   7.358366e+01  -1.977744e+01
   6.875717e+01   5.480377e+01
  -5.022969e+01   1.291210e+02
  -1.641875e+02   8.347367e+01
  -1.538215e+02  -1.890585e+01
  -4.089971e+00  -1.241905e+02
   1.417858e+02  -9.927125e+01
   2.180778e+02   9.057369e+01
   6.006557e+01   2.462423e+02
  -1.175601e+02   2.187760e+02
  -2.574870e+02   8.513560e+01
  -2.449957e+02  -1.168317e+02
  -9.031015e+01  -1.989755e+02
   3.251395e+01  -1.712512e+02
   9.804335e+01  -7.659842e+01
   7.733913e+01  -8.140971e+01
   1.110870e+02  -1.210156e+02
   1.019052e+02  -7.598843e+01
   1.212091e+02   4.100747e+01
   1.139174e+02   1.630628e+02
   1.470965e+01   2.019601e+02
  -5.734043e+01   1.384119e+02
  -1.548797e+02   4.103241e+01
  -1.007239e+02  -1.395702e+02
   2.090304e+01  -1.387283e+02
   6.858019e+01  -7.641525e+01
   4.409910e+01   2.816429e+01
  -1.746179e+01   5.486524e+01
  -3.737290e+01   5.150162e+01
   3.181077e+01   1.282942e+01
   6.596784e+01   5.129118e+01
   2.606449e+01   4.989157e+01
  -7.923570e+01  -7.705399e+00
  -1.619915e+02  -3.896567e+01
  -1.614851e+02  -6.247645e+01
   1.468926e+01  -8.101499e+01
   1.906693e+02  -4.531570e+01
   1.471982e+02  -3.175748e+01
   4.225221e+01   5.638449e+01
  -8.938851e+01   4.549438e+01
  -8.574848e+01  -3.398307e+01
  -3.834299e+01  -1.131596e+02
   4.781876e+01  -1.089580e+02
   1.097023e+02  -9.910840e+00
   1.278184e+01   3.467911e+01
   2.376981e+01   5.050405e+01
   6.639825e+01  -2.768116e+01
   5.097776e+01  -2.714168e+01
   1.801886e+01   5.083971e+01
  -3.796447e+01   1.477919e+02
  -9.584178e+01   1.646170e+02
  -1.598858e+02   5.146111e+01
  -1.513730e+02  -1.540360e+02
   8.341112e+00  -1.766544e+02
   6.325041e+01  -3.548902e+01
   1.096028e+02   5.030168e+01
  -6.377300e+01   2.949394e+01
  -1.343702e+02  -4.999968e+01
  -4.361331e+01  -1.003651e+02
   6.634367e+01  -9.300095e+01
   2.117891e+02  -2.694830e+01
   1.675610e+02   7.446606e+01
  -2.129656e+01   2.856927e+01
  -1.218055e+02   1.673088e+01
  -9.242513e+01   1.752922e+01
   9.633651e+01  -5.888574e+01
   1.807651e+02  -2.625843e+01
   6.241804e+01   1.118300e+02
  -7.682580e+01   1.627629e+02
  -1.682207e+02   9.005112e+01
  -1.757583e+02  -9.293645e+01
   1.539430e+01  -1.499530e+02
   9.295733e+01  -8.994398e+01
   8.057268e+01   5.118534e+00
   6.601392e+00   1.239924e+02
  -5.724195e+01   9.307553e+01
  -7.100143e+01   1.894194e+01
  -9.994413e+00  -4.976083e+01
  -2.261176e+01   1.111997e+01
  -1.474090e+01   5.294441e+01
  -4.141033e+01  -3.377730e+01
  -5.358996e+01  -1.106481e+02
  -3.520899e+01  -1.148890e+02
   4.260180e+01  -1.876534e+01
   1.249646e+02   6.757974e+01
   1.190490e+02   7.490385e+01
   1.968638e+01   5.673348e+01
  -9.288441e+01   2.095187e+01
  -5.990356e+01  -9.486281e+00
  -3.928002e+01  -3.645211e+00
   3.421340e+01   1.385582e+01
   5.057278e+01  -7.849804e+00
   8.514471e+00   1.686813e+01
  -1.794534e+01   1.266377e+01
   5.063340e-01  -1.683183e+00
   5.739755e+01   9.828961e+00
   2.757380e+01   6.070570e+01
  -1.447696e+02   1.130075e+02
  -1.641422e+02   4.759182e+01
  -1.489755e+02  -9.604375e+01
  -1.493058e+01  -1.682333e+02
   9.374858e+01  -1.675751e+02
   9.483596e+01  -7.045038e+01
   7.716322e+01  -2.028131e+01
   4.636484e+01   6.194545e+01
   1.224833e+01   8.146036e+00
   2.099802e+01   1.686528e+00
   3.737212e+01   3.250479e+01
   7.007295e+01   8.683029e+01
  -5.110092e+01   5.724689e+01
  -4.830375e+01  -1.663642e+01
  -8.217228e+01  -7.949421e+01
  -1.373355e+01  -1.345401e+02
   3.986358e+01  -2.804167e+01
   1.158863e+02   7.537203e+01
   2.909404e+01   1.335150e+02
  -5.884237e+01   6.699692e+01
  -1.489010e+02   2.425856e+01
  -5.195879e+01  -7.434401e+01
   7.399835e+01  -4.704584e+01
   3.379051e+01  -3.850223e+01
   5.476096e+00   2.095297e+01
  -4.545508e+01  -1.821224e+01
   2.458062e+01  -4.734524e+01
   4.918454e+01  -1.084176e+02
   1.104921e+02  -3.313885e+01
   6.856654e+01   7.624121e+00
  -2.689561e+01   4.615868e+01
  -4.316906e+01   8.563760e+01
  -1.126070e+01   1.440220e+01
  -1.940541e+01  -3.210400e+01
   1.405242e+01  -3.376544e+01
  -1.041768e+01   1.334623e+01
   3.862242e+01   4.355992e+01
   4.068786e+01   4.498984e+01
  -3.213630e+01   3.618029e+01
  -8.597145e+01  -9.375336e+00
  -3.405892e+01   1.334336e+01
   1.065951e+01   2.693211e+00
   2.220957e+01   1.622991e+01
   1.891261e+01  -4.342573e+01
   1.030825e+00  -6.101915e+01
   4.831398e+01  -2.115016e+01
   5.264007e+01   3.577851e+01
   2.968881e+01   3.034025e+01
  -4.357454e+01   2.173042e+01
  -6.271809e+01  -6.066371e+01
  -5.231116e+00  -6.143250e+01
   5.090899e+01  -7.076721e+01
   1.092618e+02  -5.129872e+00
   5.077234e+01   5.864132e+01
  -1.546190e+01   6.507969e+01
  -4.723022e+01   2.480632e+01
  -1.651806e+01   1.455292e+00
   2.566641e+01   2.672008e+00
   1.347772e+01   1.208251e+01
  -6.166579e+01   1.538754e+01
  -6.113610e+01  -2.711631e+01
