
 $NMID
 id='ANONYMOUS ', fmtdat='(2E16.6)'
 volume=1.0
 tramp=1.0
 $END
   3.209036e+03   1.631667e+02
   2.079950e+03   1.711916e+03
   2.170715e+01   2.299411e+03
  -1.444102e+03   1.313953e+03
  -9.408071e+02   9.039414e+01
  -1.152409e+01  -1.059493e+02
   3.233245e+02   1.346918e+02
  -1.545602e+00   6.339840e+02
  -5.250912e+02   5.387503e+02
  -7.259117e+02   2.208752e+01
  -4.558682e+02  -5.293023e+02
  -7.262945e+00  -7.127946e+02
   3.129024e+02  -2.140954e+02
   2.608171e+02   2.700786e+02
  -1.175326e+02   4.809625e+02
  -3.331194e+02   5.187725e+01
  -2.279554e+02  -4.824843e+02
   1.378078e+02  -6.261150e+02
   4.521552e+02  -3.379422e+02
   4.378672e+02   1.661009e+02
   1.546500e+02   3.168467e+02
  -2.394927e+01   2.212520e+02
  -9.093334e+01   1.367965e+02
   1.016116e+02   1.714210e+02
   2.650687e+02   2.046762e+02
   8.623298e+01   4.056920e+02
  -4.693734e+02   1.192099e+02
  -6.194725e+02  -1.625015e+02
  -2.519634e+02  -3.234272e+02
   2.809373e+02  -1.857589e+02
   4.265123e+02   9.830169e+01
   1.477581e+02   3.291828e+02
  -2.595703e+02   3.132070e+02
  -4.339261e+02   1.347461e+02
  -2.906150e+02  -1.384012e+02
  -9.425015e+01  -3.032557e+02
   7.946638e+00  -1.688777e+02
  -4.620927e+01   1.070759e+02
  -1.398531e+02   1.290465e+02
  -2.046785e+02  -1.044552e+02
  -4.802491e+01  -4.898929e+02
   2.421005e+02  -3.851995e+02
   3.496064e+02  -4.136795e+00
   1.192330e+02   2.609706e+02
  -1.787303e+02   1.359958e+02
  -1.889152e+02  -2.118802e+02
   1.338927e+02  -3.635487e+02
   4.634002e+02  -5.386940e+01
   4.340654e+02   3.681898e+02
   1.738079e+02   4.553038e+02
  -2.909092e+02   2.432994e+02
  -5.134563e+02  -6.932298e+01
  -3.275107e+02  -2.583860e+02
   3.821146e+01  -2.104992e+02
   2.924617e+02  -1.145298e+02
   2.583950e+02  -1.572640e+01
   1.298655e+01   3.902415e+01
  -6.472002e+01  -4.648903e+01
   7.388737e+01  -3.354454e+01
   2.042286e+02   8.098790e+01
   1.088097e+02   1.845068e+02
  -1.266117e+02   1.809486e+02
  -3.429655e+02   1.133565e+02
  -2.657047e+02  -1.393800e+02
   6.190654e+01  -3.375508e+02
   3.479830e+02  -3.199422e+02
   3.615283e+02  -1.082171e+02
   2.102430e+02   1.868139e+02
   8.468160e+01   3.734301e+02
  -1.492878e+01   3.336813e+02
  -3.902935e+01   1.495496e+02
  -7.830025e+01   1.024757e+02
  -1.445473e+02   3.738745e+01
  -2.244027e+02  -7.613104e+00
  -1.627850e+02  -1.047370e+02
  -5.546927e+01  -2.396945e+02
   1.160241e+02  -1.905301e+02
   2.362131e+02   4.342347e+01
   1.209748e+02   2.488846e+02
  -7.812675e+01   2.318184e+02
  -2.480200e+02   8.312284e+01
  -2.924688e+02  -1.835746e+02
  -1.822068e+02  -2.867184e+02
   6.610138e+01  -2.405512e+02
   1.623373e+02  -1.707365e+02
   1.343753e+02  -9.700223e+01
   1.929926e+02  -6.908216e+01
   2.919205e+02  -2.188544e+00
   3.429650e+02   1.153216e+02
   2.815808e+02   2.680756e+02
  -7.211292e+01   4.512340e+02
  -4.201344e+02   3.926282e+02
  -4.654313e+02   1.657028e+02
  -3.077895e+02  -1.205031e+02
  -1.433161e+00  -2.667424e+02
   1.123969e+02  -2.031712e+02
  -1.730261e+01  -2.666364e+01
  -1.580196e+02   2.842839e+01
  -1.237296e+02  -7.095173e+01
  -2.605036e+00  -1.162628e+02
   9.746988e+01  -9.887206e+01
   1.117114e+02   3.338016e+01
  -2.896987e+01   1.209263e+02
  -1.448302e+02  -2.258198e+01
  -1.049360e+02  -2.209799e+02
   1.526713e+01  -3.575981e+02
   2.301839e+02  -1.986127e+02
   3.702616e+02   6.433490e+01
   2.800074e+02   2.255478e+02
   6.368564e+01   2.524551e+02
  -1.216974e+02   1.283532e+02
  -1.493231e+02  -8.832558e+00
  -3.132826e+01   2.999237e+01
   4.567830e+01   7.812795e+01
  -3.426831e+01   1.068757e+02
  -1.338222e+02   6.445248e+01
  -1.425484e+02  -5.906789e+01
  -3.427461e+01  -2.799113e+01
   8.384228e+01   3.339949e+00
   2.009405e+01   7.193825e+01
  -1.582794e+02   8.901205e+01
  -3.296469e+02  -9.960799e-01
  -2.779818e+02  -1.714623e+02
  -1.413037e+01  -2.717170e+02
   2.534399e+02  -2.111506e+02
   2.603440e+02  -8.058210e+01
   1.618447e+02   5.590595e+01
  -5.108471e+01   1.030181e+02
  -1.327802e+02  -1.319863e+01
   4.234327e+01  -9.748984e+01
   1.864722e+02  -5.888680e+01
   2.015308e+02   1.172643e+02
   5.001555e+01   1.572690e+02
  -7.170320e+01   1.000672e+02
  -1.190942e+02  -1.717387e+01
  -2.052298e+01  -2.748696e+01
   8.103453e+01   1.491507e+01
   3.700510e+00   1.110597e+02
  -9.987138e+01   8.357382e+01
  -1.984705e+02   8.126766e+00
  -1.535236e+02  -1.699465e+02
   3.661594e+01  -1.776290e+02
   1.280962e+02  -1.511525e+02
   1.440438e+02   3.347262e+00
   4.796064e+01   1.072053e+02
  -4.203018e+01   6.753446e+01
  -7.522463e+01   1.025255e+01
  -1.137472e+01  -7.413037e+00
   2.318486e+01   1.782445e+01
  -3.444258e+00   1.309104e+01
  -5.315355e+01  -6.942519e+00
  -7.692827e+01  -1.237734e+02
   1.581463e+01  -1.729334e+02
   1.372229e+02  -1.316284e+02
   2.228620e+02  -2.554319e+01
   1.866054e+02   1.536406e+02
   3.987979e+01   2.550507e+02
  -1.013415e+02   1.533464e+02
  -1.365858e+02   2.959096e+01
  -1.000482e+02  -6.076567e+01
  -2.311047e+01  -4.439849e+01
  -6.457367e+01   2.365040e-01
  -7.121186e+01  -3.894625e+00
  -2.895445e+01  -6.044692e+01
   6.666747e+01  -8.356485e+01
   9.751636e+01  -7.416130e+01
   1.095087e+02   4.973830e+01
  -3.089472e+01   1.220102e+02
  -1.653254e+02   6.973177e+01
  -1.472051e+02  -6.128331e+01
  -7.921998e+01  -1.735531e+02
   1.074641e+02  -1.908212e+02
   2.265056e+02  -6.556195e+01
   2.113823e+02   8.510971e+01
   4.847325e+01   1.623493e+02
  -3.486322e+01   1.114228e+02
  -6.698885e+01   6.609750e+01
  -6.524429e+01   8.574857e+01
  -5.332714e+01   1.103165e+02
  -1.112598e+02   6.190427e+01
  -1.072561e+02  -6.777436e+01
  -8.296448e+01  -2.008657e+02
   6.668558e+00  -2.287904e+02
   9.936866e+01  -1.197429e+02
   1.790331e+02  -2.687255e+00
   1.295694e+02   1.125408e+02
  -4.301268e+01   1.350721e+02
  -9.355253e+01   7.995589e+01
  -6.414382e+01  -2.969748e+00
   1.911700e+00  -3.770518e+01
  -5.351040e+00  -4.358042e+01
  -2.681073e+01  -4.046023e+01
  -1.261192e+02  -1.549819e+01
  -4.392217e+01  -3.019499e+01
   5.281080e+01  -4.445625e+01
   1.516507e+02   7.773344e+00
   1.312658e+02   3.263562e+01
  -3.011447e+01   6.936220e+01
  -1.521834e+02   4.962360e+01
  -1.791641e+02  -1.291967e+01
  -9.606667e+00  -2.162431e+01
   6.432502e+01  -3.762431e+01
   6.282616e+01   5.407241e+01
   1.304542e+01   6.177639e+01
  -4.005106e+01   7.967374e+01
  -6.306009e+01   3.322810e+01
  -4.227048e+01  -5.164446e+01
  -3.722325e+01  -7.746081e+01
  -4.961614e+01  -1.519112e+01
  -5.352719e+01   9.088641e+00
  -3.673763e+01  -6.478137e+01
   3.917674e+01  -1.372401e+02
   1.334723e+02  -1.479412e+02
   1.876407e+02  -3.201835e+00
   1.367908e+02   9.239383e+01
  -1.244077e+01   1.739129e+02
  -9.508533e+01   4.541612e+01
  -8.733926e+01   8.587977e+00
   8.441382e+01  -1.317933e+01
   1.629887e+02   3.626750e+01
   4.084131e+01   1.045560e+02
  -7.435473e+01   1.367026e+02
  -1.606844e+02   3.793088e+01
  -1.144486e+02  -5.676180e+01
  -4.841685e+01  -6.385598e+01
   3.986271e+01  -5.286694e+01
   7.148352e+01  -2.324988e+01
  -4.067470e+01   2.649335e+00
  -6.977168e+01  -4.117081e+01
  -3.623354e+01  -1.234735e+02
   1.071178e+02  -1.444657e+02
   1.442015e+02  -5.872923e+01
   8.133025e+01   9.660156e+01
   2.357063e+01   1.800036e+02
  -5.272996e+01   1.200290e+02
  -1.172860e+02  -9.206256e+00
  -5.903521e+01  -1.207620e+02
   2.532160e+00  -1.302542e+02
   1.107865e+01  -2.295264e+00
   1.736269e+01   2.600078e+01
   1.331424e+01  -1.097992e+00
   6.647230e-01  -2.038532e+01
  -1.520723e+01   5.967294e+01
   6.260970e+01   1.183772e+02
   8.758724e-01   1.122032e+02
  -2.304664e+01   2.624896e+01
  -1.054624e+02  -4.793206e+01
  -9.958506e+01  -6.677962e+01
   2.992224e+01  -4.823274e+01
   9.100034e+01   1.089897e+01
   9.483376e+01   4.048354e+01
   4.700676e+01   2.957714e-01
  -2.930193e+01  -1.118479e+00
  -1.332935e+01   4.432872e+01
  -5.835701e+01   3.915876e+01
   1.295796e+01  -1.665568e+01
  -1.034997e+02  -2.757864e+00
  -9.186163e+01  -1.357738e+01
  -1.428898e+01  -7.975909e+01
   9.872502e+01  -9.828505e+01
   1.487173e+02  -4.811025e+01
   1.549268e+02   3.773065e+01
   5.113062e+01   1.480144e+02
  -9.259566e+01   1.555162e+02
  -1.294182e+02   3.509634e+01
  -5.950922e+01  -3.735339e+01
  -6.733180e+01  -1.693070e+01
   1.427733e+01   8.175071e+00
   6.975485e+00   1.107635e+01
  -3.530063e+01  -3.161531e+01
  -6.081326e+01  -7.547376e+01
   5.152912e+01  -6.936684e+01
   1.205976e+02   3.036552e+01
   6.378989e+01   1.187042e+02
   3.318900e+01   1.022662e+02
  -6.055738e+01   6.280720e+01
  -8.849511e+01  -7.319006e+01
  -2.886852e+01  -1.100782e+02
   5.688118e+01  -5.890495e+01
   6.145555e+01   1.710599e+01
   2.165952e+01   5.365523e+01
  -6.680935e+01   7.058313e+01
  -3.600431e+01   4.864601e+01
   3.066884e+01  -4.026938e+00
   8.842879e+01  -3.049563e+01
  -3.412854e+01  -2.012853e+01
  -6.751457e+01   4.322613e+01
  -1.123614e+02   2.030633e+01
  -6.667863e+01  -2.394281e+01
   2.624789e+01  -7.484858e+01
   4.472754e+01  -9.464830e+01
   7.975067e+01  -1.792718e+01
   1.332037e+01   2.329486e+01
  -3.577595e+01   5.551655e+01
  -1.725849e+01  -1.383210e+00
  -3.942346e+01  -4.160188e+01
   7.427526e+00  -8.768053e+01
   4.235875e+01  -1.811722e+01
   7.845167e+01   2.954074e+01
   3.322425e+01   2.920812e+01
   1.403994e+01  -7.899112e+00
  -2.059370e+01  -4.263104e+01
  -9.581418e+00   6.319719e+00
   3.865396e-01   3.225694e+01
  -1.854972e+01   1.010942e+01
  -1.721167e+01  -6.341008e+01
  -4.236001e+01  -2.946556e+01
   3.587151e+01  -4.948968e+01
   7.606966e+01   1.672451e+01
   2.283491e+01   8.167307e+01
  -2.633176e+01   4.829861e+00
  -6.929059e+01  -4.872718e+00
  -3.297108e+01  -4.688927e+01
   2.168236e+01  -6.151377e+01
   3.101871e+01  -1.267542e+01
   3.594830e+01   1.023393e+01
  -2.515475e+01   1.581412e+01
  -2.021342e+01  -1.397822e+01
   5.046837e+01  -4.154040e+01
   6.519843e+01  -6.586823e+00
