
 $NMID
 id='ANONYMOUS ', fmtdat='(2E16.6)'
 volume=1.0
 tramp=1.0
 $END
   3.090477e+07  -4.144684e+05
   2.009967e+07   1.602223e+07
  -1.297932e+06   2.012282e+07
  -1.389400e+07   1.132128e+07
  -1.042932e+07  -5.045540e+05
   1.687869e+05  -5.414293e+06
   5.935975e+06  -1.587532e+06
   3.619179e+06   5.070066e+06
  -2.080055e+06   7.308468e+06
  -5.586144e+06   2.891390e+06
  -4.653595e+06  -3.728827e+06
  -6.555857e+05  -5.850794e+06
   2.691865e+06  -1.456270e+06
   2.125674e+06   4.481771e+06
  -1.829706e+06   5.372115e+06
  -4.886522e+06   1.775042e+05
  -3.436408e+06  -5.876595e+06
   1.545219e+06  -7.307333e+06
   5.748400e+06  -3.610478e+06
   6.032424e+06   1.467373e+06
   3.023443e+06   4.233412e+06
  -9.482611e+04   3.921954e+06
  -6.570644e+05   2.401514e+06
   1.079754e+06   1.992564e+06
   2.058606e+06   3.206125e+06
  -3.976645e+05   4.203722e+06
  -5.035416e+06   2.858285e+06
  -7.289272e+06  -5.383855e+05
  -4.394129e+06  -3.286576e+06
   1.002577e+06  -3.208306e+06
   3.657256e+06  -8.565813e+05
   1.635001e+06   1.421938e+06
  -2.051359e+06   1.794242e+06
  -3.486573e+06   4.627603e+04
  -1.920381e+06  -2.520589e+06
   5.229074e+05  -3.703359e+06
   1.705610e+06  -2.066177e+06
   1.174767e+06   1.033056e+06
  -6.706546e+04   2.156460e+06
  -5.452100e+05  -1.408846e+05
   4.574777e+05  -2.878024e+06
   1.946161e+06  -2.113215e+06
   1.904175e+06   1.626277e+06
  -3.599540e+05   3.612890e+06
  -2.867256e+06   1.016820e+06
  -2.765037e+06  -3.355336e+06
   4.821513e+05  -4.602069e+06
   4.217472e+06  -1.524897e+06
   5.063281e+06   2.605862e+06
   2.113014e+06   4.175468e+06
  -2.212202e+06   2.547483e+06
  -4.292734e+06  -3.324280e+05
  -2.557083e+06  -2.123973e+06
   1.036443e+06  -1.732168e+06
   2.917425e+06   9.664139e+04
   1.581959e+06   1.413732e+06
  -9.204931e+05   9.334683e+05
  -1.541707e+06  -5.548868e+05
   1.498533e+05  -1.140526e+06
   1.674495e+06  -1.183810e+05
   8.470243e+05   1.283693e+06
  -1.623336e+06   1.487075e+06
  -3.074935e+06   1.328319e+05
  -1.816377e+06  -1.960389e+06
   1.339202e+06  -3.521424e+06
   4.054858e+06  -3.300466e+06
   4.520035e+06  -8.472811e+05
   2.767594e+06   2.541387e+06
   4.232434e+05   4.436263e+06
  -8.392669e+05   3.685055e+06
  -7.977944e+05   1.743581e+06
  -6.159208e+05   8.113541e+05
  -1.269859e+06   1.074156e+06
  -2.339923e+06   8.213882e+05
  -2.568311e+06  -8.301459e+05
  -1.345519e+06  -2.494933e+06
   6.364241e+05  -2.243337e+06
   1.998636e+06  -2.129711e+04
   1.701704e+06   2.250157e+06
  -2.061153e+05   2.663686e+06
  -2.418134e+06   9.948623e+05
  -3.183759e+06  -1.367323e+06
  -1.885764e+06  -2.750223e+06
   2.090993e+05  -2.542671e+06
   1.294281e+06  -1.516217e+06
   1.126925e+06  -8.617707e+05
   1.160700e+06  -8.798084e+05
   2.376773e+06  -7.540465e+05
   3.676598e+06   3.506255e+05
   3.076983e+06   2.198099e+06
   2.373533e+05   3.600747e+06
  -2.856890e+06   3.456609e+06
  -3.839881e+06   1.653275e+06
  -2.255994e+06  -7.407446e+05
   1.680331e+05  -2.100911e+06
   1.282884e+06  -1.525031e+06
   4.540310e+05   1.730549e+05
  -1.070374e+06   1.096771e+06
  -1.572052e+06   3.205567e+05
  -6.242302e+05  -9.813697e+05
   5.813131e+05  -1.006217e+06
   6.400125e+05   2.882295e+05
  -5.232437e+05   1.030388e+06
  -1.637681e+06  -1.793074e+05
  -1.423412e+06  -2.416631e+06
   2.517806e+05  -3.422478e+06
   2.345410e+06  -2.072941e+06
   3.439081e+06   5.813740e+05
   2.716221e+06   2.529627e+06
   6.453166e+05   2.635313e+06
  -1.208995e+06   1.368053e+06
  -1.493442e+06   1.330077e+05
  -4.428476e+05  -3.557313e+04
   3.422161e+05   6.556642e+05
  -2.485706e+05   1.095043e+06
  -1.491647e+06   5.316058e+05
  -1.731246e+06  -5.759623e+05
  -4.620338e+05  -1.112796e+06
   9.835286e+05  -5.888079e+05
   9.543917e+05   3.668789e+05
  -6.346037e+05   7.319824e+05
  -2.166867e+06   6.936383e+04
  -1.976302e+06  -1.170450e+06
  -1.523943e+04  -2.030013e+06
   2.077433e+06  -1.732474e+06
   2.524230e+06  -3.583842e+05
   1.090395e+06   1.020072e+06
  -7.290058e+05   1.208931e+06
  -1.216596e+06   1.566920e+05
  -1.026037e+05  -8.683052e+05
   1.306975e+06  -6.492381e+05
   1.566013e+06   5.835146e+05
   4.909655e+05   1.451677e+06
  -8.246976e+05   1.055538e+06
  -1.178242e+06  -5.758626e+04
  -3.809851e+05  -6.278590e+05
   6.150016e+05  -9.406773e+04
   6.342872e+05   9.022154e+05
  -5.347954e+05   1.253457e+06
  -1.803701e+06   4.587612e+05
  -1.807498e+06  -9.375611e+05
  -3.750375e+05  -1.823744e+06
   1.199785e+06  -1.492067e+06
   1.515993e+06  -2.819057e+05
   5.322192e+05   7.334851e+05
  -5.386153e+05   7.753783e+05
  -6.595522e+05   7.251961e+04
   1.918211e+04  -4.898710e+05
   5.679994e+05  -3.694337e+05
   3.810205e+05   9.846433e+04
  -2.623065e+05   1.706146e+05
  -5.562404e+05  -4.034491e+05
   2.840214e+04  -1.034734e+06
   1.173376e+06  -8.662290e+05
   1.874641e+06   3.081315e+05
   1.339931e+06   1.709484e+06
  -1.567346e+05   2.219773e+06
  -1.452151e+06   1.425500e+06
  -1.650771e+06   1.373064e+04
  -9.800798e+05  -9.077567e+05
  -3.606062e+05  -8.674285e+05
  -2.870891e+05  -3.679561e+05
  -3.906703e+05  -2.071564e+05
  -6.824489e+04  -5.696552e+05
   7.149426e+05  -8.602217e+05
   1.334785e+06  -4.172635e+05
   1.094175e+06   6.640310e+05
  -1.101090e+05   1.472192e+06
  -1.550779e+06   1.109224e+06
  -2.100517e+06  -3.645957e+05
  -1.150243e+06  -1.845135e+06
   7.311182e+05  -2.141755e+06
   2.171340e+06  -1.075237e+06
   2.203328e+06   4.020320e+05
   1.097218e+06   1.182851e+06
  -5.355284e+04   1.035737e+06
  -4.673870e+05   6.344599e+05
  -2.892509e+05   6.635991e+05
  -1.873349e+05   1.040582e+06
  -5.460782e+05   1.066556e+06
  -1.090342e+06   2.724499e+05
  -1.191077e+06  -9.705339e+05
  -5.135849e+05  -1.713454e+06
   5.612097e+05  -1.309442e+06
   1.177272e+06  -4.834770e+04
   7.951886e+05   1.078135e+06
  -2.191303e+05   1.255529e+06
  -9.138077e+05   5.164265e+05
  -7.265649e+05  -4.138055e+05
  -4.567537e+04  -8.587671e+05
   2.942118e+05  -7.383448e+05
  -2.819988e+03  -4.487322e+05
  -3.639376e+05  -3.364880e+05
  -3.838378e+04  -3.620753e+05
   9.725937e+05  -2.307542e+05
   1.782579e+06   2.314913e+05
   1.476018e+06   8.500092e+05
   9.675894e+04   1.213350e+06
  -1.289896e+06   1.017687e+06
  -1.603925e+06   3.596105e+05
  -8.007780e+05  -2.870733e+05
   1.695174e+05  -4.495773e+05
   4.222512e+05  -9.792465e+04
  -1.147246e+04   2.932306e+05
  -4.442233e+05   2.141001e+05
  -4.228478e+05  -3.059224e+05
  -1.317713e+05  -6.823642e+05
   7.413154e+03  -4.403588e+05
  -1.346484e+05   1.618985e+05
  -3.306239e+05   3.612461e+05
  -2.732125e+05  -1.939759e+05
   1.667107e+05  -9.320454e+05
   7.938387e+05  -9.573620e+05
   1.105526e+06  -1.056329e+05
   6.586632e+05   8.213287e+05
  -3.613720e+05   9.373645e+05
  -1.063109e+06   2.189654e+05
  -6.558427e+05  -5.441057e+05
   5.998303e+05  -6.191616e+05
   1.489502e+06   4.281765e+03
   1.067183e+06   7.401888e+05
  -3.205419e+05   9.932251e+05
  -1.383018e+06   6.068794e+05
  -1.219797e+06  -7.661977e+04
  -1.846234e+05  -4.907480e+05
   5.741319e+05  -3.050099e+05
   3.194757e+05   2.290969e+05
  -5.746300e+05   4.319103e+05
  -1.067582e+06  -1.369845e+05
  -5.306256e+05  -1.107644e+06
   6.291496e+05  -1.518168e+06
   1.396805e+06  -7.532471e+05
   1.149772e+06   7.184232e+05
   1.893200e+05   1.661552e+06
  -6.666867e+05   1.248527e+06
  -8.696194e+05  -8.763616e+04
  -4.762316e+05  -1.079810e+06
   1.056232e+05  -9.404907e+05
   4.894863e+05  -1.199861e+05
   4.940732e+05   3.559883e+05
   2.201000e+05   1.466670e+05
   1.737574e+04  -1.095076e+05
   1.621484e+05   2.205208e+05
   4.417112e+05   8.610803e+05
   2.696492e+05   1.004051e+06
  -5.575254e+05   3.861373e+05
  -1.373607e+06  -4.137979e+05
  -1.262498e+06  -7.550201e+05
  -1.869926e+05  -6.231414e+05
   8.463528e+05  -3.857478e+05
   9.273137e+05  -2.031039e+05
   2.755906e+05   4.808321e+03
  -1.575502e+05   2.013227e+05
   4.728749e+04   2.281788e+05
   3.268142e+05   1.297595e+05
   1.503089e+04   1.267420e+05
  -6.936462e+05   1.887202e+05
  -9.485909e+05  -2.977014e+04
  -2.794163e+05  -6.177807e+05
   8.429711e+05  -1.033080e+06
   1.497722e+06  -6.402582e+05
   1.193160e+06   4.349667e+05
   2.254415e+05   1.300498e+06
  -6.752177e+05   1.235616e+06
  -9.570069e+05   4.420608e+05
  -6.124135e+05  -2.549725e+05
  -8.934339e+04  -3.261598e+05
   1.328982e+05  -1.393986e+04
  -4.872627e+04   6.951268e+04
  -3.134663e+05  -3.116529e+05
  -2.610406e+05  -7.386537e+05
   1.777372e+05  -6.054838e+05
   6.390484e+05   1.609407e+05
   6.332103e+05   9.196275e+05
   2.479871e+04   9.351117e+05
  -7.336522e+05   1.565118e+05
  -9.244080e+05  -7.238555e+05
  -2.727982e+05  -9.919981e+05
   6.628107e+05  -5.669835e+05
   9.871223e+05   8.703467e+04
   4.458665e+05   5.089915e+05
  -2.559096e+05   5.544620e+05
  -2.862402e+05   3.217494e+05
   2.919965e+05   3.338610e+04
   6.115098e+05  -2.663396e+04
   1.120143e+05   2.686896e+05
  -7.537535e+05   6.320923e+05
  -1.094763e+06   5.466359e+05
  -6.323337e+05  -1.088994e+05
   9.219314e+04  -7.693196e+05
   4.460500e+05  -7.575345e+05
   3.238113e+05  -1.016646e+05
   1.539651e+04   4.651209e+05
  -2.303809e+05   3.633120e+05
  -3.259799e+05  -1.919494e+05
  -2.240928e+05  -5.299802e+05
   6.327719e+04  -3.377344e+05
   3.551657e+05   6.584181e+04
   4.150663e+05   2.154252e+05
   2.213449e+05   5.148855e+04
  -2.259470e+03  -9.163933e+04
  -7.482928e+04   5.489448e+04
  -6.939629e+04   3.607039e+05
  -1.595184e+05   4.393539e+05
  -3.281554e+05   9.418637e+04
  -3.423167e+05  -4.155715e+05
  -4.095407e+04  -6.014693e+05
   4.026905e+05  -2.592470e+05
   5.691109e+05   2.937614e+05
   2.027503e+05   5.477837e+05
  -4.465742e+05   3.260208e+05
  -7.729339e+05  -9.471380e+04
  -4.210830e+05  -3.466694e+05
   2.685600e+05  -3.228212e+05
   5.688473e+05  -1.556160e+05
   1.837930e+05  -7.586437e+03
  -3.799601e+05   1.613902e+04
  -3.977108e+05  -1.226285e+05
   2.054507e+05  -3.049121e+05
   7.647661e+05  -2.461303e+05
