
 $NMID
 id='ANONYMOUS ', fmtdat='(2E16.6)'
 volume=1.0
 tramp=1.0
 $END
   2.391911e+07  -2.347179e+06
   1.786048e+07   9.550751e+06
   1.982429e+06   1.556982e+07
  -9.834347e+06   1.175033e+07
  -9.456681e+06   2.039942e+06
  -1.142876e+06  -4.630588e+06
   5.179320e+06  -2.866612e+06
   4.415906e+06   3.857735e+06
  -7.178156e+05   7.310482e+06
  -4.608357e+06   3.609196e+06
  -4.258897e+06  -2.942203e+06
  -7.924789e+05  -5.209391e+06
   2.297245e+06  -1.170890e+06
   2.084782e+06   4.364758e+06
  -1.237340e+06   5.383180e+06
  -4.254239e+06   8.873308e+05
  -3.560229e+06  -4.668726e+06
   5.813197e+05  -6.327528e+06
   4.417852e+06  -3.311891e+06
   4.753198e+06   1.015759e+06
   2.182463e+06   3.080761e+06
  -1.435521e+04   2.456002e+06
   3.486323e+05   1.473253e+06
   2.154409e+06   2.117338e+06
   2.349456e+06   3.824439e+06
  -6.940479e+05   4.359413e+06
  -5.066185e+06   2.447087e+06
  -6.754679e+06  -8.067260e+05
  -3.747125e+06  -2.997226e+06
   1.358347e+06  -2.622964e+06
   3.681727e+06  -2.792312e+05
   1.292234e+06   1.924832e+06
  -2.733640e+06   2.019913e+06
  -4.025324e+06  -2.493082e+05
  -1.795591e+06  -3.011760e+06
   9.875311e+05  -3.697596e+06
   1.632394e+06  -1.551679e+06
   4.482386e+05   1.237245e+06
  -5.707358e+05   1.613261e+06
  -3.173399e+05  -8.294067e+05
   8.219074e+05  -3.085604e+06
   1.879339e+06  -2.170155e+06
   1.926594e+06   1.157401e+06
   4.844995e+05   3.113415e+06
  -1.649753e+06   1.376558e+06
  -2.369813e+06  -2.155486e+06
  -2.488592e+05  -3.623454e+06
   3.289023e+06  -1.518016e+06
   4.799069e+06   2.017038e+06
   2.410322e+06   3.803709e+06
  -1.912793e+06   2.695396e+06
  -4.273019e+06   8.118921e+04
  -2.814350e+06  -1.811890e+06
   6.057507e+05  -1.764392e+06
   2.587556e+06  -2.762914e+05
   1.628306e+06   1.032426e+06
  -6.722073e+05   8.884497e+05
  -1.582816e+06  -4.254234e+05
  -2.033492e+05  -1.367145e+06
   1.645461e+06  -7.987195e+05
   1.544125e+06   7.565234e+05
  -6.783001e+05   1.652644e+06
  -2.604046e+06   7.875358e+05
  -1.881602e+06  -1.359455e+06
   1.144788e+06  -3.128808e+06
   3.840933e+06  -2.971740e+06
   4.110525e+06  -6.713081e+05
   2.312305e+06   2.338116e+06
   3.602037e+05   4.028247e+06
  -4.904785e+05   3.573594e+06
  -5.775261e+05   2.073600e+06
  -8.963489e+05   1.160857e+06
  -1.787004e+06   1.031432e+06
  -2.626048e+06   4.440581e+05
  -2.506212e+06  -1.239706e+06
  -1.100789e+06  -2.760464e+06
   9.246461e+05  -2.317276e+06
   2.226179e+06   1.017549e+05
   1.746864e+06   2.436220e+06
  -2.956655e+05   2.676640e+06
  -2.370862e+06   8.194823e+05
  -2.869046e+06  -1.421562e+06
  -1.576968e+06  -2.451317e+06
   1.660726e+05  -2.079103e+06
   9.423729e+05  -1.250548e+06
   7.950973e+05  -8.889569e+05
   1.015522e+06  -1.030228e+06
   2.328714e+06  -9.018102e+05
   3.651196e+06   2.141113e+05
   3.104327e+06   2.108941e+06
   2.880461e+05   3.600929e+06
  -2.872318e+06   3.462769e+06
  -3.883142e+06   1.555072e+06
  -2.188301e+06  -8.753916e+05
   3.393072e+05  -2.112261e+06
   1.386685e+06  -1.425814e+06
   4.240526e+05   2.234885e+05
  -1.107627e+06   1.064013e+06
  -1.527049e+06   3.195795e+05
  -5.595716e+05  -9.317469e+05
   6.318192e+05  -1.003653e+06
   7.472577e+05   2.919223e+05
  -4.017453e+05   1.232284e+06
  -1.731279e+06   1.913563e+05
  -1.819307e+06  -2.245730e+06
  -1.547883e+05  -3.697032e+06
   2.288097e+06  -2.539188e+06
   3.710854e+06   3.628234e+05
   2.984861e+06   2.636112e+06
   7.094576e+05   2.789452e+06
  -1.260723e+06   1.387183e+06
  -1.526279e+06   9.698191e+04
  -4.464070e+05  -3.424929e+04
   3.536432e+05   6.545382e+05
  -1.930789e+05   1.071522e+06
  -1.417240e+06   5.597634e+05
  -1.726553e+06  -4.862339e+05
  -5.247997e+05  -1.069758e+06
   9.705961e+05  -6.281226e+05
   1.024987e+06   3.684547e+05
  -6.149799e+05   8.516508e+05
  -2.296649e+06   1.868082e+05
  -2.152369e+06  -1.200836e+06
  -8.133334e+04  -2.167704e+06
   2.117895e+06  -1.837653e+06
   2.564426e+06  -3.992556e+05
   1.106705e+06   9.815835e+05
  -6.830635e+05   1.170499e+06
  -1.150737e+06   1.693820e+05
  -8.208924e+04  -8.259668e+05
   1.292367e+06  -6.526233e+05
   1.595646e+06   5.436803e+05
   5.702667e+05   1.466574e+06
  -7.864281e+05   1.147269e+06
  -1.226820e+06   2.456026e+04
  -4.538631e+05  -6.184306e+05
   5.831434e+05  -1.221092e+05
   6.306664e+05   8.874897e+05
  -5.431926e+05   1.247924e+06
  -1.811437e+06   4.482152e+05
  -1.809049e+06  -9.401801e+05
  -3.915969e+05  -1.821624e+06
   1.172273e+06  -1.515549e+06
   1.520568e+06  -3.229219e+05
   5.719150e+05   7.276050e+05
  -5.264133e+05   8.063221e+05
  -6.998387e+05   6.507006e+04
   1.324304e+03  -5.673098e+05
   6.398904e+05  -4.309000e+05
   4.867810e+05   1.420422e+05
  -2.321612e+05   2.805494e+05
  -6.154109e+05  -3.358110e+05
  -3.631681e+04  -1.043913e+06
   1.159836e+06  -9.017966e+05
   1.893396e+06   2.865298e+05
   1.359192e+06   1.708391e+06
  -1.491995e+05   2.254209e+06
  -1.478248e+06   1.494858e+06
  -1.726332e+06   4.958566e+04
  -1.058352e+06  -9.760095e+05
  -3.637249e+05  -9.928211e+05
  -2.148648e+05  -4.242939e+05
  -3.314177e+05  -1.618438e+05
  -7.439374e+04  -5.250999e+05
   6.962854e+05  -8.921479e+05
   1.369127e+06  -4.651825e+05
   1.158850e+06   6.902783e+05
  -8.256293e+04   1.556594e+06
  -1.577162e+06   1.172147e+06
  -2.151922e+06  -3.490070e+05
  -1.212230e+06  -1.853681e+06
   6.685491e+05  -2.177982e+06
   2.154944e+06  -1.150493e+06
   2.271780e+06   3.394253e+05
   1.200144e+06   1.206995e+06
  -2.092889e+04   1.129648e+06
  -5.356739e+05   6.963521e+05
  -3.780121e+05   6.398377e+05
  -2.139652e+05   9.834455e+05
  -5.187657e+05   1.041387e+06
  -1.066789e+06   2.744765e+05
  -1.192488e+06  -9.765245e+05
  -5.186519e+05  -1.729916e+06
   5.689306e+05  -1.323398e+06
   1.198226e+06  -6.529851e+04
   8.325378e+05   1.061789e+06
  -1.689493e+05   1.276489e+06
  -8.825568e+05   5.929009e+05
  -7.510644e+05  -3.312347e+05
  -1.188108e+05  -8.364140e+05
   2.247417e+05  -7.757617e+05
  -2.664451e+04  -4.896573e+05
  -3.516984e+05  -3.504544e+05
  -2.998268e+04  -3.697709e+05
   9.587626e+05  -2.538216e+05
   1.770601e+06   2.008529e+05
   1.500994e+06   8.262133e+05
   1.564684e+05   1.203035e+06
  -1.241986e+06   1.032978e+06
  -1.607976e+06   4.085231e+05
  -8.420631e+05  -2.313507e+05
   1.384137e+05  -4.334980e+05
   4.164867e+05  -1.292068e+05
  -1.927529e+04   2.561888e+05
  -4.641955e+05   2.023102e+05
  -4.206979e+05  -3.068858e+05
  -8.833566e+04  -6.899822e+05
   4.787841e+04  -4.371587e+05
  -1.482352e+05   1.929753e+05
  -3.760354e+05   3.950207e+05
  -2.864652e+05  -1.920490e+05
   1.905381e+05  -9.515529e+05
   7.940483e+05  -9.622327e+05
   1.057237e+06  -9.471190e+04
   6.160336e+05   8.158325e+05
  -3.514653e+05   9.068256e+05
  -1.032493e+06   1.895931e+05
  -6.535571e+05  -5.603150e+05
   5.950563e+05  -6.398883e+05
   1.532285e+06  -2.082686e+04
   1.144056e+06   7.483420e+05
  -2.868399e+05   1.054074e+06
  -1.425485e+06   6.784696e+05
  -1.283498e+06  -5.083771e+04
  -2.088292e+05  -5.126376e+05
   5.802996e+05  -3.334224e+05
   3.133033e+05   2.130686e+05
  -5.954211e+05   4.110972e+05
  -1.067026e+06  -1.688373e+05
  -4.931973e+05  -1.126340e+06
   6.784663e+05  -1.506784e+06
   1.428118e+06  -7.264501e+05
   1.157434e+06   7.438201e+05
   1.827001e+05   1.692370e+06
  -6.828623e+05   1.289329e+06
  -8.976549e+05  -6.302228e+04
  -5.138203e+05  -1.099114e+06
   7.521225e+04  -9.853405e+05
   4.896574e+05  -1.408597e+05
   5.269952e+05   3.746563e+05
   2.509632e+05   1.665024e+05
   8.535655e+03  -1.236355e+05
   1.267464e+05   1.913940e+05
   4.342755e+05   8.604031e+05
   3.084386e+05   1.035531e+06
  -5.256735e+05   4.098030e+05
  -1.399743e+06  -4.230559e+05
  -1.315718e+06  -7.757301e+05
  -1.957857e+05  -6.261252e+05
   8.882769e+05  -3.791678e+05
   9.554675e+05  -2.140510e+05
   2.588045e+05  -1.988162e+04
  -1.710841e+05   1.976057e+05
   7.872062e+04   2.589014e+05
   3.638220e+05   1.628996e+05
  -6.694788e+02   1.268839e+05
  -7.404619e+05   1.636376e+05
  -9.523752e+05  -4.401055e+04
  -2.257327e+05  -6.054555e+05
   8.879721e+05  -1.009524e+06
   1.485109e+06  -6.198102e+05
   1.152152e+06   4.551755e+05
   2.051064e+05   1.319662e+06
  -6.753759e+05   1.236726e+06
  -9.627646e+05   4.166926e+05
  -6.183174e+05  -2.837144e+05
  -7.241633e+04  -3.254800e+05
   1.617367e+05   1.751219e+04
  -4.390135e+04   9.905020e+04
  -3.363053e+05  -3.097536e+05
  -2.758202e+05  -7.521171e+05
   1.886275e+05  -6.012855e+05
   6.462685e+05   1.937887e+05
   6.060517e+05   9.529715e+05
  -2.093334e+04   9.310664e+05
  -7.561175e+05   1.122579e+05
  -9.094207e+05  -7.680020e+05
  -2.456110e+05  -9.964967e+05
   6.728822e+05  -5.400907e+05
   9.764056e+05   1.005809e+05
   4.327011e+05   4.872634e+05
  -2.514828e+05   5.261692e+05
  -2.595471e+05   3.229685e+05
   3.245596e+05   5.667651e+04
   6.255874e+05  -1.528359e+04
   1.015829e+05   2.630597e+05
  -7.671511e+05   6.385899e+05
  -1.088119e+06   5.773650e+05
  -6.119894e+05  -8.002371e+04
   9.803694e+04  -7.630076e+05
   4.236535e+05  -7.562641e+05
   2.890450e+05  -8.479100e+04
  -8.678937e+03   4.794160e+05
  -2.372345e+05   3.459456e+05
  -3.225479e+05  -2.262857e+05
  -2.174996e+05  -5.371569e+05
   6.778105e+04  -3.116752e+05
   3.538272e+05   8.195842e+04
   4.124665e+05   1.974777e+05
   2.275390e+05   3.502371e+04
   7.671159e+03  -6.556995e+04
  -8.745988e+04   1.033106e+05
  -1.190270e+05   3.728596e+05
  -2.153318e+05   3.953663e+05
  -3.377210e+05   3.339347e+04
  -2.939707e+05  -4.484321e+05
   1.783576e+04  -5.996162e+05
   4.205299e+05  -2.398914e+05
   5.473925e+05   3.166005e+05
   1.817184e+05   5.633461e+05
  -4.437040e+05   3.232383e+05
  -7.586633e+05  -1.114853e+05
  -4.131315e+05  -3.523234e+05
   2.685341e+05  -3.011088e+05
   5.609715e+05  -1.264448e+05
   1.608723e+05  -6.969194e+03
  -4.110543e+05  -1.943812e+04
  -4.053608e+05  -1.643018e+05
   2.422351e+05  -3.196610e+05
   8.187853e+05  -2.296142e+05
