
 $NMID
 id='ANONYMOUS ', fmtdat='(2E16.6)'
 volume=1.0
 tramp=1.0
 $END
  -4.162463e+06   1.537234e+06
  -3.682510e+06  -6.330560e+05
  -1.256764e+06  -2.581580e+06
   1.068995e+06  -2.771688e+06
   1.639701e+06  -1.072326e+06
   5.443031e+05   7.670180e+05
  -7.940897e+05   9.279641e+05
  -1.116950e+06  -4.278327e+05
  -3.443340e+05  -1.479231e+06
   6.481336e+05  -9.953078e+05
   9.626879e+05   3.418253e+05
   4.152117e+05   9.766756e+05
  -3.962301e+05   3.193116e+05
  -6.503904e+05  -7.856901e+05
  -7.451388e+04  -1.148307e+06
   7.459286e+05  -4.311734e+05
   9.291040e+05   6.752108e+05
   2.390551e+05   1.210788e+06
  -6.480363e+05   8.245652e+05
  -9.101981e+05   1.027718e+04
  -4.863976e+05  -4.728639e+05
  -5.739176e+04  -3.866830e+05
  -1.826928e+05  -1.603275e+05
  -6.492337e+05  -2.798436e+05
  -7.413453e+05  -7.023172e+05
  -6.924224e+04  -9.653891e+05
   9.426477e+05  -7.400892e+05
   1.409529e+06  -1.384358e+05
   8.649376e+05   4.329918e+05
  -2.018968e+05   5.845013e+05
  -7.779653e+05   2.054692e+05
  -3.661832e+05  -3.881572e+05
   5.025124e+05  -6.139218e+05
   9.036475e+05  -1.633799e+05
   5.443312e+05   5.741926e+05
  -4.770683e+04   8.394320e+05
  -2.764029e+05   3.613778e+05
  -1.095827e+05  -2.857217e+05
   1.016479e+05  -3.455279e+05
   1.260294e+05   2.217774e+05
  -2.676750e+04   7.163383e+05
  -2.664613e+05   5.484123e+05
  -4.367705e+05  -9.941318e+04
  -3.055979e+05  -5.349396e+05
   1.527798e+05  -3.376557e+05
   5.098136e+05   2.453431e+05
   2.499804e+05   6.201877e+05
  -5.262756e+05   4.382430e+05
  -1.046635e+06  -1.316798e+05
  -7.026245e+05  -6.149702e+05
   2.224939e+05  -6.540568e+05
   8.563679e+05  -2.730292e+05
   6.815117e+05   1.886779e+05
   3.551337e+03   3.769102e+05
  -4.747956e+05   2.058176e+05
  -3.748933e+05  -9.496215e+04
   7.475436e+04  -2.024922e+05
   3.461476e+05  -7.565335e+03
   1.536529e+05   2.719975e+05
  -2.610910e+05   3.045016e+05
  -3.877917e+05   2.597253e+03
  -3.071502e+04  -3.421494e+05
   4.257773e+05  -3.278634e+05
   4.348174e+05   1.308029e+05
  -7.702065e+04   6.655099e+05
  -6.378583e+05   7.785948e+05
  -7.907710e+05   3.193454e+05
  -5.537630e+05  -3.690758e+05
  -2.598269e+05  -7.843595e+05
  -1.083725e+05  -7.377144e+05
  -2.401186e+04  -4.742490e+05
   1.290112e+05  -3.295156e+05
   3.591081e+05  -3.300674e+05
   5.619972e+05  -2.138559e+05
   5.991506e+05   1.609922e+05
   3.662255e+05   5.468351e+05
  -8.904545e+04   5.481900e+05
  -4.901113e+05   9.739492e+04
  -5.019800e+05  -4.247022e+05
  -7.268006e+04  -5.744576e+05
   4.523439e+05  -2.772194e+05
   6.452034e+05   1.638828e+05
   4.145288e+05   4.158628e+05
   5.448663e+04   3.991369e+05
  -1.145563e+05   2.686862e+05
  -8.972836e+04   2.107560e+05
  -1.365969e+05   2.709346e+05
  -4.227878e+05   3.179754e+05
  -7.571344e+05   1.568637e+05
  -7.500717e+05  -2.646720e+05
  -2.524538e+05  -7.268167e+05
   4.132070e+05  -8.678509e+05
   7.297723e+05  -5.194733e+05
   4.997414e+05   8.050972e+04
   2.742047e+04   4.641493e+05
  -2.252982e+05   3.647941e+05
  -9.949879e+04  -2.957246e+04
   1.778945e+05  -2.772932e+05
   2.953510e+05  -1.437084e+05
   1.567661e+05   1.625994e+05
  -8.218307e+04   2.429217e+05
  -1.785404e+05  -1.603939e+04
  -1.573177e+03  -2.857942e+05
   3.364855e+05  -1.648110e+05
   5.169302e+05   3.349621e+05
   2.725308e+05   7.574610e+05
  -3.114703e+05   6.794439e+05
  -7.968788e+05   1.510551e+05
  -7.823604e+05  -3.832613e+05
  -3.059925e+05  -5.485988e+05
   1.910647e+05  -3.571058e+05
   3.149204e+05  -9.889041e+04
   9.429614e+04  -1.663161e+04
  -1.082736e+05  -1.161180e+05
  -1.948160e+04  -2.269217e+05
   2.562522e+05  -1.884576e+05
   3.774409e+05   3.066358e+03
   1.673582e+05   1.869669e+05
  -1.647192e+05   1.831787e+05
  -2.369489e+05  -1.901844e+04
   7.486498e+04  -2.169481e+05
   4.694984e+05  -1.750892e+05
   5.236612e+05   1.288765e+05
   1.428092e+05   4.515889e+05
  -3.393888e+05   5.014930e+05
  -5.103716e+05   2.223507e+05
  -2.795933e+05  -1.409647e+05
   7.812501e+04  -2.723481e+05
   2.230644e+05  -9.299048e+04
   5.643365e+04   1.641011e+05
  -2.316368e+05   2.021878e+05
  -3.587212e+05  -2.404067e+04
  -2.018957e+05  -2.704287e+05
   9.467890e+04  -2.837892e+05
   2.520161e+05  -7.844276e+04
   1.315648e+05   9.957738e+04
  -1.102242e+05   5.639764e+04
  -1.758896e+05  -1.494876e+05
   4.786248e+04  -2.865207e+05
   3.522149e+05  -1.872093e+05
   4.235954e+05   9.966447e+04
   1.776985e+05   3.550700e+05
  -1.594802e+05   3.752724e+05
  -2.956754e+05   1.500175e+05
  -1.592331e+05  -1.179172e+05
   6.401258e+04  -1.961228e+05
   1.448642e+05  -5.156946e+04
   3.480815e+04   1.226773e+05
  -1.123753e+05   1.312305e+05
  -1.188087e+05  -1.973146e+03
   2.528621e+04  -7.748941e+04
   1.461813e+05   2.871172e+04
   6.793042e+04   2.113905e+05
  -1.896185e+05   2.494621e+05
  -4.069152e+05   4.274458e+04
  -3.721110e+05  -2.808722e+05
  -8.974010e+04  -4.762570e+05
   2.257723e+05  -3.934676e+05
   3.585308e+05  -1.075265e+05
   2.797523e+05   1.477276e+05
   1.339272e+05   1.960458e+05
   6.378456e+04   8.463779e+04
   6.998228e+04   1.547392e+04
   4.117616e+04   1.007996e+05
  -9.403139e+04   2.226177e+05
  -2.590080e+05   1.736179e+05
  -2.823664e+05  -8.073155e+04
  -7.110216e+04  -3.315461e+05
   2.635300e+05  -3.314819e+05
   4.665682e+05  -4.457542e+04
   3.532483e+05   3.172211e+05
  -1.716340e+04   4.850869e+05
  -3.800643e+05   3.560654e+05
  -4.897767e+05   5.746065e+04
  -3.208898e+05  -1.832899e+05
  -6.231142e+04  -2.405041e+05
   7.653859e+04  -1.805014e+05
   5.290722e+04  -1.547371e+05
  -2.301783e+03  -2.113338e+05
   5.173439e+04  -2.391075e+05
   2.041792e+05  -1.116579e+05
   2.981829e+05   1.397680e+05
   1.991991e+05   3.315250e+05
  -4.813373e+04   3.049596e+05
  -2.451261e+05   7.875385e+04
  -2.299677e+05  -1.726651e+05
  -3.709165e+04  -2.719006e+05
   1.449894e+05  -1.733896e+05
   1.704176e+05   2.125083e+04
   7.313826e+04   1.611967e+05
   1.667823e+03   1.716351e+05
   3.517418e+04   1.018916e+05
   9.084234e+04   5.574093e+04
   2.532907e+04   7.592444e+04
  -1.826419e+05   1.039201e+05
  -3.741190e+05   5.318814e+04
  -3.544651e+05  -8.893227e+04
  -9.968157e+04  -2.366771e+05
   1.980151e+05  -2.774999e+05
   3.088623e+05  -1.729057e+05
   1.866914e+05  -2.875903e+03
  -4.212980e+03   9.402581e+04
  -7.728465e+04   5.076874e+04
  -6.963200e+03  -5.141700e+04
   8.753869e+04  -6.625935e+04
   1.029564e+05   4.155622e+04
   5.138785e+04   1.408321e+05
   9.641844e+03   9.469352e+04
   2.002807e+04  -5.085469e+04
   5.894735e+04  -1.064108e+05
   7.028924e+04   2.385959e+04
   9.621780e+03   2.095246e+05
  -1.134852e+05   2.410194e+05
  -2.103486e+05   7.171809e+04
  -1.664928e+05  -1.381002e+05
   2.586397e+04  -2.029966e+05
   2.025817e+05  -8.946675e+04
   1.651620e+05   8.297021e+04
  -8.802593e+04   1.649265e+05
  -3.178503e+05   8.886718e+04
  -2.823474e+05  -9.145157e+04
  -1.774508e+03  -2.361273e+05
   2.588878e+05  -2.229255e+05
   2.718131e+05  -6.210792e+04
   7.310915e+04   9.555382e+04
  -1.015430e+05   1.019498e+05
  -7.464415e+04  -2.666320e+04
   1.042675e+05  -1.156266e+05
   2.310487e+05  -1.848734e+04
   1.590169e+05   2.104029e+05
  -6.574859e+04   3.487208e+05
  -2.610180e+05   2.245642e+05
  -2.802220e+05  -9.470546e+04
  -1.275899e+05  -3.431129e+05
   7.276819e+04  -3.064724e+05
   1.898897e+05  -3.744343e+04
   1.678681e+05   1.999314e+05
   4.083049e+04   2.097077e+05
  -9.281368e+04   5.648052e+04
  -1.321867e+05  -4.964162e+04
  -6.408682e+04  -2.128074e+04
   6.143266e+03   2.668390e+04
  -3.194466e+04  -3.240225e+04
  -1.342910e+05  -1.554384e+05
  -1.227751e+05  -1.984607e+05
   8.345073e+04  -1.125702e+05
   3.141477e+05   1.345590e+04
   3.180179e+05   9.031775e+04
   7.418026e+04   1.189781e+05
  -1.674399e+05   1.265972e+05
  -1.880098e+05   9.667922e+04
  -4.987726e+04   1.880382e+04
   2.627268e+04  -5.021703e+04
  -3.392557e+04  -5.025034e+04
  -8.840417e+04  -1.536275e+04
  -5.274066e+03  -2.708505e+04
   1.495200e+05  -7.305457e+04
   2.002465e+05  -3.991207e+04
   7.352762e+04   1.150855e+05
  -1.354213e+05   2.557102e+05
  -2.745758e+05   2.037824e+05
  -2.598506e+05  -3.736283e+04
  -1.109861e+05  -2.646498e+05
   7.472199e+04  -2.912311e+05
   1.789527e+05  -1.349310e+05
   1.446586e+05   2.822030e+04
   3.066202e+04   6.430778e+04
  -3.825585e+04   3.821866e+03
   1.998221e+03  -2.489213e+04
   8.750675e+04   4.509513e+04
   9.833778e+04   1.413647e+05
  -8.546780e+03   1.344318e+05
  -1.460298e+05  -8.424056e+03
  -1.748179e+05  -1.692814e+05
  -4.065912e+04  -1.955988e+05
   1.544783e+05  -6.048434e+04
   2.293595e+05   1.153624e+05
   1.011171e+05   1.948861e+05
  -1.129588e+05   1.453344e+05
  -2.069913e+05   2.879983e+04
  -1.128747e+05  -7.698838e+04
   2.548132e+04  -1.195067e+05
   3.453899e+04  -7.913290e+04
  -7.385172e+04   5.107790e+03
  -1.302423e+05   3.578854e+04
  -3.368733e+04  -4.914127e+04
   1.258535e+05  -1.734715e+05
   1.926011e+05  -1.785626e+05
   1.276438e+05  -1.682598e+04
   1.896851e+04   1.626916e+05
  -4.620199e+04   1.773485e+05
  -5.340076e+04   2.958686e+04
  -2.216269e+04  -1.019377e+05
   3.232909e+04  -8.293702e+04
   8.002840e+04   3.277456e+04
   7.298644e+04   1.005581e+05
   6.544348e+02   6.614927e+04
  -7.816583e+04   2.624862e+02
  -9.452036e+04  -1.789573e+04
  -4.854024e+04   6.321482e+03
  -2.610345e+02   1.238745e+04
   1.121319e+04  -3.044588e+04
   8.388593e+03  -8.682131e+04
   3.046000e+04  -9.236682e+04
   7.191970e+04  -2.026189e+04
   8.211873e+04   8.236574e+04
   2.298920e+04   1.277453e+05
  -7.676671e+04   7.102287e+04
  -1.292150e+05  -3.966603e+04
  -6.623794e+04  -1.092517e+05
   7.469622e+04  -8.974097e+04
   1.624222e+05  -1.468582e+04
   1.035524e+05   5.202835e+04
  -4.082628e+04   7.461029e+04
  -1.102030e+05   5.284476e+04
  -3.109892e+04   8.668876e+03
   9.029000e+04  -1.628354e+04
   9.515111e+04   1.563986e+04
  -3.549934e+04   8.183842e+04
  -1.623857e+05   9.184784e+04
