
 $NMID
 id='ANONYMOUS ', fmtdat='(2E16.6)'
 volume=1.0
 tramp=1.0
 $END
  -5.374212e+07   5.079018e+05
  -3.269532e+07  -3.266181e+07
   6.528511e+06  -3.629434e+07
   2.600496e+07  -1.450677e+07
   1.584488e+07   6.184508e+06
  -2.907313e+06   8.920692e+06
  -9.390946e+06  -8.453247e+05
  -2.936162e+06  -9.220883e+06
   5.654067e+06  -9.151112e+06
   9.178276e+06  -2.173648e+06
   6.815168e+06   5.870653e+06
   9.002363e+05   8.308309e+06
  -3.835514e+06   2.659800e+06
  -2.660195e+06  -5.302224e+06
   3.473166e+06  -6.452035e+06
   7.559521e+06   1.105106e+06
   4.432923e+06   9.705285e+06
  -3.434796e+06   1.136140e+07
  -9.602633e+06   5.766740e+06
  -1.035156e+07  -1.893081e+06
  -6.330267e+06  -7.112554e+06
  -6.737365e+05  -8.178182e+06
   2.652974e+06  -5.692325e+06
   1.526214e+06  -2.592260e+06
  -1.266928e+06  -2.216589e+06
  -2.724753e+05  -4.185835e+06
   5.312382e+06  -4.337629e+06
   9.434098e+06  -5.279436e+05
   6.838312e+06   3.965544e+06
   1.831350e+05   4.898837e+06
  -3.700696e+06   2.471568e+06
  -2.423651e+06  -1.002725e+05
   7.131523e+05  -1.072173e+06
   2.403499e+06  -5.208988e+05
   2.224062e+06   1.504594e+06
   6.456291e+05   3.923909e+06
  -1.757068e+06   3.707888e+06
  -3.048360e+06  -1.811517e+05
  -1.568618e+06  -3.493686e+06
   7.628870e+05  -1.725088e+06
   3.203636e+05   2.514187e+06
  -2.368518e+06   2.323159e+06
  -2.419264e+06  -3.000595e+06
   2.156898e+06  -5.877896e+06
   6.514288e+06  -1.055524e+06
   4.930711e+06   6.519951e+06
  -1.693215e+06   8.133683e+06
  -7.076563e+06   2.396000e+06
  -6.806330e+06  -4.176009e+06
  -1.947617e+06  -5.807937e+06
   3.303961e+06  -2.735763e+06
   5.170395e+06   1.329324e+06
   2.477807e+06   3.304508e+06
  -2.246175e+06   2.166279e+06
  -4.365592e+06  -7.905027e+05
  -1.936352e+06  -2.560514e+06
   1.621665e+06  -1.340907e+06
   1.731574e+06   9.522397e+05
  -1.179675e+06   9.435390e+05
  -2.390380e+06  -1.530441e+06
   4.439428e+05  -3.199336e+06
   4.291816e+06  -1.884250e+06
   5.070206e+06   1.149505e+06
   2.300226e+06   3.739060e+06
  -1.697839e+06   5.116561e+06
  -4.862999e+06   4.765385e+06
  -6.019554e+06   1.735924e+06
  -4.448103e+06  -3.054173e+06
  -9.697321e+05  -5.999122e+06
   1.693343e+06  -4.682189e+06
   1.632755e+06  -1.293568e+06
   1.954014e+05   1.261774e+05
   8.972700e+04  -1.021825e+06
   1.677003e+06  -1.741121e+06
   2.820647e+06  -1.753740e+05
   2.016194e+06   1.978022e+06
  -1.409518e+03   2.183331e+06
  -1.611440e+06   2.269623e+05
  -1.735074e+06  -2.075817e+06
  -3.085119e+04  -2.928814e+06
   2.727856e+06  -1.638859e+06
   4.384047e+06   1.158268e+06
   3.145202e+06   3.638007e+06
  -1.110262e+04   4.073755e+06
  -2.157602e+06   2.626108e+06
  -2.111928e+06   1.133216e+06
  -1.756955e+06   7.276617e+05
  -2.888789e+06   5.528054e+05
  -4.314589e+06  -6.600249e+05
  -3.506337e+06  -2.674375e+06
  -2.039146e+05  -4.100636e+06
   3.136541e+06  -3.935388e+06
   4.145117e+06  -2.157752e+06
   2.651699e+06   4.173863e+05
   2.707063e+05   2.244357e+06
  -1.101604e+06   1.932866e+06
  -5.608563e+05  -4.208429e+04
   1.077435e+06  -1.318885e+06
   1.885646e+06  -4.209741e+05
   9.172878e+05   1.183860e+06
  -5.112758e+05   1.123782e+06
  -4.570935e+05  -3.722878e+05
   1.005448e+06  -7.427420e+05
   1.851612e+06   1.165113e+06
   7.631218e+05   3.386178e+06
  -1.419334e+06   3.439337e+06
  -3.052380e+06   1.248780e+06
  -3.353476e+06  -1.317235e+06
  -2.374794e+06  -2.714142e+06
  -5.185789e+05  -2.622302e+06
   1.225671e+06  -1.488429e+06
   1.582242e+06  -2.467562e+05
   4.935526e+05   3.808627e+04
  -3.706638e+05  -7.456897e+05
   3.868546e+05  -1.337057e+06
   1.883008e+06  -6.032860e+05
   2.036678e+06   8.439863e+05
   4.113959e+05   1.398349e+06
  -1.159297e+06   5.927328e+05
  -9.075921e+05  -4.381767e+05
   8.289778e+05  -5.502224e+05
   2.196756e+06   2.600683e+05
   1.794283e+06   1.322876e+06
  -1.994036e+05   1.991066e+06
  -2.283719e+06   1.706481e+06
  -2.773897e+06   3.217517e+05
  -1.234562e+06  -1.242026e+06
   8.951606e+05  -1.505977e+06
   1.547376e+06  -2.078520e+05
   2.094773e+05   1.074298e+06
  -1.506070e+06   7.581075e+05
  -1.732277e+06  -7.513700e+05
  -3.721572e+05  -1.645787e+06
   1.068015e+06  -1.001831e+06
   1.263122e+06   2.813735e+05
   2.647378e+05   7.728107e+05
  -7.915788e+05   6.664061e+04
  -7.516283e+05  -1.044169e+06
   5.583917e+05  -1.435948e+06
   2.006353e+06  -5.722661e+05
   2.055699e+06   1.023375e+06
   4.159079e+05   2.072350e+06
  -1.415120e+06   1.667178e+06
  -1.724366e+06   2.394641e+05
  -5.189251e+05  -8.601100e+05
   6.456893e+05  -8.165380e+05
   6.389419e+05  -8.736492e+04
  -1.062043e+05   3.707279e+05
  -4.934095e+05   2.283918e+05
  -1.394099e+05  -6.093469e+04
   4.381337e+05   6.034011e+04
   5.295186e+05   6.538373e+05
  -1.826868e+05   1.188303e+06
  -1.368547e+06   9.193629e+05
  -2.092425e+06  -3.818738e+05
  -1.497971e+06  -1.925284e+06
   1.789476e+05  -2.432110e+06
   1.595563e+06  -1.447373e+06
   1.699634e+06   9.295794e+04
   8.852003e+05   8.870362e+05
   3.370662e+05   6.616144e+05
   4.777473e+05   2.245314e+05
   6.228336e+05   3.046006e+05
   9.935103e+04   7.591727e+05
  -8.607251e+05   9.168757e+05
  -1.446201e+06   3.532466e+05
  -1.070230e+06  -7.064780e+05
   2.208740e+05  -1.472197e+06
   1.707871e+06  -1.107110e+06
   2.263048e+06   4.470599e+05
   1.172268e+06   2.084420e+06
  -9.696244e+05   2.383631e+06
  -2.525822e+06   1.075323e+06
  -2.366563e+06  -6.164569e+05
  -9.880477e+05  -1.322439e+06
   1.830851e+05  -9.567849e+05
   3.844800e+05  -5.276695e+05
   7.753636e+04  -7.602411e+05
   9.113909e+04  -1.307664e+06
   6.521695e+05  -1.296531e+06
   1.289284e+06  -3.368847e+05
   1.357180e+06   1.062965e+06
   5.879965e+05   1.891230e+06
  -6.012694e+05   1.451308e+06
  -1.288872e+06   1.961701e+04
  -8.347035e+05  -1.270183e+06
   3.652403e+05  -1.402786e+06
   1.151038e+06  -4.273364e+05
   8.190239e+05   6.784078e+05
  -1.033538e+05   1.072531e+06
  -5.179797e+05   7.896087e+05
  -7.438365e+04   4.195373e+05
   4.396557e+05   3.316017e+05
   6.603325e+04   3.843625e+05
  -1.145444e+06   2.285895e+05
  -2.069877e+06  -3.003986e+05
  -1.636672e+06  -1.011247e+06
   1.306472e+04  -1.434097e+06
   1.571503e+06  -1.165246e+06
   1.828565e+06  -3.093354e+05
   8.418426e+05   4.766331e+05
  -2.521501e+05   5.713872e+05
  -5.099758e+05   4.305081e+04
  -3.478581e+04  -4.202644e+05
   4.413109e+05  -2.671707e+05
   4.885339e+05   3.349977e+05
   2.654564e+05   7.234924e+05
   1.030636e+05   4.811769e+05
   1.347058e+05  -9.885428e+04
   2.745221e+05  -3.011812e+05
   2.802481e+05   2.277808e+05
  -1.246200e+05   9.933799e+05
  -8.838480e+05   1.084476e+06
  -1.363429e+06   1.963111e+05
  -8.700929e+05  -9.049443e+05
   3.983626e+05  -1.149713e+06
   1.257601e+06  -3.591894e+05
   7.471135e+05   5.619419e+05
  -6.927327e+05   6.617848e+05
  -1.593235e+06  -6.866901e+04
  -1.021813e+06  -8.461620e+05
   4.679922e+05  -9.972005e+05
   1.491835e+06  -5.041957e+05
   1.237155e+06   1.699109e+05
   1.429255e+05   5.119912e+05
  -6.463703e+05   2.798050e+05
  -3.909372e+05  -2.900407e+05
   5.772732e+05  -5.380454e+05
   1.191711e+06   5.586805e+04
   7.021290e+05   1.173499e+06
  -5.541603e+05   1.726444e+06
  -1.471676e+06   9.244373e+05
  -1.278229e+06  -7.336228e+05
  -2.406242e+05  -1.794840e+06
   7.171881e+05  -1.311431e+06
   9.301599e+05   1.633320e+05
   4.510560e+05   1.188145e+06
  -2.074674e+05   9.719598e+05
  -5.642078e+05   9.168053e+04
  -4.707386e+05  -3.676471e+05
  -1.616018e+05  -1.313995e+05
  -4.877441e+04   9.417893e+04
  -2.944530e+05  -2.978465e+05
  -5.338770e+05  -9.635172e+05
  -2.054532e+05  -1.076187e+06
   7.188331e+05  -4.068990e+05
   1.489729e+06   4.371586e+05
   1.294731e+06   8.131987e+05
   1.984361e+05   6.996792e+05
  -8.412495e+05   4.416111e+05
  -9.815578e+05   2.008930e+05
  -3.694456e+05  -5.227767e+04
   1.383807e+05  -2.314472e+05
   4.070833e+04  -1.996392e+05
  -2.582764e+05  -8.078640e+04
  -5.860320e+04  -1.329669e+05
   6.480834e+05  -2.595262e+05
   1.055283e+06  -1.633627e+04
   4.695636e+05   6.915994e+05
  -8.078074e+05   1.214682e+06
  -1.702223e+06   8.097470e+05
  -1.447979e+06  -3.949261e+05
  -3.169361e+05  -1.406493e+06
   7.426225e+05  -1.406749e+06
   1.044677e+06  -5.770044e+05
   6.645227e+05   2.091562e+05
   1.497550e+05   3.585821e+05
  -5.799628e+04   7.922442e+04
   8.443269e+04  -8.210792e+03
   3.038090e+05   3.660945e+05
   2.626694e+05   8.064225e+05
  -1.604890e+05   6.918733e+05
  -6.871599e+05  -9.279430e+04
  -7.799611e+05  -9.285689e+05
  -1.619076e+05  -1.039185e+06
   7.432236e+05  -2.871776e+05
   1.068645e+06   6.824368e+05
   3.914957e+05   1.089273e+06
  -6.978921e+05   7.143573e+05
  -1.136776e+06  -4.050795e+04
  -5.599209e+05  -6.144850e+05
   2.733533e+05  -7.056256e+05
   3.860793e+05  -3.825439e+05
  -2.345494e+05   5.610303e+03
  -6.488766e+05   6.057022e+04
  -1.611422e+05  -3.096860e+05
   8.120611e+05  -7.035720e+05
   1.264825e+06  -5.643854e+05
   7.864104e+05   1.721189e+05
  -7.225039e+04   8.841959e+05
  -5.469410e+05   8.819331e+05
  -4.414850e+05   1.847324e+05
  -7.717313e+04  -4.749997e+05
   2.262547e+05  -4.544416e+05
   3.593922e+05   1.229919e+05
   2.748770e+05   5.735160e+05
  -3.814816e+04   4.459168e+05
  -3.962903e+05  -2.692707e+04
  -4.910449e+05  -2.799859e+05
  -2.459847e+05  -9.965168e+04
   4.535708e+04   1.630055e+05
   8.207454e+04   6.620570e+04
  -4.502639e+04  -3.478202e+05
   5.064536e+03  -5.757095e+05
   3.077124e+05  -2.592042e+05
   4.956436e+05   3.514449e+05
   2.058165e+05   6.478058e+05
  -3.941404e+05   3.378824e+05
  -6.893656e+05  -2.514586e+05
  -2.821291e+05  -5.639505e+05
   5.050143e+05  -3.854034e+05
   9.015304e+05   4.260731e+04
   4.989046e+05   3.656774e+05
  -2.847420e+05   4.245199e+05
  -6.424843e+05   2.642419e+05
  -2.650597e+05   2.760650e+04
   3.292341e+05  -9.500926e+04
   4.069069e+05   3.175295e+04
  -1.437824e+05   2.885556e+05
  -7.147778e+05   2.997092e+05
