
 $NMID
 id='ANONYMOUS ', fmtdat='(2E16.6)'
 volume=1.0
 tramp=1.0
 $END
   5.217954e+07   7.501877e+05
   3.110495e+07   3.185029e+07
  -6.725669e+06   3.480961e+07
  -2.522849e+07   1.403163e+07
  -1.536185e+07  -5.688051e+06
   2.710759e+06  -8.579827e+06
   9.109078e+06   5.892450e+05
   3.019813e+06   8.881518e+06
  -5.366206e+06   9.116760e+06
  -8.947297e+06   2.246347e+06
  -6.646137e+06  -5.898664e+06
  -7.570103e+05  -8.302461e+06
   3.891136e+06  -2.499995e+06
   2.649512e+06   5.477259e+06
  -3.409881e+06   6.516226e+06
  -7.384873e+06  -1.058223e+06
  -4.270730e+06  -9.544995e+06
   3.477867e+06  -1.108666e+07
   9.491160e+06  -5.441946e+06
   1.003878e+07   2.157241e+06
   5.856832e+06   7.113759e+06
   3.238082e+05   7.817765e+06
  -2.573484e+06   5.242369e+06
  -1.116570e+06   2.489712e+06
   1.543632e+06   2.515080e+06
   1.379309e+05   4.466225e+06
  -5.649719e+06   4.255700e+06
  -9.595636e+06   2.060815e+05
  -6.689021e+06  -4.196696e+06
   1.470380e+05  -4.894868e+06
   3.993430e+06  -2.269955e+06
   2.466186e+06   4.236837e+05
  -9.988830e+05   1.345303e+06
  -2.790863e+06   4.975895e+05
  -2.334451e+06  -1.823553e+06
  -4.185883e+05  -4.165449e+06
   1.940202e+06  -3.577523e+06
   2.880800e+06   4.673708e+05
   1.247936e+06   3.505951e+06
  -8.575753e+05   1.428746e+06
  -1.882563e+05  -2.773857e+06
   2.437161e+06  -2.387171e+06
   2.378713e+06   2.925469e+06
  -2.040176e+06   5.661407e+06
  -6.148547e+06   9.133689e+05
  -4.599839e+06  -6.368117e+06
   1.737781e+06  -7.817145e+06
   6.949738e+06  -2.196531e+06
   6.755408e+06   4.201488e+06
   1.998069e+06   5.808698e+06
  -3.289890e+06   2.793577e+06
  -5.239194e+06  -1.260492e+06
  -2.571130e+06  -3.258953e+06
   2.156417e+06  -2.138609e+06
   4.286700e+06   7.773193e+05
   1.913204e+06   2.497650e+06
  -1.595948e+06   1.296834e+06
  -1.771534e+06  -9.408988e+05
   1.030183e+06  -9.863886e+05
   2.298766e+06   1.322316e+06
  -3.059439e+05   2.928623e+06
  -4.017749e+06   1.770733e+06
  -4.889796e+06  -1.064787e+06
  -2.237164e+06  -3.621542e+06
   1.816174e+06  -5.063244e+06
   5.065681e+06  -4.686415e+06
   6.109686e+06  -1.562439e+06
   4.326657e+06   3.221644e+06
   8.190739e+05   6.056432e+06
  -1.679664e+06   4.703361e+06
  -1.539120e+06   1.415896e+06
  -2.480859e+05   7.834721e+04
  -3.383025e+05   1.148051e+06
  -1.960473e+06   1.679750e+06
  -2.981755e+06  -4.230606e+04
  -2.014195e+06  -2.238349e+06
   1.363295e+05  -2.353619e+06
   1.795853e+06  -2.113957e+05
   1.831189e+06   2.239969e+06
  -3.831747e+04   3.056582e+06
  -2.859377e+06   1.578192e+06
  -4.398712e+06  -1.340651e+06
  -3.014673e+06  -3.737950e+06
   1.393432e+05  -4.005372e+06
   2.167434e+06  -2.502027e+06
   2.048890e+06  -1.089010e+06
   1.731558e+06  -7.669382e+05
   2.943664e+06  -5.925101e+05
   4.417405e+06   6.793393e+05
   3.590549e+06   2.764067e+06
   1.854452e+05   4.235614e+06
  -3.297277e+06   4.042413e+06
  -4.354947e+06   2.151476e+06
  -2.739049e+06  -5.358615e+05
  -1.820969e+05  -2.367594e+06
   1.229127e+06  -1.966789e+06
   5.779951e+05   7.844231e+04
  -1.153639e+06   1.346401e+06
  -1.937400e+06   4.038630e+05
  -8.970657e+05  -1.228335e+06
   5.648956e+05  -1.167126e+06
   5.164675e+05   3.692366e+05
  -9.531895e+05   8.190837e+05
  -1.864419e+06  -1.046004e+06
  -8.860699e+05  -3.354604e+06
   1.273678e+06  -3.575738e+06
   3.049208e+06  -1.447367e+06
   3.526801e+06   1.249447e+06
   2.565652e+06   2.825752e+06
   5.669397e+05   2.773332e+06
  -1.304285e+06   1.545471e+06
  -1.662471e+06   2.282148e+05
  -5.116456e+05  -4.390394e+04
   3.797865e+05   7.731477e+05
  -3.967197e+05   1.357363e+06
  -1.917586e+06   5.990044e+05
  -2.077149e+06  -8.591595e+05
  -4.278470e+05  -1.420146e+06
   1.192727e+06  -6.146407e+05
   9.655083e+05   4.494698e+05
  -8.299900e+05   6.077008e+05
  -2.301735e+06  -2.157665e+05
  -1.924686e+06  -1.365486e+06
   1.713166e+05  -2.104100e+06
   2.378537e+06  -1.793986e+06
   2.883461e+06  -3.270543e+05
   1.262226e+06   1.279735e+06
  -9.322705e+05   1.521849e+06
  -1.572725e+06   1.885973e+05
  -1.864685e+05  -1.100396e+06
   1.560511e+06  -7.655946e+05
   1.788623e+06   7.741327e+05
   4.037685e+05   1.697355e+06
  -1.080865e+06   1.056343e+06
  -1.307816e+06  -2.597423e+05
  -2.949143e+05  -7.833823e+05
   8.000940e+05  -6.542962e+04
   7.611534e+05   1.083537e+06
  -5.992220e+05   1.478961e+06
  -2.088602e+06   5.660751e+05
  -2.116873e+06  -1.083791e+06
  -4.131181e+05  -2.145197e+06
   1.467070e+06  -1.713390e+06
   1.780827e+06  -2.465407e+05
   5.432000e+05   8.853667e+05
  -6.658690e+05   8.486335e+05
  -6.815878e+05   8.845504e+04
   8.969227e+04  -4.123585e+05
   5.313128e+05  -2.728670e+05
   1.989173e+05   6.089355e+04
  -4.159816e+05  -2.623520e+04
  -5.515549e+05  -6.407130e+05
   1.727985e+05  -1.217725e+06
   1.413487e+06  -9.480638e+05
   2.164560e+06   4.061351e+05
   1.536019e+06   2.005358e+06
  -2.029272e+05   2.528402e+06
  -1.664799e+06   1.515146e+06
  -1.783219e+06  -8.432804e+04
  -9.543968e+05  -9.414742e+05
  -3.691689e+05  -7.426815e+05
  -4.723103e+05  -2.779080e+05
  -6.054647e+05  -3.153642e+05
  -8.704257e+04  -7.660111e+05
   8.865201e+05  -9.486216e+05
   1.505381e+06  -3.768221e+05
   1.132952e+06   7.411999e+05
  -2.157584e+05   1.551771e+06
  -1.778361e+06   1.158825e+06
  -2.355860e+06  -4.712475e+05
  -1.217802e+06  -2.161321e+06
   9.961884e+05  -2.458038e+06
   2.603366e+06  -1.112800e+06
   2.458569e+06   6.236644e+05
   1.057205e+06   1.368734e+06
  -1.663534e+05   1.022058e+06
  -4.206075e+05   5.831664e+05
  -1.328698e+05   7.944866e+05
  -1.333886e+05   1.333083e+06
  -6.835511e+05   1.317440e+06
  -1.327559e+06   3.294933e+05
  -1.394114e+06  -1.118218e+06
  -5.922512e+05  -1.970253e+06
   6.395592e+05  -1.502770e+06
   1.339665e+06  -1.719686e+04
   8.618897e+05   1.309153e+06
  -3.679701e+05   1.445967e+06
  -1.166257e+06   4.555569e+05
  -8.327722e+05  -6.703765e+05
   9.232029e+04  -1.083407e+06
   5.069440e+05  -8.126510e+05
   6.274118e+04  -4.461239e+05
  -4.487225e+05  -3.570274e+05
  -6.178527e+04  -4.036701e+05
   1.177109e+06  -2.302814e+05
   2.126807e+06   3.242128e+05
   1.687845e+06   1.049891e+06
  -6.319578e+03   1.466759e+06
  -1.615756e+06   1.184082e+06
  -1.887386e+06   3.210579e+05
  -8.718438e+05  -4.699427e+05
   2.574753e+05  -5.747231e+05
   5.190745e+05  -5.101730e+04
   1.971357e+04   4.208151e+05
  -4.711287e+05   2.704042e+05
  -5.009241e+05  -3.533247e+05
  -2.488837e+05  -7.644633e+05
  -8.267383e+04  -5.064363e+05
  -1.398524e+05   1.171661e+05
  -3.001770e+05   3.329290e+05
  -2.926618e+05  -2.352601e+05
   1.468137e+05  -1.040107e+06
   9.263228e+05  -1.114146e+06
   1.394467e+06  -1.721975e+05
   8.700894e+05   9.533511e+05
  -4.278623e+05   1.169720e+06
  -1.298577e+06   3.376589e+05
  -7.690814e+05  -5.978676e+05
   7.181541e+05  -6.848219e+05
   1.661386e+06   6.959937e+04
   1.082901e+06   8.747903e+05
  -4.682825e+05   1.045910e+06
  -1.553065e+06   5.447047e+05
  -1.300675e+06  -1.654125e+05
  -1.571925e+05  -5.359289e+05
   6.688303e+05  -2.957896e+05
   3.951091e+05   2.990186e+05
  -6.172039e+05   5.454509e+05
  -1.239221e+06  -8.573566e+04
  -7.005924e+05  -1.238820e+06
   6.176546e+05  -1.785813e+06
   1.553278e+06  -9.344930e+05
   1.323060e+06   7.836514e+05
   2.317315e+05   1.875205e+06
  -7.559050e+05   1.370121e+06
  -9.677129e+05  -1.631469e+05
  -4.734886e+05  -1.235282e+06
   2.031513e+05  -1.016573e+06
   5.805620e+05  -9.747523e+04
   5.012627e+05   3.870815e+05
   1.834576e+05   1.399383e+05
   4.470471e+04  -1.011974e+05
   2.795640e+05   3.064985e+05
   5.378874e+05   1.004684e+06
   2.237578e+05   1.121657e+06
  -7.297021e+05   4.162679e+05
  -1.550047e+06  -4.682876e+05
  -1.358125e+06  -8.544000e+05
  -2.016628e+05  -7.258369e+05
   8.955156e+05  -4.532663e+05
   1.028137e+06  -2.072405e+05
   3.691110e+05   5.120954e+04
  -1.526402e+05   2.391891e+05
  -2.417586e+04   2.128557e+05
   2.895981e+05   9.318419e+04
   5.227362e+04   1.416792e+05
  -6.995453e+05   2.600490e+05
  -1.097003e+06  -8.150186e+02
  -4.517790e+05  -7.272953e+05
   8.749000e+05  -1.246973e+06
   1.769957e+06  -8.065053e+05
   1.480293e+06   4.432224e+05
   3.067693e+05   1.472011e+06
  -7.847921e+05   1.447687e+06
  -1.095790e+06   5.750848e+05
  -6.939865e+05  -2.354990e+05
  -1.432627e+05  -3.761447e+05
   8.026139e+04  -7.371952e+04
  -7.905318e+04   1.939448e+04
  -3.197225e+05  -3.766998e+05
  -2.717851e+05  -8.403614e+05
   1.798057e+05  -7.146586e+05
   7.202440e+05   1.168526e+05
   7.916159e+05   9.904686e+05
   1.345715e+05   1.085366e+06
  -7.918087e+05   2.739766e+05
  -1.100862e+06  -7.412521e+05
  -3.815097e+05  -1.139645e+06
   7.407431e+05  -7.215287e+05
   1.174182e+06   6.340467e+04
   5.618929e+05   6.357640e+05
  -2.952217e+05   7.137368e+05
  -3.920683e+05   3.862352e+05
   2.620197e+05   1.834916e+02
   6.808044e+05  -5.314448e+04
   1.573786e+05   3.221415e+05
  -8.530982e+05   7.243560e+05
  -1.306103e+06   5.813425e+05
  -7.967906e+05  -1.790307e+05
   8.900383e+04  -9.127131e+05
   5.668112e+05  -9.009930e+05
   4.474483e+05  -1.712137e+05
   6.683737e+04   5.038763e+05
  -2.461668e+05   4.615238e+05
  -3.763299e+05  -1.472376e+05
  -2.764219e+05  -6.012919e+05
   5.222366e+04  -4.506005e+05
   4.126706e+05   3.982871e+04
   4.999511e+05   2.882010e+05
   2.525995e+05   9.748301e+04
  -3.512970e+04  -1.599420e+05
  -7.935044e+04  -4.560141e+04
   2.342726e+04   3.764073e+05
  -4.577348e+04   5.884327e+05
  -3.386549e+05   2.401114e+05
  -4.947155e+05  -3.942047e+05
  -1.793237e+05  -6.845696e+05
   4.237805e+05  -3.404151e+05
   7.058664e+05   2.829144e+05
   2.795152e+05   5.982236e+05
  -5.264780e+05   3.911260e+05
  -9.298411e+05  -6.500274e+04
  -5.097826e+05  -3.884388e+05
   3.042663e+05  -4.265178e+05
   6.707929e+05  -2.515251e+05
   2.647476e+05  -2.030029e+04
  -3.630426e+05   8.557343e+04
  -4.329994e+05  -5.420631e+04
   1.651072e+05  -3.112670e+05
   7.703900e+05  -3.061450e+05
