
 $NMID
 id='ANONYMOUS ', fmtdat='(2E16.6)'
 volume=1.0
 tramp=1.0
 $END
   5.564773e+07   1.831024e+05
   3.334304e+07   3.485184e+07
  -7.659934e+06   3.778709e+07
  -2.749780e+07   1.416371e+07
  -1.625158e+07  -7.287700e+06
   3.437667e+06  -9.235782e+06
   9.733669e+06   1.435100e+06
   2.556939e+06   9.747752e+06
  -6.325850e+06   9.071347e+06
  -9.569819e+06   1.791309e+06
  -6.814597e+06  -6.140923e+06
  -7.325432e+05  -8.410882e+06
   3.905746e+06  -2.689580e+06
   2.482437e+06   5.277757e+06
  -3.812090e+06   6.318363e+06
  -7.755028e+06  -1.433646e+06
  -4.271767e+06  -1.009954e+07
   3.833575e+06  -1.159049e+07
   9.987946e+06  -5.773924e+06
   1.065239e+07   2.023202e+06
   6.574330e+06   7.378178e+06
   7.352680e+05   8.599107e+06
  -2.937492e+06   6.083680e+06
  -2.030201e+06   2.684436e+06
   9.026918e+05   2.010875e+06
   2.283745e+05   3.948481e+06
  -5.186439e+06   4.230189e+06
  -9.354704e+06   4.785435e+05
  -6.876961e+06  -4.022899e+06
  -3.217461e+05  -4.930263e+06
   3.527407e+06  -2.530368e+06
   2.377558e+06  -1.195589e+05
  -5.003538e+05   7.687421e+05
  -2.064588e+06   4.297313e+05
  -2.054949e+06  -1.299574e+06
  -7.049237e+05  -3.730868e+06
   1.726069e+06  -3.786093e+06
   3.210813e+06   8.884916e+03
   1.761241e+06   3.548961e+06
  -7.215083e+05   1.992908e+06
  -3.385134e+05  -2.285308e+06
   2.413901e+06  -2.185577e+06
   2.371316e+06   3.188429e+06
  -2.495178e+06   6.065619e+06
  -6.955235e+06   9.828840e+05
  -5.059546e+06  -6.885324e+06
   1.948139e+06  -8.443087e+06
   7.335665e+06  -2.352295e+06
   6.753715e+06   4.439341e+06
   1.695378e+06   5.933177e+06
  -3.453435e+06   2.579168e+06
  -5.102207e+06  -1.607855e+06
  -2.286099e+06  -3.478397e+06
   2.433487e+06  -2.134657e+06
   4.451674e+06   9.693244e+05
   1.883530e+06   2.716440e+06
  -1.708391e+06   1.336886e+06
  -1.672756e+06  -1.040060e+06
   1.373996e+06  -8.768968e+05
   2.457517e+06   1.829785e+06
  -6.830381e+05   3.483791e+06
  -4.657866e+06   1.868293e+06
  -5.251164e+06  -1.420972e+06
  -2.247675e+06  -3.967627e+06
   1.787026e+06  -5.138130e+06
   4.881278e+06  -4.682978e+06
   6.035535e+06  -1.684827e+06
   4.476060e+06   3.076662e+06
   8.931243e+05   6.020201e+06
  -1.900431e+06   4.638107e+06
  -1.796267e+06   1.129508e+06
  -1.556713e+05  -3.388429e+05
   1.048066e+05   8.858058e+05
  -1.475646e+06   1.732519e+06
  -2.678683e+06   2.715593e+05
  -1.942561e+06  -1.817247e+06
  -3.567191e+04  -2.027064e+06
   1.453458e+06  -1.707013e+05
   1.566762e+06   2.005973e+06
  -2.113292e+04   2.825924e+06
  -2.680779e+06   1.599622e+06
  -4.350149e+06  -1.157440e+06
  -3.153793e+06  -3.681380e+06
   3.606970e+04  -4.165104e+06
   2.256997e+06  -2.686177e+06
   2.230766e+06  -1.109703e+06
   1.826504e+06  -6.305478e+05
   2.882898e+06  -4.057097e+05
   4.223839e+06   8.170286e+05
   3.346004e+06   2.747909e+06
   5.920501e+04   4.009888e+06
  -3.162340e+06   3.734125e+06
  -4.056762e+06   2.010426e+06
  -2.565241e+06  -4.119570e+05
  -2.659702e+05  -2.147468e+06
   1.062616e+06  -1.865866e+06
   5.454602e+05   2.940949e+04
  -1.063953e+06   1.257633e+06
  -1.866399e+06   3.667323e+05
  -8.973144e+05  -1.184094e+06
   5.091395e+05  -1.068828e+06
   3.900153e+05   3.994164e+05
  -1.097685e+06   6.408493e+05
  -1.818966e+06  -1.360948e+06
  -5.241524e+05  -3.482569e+06
   1.712625e+06  -3.292185e+06
   3.142182e+06  -9.507681e+05
   3.167643e+06   1.533594e+06
   2.098267e+06   2.731764e+06
   3.660116e+05   2.520245e+06
  -1.219815e+06   1.393289e+06
  -1.525647e+06   2.011920e+05
  -4.782983e+05  -5.285911e+04
   3.350545e+05   7.398038e+05
  -4.321003e+05   1.313430e+06
  -1.887718e+06   5.393798e+05
  -1.982034e+06  -9.158989e+05
  -3.451494e+05  -1.405990e+06
   1.160270e+06  -5.310703e+05
   8.420074e+05   4.685867e+05
  -8.589801e+05   4.674664e+05
  -2.105761e+06  -3.953417e+05
  -1.629394e+06  -1.369060e+06
   3.113489e+05  -1.892067e+06
   2.281097e+06  -1.542728e+06
   2.703217e+06  -2.067329e+05
   1.168623e+06   1.264615e+06
  -9.246419e+05   1.467080e+06
  -1.542561e+06   1.682032e+05
  -1.915528e+05  -1.064442e+06
   1.494877e+06  -6.968094e+05
   1.662275e+06   8.048099e+05
   2.789844e+05   1.625972e+06
  -1.106212e+06   9.164261e+05
  -1.221586e+06  -3.553391e+05
  -2.083019e+05  -7.813113e+05
   7.919556e+05  -3.851402e+04
   7.065718e+05   1.042965e+06
  -5.800729e+05   1.381801e+06
  -1.963805e+06   5.015820e+05
  -1.970319e+06  -1.054912e+06
  -3.387469e+05  -2.034307e+06
   1.442746e+06  -1.579160e+06
   1.693783e+06  -1.654109e+05
   4.657858e+05   8.644173e+05
  -6.644970e+05   7.668464e+05
  -6.065749e+05   6.025301e+04
   1.394546e+05  -3.304688e+05
   4.719757e+05  -1.660528e+05
   8.044151e+04   7.049162e+04
  -4.629947e+05  -1.092482e+05
  -4.882640e+05  -6.934329e+05
   2.408837e+05  -1.162948e+06
   1.372739e+06  -8.439422e+05
   2.023250e+06   4.455608e+05
   1.394870e+06   1.922564e+06
  -2.559340e+05   2.350250e+06
  -1.601155e+06   1.328406e+06
  -1.629736e+06  -1.723747e+05
  -7.879128e+05  -8.802080e+05
  -2.777544e+05  -6.037147e+05
  -4.744341e+05  -1.923599e+05
  -6.322086e+05  -3.188677e+05
  -8.261998e+04  -7.613586e+05
   8.796900e+05  -8.587951e+05
   1.415266e+06  -2.740661e+05
   9.884847e+05   7.234500e+05
  -2.890589e+05   1.398729e+06
  -1.698716e+06   9.961943e+05
  -2.172707e+06  -5.193114e+05
  -1.053593e+06  -2.074243e+06
   1.046871e+06  -2.292454e+06
   2.514503e+06  -9.470161e+05
   2.273080e+06   7.103529e+05
   8.760362e+05   1.330684e+06
  -2.415121e+05   8.957188e+05
  -3.765342e+05   4.611320e+05
  -5.579250e+04   7.263833e+05
  -1.022231e+05   1.287265e+06
  -6.775715e+05   1.260010e+06
  -1.274912e+06   2.953963e+05
  -1.288417e+06  -1.071974e+06
  -5.116932e+05  -1.852622e+06
   6.275094e+05  -1.387946e+06
   1.250789e+06   3.001891e+04
   7.645277e+05   1.276134e+06
  -4.215149e+05   1.358418e+06
  -1.163717e+06   3.590726e+05
  -7.872909e+05  -7.234379e+05
   1.560415e+05  -1.067500e+06
   5.641349e+05  -7.549740e+05
   1.039437e+05  -3.953571e+05
  -4.199338e+05  -3.270158e+05
  -5.462880e+04  -3.709229e+05
   1.132718e+06  -1.831630e+05
   2.018249e+06   3.620360e+05
   1.559421e+06   1.047377e+06
  -7.594982e+04   1.413972e+06
  -1.586560e+06   1.093973e+06
  -1.799018e+06   2.273913e+05
  -8.022343e+05  -5.207413e+05
   2.708191e+05  -5.627923e+05
   5.074345e+05  -1.578544e+04
   3.351833e+04   4.232685e+05
  -4.265617e+05   2.472431e+05
  -4.664755e+05  -3.394599e+05
  -2.531319e+05  -6.986307e+05
  -1.035013e+05  -4.631133e+05
  -1.358737e+05   7.644486e+04
  -2.654961e+05   2.607226e+05
  -2.611248e+05  -2.337122e+05
   1.451596e+05  -9.496754e+05
   8.927891e+05  -1.027916e+06
   1.349733e+06  -1.674388e+05
   8.392571e+05   8.982082e+05
  -4.178783e+05   1.122302e+06
  -1.240039e+06   3.322889e+05
  -7.080363e+05  -5.616248e+05
   7.004324e+05  -6.168478e+05
   1.537602e+06   1.334401e+05
   9.370412e+05   8.683114e+05
  -5.126310e+05   9.404842e+05
  -1.466655e+06   4.084410e+05
  -1.179692e+06  -2.268349e+05
  -1.092941e+05  -4.994260e+05
   6.415598e+05  -2.407105e+05
   3.784799e+05   2.986516e+05
  -5.641473e+05   5.105159e+05
  -1.151107e+06  -7.588444e+04
  -6.601750e+05  -1.146253e+06
   5.668894e+05  -1.657461e+06
   1.440442e+06  -8.606075e+05
   1.213900e+06   7.428191e+05
   1.774993e+05   1.740165e+06
  -7.393497e+05   1.235458e+06
  -8.952079e+05  -2.025882e+05
  -3.848304e+05  -1.170763e+06
   2.530405e+05  -9.291843e+05
   5.567145e+05  -6.441447e+04
   4.298305e+05   3.717584e+05
   1.363402e+05   1.318647e+05
   5.714674e+04  -8.666879e+04
   2.992214e+05   3.018460e+05
   4.949458e+05   9.519375e+05
   1.456613e+05   1.050072e+06
  -7.300436e+05   3.732452e+05
  -1.424754e+06  -4.712346e+05
  -1.210336e+06  -8.334291e+05
  -1.685806e+05  -6.877260e+05
   8.132340e+05  -3.981785e+05
   9.525344e+05  -1.559727e+05
   3.707472e+05   6.761969e+04
  -1.350871e+05   2.196074e+05
  -6.544149e+04   1.882017e+05
   2.262316e+05   8.147741e+04
   5.950920e+04   1.273080e+05
  -6.135050e+05   2.328642e+05
  -1.022816e+06  -9.829268e+03
  -4.616580e+05  -6.791059e+05
   7.978258e+05  -1.157863e+06
   1.680780e+06  -7.501197e+05
   1.409855e+06   4.085770e+05
   2.713740e+05   1.365774e+06
  -7.639083e+05   1.347333e+06
  -1.025297e+06   5.402503e+05
  -6.315824e+05  -2.126312e+05
  -1.423908e+05  -3.496296e+05
   3.962329e+04  -8.131157e+04
  -9.137534e+04  -5.258617e+03
  -2.763352e+05  -3.713491e+05
  -2.231650e+05  -7.906683e+05
   1.708623e+05  -6.679789e+05
   6.555179e+05   9.865842e+04
   7.354200e+05   9.066132e+05
   1.469196e+05   1.007107e+06
  -7.122676e+05   2.705643e+05
  -1.016077e+06  -6.739378e+05
  -3.594107e+05  -1.063453e+06
   6.896457e+05  -6.836113e+05
   1.106519e+06   6.439929e+04
   5.376869e+05   6.200466e+05
  -2.816252e+05   6.914179e+05
  -3.979661e+05   3.670309e+05
   2.098156e+05  -3.199772e+02
   6.250108e+05  -4.137103e+04
   1.534144e+05   3.059410e+05
  -8.070423e+05   6.555330e+05
  -1.257589e+06   5.018660e+05
  -7.756067e+05  -1.972192e+05
   9.213079e+04  -8.598012e+05
   5.667628e+05  -8.484677e+05
   4.451695e+05  -1.820636e+05
   6.767191e+04   4.531470e+05
  -2.265522e+05   4.411917e+05
  -3.395254e+05  -1.154760e+05
  -2.518963e+05  -5.618005e+05
   4.208026e+04  -4.424308e+05
   3.817142e+05   3.087849e+04
   4.751947e+05   2.934365e+05
   2.379616e+05   1.122714e+05
  -4.961947e+04  -1.681685e+05
  -8.434581e+04  -8.938546e+04
   5.091542e+04   3.232211e+05
   1.133915e+04   5.648298e+05
  -2.888003e+05   2.656905e+05
  -4.840363e+05  -3.317675e+05
  -2.057434e+05  -6.233960e+05
   3.816845e+05  -3.210610e+05
   6.671187e+05   2.504113e+05
   2.630787e+05   5.458810e+05
  -5.032826e+05   3.623134e+05
  -8.781428e+05  -5.747281e+04
  -4.769239e+05  -3.662729e+05
   2.843637e+05  -4.137748e+05
   6.293748e+05  -2.522445e+05
   2.679511e+05  -2.485217e+04
  -3.022605e+05   8.996070e+04
  -3.822332e+05  -2.768661e+04
   1.369618e+05  -2.620594e+05
   6.787618e+05  -2.648954e+05
