
 $NMID
 id='ANONYMOUS ', fmtdat='(2E16.6)'
 volume=1.0
 tramp=1.0
 $END
   6.195589e+07  -2.021794e+06
   3.833006e+07   3.811180e+07
  -7.524055e+06   4.262642e+07
  -3.037765e+07   1.624547e+07
  -1.819441e+07  -8.187316e+06
   3.801075e+06  -1.040819e+07
   1.084437e+07   1.688747e+06
   2.814310e+06   1.086638e+07
  -7.008859e+06   9.933805e+06
  -1.056759e+07   2.001222e+06
  -7.656793e+06  -6.505917e+06
  -1.087774e+06  -9.096217e+06
   4.126922e+06  -3.151799e+06
   2.793430e+06   5.472449e+06
  -4.082757e+06   6.819245e+06
  -8.597202e+06  -1.483619e+06
  -4.953950e+06  -1.103349e+07
   3.921768e+06  -1.289767e+07
   1.084357e+07  -6.757378e+06
   1.190854e+07   1.738430e+06
   7.750820e+06   7.893302e+06
   1.302167e+06   9.701548e+06
  -3.189089e+06   7.117370e+06
  -2.609504e+06   3.024997e+06
   7.198802e+05   1.812794e+06
   4.768449e+05   3.962189e+06
  -5.168529e+06   4.768445e+06
  -9.944945e+06   1.036678e+06
  -7.679326e+06  -3.989067e+06
  -7.938044e+05  -5.348853e+06
   3.460249e+06  -3.033958e+06
   2.540326e+06  -5.282912e+05
  -1.969098e+05   5.540513e+05
  -1.798107e+06   5.462199e+05
  -2.138341e+06  -1.012871e+06
  -1.086977e+06  -3.767768e+06
   1.609338e+06  -4.275186e+06
   3.672629e+06  -3.492018e+05
   2.317385e+06   3.812582e+06
  -6.593029e+05   2.499088e+06
  -5.643528e+05  -2.185447e+06
   2.493864e+06  -2.335336e+06
   2.656659e+06   3.493319e+06
  -2.738194e+06   6.831023e+06
  -7.914502e+06   1.313826e+06
  -5.940336e+06  -7.545795e+06
   1.934745e+06  -9.511211e+06
   8.042150e+06  -2.877252e+06
   7.431746e+06   4.661846e+06
   1.874913e+06   6.382012e+06
  -3.703151e+06   2.780657e+06
  -5.462442e+06  -1.726106e+06
  -2.422903e+06  -3.768276e+06
   2.696755e+06  -2.374121e+06
   4.915440e+06   9.934194e+05
   2.103225e+06   2.977055e+06
  -1.855911e+06   1.521259e+06
  -1.780982e+06  -1.107273e+06
   1.633656e+06  -9.154408e+05
   2.776714e+06   2.172536e+06
  -8.482249e+05   4.069039e+06
  -5.313419e+06   2.206642e+06
  -5.894443e+06  -1.553453e+06
  -2.558020e+06  -4.385372e+06
   1.719535e+06  -5.648836e+06
   4.979974e+06  -5.240756e+06
   6.406626e+06  -2.117186e+06
   5.032694e+06   3.074021e+06
   1.234054e+06   6.438447e+06
  -1.992344e+06   5.020993e+06
  -2.020205e+06   1.109740e+06
  -1.041920e+05  -5.874387e+05
   4.101117e+05   8.300361e+05
  -1.256399e+06   1.981258e+06
  -2.725465e+06   5.877378e+05
  -2.147131e+06  -1.644933e+06
  -2.307961e+05  -2.010590e+06
   1.365843e+06  -2.364417e+05
   1.630248e+06   1.955934e+06
   1.074568e+05   2.918246e+06
  -2.729867e+06   1.848003e+06
  -4.715747e+06  -9.772712e+05
  -3.619551e+06  -3.824701e+06
  -1.671869e+05  -4.585783e+06
   2.391789e+06  -3.078244e+06
   2.465229e+06  -1.281247e+06
   1.989718e+06  -6.667193e+05
   3.046568e+06  -4.453698e+05
   4.466570e+06   7.863035e+05
   3.574139e+06   2.811345e+06
   1.582548e+05   4.185485e+06
  -3.173018e+06   3.979446e+06
  -4.120689e+06   2.258914e+06
  -2.690235e+06  -2.672159e+05
  -4.279149e+05  -2.186023e+06
   9.753779e+05  -2.004458e+06
   5.736532e+05  -1.833272e+04
  -1.043581e+06   1.351262e+06
  -1.955643e+06   4.492974e+05
  -1.014644e+06  -1.217409e+06
   4.712239e+05  -1.119436e+06
   3.628597e+05   4.251256e+05
  -1.229129e+06   6.238720e+05
  -1.967812e+06  -1.571551e+06
  -4.865058e+05  -3.783700e+06
   1.950160e+06  -3.428205e+06
   3.373151e+06  -8.600494e+05
   3.254016e+06   1.670776e+06
   2.108620e+06   2.784425e+06
   3.923137e+05   2.548699e+06
  -1.205596e+06   1.467546e+06
  -1.558410e+06   2.675405e+05
  -4.982760e+05  -4.190537e+04
   3.660272e+05   7.633119e+05
  -4.331834e+05   1.405192e+06
  -1.993787e+06   6.211454e+05
  -2.114160e+06  -9.382136e+05
  -3.797321e+05  -1.489401e+06
   1.207243e+06  -5.713962e+05
   8.549114e+05   4.765418e+05
  -9.159996e+05   4.560811e+05
  -2.164061e+06  -4.353308e+05
  -1.642313e+06  -1.398347e+06
   3.298068e+05  -1.923921e+06
   2.330598e+06  -1.614064e+06
   2.797478e+06  -2.684120e+05
   1.255816e+06   1.304679e+06
  -9.334710e+05   1.585905e+06
  -1.638005e+06   2.300353e+05
  -2.517097e+05  -1.120101e+06
   1.543881e+06  -7.729254e+05
   1.749391e+06   8.141541e+05
   2.965668e+05   1.694454e+06
  -1.163433e+06   9.496919e+05
  -1.276059e+06  -3.851511e+05
  -2.056932e+05  -8.278804e+05
   8.459103e+05  -5.689688e+04
   7.728118e+05   1.071344e+06
  -5.563893e+05   1.457896e+06
  -2.023775e+06   5.861743e+05
  -2.083052e+06  -1.037492e+06
  -4.069972e+05  -2.113125e+06
   1.473561e+06  -1.682802e+06
   1.765647e+06  -2.021025e+05
   4.926044e+05   8.976717e+05
  -6.815186e+05   8.058935e+05
  -6.077732e+05   7.654031e+04
   1.608098e+05  -3.126395e+05
   4.628377e+05  -1.405223e+05
   2.245337e+04   7.129801e+04
  -5.245394e+05  -1.494765e+05
  -5.139116e+05  -7.546324e+05
   2.504720e+05  -1.227769e+06
   1.418527e+06  -9.056136e+05
   2.115931e+06   4.173292e+05
   1.501931e+06   1.964501e+06
  -2.060109e+05   2.439738e+06
  -1.628654e+06   1.391473e+06
  -1.671796e+06  -1.643109e+05
  -7.928759e+05  -8.746551e+05
  -2.792237e+05  -5.569088e+05
  -5.248406e+05  -1.415742e+05
  -7.081914e+05  -3.232641e+05
  -1.156623e+05  -8.145467e+05
   9.064268e+05  -9.089566e+05
   1.458368e+06  -2.967319e+05
   1.012861e+06   7.237880e+05
  -2.905788e+05   1.428368e+06
  -1.738840e+06   1.051577e+06
  -2.255857e+06  -4.935188e+05
  -1.127208e+06  -2.137129e+06
   1.060059e+06  -2.414566e+06
   2.614553e+06  -1.028237e+06
   2.367672e+06   7.171012e+05
   8.953075e+05   1.368945e+06
  -2.609965e+05   8.993004e+05
  -3.564544e+05   4.455009e+05
   1.455400e+04   7.513792e+05
  -4.127960e+04   1.367383e+06
  -6.757999e+05   1.351798e+06
  -1.331336e+06   3.506393e+05
  -1.372696e+06  -1.074386e+06
  -5.834432e+05  -1.906631e+06
   6.102118e+05  -1.456004e+06
   1.296594e+06   6.189323e+03
   8.196973e+05   1.322146e+06
  -4.276655e+05   1.427779e+06
  -1.233458e+06   3.771596e+05
  -8.472710e+05  -7.768937e+05
   1.625018e+05  -1.143713e+06
   6.080227e+05  -7.993383e+05
   1.171285e+05  -3.991612e+05
  -4.506089e+05  -3.180318e+05
  -7.084485e+04  -3.789274e+05
   1.186190e+06  -2.165194e+05
   2.125814e+06   3.285396e+05
   1.648524e+06   1.060762e+06
  -6.419753e+04   1.493084e+06
  -1.646800e+06   1.190338e+06
  -1.875234e+06   2.659427e+05
  -8.423257e+05  -5.551821e+05
   2.773328e+05  -6.093221e+05
   5.376808e+05  -1.718102e+04
   5.973199e+04   4.570912e+05
  -4.240351e+05   2.722745e+05
  -4.971158e+05  -3.383885e+05
  -3.055254e+05  -7.067419e+05
  -1.433013e+05  -4.721659e+05
  -1.389070e+05   6.496337e+04
  -2.525761e+05   2.526566e+05
  -2.727018e+05  -2.392635e+05
   1.142216e+05  -9.784504e+05
   8.994014e+05  -1.095311e+06
   1.422983e+06  -2.315283e+05
   9.244911e+05   9.035575e+05
  -3.994825e+05   1.199399e+06
  -1.290755e+06   4.055137e+05
  -7.522935e+05  -5.545757e+05
   7.175866e+05  -6.542965e+05
   1.589087e+06   1.140383e+05
   9.614567e+05   8.880864e+05
  -5.354790e+05   9.713401e+05
  -1.508759e+06   4.245154e+05
  -1.208604e+06  -2.270532e+05
  -1.120318e+05  -5.108389e+05
   6.637917e+05  -2.544775e+05
   4.099157e+05   3.063508e+05
  -5.568994e+05   5.551292e+05
  -1.194700e+06  -2.748312e+04
  -7.377229e+05  -1.156141e+06
   5.121983e+05  -1.738888e+06
   1.452282e+06  -9.473293e+05
   1.277666e+06   7.252911e+05
   2.347849e+05   1.789891e+06
  -7.328227e+05   1.285055e+06
  -9.295323e+05  -2.022477e+05
  -4.132319e+05  -1.205833e+06
   2.603064e+05  -9.591078e+05
   5.822431e+05  -7.339289e+04
   4.382215e+05   3.715823e+05
   1.260232e+05   1.296478e+05
   6.441641e+04  -8.669821e+04
   3.451896e+05   3.125388e+05
   5.485270e+05   9.751234e+05
   1.572346e+05   1.081482e+06
  -7.703109e+05   4.057832e+05
  -1.483009e+06  -4.481750e+05
  -1.254451e+06  -8.319178e+05
  -1.914466e+05  -7.115070e+05
   8.120449e+05  -4.339313e+05
   9.753082e+05  -1.799158e+05
   4.020725e+05   6.812697e+04
  -1.262879e+05   2.318642e+05
  -8.505410e+04   1.890641e+05
   2.121105e+05   6.894608e+04
   7.385539e+04   1.273315e+05
  -6.025929e+05   2.640528e+05
  -1.060620e+06   2.746300e+04
  -5.316319e+05  -6.880179e+05
   7.675858e+05  -1.232726e+06
   1.729767e+06  -8.457521e+05
   1.497518e+06   3.634026e+05
   3.306296e+05   1.400085e+06
  -7.546594e+05   1.426023e+06
  -1.043012e+06   6.057189e+05
  -6.551336e+05  -1.887572e+05
  -1.677736e+05  -3.565179e+05
   1.731804e+04  -9.578530e+04
  -1.041201e+05  -1.674151e+04
  -2.878940e+05  -3.841936e+05
  -2.461549e+05  -8.129809e+05
   1.510903e+05  -7.007603e+05
   6.750388e+05   6.749874e+04
   8.003949e+05   8.989694e+05
   2.080046e+05   1.036738e+06
  -7.126498e+05   3.213498e+05
  -1.077073e+06  -6.451558e+05
  -4.197349e+05  -1.088542e+06
   6.865215e+05  -7.446448e+05
   1.157023e+06   2.407518e+04
   5.903294e+05   6.376582e+05
  -2.684100e+05   7.441305e+05
  -4.171744e+05   3.995241e+05
   1.969104e+05  -1.165498e+04
   6.400901e+05  -6.495194e+04
   1.756590e+05   3.146091e+05
  -8.151029e+05   7.012239e+05
  -1.304483e+06   5.468473e+05
  -8.304252e+05  -1.921215e+05
   6.536782e+04  -9.003098e+05
   5.755681e+05  -9.064670e+05
   4.722468e+05  -2.192782e+05
   9.355199e+04   4.574523e+05
  -2.152760e+05   4.738370e+05
  -3.515571e+05  -9.163858e+04
  -2.813447e+05  -5.723717e+05
   2.244004e+04  -4.744398e+05
   3.957493e+05   1.198730e+04
   5.090688e+05   2.997258e+05
   2.516383e+05   1.194062e+05
  -6.747014e+04  -1.848253e+05
  -9.449533e+04  -1.179535e+05
   8.564490e+04   3.182607e+05
   6.697860e+04   5.984651e+05
  -2.747867e+05   3.145460e+05
  -5.319313e+05  -3.036394e+05
  -2.637451e+05  -6.313723e+05
   3.744836e+05  -3.521173e+05
   7.086788e+05   2.241315e+05
   2.980829e+05   5.480733e+05
  -5.139969e+05   3.947659e+05
  -9.200746e+05  -2.142569e+04
  -5.107722e+05  -3.623359e+05
   2.789065e+05  -4.507441e+05
   6.455988e+05  -2.985284e+05
   2.899017e+05  -3.928696e+04
  -2.885740e+05   1.144450e+05
  -3.861335e+05   2.481494e+03
   1.190189e+05  -2.617238e+05
   6.677494e+05  -2.934986e+05
