
 $NMID
 id='ANONYMOUS ', fmtdat='(2E16.6)'
 volume=1.0
 tramp=1.0
 $END
  -6.401494e+07   2.353028e+06
  -3.979104e+07  -3.930313e+07
   7.633494e+06  -4.413885e+07
   3.139529e+07  -1.686713e+07
   1.885755e+07   8.473446e+06
  -3.923548e+06   1.078713e+07
  -1.123610e+07  -1.759074e+06
  -2.911679e+06  -1.125585e+07
   7.264676e+06  -1.026593e+07
   1.093204e+07  -2.068405e+06
   7.914262e+06   6.693113e+06
   1.140346e+06   9.368933e+06
  -4.235933e+06   3.265330e+06
  -2.867733e+06  -5.620389e+06
   4.224181e+06  -7.028003e+06
   8.892142e+06   1.524222e+06
   5.141925e+06   1.138823e+07
  -4.017962e+06   1.333490e+07
  -1.117361e+07   7.020932e+06
  -1.230399e+07  -1.734915e+06
  -8.055799e+06  -8.106808e+06
  -1.413660e+06  -1.002771e+07
   3.267571e+06  -7.403349e+06
   2.735437e+06  -3.160517e+06
  -6.879102e+05  -1.850350e+06
  -4.900842e+05  -4.041801e+06
   5.282172e+06  -4.905360e+06
   1.021341e+07  -1.098762e+06
   7.921453e+06   4.074043e+06
   8.597823e+05   5.492499e+06
  -3.517171e+06   3.132603e+06
  -2.591447e+06   5.826307e+05
   1.852040e+05  -5.165231e+05
   1.802769e+06  -5.404305e+05
   2.170022e+06   1.009180e+06
   1.135639e+06   3.837576e+06
  -1.625355e+06   4.413481e+06
  -3.788657e+06   4.095859e+05
  -2.430034e+06  -3.907847e+06
   6.477897e+05  -2.609099e+06
   5.815537e+05   2.211572e+06
  -2.567203e+06   2.396175e+06
  -2.749540e+06  -3.609129e+06
   2.825243e+06  -7.080636e+06
   8.200503e+06  -1.397666e+06
   6.179133e+06   7.780480e+06
  -1.969035e+06   9.848124e+06
  -8.297881e+06   3.001832e+06
  -7.669987e+06  -4.801839e+06
  -1.927261e+06  -6.585468e+06
   3.824750e+06  -2.860583e+06
   5.628808e+06   1.793964e+06
   2.489107e+06   3.897091e+06
  -2.790974e+06   2.455903e+06
  -5.079311e+06  -1.021798e+06
  -2.174868e+06  -3.075758e+06
   1.914705e+06  -1.574946e+06
   1.831472e+06   1.146029e+06
  -1.707613e+06   9.474715e+05
  -2.888773e+06  -2.261972e+06
   8.757324e+05  -4.240469e+06
   5.508213e+06  -2.308642e+06
   6.108007e+06   1.600505e+06
   2.654561e+06   4.533423e+06
  -1.753423e+06   5.825497e+06
  -5.103550e+06   5.402948e+06
  -6.583963e+06   2.201002e+06
  -5.195300e+06  -3.139884e+06
  -1.288979e+06  -6.621992e+06
   2.056953e+06  -5.175882e+06
   2.102391e+06  -1.135146e+06
   1.133734e+05   6.346906e+05
  -4.463530e+05  -8.242180e+05
   1.256073e+06  -2.032465e+06
   2.775952e+06  -6.229043e+05
   2.196686e+06   1.662995e+06
   2.434010e+05   2.041962e+06
  -1.383586e+06   2.326187e+05
  -1.657160e+06  -2.002712e+06
  -1.107992e+05  -2.988073e+06
   2.794134e+06  -1.904532e+06
   4.849181e+06   9.850027e+05
   3.743469e+06   3.922192e+06
   1.943336e+05   4.729487e+06
  -2.456437e+06   3.190614e+06
  -2.547282e+06   1.332150e+06
  -2.058025e+06   6.848095e+05
  -3.138086e+06   4.508865e+05
  -4.592701e+06  -8.149607e+05
  -3.669837e+06  -2.893317e+06
  -1.566715e+05  -4.298302e+06
   3.259021e+06  -4.080142e+06
   4.222243e+06  -2.316687e+06
   2.754910e+06   2.662894e+05
   4.441979e+05   2.232559e+06
  -9.914836e+05   2.053716e+06
  -5.862942e+05   2.201566e+04
   1.068711e+06  -1.384534e+06
   2.008829e+06  -4.613748e+05
   1.045436e+06   1.248411e+06
  -4.822426e+05   1.144329e+06
  -3.663117e+05  -4.436911e+05
   1.280385e+06  -6.369463e+05
   2.036511e+06   1.637775e+06
   4.882145e+05   3.915075e+06
  -2.039373e+06   3.527871e+06
  -3.492828e+06   8.617507e+05
  -3.338336e+06  -1.743055e+06
  -2.142689e+06  -2.869729e+06
  -3.883849e+05  -2.612355e+06
   1.236791e+06  -1.501116e+06
   1.595325e+06  -2.730841e+05
   5.110037e+05   4.352559e+04
  -3.742762e+05  -7.845342e+05
   4.473018e+05  -1.445986e+06
   2.051760e+06  -6.384384e+05
   2.173790e+06   9.689216e+05
   3.871825e+05   1.534411e+06
  -1.242902e+06   5.835380e+05
  -8.733577e+05  -4.948517e+05
   9.492458e+05  -4.634064e+05
   2.222152e+06   4.618607e+05
   1.674398e+06   1.445862e+06
  -3.515533e+05   1.971837e+06
  -2.397493e+06   1.647056e+06
  -2.871258e+06   2.687646e+05
  -1.288766e+06  -1.342429e+06
   9.591215e+05  -1.630757e+06
   1.684522e+06  -2.377502e+05
   2.603806e+05   1.150285e+06
  -1.585989e+06   7.922289e+05
  -1.795263e+06  -8.408128e+05
  -2.979000e+05  -1.742974e+06
   1.202181e+06  -9.710811e+05
   1.311516e+06   4.036128e+05
   2.068082e+05   8.547362e+05
  -8.720407e+05   5.790300e+04
  -7.934883e+05  -1.101258e+06
   5.717490e+05  -1.495996e+06
   2.076745e+06  -6.000841e+05
   2.136736e+06   1.066423e+06
   4.152320e+05   2.169887e+06
  -1.516142e+06   1.726021e+06
  -1.813844e+06   2.035985e+05
  -5.026333e+05  -9.240912e+05
   7.028154e+05  -8.252322e+05
   6.212141e+05  -7.535348e+04
  -1.714307e+05   3.185563e+05
  -4.760836e+05   1.365451e+05
  -1.563775e+04  -7.804681e+04
   5.465387e+05   1.565793e+05
   5.286765e+05   7.814341e+05
  -2.612212e+05   1.263590e+06
  -1.459244e+06   9.278121e+05
  -2.171758e+06  -4.319170e+05
  -1.539151e+06  -2.018370e+06
   2.156090e+05  -2.502220e+06
   1.675218e+06  -1.421634e+06
   1.713847e+06   1.761182e+05
   8.049248e+05   8.993152e+05
   2.782791e+05   5.654957e+05
   5.386382e+05   1.382830e+05
   7.324925e+05   3.306545e+05
   1.210548e+05   8.385700e+05
  -9.333676e+05   9.321876e+05
  -1.498289e+06   2.996818e+05
  -1.034724e+06  -7.459167e+05
   3.053556e+05  -1.463541e+06
   1.787864e+06  -1.073729e+06
   2.313391e+06   5.118519e+05
   1.151749e+06   2.197577e+06
  -1.095027e+06   2.479372e+06
  -2.689385e+06   1.050620e+06
  -2.429671e+06  -7.449830e+05
  -9.111232e+05  -1.410690e+06
   2.759814e+05  -9.201168e+05
   3.666287e+05  -4.496570e+05
  -2.024705e+04  -7.666692e+05
   3.842296e+04  -1.404211e+06
   6.941896e+05  -1.389593e+06
   1.367729e+06  -3.602314e+05
   1.407435e+06   1.103328e+06
   5.960317e+05   1.956534e+06
  -6.278148e+05   1.492492e+06
  -1.330641e+06  -9.563607e+03
  -8.394189e+05  -1.360636e+06
   4.437148e+05  -1.467035e+06
   1.272487e+06  -3.843457e+05
   8.730241e+05   8.035100e+05
  -1.697514e+05   1.179376e+06
  -6.304227e+05   8.224650e+05
  -1.243114e+05   4.089417e+05
   4.620488e+05   3.250395e+05
   7.256761e+04   3.879723e+05
  -1.219578e+06   2.213301e+05
  -2.184046e+06  -3.391532e+05
  -1.691392e+06  -1.092493e+06
   6.931561e+04  -1.536664e+06
   1.694256e+06  -1.222764e+06
   1.927454e+06  -2.688360e+05
   8.654649e+05   5.758278e+05
  -2.854999e+05   6.279431e+05
  -5.540824e+05   1.614095e+04
  -6.397484e+04  -4.703945e+05
   4.333070e+05  -2.784926e+05
   5.099353e+05   3.472174e+05
   3.149090e+05   7.221373e+05
   1.490339e+05   4.821220e+05
   1.438350e+05  -6.423756e+04
   2.593478e+05  -2.546398e+05
   2.794982e+05   2.466418e+05
  -1.176326e+05   1.001727e+06
  -9.240609e+05   1.123494e+06
  -1.462439e+06   2.405140e+05
  -9.508310e+05  -9.253893e+05
   4.092167e+05  -1.232884e+06
   1.324493e+06  -4.189151e+05
   7.707468e+05   5.685178e+05
  -7.382886e+05   6.702457e+05
  -1.630017e+06  -1.219537e+05
  -9.817062e+05  -9.164045e+05
   5.556383e+05  -9.955459e+05
   1.550976e+06  -4.283781e+05
   1.238588e+06   2.391649e+05
   1.119932e+05   5.247489e+05
  -6.829251e+05   2.588190e+05
  -4.218110e+05  -3.151665e+05
   5.695214e+05  -5.690877e+05
   1.224019e+06   2.733105e+04
   7.570417e+05   1.183539e+06
  -5.233993e+05   1.781485e+06
  -1.487481e+06   9.705943e+05
  -1.308603e+06  -7.441901e+05
  -2.382257e+05  -1.834836e+06
   7.545799e+05  -1.315127e+06
   9.539515e+05   2.111844e+05
   4.201623e+05   1.239186e+06
  -2.722657e+05   9.838370e+05
  -5.990052e+05   7.389011e+04
  -4.466051e+05  -3.828350e+05
  -1.263427e+05  -1.341847e+05
  -6.753677e+04   8.873193e+04
  -3.577858e+05  -3.201684e+05
  -5.626922e+05  -1.000578e+06
  -1.565615e+05  -1.110803e+06
   7.939523e+05  -4.167742e+05
   1.519600e+06   4.620437e+05
   1.282703e+06   8.568578e+05
   1.954384e+05   7.306872e+05
  -8.309362e+05   4.424371e+05
  -1.000233e+06   1.816548e+05
  -4.150663e+05  -7.030870e+04
   1.287827e+05  -2.371129e+05
   9.099360e+04  -1.943850e+05
  -2.136131e+05  -7.161864e+04
  -7.654998e+04  -1.297669e+05
   6.145149e+05  -2.688894e+05
   1.087352e+06  -2.800824e+04
   5.487452e+05   7.035127e+05
  -7.845756e+05   1.262822e+06
  -1.774910e+06   8.687558e+05
  -1.537349e+06  -3.700545e+05
  -3.382889e+05  -1.434640e+06
   7.753439e+05  -1.462939e+06
   1.068808e+06  -6.219673e+05
   6.700765e+05   1.930233e+05
   1.728919e+05   3.649641e+05
  -1.430093e+04   9.805114e+04
   1.090292e+05   1.844450e+04
   2.941725e+05   3.960620e+05
   2.504364e+05   8.347728e+05
  -1.547133e+05   7.185462e+05
  -6.901978e+05  -6.851216e+04
  -8.200110e+05  -9.195511e+05
  -2.154285e+05  -1.061224e+06
   7.274353e+05  -3.301355e+05
   1.102768e+06   6.594229e+05
   4.312114e+05   1.115287e+06
  -7.026563e+05   7.645054e+05
  -1.187031e+06  -2.397485e+04
  -6.075700e+05  -6.550293e+05
   2.742857e+05  -7.652972e+05
   4.298883e+05  -4.114454e+05
  -1.988107e+05   1.095963e+04
  -6.554394e+05   6.597640e+04
  -1.810110e+05  -3.225562e+05
   8.366097e+05  -7.178865e+05
   1.341358e+06  -5.592220e+05
   8.550139e+05   1.978131e+05
  -6.690641e+04   9.237866e+05
  -5.922638e+05   9.314132e+05
  -4.854499e+05   2.279296e+05
  -9.606206e+04  -4.671565e+05
   2.196835e+05  -4.865973e+05
   3.586380e+05   9.221431e+04
   2.882581e+05   5.867288e+05
  -2.135747e+04   4.879223e+05
  -4.051157e+05  -1.161850e+04
  -5.235323e+05  -3.086521e+05
  -2.589142e+05  -1.239378e+05
   7.135444e+04   1.904281e+05
   9.942461e+04   1.244554e+05
  -8.947879e+04  -3.227533e+05
  -7.417792e+04  -6.127977e+05
   2.776634e+05  -3.251573e+05
   5.460383e+05   3.070111e+05
   2.734751e+05   6.442975e+05
  -3.822976e+05   3.609695e+05
  -7.267622e+05  -2.277958e+05
  -3.056601e+05  -5.604300e+05
   5.276709e+05  -4.051578e+05
   9.438266e+05   2.072164e+04
   5.239810e+05   3.713238e+05
  -2.850659e+05   4.635084e+05
  -6.611709e+05   3.079823e+05
  -2.986441e+05   4.169231e+04
   2.922510e+05  -1.170422e+05
   3.930872e+05  -3.962951e+03
  -1.213709e+05   2.653070e+05
  -6.815190e+05   2.980760e+05
