
 $NMID
 id='ANONYMOUS ', fmtdat='(2E16.6)'
 volume=1.0
 tramp=1.0
 $END
  -2.022468e+07  -1.491097e+06
  -1.272837e+07  -1.031236e+07
   8.918135e+05  -1.265029e+07
   9.156523e+06  -7.961805e+06
   7.319915e+06  -5.425525e+05
   2.926241e+05   3.615789e+06
  -4.162452e+06   1.684455e+06
  -2.972566e+06  -3.357862e+06
   1.173791e+06  -5.585814e+06
   3.916932e+06  -2.346957e+06
   3.180192e+06   2.854224e+06
   1.831413e+05   4.364675e+06
  -2.075035e+06   7.733867e+05
  -1.448865e+06  -3.713410e+06
   1.383601e+06  -4.184420e+06
   3.435857e+06  -2.293699e+05
   2.330236e+06   4.157466e+06
  -1.212425e+06   5.041264e+06
  -4.068741e+06   2.170661e+06
  -3.907662e+06  -1.489332e+06
  -1.441364e+06  -3.031252e+06
   5.432248e+05  -2.203376e+06
   1.848123e+05  -1.093198e+06
  -1.531051e+06  -1.546153e+06
  -1.844586e+06  -3.092576e+06
   7.166511e+05  -3.591805e+06
   4.386709e+06  -1.802788e+06
   5.639797e+06   1.124205e+06
   2.926275e+06   2.868234e+06
  -1.356754e+06   2.254095e+06
  -3.180116e+06   1.214258e+05
  -1.138658e+06  -1.664229e+06
   2.188326e+06  -1.657919e+06
   3.285464e+06   2.318178e+05
   1.461254e+06   2.524192e+06
  -9.377557e+05   3.101397e+06
  -1.566251e+06   1.240862e+06
  -4.610947e+05  -1.199768e+06
   6.247665e+05  -1.503542e+06
   4.322935e+05   6.572548e+05
  -7.294545e+05   2.551465e+06
  -1.650035e+06   1.652658e+06
  -1.388772e+06  -1.112190e+06
   2.481672e+04  -2.423892e+06
   1.506201e+06  -6.631592e+05
   1.564208e+06   2.172372e+06
  -3.568802e+05   2.930036e+06
  -2.913121e+06   8.221781e+05
  -3.706500e+06  -2.064749e+06
  -1.630379e+06  -3.219980e+06
   1.714319e+06  -2.005126e+06
   3.397696e+06   2.260434e+05
   2.089406e+06   1.609735e+06
  -6.429207e+05   1.292477e+06
  -2.082110e+06  -5.324770e+04
  -1.170566e+06  -9.739666e+05
   6.455264e+05  -6.314443e+05
   1.233224e+06   4.400586e+05
   1.031839e+05   1.002827e+06
  -1.212811e+06   4.602907e+05
  -9.824744e+05  -5.919648e+05
   7.372023e+05  -1.041774e+06
   2.069797e+06  -2.865550e+05
   1.300284e+06   1.283959e+06
  -1.236929e+06   2.509231e+06
  -3.424054e+06   2.223014e+06
  -3.510772e+06   2.487328e+05
  -1.783022e+06  -2.189452e+06
   1.783455e+04  -3.395819e+06
   6.713002e+05  -2.825463e+06
   5.266784e+05  -1.562634e+06
   6.622561e+05  -9.288040e+05
   1.456187e+06  -8.947580e+05
   2.235191e+06  -3.547809e+05
   2.105786e+06   1.106836e+06
   8.608993e+05   2.346957e+06
  -8.194430e+05   1.914814e+06
  -1.817757e+06  -1.238132e+05
  -1.344084e+06  -2.049803e+06
   3.681960e+05  -2.198882e+06
   2.039461e+06  -5.580834e+05
   2.335458e+06   1.393057e+06
   1.127627e+06   2.217887e+06
  -3.757753e+05   1.750944e+06
  -9.604341e+05   9.202022e+05
  -7.399729e+05   5.945417e+05
  -8.682951e+05   7.299711e+05
  -1.924265e+06   5.807552e+05
  -2.948429e+06  -3.964441e+05
  -2.404258e+06  -1.899067e+06
  -3.703261e+04  -2.952658e+06
   2.534334e+06  -2.688102e+06
   3.284513e+06  -1.093636e+06
   1.791840e+06   8.320394e+05
  -3.626358e+05   1.756441e+06
  -1.222884e+06   1.136307e+06
  -3.526219e+05  -2.062596e+05
   9.675646e+05  -8.270601e+05
   1.274426e+06  -1.683919e+05
   4.046846e+05   8.172706e+05
  -5.640602e+05   8.017254e+05
  -5.813285e+05  -2.502007e+05
   3.591640e+05  -9.260367e+05
   1.316481e+06  -3.482034e+04
   1.268051e+06   1.856744e+06
  -5.593907e+04   2.889284e+06
  -1.894308e+06   1.875809e+06
  -2.923996e+06  -4.538408e+05
  -2.295135e+06  -2.231569e+06
  -4.647509e+05  -2.284019e+06
   1.094147e+06  -1.080882e+06
   1.260458e+06  -1.254184e+04
   3.630633e+05   5.085164e+04
  -2.527060e+05  -5.523075e+05
   2.298978e+05  -8.561198e+05
   1.194303e+06  -3.589129e+05
   1.365031e+06   5.047384e+05
   3.518630e+05   8.935317e+05
  -8.202010e+05   4.529883e+05
  -8.097907e+05  -3.380215e+05
   5.210759e+05  -6.423975e+05
   1.842179e+06  -4.780525e+04
   1.682215e+06   1.047640e+06
  -2.194124e+04   1.743023e+06
  -1.799450e+06   1.388488e+06
  -2.105689e+06   1.955214e+05
  -8.418268e+05  -8.641619e+05
   6.387950e+05  -9.158040e+05
   9.577603e+05  -5.811986e+04
   1.470765e+04   6.925177e+05
  -1.094902e+06   4.612489e+05
  -1.263327e+06  -5.284044e+05
  -3.814117e+05  -1.208466e+06
   6.864842e+05  -8.741829e+05
   9.771002e+05   4.445022e+04
   3.252152e+05   5.125948e+05
  -4.818447e+05   5.573973e+04
  -4.659293e+05  -7.646141e+05
   5.123652e+05  -9.970065e+05
   1.510375e+06  -2.743313e+05
   1.432958e+06   8.661148e+05
   2.209122e+05   1.509449e+06
  -1.038890e+06   1.168661e+06
  -1.251214e+06   1.790466e+05
  -4.222029e+05  -6.165030e+05
   4.678035e+05  -6.244076e+05
   5.725687e+05  -2.758063e+04
  -1.392776e+04   4.486621e+05
  -5.208331e+05   3.288054e+05
  -3.873626e+05  -1.082398e+05
   1.808338e+05  -1.936383e+05
   4.602362e+05   3.023144e+05
  -3.276690e+04   8.392754e+05
  -9.912403e+05   6.687470e+05
  -1.528149e+06  -3.337791e+05
  -1.019989e+06  -1.467496e+06
   2.339802e+05  -1.832301e+06
   1.268430e+06  -1.143110e+06
   1.396587e+06   3.617360e+04
   8.221445e+05   8.248788e+05
   2.784092e+05   8.133403e+05
   1.794310e+05   3.699421e+05
   2.600189e+05   1.728258e+05
   2.059613e+04   4.395748e+05
  -6.123419e+05   6.849299e+05
  -1.129425e+06   3.108292e+05
  -9.109769e+05  -6.063322e+05
   1.319421e+05  -1.251894e+06
   1.334539e+06  -8.747617e+05
   1.733529e+06   3.891177e+05
   8.879176e+05   1.566022e+06
  -6.635573e+05   1.727383e+06
  -1.809681e+06   8.126639e+05
  -1.816806e+06  -3.900619e+05
  -9.103892e+05  -1.021928e+06
   5.712493e+04  -9.019689e+05
   4.493930e+05  -5.511601e+05
   3.368582e+05  -5.314061e+05
   2.387612e+05  -8.101408e+05
   4.911883e+05  -8.223350e+05
   8.918070e+05  -1.616701e+05
   9.267331e+05   8.624129e+05
   3.366629e+05   1.441467e+06
  -5.317650e+05   1.054208e+06
  -9.777731e+05  -7.263301e+03
  -6.158600e+05  -9.070184e+05
   2.082868e+05  -1.020672e+06
   7.392074e+05  -4.191849e+05
   5.723658e+05   3.173194e+05
   3.598463e+04   6.757798e+05
  -2.260018e+05   5.997533e+05
   3.104970e+03   3.901554e+05
   2.753388e+05   3.070094e+05
   8.376393e+03   3.058088e+05
  -7.953182e+05   1.500881e+05
  -1.434355e+06  -2.664389e+05
  -1.176239e+06  -7.539193e+05
  -5.242442e+04  -9.800430e+05
   1.076035e+06  -7.655515e+05
   1.325871e+06  -2.430233e+05
   6.567273e+05   2.318288e+05
  -1.454215e+05   3.421507e+05
  -3.408154e+05   7.756246e+04
   3.786176e+04  -2.166678e+05
   3.911424e+05  -1.484069e+05
   3.291477e+05   2.741412e+05
   4.452027e+04   5.805195e+05
  -5.711862e+04   3.669267e+05
   1.214520e+05  -1.492951e+05
   3.134982e+05  -3.107557e+05
   2.223180e+05   1.695682e+05
  -1.978522e+05   7.734210e+05
  -7.007886e+05   7.459528e+05
  -8.820130e+05   1.030047e+04
  -4.666777e+05  -7.136048e+05
   3.458468e+05  -7.266602e+05
   8.687777e+05  -9.699509e+04
   5.106067e+05   4.920159e+05
  -5.168348e+05   4.884934e+05
  -1.243798e+06  -5.662193e+04
  -8.885119e+05  -6.524018e+05
   2.799480e+05  -8.305809e+05
   1.178906e+06  -4.808565e+05
   1.032769e+06   9.683144e+04
   1.460599e+05   4.214955e+05
  -4.848417e+05   2.397060e+05
  -2.420904e+05  -1.954074e+05
   5.122676e+05  -3.139769e+05
   8.741080e+05   1.903928e+05
   3.550662e+05   9.564157e+05
  -6.315167e+05   1.213731e+06
  -1.211300e+06   5.320190e+05
  -9.147193e+05  -6.650755e+05
  -6.917406e+04  -1.393779e+06
   6.147837e+05  -1.018581e+06
   7.216017e+05   9.561743e+04
   3.621678e+05   9.152455e+05
  -1.067849e+05   7.887123e+05
  -4.033244e+05   8.627211e+04
  -4.119552e+05  -3.235312e+05
  -1.973443e+05  -1.386190e+05
  -1.113911e+04   9.634554e+04
  -9.139982e+04  -1.774536e+05
  -3.111830e+05  -7.302956e+05
  -2.002122e+05  -8.499463e+05
   4.511804e+05  -2.958885e+05
   1.123208e+06   4.126565e+05
   1.034556e+06   6.883240e+05
   1.267231e+05   5.208068e+05
  -7.434687e+05   2.757852e+05
  -7.872683e+05   1.305311e+05
  -2.092216e+05  -5.651421e+03
   1.495837e+05  -1.569980e+05
  -5.416772e+04  -2.033373e+05
  -2.926963e+05  -1.380096e+05
   4.870058e+03  -1.081760e+05
   6.151048e+05  -1.110715e+05
   7.814478e+05   8.347660e+04
   1.578208e+05   5.243379e+05
  -7.807081e+05   7.957922e+05
  -1.257429e+06   4.289756e+05
  -9.318032e+05  -4.419524e+05
  -1.062933e+05  -1.094954e+06
   6.188804e+05  -9.777115e+05
   8.171140e+05  -2.958496e+05
   4.984672e+05   2.594468e+05
   4.445809e+04   2.752562e+05
  -1.355822e+05  -1.048185e+04
   3.416304e+04  -7.306098e+04
   2.552008e+05   2.659988e+05
   1.873949e+05   6.251302e+05
  -1.860163e+05   4.862940e+05
  -5.269841e+05  -1.862548e+05
  -4.590817e+05  -8.153250e+05
   6.065684e+04  -7.746914e+05
   6.339296e+05  -6.459387e+04
   7.185857e+05   6.749064e+05
   1.537957e+05   8.362755e+05
  -5.857409e+05   4.137629e+05
  -8.001920e+05  -1.350212e+05
  -3.250544e+05  -4.291929e+05
   2.422626e+05  -4.211000e+05
   2.336895e+05  -2.436442e+05
  -2.641767e+05  -5.142709e+04
  -5.144266e+05  -1.518290e+04
  -6.942844e+04  -2.246276e+05
   6.588679e+05  -4.852316e+05
   9.153371e+05  -4.089928e+05
   4.928064e+05   1.078653e+05
  -1.216091e+05   6.226595e+05
  -3.911198e+05   5.916246e+05
  -2.512105e+05   4.755437e+04
   2.505725e+04  -3.966578e+05
   2.163422e+05  -2.754504e+05
   2.619877e+05   1.982116e+05
   1.526808e+05   4.524483e+05
  -7.830074e+04   2.570466e+05
  -2.901139e+05  -8.383451e+04
  -3.232145e+05  -1.871768e+05
  -1.793253e+05  -4.165099e+04
  -1.515983e+04   5.996866e+04
   6.240254e+04  -7.595491e+04
   1.065153e+05  -3.105579e+05
   2.005522e+05  -3.341372e+05
   2.931904e+05  -2.130807e+04
   2.332605e+05   3.908899e+05
  -3.790118e+04   5.063574e+05
  -3.597915e+05   1.820072e+05
  -4.412442e+05  -2.907839e+05
  -1.263994e+05  -4.745670e+05
   3.820043e+05  -2.410625e+05
   6.225297e+05   1.328454e+05
   3.226214e+05   3.119301e+05
  -2.418226e+05   2.358492e+05
  -4.753958e+05   7.624833e+04
  -1.358827e+05  -8.776598e+03
   3.405092e+05   2.408347e+04
   3.333511e+05   1.477566e+05
  -2.059604e+05   2.565984e+05
  -6.793416e+05   1.615704e+05
