
 $NMID
 id='ANONYMOUS ', fmtdat='(2E16.6)'
 volume=1.0
 tramp=1.0
 $END
   4.505992e+07   4.752164e+06
   2.429838e+07   2.946195e+07
  -8.275594e+06   2.921813e+07
  -2.246547e+07   1.048559e+07
  -1.272846e+07  -5.539944e+06
   2.755637e+06  -7.099185e+06
   7.691026e+06   8.553184e+05
   2.179359e+06   7.679131e+06
  -4.965305e+06   7.645483e+06
  -7.789966e+06   1.518685e+06
  -5.437192e+06  -5.599287e+06
  -1.410828e+05  -7.390693e+06
   3.640871e+06  -1.905069e+06
   2.101388e+06   5.089776e+06
  -3.262824e+06   5.594670e+06
  -6.300613e+06  -1.321958e+06
  -3.102749e+06  -8.549312e+06
   3.745868e+06  -9.391489e+06
   8.652795e+06  -4.026789e+06
   8.572121e+06   2.710516e+06
   4.430807e+06   6.706579e+06
  -4.892431e+05   6.726571e+06
  -2.602378e+06   4.117094e+06
  -8.234532e+05   1.942630e+06
   1.529116e+06   2.448405e+06
  -1.313686e+05   4.195564e+06
  -5.476049e+06   3.492089e+06
  -8.677261e+06  -5.075847e+05
  -5.631081e+06  -4.253272e+06
   6.277485e+05  -4.393639e+06
   3.910716e+06  -1.727859e+06
   2.275499e+06   7.329244e+05
  -1.089396e+06   1.427832e+06
  -2.791843e+06   3.900505e+05
  -2.145365e+06  -1.944694e+06
  -5.252579e+04  -3.950316e+06
   2.073531e+06  -3.009174e+06
   2.471134e+06   8.272474e+05
   6.781466e+05   3.253293e+06
  -9.869018e+05   1.011551e+06
   3.261630e+03  -2.692345e+06
   2.304657e+06  -2.047634e+06
   1.895191e+06   2.649678e+06
  -2.055004e+06   4.677527e+06
  -5.216162e+06   2.740682e+05
  -3.422653e+06  -5.817624e+06
   2.056676e+06  -6.558337e+06
   6.190195e+06  -1.385878e+06
   5.700061e+06   4.079120e+06
   1.502363e+06   5.203211e+06
  -3.009974e+06   2.334853e+06
  -4.583215e+06  -1.301444e+06
  -2.162837e+06  -2.938389e+06
   1.939639e+06  -1.729273e+06
   3.669469e+06   9.106239e+05
   1.526872e+06   2.252111e+06
  -1.459732e+06   1.020233e+06
  -1.541570e+06  -8.958899e+05
   8.244024e+05  -8.063095e+05
   1.824706e+06   1.142844e+06
  -3.866694e+05   2.309391e+06
  -3.446318e+06   1.185769e+06
  -4.088289e+06  -1.173284e+06
  -1.702861e+06  -3.231347e+06
   1.968611e+06  -4.361186e+06
   4.885821e+06  -3.866843e+06
   5.583695e+06  -9.543472e+05
   3.601155e+06   3.225352e+06
   3.130533e+05   5.466229e+06
  -1.701635e+06   4.072684e+06
  -1.321720e+06   1.240547e+06
  -2.090331e+05   2.321618e+05
  -5.164862e+05   1.161553e+06
  -2.049637e+06   1.410219e+06
  -2.809732e+06  -3.127194e+05
  -1.733429e+06  -2.275177e+06
   2.931591e+05  -2.236408e+06
   1.738140e+06  -1.377457e+05
   1.621229e+06   2.163379e+06
  -2.044194e+05   2.808839e+06
  -2.717593e+06   1.236119e+06
  -3.870691e+06  -1.542376e+06
  -2.393078e+06  -3.562901e+06
   4.469054e+05  -3.506443e+06
   2.082314e+06  -2.000333e+06
   1.826358e+06  -8.018210e+05
   1.534342e+06  -6.094487e+05
   2.654044e+06  -4.166881e+05
   3.941112e+06   8.113013e+05
   3.112287e+06   2.664498e+06
  -2.896852e+04   3.849749e+06
  -3.205332e+06   3.520353e+06
  -4.110707e+06   1.728339e+06
  -2.487239e+06  -6.770844e+05
  -7.121758e+03  -2.215118e+06
   1.270707e+06  -1.734363e+06
   5.286088e+05   1.192576e+05
  -1.134094e+06   1.169736e+06
  -1.770189e+06   2.604568e+05
  -7.255766e+05  -1.166123e+06
   5.828704e+05  -1.048974e+06
   4.795315e+05   3.293075e+05
  -8.166853e+05   7.147500e+05
  -1.560898e+06  -9.205530e+05
  -6.942956e+05  -2.939029e+06
   1.150905e+06  -3.147546e+06
   2.699177e+06  -1.272024e+06
   3.158555e+06   1.178245e+06
   2.297134e+06   2.651720e+06
   4.389460e+05   2.575150e+06
  -1.273071e+06   1.362102e+06
  -1.544374e+06   1.257297e+05
  -4.647895e+05  -6.379550e+04
   3.097171e+05   7.180078e+05
  -4.197673e+05   1.192386e+06
  -1.745802e+06   4.363530e+05
  -1.820268e+06  -8.606113e+05
  -3.246783e+05  -1.282044e+06
   1.098337e+06  -5.063006e+05
   8.731268e+05   4.353211e+05
  -7.463281e+05   5.347838e+05
  -2.083263e+06  -2.447124e+05
  -1.737457e+06  -1.296252e+06
   2.041739e+05  -1.923007e+06
   2.234380e+06  -1.553421e+06
   2.639752e+06  -1.772229e+05
   1.079586e+06   1.211936e+06
  -9.217419e+05   1.315851e+06
  -1.419442e+06   7.942470e+04
  -9.842913e+04  -1.004241e+06
   1.452206e+06  -6.159706e+05
   1.585450e+06   7.733956e+05
   3.093647e+05   1.545156e+06
  -9.980887e+05   9.211927e+05
  -1.165577e+06  -2.640833e+05
  -2.467021e+05  -7.019117e+05
   7.126454e+05  -1.658700e+04
   6.311141e+05   1.020652e+06
  -6.239814e+05   1.315222e+06
  -1.933823e+06   4.089612e+05
  -1.873179e+06  -1.092483e+06
  -2.729931e+05  -1.967502e+06
   1.406110e+06  -1.485167e+06
   1.622791e+06  -1.493410e+05
   4.605418e+05   8.184307e+05
  -6.342507e+05   7.437121e+05
  -6.361872e+05   5.771644e+04
   7.523836e+04  -3.837311e+05
   4.971982e+05  -2.570749e+05
   2.166665e+05   4.621768e+04
  -3.386966e+05  -2.607767e+04
  -4.655582e+05  -5.775663e+05
   1.999146e+05  -1.083898e+06
   1.321094e+06  -7.969997e+05
   1.948533e+06   4.675945e+05
   1.302338e+06   1.896697e+06
  -2.988787e+05   2.298678e+06
  -1.577549e+06   1.322554e+06
  -1.629008e+06  -1.339517e+05
  -8.634910e+05  -9.000189e+05
  -3.374666e+05  -7.271826e+05
  -4.139869e+05  -3.133056e+05
  -5.063572e+05  -3.239451e+05
  -2.846816e+04  -6.894195e+05
   8.419845e+05  -8.222933e+05
   1.385647e+06  -2.888149e+05
   1.018808e+06   7.213491e+05
  -2.435450e+05   1.416458e+06
  -1.666544e+06   9.891575e+05
  -2.129893e+06  -5.286648e+05
  -1.018604e+06  -2.012282e+06
   1.002918e+06  -2.178132e+06
   2.398807e+06  -8.974710e+05
   2.206286e+06   6.537065e+05
   9.282792e+05   1.274377e+06
  -1.660878e+05   9.368809e+05
  -4.116527e+05   5.462658e+05
  -1.909066e+05   7.368511e+05
  -2.118094e+05   1.200168e+06
  -6.883596e+05   1.150736e+06
  -1.218267e+06   2.271847e+05
  -1.215358e+06  -1.088779e+06
  -4.468866e+05  -1.825867e+06
   6.549678e+05  -1.341900e+06
   1.220415e+06   4.057214e+04
   7.237287e+05   1.219325e+06
  -3.879813e+05   1.288311e+06
  -1.053350e+06   3.667885e+05
  -7.060276e+05  -6.233455e+05
   1.261592e+05  -9.539068e+05
   4.729118e+05  -7.030064e+05
   6.066654e+04  -4.064675e+05
  -3.919070e+05  -3.554357e+05
  -3.589571e+04  -3.756917e+05
   1.073268e+06  -1.521918e+05
   1.908002e+06   3.982127e+05
   1.483139e+06   1.026955e+06
  -6.713911e+04   1.313860e+06
  -1.513276e+06   9.862174e+05
  -1.720501e+06   2.119162e+05
  -7.639217e+05  -4.443036e+05
   2.602005e+05  -4.968343e+05
   4.643750e+05  -2.666902e+04
  -1.652577e+04   3.776135e+05
  -4.518190e+05   2.262152e+05
  -4.386601e+05  -3.479170e+05
  -1.795535e+05  -7.243129e+05
  -3.858366e+04  -4.769510e+05
  -1.276718e+05   1.118491e+05
  -2.917152e+05   3.100909e+05
  -2.570000e+05  -2.253293e+05
   1.870994e+05  -9.523303e+05
   8.986076e+05  -9.686176e+05
   1.269204e+06  -6.833123e+04
   7.313931e+05   9.236981e+05
  -4.553774e+05   1.032620e+06
  -1.200772e+06   2.252086e+05
  -6.749033e+05  -5.880699e+05
   6.808798e+05  -5.917224e+05
   1.513171e+06   1.271001e+05
   9.647653e+05   8.298209e+05
  -4.518006e+05   9.346657e+05
  -1.430897e+06   4.495971e+05
  -1.184677e+06  -1.898588e+05
  -1.292041e+05  -4.941276e+05
   6.165036e+05  -2.449761e+05
   3.379905e+05   2.896471e+05
  -6.010935e+05   4.664015e+05
  -1.133516e+06  -1.487295e+05
  -5.718074e+05  -1.179489e+06
   6.682172e+05  -1.607538e+06
   1.477786e+06  -7.760014e+05
   1.175593e+06   7.841913e+05
   1.248528e+05   1.729505e+06
  -7.488027e+05   1.225398e+06
  -8.727153e+05  -1.822528e+05
  -3.846451e+05  -1.142053e+06
   2.144704e+05  -9.174143e+05
   5.270467e+05  -6.474582e+04
   4.510446e+05   3.723123e+05
   1.739478e+05   1.320646e+05
   3.902223e+04  -9.089690e+04
   2.209673e+05   2.965322e+05
   4.372962e+05   9.438717e+05
   1.673685e+05   1.028618e+06
  -6.697566e+05   3.387142e+05
  -1.397714e+06  -4.984404e+05
  -1.214089e+06  -8.351276e+05
  -1.503116e+05  -6.693053e+05
   8.512392e+05  -3.791779e+05
   9.506004e+05  -1.486099e+05
   3.216488e+05   6.407691e+04
  -1.555042e+05   2.135090e+05
  -1.504020e+04   1.910023e+05
   2.786239e+05   9.661819e+04
   3.619964e+04   1.364790e+05
  -6.699710e+05   2.095484e+05
  -1.004179e+06  -5.839672e+04
  -3.572005e+05  -6.984202e+05
   8.781371e+05  -1.099522e+06
   1.655394e+06  -6.364635e+05
   1.321586e+06   4.959052e+05
   2.061249e+05   1.367241e+06
  -7.872547e+05   1.279208e+06
  -1.036169e+06   4.636817e+05
  -6.303751e+05  -2.550274e+05
  -1.067846e+05  -3.547094e+05
   9.397546e+04  -6.382428e+04
  -6.260359e+04   1.976498e+04
  -2.774090e+05  -3.515467e+05
  -2.131558e+05  -7.776130e+05
   2.036094e+05  -6.438380e+05
   6.618136e+05   1.487729e+05
   6.744352e+05   9.585124e+05
   5.516028e+04   1.008198e+06
  -7.542566e+05   2.054154e+05
  -9.751987e+05  -7.462458e+05
  -2.846329e+05  -1.066630e+06
   7.218028e+05  -6.160874e+05
   1.067534e+06   1.236182e+05
   4.694668e+05   6.057141e+05
  -3.124573e+05   6.263292e+05
  -3.690984e+05   3.238569e+05
   2.543978e+05   9.161445e+03
   6.298794e+05  -1.556366e+04
   1.227025e+05   3.031367e+05
  -8.146651e+05   6.226653e+05
  -1.207326e+06   4.696999e+05
  -7.024615e+05  -2.019016e+05
   1.302697e+05  -8.269180e+05
   5.560582e+05  -7.847990e+05
   4.124435e+05  -1.182897e+05
   3.382252e+04   4.734419e+05
  -2.545831e+05   4.056185e+05
  -3.451596e+05  -1.629142e+05
  -2.220637e+05  -5.653829e+05
   7.945035e+04  -4.024370e+05
   3.784588e+05   6.151625e+04
   4.345863e+05   2.837061e+05
   2.216626e+05   9.530027e+04
  -1.327807e+04  -1.437638e+05
  -5.817533e+04  -2.912905e+04
  -6.531930e+03   3.624903e+05
  -9.921674e+04   5.396237e+05
  -3.418181e+05   1.890520e+05
  -4.285563e+05  -4.072943e+05
  -1.132468e+05  -6.502526e+05
   4.136636e+05  -2.892938e+05
   6.301297e+05   3.057688e+05
   2.238776e+05   5.693926e+05
  -4.992608e+05   3.281069e+05
  -8.450402e+05  -1.146670e+05
  -4.444426e+05  -3.832427e+05
   3.051889e+05  -3.675507e+05
   6.305064e+05  -1.855087e+05
   2.364921e+05   2.016621e+03
  -3.538445e+05   6.026327e+04
  -4.065019e+05  -7.933238e+04
   1.707765e+05  -2.903589e+05
   7.359051e+05  -2.527057e+05
