
 $NMID
 id='ANONYMOUS ', fmtdat='(2E16.6)'
 volume=1.0
 tramp=1.0
 $END
   3.540210e+07  -8.992768e+05
   2.328815e+07   1.858363e+07
  -1.502297e+06   2.338368e+07
  -1.615868e+07   1.281054e+07
  -1.201114e+07  -9.937674e+05
   3.636328e+05  -6.287257e+06
   6.869554e+06  -1.549702e+06
   3.949694e+06   5.951160e+06
  -2.623073e+06   8.193680e+06
  -6.448000e+06   3.121418e+06
  -5.244790e+06  -4.213103e+06
  -7.246198e+05  -6.543799e+06
   2.983970e+06  -1.677065e+06
   2.290773e+06   4.939015e+06
  -2.182309e+06   5.945594e+06
  -5.581809e+06   1.070611e+05
  -3.863145e+06  -6.711730e+06
   1.794079e+06  -8.312227e+06
   6.523354e+06  -4.154744e+06
   6.886974e+06   1.544684e+06
   3.603581e+06   4.732876e+06
   8.454051e+04   4.569794e+06
  -7.751034e+05   2.962587e+06
   9.313349e+05   2.355218e+06
   2.044238e+06   3.465588e+06
  -4.624339e+05   4.506331e+06
  -5.461477e+06   3.126532e+06
  -8.008560e+06  -5.420848e+05
  -4.927452e+06  -3.589949e+06
   9.696617e+05  -3.538565e+06
   3.901588e+06  -9.903968e+05
   1.743403e+06   1.421831e+06
  -2.177323e+06   1.771972e+06
  -3.657838e+06  -3.485241e+04
  -2.001867e+06  -2.666306e+06
   5.333872e+05  -3.959011e+06
   1.814959e+06  -2.342844e+06
   1.369202e+06   9.797726e+05
   8.634536e+04   2.368204e+06
  -5.160962e+05   6.533159e+03
   5.065318e+05  -3.035864e+06
   2.176570e+06  -2.283628e+06
   2.136141e+06   1.893091e+06
  -5.111760e+05   4.182080e+06
  -3.434778e+06   1.217965e+06
  -3.258521e+06  -3.856350e+06
   5.532581e+05  -5.330212e+06
   4.798904e+06  -1.772743e+06
   5.648265e+06   2.977501e+06
   2.262226e+06   4.710460e+06
  -2.532063e+06   2.778257e+06
  -4.760913e+06  -4.937475e+05
  -2.771804e+06  -2.457362e+06
   1.240993e+06  -1.947791e+06
   3.312251e+06   1.561711e+05
   1.767354e+06   1.644562e+06
  -1.056288e+06   1.059286e+06
  -1.691847e+06  -6.579530e+05
   2.839759e+05  -1.263521e+06
   1.954902e+06   1.430036e+04
   8.706717e+05   1.633138e+06
  -1.997637e+06   1.736858e+06
  -3.562565e+06   6.448190e+04
  -2.050725e+06  -2.288881e+06
   1.477732e+06  -3.935857e+06
   4.456208e+06  -3.649754e+06
   4.994584e+06  -9.693395e+05
   3.109555e+06   2.771674e+06
   4.860224e+05   4.916889e+06
  -1.011446e+06   4.096072e+06
  -9.933737e+05   1.871152e+06
  -6.925587e+05   7.641912e+05
  -1.297955e+06   1.074218e+06
  -2.448101e+06   8.863891e+05
  -2.734767e+06  -8.540861e+05
  -1.435926e+06  -2.651445e+06
   6.843845e+05  -2.378318e+06
   2.119954e+06   2.004595e+04
   1.788293e+06   2.454083e+06
  -2.462218e+05   2.889199e+06
  -2.633153e+06   1.095488e+06
  -3.508898e+06  -1.471230e+06
  -2.132883e+06  -3.031373e+06
   1.895903e+05  -2.868595e+06
   1.453296e+06  -1.749770e+06
   1.309020e+06  -9.791019e+05
   1.332899e+06  -9.429541e+05
   2.641144e+06  -7.729604e+05
   4.040203e+06   4.529946e+05
   3.342514e+06   2.463622e+06
   2.018633e+05   3.945507e+06
  -3.165197e+06   3.734166e+06
  -4.191692e+06   1.765630e+06
  -2.443820e+06  -8.024296e+05
   1.816626e+05  -2.260925e+06
   1.385230e+06  -1.649326e+06
   4.905541e+05   1.804551e+05
  -1.171245e+06   1.183536e+06
  -1.729861e+06   3.373528e+05
  -6.895938e+05  -1.078359e+06
   6.385900e+05  -1.083269e+06
   6.748109e+05   3.413065e+05
  -6.430055e+05   1.102330e+06
  -1.833799e+06  -3.028137e+05
  -1.478975e+06  -2.759675e+06
   4.440384e+05  -3.755300e+06
   2.681700e+06  -2.156625e+06
   3.736782e+06   7.689563e+05
   2.865097e+06   2.826698e+06
   6.310620e+05   2.870028e+06
  -1.332720e+06   1.465808e+06
  -1.620913e+06   1.263642e+05
  -4.828947e+05  -4.564452e+04
   3.632107e+05   7.230041e+05
  -2.922971e+05   1.206992e+06
  -1.655318e+06   5.686553e+05
  -1.900155e+06  -6.680610e+05
  -4.858502e+05  -1.240747e+06
   1.091467e+06  -6.251598e+05
   1.024344e+06   4.254090e+05
  -7.274231e+05   7.723135e+05
  -2.364337e+06   2.483410e+03
  -2.105338e+06  -1.329951e+06
   4.664911e+04  -2.203751e+06
   2.303321e+06  -1.838335e+06
   2.761993e+06  -3.432884e+05
   1.181307e+06   1.138898e+06
  -8.143230e+05   1.326151e+06
  -1.345620e+06   1.641196e+05
  -1.117617e+05  -9.542292e+05
   1.439711e+06  -6.937916e+05
   1.704446e+06   6.708460e+05
   4.997224e+05   1.603460e+06
  -9.380571e+05   1.131795e+06
  -1.291699e+06  -1.022713e+05
  -3.960179e+05  -7.053978e+05
   6.838221e+05  -9.495459e+04
   6.841051e+05   9.960775e+05
  -5.983634e+05   1.361684e+06
  -1.973195e+06   4.777259e+05
  -1.961301e+06  -1.048070e+06
  -3.827024e+05  -2.000581e+06
   1.339767e+06  -1.614442e+06
   1.666213e+06  -2.793634e+05
   5.653555e+05   8.163957e+05
  -6.063488e+05   8.362990e+05
  -7.127192e+05   6.486532e+04
   4.422065e+04  -5.235757e+05
   6.227017e+05  -3.720765e+05
   3.876615e+05   1.229153e+05
  -3.135392e+05   1.676588e+05
  -6.030030e+05  -4.710339e+05
   5.847596e+04  -1.139519e+06
   1.302072e+06  -9.263583e+05
   2.044045e+06   3.688881e+05
   1.437578e+06   1.888896e+06
  -2.082168e+05   2.417774e+06
  -1.612614e+06   1.520489e+06
  -1.795762e+06  -2.682908e+04
  -1.032161e+06  -1.005717e+06
  -3.599618e+05  -9.297126e+05
  -3.123025e+05  -3.827859e+05
  -4.428657e+05  -2.296224e+05
  -7.351700e+04  -6.325472e+05
   8.015452e+05  -9.274652e+05
   1.465658e+06  -4.230891e+05
   1.169812e+06   7.464071e+05
  -1.597611e+05   1.595882e+06
  -1.714942e+06   1.174739e+06
  -2.282933e+06  -4.381572e+05
  -1.218950e+06  -2.040185e+06
   8.451475e+05  -2.334101e+06
   2.402487e+06  -1.134553e+06
   2.399808e+06   4.920890e+05
   1.159569e+06   1.320233e+06
  -9.469995e+04   1.119000e+06
  -5.171427e+05   6.635000e+05
  -3.042330e+05   7.100451e+05
  -2.036493e+05   1.140238e+06
  -6.114661e+05   1.167279e+06
  -1.199475e+06   2.868143e+05
  -1.286917e+06  -1.075250e+06
  -5.344064e+05  -1.876493e+06
   6.315273e+05  -1.419056e+06
   1.285781e+06  -3.034272e+04
   8.502208e+05   1.197901e+06
  -2.690766e+05   1.373484e+06
  -1.024240e+06   5.432211e+05
  -7.980018e+05  -4.813134e+05
  -2.876331e+04  -9.556016e+05
   3.506316e+05  -8.077939e+05
   1.443206e+04  -4.868033e+05
  -3.929137e+05  -3.677410e+05
  -3.730105e+04  -3.931653e+05
   1.072137e+06  -2.372115e+05
   1.951770e+06   2.802859e+05
   1.600590e+06   9.570094e+05
   8.024769e+04   1.339055e+06
  -1.434217e+06   1.100025e+06
  -1.764716e+06   3.616883e+05
  -8.729945e+05  -3.417850e+05
   1.941592e+05  -4.972497e+05
   4.690877e+05  -9.653631e+04
  -8.584312e+03   3.256985e+05
  -4.824123e+05   2.266707e+05
  -4.580814e+05  -3.393055e+05
  -1.415595e+05  -7.382453e+05
   5.920320e+03  -4.745294e+05
  -1.521408e+05   1.669321e+05
  -3.634390e+05   3.760551e+05
  -2.937161e+05  -2.182102e+05
   1.935552e+05  -1.008183e+06
   8.807807e+05  -1.034279e+06
   1.216136e+06  -1.110404e+05
   7.174175e+05   8.996373e+05
  -4.038140e+05   1.026546e+06
  -1.164860e+06   2.357655e+05
  -7.068026e+05  -5.997548e+05
   6.680272e+05  -6.653692e+05
   1.623551e+06   3.665339e+04
   1.140268e+06   8.346957e+05
  -3.802527e+05   1.075320e+06
  -1.523510e+06   6.238591e+05
  -1.324181e+06  -1.158264e+05
  -1.868498e+05  -5.387160e+05
   6.350522e+05  -3.192077e+05
   3.498743e+05   2.564209e+05
  -6.260258e+05   4.644017e+05
  -1.158987e+06  -1.578886e+05
  -5.685735e+05  -1.207130e+06
   6.964481e+05  -1.643634e+06
   1.525511e+06  -8.037498e+05
   1.240625e+06   7.968027e+05
   1.805097e+05   1.810796e+06
  -7.490634e+05   1.344653e+06
  -9.479002e+05  -1.167744e+05
  -4.955142e+05  -1.188913e+06
   1.413539e+05  -1.022967e+06
   5.399092e+05  -1.206436e+05
   5.256405e+05   3.977358e+05
   2.293248e+05   1.648367e+05
   2.453415e+04  -1.183193e+05
   1.858061e+05   2.423118e+05
   4.725420e+05   9.453931e+05
   2.685253e+05   1.101354e+06
  -6.242162e+05   4.155331e+05
  -1.488592e+06  -4.732009e+05
  -1.355650e+06  -8.470606e+05
  -1.938043e+05  -6.842043e+05
   9.208214e+05  -4.040399e+05
   1.012416e+06  -2.025791e+05
   3.083920e+05   1.059372e+04
  -1.716477e+05   2.161717e+05
   3.745089e+04   2.496701e+05
   3.426709e+05   1.463971e+05
   1.760888e+04   1.358951e+05
  -7.472435e+05   1.934173e+05
  -1.032687e+06  -4.320018e+04
  -3.090780e+05  -6.715691e+05
   9.222455e+05  -1.113862e+06
   1.643482e+06  -6.854187e+05
   1.301718e+06   4.802365e+05
   2.293535e+05   1.416625e+06
  -7.542824e+05   1.340563e+06
  -1.045881e+06   4.738357e+05
  -6.595200e+05  -2.824105e+05
  -9.649929e+04  -3.546765e+05
   1.345621e+05  -1.427140e+04
  -6.017858e+04   7.065149e+04
  -3.343742e+05  -3.489546e+05
  -2.702353e+05  -8.104718e+05
   1.994919e+05  -6.579587e+05
   6.889196e+05   1.795072e+05
   6.787048e+05   1.002179e+06
   2.378595e+04   1.014682e+06
  -7.917063e+05   1.654845e+05
  -9.952978e+05  -7.923188e+05
  -2.890226e+05  -1.081773e+06
   7.251063e+05  -6.137690e+05
   1.076824e+06   1.038882e+05
   4.864865e+05   5.637209e+05
  -2.828692e+05   6.082933e+05
  -3.221385e+05   3.520722e+05
   3.084685e+05   4.171303e+04
   6.638040e+05  -2.058695e+04
   1.216871e+05   2.942513e+05
  -8.305027e+05   6.769223e+05
  -1.209807e+06   5.780069e+05
  -6.981045e+05  -1.292230e+05
   1.088051e+05  -8.393493e+05
   5.013170e+05  -8.257173e+05
   3.586071e+05  -1.158956e+05
   1.258641e+04   5.014892e+05
  -2.522415e+05   3.958402e+05
  -3.482212e+05  -2.070886e+05
  -2.377037e+05  -5.794810e+05
   6.827720e+04  -3.721489e+05
   3.845637e+05   7.345013e+04
   4.541507e+05   2.437488e+05
   2.428264e+05   6.332814e+04
  -7.609844e+03  -1.032424e+05
  -8.854282e+04   4.780960e+04
  -7.354223e+04   3.822492e+05
  -1.621543e+05   4.762917e+05
  -3.474199e+05   1.081106e+05
  -3.716587e+05  -4.440732e+05
  -4.791916e+04  -6.477457e+05
   4.367064e+05  -2.783189e+05
   6.178452e+05   3.205107e+05
   2.153687e+05   5.945843e+05
  -4.922487e+05   3.512027e+05
  -8.428375e+05  -1.082026e+05
  -4.558648e+05  -3.819031e+05
   2.939260e+05  -3.530998e+05
   6.198967e+05  -1.691770e+05
   2.050225e+05  -9.925798e+03
  -4.033580e+05   1.375473e+04
  -4.241844e+05  -1.328787e+05
   2.242541e+05  -3.212359e+05
   8.258629e+05  -2.523546e+05
