
 $NMID
 id='ANONYMOUS ', fmtdat='(2E16.6)'
 volume=1.0
 tramp=1.0
 $END
   6.027147e+07   1.297606e+06
   3.511175e+07   3.846964e+07
  -9.260949e+06   4.061560e+07
  -2.987012e+07   1.452285e+07
  -1.710926e+07  -8.289532e+06
   3.975033e+06  -9.786879e+06
   1.029914e+07   1.828926e+06
   2.436463e+06   1.045380e+07
  -6.923446e+06   9.470434e+06
  -1.023757e+07   1.676689e+06
  -7.247081e+06  -6.699080e+06
  -7.150380e+05  -9.046404e+06
   4.259945e+06  -2.884842e+06
   2.675362e+06   5.623204e+06
  -4.116898e+06   6.650581e+06
  -8.267127e+06  -1.708673e+06
  -4.399958e+06  -1.092774e+07
   4.338890e+06  -1.239432e+07
   1.089324e+07  -6.060719e+06
   1.152908e+07   2.369841e+06
   7.029131e+06   8.167767e+06
   5.889727e+05   9.422266e+06
  -3.433814e+06   6.511010e+06
  -2.330987e+06   2.662980e+06
   1.026003e+06   1.956332e+06
   3.643517e+05   4.217955e+06
  -5.544525e+06   4.633840e+06
  -1.010098e+07   5.534197e+05
  -7.431400e+06  -4.388741e+06
  -3.563728e+05  -5.421194e+06
   3.824799e+06  -2.843374e+06
   2.683940e+06  -1.902976e+05
  -3.491503e+05   8.943793e+05
  -2.134857e+06   6.277443e+05
  -2.307118e+06  -1.286888e+06
  -8.752149e+05  -4.043716e+06
   1.906230e+06  -4.133599e+06
   3.597109e+06   6.537432e+04
   1.912590e+06   3.956022e+06
  -9.145472e+05   2.225757e+06
  -4.894508e+05  -2.449046e+06
   2.552150e+06  -2.323199e+06
   2.465252e+06   3.461459e+06
  -2.856999e+06   6.429467e+06
  -7.573293e+06   8.245658e+05
  -5.315705e+06  -7.589554e+06
   2.313773e+06  -9.069750e+06
   7.970838e+06  -2.408350e+06
   7.175234e+06   4.826953e+06
   1.731828e+06   6.320150e+06
  -3.685750e+06   2.692662e+06
  -5.374401e+06  -1.752133e+06
  -2.356825e+06  -3.698619e+06
   2.651185e+06  -2.211527e+06
   4.746307e+06   1.123934e+06
   1.952457e+06   2.941980e+06
  -1.863399e+06   1.403505e+06
  -1.757995e+06  -1.110684e+06
   1.486026e+06  -8.384493e+05
   2.518972e+06   2.066879e+06
  -9.271683e+05   3.698065e+06
  -5.100214e+06   1.832268e+06
  -5.580477e+06  -1.678347e+06
  -2.309215e+06  -4.310576e+06
   1.962474e+06  -5.526979e+06
   5.250896e+06  -5.053855e+06
   6.518256e+06  -1.810299e+06
   4.845202e+06   3.352772e+06
   9.454594e+05   6.489201e+06
  -2.070243e+06   4.912860e+06
  -1.888337e+06   1.112811e+06
  -5.178646e+04  -3.812320e+05
   2.161986e+05   1.039109e+06
  -1.561827e+06   1.981400e+06
  -2.930220e+06   3.843401e+05
  -2.177545e+06  -1.904712e+06
  -1.265991e+05  -2.190839e+06
   1.520064e+06  -2.584175e+05
   1.707355e+06   2.074840e+06
   2.268511e+04   3.019155e+06
  -2.877387e+06   1.752426e+06
  -4.710449e+06  -1.236223e+06
  -3.397965e+06  -4.001727e+06
   9.024961e+04  -4.516907e+06
   2.493878e+06  -2.870145e+06
   2.425323e+06  -1.137409e+06
   1.940677e+06  -6.315221e+05
   3.047308e+06  -4.189747e+05
   4.481898e+06   8.637102e+05
   3.562673e+06   2.906819e+06
   8.817990e+04   4.256245e+06
  -3.326827e+06   4.001516e+06
  -4.305889e+06   2.201615e+06
  -2.769298e+06  -4.001728e+05
  -3.383226e+05  -2.309307e+06
   1.110156e+06  -2.032077e+06
   5.952747e+05   2.152256e+04
  -1.118863e+06   1.360260e+06
  -1.991458e+06   3.990077e+05
  -9.694484e+05  -1.272866e+06
   5.225096e+05  -1.150727e+06
   3.975068e+05   4.022286e+05
  -1.151686e+06   6.298374e+05
  -1.864232e+06  -1.490153e+06
  -4.790997e+05  -3.666152e+06
   1.827356e+06  -3.391812e+06
   3.265298e+06  -9.353068e+05
   3.290676e+06   1.600616e+06
   2.220355e+06   2.819675e+06
   4.252226e+05   2.635589e+06
  -1.271575e+06   1.497923e+06
  -1.620739e+06   2.403661e+05
  -5.083075e+05  -5.167902e+04
   3.604657e+05   7.822857e+05
  -4.632905e+05   1.396189e+06
  -2.013481e+06   5.719432e+05
  -2.102009e+06  -9.757190e+05
  -3.595111e+05  -1.490502e+06
   1.225430e+06  -5.650744e+05
   8.859453e+05   4.785413e+05
  -8.928983e+05   4.774046e+05
  -2.197113e+06  -4.032033e+05
  -1.715152e+06  -1.405479e+06
   3.040671e+05  -1.976327e+06
   2.386643e+06  -1.647009e+06
   2.858611e+06  -2.424414e+05
   1.244363e+06   1.339907e+06
  -9.865590e+05   1.568612e+06
  -1.650536e+06   1.786089e+05
  -2.099950e+05  -1.142718e+06
   1.586421e+06  -7.512436e+05
   1.762546e+06   8.443868e+05
   2.977086e+05   1.710542e+06
  -1.160587e+06   9.595657e+05
  -1.278708e+06  -3.754009e+05
  -2.121982e+05  -8.186735e+05
   8.437051e+05  -3.687623e+04
   7.590600e+05   1.106785e+06
  -6.040796e+05   1.477590e+06
  -2.084824e+06   5.543745e+05
  -2.105389e+06  -1.103976e+06
  -3.745926e+05  -2.158596e+06
   1.522309e+06  -1.683099e+06
   1.792343e+06  -1.833998e+05
   4.941021e+05   9.098090e+05
  -6.972489e+05   8.132988e+05
  -6.379317e+05   7.788806e+04
   1.356406e+05  -3.341299e+05
   4.755208e+05  -1.808607e+05
   7.243233e+04   4.724561e+04
  -4.805573e+05  -1.394540e+05
  -5.019178e+05  -7.367222e+05
   2.574150e+05  -1.226183e+06
   1.449378e+06  -9.003577e+05
   2.148656e+06   4.572177e+05
   1.496690e+06   2.029713e+06
  -2.471082e+05   2.494106e+06
  -1.674322e+06   1.417746e+06
  -1.713764e+06  -1.632014e+05
  -8.418881e+05  -9.021615e+05
  -3.217382e+05  -6.139787e+05
  -5.306037e+05  -2.015349e+05
  -6.794309e+05  -3.529279e+05
  -8.568489e+04  -8.170408e+05
   9.264250e+05  -9.116319e+05
   1.487855e+06  -3.002946e+05
   1.049356e+06   7.443903e+05
  -2.861367e+05   1.468680e+06
  -1.782034e+06   1.066564e+06
  -2.302750e+06  -5.275147e+05
  -1.128067e+06  -2.184774e+06
   1.099722e+06  -2.429772e+06
   2.656784e+06  -1.011609e+06
   2.399702e+06   7.363973e+05
   9.270712e+05   1.385208e+06
  -2.393945e+05   9.304372e+05
  -3.720663e+05   4.931577e+05
  -3.917571e+04   7.932517e+05
  -1.018750e+05   1.386313e+06
  -7.194887e+05   1.346670e+06
  -1.357973e+06   3.210086e+05
  -1.380759e+06  -1.127499e+06
  -5.624747e+05  -1.962031e+06
   6.513140e+05  -1.480491e+06
   1.323664e+06   2.069446e+04
   8.142012e+05   1.347596e+06
  -4.428862e+05   1.435877e+06
  -1.227851e+06   3.714672e+05
  -8.247123e+05  -7.749952e+05
   1.751291e+05  -1.128826e+06
   6.009619e+05  -7.885932e+05
   1.048305e+05  -4.091478e+05
  -4.544418e+05  -3.434511e+05
  -6.439340e+04  -3.939724e+05
   1.202104e+06  -1.978054e+05
   2.147216e+06   3.755272e+05
   1.658948e+06   1.100865e+06
  -8.208982e+04   1.496573e+06
  -1.685044e+06   1.166387e+06
  -1.902464e+06   2.486171e+05
  -8.400772e+05  -5.509588e+05
   2.921401e+05  -5.989311e+05
   5.354100e+05  -1.398363e+04
   3.457001e+04   4.587338e+05
  -4.495879e+05   2.725578e+05
  -4.997922e+05  -3.571664e+05
  -2.854628e+05  -7.468732e+05
  -1.217637e+05  -4.993313e+05
  -1.357722e+05   7.860070e+04
  -2.651620e+05   2.807168e+05
  -2.768273e+05  -2.443892e+05
   1.378764e+05  -1.011651e+06
   9.397294e+05  -1.100371e+06
   1.445867e+06  -1.839141e+05
   9.083007e+05   9.564938e+05
  -4.418588e+05   1.201958e+06
  -1.327357e+06   3.650389e+05
  -7.613662e+05  -5.883153e+05
   7.370331e+05  -6.573504e+05
   1.623861e+06   1.260746e+05
   9.903707e+05   9.005210e+05
  -5.333146e+05   9.869113e+05
  -1.535676e+06   4.403261e+05
  -1.239644e+06  -2.251041e+05
  -1.195683e+05  -5.217297e+05
   6.742039e+05  -2.570676e+05
   4.037288e+05   3.186337e+05
  -5.950041e+05   5.558020e+05
  -1.230749e+06  -6.425639e+04
  -7.231104e+05  -1.216181e+06
   5.804558e+05  -1.778889e+06
   1.522991e+06  -9.389394e+05
   1.300655e+06   7.730438e+05
   2.107895e+05   1.844466e+06
  -7.653079e+05   1.315310e+06
  -9.441834e+05  -2.077265e+05
  -4.154562e+05  -1.231643e+06
   2.593604e+05  -9.763981e+05
   5.880022e+05  -6.927141e+04
   4.571075e+05   3.822414e+05
   1.434102e+05   1.297685e+05
   5.937308e+04  -8.833719e+04
   3.230604e+05   3.303933e+05
   5.362702e+05   1.009670e+06
   1.618297e+05   1.102723e+06
  -7.756162e+05   3.932383e+05
  -1.516068e+06  -4.823504e+05
  -1.287702e+06  -8.625578e+05
  -1.841369e+05  -7.279594e+05
   8.542657e+05  -4.392658e+05
   1.004332e+06  -1.769607e+05
   3.940975e+05   7.651071e+04
  -1.396850e+05   2.378737e+05
  -6.898615e+04   1.891890e+05
   2.396381e+05   7.164063e+04
   6.761022e+04   1.375679e+05
  -6.454623e+05   2.662183e+05
  -1.089791e+06   2.081723e+03
  -5.057424e+05  -7.300376e+05
   8.334812e+05  -1.251184e+06
   1.787355e+06  -8.146946e+05
   1.515041e+06   4.251839e+05
   3.081007e+05   1.450084e+06
  -8.004914e+05   1.439754e+06
  -1.089090e+06   5.898210e+05
  -6.774767e+05  -2.138167e+05
  -1.578401e+05  -3.737074e+05
   4.104767e+04  -9.812940e+04
  -9.313088e+04  -1.155410e+04
  -2.923095e+05  -3.890309e+05
  -2.437155e+05  -8.338501e+05
   1.743942e+05  -7.147873e+05
   7.023784e+05   9.131832e+04
   8.014936e+05   9.558918e+05
   1.736599e+05   1.078693e+06
  -7.583870e+05   3.068514e+05
  -1.097397e+06  -7.016447e+05
  -3.979353e+05  -1.131844e+06
   7.301793e+05  -7.404041e+05
   1.182102e+06   5.786583e+04
   5.763363e+05   6.614557e+05
  -2.992327e+05   7.428975e+05
  -4.252479e+05   3.891016e+05
   2.206497e+05  -1.247144e+04
   6.636068e+05  -5.422406e+04
   1.670175e+05   3.270143e+05
  -8.488932e+05   7.054352e+05
  -1.329371e+06   5.376286e+05
  -8.259025e+05  -2.122547e+05
   9.033394e+04  -9.176936e+05
   6.001257e+05  -9.039487e+05
   4.818280e+05  -1.950011e+05
   8.327862e+04   4.827045e+05
  -2.387128e+05   4.759795e+05
  -3.687832e+05  -1.135337e+05
  -2.754667e+05  -5.950808e+05
   4.444048e+04  -4.770141e+05
   4.093609e+05   2.647256e+04
   5.055063e+05   3.120043e+05
   2.500408e+05   1.195722e+05
  -5.177527e+04  -1.853977e+05
  -7.964011e+04  -1.018941e+05
   6.907612e+04   3.494741e+05
   2.068710e+04   6.191774e+05
  -3.134068e+05   2.990338e+05
  -5.331847e+05  -3.503643e+05
  -2.358491e+05  -6.718074e+05
   4.029278e+05  -3.518508e+05
   7.201437e+05   2.596371e+05
   2.915666e+05   5.788471e+05
  -5.332214e+05   3.899112e+05
  -9.403772e+05  -5.247680e+04
  -5.131251e+05  -3.856460e+05
   3.025830e+05  -4.470164e+05
   6.738722e+05  -2.783790e+05
   2.895233e+05  -2.497642e+04
  -3.206110e+05   1.108619e+05
  -4.124783e+05  -1.639155e+04
   1.334517e+05  -2.833403e+05
   7.116805e+05  -3.003820e+05
