
 $NMID
 id='ANONYMOUS ', fmtdat='(2E16.6)'
 volume=1.0
 tramp=1.0
 $END
  -2.711274e+07  -2.404208e+06
  -1.584214e+07  -1.568652e+07
   3.028198e+06  -1.722397e+07
   1.281927e+07  -8.555562e+06
   8.725271e+06   1.205080e+06
  -5.778147e+05   4.541010e+06
  -5.070636e+06   9.331698e+05
  -2.689826e+06  -4.514296e+06
   2.209427e+06  -6.065208e+06
   4.942709e+06  -2.077532e+06
   3.797543e+06   3.581825e+06
   2.016329e+05   5.167758e+06
  -2.488941e+06   1.109178e+06
  -1.642263e+06  -4.027786e+06
   1.872810e+06  -4.516599e+06
   4.197808e+06   2.153443e+05
   2.524714e+06   5.352808e+06
  -1.916554e+06   6.224521e+06
  -5.337470e+06   2.687938e+06
  -5.217503e+06  -1.815176e+06
  -2.298945e+06  -4.063978e+06
   5.269039e+05  -3.497606e+06
   8.995940e+05  -1.947184e+06
  -8.260044e+05  -1.607268e+06
  -1.751507e+06  -2.830684e+06
   5.030121e+05  -3.713127e+06
   4.617754e+06  -2.297500e+06
   6.437355e+06   8.862306e+05
   3.683974e+06   3.203531e+06
  -1.102764e+06   2.852288e+06
  -3.336203e+06   6.175901e+05
  -1.470688e+06  -1.353163e+06
   1.806226e+06  -1.588356e+06
   3.088273e+06   8.263239e+03
   1.670652e+06   2.300723e+06
  -5.996735e+05   3.316304e+06
  -1.686915e+06   1.755104e+06
  -1.060951e+06  -1.074417e+06
   2.259276e+05  -2.002587e+06
   6.052752e+05   1.565012e+05
  -4.789719e+05   2.558414e+06
  -1.799709e+06   1.750326e+06
  -1.513632e+06  -1.529311e+06
   6.099205e+05  -3.021072e+06
   2.553426e+06  -5.230118e+05
   2.070442e+06   3.196183e+06
  -8.491799e+05   3.925715e+06
  -3.814834e+06   9.736928e+05
  -4.224882e+06  -2.595626e+06
  -1.579738e+06  -3.724305e+06
   2.041716e+06  -2.073097e+06
   3.675606e+06   5.091055e+05
   2.084305e+06   1.946245e+06
  -9.925552e+05   1.394134e+06
  -2.499730e+06  -2.892581e+05
  -1.258332e+06  -1.315920e+06
   8.631682e+05  -7.334647e+05
   1.302501e+06   5.518396e+05
  -1.539145e+05   9.170889e+05
  -1.350652e+06  -6.556000e+03
  -5.583492e+05  -1.058564e+06
   1.505961e+06  -1.049711e+06
   2.610172e+06   1.400176e+05
   1.393385e+06   1.821573e+06
  -1.420190e+06   3.016009e+06
  -3.784595e+06   2.689938e+06
  -4.060062e+06   4.703988e+05
  -2.298948e+06  -2.450259e+06
  -1.002077e+05  -3.944771e+06
   9.394351e+05  -3.141556e+06
   7.324630e+05  -1.444264e+06
   5.073033e+05  -7.214472e+05
   1.151760e+06  -9.770005e+05
   2.144842e+06  -6.772038e+05
   2.288195e+06   8.399091e+05
   1.123922e+06   2.278877e+06
  -6.310844e+05   1.984045e+06
  -1.761248e+06  -2.493194e+04
  -1.419841e+06  -2.031113e+06
   2.940018e+05  -2.340795e+06
   2.198677e+06  -7.626784e+05
   2.756107e+06   1.398677e+06
   1.491844e+06   2.570611e+06
  -3.848759e+05   2.238679e+06
  -1.272349e+06   1.222937e+06
  -1.043032e+06   6.445465e+05
  -1.041050e+06   6.846515e+05
  -2.096599e+06   5.340968e+05
  -3.186854e+06  -4.912259e+05
  -2.581225e+06  -2.071594e+06
  -3.878393e+04  -3.160515e+06
   2.665579e+06  -2.902087e+06
   3.460837e+06  -1.286334e+06
   1.971721e+06   7.571047e+05
  -2.330238e+05   1.863885e+06
  -1.205346e+06   1.303723e+06
  -3.990418e+05  -1.720825e+05
   9.911326e+05  -9.192669e+05
   1.392474e+06  -2.026301e+05
   4.971825e+05   9.003902e+05
  -5.492002e+05   8.643299e+05
  -5.397663e+05  -2.600573e+05
   4.746572e+05  -8.441892e+05
   1.353188e+06   2.362062e+05
   1.085578e+06   2.122807e+06
  -3.482637e+05   2.903549e+06
  -2.072082e+06   1.676832e+06
  -2.939758e+06  -6.305487e+05
  -2.274276e+06  -2.291020e+06
  -4.693346e+05  -2.323022e+06
   1.118600e+06  -1.153946e+06
   1.321854e+06  -5.713324e+04
   3.872354e+05   5.027570e+04
  -2.682735e+05  -5.877073e+05
   2.751321e+05  -9.379772e+05
   1.329137e+06  -3.820997e+05
   1.473691e+06   5.876634e+05
   3.436893e+05   9.838261e+05
  -8.795284e+05   4.642066e+05
  -8.126592e+05  -3.518162e+05
   5.717476e+05  -5.994389e+05
   1.875448e+06   2.502694e+04
   1.674457e+06   1.085605e+06
  -5.978424e+04   1.761700e+06
  -1.881138e+06   1.425282e+06
  -2.221205e+06   2.041545e+05
  -9.026197e+05  -9.423097e+05
   7.024804e+05  -1.020023e+06
   1.073923e+06  -7.048146e+04
   4.373520e+04   7.698959e+05
  -1.174689e+06   5.055747e+05
  -1.336822e+06  -5.794270e+05
  -3.633090e+05  -1.278880e+06
   7.547239e+05  -8.755786e+05
   1.010955e+06   9.843171e+04
   2.993624e+05   5.518977e+05
  -5.380155e+05   4.351384e+04
  -5.084345e+05  -8.229956e+05
   5.305056e+05  -1.074738e+06
   1.605595e+06  -3.184391e+05
   1.541962e+06   9.066499e+05
   2.433550e+05   1.613956e+06
  -1.117661e+06   1.247534e+06
  -1.334590e+06   1.781277e+05
  -4.308960e+05  -6.581807e+05
   5.008175e+05  -6.500317e+05
   5.785330e+05  -4.206605e+04
  -2.776599e+04   4.185140e+05
  -4.998928e+05   3.048446e+05
  -3.299000e+05  -8.328921e+04
   2.217715e+05  -1.246890e+05
   4.541419e+05   3.750393e+05
  -7.638938e+04   8.956473e+05
  -1.065771e+06   7.007807e+05
  -1.626059e+06  -3.563799e+05
  -1.094950e+06  -1.559635e+06
   2.340656e+05  -1.937860e+06
   1.325304e+06  -1.185456e+06
   1.438912e+06   5.133224e+04
   8.283856e+05   8.231108e+05
   3.015755e+05   7.706732e+05
   2.506138e+05   3.476172e+05
   3.283803e+05   2.153974e+05
   2.403506e+04   5.067745e+05
  -6.646947e+05   7.177665e+05
  -1.182767e+06   3.068514e+05
  -9.319113e+05  -6.226582e+05
   1.521855e+05  -1.278684e+06
   1.401458e+06  -9.023091e+05
   1.821316e+06   4.100901e+05
   9.209008e+05   1.660742e+06
  -7.385784e+05   1.830828e+06
  -1.941928e+06   8.348192e+05
  -1.898715e+06  -4.452178e+05
  -9.067433e+05  -1.067161e+06
   7.877766e+04  -8.944342e+05
   4.237265e+05  -5.447531e+05
   2.838805e+05  -5.878077e+05
   2.218052e+05  -9.134931e+05
   5.350224e+05  -9.072383e+05
   9.706218e+05  -1.838965e+05
   1.001378e+06   9.064500e+05
   3.740485e+05   1.525522e+06
  -5.499025e+05   1.123580e+06
  -1.030302e+06  -9.317165e+03
  -6.418654e+05  -9.768665e+05
   2.497470e+05  -1.080522e+06
   8.128821e+05  -3.995639e+05
   6.005214e+05   3.977933e+05
  -9.221017e+03   7.429692e+05
  -2.898477e+05   6.178485e+05
  -1.141593e+04   3.864497e+05
   3.081185e+05   3.145037e+05
   1.892754e+04   3.217316e+05
  -8.618717e+05   1.530142e+05
  -1.549719e+06  -2.915000e+05
  -1.249687e+06  -8.119546e+05
  -2.178031e+04  -1.057931e+06
   1.180040e+06  -8.223019e+05
   1.414318e+06  -2.388654e+05
   6.753270e+05   2.844088e+05
  -1.752615e+05   3.818333e+05
  -3.697006e+05   6.300972e+04
   3.037726e+04  -2.620353e+05
   4.013626e+05  -1.733350e+05
   3.582367e+05   2.885721e+05
   8.912618e+04   6.142387e+05
  -2.453447e+04   3.949236e+05
   1.190528e+05  -1.367640e+05
   2.977942e+05  -3.081039e+05
   2.294918e+05   1.821161e+05
  -1.853125e+05   8.152635e+05
  -7.420158e+05   8.029151e+05
  -9.818995e+05   3.094754e+04
  -5.418156e+05  -7.617005e+05
   3.683993e+05  -8.065320e+05
   9.524643e+05  -1.386246e+05
   5.545301e+05   5.077747e+05
  -5.517010e+05   5.138506e+05
  -1.300275e+06  -6.571180e+04
  -8.994938e+05  -6.836581e+05
   3.177214e+05  -8.467522e+05
   1.225507e+06  -4.724697e+05
   1.057985e+06   1.129714e+05
   1.420669e+05   4.330273e+05
  -5.118028e+05   2.401809e+05
  -2.665398e+05  -2.183612e+05
   5.276681e+05  -3.578827e+05
   9.375159e+05   1.680689e+05
   4.208885e+05   1.003782e+06
  -6.217879e+05   1.315181e+06
  -1.265056e+06   6.054120e+05
  -9.814976e+05  -6.808000e+05
  -9.623693e+04  -1.467489e+06
   6.339911e+05  -1.066178e+06
   7.526435e+05   1.135238e+05
   3.690677e+05   9.614405e+05
  -1.297843e+05   8.111802e+05
  -4.311637e+05   8.061577e+04
  -4.185242e+05  -3.275947e+05
  -1.880160e+05  -1.310674e+05
  -1.784908e+04   9.251188e+04
  -1.285274e+05  -2.107610e+05
  -3.482436e+05  -7.782009e+05
  -1.939622e+05  -8.836521e+05
   5.048919e+05  -3.047708e+05
   1.187226e+06   4.209956e+05
   1.074249e+06   7.091979e+05
   1.352033e+05   5.542083e+05
  -7.597122e+05   3.088932e+05
  -8.196433e+05   1.403127e+05
  -2.380401e+05  -2.245592e+04
   1.472483e+05  -1.726739e+05
  -3.520066e+04  -1.939848e+05
  -2.849924e+05  -1.192971e+05
  -8.074391e+03  -1.153915e+05
   6.199649e+05  -1.449319e+05
   8.343283e+05   6.863819e+04
   2.180027e+05   5.677605e+05
  -7.899195e+05   8.792965e+05
  -1.350458e+06   4.916232e+05
  -1.035205e+06  -4.446400e+05
  -1.430599e+05  -1.155744e+06
   6.506160e+05  -1.053842e+06
   8.662663e+05  -3.465442e+05
   5.314314e+05   2.493999e+05
   6.406154e+04   2.942467e+05
  -1.218998e+05   1.430035e+04
   4.027709e+04  -5.554243e+04
   2.585628e+05   2.837797e+05
   1.963247e+05   6.566416e+05
  -1.843406e+05   5.257476e+05
  -5.597953e+05  -1.672566e+05
  -5.221699e+05  -8.401533e+05
   1.903099e+04  -8.321715e+05
   6.591094e+05  -1.114454e+05
   7.886962e+05   6.784945e+05
   1.965127e+05   8.894190e+05
  -6.135312e+05   4.713558e+05
  -8.666836e+05  -1.237594e+05
  -3.641610e+05  -4.723756e+05
   2.571275e+05  -4.761593e+05
   2.681563e+05  -2.632453e+05
  -2.575793e+05  -3.413636e+04
  -5.398496e+05  -1.326516e+03
  -8.552810e+04  -2.439446e+05
   6.890450e+05  -5.224680e+05
   9.809897e+05  -4.255040e+05
   5.458428e+05   1.314553e+05
  -1.175434e+05   6.731224e+05
  -4.289770e+05   6.400704e+05
  -2.954333e+05   6.821223e+04
   3.237699e+03  -4.133200e+05
   2.224784e+05  -3.112274e+05
   2.849725e+05   1.819023e+05
   1.741937e+05   4.768246e+05
  -7.643891e+04   2.966505e+05
  -3.123507e+05  -7.337640e+04
  -3.509615e+05  -2.103662e+05
  -1.881531e+05  -5.543842e+04
  -7.071149e+03   8.462891e+04
   5.713404e+04  -4.373625e+04
   7.140521e+04  -3.230815e+05
   1.655184e+05  -3.935656e+05
   3.046580e+05  -7.415682e+04
   2.919735e+05   3.885814e+05
   1.208997e+04   5.427617e+05
  -3.685450e+05   2.142234e+05
  -4.927181e+05  -2.874179e+05
  -1.574133e+05  -4.939106e+05
   4.083068e+05  -2.651728e+05
   6.791115e+05   1.209398e+05
   3.554988e+05   3.253134e+05
  -2.554047e+05   2.726653e+05
  -5.135239e+05   1.108631e+05
  -1.637122e+05  -6.517683e+03
   3.394331e+05  -5.727083e+03
   3.517240e+05   1.213062e+05
  -1.886614e+05   2.647805e+05
  -6.824534e+05   1.932552e+05
