
 $NMID
 id='ANONYMOUS ', fmtdat='(2E16.6)'
 volume=1.0
 tramp=1.0
 $END
  -5.098419e+07  -2.112722e+06
  -2.955647e+07  -3.217061e+07
   7.628977e+06  -3.397131e+07
   2.518137e+07  -1.289021e+07
   1.487181e+07   6.200019e+06
  -2.967243e+06   8.341880e+06
  -8.899886e+06  -9.581273e+05
  -2.600908e+06  -8.819642e+06
   5.606786e+06  -8.664076e+06
   8.824859e+06  -1.849064e+06
   6.292087e+06   5.930698e+06
   4.960955e+05   8.070748e+06
  -3.830897e+06   2.345378e+06
  -2.372454e+06  -5.332591e+06
   3.555598e+06  -6.169503e+06
   7.176822e+06   1.297793e+06
   3.856291e+06   9.450549e+06
  -3.747242e+06   1.071238e+07
  -9.424696e+06   5.047253e+06
  -9.750040e+06  -2.352567e+06
  -5.580177e+06  -7.087173e+06
  -1.660184e+05  -7.695379e+06
   2.688995e+06  -5.145298e+06
   1.306515e+06  -2.430124e+06
  -1.294841e+06  -2.407148e+06
  -4.076507e+03  -4.229681e+06
   5.506386e+06  -3.930559e+06
   9.232049e+06   3.977438e+04
   6.373604e+06   4.214136e+06
  -1.963343e+05   4.721584e+06
  -3.834132e+06   2.116163e+06
  -2.344114e+06  -3.863815e+05
   9.297709e+05  -1.162366e+06
   2.591724e+06  -3.728248e+05
   2.150101e+06   1.753254e+06
   3.243100e+05   3.968338e+06
  -1.944350e+06   3.438531e+06
  -2.824223e+06  -4.508095e+05
  -1.194207e+06  -3.423023e+06
   8.368013e+05  -1.448371e+06
   1.155546e+05   2.600951e+06
  -2.428673e+06   2.200377e+06
  -2.219527e+06  -2.941436e+06
   2.206472e+06  -5.486128e+06
   6.102803e+06  -7.270350e+05
   4.341848e+06   6.367035e+06
  -1.937017e+06   7.609089e+06
  -6.843280e+06   1.947625e+06
  -6.405781e+06  -4.301873e+06
  -1.709337e+06  -5.700510e+06
   3.292166e+06  -2.571272e+06
   5.010126e+06   1.432484e+06
   2.350888e+06   3.268697e+06
  -2.186727e+06   2.011932e+06
  -4.150966e+06  -9.017446e+05
  -1.781035e+06  -2.505226e+06
   1.593753e+06  -1.216648e+06
   1.671621e+06   9.775239e+05
  -1.079824e+06   9.111569e+05
  -2.218313e+06  -1.424788e+06
   4.318887e+05  -2.918334e+06
   4.039927e+06  -1.619600e+06
   4.764014e+06   1.227602e+06
   2.063681e+06   3.626509e+06
  -1.903836e+06   4.854472e+06
  -5.010803e+06   4.375940e+06
  -5.940763e+06   1.346374e+06
  -4.110052e+06  -3.217745e+06
  -6.249136e+05  -5.873963e+06
   1.801099e+06  -4.494022e+06
   1.581580e+06  -1.284262e+06
   2.403504e+05   2.211419e+03
   2.951085e+05  -1.043862e+06
   1.860893e+06  -1.560839e+06
   2.820737e+06   8.310199e+04
   1.860165e+06   2.151389e+06
  -1.757661e+05   2.211417e+06
  -1.682516e+06   1.398688e+05
  -1.654964e+06  -2.182006e+06
   1.269229e+05  -2.913513e+06
   2.779055e+06  -1.442148e+06
   4.201436e+06   1.396282e+06
   2.826889e+06   3.692535e+06
  -2.337180e+05   3.895049e+06
  -2.183835e+06   2.388076e+06
  -2.046331e+06   9.985094e+05
  -1.716840e+06   6.675535e+05
  -2.856466e+06   4.503714e+05
  -4.219378e+06  -8.178887e+05
  -3.346393e+06  -2.782491e+06
  -2.654446e+04  -4.063577e+06
   3.291899e+06  -3.753071e+06
   4.226513e+06  -1.920406e+06
   2.600049e+06   5.800724e+05
   1.165270e+05   2.254211e+06
  -1.218624e+06   1.846340e+06
  -5.496527e+05  -8.215349e+04
   1.139385e+06  -1.249699e+06
   1.871210e+06  -3.275356e+05
   8.311072e+05   1.204271e+06
  -5.691851e+05   1.094590e+06
  -4.653696e+05  -3.765125e+05
   9.712791e+05  -7.333863e+05
   1.765523e+06   1.121218e+06
   6.963399e+05   3.296974e+06
  -1.416503e+06   3.378349e+06
  -3.015495e+06   1.225474e+06
  -3.317947e+06  -1.368541e+06
  -2.316371e+06  -2.801592e+06
  -4.264861e+05  -2.659047e+06
   1.296467e+06  -1.428253e+06
   1.592184e+06  -1.648597e+05
   4.886133e+05   5.950693e+04
  -3.355072e+05  -7.526418e+05
   4.298155e+05  -1.291764e+06
   1.865409e+06  -5.113315e+05
   1.965979e+06   9.010762e+05
   3.586377e+05   1.381417e+06
  -1.163509e+06   5.429228e+05
  -8.963284e+05  -4.665240e+05
   8.281113e+05  -5.358634e+05
   2.186709e+06   3.136198e+05
   1.767932e+06   1.383463e+06
  -2.564918e+05   1.994258e+06
  -2.340415e+06   1.618203e+06
  -2.768703e+06   2.071532e+05
  -1.166920e+06  -1.272789e+06
   9.446920e+05  -1.433995e+06
   1.520470e+06  -1.329785e+05
   1.485564e+05   1.061417e+06
  -1.519747e+06   6.804724e+05
  -1.684301e+06  -8.078233e+05
  -3.184206e+05  -1.641525e+06
   1.080812e+06  -9.657083e+05
   1.241963e+06   3.057528e+05
   2.476579e+05   7.642350e+05
  -7.716272e+05   3.269510e+04
  -6.901838e+05  -1.063743e+06
   6.235832e+05  -1.392522e+06
   2.015510e+06  -4.693335e+05
   1.987519e+06   1.109333e+06
   3.204668e+05   2.068173e+06
  -1.467057e+06   1.589490e+06
  -1.715559e+06   1.714531e+05
  -4.866606e+05  -8.679481e+05
   6.679219e+05  -7.860839e+05
   6.476059e+05  -6.075760e+04
  -1.090006e+05   3.800627e+05
  -5.121484e+05   2.267479e+05
  -1.685982e+05  -6.826097e+04
   4.117507e+05   5.313364e+04
   5.033333e+05   6.479343e+05
  -2.180028e+05   1.164235e+06
  -1.391062e+06   8.545459e+05
  -2.056822e+06  -4.681243e+05
  -1.398558e+06  -1.973941e+06
   2.842016e+05  -2.409397e+06
   1.646914e+06  -1.382710e+06
   1.697336e+06   1.519050e+05
   8.669480e+05   9.311383e+05
   3.188126e+05   7.078068e+05
   4.481500e+05   2.698660e+05
   5.799344e+05   3.252343e+05
   5.864331e+04   7.440732e+05
  -8.880769e+05   8.751274e+05
  -1.454770e+06   2.982648e+05
  -1.048289e+06  -7.522555e+05
   2.716973e+05  -1.469568e+06
   1.744745e+06  -1.036616e+06
   2.233069e+06   5.390287e+05
   1.081853e+06   2.113847e+06
  -1.049009e+06   2.317629e+06
  -2.537427e+06   9.668864e+05
  -2.327297e+06  -6.941942e+05
  -9.497009e+05  -1.350324e+06
   2.055047e+05  -9.622776e+05
   4.181345e+05  -5.303580e+05
   1.406588e+05  -7.525673e+05
   1.652128e+05  -1.277380e+06
   7.009590e+05  -1.243287e+06
   1.285229e+06  -2.715041e+05
   1.295429e+06   1.117236e+06
   4.975605e+05   1.904023e+06
  -6.632542e+05   1.413864e+06
  -1.280721e+06  -3.311822e+04
  -7.759239e+05  -1.287277e+06
   4.100210e+05  -1.372061e+06
   1.141434e+06  -3.877870e+05
   7.764576e+05   6.833917e+05
  -1.340964e+05   1.042021e+06
  -5.252084e+05   7.599018e+05
  -8.110887e+04   4.209376e+05
   4.182924e+05   3.551104e+05
   4.560722e+04   3.875785e+05
  -1.138890e+06   1.774900e+05
  -2.028853e+06  -3.877035e+05
  -1.577574e+06  -1.068225e+06
   6.422960e+04  -1.408722e+06
   1.594883e+06  -1.078718e+06
   1.820226e+06  -2.358617e+05
   8.163651e+05   4.898645e+05
  -2.695929e+05   5.457030e+05
  -5.017788e+05   2.696591e+04
  -7.852339e+03  -4.089426e+05
   4.574070e+05  -2.437415e+05
   4.682991e+05   3.553910e+05
   2.177296e+05   7.372005e+05
   6.770150e+04   4.856890e+05
   1.385652e+05  -1.022213e+05
   2.951002e+05  -3.001259e+05
   2.698277e+05   2.376289e+05
  -1.755400e+05   9.869341e+05
  -9.263310e+05   1.033278e+06
  -1.346955e+06   1.203634e+05
  -8.060504e+05  -9.411460e+05
   4.496913e+05  -1.109914e+06
   1.257623e+06  -2.844408e+05
   7.153166e+05   5.967027e+05
  -7.132916e+05   6.287246e+05
  -1.584486e+06  -1.299086e+05
  -9.958396e+05  -8.789619e+05
   4.931321e+05  -9.794484e+05
   1.504734e+06  -4.555229e+05
   1.232487e+06   2.109028e+05
   1.273221e+05   5.170145e+05
  -6.511731e+05   2.557991e+05
  -3.695091e+05  -3.014765e+05
   6.054798e+05  -5.021816e+05
   1.181319e+06   1.204091e+05
   6.320672e+05   1.205223e+06
  -6.452158e+05   1.687244e+06
  -1.513509e+06   8.433826e+05
  -1.237565e+06  -7.927816e+05
  -1.565563e+05  -1.799071e+06
   7.712780e+05  -1.279370e+06
   9.185969e+05   1.947826e+05
   4.042168e+05   1.198692e+06
  -2.366368e+05   9.616169e+05
  -5.603400e+05   7.004332e+04
  -4.606235e+05  -3.873094e+05
  -1.651334e+05  -1.392284e+05
  -4.821455e+04   9.400571e+04
  -2.636700e+05  -3.049775e+05
  -4.815247e+05  -9.799546e+05
  -1.685404e+05  -1.079417e+06
   7.187342e+05  -3.720738e+05
   1.463932e+06   5.018957e+05
   1.262434e+06   8.651730e+05
   1.665988e+05   7.022297e+05
  -8.670082e+05   4.016948e+05
  -9.883825e+05   1.597842e+05
  -3.555377e+05  -6.427852e+04
   1.521065e+05  -2.236180e+05
   3.660774e+04  -2.007948e+05
  -2.667093e+05  -9.696291e+04
  -4.699821e+04  -1.364498e+05
   6.708322e+05  -2.254052e+05
   1.048807e+06   3.691946e+04
   4.156711e+05   7.104614e+05
  -8.729074e+05   1.164477e+06
  -1.723071e+06   7.149201e+05
  -1.406772e+06  -4.701997e+05
  -2.446950e+05  -1.416289e+06
   8.016044e+05  -1.358901e+06
   1.066834e+06  -5.157904e+05
   6.536215e+05   2.459390e+05
   1.263429e+05   3.640964e+05
  -7.353327e+04   7.036691e+04
   7.882327e+04  -1.196820e+04
   2.899340e+05   3.733492e+05
   2.282579e+05   8.127794e+05
  -1.948923e+05   6.777487e+05
  -6.823639e+05  -1.325344e+05
  -7.255849e+05  -9.691512e+05
  -9.823575e+04  -1.041640e+06
   7.617750e+05  -2.400256e+05
   1.028134e+06   7.405572e+05
   3.296090e+05   1.102210e+06
  -7.312371e+05   6.685341e+05
  -1.122811e+06  -9.878001e+04
  -5.190195e+05  -6.304391e+05
   3.064033e+05  -6.772630e+05
   3.924262e+05  -3.574427e+05
  -2.451936e+05  -7.782477e+03
  -6.511879e+05   2.808078e+04
  -1.413736e+05  -3.141561e+05
   8.402942e+05  -6.625291e+05
   1.273324e+06  -5.077712e+05
   7.613492e+05   2.016888e+05
  -1.153941e+05   8.714358e+05
  -5.768433e+05   8.447182e+05
  -4.383092e+05   1.528831e+05
  -4.918768e+04  -4.814563e+05
   2.497334e+05  -4.354997e+05
   3.538271e+05   1.489871e+05
   2.444621e+05   5.839270e+05
  -6.340074e+04   4.330635e+05
  -3.930062e+05  -4.998018e+04
  -4.702032e+05  -2.954904e+05
  -2.386556e+05  -1.047071e+05
   3.099286e+04   1.573889e+05
   7.544941e+04   5.389717e+04
  -1.572517e+04  -3.566249e+05
   5.369729e+04  -5.648045e+05
   3.276848e+05  -2.262636e+05
   4.650376e+05   3.870883e+05
   1.564687e+05   6.585674e+05
  -4.139438e+05   3.130322e+05
  -6.678700e+05  -2.908366e+05
  -2.490041e+05  -5.790942e+05
   5.178921e+05  -3.568879e+05
   8.891140e+05   9.114714e+04
   4.755190e+05   3.882303e+05
  -3.047177e+05   4.009584e+05
  -6.503321e+05   2.223662e+05
  -2.574624e+05   1.182265e+04
   3.440137e+05  -7.265735e+04
   4.092298e+05   6.130037e+04
  -1.644246e+05   2.881113e+05
  -7.396217e+05   2.658346e+05
