
 $NMID
 id='ANONYMOUS ', fmtdat='(2E16.6)'
 volume=1.0
 tramp=1.0
 $END
  -3.668401e+07   1.869023e+06
  -2.434988e+07  -1.890027e+07
   1.257510e+06  -2.424636e+07
   1.637675e+07  -1.331417e+07
   1.216472e+07   9.934703e+05
  -3.675489e+05   6.415499e+06
  -6.906956e+06   1.578365e+06
  -4.017541e+06  -5.987824e+06
   2.525990e+06  -8.264730e+06
   6.478028e+06  -3.235225e+06
   5.486028e+06   4.146768e+06
   9.701026e+05   6.633821e+06
  -2.996004e+06   1.855009e+06
  -2.516109e+06  -4.859791e+06
   2.033093e+06  -6.020709e+06
   5.678873e+06  -1.949201e+05
   4.098915e+06   6.774615e+06
  -1.646115e+06   8.555533e+06
  -6.611998e+06   4.462385e+06
  -7.195796e+06  -1.368297e+06
  -3.944810e+06  -4.828466e+06
  -2.249318e+05  -4.854865e+06
   8.729685e+05  -3.148895e+06
  -8.269651e+05  -2.253582e+06
  -2.161432e+06  -3.241504e+06
   1.967885e+05  -4.505282e+06
   5.328259e+06  -3.453284e+06
   8.146906e+06   1.475569e+05
   5.206946e+06   3.447263e+06
  -7.589612e+05   3.709357e+06
  -3.870237e+06   1.280761e+06
  -1.891364e+06  -1.254514e+06
   1.954499e+06  -1.846697e+06
   3.561666e+06  -2.054521e+05
   2.162487e+06   2.483051e+06
  -2.634629e+05   3.999484e+06
  -1.741478e+06   2.524349e+06
  -1.564575e+06  -9.013725e+05
  -2.749415e+05  -2.488636e+06
   5.837139e+05  -1.590758e+05
  -2.912784e+05   3.028935e+06
  -2.085713e+06   2.367342e+06
  -2.200963e+06  -1.889640e+06
   5.082349e+05  -4.275843e+06
   3.610104e+06  -1.259826e+06
   3.469623e+06   3.961642e+06
  -4.925124e+05   5.524722e+06
  -4.903952e+06   1.957908e+06
  -5.813906e+06  -2.850305e+06
  -2.401402e+06  -4.672899e+06
   2.461930e+06  -2.852107e+06
   4.772775e+06   3.633322e+05
   2.820514e+06   2.386495e+06
  -1.237639e+06   1.982656e+06
  -3.372039e+06  -9.253959e+04
  -1.819408e+06  -1.639229e+06
   1.059212e+06  -1.107221e+06
   1.708758e+06   6.062892e+05
  -2.897978e+05   1.219284e+06
  -1.938546e+06  -6.280432e+04
  -7.878213e+05  -1.675505e+06
   2.102093e+06  -1.761874e+06
   3.631524e+06  -7.822324e+04
   2.120260e+06   2.314337e+06
  -1.353283e+06   4.073572e+06
  -4.346229e+06   3.907396e+06
  -5.038272e+06   1.214282e+06
  -3.317326e+06  -2.687816e+06
  -7.053111e+05  -4.978090e+06
   9.009099e+05  -4.151928e+06
   9.425583e+05  -1.842938e+06
   5.913600e+05  -7.350881e+05
   1.148626e+06  -1.157629e+06
   2.363732e+06  -1.080049e+06
   2.798396e+06   6.523017e+05
   1.611840e+06   2.542009e+06
  -5.179013e+05   2.403366e+06
  -2.079207e+06   1.069241e+05
  -1.895089e+06  -2.335074e+06
   9.847956e+04  -2.900225e+06
   2.598940e+06  -1.246646e+06
   3.638884e+06   1.313569e+06
   2.320096e+06   3.005364e+06
  -8.498803e+04   2.967799e+06
  -1.453769e+06   1.856052e+06
  -1.330413e+06   1.021315e+06
  -1.314632e+06   9.677799e+05
  -2.611050e+06   8.599782e+05
  -4.060702e+06  -3.003252e+05
  -3.444104e+06  -2.330772e+06
  -3.682714e+05  -3.934393e+06
   2.994632e+06  -3.874683e+06
   4.106957e+06  -1.974038e+06
   2.497378e+06   6.682951e+05
  -4.596114e+04   2.272142e+06
  -1.293731e+06   1.734430e+06
  -5.061172e+05  -1.492188e+05
   1.111685e+06  -1.243487e+06
   1.723372e+06  -4.135749e+05
   7.490625e+05   1.059207e+06
  -5.797791e+05   1.113895e+06
  -6.685891e+05  -3.066203e+05
   6.110248e+05  -1.086600e+06
   1.816086e+06   2.914917e+05
   1.517837e+06   2.714173e+06
  -3.477207e+05   3.706751e+06
  -2.580965e+06   2.181755e+06
  -3.709700e+06  -6.361968e+05
  -2.941518e+06  -2.668192e+06
  -7.517698e+05  -2.808771e+06
   1.256136e+06  -1.523281e+06
   1.609813e+06  -2.072359e+05
   4.841915e+05   2.413308e+04
  -3.931696e+05  -7.064517e+05
   2.500422e+05  -1.222670e+06
   1.643440e+06  -6.345892e+05
   1.927705e+06   6.008042e+05
   5.274682e+05   1.225116e+06
  -1.064417e+06   6.655489e+05
  -1.029029e+06  -3.767950e+05
   6.928467e+05  -7.800890e+05
   2.334229e+06  -8.899462e+04
   2.130500e+06   1.223802e+06
   4.330635e+04   2.175983e+06
  -2.209302e+06   1.921597e+06
  -2.737010e+06   4.601084e+05
  -1.227705e+06  -1.092944e+06
   7.651917e+05  -1.368577e+06
   1.350751e+06  -2.197249e+05
   1.571697e+05   9.581025e+05
  -1.411207e+06   7.569524e+05
  -1.727018e+06  -6.013742e+05
  -5.561987e+05  -1.575237e+06
   8.917393e+05  -1.154107e+06
   1.283617e+06   5.908663e+04
   4.127132e+05   6.868516e+05
  -6.847691e+05   1.187137e+05
  -7.286133e+05  -9.684600e+05
   5.360544e+05  -1.389583e+06
   1.950470e+06  -5.681698e+05
   2.007744e+06   9.597025e+05
   4.688091e+05   1.983124e+06
  -1.272049e+06   1.668674e+06
  -1.651258e+06   3.460090e+05
  -5.938062e+05  -7.907067e+05
   5.701210e+05  -8.567090e+05
   7.018197e+05  -9.965022e+04
  -2.185621e+04   5.093047e+05
  -5.896006e+05   3.898758e+05
  -3.733719e+05  -9.341730e+04
   3.084960e+05  -1.586746e+05
   6.100026e+05   4.556777e+05
  -2.018945e+04   1.138140e+06
  -1.262147e+06   9.769593e+05
  -2.055945e+06  -2.811796e+05
  -1.518068e+06  -1.824065e+06
   1.003696e+05  -2.419818e+06
   1.536910e+06  -1.579613e+06
   1.780600e+06  -4.894667e+04
   1.063875e+06   9.432206e+05
   4.052198e+05   8.884653e+05
   3.457500e+05   3.600373e+05
   4.634120e+05   2.209208e+05
   9.903839e+04   6.380248e+05
  -7.627892e+05   9.563325e+05
  -1.438342e+06   4.801386e+05
  -1.191161e+06  -6.867925e+05
   9.112345e+04  -1.585258e+06
   1.655034e+06  -1.239662e+06
   2.291626e+06   3.374751e+05
   1.297989e+06   1.981734e+06
  -7.519795e+05   2.362350e+06
  -2.352282e+06   1.226345e+06
  -2.405861e+06  -3.948563e+05
  -1.198833e+06  -1.259935e+06
   4.796375e+04  -1.103303e+06
   4.717126e+05  -6.765518e+05
   2.555374e+05  -7.313632e+05
   1.492276e+05  -1.161592e+06
   5.654950e+05  -1.198666e+06
   1.191192e+06  -3.392520e+05
   1.334845e+06   1.016363e+06
   6.178524e+05   1.848987e+06
  -5.659743e+05   1.444667e+06
  -1.279538e+06   8.517730e+04
  -8.957036e+05  -1.161777e+06
   2.169333e+05  -1.379525e+06
   1.003503e+06  -5.726432e+05
   8.117592e+05   4.612699e+05
   5.611240e+04   9.562271e+05
  -3.270919e+05   8.135521e+05
   4.004133e+03   4.784156e+05
   4.123013e+05   3.478147e+05
   5.682211e+04   3.902779e+05
  -1.063499e+06   2.800600e+05
  -1.965587e+06  -1.995681e+05
  -1.637482e+06  -8.892952e+05
  -1.278042e+05  -1.335372e+06
   1.393997e+06  -1.159378e+06
   1.745925e+06  -4.309713e+05
   8.780429e+05   3.124248e+05
  -1.786924e+05   5.080641e+05
  -4.648425e+05   1.110536e+05
  -6.283629e+03  -3.338041e+05
   4.686852e+05  -2.513495e+05
   4.737484e+05   3.186800e+05
   1.835581e+05   7.318917e+05
   2.330732e+04   4.768165e+05
   1.409115e+05  -1.679927e+05
   3.363910e+05  -3.870608e+05
   3.007328e+05   2.050896e+05
  -1.430895e+05   1.013772e+06
  -8.343531e+05   1.072620e+06
  -1.221185e+06   1.658668e+05
  -7.659463e+05  -8.701244e+05
   3.609519e+05  -1.050333e+06
   1.161439e+06  -2.926722e+05
   7.346387e+05   5.649604e+05
  -6.384832e+05   6.909326e+05
  -1.615726e+06   3.243449e+04
  -1.162476e+06  -7.793926e+05
   3.367930e+05  -1.078975e+06
   1.484593e+06  -6.791228e+05
   1.315671e+06   5.956558e+04
   2.068476e+05   5.251167e+05
  -6.185116e+05   3.421115e+05
  -3.619789e+05  -2.441760e+05
   6.017942e+05  -4.972406e+05
   1.167199e+06   9.970322e+04
   6.306736e+05   1.179203e+06
  -6.134184e+05   1.678716e+06
  -1.484164e+06   8.784260e+05
  -1.275587e+06  -7.359214e+05
  -2.639093e+05  -1.796729e+06
   6.842407e+05  -1.370510e+06
   9.466235e+05   7.833838e+04
   5.417985e+05   1.161541e+06
  -1.001488e+05   1.019190e+06
  -5.337332e+05   1.405817e+05
  -5.374449e+05  -3.693367e+05
  -2.311769e+05  -1.495200e+05
  -2.050799e+04   1.162768e+05
  -2.027050e+05  -2.410592e+05
  -5.162710e+05  -9.246045e+05
  -3.111083e+05  -1.081628e+06
   6.111561e+05  -4.375846e+05
   1.504792e+06   4.038296e+05
   1.383553e+06   7.803954e+05
   2.227388e+05   6.746232e+05
  -8.945570e+05   4.479999e+05
  -9.973036e+05   2.466389e+05
  -3.113650e+05  -2.336475e+03
   1.593756e+05  -2.250626e+05
  -4.339945e+04  -2.407502e+05
  -3.429333e+05  -1.231557e+05
  -2.681076e+04  -1.356256e+05
   7.300707e+05  -2.334743e+05
   1.034311e+06  -5.961241e+03
   3.494242e+05   6.620621e+05
  -8.641928e+05   1.161357e+06
  -1.616007e+06   7.625608e+05
  -1.332082e+06  -4.193819e+05
  -2.974472e+05  -1.403197e+06
   6.942482e+05  -1.374035e+06
   1.024397e+06  -5.258607e+05
   6.719345e+05   2.469586e+05
   1.157053e+05   3.510744e+05
  -1.292419e+05   2.758738e+04
   5.695788e+04  -6.725178e+04
   3.453170e+05   3.335776e+05
   3.039645e+05   7.951325e+05
  -1.680202e+05   6.680556e+05
  -6.966010e+05  -1.418622e+05
  -7.300953e+05  -9.660394e+05
  -7.819731e+04  -1.015976e+06
   7.813102e+05  -2.105447e+05
   1.035247e+06   7.394455e+05
   3.430040e+05   1.068859e+06
  -6.965566e+05   6.519219e+05
  -1.084056e+06  -5.339273e+04
  -5.135494e+05  -5.467666e+05
   2.575446e+05  -6.264300e+05
   3.116878e+05  -3.652713e+05
  -3.046243e+05  -2.210150e+04
  -6.604456e+05   5.303523e+04
  -1.367393e+05  -2.902984e+05
   7.972852e+05  -7.132101e+05
   1.184170e+06  -6.257065e+05
   7.069322e+05   1.044894e+05
  -7.030409e+04   8.456555e+05
  -4.689027e+05   8.475871e+05
  -3.609753e+05   1.340989e+05
  -4.034222e+04  -4.988901e+05
   2.337674e+05  -4.108326e+05
   3.593640e+05   1.847466e+05
   2.651854e+05   5.676250e+05
  -5.163832e+04   3.805720e+05
  -3.886649e+05  -5.306201e+04
  -4.649312e+05  -2.271127e+05
  -2.438381e+05  -5.554800e+04
   1.330368e+04   1.084684e+05
   8.217909e+04  -4.250561e+04
   4.607064e+04  -3.848203e+05
   1.311924e+05  -4.942944e+05
   3.427776e+05  -1.361691e+05
   4.023487e+05   4.225355e+05
   8.860866e+04   6.480082e+05
  -4.213480e+05   3.023452e+05
  -6.373131e+05  -2.890524e+05
  -2.467095e+05  -5.825523e+05
   4.772024e+05  -3.736628e+05
   8.510946e+05   6.764338e+04
   4.747200e+05   3.606450e+05
  -2.788827e+05   3.705833e+05
  -6.149014e+05   2.024737e+05
  -2.091914e+05   1.842682e+04
   3.977283e+05  -4.001128e+04
   4.300304e+05   1.052740e+05
  -2.019856e+05   3.295775e+05
  -8.042916e+05   2.944818e+05
