
 $NMID
 id='ANONYMOUS ', fmtdat='(2E16.6)'
 volume=1.0
 tramp=1.0
 $END
   5.890391e+07  -2.177642e+05
   3.560920e+07   3.685647e+07
  -7.924053e+06   4.021448e+07
  -2.919574e+07   1.508415e+07
  -1.733090e+07  -7.821676e+06
   3.652894e+06  -9.854668e+06
   1.036799e+07   1.582925e+06
   2.681847e+06   1.039163e+07
  -6.779243e+06   9.581506e+06
  -1.016886e+07   1.864232e+06
  -7.207172e+06  -6.454248e+06
  -7.932092e+05  -8.841144e+06
   4.075604e+06  -2.867667e+06
   2.568075e+06   5.501308e+06
  -4.070639e+06   6.623887e+06
  -8.226010e+06  -1.531014e+06
  -4.533921e+06  -1.068538e+07
   4.034820e+06  -1.228026e+07
   1.053810e+07  -6.165237e+06
   1.127755e+07   2.043250e+06
   7.049010e+06   7.726959e+06
   9.101029e+05   9.123602e+06
  -3.072008e+06   6.558216e+06
  -2.267281e+06   2.925684e+06
   7.989635e+05   2.075221e+06
   2.172158e+05   4.045073e+06
  -5.356708e+06   4.399727e+06
  -9.745342e+06   5.420500e+05
  -7.236724e+06  -4.160678e+06
  -4.335801e+05  -5.135939e+06
   3.588536e+06  -2.668469e+06
   2.434212e+06  -2.180835e+05
  -4.812844e+05   6.696128e+05
  -2.047715e+06   3.867284e+05
  -2.075382e+06  -1.295946e+06
  -7.639808e+05  -3.823729e+06
   1.755282e+06  -3.998728e+06
   3.393881e+06  -1.005423e+05
   1.944710e+06   3.687502e+06
  -6.884967e+05   2.176006e+06
  -3.456540e+05  -2.302131e+06
   2.542788e+06  -2.259142e+06
   2.511287e+06   3.384549e+06
  -2.655861e+06   6.463769e+06
  -7.423042e+06   1.109150e+06
  -5.426534e+06  -7.267020e+06
   2.026286e+06  -8.974825e+06
   7.744262e+06  -2.526667e+06
   7.102209e+06   4.690761e+06
   1.741278e+06   6.264962e+06
  -3.660617e+06   2.685332e+06
  -5.354912e+06  -1.748088e+06
  -2.374929e+06  -3.702585e+06
   2.589097e+06  -2.262878e+06
   4.709689e+06   1.027179e+06
   1.994615e+06   2.881639e+06
  -1.801058e+06   1.418910e+06
  -1.747044e+06  -1.110050e+06
   1.501801e+06  -9.271118e+05
   2.642357e+06   1.987082e+06
  -7.327473e+05   3.771944e+06
  -4.982611e+06   2.026851e+06
  -5.598023e+06  -1.517849e+06
  -2.389801e+06  -4.217893e+06
   1.861917e+06  -5.404290e+06
   5.089417e+06  -4.904078e+06
   6.310412e+06  -1.787543e+06
   4.713592e+06   3.188665e+06
   9.542994e+05   6.303827e+06
  -2.029152e+06   4.875694e+06
  -1.949206e+06   1.162385e+06
  -1.841413e+05  -4.297055e+05
   1.617550e+05   8.495337e+05
  -1.460179e+06   1.786842e+06
  -2.731818e+06   3.160729e+05
  -1.994524e+06  -1.836232e+06
  -4.631029e+04  -2.055901e+06
   1.466431e+06  -1.490468e+05
   1.582459e+06   2.079823e+06
  -3.193952e+04   2.922393e+06
  -2.776874e+06   1.671376e+06
  -4.542555e+06  -1.181872e+06
  -3.332506e+06  -3.839426e+06
   4.063990e+03  -4.390160e+06
   2.368074e+06  -2.859245e+06
   2.370724e+06  -1.183918e+06
   1.943222e+06  -6.466449e+05
   3.027840e+06  -3.902017e+05
   4.409073e+06   8.935347e+05
   3.469519e+06   2.896577e+06
   2.635492e+04   4.176916e+06
  -3.315401e+06   3.856001e+06
  -4.213810e+06   2.066044e+06
  -2.651753e+06  -4.202348e+05
  -2.791410e+05  -2.207389e+06
   1.090079e+06  -1.929624e+06
   5.617809e+05   2.173220e+04
  -1.104395e+06   1.296959e+06
  -1.945337e+06   3.762550e+05
  -9.394946e+05  -1.231207e+06
   5.271651e+05  -1.100336e+06
   3.875430e+05   4.308861e+05
  -1.187329e+06   6.509165e+05
  -1.921862e+06  -1.484079e+06
  -4.997576e+05  -3.701128e+06
   1.888543e+06  -3.438978e+06
   3.348024e+06  -9.223688e+05
   3.285860e+06   1.681291e+06
   2.118362e+06   2.882966e+06
   3.330071e+05   2.615697e+06
  -1.276129e+06   1.431096e+06
  -1.579512e+06   1.986218e+05
  -4.973798e+05  -5.853241e+04
   3.413191e+05   7.723929e+05
  -4.610148e+05   1.371435e+06
  -1.977017e+06   5.545626e+05
  -2.066007e+06  -9.736290e+05
  -3.487285e+05  -1.474877e+06
   1.214162e+06  -5.395631e+05
   8.607468e+05   5.021053e+05
  -9.171797e+05   4.662932e+05
  -2.188197e+06  -4.606779e+05
  -1.658724e+06  -1.457924e+06
   3.654015e+05  -1.958403e+06
   2.393393e+06  -1.569465e+06
   2.813399e+06  -1.858574e+05
   1.210500e+06   1.328625e+06
  -9.699415e+05   1.529406e+06
  -1.613184e+06   1.732563e+05
  -2.003693e+05  -1.108104e+06
   1.559916e+06  -7.149335e+05
   1.724053e+06   8.564019e+05
   2.681425e+05   1.700827e+06
  -1.172170e+06   9.397304e+05
  -1.272102e+06  -3.929355e+05
  -2.040274e+05  -8.225780e+05
   8.293034e+05  -3.335157e+04
   7.266709e+05   1.091028e+06
  -6.134476e+05   1.430245e+06
  -2.043361e+06   5.053161e+05
  -2.039774e+06  -1.111825e+06
  -3.357986e+05  -2.119951e+06
   1.517322e+06  -1.633019e+06
   1.767332e+06  -1.560845e+05
   4.753586e+05   9.063651e+05
  -7.003016e+05   7.898267e+05
  -6.235625e+05   5.437884e+04
   1.614476e+05  -3.340083e+05
   4.920684e+05  -1.498134e+05
   6.318900e+04   8.463264e+04
  -5.013693e+05  -1.264223e+05
  -5.056586e+05  -7.426945e+05
   2.691052e+05  -1.216677e+06
   1.441655e+06  -8.648576e+05
   2.101796e+06   4.844473e+05
   1.433985e+06   2.013110e+06
  -2.889387e+05   2.439720e+06
  -1.681144e+06   1.358695e+06
  -1.690387e+06  -2.052393e+05
  -7.958984e+05  -9.240634e+05
  -2.680275e+05  -6.163060e+05
  -4.931801e+05  -1.878423e+05
  -6.683554e+05  -3.346216e+05
  -8.509118e+04  -8.000856e+05
   9.296222e+05  -8.863682e+05
   1.478728e+06  -2.631732e+05
   1.012254e+06   7.678445e+05
  -3.271812e+05   1.447826e+06
  -1.781444e+06   1.011906e+06
  -2.252350e+06  -5.662454e+05
  -1.071208e+06  -2.172691e+06
   1.118511e+06  -2.380016e+06
   2.634097e+06  -9.593281e+05
   2.359056e+06   7.718927e+05
   8.860470e+05   1.401070e+06
  -2.742336e+05   9.230374e+05
  -3.954758e+05   4.603974e+05
  -4.978142e+04   7.460194e+05
  -1.047902e+05   1.341388e+06
  -7.136638e+05   1.312254e+06
  -1.331153e+06   3.007363e+05
  -1.331025e+06  -1.123914e+06
  -5.155685e+05  -1.929156e+06
   6.636779e+05  -1.435951e+06
   1.299936e+06   4.538293e+04
   7.830198e+05   1.339752e+06
  -4.573000e+05   1.413729e+06
  -1.226736e+06   3.595812e+05
  -8.212529e+05  -7.716836e+05
   1.763210e+05  -1.121445e+06
   6.057672e+05  -7.853183e+05
   1.189788e+05  -4.085068e+05
  -4.344777e+05  -3.405611e+05
  -5.398117e+04  -3.848974e+05
   1.185002e+06  -1.809328e+05
   2.102633e+06   3.946404e+05
   1.614110e+06   1.107628e+06
  -9.599870e+04   1.478750e+06
  -1.666381e+06   1.129954e+06
  -1.878512e+06   2.167627e+05
  -8.324607e+05  -5.595173e+05
   2.878041e+05  -5.894683e+05
   5.329261e+05  -9.482872e+03
   3.752806e+04   4.448579e+05
  -4.419811e+05   2.537403e+05
  -4.834921e+05  -3.562366e+05
  -2.628580e+05  -7.227578e+05
  -1.097832e+05  -4.779443e+05
  -1.446283e+05   7.312658e+04
  -2.773433e+05   2.588219e+05
  -2.683409e+05  -2.482420e+05
   1.586654e+05  -9.821959e+05
   9.381252e+05  -1.061523e+06
   1.410339e+06  -1.704647e+05
   8.720638e+05   9.365812e+05
  -4.409450e+05   1.169465e+06
  -1.293051e+06   3.437978e+05
  -7.309381e+05  -5.874467e+05
   7.365981e+05  -6.348612e+05
   1.596994e+06   1.586355e+05
   9.581806e+05   9.193206e+05
  -5.523150e+05   9.717790e+05
  -1.532983e+06   3.998638e+05
  -1.221059e+06  -2.561771e+05
  -1.042070e+05  -5.207244e+05
   6.718114e+05  -2.411737e+05
   3.939014e+05   3.146566e+05
  -5.856649e+05   5.265158e+05
  -1.192893e+06  -8.377509e+04
  -6.804348e+05  -1.190503e+06
   5.945958e+05  -1.715558e+06
   1.497930e+06  -8.843277e+05
   1.253601e+06   7.796202e+05
   1.688721e+05   1.807402e+06
  -7.815839e+05   1.272946e+06
  -9.294818e+05  -2.241444e+05
  -3.843252e+05  -1.223292e+06
   2.798354e+05  -9.627201e+05
   5.822406e+05  -5.981818e+04
   4.377462e+05   3.918431e+05
   1.343180e+05   1.394292e+05
   6.278991e+04  -8.908945e+04
   3.169278e+05   3.156098e+05
   5.087801e+05   9.931537e+05
   1.350550e+05   1.094195e+06
  -7.691429e+05   3.837540e+05
  -1.474457e+06  -5.029025e+05
  -1.243904e+06  -8.801469e+05
  -1.687239e+05  -7.177047e+05
   8.431791e+05  -4.040170e+05
   9.901157e+05  -1.502847e+05
   3.904463e+05   7.425889e+04
  -1.398538e+05   2.263615e+05
  -7.707237e+04   1.954828e+05
   2.259063e+05   8.706122e+04
   6.258368e+04   1.310197e+05
  -6.312549e+05   2.349343e+05
  -1.061781e+06  -1.675001e+04
  -4.834031e+05  -7.050556e+05
   8.301998e+05  -1.196156e+06
   1.753503e+06  -7.719691e+05
   1.466643e+06   4.282061e+05
   2.722978e+05   1.418315e+06
  -8.053169e+05   1.395936e+06
  -1.067206e+06   5.566305e+05
  -6.511304e+05  -2.233381e+05
  -1.474599e+05  -3.628635e+05
   3.443745e+04  -8.463211e+04
  -9.928833e+04  -9.316637e+03
  -2.819473e+05  -3.915431e+05
  -2.225212e+05  -8.242869e+05
   1.808940e+05  -6.926263e+05
   6.761151e+05   1.044086e+05
   7.575527e+05   9.411358e+05
   1.516344e+05   1.043762e+06
  -7.348017e+05   2.790663e+05
  -1.048688e+06  -7.013786e+05
  -3.688771e+05  -1.105370e+06
   7.182422e+05  -7.082860e+05
   1.150553e+06   7.245271e+04
   5.589047e+05   6.504458e+05
  -2.955607e+05   7.212613e+05
  -4.203444e+05   3.817080e+05
   2.115515e+05   2.134014e+03
   6.475871e+05  -3.799047e+04
   1.593399e+05   3.190149e+05
  -8.437067e+05   6.735545e+05
  -1.316781e+06   5.096431e+05
  -8.116120e+05  -2.121780e+05
   1.007475e+05  -8.939864e+05
   5.987652e+05  -8.814550e+05
   4.669955e+05  -1.924259e+05
   6.834538e+04   4.673421e+05
  -2.361473e+05   4.587610e+05
  -3.487494e+05  -1.179654e+05
  -2.578302e+05  -5.847677e+05
   4.339978e+04  -4.627925e+05
   3.951256e+05   3.276913e+04
   4.947145e+05   3.107970e+05
   2.480048e+05   1.214240e+05
  -5.472805e+04  -1.774195e+05
  -9.134233e+04  -1.012856e+05
   5.536518e+04   3.291199e+05
   1.997408e+04   5.866019e+05
  -2.939135e+05   2.808666e+05
  -5.033197e+05  -3.388060e+05
  -2.170650e+05  -6.433395e+05
   3.949998e+05  -3.314910e+05
   6.922580e+05   2.601156e+05
   2.703474e+05   5.655053e+05
  -5.264743e+05   3.738670e+05
  -9.130284e+05  -6.260761e+04
  -4.937750e+05  -3.829977e+05
   2.963097e+05  -4.311143e+05
   6.541504e+05  -2.624324e+05
   2.818638e+05  -2.679577e+04
  -3.067931e+05   9.207287e+04
  -3.914296e+05  -2.722493e+04
   1.415312e+05  -2.652475e+05
   6.993127e+05  -2.660910e+05
