
 $NMID
 id='ANONYMOUS ', fmtdat='(2E16.6)'
 volume=1.0
 tramp=1.0
 $END
   3.557526e+07   9.173240e+05
   2.126928e+07   2.125468e+07
  -4.241511e+06   2.347425e+07
  -1.703101e+07   1.012829e+07
  -1.075688e+07  -3.205888e+06
   1.527316e+06  -5.894815e+06
   6.336415e+06  -6.457834e+04
   2.486719e+06   6.012076e+06
  -3.420935e+06   6.699429e+06
  -6.192664e+06   1.885949e+06
  -4.675620e+06  -4.166503e+06
  -4.876141e+05  -5.946736e+06
   2.801250e+06  -1.655281e+06
   1.922630e+06   4.127757e+06
  -2.328523e+06   4.847160e+06
  -5.163770e+06  -5.691463e+05
  -3.064913e+06  -6.617580e+06
   2.348801e+06  -7.730813e+06
   6.575390e+06  -3.709308e+06
   6.850128e+06   1.653421e+06
   3.774238e+06   4.940262e+06
   2.601352e+04   5.132485e+06
  -1.576473e+06   3.322013e+06
  -2.697024e+05   1.810146e+06
   1.387219e+06   2.225285e+06
  -7.954536e+04   3.517602e+06
  -4.402822e+06   2.958663e+06
  -7.034827e+06  -1.507467e+05
  -4.651048e+06  -3.177891e+06
   4.282650e+05  -3.443580e+06
   3.143278e+06  -1.374219e+06
   1.747304e+06   6.640573e+05
  -1.114719e+06   1.223535e+06
  -2.456944e+06   2.597145e+05
  -1.751564e+06  -1.691441e+06
  -2.435380e+04  -3.225202e+06
   1.534430e+06  -2.409376e+06
   1.814137e+06   5.875311e+05
   5.697036e+05   2.444082e+06
  -6.298069e+05   6.723187e+05
   5.546568e+04  -2.269374e+06
   1.830581e+06  -1.812741e+06
   1.730755e+06   1.986565e+06
  -1.208219e+06   3.900017e+06
  -3.969515e+06   6.739584e+05
  -3.063062e+06  -4.278788e+06
   1.122908e+06  -5.294192e+06
   4.795511e+06  -1.478557e+06
   4.871862e+06   2.969700e+06
   1.576493e+06   4.190962e+06
  -2.343665e+06   2.132725e+06
  -3.903945e+06  -7.847521e+05
  -2.022085e+06  -2.296816e+06
   1.419571e+06  -1.565724e+06
   3.020945e+06   4.708454e+05
   1.405463e+06   1.701635e+06
  -1.095250e+06   9.131164e+05
  -1.342417e+06  -6.557937e+05
   5.702343e+05  -8.172783e+05
   1.629913e+06   6.593816e+05
   5.143775e+04   1.844378e+06
  -2.532617e+06   1.274991e+06
  -3.363321e+06  -5.594410e+05
  -1.622974e+06  -2.436587e+06
   1.372775e+06  -3.590175e+06
   3.819013e+06  -3.305205e+06
   4.455989e+06  -9.798607e+05
   2.981753e+06   2.436786e+06
   4.773686e+05   4.394543e+06
  -1.145082e+06   3.451256e+06
  -1.019909e+06   1.212556e+06
  -2.969275e+05   2.841566e+05
  -5.556134e+05   9.125788e+05
  -1.710371e+06   1.088520e+06
  -2.283922e+06  -2.921346e+05
  -1.409526e+06  -1.896174e+06
   2.737726e+05  -1.864176e+06
   1.506239e+06  -1.055795e+05
   1.418264e+06   1.814870e+06
  -1.055495e+05   2.340280e+06
  -2.184211e+06   1.069819e+06
  -3.164286e+06  -1.130755e+06
  -2.047606e+06  -2.745400e+06
   1.804655e+05  -2.783251e+06
   1.512899e+06  -1.689877e+06
   1.382515e+06  -7.798373e+05
   1.224267e+06  -6.294358e+05
   2.196798e+06  -4.963616e+05
   3.318087e+06   4.871977e+05
   2.704812e+06   2.082102e+06
   1.280165e+05   3.213214e+06
  -2.551327e+06   3.044930e+06
  -3.365356e+06   1.544894e+06
  -2.056159e+06  -5.154732e+05
  -2.371486e+04  -1.828697e+06
   1.021942e+06  -1.441650e+06
   4.283994e+05   9.652238e+04
  -9.138968e+05   9.986971e+05
  -1.451231e+06   2.818415e+05
  -6.279989e+05  -9.230095e+05
   4.681812e+05  -8.862348e+05
   4.476752e+05   2.737198e+05
  -6.397798e+05   7.074826e+05
  -1.409641e+06  -5.984358e+05
  -8.348715e+05  -2.412770e+06
   7.447131e+05  -2.801549e+06
   2.238948e+06  -1.317254e+06
   2.787413e+06   8.286415e+05
   2.082382e+06   2.194636e+06
   4.590677e+05   2.188135e+06
  -1.031378e+06   1.178783e+06
  -1.287698e+06   1.421010e+05
  -3.900369e+05  -3.703781e+04
   2.871718e+05   5.889348e+05
  -2.872267e+05   1.007393e+06
  -1.418342e+06   4.423920e+05
  -1.555576e+06  -6.243245e+05
  -3.399902e+05  -1.051376e+06
   8.999371e+05  -4.751647e+05
   7.678345e+05   3.425805e+05
  -6.103597e+05   5.164842e+05
  -1.802305e+06  -1.052119e+05
  -1.549087e+06  -1.049708e+06
   9.651385e+04  -1.663450e+06
   1.832683e+06  -1.402721e+06
   2.210347e+06  -2.483507e+05
   9.505644e+05   9.611767e+05
  -7.027290e+05   1.120300e+06
  -1.159014e+06   1.266172e+05
  -1.144144e+05  -8.173017e+05
   1.184478e+06  -5.665973e+05
   1.362401e+06   5.797200e+05
   3.356114e+05   1.291214e+06
  -7.985543e+05   8.371645e+05
  -1.006892e+06  -1.588518e+05
  -2.549565e+05  -5.834090e+05
   5.875669e+05  -5.313118e+04
   5.640134e+05   8.230258e+05
  -4.747652e+05   1.115997e+06
  -1.597825e+06   4.053172e+05
  -1.599064e+06  -8.448885e+05
  -3.020696e+05  -1.630404e+06
   1.112906e+06  -1.296879e+06
   1.352414e+06  -1.932116e+05
   4.250086e+05   6.694436e+05
  -5.033718e+05   6.535579e+05
  -5.415278e+05   6.174240e+04
   5.246512e+04  -3.523551e+05
   4.376085e+05  -2.449656e+05
   2.138296e+05   5.835521e+04
  -2.852272e+05   3.219223e+04
  -4.365126e+05  -4.475417e+05
   1.064295e+05  -9.201999e+05
   1.070986e+06  -7.244420e+05
   1.648064e+06   3.150551e+05
   1.158156e+06   1.535143e+06
  -1.697787e+05   1.936734e+06
  -1.284523e+06   1.176325e+06
  -1.390479e+06  -5.180527e+04
  -7.675385e+05  -7.514271e+05
  -2.912601e+05  -6.356431e+05
  -3.241085e+05  -2.556412e+05
  -4.188920e+05  -2.283271e+05
  -5.647649e+04  -5.577532e+05
   6.682729e+05  -7.272901e+05
   1.159874e+06  -3.025139e+05
   8.923720e+05   5.798904e+05
  -1.528162e+05   1.219364e+06
  -1.368445e+06   9.011474e+05
  -1.811354e+06  -3.654089e+05
  -9.394134e+05  -1.650350e+06
   7.415957e+05  -1.869600e+06
   1.969860e+06  -8.594169e+05
   1.891085e+06   4.543866e+05
   8.492723e+05   1.049847e+06
  -1.062799e+05   8.218484e+05
  -3.543453e+05   4.815510e+05
  -1.599525e+05   6.008150e+05
  -1.359410e+05   9.837960e+05
  -5.202572e+05   9.771197e+05
  -9.986341e+05   2.357031e+05
  -1.049995e+06  -8.659469e+05
  -4.359901e+05  -1.510827e+06
   5.026684e+05  -1.144167e+06
   1.027172e+06  -1.217328e+04
   6.605206e+05   9.891341e+05
  -2.633475e+05   1.099976e+06
  -8.635257e+05   3.725756e+05
  -6.289922e+05  -4.691400e+05
   4.353747e+04  -8.006268e+05
   3.502645e+05  -6.239838e+05
   3.368662e+04  -3.575404e+05
  -3.326549e+05  -2.846973e+05
  -3.952708e+04  -3.125505e+05
   8.859911e+05  -1.745171e+05
   1.602267e+06   2.514700e+05
   1.282827e+06   7.975923e+05
   1.235278e+04   1.100992e+06
  -1.210807e+06   8.863050e+05
  -1.432867e+06   2.530315e+05
  -6.731712e+05  -3.297092e+05
   1.862304e+05  -4.214223e+05
   3.876820e+05  -5.010272e+04
   1.974574e+03   3.007286e+05
  -3.728721e+05   1.971058e+05
  -3.761506e+05  -2.739899e+05
  -1.591410e+05  -5.928867e+05
  -3.553790e+04  -3.890017e+05
  -1.107632e+05   1.063663e+05
  -2.516344e+05   2.743190e+05
  -2.271147e+05  -1.787896e+05
   1.319082e+05  -8.025317e+05
   7.139085e+05  -8.403237e+05
   1.036224e+06  -1.053580e+05
   6.280368e+05   7.351039e+05
  -3.347659e+05   8.667041e+05
  -9.769096e+05   2.242190e+05
  -5.794359e+05  -4.706671e+05
   5.468620e+05  -5.240990e+05
   1.281597e+06   4.954221e+04
   8.572746e+05   6.694771e+05
  -3.395582e+05   8.189375e+05
  -1.199015e+06   4.434543e+05
  -1.017951e+06  -1.158511e+05
  -1.303011e+05  -4.174645e+05
   5.106609e+05  -2.345852e+05
   2.918929e+05   2.230292e+05
  -4.881264e+05   3.998502e+05
  -9.444582e+05  -9.438611e+04
  -5.024668e+05  -9.628542e+05
   5.146005e+05  -1.350986e+06
   1.209471e+06  -6.845839e+05
   1.005125e+06   6.208160e+05
   1.585288e+05   1.444480e+06
  -5.909093e+05   1.058002e+06
  -7.457432e+05  -1.161780e+05
  -3.708792e+05  -9.486815e+05
   1.417342e+05  -7.908919e+05
   4.394256e+05  -7.989424e+04
   3.974534e+05   3.047991e+05
   1.573862e+05   1.149020e+05
   2.829864e+04  -8.300213e+04
   1.864538e+05   2.242307e+05
   3.949207e+05   7.690118e+05
   1.844424e+05   8.664312e+05
  -5.379716e+05   3.180667e+05
  -1.188561e+06  -3.722400e+05
  -1.055286e+06  -6.664982e+05
  -1.514601e+05  -5.538617e+05
   7.083350e+05  -3.376317e+05
   7.970016e+05  -1.572174e+05
   2.676292e+05   3.114631e+04
  -1.260875e+05   1.799730e+05
   6.679387e+02   1.741562e+05
   2.435388e+05   8.684376e+04
   2.983526e+04   1.102473e+05
  -5.626606e+05   1.832656e+05
  -8.373167e+05  -1.835720e+04
  -3.054890e+05  -5.570596e+05
   7.041092e+05  -9.319801e+05
   1.348153e+06  -5.830872e+05
   1.100680e+06   3.671226e+05
   2.104187e+05   1.134306e+06
  -6.099914e+05   1.093000e+06
  -8.444018e+05   4.133938e+05
  -5.319148e+05  -2.004295e+05
  -9.595030e+04  -2.889543e+05
   8.142484e+04  -4.183445e+04
  -5.382164e+04   2.943659e+04
  -2.514959e+05  -2.852771e+05
  -2.082314e+05  -6.464776e+05
   1.499024e+05  -5.403457e+05
   5.542322e+05   1.126094e+05
   5.814632e+05   7.816888e+05
   6.646774e+04   8.295460e+05
  -6.220896e+05   1.793944e+05
  -8.268044e+05  -5.996074e+05
  -2.647558e+05  -8.754080e+05
   5.785895e+05  -5.277636e+05
   8.873739e+05   6.812422e+04
   4.108667e+05   4.782484e+05
  -2.323355e+05   5.234734e+05
  -2.868802e+05   2.869233e+05
   2.197747e+05   1.111901e+04
   5.268605e+05  -2.951718e+04
   1.100950e+05   2.445203e+05
  -6.614928e+05   5.474338e+05
  -9.902682e+05   4.450682e+05
  -5.888537e+05  -1.305188e+05
   8.031972e+04  -6.898813e+05
   4.271957e+05  -6.755341e+05
   3.248253e+05  -1.121582e+05
   3.471002e+04   3.943227e+05
  -1.973856e+05   3.397196e+05
  -2.870534e+05  -1.345757e+05
  -2.016056e+05  -4.642117e+05
   4.977625e+04  -3.282360e+05
   3.144813e+05   4.314012e+04
   3.733546e+05   2.142936e+05
   1.922313e+05   6.671291e+04
  -1.640579e+04  -1.089403e+05
  -6.049809e+04  -7.431064e+03
  -1.123938e+04   2.991876e+05
  -7.641774e+04   4.298515e+05
  -2.725972e+05   1.473364e+05
  -3.500051e+05  -3.283064e+05
  -9.747711e+04  -5.283502e+05
   3.374040e+05  -2.463435e+05
   5.246905e+05   2.368944e+05
   1.972065e+05   4.683322e+05
  -4.025116e+05   2.902469e+05
  -7.002024e+05  -6.921905e+04
  -3.799911e+05  -3.040735e+05
   2.380086e+05  -3.093149e+05
   5.114843e+05  -1.678019e+05
   1.889334e+05  -9.616724e+03
  -2.981255e+05   4.618045e+04
  -3.379623e+05  -6.700971e+04
   1.465309e+05  -2.476560e+05
   6.197292e+05  -2.231916e+05
