
 $NMID
 id='ANONYMOUS ', fmtdat='(2E16.6)'
 volume=1.0
 tramp=1.0
 $END
  -1.548154e+07   8.174415e+05
  -1.109851e+07  -6.215281e+06
  -1.035753e+06  -9.746737e+06
   6.244561e+06  -7.535555e+06
   5.994763e+06  -1.547185e+06
   8.131082e+05   2.894026e+06
  -3.269354e+06   2.003942e+06
  -2.943178e+06  -2.384991e+06
   3.198028e+05  -4.817166e+06
   2.941675e+06  -2.423163e+06
   2.785751e+06   1.988315e+06
   4.873580e+05   3.498415e+06
  -1.582650e+06   7.293932e+05
  -1.439147e+06  -2.987647e+06
   7.609121e+05  -3.619175e+06
   2.749096e+06  -6.022582e+05
   2.296931e+06   3.058195e+06
  -4.278390e+05   4.112119e+06
  -2.943512e+06   2.064999e+06
  -3.085200e+06  -8.334896e+05
  -1.256222e+06  -2.134397e+06
   2.237998e+05  -1.539412e+06
  -1.945127e+05  -7.618151e+05
  -1.618712e+06  -1.282665e+06
  -1.769095e+06  -2.630403e+06
   4.538214e+05  -3.068706e+06
   3.542628e+06  -1.682248e+06
   4.648461e+06   6.256075e+05
   2.490178e+06   2.117537e+06
  -1.047508e+06   1.815988e+06
  -2.628700e+06   1.638741e+05
  -9.502435e+05  -1.420433e+06
   1.897831e+06  -1.539272e+06
   2.871882e+06   8.750742e+04
   1.322843e+06   2.128911e+06
  -7.014524e+05   2.626410e+06
  -1.190206e+06   1.018134e+06
  -2.804103e+05  -9.855500e+05
   5.184837e+05  -1.144146e+06
   3.134169e+05   6.711214e+05
  -5.477120e+05   2.208223e+06
  -1.265015e+06   1.500591e+06
  -1.259917e+06  -7.368213e+05
  -3.518517e+05  -1.956786e+06
   9.541042e+05  -7.950785e+05
   1.413512e+06   1.420041e+06
   1.044507e+05   2.282713e+06
  -2.168679e+06   9.147562e+05
  -3.196677e+06  -1.346277e+06
  -1.651186e+06  -2.520871e+06
   1.248002e+06  -1.833177e+06
   2.872745e+06  -1.183055e+05
   1.922846e+06   1.158641e+06
  -3.600147e+05   1.151548e+06
  -1.688087e+06   1.881253e+05
  -1.070060e+06  -6.568582e+05
   4.410729e+05  -5.711760e+05
   1.075236e+06   2.641234e+05
   2.185195e+05   9.040955e+05
  -1.015030e+06   6.197286e+05
  -1.048311e+06  -3.485582e+05
   3.407288e+05  -1.004846e+06
   1.637699e+06  -5.442534e+05
   1.213059e+06   8.569599e+05
  -8.137783e+05   2.093067e+06
  -2.659058e+06   2.004641e+06
  -2.815893e+06   4.050645e+05
  -1.530820e+06  -1.649861e+06
  -2.012197e+05  -2.742892e+06
   3.003462e+05  -2.396603e+06
   3.103130e+05  -1.427069e+06
   5.798587e+05  -8.835682e+05
   1.279993e+06  -8.010711e+05
   1.893699e+06  -3.325759e+05
   1.793730e+06   8.869835e+05
   7.947172e+05   1.958570e+06
  -6.376710e+05   1.654701e+06
  -1.574750e+06  -3.126218e+04
  -1.252074e+06  -1.676884e+06
   1.934005e+05  -1.860382e+06
   1.651168e+06  -5.546469e+05
   1.963254e+06   1.016964e+06
   1.023578e+06   1.699614e+06
  -1.721929e+05   1.381791e+06
  -6.506974e+05   7.850222e+05
  -5.061590e+05   5.661107e+05
  -6.548393e+05   7.065042e+05
  -1.569505e+06   6.416025e+05
  -2.491020e+06  -1.159749e+05
  -2.138825e+06  -1.420004e+06
  -2.254714e+05  -2.469491e+06
   1.956785e+06  -2.405242e+06
   2.684041e+06  -1.092561e+06
   1.527438e+06   6.128560e+05
  -2.349496e+05   1.485204e+06
  -9.717074e+05   9.976240e+05
  -2.985076e+05  -1.609028e+05
   7.649237e+05  -7.422882e+05
   1.045238e+06  -2.220075e+05
   3.767962e+05   6.437783e+05
  -4.339750e+05   7.026709e+05
  -5.268996e+05  -1.795115e+05
   2.250034e+05  -8.503117e+05
   1.139851e+06  -1.924702e+05
   1.276388e+06   1.454922e+06
   2.123108e+05   2.504806e+06
  -1.478943e+06   1.797354e+06
  -2.547748e+06  -1.621164e+05
  -2.114215e+06  -1.763130e+06
  -5.368012e+05  -1.920476e+06
   8.612232e+05  -9.731863e+05
   1.059182e+06  -7.819595e+04
   3.076838e+05   2.006919e+04
  -2.483917e+05  -4.465603e+05
   1.249542e+05  -7.277529e+05
   9.607815e+05  -3.847284e+05
   1.176734e+06   3.164446e+05
   3.667702e+05   7.190336e+05
  -6.568992e+05   4.399312e+05
  -7.148573e+05  -2.362594e+05
   3.971597e+05  -5.983889e+05
   1.573620e+06  -1.748587e+05
   1.511027e+06   7.879993e+05
   9.788684e+04   1.494430e+06
  -1.433734e+06   1.294910e+06
  -1.760404e+06   3.011663e+05
  -7.633596e+05  -6.626720e+05
   4.649323e+05  -7.990303e+05
   7.829226e+05  -1.142703e+05
   5.276401e+04   5.674785e+05
  -8.838991e+05   4.552419e+05
  -1.098339e+06  -3.559460e+05
  -4.115675e+05  -9.947993e+05
   5.159412e+05  -7.971795e+05
   8.357765e+05  -4.003469e+04
   3.215336e+05   4.103134e+05
  -3.933461e+05   8.504944e+04
  -4.370168e+05  -6.065441e+05
   3.680868e+05  -8.635648e+05
   1.247046e+06  -3.200983e+05
   1.252063e+06   6.361896e+05
   2.821334e+05   1.248983e+06
  -7.913605e+05   1.048538e+06
  -1.038692e+06   2.363863e+05
  -4.009869e+05  -4.903995e+05
   3.513456e+05  -5.592819e+05
   4.863943e+05  -5.484696e+04
   1.665099e+04   3.950831e+05
  -4.349023e+05   3.180238e+05
  -3.530883e+05  -8.192015e+04
   1.376084e+05  -2.001970e+05
   4.206020e+05   2.114867e+05
   3.911217e+04   7.090789e+05
  -7.860450e+05   6.293834e+05
  -1.303845e+06  -1.804744e+05
  -9.481723e+05  -1.164708e+06
   8.243723e+04  -1.555107e+06
   9.997974e+05  -1.049207e+06
   1.189668e+06  -6.047619e+04
   7.531947e+05   6.591656e+05
   2.771909e+05   6.925747e+05
   1.529401e+05   3.077436e+05
   2.164005e+05   1.146910e+05
   4.796589e+04   3.559782e+05
  -4.669571e+05   6.187362e+05
  -9.354256e+05   3.389808e+05
  -8.126895e+05  -4.601132e+05
   3.090640e+04  -1.075912e+06
   1.071076e+06  -8.271721e+05
   1.486298e+06   2.171692e+05
   8.534242e+05   1.259696e+06
  -4.351301e+05   1.497169e+06
  -1.463010e+06   8.099895e+05
  -1.562682e+06  -2.026842e+05
  -8.474085e+05  -8.092826e+05
  -1.081550e+04  -7.815080e+05
   3.609358e+05  -4.996442e+05
   2.684584e+05  -4.550125e+05
   1.529139e+05  -6.774235e+05
   3.522157e+05  -7.135140e+05
   7.303109e+05  -1.920170e+05
   8.282761e+05   6.653255e+05
   3.710012e+05   1.188666e+06
  -3.820028e+05   9.173241e+05
  -8.238820e+05   5.735022e+04
  -5.807147e+05  -7.184047e+05
   1.003250e+05  -8.738737e+05
   5.887707e+05  -4.158527e+05
   5.082164e+05   2.117421e+05
   9.024998e+04   5.613242e+05
  -1.374168e+05   5.278709e+05
   3.021300e+04   3.369660e+05
   2.454953e+05   2.423807e+05
   2.344142e+04   2.565129e+05
  -6.536037e+05   1.807122e+05
  -1.214436e+06  -1.263211e+05
  -1.037208e+06  -5.533314e+05
  -1.191140e+05  -8.168451e+05
   8.418556e+05  -7.127232e+05
   1.097151e+06  -2.965128e+05
   5.761231e+05   1.422180e+05
  -9.228963e+04   2.928564e+05
  -2.804066e+05   9.356770e+04
   1.832365e+04  -1.743256e+05
   3.220891e+05  -1.443439e+05
   2.915561e+05   2.090913e+05
   6.233785e+04   4.822415e+05
  -3.452157e+04   3.075221e+05
   9.712649e+04  -1.389148e+05
   2.552977e+05  -2.848301e+05
   1.994461e+05   1.281647e+05
  -1.243160e+05   6.621258e+05
  -5.400407e+05   6.680638e+05
  -7.247204e+05   6.302457e+04
  -4.244445e+05  -5.642937e+05
   2.403535e+05  -6.221940e+05
   7.116525e+05  -1.293453e+05
   4.559263e+05   3.836060e+05
  -4.019509e+05   4.454941e+05
  -1.054903e+06   3.315394e+04
  -8.009328e+05  -4.965222e+05
   1.779757e+05  -7.278561e+05
   9.697522e+05  -4.895954e+05
   8.858980e+05   1.434044e+04
   1.527702e+05   3.498311e+05
  -3.935082e+05   2.368295e+05
  -2.138972e+05  -1.442822e+05
   4.127372e+05  -2.881958e+05
   7.408677e+05   1.126717e+05
   3.461539e+05   7.802668e+05
  -4.641904e+05   1.048644e+06
  -9.860461e+05   5.116801e+05
  -8.064213e+05  -5.060653e+05
  -1.407244e+05  -1.168109e+06
   4.570858e+05  -8.984690e+05
   6.171532e+05   3.098975e+04
   3.672703e+05   7.493783e+05
  -3.561343e+04   6.782436e+05
  -3.329681e+05   1.020127e+05
  -3.712847e+05  -2.511460e+05
  -1.798997e+05  -1.099753e+05
  -2.007240e+03   8.506818e+04
  -8.049053e+04  -1.339945e+05
  -3.035926e+05  -5.908783e+05
  -2.275057e+05  -7.077955e+05
   3.526417e+05  -2.825307e+05
   9.703850e+05   2.792220e+05
   9.190978e+05   5.192954e+05
   1.400307e+05   4.287814e+05
  -6.142297e+05   2.727741e+05
  -6.574360e+05   1.589066e+05
  -1.725560e+05   1.490411e+04
   1.184207e+05  -1.389563e+05
  -6.369736e+04  -1.755752e+05
  -2.603195e+05  -1.070366e+05
   1.105903e+03  -8.993270e+04
   5.172423e+05  -1.225058e+05
   6.587109e+05   2.508293e+04
   1.522427e+05   4.229901e+05
  -6.131082e+05   7.057262e+05
  -1.020861e+06   4.321304e+05
  -7.956333e+05  -3.146991e+05
  -1.506718e+05  -9.124651e+05
   4.571680e+05  -8.559437e+05
   6.649711e+05  -2.915133e+05
   4.327168e+05   1.932326e+05
   5.021088e+04   2.263425e+05
  -1.192243e+05  -9.329781e+03
   2.441359e+04  -7.044887e+04
   2.353258e+05   2.073484e+05
   1.981470e+05   5.150552e+05
  -1.278354e+05   4.165675e+05
  -4.521736e+05  -1.313116e+05
  -4.260920e+05  -6.598869e+05
   1.350815e+04  -6.482172e+05
   5.291463e+05  -8.151609e+04
   6.367076e+05   5.296607e+05
   1.735459e+05   6.894227e+05
  -4.652211e+05   3.752237e+05
  -6.741525e+05  -6.614318e+04
  -2.962787e+05  -3.329289e+05
   1.740300e+05  -3.605506e+05
   1.740425e+05  -2.198266e+05
  -2.306043e+05  -3.391359e+04
  -4.338103e+05   1.564656e+04
  -6.972166e+04  -1.816581e+05
   5.244557e+05  -4.472668e+05
   7.400911e+05  -4.061385e+05
   4.153673e+05   5.186978e+04
  -6.429966e+04   5.263526e+05
  -2.851193e+05   5.196737e+05
  -1.979873e+05   5.303667e+04
   2.914886e+03  -3.353688e+05
   1.646221e+05  -2.391870e+05
   2.287185e+05   1.575381e+05
   1.536641e+05   3.702444e+05
  -4.933483e+04   2.133418e+05
  -2.466156e+05  -5.593853e+04
  -2.821183e+05  -1.321551e+05
  -1.548242e+05  -2.016781e+04
  -9.989636e+03   4.437683e+04
   5.296369e+04  -7.821054e+04
   8.228619e+04  -2.665966e+05
   1.580603e+05  -2.784753e+05
   2.430011e+05  -2.099639e+04
   2.060171e+05   3.177694e+05
  -1.429160e+04   4.222771e+05
  -2.928395e+05   1.688851e+05
  -3.805610e+05  -2.201990e+05
  -1.291984e+05  -3.916052e+05
   3.036903e+05  -2.246296e+05
   5.244713e+05   7.588244e+04
   2.868440e+05   2.418278e+05
  -1.865171e+05   2.069905e+05
  -3.894395e+05   8.659176e+04
  -1.086954e+05   2.064069e+03
   2.917722e+05   9.128837e+03
   2.875546e+05   1.132451e+05
  -1.658492e+05   2.289049e+05
  -5.700349e+05   1.703700e+05
