
 $NMID
 id='ANONYMOUS ', fmtdat='(2E16.6)'
 volume=1.0
 tramp=1.0
 $END
  -3.870659e+03  -3.440493e+01
  -2.365727e+03  -2.186439e+03
   3.874978e+02  -2.443131e+03
   1.713948e+03  -1.073841e+03
   9.595992e+02   2.364750e+02
  -3.230311e+02   3.899441e+02
  -6.389388e+02  -2.817855e+02
  -1.464248e+01  -8.261894e+02
   6.590157e+02  -6.889852e+02
   8.083216e+02   1.085527e+01
   4.439816e+02   7.042524e+02
  -1.265205e+02   7.845046e+02
  -4.815064e+02   1.491640e+02
  -3.174285e+02  -5.834817e+02
   2.017611e+02  -6.588491e+02
   5.175698e+02  -3.339676e+01
   2.880444e+02   5.986674e+02
  -2.316537e+02   6.404703e+02
  -5.368260e+02   1.848700e+02
  -4.217258e+02  -2.706853e+02
  -7.398480e+01  -4.072872e+02
   1.869056e+02  -2.590134e+02
   1.452902e+02  -4.749248e+01
  -1.516587e+02  -5.627457e+00
  -3.487532e+02  -2.014060e+02
  -9.138373e+01  -4.067792e+02
   4.782823e+02  -2.917170e+02
   7.429670e+02   1.397558e+02
   3.296181e+02   4.695163e+02
  -3.695124e+02   3.485820e+02
  -6.376847e+02  -9.084809e+01
  -2.706867e+02  -4.347287e+02
   2.818706e+02  -4.420769e+02
   5.229608e+02  -1.652797e+02
   3.758751e+02   2.007010e+02
   7.566188e+01   4.019292e+02
  -1.204432e+02   2.379536e+02
  -6.745019e+01  -1.596643e+02
   1.797921e+02  -3.050917e+02
   3.333796e+02   8.447343e+01
   1.292880e+02   6.032718e+02
  -2.958237e+02   5.832990e+02
  -4.779576e+02  -2.462436e+00
  -1.915643e+02  -4.475826e+02
   2.293607e+02  -2.341561e+02
   2.854510e+02   3.066473e+02
  -9.538938e+01   4.780331e+02
  -5.111203e+02   9.562092e+01
  -5.485415e+02  -4.006416e+02
  -1.601008e+02  -5.525712e+02
   3.498432e+02  -3.112071e+02
   5.846771e+02   7.391697e+01
   3.621143e+02   3.273012e+02
  -1.052153e+02   3.021194e+02
  -3.745660e+02   6.816479e+01
  -2.329210e+02  -1.174493e+02
   5.807290e+01  -6.661401e+01
   9.852416e+01   1.047987e+02
  -1.361311e+02   1.257652e+02
  -2.938679e+02  -6.401975e+01
  -1.342961e+02  -2.527682e+02
   1.830964e+02  -2.564209e+02
   3.435234e+02  -1.045465e+02
   2.343393e+02   9.390116e+01
  -2.488448e+01   2.762616e+02
  -2.637226e+02   3.506479e+02
  -3.605194e+02   1.916828e+02
  -2.675243e+02  -1.539810e+02
  -6.274204e+01  -4.060741e+02
   7.997604e+01  -3.572492e+02
   7.408030e+01  -1.436845e+02
   2.925469e+01  -4.723745e+01
   9.168962e+01  -1.031881e+02
   2.271961e+02  -9.375086e+01
   2.647817e+02   8.935147e+01
   1.259515e+02   2.700235e+02
  -8.665009e+01   2.289189e+02
  -2.135327e+02  -1.673964e+01
  -1.681409e+02  -2.481568e+02
   3.149421e+01  -2.772555e+02
   2.618330e+02  -8.953961e+01
   3.391278e+02   1.752579e+02
   1.784880e+02   3.317739e+02
  -7.890029e+01   2.905914e+02
  -2.012718e+02   1.383333e+02
  -1.514104e+02   4.199756e+01
  -1.256546e+02   5.201733e+01
  -2.602906e+02   5.073070e+01
  -4.119184e+02  -7.980901e+01
  -3.294718e+02  -2.980303e+02
   1.653148e+01  -4.469537e+02
   3.790458e+02  -4.086452e+02
   4.924564e+02  -1.869631e+02
   3.160089e+02   1.008930e+02
   3.544375e+01   2.778282e+02
  -1.159543e+02   2.280291e+02
  -4.812820e+01   3.299448e+01
   1.167844e+02  -7.496420e+01
   1.667340e+02   2.382632e+01
   2.834170e+01   1.728871e+02
  -1.435884e+02   1.397814e+02
  -1.468935e+02  -5.932855e+01
   2.499290e+01  -1.652734e+02
   1.815789e+02  -1.536063e+01
   1.583501e+02   2.465130e+02
  -2.871386e+01   3.507456e+02
  -2.411391e+02   2.018133e+02
  -3.465777e+02  -6.522634e+01
  -2.810060e+02  -2.564418e+02
  -7.704700e+01  -2.744049e+02
   1.245725e+02  -1.520353e+02
   1.674125e+02  -1.203123e+01
   4.740355e+01   2.426280e+01
  -6.139518e+01  -5.156785e+01
  -1.201841e+01  -1.220512e+02
   1.273107e+02  -8.366953e+01
   1.655930e+02   2.185998e+01
   4.483732e+01   6.575757e+01
  -8.301306e+01   1.362862e+00
  -4.726693e+01  -8.527019e+01
   1.390012e+02  -8.802624e+01
   2.965204e+02   1.346853e+01
   2.632730e+02   1.598123e+02
   4.251219e+01   2.637363e+02
  -2.013999e+02   2.499981e+02
  -2.817775e+02   1.108601e+02
  -1.559980e+02  -5.116597e+01
   2.885523e+01  -9.542217e+01
   7.920810e+01  -7.939922e-01
  -4.468869e+01   9.234861e+01
  -1.941062e+02   4.540433e+01
  -2.030575e+02  -1.067460e+02
  -6.183802e+01  -2.016975e+02
   9.444029e+01  -1.483387e+02
   1.370346e+02  -2.194534e+01
   5.884628e+01   4.042634e+01
  -3.607697e+01  -9.401084e+00
  -3.254436e+01  -9.852279e+01
   8.648974e+01  -1.170997e+02
   2.080051e+02  -1.966199e+01
   1.888067e+02   1.324904e+02
   1.443240e+01   2.168110e+02
  -1.642106e+02   1.583602e+02
  -1.871450e+02   7.196333e+00
  -6.014886e+01  -1.068137e+02
   6.617647e+01  -1.043983e+02
   7.811645e+01  -2.730632e+01
   9.649676e+00   2.618543e+01
  -3.026418e+01   1.390495e+01
   9.218827e+00  -1.724081e+01
   8.086353e+01   3.462077e+00
   9.794280e+01   8.844046e+01
   1.240859e+01   1.697529e+02
  -1.375256e+02   1.544566e+02
  -2.398479e+02   1.650960e+01
  -1.988133e+02  -1.581468e+02
  -3.828101e+01  -2.364940e+02
   1.079197e+02  -1.662100e+02
   1.345924e+02  -2.858201e+01
   7.280497e+01   5.091333e+01
   3.143494e+01   3.295684e+01
   5.538729e+01  -1.320874e+01
   8.511724e+01  -6.444254e+00
   4.992065e+01   5.449978e+01
  -4.192429e+01   9.852403e+01
  -1.147304e+02   6.240713e+01
  -9.799532e+01  -4.089820e+01
   1.607628e+01  -1.222153e+02
   1.557314e+02  -8.885690e+01
   2.044302e+02   6.053348e+01
   9.256043e+01   2.112559e+02
  -1.191435e+02   2.277349e+02
  -2.718567e+02   8.799621e+01
  -2.536534e+02  -9.140250e+01
  -1.041099e+02  -1.760666e+02
   4.114427e+01  -1.441111e+02
   9.329205e+01  -8.234288e+01
   7.577486e+01  -6.998801e+01
   6.375011e+01  -9.353759e+01
   9.294406e+01  -7.746623e+01
   1.315770e+02   2.100582e+01
   1.190534e+02   1.566538e+02
   2.694014e+01   2.289964e+02
  -1.020389e+02   1.708441e+02
  -1.752292e+02   1.475467e+01
  -1.321381e+02  -1.272582e+02
  -1.305448e+01  -1.601679e+02
   7.329238e+01  -8.704733e+01
   6.250503e+01   7.635650e+00
   1.512103e-01   4.921643e+01
  -1.946965e+01   3.588883e+01
   3.176229e+01   1.546654e+01
   8.286485e+01   2.082542e+01
   4.794316e+01   3.996069e+01
  -6.979604e+01   3.871980e+01
  -1.684103e+02  -4.799048e-01
  -1.454329e+02  -5.940706e+01
  -6.533531e+00  -9.495401e+01
   1.300316e+02  -7.401912e+01
   1.473366e+02  -8.350900e+00
   4.667724e+01   4.682483e+01
  -6.095722e+01   4.102561e+01
  -7.794424e+01  -1.912906e+01
  -1.362259e+01  -7.204922e+01
   5.144136e+01  -6.258611e+01
   6.694404e+01  -1.218062e-01
   5.184350e+01   5.111112e+01
   4.625711e+01   4.341344e+01
   5.885260e+01   2.483663e+00
   6.631029e+01   1.286855e+00
   4.033548e+01   7.120041e+01
  -3.071561e+01   1.510700e+02
  -1.234812e+02   1.449397e+02
  -1.752403e+02   3.307985e+01
  -1.283310e+02  -9.478245e+01
  -3.651174e+00  -1.315772e+02
   9.089059e+01  -6.615314e+01
   6.184127e+01   1.308526e+01
  -5.932778e+01   2.030492e+01
  -1.367145e+02  -4.360765e+01
  -7.320613e+01  -1.083742e+02
   8.378819e+01  -1.113297e+02
   1.922520e+02  -4.705437e+01
   1.608596e+02   3.897895e+01
   3.352563e+01   8.701905e+01
  -6.385523e+01   6.570247e+01
  -4.946657e+01   2.530722e+00
   4.000104e+01  -2.932056e+01
   9.263868e+01   2.136138e+01
   3.674433e+01   1.182815e+02
  -8.604812e+01   1.564033e+02
  -1.638666e+02   6.697847e+01
  -1.275447e+02  -9.677172e+01
  -1.311505e+01  -1.964939e+02
   8.495296e+01  -1.432392e+02
   1.052807e+02   9.761647e+00
   5.770578e+01   1.206695e+02
  -8.448677e+00   1.056646e+02
  -4.956851e+01   1.728947e+01
  -4.883144e+01  -3.240680e+01
  -2.126148e+01  -8.275960e+00
  -5.164594e+00   1.915004e+01
  -2.605268e+01  -1.847300e+01
  -5.701747e+01  -9.038321e+01
  -3.659567e+01  -1.083993e+02
   5.236459e+01  -4.404634e+01
   1.379964e+02   3.918685e+01
   1.269896e+02   7.136577e+01
   1.803261e+01   5.211949e+01
  -8.479262e+01   2.396614e+01
  -8.820083e+01   6.326029e+00
  -1.448184e+01  -9.646237e+00
   3.678096e+01  -2.186966e+01
   1.725176e+01  -1.549144e+01
  -1.804142e+01   2.662109e+00
   4.168294e+00   7.352155e+00
   7.074939e+01   1.598921e+00
   9.307200e+01   2.308776e+01
   1.548457e+01   8.123219e+01
  -1.137790e+02   1.169943e+02
  -1.886382e+02   6.305044e+01
  -1.487073e+02  -6.327906e+01
  -2.924644e+01  -1.619069e+02
   8.062492e+01  -1.539784e+02
   1.165657e+02  -6.277893e+01
   8.125123e+01   2.056852e+01
   2.595095e+01   3.713614e+01
  -4.270097e-02   1.104853e+01
   1.231707e+01   6.422890e+00
   3.180371e+01   4.806659e+01
   2.010194e+01   9.152823e+01
  -2.963276e+01   7.230103e+01
  -8.029241e+01  -1.692146e+01
  -7.907994e+01  -1.056617e+02
  -9.559299e+00  -1.120174e+02
   7.888580e+01  -2.831067e+01
   1.051225e+02   7.038859e+01
   3.663538e+01   1.040170e+02
  -6.554583e+01   6.075006e+01
  -1.018844e+02  -9.643211e+00
  -4.312111e+01  -5.495122e+01
   3.375693e+01  -5.752723e+01
   3.633633e+01  -2.910595e+01
  -2.998877e+01   3.251037e+00
  -6.933310e+01   7.910592e+00
  -1.691626e+01  -2.642137e+01
   7.953851e+01  -6.620489e+01
   1.195973e+02  -5.615454e+01
   6.840049e+01   1.467014e+01
  -1.473804e+01   8.477951e+01
  -5.613828e+01   8.212446e+01
  -4.149555e+01   9.687036e+00
  -4.503884e+00  -5.429267e+01
   2.473049e+01  -4.606420e+01
   3.678339e+01   1.414925e+01
   2.783963e+01   5.429673e+01
  -1.597326e+00   3.680587e+01
  -3.346236e+01  -6.709936e+00
  -4.131205e+01  -2.352623e+01
  -2.096264e+01  -3.138509e+00
   2.515122e+00   1.728998e+01
   6.995873e+00   3.141434e+00
   1.109258e+00  -3.415122e+01
   8.277796e+00  -4.907670e+01
   2.937807e+01  -1.530469e+01
   3.605138e+01   3.975224e+01
   5.946824e+00   6.052043e+01
  -4.254543e+01   2.346477e+01
  -6.020337e+01  -3.609433e+01
  -1.735630e+01  -6.203061e+01
   5.637861e+01  -3.544203e+01
   9.190430e+01   1.328762e+01
   5.046211e+01   4.395133e+01
  -2.884239e+01   4.369275e+01
  -6.551528e+01   2.524058e+01
  -2.693955e+01   6.107615e+00
   3.268736e+01  -6.118966e-01
   3.559266e+01   1.089541e+01
  -2.701352e+01   2.820285e+01
  -8.496582e+01   2.037640e+01
