
 $NMID
 id='ANONYMOUS ', fmtdat='(2E16.6)'
 volume=1.0
 tramp=1.0
 $END
   3.535456e+03  -3.461017e+01
   2.310828e+03   1.823662e+03
  -7.015360e+01   2.242085e+03
  -1.406121e+03   1.264191e+03
  -9.882684e+02   9.571039e+01
   6.393064e+01  -2.692786e+02
   4.671542e+02   1.471841e+02
   5.890326e+01   6.511925e+02
  -5.154283e+02   6.448059e+02
  -7.170582e+02   7.634339e+01
  -4.633249e+02  -5.769715e+02
   1.872444e+01  -7.150686e+02
   3.646787e+02  -1.911847e+02
   2.873891e+02   4.743901e+02
  -1.325281e+02   6.000429e+02
  -4.520331e+02   7.889795e+01
  -3.172705e+02  -5.308822e+02
   1.478910e+02  -6.539142e+02
   5.007467e+02  -2.684747e+02
   4.564284e+02   2.015653e+02
   1.271403e+02   3.858755e+02
  -1.404726e+02   2.622434e+02
  -9.593487e+01   7.499560e+01
   1.777091e+02   6.976564e+01
   3.101049e+02   2.566922e+02
   2.368345e+01   3.854416e+02
  -4.831572e+02   2.158290e+02
  -6.692142e+02  -1.665263e+02
  -2.699660e+02  -4.019197e+02
   3.417838e+02  -2.599056e+02
   5.611303e+02   1.134948e+02
   2.269941e+02   3.925396e+02
  -2.696757e+02   3.941227e+02
  -4.873626e+02   1.524385e+02
  -3.522313e+02  -1.711120e+02
  -9.061287e+01  -3.473911e+02
   5.630996e+01  -2.087426e+02
  -3.838114e+00   1.139025e+02
  -1.806901e+02   2.127648e+02
  -2.518804e+02  -1.226468e+02
  -6.085847e+01  -5.412204e+02
   2.629224e+02  -5.039672e+02
   3.850698e+02  -6.429169e+00
   1.541578e+02   3.636334e+02
  -1.767246e+02   1.779388e+02
  -2.196646e+02  -2.860629e+02
   1.036089e+02  -4.297451e+02
   4.770425e+02  -7.837364e+01
   5.254198e+02   3.834826e+02
   1.697420e+02   5.256899e+02
  -3.188412e+02   2.947436e+02
  -5.548141e+02  -5.952393e+01
  -3.623328e+02  -2.771817e+02
   6.136345e+01  -2.592623e+02
   3.227487e+02  -8.721165e+01
   2.304673e+02   5.348004e+01
  -1.099139e+01   3.847685e+01
  -6.771296e+01  -6.544719e+01
   1.113247e+02  -8.338521e+01
   2.557284e+02   4.922518e+01
   1.354500e+02   2.147185e+02
  -1.613512e+02   2.595945e+02
  -3.516639e+02   1.369518e+02
  -2.664924e+02  -9.527346e+01
   1.835775e+01  -3.185129e+02
   2.903667e+02  -3.777139e+02
   3.758326e+02  -1.802072e+02
   2.538889e+02   1.624199e+02
   5.922843e+01   3.837918e+02
  -4.580988e+01   3.397637e+02
  -3.564152e+01   1.691716e+02
  -3.184199e+01   9.236356e+01
  -1.272806e+02   1.177347e+02
  -2.510498e+02   7.105499e+01
  -2.569184e+02  -1.127103e+02
  -1.061129e+02  -2.683177e+02
   9.399763e+01  -2.099359e+02
   2.036900e+02   3.367545e+01
   1.509642e+02   2.513921e+02
  -4.231137e+01   2.654675e+02
  -2.576527e+02   7.432090e+01
  -3.275149e+02  -1.752966e+02
  -1.796492e+02  -3.148404e+02
   5.777736e+01  -2.809888e+02
   1.796501e+02  -1.561092e+02
   1.517226e+02  -7.338075e+01
   1.456314e+02  -6.807792e+01
   2.815983e+02  -4.568764e+01
   4.253358e+02   8.941744e+01
   3.359667e+02   3.037554e+02
  -1.862418e+01   4.540534e+02
  -3.885036e+02   4.161692e+02
  -4.956478e+02   1.877486e+02
  -3.045567e+02  -1.009725e+02
  -2.662794e+01  -2.660584e+02
   1.008431e+02  -2.124134e+02
   2.157135e+01  -3.689038e+01
  -1.208850e+02   5.223468e+01
  -1.446597e+02  -3.416808e+01
  -1.498344e+01  -1.546529e+02
   1.270327e+02  -1.182048e+02
   1.233420e+02   5.526198e+01
  -2.745045e+01   1.446207e+02
  -1.717957e+02   5.604878e+00
  -1.602910e+02  -2.435694e+02
   1.922898e+01  -3.549039e+02
   2.468974e+02  -2.157649e+02
   3.670034e+02   6.024835e+01
   2.916798e+02   2.668313e+02
   6.963838e+01   2.835405e+02
  -1.310234e+02   1.492148e+02
  -1.600856e+02   8.697992e+00
  -3.917944e+01  -1.696408e+01
   5.613757e+01   6.074224e+01
   8.314940e-01   1.199306e+02
  -1.287773e+02   7.396723e+01
  -1.565341e+02  -2.568961e+01
  -3.581839e+01  -5.955968e+01
   8.578307e+01   9.014459e+00
   4.299009e+01   9.460430e+01
  -1.509352e+02   9.278239e+01
  -3.115084e+02  -1.776688e+01
  -2.692485e+02  -1.718070e+02
  -3.432902e+01  -2.723506e+02
   2.116247e+02  -2.474898e+02
   2.800453e+02  -1.050610e+02
   1.466301e+02   4.784192e+01
  -3.048781e+01   8.498423e+01
  -6.999505e+01  -3.611279e+00
   5.277568e+01  -8.633739e+01
   1.931183e+02  -3.830444e+01
   1.981681e+02   1.067543e+02
   6.029359e+01   1.966163e+02
  -9.196819e+01   1.433029e+02
  -1.316505e+02   1.917253e+01
  -5.046932e+01  -3.836130e+01
   4.321202e+01   1.904406e+01
   3.071575e+01   1.115105e+02
  -9.745041e+01   1.234829e+02
  -2.181235e+02   1.632556e+01
  -1.910018e+02  -1.376986e+02
  -1.316192e+01  -2.173981e+02
   1.619586e+02  -1.581022e+02
   1.825177e+02  -1.177170e+01
   5.845798e+01   9.976202e+01
  -6.393020e+01   1.003785e+02
  -7.364461e+01   2.634577e+01
  -2.891355e+00  -2.616010e+01
   3.736475e+01  -1.060175e+01
  -8.755553e+00   2.520084e+01
  -9.032849e+01   2.134071e+00
  -1.088717e+02  -9.327720e+01
  -1.351430e+01  -1.812433e+02
   1.457650e+02  -1.606936e+02
   2.475779e+02  -1.354501e+01
   2.015763e+02   1.629307e+02
   4.022880e+01   2.375375e+02
  -1.047571e+02   1.668729e+02
  -1.341389e+02   3.263775e+01
  -7.638422e+01  -4.604364e+01
  -3.480692e+01  -3.027735e+01
  -5.742938e+01   1.530637e+01
  -9.042627e+01   8.165232e+00
  -5.813934e+01  -5.829819e+01
   4.045781e+01  -1.094042e+02
   1.252895e+02  -7.110978e+01
   1.102629e+02   4.431980e+01
  -1.639371e+01   1.339190e+02
  -1.678794e+02   9.516393e+01
  -2.141692e+02  -6.564244e+01
  -9.098212e+01  -2.203178e+02
   1.270384e+02  -2.318768e+02
   2.773881e+02  -8.728484e+01
   2.549248e+02   9.210393e+01
   1.040117e+02   1.752917e+02
  -4.068812e+01   1.437966e+02
  -9.156865e+01   8.360085e+01
  -7.228105e+01   7.279328e+01
  -6.020439e+01   9.819190e+01
  -9.312000e+01   8.305648e+01
  -1.365015e+02  -1.786523e+01
  -1.248886e+02  -1.584831e+02
  -2.957947e+01  -2.337369e+02
   1.026663e+02  -1.737834e+02
   1.767404e+02  -1.361253e+01
   1.326608e+02   1.306207e+02
   1.134835e+01   1.621535e+02
  -7.719328e+01   8.512112e+01
  -6.514292e+01  -1.324295e+01
   2.827777e+00  -5.502187e+01
   2.626960e+01  -3.761150e+01
  -2.905609e+01  -1.267445e+01
  -8.744981e+01  -1.798008e+01
  -5.200348e+01  -4.104578e+01
   7.494883e+01  -4.202241e+01
   1.792659e+02   9.486768e-02
   1.503430e+02   6.390896e+01
   1.321059e+00   1.011216e+02
  -1.380173e+02   7.745329e+01
  -1.509174e+02   7.286376e+00
  -4.669346e+01  -5.122550e+01
   6.176935e+01  -4.565445e+01
   8.110961e+01   1.801882e+01
   1.983790e+01   7.591728e+01
  -4.768964e+01   6.838709e+01
  -7.088135e+01   3.106513e+00
  -5.973508e+01  -5.186865e+01
  -5.002788e+01  -4.442617e+01
  -5.783850e+01  -1.383341e+00
  -6.746316e+01  -4.632279e-01
  -4.636218e+01  -7.445106e+01
   2.663589e+01  -1.584486e+02
   1.282832e+02  -1.525458e+02
   1.861220e+02  -3.673199e+01
   1.362238e+02   9.679918e+01
   3.875174e+00   1.378236e+02
  -9.502823e+01   7.255739e+01
  -6.464956e+01  -1.061220e+01
   6.004099e+01  -2.199968e+01
   1.391258e+02   4.167273e+01
   7.432265e+01   1.093724e+02
  -8.535680e+01   1.138068e+02
  -1.951955e+02   4.766173e+01
  -1.625280e+02  -4.045924e+01
  -3.274046e+01  -8.784477e+01
   6.572803e+01  -6.429418e+01
   5.035221e+01   2.902444e-01
  -4.114601e+01   3.244091e+01
  -9.622514e+01  -1.906103e+01
  -4.263602e+01  -1.192879e+02
   8.025864e+01  -1.624677e+02
   1.625466e+02  -7.502741e+01
   1.322759e+02   9.290668e+01
   1.941735e+01   1.986569e+02
  -8.301324e+01   1.464743e+02
  -1.075704e+02  -1.029286e+01
  -5.855687e+01  -1.235089e+02
   1.176109e+01  -1.066000e+02
   5.286213e+01  -1.609812e+01
   4.766435e+01   3.279620e+01
   1.805276e+01   7.555766e+00
   5.789611e+00  -1.837391e+01
   3.106169e+01   2.114564e+01
   6.072240e+01   9.221039e+01
   3.504111e+01   1.083920e+02
  -5.666162e+01   4.467503e+01
  -1.407727e+02  -3.677299e+01
  -1.280932e+02  -7.011307e+01
  -1.966077e+01  -5.452150e+01
   8.320938e+01  -2.761484e+01
   8.929809e+01  -7.163921e+00
   1.773177e+01   1.145747e+01
  -3.548123e+01   2.266064e+01
  -1.960214e+01   1.383112e+01
   1.565734e+01  -4.120850e+00
  -3.210774e+00  -5.943458e+00
  -6.921559e+01   1.843007e+00
  -9.638111e+01  -2.093643e+01
  -2.305618e+01  -8.329146e+01
   1.095030e+02  -1.238040e+02
   1.931192e+02  -7.173582e+01
   1.583772e+02   5.813331e+01
   3.600824e+01   1.641005e+02
  -8.014812e+01   1.615780e+02
  -1.192707e+02   6.968536e+01
  -8.363295e+01  -1.841567e+01
  -2.797856e+01  -3.864546e+01
  -2.463621e+00  -1.321424e+01
  -1.427378e+01  -8.238938e+00
  -3.226083e+01  -5.008334e+01
  -2.025509e+01  -9.381437e+01
   2.896250e+01  -7.471782e+01
   8.143810e+01   1.417385e+01
   8.444538e+01   1.037420e+02
   1.636924e+01   1.138019e+02
  -7.703949e+01   3.424050e+01
  -1.103495e+02  -6.538041e+01
  -4.318905e+01  -1.056185e+02
   6.481895e+01  -6.738236e+01
   1.071950e+02   5.941394e+00
   4.810813e+01   5.859302e+01
  -3.408824e+01   6.386016e+01
  -4.041071e+01   3.099493e+01
   2.731144e+01  -6.317485e+00
   7.045466e+01  -1.052603e+01
   1.935153e+01   2.765604e+01
  -7.979690e+01   6.927731e+01
  -1.236706e+02   5.766446e+01
  -7.352926e+01  -1.577597e+01
   1.237110e+01  -8.807261e+01
   5.796063e+01  -8.692096e+01
   4.575121e+01  -1.384798e+01
   8.238055e+00   5.401017e+01
  -2.346595e+01   5.003612e+01
  -3.820275e+01  -1.029613e+01
  -3.056547e+01  -5.495470e+01
  -2.848668e-02  -4.071752e+01
   3.455710e+01   4.649362e+00
   4.381715e+01   2.507690e+01
   2.164519e+01   4.374622e+00
  -4.273654e+00  -2.011146e+01
  -7.145943e+00  -7.906611e+00
   4.023006e+00   3.305548e+01
  -9.597175e-01   5.386362e+01
  -2.754876e+01   2.234573e+01
  -4.233765e+01  -3.571406e+01
  -1.374005e+01  -6.141360e+01
   4.125543e+01  -2.720766e+01
   6.515927e+01   3.301996e+01
   2.136761e+01   6.203131e+01
  -5.787012e+01   3.847138e+01
  -9.642152e+01  -9.857308e+00
  -5.349242e+01  -4.358927e+01
   2.851217e+01  -4.749143e+01
   6.685292e+01  -3.023545e+01
   2.949400e+01  -7.756982e+00
  -2.976134e+01   3.731758e+00
  -3.496215e+01  -6.417289e+00
   2.385931e+01  -2.704228e+01
   8.116799e+01  -2.337905e+01
