
 $NMID
 id='ANONYMOUS ', fmtdat='(2E16.6)'
 volume=1.0
 tramp=1.0
 $END
   3.642644e+03  -3.426912e+01
   2.331399e+03   1.937401e+03
  -1.778857e+02   2.308424e+03
  -1.510436e+03   1.192104e+03
  -9.719036e+02  -2.964862e+01
   1.629706e+02  -3.176071e+02
   5.337819e+02   1.946427e+02
   4.694133e+01   7.155824e+02
  -5.636129e+02   6.623473e+02
  -7.481278e+02   4.704628e+01
  -4.573709e+02  -6.200500e+02
   5.566728e+01  -7.383564e+02
   4.072292e+02  -1.766894e+02
   3.013594e+02   5.118254e+02
  -1.542936e+02   6.204261e+02
  -4.744905e+02   6.401420e+01
  -3.076543e+02  -5.518779e+02
   1.755176e+02  -6.455899e+02
   5.102244e+02  -2.372550e+02
   4.413820e+02   2.245575e+02
   1.080588e+02   3.911098e+02
  -1.560198e+02   2.604259e+02
  -1.144527e+02   6.466039e+01
   1.660766e+02   4.291291e+01
   3.244387e+02   2.305311e+02
   5.309527e+01   3.903542e+02
  -4.756133e+02   2.475402e+02
  -6.944351e+02  -1.495146e+02
  -2.949158e+02  -4.233583e+02
   3.477333e+02  -2.956477e+02
   5.879089e+02   9.921795e+01
   2.456727e+02   4.044374e+02
  -2.694244e+02   4.121781e+02
  -4.967419e+02   1.600665e+02
  -3.604507e+02  -1.789379e+02
  -8.690093e+01  -3.659245e+02
   7.955738e+01  -2.196966e+02
   2.552201e+01   1.305894e+02
  -1.767899e+02   2.489406e+02
  -2.827839e+02  -1.042604e+02
  -9.170341e+01  -5.608287e+02
   2.698814e+02  -5.337508e+02
   4.190118e+02  -6.300321e+00
   1.710292e+02   3.927939e+02
  -1.945453e+02   2.005198e+02
  -2.462106e+02  -2.900616e+02
   9.624541e+01  -4.463591e+02
   4.863698e+02  -8.819447e+01
   5.335403e+02   3.836710e+02
   1.685538e+02   5.314164e+02
  -3.266127e+02   3.015726e+02
  -5.631284e+02  -6.070479e+01
  -3.619542e+02  -2.924809e+02
   7.609916e+01  -2.751076e+02
   3.404431e+02  -8.171347e+01
   2.306718e+02   7.675673e+01
  -2.901284e+01   4.978384e+01
  -8.017582e+01  -7.979667e+01
   1.193910e+02  -1.005002e+02
   2.694092e+02   5.263238e+01
   1.358122e+02   2.272733e+02
  -1.670114e+02   2.577562e+02
  -3.452293e+02   1.255148e+02
  -2.525063e+02  -9.247277e+01
   1.896003e+01  -2.996963e+02
   2.753604e+02  -3.660671e+02
   3.657246e+02  -1.859006e+02
   2.584884e+02   1.560461e+02
   6.302037e+01   3.893803e+02
  -5.648820e+01   3.448145e+02
  -4.961649e+01   1.584445e+02
  -3.032923e+01   7.406452e+01
  -1.116078e+02   1.117161e+02
  -2.391295e+02   8.103953e+01
  -2.587481e+02  -1.008288e+02
  -1.150474e+02  -2.661528e+02
   8.880851e+01  -2.165035e+02
   2.061956e+02   2.525402e+01
   1.583645e+02   2.471105e+02
  -3.580263e+01   2.684052e+02
  -2.568004e+02   8.160726e+01
  -3.309414e+02  -1.716576e+02
  -1.802027e+02  -3.180233e+02
   6.368698e+01  -2.833241e+02
   1.859645e+02  -1.493758e+02
   1.502574e+02  -6.149429e+01
   1.363497e+02  -6.207739e+01
   2.707851e+02  -4.911328e+01
   4.174934e+02   8.215348e+01
   3.330162e+02   2.970332e+02
  -1.459108e+01   4.480737e+02
  -3.791489e+02   4.127850e+02
  -4.895123e+02   1.894707e+02
  -3.075730e+02  -9.801485e+01
  -3.185104e+01  -2.685260e+02
   1.044886e+02  -2.178674e+02
   3.168562e+01  -3.545467e+01
  -1.178402e+02   6.163609e+01
  -1.524834e+02  -2.865321e+01
  -2.137126e+01  -1.605230e+02
   1.316592e+02  -1.268882e+02
   1.321693e+02   5.542165e+01
  -2.511126e+01   1.519025e+02
  -1.742976e+02   1.068492e+01
  -1.600683e+02  -2.418808e+02
   2.042474e+01  -3.509046e+02
   2.414645e+02  -2.103458e+02
   3.567348e+02   5.941906e+01
   2.871053e+02   2.588737e+02
   7.394031e+01   2.773374e+02
  -1.264742e+02   1.500990e+02
  -1.617341e+02   1.111696e+01
  -4.232306e+01  -1.938613e+01
   5.815079e+01   5.624706e+01
   6.089911e+00   1.198015e+02
  -1.266750e+02   7.814093e+01
  -1.591256e+02  -2.283572e+01
  -3.958487e+01  -6.125512e+01
   8.404346e+01   4.280937e+00
   4.494312e+01   8.989983e+01
  -1.445280e+02   9.117303e+01
  -3.034194e+02  -1.391730e+01
  -2.660239e+02  -1.640182e+02
  -3.911966e+01  -2.666714e+02
   2.043262e+02  -2.480638e+02
   2.779304e+02  -1.085373e+02
   1.496278e+02   4.771976e+01
  -2.894906e+01   8.868974e+01
  -7.311661e+01  -1.285144e+00
   4.855324e+01  -8.838397e+01
   1.917878e+02  -4.217217e+01
   1.994019e+02   1.045713e+02
   6.186561e+01   1.967724e+02
  -9.124924e+01   1.449103e+02
  -1.326697e+02   2.108200e+01
  -5.369548e+01  -3.848165e+01
   4.013119e+01   1.485807e+01
   3.187641e+01   1.053453e+02
  -9.161670e+01   1.206479e+02
  -2.124071e+02   1.894514e+01
  -1.896584e+02  -1.333459e+02
  -1.506274e+01  -2.154916e+02
   1.605841e+02  -1.581956e+02
   1.829822e+02  -1.117599e+01
   5.944976e+01   1.014089e+02
  -6.362936e+01   1.016999e+02
  -7.468878e+01   2.707976e+01
  -5.721135e+00  -2.590446e+01
   3.418837e+01  -1.202844e+01
  -8.767917e+00   2.193783e+01
  -8.596740e+01   4.514945e-01
  -1.043688e+02  -9.003185e+01
  -1.413345e+01  -1.753082e+02
   1.403990e+02  -1.580030e+02
   2.426142e+02  -1.626084e+01
   2.001095e+02   1.584948e+02
   4.079732e+01   2.351452e+02
  -1.041035e+02   1.661522e+02
  -1.331562e+02   3.172793e+01
  -7.477552e+01  -4.713760e+01
  -3.345397e+01  -3.090503e+01
  -5.611898e+01   1.474581e+01
  -8.763248e+01   8.005403e+00
  -5.484182e+01  -5.604337e+01
   4.008090e+01  -1.046052e+02
   1.197934e+02  -6.793268e+01
   1.048953e+02   4.198940e+01
  -1.532397e+01   1.284364e+02
  -1.612616e+02   9.303965e+01
  -2.091817e+02  -6.175353e+01
  -9.239082e+01  -2.145028e+02
   1.214357e+02  -2.293725e+02
   2.725877e+02  -8.880076e+01
   2.532070e+02   8.941317e+01
   1.045130e+02   1.736114e+02
  -3.957977e+01   1.431647e+02
  -9.102099e+01   8.314467e+01
  -7.265986e+01   7.168578e+01
  -6.053140e+01   9.608724e+01
  -9.185063e+01   8.088746e+01
  -1.337176e+02  -1.807665e+01
  -1.227570e+02  -1.558011e+02
  -2.989476e+01  -2.299907e+02
   1.005018e+02  -1.720673e+02
   1.747610e+02  -1.517132e+01
   1.323669e+02   1.274367e+02
   1.304181e+01   1.601031e+02
  -7.449050e+01   8.576589e+01
  -6.367385e+01  -1.050461e+01
   1.299439e+00  -5.232471e+01
   2.314799e+01  -3.678311e+01
  -3.002572e+01  -1.346291e+01
  -8.515329e+01  -1.840941e+01
  -5.029697e+01  -3.999538e+01
   7.210852e+01  -4.088729e+01
   1.736837e+02  -8.991508e-01
   1.477183e+02   6.067222e+01
   4.016636e+00   9.790051e+01
  -1.333582e+02   7.642103e+01
  -1.483515e+02   8.664946e+00
  -4.666564e+01  -4.879436e+01
   6.072536e+01  -4.391444e+01
   7.940561e+01   1.779423e+01
   1.772995e+01   7.375482e+01
  -4.840368e+01   6.596050e+01
  -6.881637e+01   2.360695e+00
  -5.653630e+01  -5.084803e+01
  -4.847397e+01  -4.339111e+01
  -5.783935e+01  -1.400775e+00
  -6.652957e+01  -3.297287e-01
  -4.413186e+01  -7.235867e+01
   2.702404e+01  -1.546046e+02
   1.244694e+02  -1.492813e+02
   1.802532e+02  -3.621579e+01
   1.327703e+02   9.442854e+01
   4.656813e+00   1.343336e+02
  -9.225904e+01   7.012283e+01
  -6.316605e+01  -1.109015e+01
   5.918720e+01  -2.157895e+01
   1.374699e+02   4.119646e+01
   7.408953e+01   1.076835e+02
  -8.335537e+01   1.125801e+02
  -1.922966e+02   4.839823e+01
  -1.609594e+02  -3.847489e+01
  -3.341257e+01  -8.665058e+01
   6.405742e+01  -6.482290e+01
   4.961640e+01  -1.166174e+00
  -4.019827e+01   3.124751e+01
  -9.426252e+01  -1.919838e+01
  -4.081390e+01  -1.177823e+02
   8.089559e+01  -1.594978e+02
   1.614418e+02  -7.243630e+01
   1.301224e+02   9.288884e+01
   1.813863e+01   1.962835e+02
  -8.219593e+01   1.447249e+02
  -1.059540e+02  -9.285896e+00
  -5.862481e+01  -1.210967e+02
   9.640079e+00  -1.055125e+02
   5.105740e+01  -1.678931e+01
   4.800343e+01   3.206663e+01
   1.924796e+01   7.634363e+00
   5.367610e+00  -1.858230e+01
   2.898143e+01   1.976434e+01
   5.943980e+01   9.043348e+01
   3.614918e+01   1.073559e+02
  -5.425112e+01   4.445819e+01
  -1.389309e+02  -3.651309e+01
  -1.272242e+02  -6.922662e+01
  -1.923113e+01  -5.305600e+01
   8.307283e+01  -2.656043e+01
   8.817600e+01  -7.387614e+00
   1.638334e+01   1.056384e+01
  -3.558834e+01   2.243966e+01
  -1.842247e+01   1.450254e+01
   1.646972e+01  -3.642569e+00
  -3.618584e+00  -6.426872e+00
  -6.933674e+01   9.598799e-01
  -9.453862e+01  -2.099795e+01
  -2.045504e+01  -8.177940e+01
   1.096032e+02  -1.210085e+02
   1.895292e+02  -6.907946e+01
   1.538545e+02   5.873434e+01
   3.418939e+01   1.618545e+02
  -7.870586e+01   1.579629e+02
  -1.169161e+02   6.725230e+01
  -8.223174e+01  -1.857619e+01
  -2.722889e+01  -3.759352e+01
  -1.528619e+00  -1.226692e+01
  -1.343908e+01  -7.379741e+00
  -3.217529e+01  -4.870551e+01
  -2.067580e+01  -9.209391e+01
   2.852271e+01  -7.342762e+01
   8.051683e+01   1.460485e+01
   8.244587e+01   1.032122e+02
   1.433008e+01   1.122173e+02
  -7.702488e+01   3.219656e+01
  -1.079785e+02  -6.616871e+01
  -4.100217e+01  -1.039784e+02
   6.422784e+01  -6.472746e+01
   1.043931e+02   6.666132e+00
   4.616333e+01   5.644013e+01
  -3.332321e+01   6.112829e+01
  -3.831062e+01   3.026897e+01
   2.815362e+01  -5.270934e+00
   6.945098e+01  -9.892981e+00
   1.842975e+01   2.685501e+01
  -7.866536e+01   6.811020e+01
  -1.207814e+02   5.746938e+01
  -7.107044e+01  -1.476073e+01
   1.263693e+01  -8.623931e+01
   5.626194e+01  -8.478140e+01
   4.367805e+01  -1.238379e+01
   7.077900e+00   5.370533e+01
  -2.348389e+01   4.827717e+01
  -3.746870e+01  -1.149237e+01
  -2.964079e+01  -5.410909e+01
   3.659524e-01  -3.889082e+01
   3.392378e+01   5.200680e+00
   4.267032e+01   2.400158e+01
   2.123874e+01   3.711047e+00
  -3.663078e+00  -1.883642e+01
  -7.049680e+00  -5.918728e+00
   2.203288e+00   3.326430e+01
  -3.512596e+00   5.165033e+01
  -2.797684e+01   1.960745e+01
  -3.982764e+01  -3.681161e+01
  -1.097764e+01  -6.058664e+01
   4.131020e+01  -2.582726e+01
   6.298311e+01   3.358774e+01
   2.005589e+01   6.146832e+01
  -5.662211e+01   3.738272e+01
  -9.403572e+01  -1.051411e+01
  -5.221169e+01  -4.307335e+01
   2.814056e+01  -4.584633e+01
   6.567390e+01  -2.849306e+01
   2.823163e+01  -7.231254e+00
  -3.070232e+01   2.701783e+00
  -3.503990e+01  -7.893753e+00
   2.473669e+01  -2.749597e+01
   8.194498e+01  -2.261495e+01
