
 $NMID
 id='ANONYMOUS ', fmtdat='(2E16.6)'
 volume=1.0
 tramp=1.0
 $END
  -4.305023e+03  -3.225914e+00
  -2.464045e+03  -2.642678e+03
   8.228717e+02  -2.725104e+03
   2.149612e+03  -7.819408e+02
   8.993409e+02   7.644479e+02
  -7.349030e+02   6.054516e+02
  -9.251391e+02  -4.713726e+02
   2.494459e+01  -1.096463e+03
   8.545414e+02  -7.684264e+02
   9.390651e+02   1.276089e+02
   4.246282e+02   8.816548e+02
  -2.760839e+02   8.837488e+02
  -6.604073e+02   9.387280e+01
  -3.821948e+02  -7.361423e+02
   2.873985e+02  -7.452420e+02
   6.115486e+02   2.484229e+01
   2.510703e+02   6.840411e+02
  -3.451824e+02   6.057455e+02
  -5.764460e+02   5.509395e+01
  -3.593621e+02  -3.662065e+02
   4.747150e+00  -4.289041e+02
   2.507304e+02  -2.525245e+02
   2.240249e+02  -6.062673e+00
  -9.856322e+01   1.081153e+02
  -4.060608e+02  -8.569131e+01
  -2.186106e+02  -4.217883e+02
   4.386235e+02  -4.266749e+02
   8.449998e+02   5.996528e+01
   4.386604e+02   5.535902e+02
  -3.870634e+02   5.011975e+02
  -7.469442e+02  -2.335813e+01
  -3.522008e+02  -4.794343e+02
   2.749221e+02  -5.178730e+02
   5.582220e+02  -2.006250e+02
   4.106515e+02   2.299330e+02
   6.362250e+01   4.784549e+02
  -2.161191e+02   2.863147e+02
  -1.944952e+02  -2.262153e+02
   1.567226e+02  -4.577127e+02
   4.613806e+02   7.715225e-01
   2.650251e+02   6.792918e+02
  -3.174278e+02   7.089997e+02
  -6.195927e+02   3.207413e+00
  -2.677380e+02  -5.662043e+02
   3.001576e+02  -3.319683e+02
   3.987835e+02   3.175750e+02
  -5.920350e+01   5.457350e+02
  -5.463718e+02   1.406009e+02
  -5.822198e+02  -3.953809e+02
  -1.577801e+02  -5.731083e+02
   3.785189e+02  -3.412375e+02
   6.173071e+02   7.446322e+01
   3.619084e+02   3.885818e+02
  -1.639330e+02   3.699272e+02
  -4.479076e+02   4.833759e+01
  -2.356127e+02  -2.144348e+02
   1.327784e+02  -1.165285e+02
   1.530390e+02   1.633441e+02
  -1.671584e+02   1.994039e+02
  -3.510951e+02  -7.509485e+01
  -1.378010e+02  -3.039584e+02
   2.049393e+02  -2.487881e+02
   3.149230e+02  -5.654831e+01
   1.738178e+02   8.168927e+01
  -2.780120e+01   1.949650e+02
  -1.978183e+02   2.990531e+02
  -3.139210e+02   2.157080e+02
  -2.857536e+02  -1.240977e+02
  -8.131313e+01  -4.268358e+02
   1.224359e+02  -3.783082e+02
   1.334201e+02  -9.918773e+01
   2.434962e+01   3.079429e+01
   2.465215e+01  -7.587425e+01
   1.737099e+02  -1.356364e+02
   2.703186e+02   3.672768e+01
   1.644650e+02   2.576960e+02
  -6.217509e+01   2.554855e+02
  -2.221976e+02   2.057088e+01
  -1.995573e+02  -2.268878e+02
   1.838280e+00  -2.876881e+02
   2.555023e+02  -1.213450e+02
   3.523824e+02   1.566148e+02
   1.819967e+02   3.424367e+02
  -1.017505e+02   2.999664e+02
  -2.269569e+02   1.107177e+02
  -1.453797e+02  -8.082725e+00
  -8.586774e+01   2.592633e+01
  -2.122569e+02   6.527699e+01
  -3.759744e+02  -4.708820e+01
  -3.160188e+02  -2.663343e+02
  -2.497025e+00  -4.187317e+02
   3.353297e+02  -3.930724e+02
   4.624586e+02  -1.952758e+02
   3.273158e+02   8.572594e+01
   5.921898e+01   2.860320e+02
  -1.289865e+02   2.509652e+02
  -9.081970e+01   2.804608e+01
   1.017929e+02  -1.148169e+02
   1.986064e+02  -1.480769e+00
   5.689644e+01   1.960465e+02
  -1.607745e+02   1.771845e+02
  -1.839363e+02  -5.794279e+01
   1.324113e+01  -1.951946e+02
   1.905852e+02  -3.811890e+01
   1.576902e+02   2.371361e+02
  -3.215331e+01   3.320933e+02
  -2.161942e+02   1.784024e+02
  -3.012880e+02  -6.054591e+01
  -2.605613e+02  -2.201615e+02
  -9.573819e+01  -2.456494e+02
   1.036292e+02  -1.551474e+02
   1.731708e+02  -2.333094e+01
   6.089070e+01   3.383049e+01
  -6.941508e+01  -3.163093e+01
  -3.495004e+01  -1.202039e+02
   1.167740e+02  -1.014142e+02
   1.755071e+02   8.434325e+00
   6.113434e+01   7.195568e+01
  -7.465101e+01   2.173929e+01
  -5.527027e+01  -6.434076e+01
   1.106946e+02  -8.077596e+01
   2.601679e+02  -3.720717e+00
   2.481556e+02   1.247372e+02
   6.346888e+01   2.374023e+02
  -1.678478e+02   2.513762e+02
  -2.702594e+02   1.263296e+02
  -1.681408e+02  -4.919694e+01
   2.124362e+01  -1.106363e+02
   9.178526e+01  -1.143779e+01
  -2.577697e+01   1.003307e+02
  -1.867208e+02   6.250558e+01
  -2.075274e+02  -9.564264e+01
  -6.929102e+01  -2.007426e+02
   8.988500e+01  -1.547873e+02
   1.402864e+02  -3.079283e+01
   7.246450e+01   4.005164e+01
  -2.239104e+01   8.310151e+00
  -3.717861e+01  -7.147627e+01
   6.088276e+01  -1.042550e+02
   1.821757e+02  -3.121102e+01
   1.823125e+02   1.123745e+02
   2.340808e+01   2.072300e+02
  -1.565895e+02   1.586292e+02
  -1.881083e+02   5.692338e+00
  -6.478726e+01  -1.127899e+02
   6.382383e+01  -1.097649e+02
   8.189575e+01  -3.081060e+01
   2.173794e+01   2.460126e+01
  -1.637045e+01   1.971879e+01
   9.473024e+00  -3.329521e+00
   6.207975e+01   1.061678e+01
   7.840117e+01   7.410429e+01
   1.526475e+01   1.434574e+02
  -1.134056e+02   1.423462e+02
  -2.170486e+02   2.873826e+01
  -1.918702e+02  -1.374945e+02
  -4.151821e+01  -2.247510e+02
   1.037176e+02  -1.627460e+02
   1.296131e+02  -2.518525e+01
   6.595880e+01   5.505576e+01
   2.575719e+01   3.541484e+01
   4.949968e+01  -1.091560e+01
   7.275523e+01  -5.895852e+00
   3.568766e+01   4.469419e+01
  -4.006414e+01   7.777189e+01
  -9.073627e+01   4.860047e+01
  -7.461688e+01  -3.080482e+01
   1.135827e+01  -9.821291e+01
   1.264874e+02  -7.948235e+01
   1.820200e+02   4.308859e+01
   9.856755e+01   1.847217e+02
  -9.370092e+01   2.158863e+02
  -2.493131e+02   9.492168e+01
  -2.451623e+02  -7.826408e+01
  -1.064444e+02  -1.673325e+02
   3.548949e+01  -1.407349e+02
   9.004922e+01  -8.039835e+01
   7.670264e+01  -6.534679e+01
   6.450198e+01  -8.445744e+01
   8.684436e+01  -6.819073e+01
   1.191549e+02   2.136793e+01
   1.099037e+02   1.439684e+02
   2.897934e+01   2.116294e+02
  -9.152847e+01   1.629317e+02
  -1.656027e+02   2.204102e+01
  -1.305129e+02  -1.123350e+02
  -2.083306e+01  -1.503179e+02
   6.085859e+01  -8.941807e+01
   5.566689e+01  -4.228345e+00
   6.627082e+00   3.731860e+01
  -5.988177e+00   3.194432e+01
   3.587538e+01   1.845616e+01
   7.280564e+01   2.232791e+01
   4.053149e+01   3.519603e+01
  -5.724896e+01   3.375978e+01
  -1.436525e+02   4.070838e+00
  -1.334536e+02  -4.481020e+01
  -1.812799e+01  -8.041809e+01
   1.092189e+02  -6.943572e+01
   1.354255e+02  -1.469270e+01
   4.629761e+01   3.598286e+01
  -5.614490e+01   3.362473e+01
  -7.035174e+01  -1.782564e+01
  -4.751103e+00  -6.261033e+01
   5.410868e+01  -5.228302e+01
   5.787649e+01   2.903539e+00
   3.813212e+01   4.654852e+01
   3.952373e+01   3.868783e+01
   5.854623e+01   2.223744e+00
   6.196887e+01   4.507322e-01
   3.079906e+01   6.193168e+01
  -3.178163e+01   1.341064e+02
  -1.061482e+02   1.305319e+02
  -1.492044e+02   3.103353e+01
  -1.132087e+02  -8.385193e+01
  -7.298208e+00  -1.159146e+02
   7.851787e+01  -5.564127e+01
   5.531654e+01   1.486520e+01
  -5.530546e+01   1.863676e+01
  -1.291078e+02  -4.077447e+01
  -7.222100e+01  -1.002236e+02
   7.434363e+01  -1.057439e+02
   1.785347e+02  -5.066246e+01
   1.533054e+02   2.962152e+01
   3.654333e+01   8.120900e+01
  -5.598867e+01   6.775631e+01
  -4.589758e+01   8.897375e+00
   3.571928e+01  -2.420364e+01
   8.391636e+01   2.153137e+01
   2.928102e+01   1.112226e+02
  -8.774376e+01   1.434527e+02
  -1.581759e+02   5.637044e+01
  -1.182118e+02  -9.569560e+01
  -8.425161e+00  -1.853857e+02
   8.041623e+01  -1.353876e+02
   9.777499e+01   5.027012e+00
   5.807592e+01   1.094295e+02
   1.071557e+00   1.002796e+02
  -4.145712e+01   2.020948e+01
  -5.010139e+01  -2.882539e+01
  -2.627676e+01  -8.321676e+00
  -3.216267e+00   1.991307e+01
  -1.702160e+01  -1.257963e+01
  -5.155442e+01  -8.215782e+01
  -4.158230e+01  -1.030802e+02
   4.161409e+01  -4.291028e+01
   1.295916e+02   3.731042e+01
   1.228886e+02   6.660528e+01
   1.623495e+01   4.555064e+01
  -8.372507e+01   1.979935e+01
  -8.288629e+01   7.602467e+00
  -8.628709e+00  -5.859426e+00
   3.693730e+01  -2.102111e+01
   1.198731e+01  -1.822791e+01
  -2.143049e+01   7.991429e-01
   5.969724e+00   9.299999e+00
   7.097560e+01   4.945510e+00
   8.485921e+01   2.291080e+01
   4.625779e+00   7.454889e+01
  -1.132361e+02   1.050965e+02
  -1.722773e+02   5.205777e+01
  -1.290724e+02  -6.515462e+01
  -2.199725e+01  -1.515006e+02
   7.359577e+01  -1.380490e+02
   1.058312e+02  -5.247578e+01
   7.497598e+01   2.084368e+01
   2.271182e+01   3.239857e+01
  -4.056595e+00   7.060921e+00
   8.645283e+00   2.757484e+00
   3.137957e+01   4.178129e+01
   2.209409e+01   8.355641e+01
  -2.734349e+01   6.653259e+01
  -7.607101e+01  -1.832061e+01
  -7.066364e+01  -1.026083e+02
  -1.281425e+00  -1.048284e+02
   7.845055e+01  -1.989526e+01
   9.493156e+01   7.302945e+01
   2.753058e+01   9.650458e+01
  -6.262265e+01   4.942498e+01
  -8.954263e+01  -1.241313e+01
  -3.468789e+01  -4.546972e+01
   3.029607e+01  -4.570147e+01
   2.712898e+01  -2.583450e+01
  -3.349558e+01  -9.621102e-01
  -6.470845e+01   5.447115e+00
  -1.296395e+01  -2.287683e+01
   7.405357e+01  -6.119138e+01
   1.063725e+02  -5.535895e+01
   5.754463e+01   1.016326e+01
  -1.551971e+01   7.662788e+01
  -4.838897e+01   7.270260e+01
  -3.255817e+01   3.416458e+00
   1.885435e-01  -5.279562e+01
   2.460615e+01  -3.847061e+01
   3.366438e+01   1.903273e+01
   2.396153e+01   5.034949e+01
  -3.258510e+00   2.888969e+01
  -3.068089e+01  -8.901068e+00
  -3.622357e+01  -1.872313e+01
  -1.906603e+01  -2.301284e-01
  -1.349689e-01   1.182674e+01
   6.354135e+00  -5.352085e+00
   8.628780e+00  -3.504910e+01
   1.904949e+01  -3.971517e+01
   3.124243e+01  -3.787937e+00
   2.551760e+01   4.426726e+01
  -5.584533e+00   5.693226e+01
  -4.256188e+01   1.770577e+01
  -5.087872e+01  -3.821131e+01
  -1.196340e+01  -5.933985e+01
   5.068575e+01  -3.079361e+01
   8.139883e+01   1.575877e+01
   4.492450e+01   4.137716e+01
  -2.704061e+01   3.657714e+01
  -6.019002e+01   1.792735e+01
  -2.144827e+01   3.852102e+00
   3.661175e+01   3.491040e+00
   3.594233e+01   1.690810e+01
  -3.039134e+01   3.021519e+01
  -8.776846e+01   1.756115e+01
