
 $NMID
 id='ANONYMOUS ', fmtdat='(2E16.6)'
 volume=1.0
 tramp=1.0
 $END
   3.715935e+03   2.432815e+01
   2.306555e+03   2.063526e+03
  -3.072513e+02   2.352473e+03
  -1.613846e+03   1.100075e+03
  -9.544604e+02  -1.547411e+02
   2.522526e+02  -3.571865e+02
   5.864138e+02   2.421765e+02
   2.580550e+01   7.685079e+02
  -6.128964e+02   6.655599e+02
  -7.723251e+02   9.615940e+00
  -4.402909e+02  -6.616893e+02
   9.916418e+01  -7.543144e+02
   4.451253e+02  -1.572787e+02
   3.041151e+02   5.461597e+02
  -1.821753e+02   6.325625e+02
  -4.927135e+02   4.335157e+01
  -2.888907e+02  -5.723280e+02
   2.093961e+02  -6.324444e+02
   5.202035e+02  -2.005800e+02
   4.226294e+02   2.508981e+02
   8.452314e+01   3.956698e+02
  -1.729994e+02   2.551409e+02
  -1.311779e+02   5.382702e+01
   1.537719e+02   2.237008e+01
   3.306905e+02   2.116150e+02
   7.195775e+01   3.926951e+02
  -4.698431e+02   2.656353e+02
  -7.096106e+02  -1.448932e+02
  -3.083622e+02  -4.439620e+02
   3.550985e+02  -3.193805e+02
   6.059224e+02   9.545115e+01
   2.540616e+02   4.161837e+02
  -2.741533e+02   4.210774e+02
  -5.046038e+02   1.577582e+02
  -3.627744e+02  -1.905331e+02
  -7.752279e+01  -3.814888e+02
   1.026988e+02  -2.271544e+02
   4.905085e+01   1.441413e+02
  -1.757763e+02   2.759345e+02
  -3.059073e+02  -9.175234e+01
  -1.090810e+02  -5.755828e+02
   2.826312e+02  -5.522970e+02
   4.462403e+02   7.076454e-02
   1.788266e+02   4.183878e+02
  -2.117703e+02   2.161533e+02
  -2.631525e+02  -2.954315e+02
   9.636483e+01  -4.565367e+02
   4.930060e+02  -8.836089e+01
   5.312560e+02   3.903682e+02
   1.578942e+02   5.362432e+02
  -3.363908e+02   3.005683e+02
  -5.662231e+02  -7.055046e+01
  -3.550843e+02  -3.101370e+02
   9.268727e+01  -2.863776e+02
   3.553733e+02  -7.121863e+01
   2.287863e+02   1.003500e+02
  -4.507600e+01   5.922207e+01
  -8.952758e+01  -9.286916e+01
   1.270276e+02  -1.129859e+02
   2.789802e+02   5.947124e+01
   1.318686e+02   2.391461e+02
  -1.753051e+02   2.520754e+02
  -3.400445e+02   1.090284e+02
  -2.373675e+02  -9.401080e+01
   2.474654e+01  -2.813935e+02
   2.671188e+02  -3.490332e+02
   3.578740e+02  -1.835266e+02
   2.583160e+02   1.538320e+02
   5.962325e+01   3.930235e+02
  -7.104994e+01   3.465663e+02
  -6.432372e+01   1.477264e+02
  -3.046490e+01   5.723527e+01
  -9.936382e+01   1.036857e+02
  -2.285819e+02   8.503452e+01
  -2.569687e+02  -9.420598e+01
  -1.177011e+02  -2.645071e+02
   8.725950e+01  -2.194133e+02
   2.066224e+02   2.116974e+01
   1.597159e+02   2.444848e+02
  -3.434170e+01   2.687261e+02
  -2.558267e+02   8.320014e+01
  -3.291465e+02  -1.729562e+02
  -1.744736e+02  -3.219884e+02
   7.310830e+01  -2.828412e+02
   1.930277e+02  -1.397505e+02
   1.494207e+02  -4.831311e+01
   1.286912e+02  -5.406532e+01
   2.606322e+02  -4.709272e+01
   4.068426e+02   8.248005e+01
   3.235310e+02   2.951270e+02
  -1.856566e+01   4.400582e+02
  -3.758321e+02   4.010611e+02
  -4.845629e+02   1.816623e+02
  -3.067879e+02  -9.993664e+01
  -3.180699e+01  -2.695873e+02
   1.105658e+02  -2.197313e+02
   4.090526e+01  -3.370105e+01
  -1.153624e+02   6.743310e+01
  -1.578307e+02  -2.606873e+01
  -2.425956e+01  -1.649409e+02
   1.368592e+02  -1.316325e+02
   1.381779e+02   5.725452e+01
  -2.530451e+01   1.569092e+02
  -1.755662e+02   1.219770e+01
  -1.549364e+02  -2.417254e+02
   2.725159e+01  -3.451642e+02
   2.390060e+02  -2.003510e+02
   3.448313e+02   6.450119e+01
   2.770729e+02   2.553815e+02
   7.253139e+01   2.715419e+02
  -1.242907e+02   1.478357e+02
  -1.623959e+02   1.050799e+01
  -4.454552e+01  -2.201482e+01
   5.854552e+01   5.295345e+01
   8.630605e+00   1.190104e+02
  -1.253509e+02   7.918253e+01
  -1.600481e+02  -2.281460e+01
  -4.165352e+01  -6.296110e+01
   8.189334e+01   1.579412e+00
   4.479684e+01   8.601926e+01
  -1.397074e+02   8.673533e+01
  -2.943947e+02  -1.570155e+01
  -2.588569e+02  -1.608233e+02
  -3.851702e+01  -2.608024e+02
   2.009534e+02  -2.436358e+02
   2.762708e+02  -1.062962e+02
   1.506014e+02   4.976457e+01
  -2.884373e+01   9.089843e+01
  -7.534723e+01  -4.049432e-01
   4.603976e+01  -8.877245e+01
   1.901806e+02  -4.208567e+01
   1.975807e+02   1.053734e+02
   5.962595e+01   1.968030e+02
  -9.248482e+01   1.439692e+02
  -1.331234e+02   2.044375e+01
  -5.556055e+01  -3.919307e+01
   3.689819e+01   1.187328e+01
   3.082813e+01   9.991109e+01
  -8.810362e+01   1.158716e+02
  -2.065200e+02   1.746965e+01
  -1.851316e+02  -1.319978e+02
  -1.301510e+01  -2.128449e+02
   1.611166e+02  -1.547030e+02
   1.825630e+02  -7.572835e+00
   5.833281e+01   1.032374e+02
  -6.467150e+01   1.012183e+02
  -7.561191e+01   2.634972e+01
  -7.710201e+00  -2.557274e+01
   3.141010e+01  -1.256509e+01
  -9.162968e+00   1.883854e+01
  -8.174654e+01  -2.529450e+00
  -9.831723e+01  -8.853960e+01
  -1.155908e+01  -1.694009e+02
   1.376361e+02  -1.523449e+02
   2.371655e+02  -1.439906e+01
   1.949987e+02   1.571103e+02
   3.711374e+01   2.324223e+02
  -1.057258e+02   1.628605e+02
  -1.321064e+02   2.853283e+01
  -7.220425e+01  -4.909819e+01
  -3.159424e+01  -3.186093e+01
  -5.492525e+01   1.321877e+01
  -8.485536e+01   6.309665e+00
  -5.069704e+01  -5.475348e+01
   4.136681e+01  -9.918442e+01
   1.155496e+02  -6.269346e+01
   9.890631e+01   4.158621e+01
  -1.655630e+01   1.226852e+02
  -1.562068e+02   8.786274e+01
  -2.025802e+02  -6.160846e+01
  -8.941810e+01  -2.097620e+02
   1.197524e+02  -2.237876e+02
   2.683418e+02  -8.499971e+01
   2.487648e+02   9.081403e+01
   1.014512e+02   1.729073e+02
  -4.078424e+01   1.411382e+02
  -9.142641e+01   8.076446e+01
  -7.379560e+01   6.912834e+01
  -6.211561e+01   9.272833e+01
  -9.162413e+01   7.700418e+01
  -1.302607e+02  -2.043560e+01
  -1.175824e+02  -1.546855e+02
  -2.610883e+01  -2.259461e+02
   1.009522e+02  -1.679062e+02
   1.722872e+02  -1.349998e+01
   1.291932e+02   1.261636e+02
   1.174072e+01   1.576112e+02
  -7.313773e+01   8.455471e+01
  -6.181139e+01  -9.156469e+00
   8.907442e-01  -4.963810e+01
   2.093726e+01  -3.540882e+01
  -3.049341e+01  -1.454929e+01
  -8.238937e+01  -2.014008e+01
  -4.785003e+01  -3.973102e+01
   6.994351e+01  -3.841818e+01
   1.678645e+02   1.241637e+00
   1.435419e+02   6.002984e+01
   4.641930e+00   9.456838e+01
  -1.298601e+02   7.278885e+01
  -1.454118e+02   7.298831e+00
  -4.552056e+01  -4.718667e+01
   6.024587e+01  -4.113046e+01
   7.718424e+01   1.885289e+01
   1.453280e+01   7.180571e+01
  -4.989877e+01   6.269947e+01
  -6.669557e+01   5.153454e-01
  -5.258019e+01  -5.068421e+01
  -4.611367e+01  -4.308764e+01
  -5.749476e+01  -2.367020e+00
  -6.534009e+01  -1.334934e+00
  -4.070594e+01  -7.091850e+01
   2.985536e+01  -1.499667e+02
   1.230100e+02  -1.434711e+02
   1.747662e+02  -3.245240e+01
   1.274169e+02   9.411945e+01
   3.007714e+00   1.306162e+02
  -9.055579e+01   6.603040e+01
  -6.135269e+01  -1.252196e+01
   5.848295e+01  -2.009403e+01
   1.345732e+02   4.286787e+01
   7.165284e+01   1.068506e+02
  -8.304627e+01   1.094631e+02
  -1.894952e+02   4.551767e+01
  -1.580205e+02  -3.924023e+01
  -3.234754e+01  -8.567070e+01
   6.331385e+01  -6.382274e+01
   4.868950e+01  -1.585377e+00
  -3.969511e+01   2.935093e+01
  -9.171828e+01  -2.081516e+01
  -3.702014e+01  -1.165344e+02
   8.370498e+01  -1.547034e+02
   1.608389e+02  -6.708354e+01
   1.259875e+02   9.455867e+01
   1.362292e+01   1.934574e+02
  -8.346504e+01   1.410195e+02
  -1.037849e+02  -1.015129e+01
  -5.629783e+01  -1.192986e+02
   9.518056e+00  -1.037755e+02
   4.947010e+01  -1.641064e+01
   4.748288e+01   3.204332e+01
   2.005302e+01   7.953678e+00
   5.275085e+00  -1.856156e+01
   2.665735e+01   1.898016e+01
   5.645808e+01   8.939994e+01
   3.510733e+01   1.064339e+02
  -5.259835e+01   4.307134e+01
  -1.359469e+02  -3.842658e+01
  -1.245941e+02  -7.019914e+01
  -1.784018e+01  -5.181632e+01
   8.295396e+01  -2.411705e+01
   8.682827e+01  -6.054759e+00
   1.492756e+01   1.002972e+01
  -3.585962e+01   2.153502e+01
  -1.752209e+01   1.467384e+01
   1.715351e+01  -2.951414e+00
  -3.856077e+00  -6.861891e+00
  -6.909003e+01  -9.588975e-01
  -9.206566e+01  -2.254089e+01
  -1.669547e+01  -8.040569e+01
   1.111449e+02  -1.160926e+02
   1.865588e+02  -6.317019e+01
   1.481106e+02   6.157562e+01
   2.968896e+01   1.596085e+02
  -7.971126e+01   1.526092e+02
  -1.153875e+02   6.277720e+01
  -8.025263e+01  -2.000512e+01
  -2.578078e+01  -3.693837e+01
  -4.850805e-01  -1.142163e+01
  -1.249908e+01  -6.833510e+00
  -3.108480e+01  -4.777345e+01
  -1.936214e+01  -9.042114e+01
   2.922687e+01  -7.141623e+01
   7.903540e+01   1.625202e+01
   7.852839e+01   1.035866e+02
   1.058620e+01   1.104975e+02
  -7.716008e+01   2.896584e+01
  -1.042385e+02  -6.832465e+01
  -3.711679e+01  -1.027017e+02
   6.448641e+01  -6.098501e+01
   1.012842e+02   9.048394e+00
   4.323651e+01   5.506379e+01
  -3.354513e+01   5.784779e+01
  -3.679171e+01   2.879027e+01
   2.883724e+01  -3.884437e+00
   6.837020e+01  -8.115584e+00
   1.706470e+01   2.633528e+01
  -7.839881e+01   6.538923e+01
  -1.185575e+02   5.491564e+01
  -6.827390e+01  -1.502800e+01
   1.426603e+01  -8.396357e+01
   5.592519e+01  -8.148288e+01
   4.187179e+01  -1.027570e+01
   5.134675e+00   5.328339e+01
  -2.420640e+01   4.609248e+01
  -3.645768e+01  -1.310332e+01
  -2.775791e+01  -5.358464e+01
   1.389924e+00  -3.709098e+01
   3.311053e+01   6.226081e+00
   4.101628e+01   2.366638e+01
   2.069192e+01   3.475239e+00
  -2.773302e+00  -1.769856e+01
  -6.786367e+00  -4.279428e+00
   6.466356e-02   3.333535e+01
  -6.612053e+00   4.943762e+01
  -2.857578e+01   1.666693e+01
  -3.684028e+01  -3.827267e+01
  -7.496918e+00  -5.977198e+01
   4.158501e+01  -2.380151e+01
   6.019855e+01   3.498381e+01
   1.777457e+01   6.099745e+01
  -5.586627e+01   3.526414e+01
  -9.128053e+01  -1.263537e+01
  -5.008396e+01  -4.327836e+01
   2.845630e+01  -4.368851e+01
   6.479400e+01  -2.570809e+01
   2.710974e+01  -6.239723e+00
  -3.141452e+01   1.303845e+00
  -3.481258e+01  -9.710410e+00
   2.580643e+01  -2.734498e+01
   8.255363e+01  -2.048367e+01
