
 $NMID
 id='ANONYMOUS ', fmtdat='(2E16.6)'
 volume=1.0
 tramp=1.0
 $END
   4.464047e+03  -3.143583e+01
   2.589472e+03   2.712819e+03
  -8.116198e+02   2.839766e+03
  -2.218568e+03   8.530180e+02
  -9.560964e+02  -7.644466e+02
   7.361637e+02  -6.327208e+02
   9.561064e+02   4.696958e+02
  -1.145409e+01   1.129661e+03
  -8.739278e+02   8.062302e+02
  -9.751395e+02  -1.182035e+02
  -4.528743e+02  -9.073330e+02
   2.722297e+02  -9.207492e+02
   6.794782e+02  -1.085920e+02
   4.027797e+02   7.555520e+02
  -2.885406e+02   7.758465e+02
  -6.338455e+02  -1.700847e+01
  -2.697771e+02  -7.076598e+02
   3.506196e+02  -6.377438e+02
   6.010276e+02  -6.877388e+01
   3.821479e+02   3.756242e+02
   2.396778e+00   4.475479e+02
  -2.564978e+02   2.664616e+02
  -2.301620e+02   1.151663e+01
   1.025729e+02  -1.062862e+02
   4.185033e+02   9.165517e+01
   2.241989e+02   4.349318e+02
  -4.538628e+02   4.396955e+02
  -8.742445e+02  -5.922246e+01
  -4.567620e+02  -5.676263e+02
   3.962712e+02  -5.172549e+02
   7.716605e+02   2.090442e+01
   3.668237e+02   4.935067e+02
  -2.820898e+02   5.374709e+02
  -5.780301e+02   2.115739e+02
  -4.282951e+02  -2.347976e+02
  -7.156670e+01  -4.945370e+02
   2.174306e+02  -2.992072e+02
   1.988360e+02   2.285129e+02
  -1.585855e+02   4.696303e+02
  -4.725353e+02   3.165497e-01
  -2.750108e+02  -6.996692e+02
   3.226655e+02  -7.349152e+02
   6.382660e+02  -9.866426e+00
   2.810949e+02   5.807138e+02
  -3.050616e+02   3.442382e+02
  -4.119877e+02  -3.256298e+02
   5.874760e+01  -5.649654e+02
   5.658734e+02  -1.484211e+02
   6.075747e+02   4.079904e+02
   1.686990e+02   5.953502e+02
  -3.902543e+02   3.571363e+02
  -6.422493e+02  -7.295690e+01
  -3.809906e+02  -3.994959e+02
   1.640513e+02  -3.842665e+02
   4.631163e+02  -5.578336e+01
   2.487761e+02   2.168433e+02
  -1.327260e+02   1.211857e+02
  -1.588768e+02  -1.651112e+02
   1.698560e+02  -2.056762e+02
   3.636704e+02   7.428858e+01
   1.464401e+02   3.131889e+02
  -2.110233e+02   2.614948e+02
  -3.303713e+02   6.293563e+01
  -1.846574e+02  -8.587995e+01
   2.918831e+01  -2.077490e+02
   2.087735e+02  -3.144109e+02
   3.278120e+02  -2.246842e+02
   2.971126e+02   1.287248e+02
   8.695061e+01   4.429421e+02
  -1.225289e+02   3.948730e+02
  -1.361979e+02   1.077797e+02
  -2.739422e+01  -2.793090e+01
  -2.928242e+01   7.935212e+01
  -1.821805e+02   1.392355e+02
  -2.806746e+02  -3.920115e+01
  -1.708262e+02  -2.674405e+02
   6.392147e+01  -2.648304e+02
   2.302843e+02  -2.108469e+01
   2.074028e+02   2.357122e+02
  -1.413445e+00   2.987552e+02
  -2.652500e+02   1.263368e+02
  -3.672619e+02  -1.616976e+02
  -1.919497e+02  -3.551474e+02
   1.027378e+02  -3.133011e+02
   2.350614e+02  -1.188422e+02
   1.529106e+02   4.969926e+00
   9.195594e+01  -2.816060e+01
   2.230734e+02  -6.769060e+01
   3.934575e+02   4.909763e+01
   3.312111e+02   2.775228e+02
   3.740573e+00   4.375736e+02
  -3.496211e+02   4.118485e+02
  -4.822172e+02   2.055029e+02
  -3.408470e+02  -8.782110e+01
  -6.248677e+01  -2.968695e+02
   1.316914e+02  -2.614885e+02
   9.233909e+01  -3.093266e+01
  -1.053624e+02   1.179436e+02
  -2.048333e+02   2.127769e+00
  -5.953142e+01  -2.022014e+02
   1.647960e+02  -1.841061e+02
   1.901293e+02   5.854673e+01
  -1.256526e+01   2.017448e+02
  -1.974907e+02   3.994579e+01
  -1.657533e+02  -2.466782e+02
   3.156381e+01  -3.474299e+02
   2.259881e+02  -1.880962e+02
   3.167429e+02   6.231740e+01
   2.733815e+02   2.301313e+02
   9.982459e+01   2.565871e+02
  -1.080620e+02   1.618119e+02
  -1.798329e+02   2.495725e+01
  -6.317074e+01  -3.409899e+01
   7.174215e+01   3.341397e+01
   3.596291e+01   1.247143e+02
  -1.212711e+02   1.053225e+02
  -1.822119e+02  -8.168668e+00
  -6.345562e+01  -7.396028e+01
   7.770959e+01  -2.190286e+01
   5.718989e+01   6.765433e+01
  -1.165012e+02   8.473226e+01
  -2.727449e+02   3.927643e+00
  -2.595775e+02  -1.305721e+02
  -6.606303e+01  -2.480259e+02
   1.750805e+02  -2.623745e+02
   2.811994e+02  -1.323849e+02
   1.749074e+02   5.005908e+01
  -2.152780e+01   1.145106e+02
  -9.472794e+01   1.220515e+01
   2.705909e+01  -1.039530e+02
   1.942811e+02  -6.531254e+01
   2.164855e+02   9.885352e+01
   7.311241e+01   2.087071e+02
  -9.280787e+01   1.614988e+02
  -1.456871e+02   3.260243e+01
  -7.507027e+01  -4.103017e+01
   2.365436e+01  -7.601413e+00
   3.843284e+01   7.559840e+01
  -6.439549e+01   1.092336e+02
  -1.908272e+02   3.258677e+01
  -1.907075e+02  -1.171506e+02
  -2.507412e+01  -2.161895e+02
   1.626000e+02  -1.661984e+02
   1.960252e+02  -7.246033e+00
   6.813649e+01   1.167461e+02
  -6.583803e+01   1.145005e+02
  -8.489979e+01   3.253603e+01
  -2.215004e+01  -2.534637e+01
   1.755299e+01  -2.007726e+01
  -1.011701e+01   4.269493e+00
  -6.591181e+01  -1.066381e+01
  -8.294642e+01  -7.788428e+01
  -1.616314e+01  -1.507683e+02
   1.188062e+02  -1.492695e+02
   2.270213e+02  -3.025885e+01
   2.008454e+02   1.433110e+02
   4.432418e+01   2.345647e+02
  -1.073544e+02   1.704132e+02
  -1.352751e+02   2.716903e+01
  -6.955337e+01  -5.688234e+01
  -2.742565e+01  -3.673366e+01
  -5.188341e+01   1.170120e+01
  -7.646341e+01   6.397809e+00
  -3.804311e+01  -4.715866e+01
   4.177224e+01  -8.238320e+01
   9.580797e+01  -5.149521e+01
   7.900890e+01   3.262669e+01
  -1.193283e+01   1.036197e+02
  -1.330635e+02   8.357891e+01
  -1.908469e+02  -4.510593e+01
  -1.030929e+02  -1.931941e+02
   9.785596e+01  -2.257599e+02
   2.603187e+02  -9.974055e+01
   2.562457e+02   8.086087e+01
   1.117397e+02   1.741526e+02
  -3.645083e+01   1.469951e+02
  -9.355730e+01   8.442554e+01
  -7.957618e+01   6.887492e+01
  -6.683271e+01   8.894725e+01
  -9.059194e+01   7.200887e+01
  -1.250054e+02  -2.173332e+01
  -1.157210e+02  -1.502127e+02
  -3.112007e+01  -2.212878e+02
   9.506832e+01  -1.706367e+02
   1.728425e+02  -2.346853e+01
   1.365587e+02   1.170732e+02
   2.208034e+01   1.569195e+02
  -6.346902e+01   9.322880e+01
  -5.812311e+01   4.005745e+00
  -6.570669e+00  -3.935537e+01
   6.824484e+00  -3.327619e+01
  -3.735831e+01  -1.876761e+01
  -7.659585e+01  -2.292596e+01
  -4.277222e+01  -3.682515e+01
   6.021765e+01  -3.557153e+01
   1.509292e+02  -4.437358e+00
   1.397401e+02   4.685605e+01
   1.851513e+01   8.424463e+01
  -1.145882e+02   7.291066e+01
  -1.415726e+02   1.561815e+01
  -4.829639e+01  -3.778802e+01
   5.870896e+01  -3.570634e+01
   7.382303e+01   1.834727e+01
   5.635649e+00   6.590779e+01
  -5.612995e+01   5.544439e+01
  -6.088659e+01  -2.674521e+00
  -4.068019e+01  -4.878931e+01
  -4.170933e+01  -4.045591e+01
  -6.105345e+01  -1.959975e+00
  -6.481076e+01  -2.004836e-01
  -3.282187e+01  -6.503656e+01
   3.254543e+01  -1.409112e+02
   1.110057e+02  -1.371638e+02
   1.567412e+02  -3.290085e+01
   1.191276e+02   8.755307e+01
   7.851412e+00   1.215336e+02
  -8.234846e+01   5.881375e+01
  -5.813657e+01  -1.517469e+01
   5.777480e+01  -1.979142e+01
   1.351883e+02   4.197061e+01
   7.581885e+01   1.044551e+02
  -7.742153e+01   1.108123e+02
  -1.864267e+02   5.349893e+01
  -1.602069e+02  -3.053124e+01
  -3.834186e+01  -8.466164e+01
   5.829824e+01  -7.072503e+01
   4.784692e+01  -9.164332e+00
  -3.740479e+01   2.564434e+01
  -8.807548e+01  -2.206748e+01
  -3.149245e+01  -1.162691e+02
   9.070647e+01  -1.508161e+02
   1.650287e+02  -6.022616e+01
   1.243107e+02   9.923217e+01
   1.000431e+01   1.938687e+02
  -8.334695e+01   1.419691e+02
  -1.022533e+02  -5.008066e+00
  -6.100059e+01  -1.142783e+02
  -1.155439e+00  -1.046176e+02
   4.345314e+01  -2.101830e+01
   5.227308e+01   2.988734e+01
   2.718119e+01   8.402501e+00
   3.311499e+00  -2.069897e+01
   1.818252e+01   1.349344e+01
   5.439391e+01   8.585005e+01
   4.364168e+01   1.073624e+02
  -4.369010e+01   4.484346e+01
  -1.357313e+02  -3.832211e+01
  -1.286491e+02  -6.896821e+01
  -1.718090e+01  -4.775864e+01
   8.728587e+01  -2.137719e+01
   8.660542e+01  -8.286518e+00
   9.265087e+00   6.368227e+00
  -3.837617e+01   2.219842e+01
  -1.260055e+01   1.882895e+01
   2.219247e+01  -1.136986e+00
  -6.226767e+00  -9.517235e+00
  -7.407113e+01  -4.516361e+00
  -8.903345e+01  -2.350741e+01
  -5.741642e+00  -7.824775e+01
   1.176239e+02  -1.108983e+02
   1.803253e+02  -5.562925e+01
   1.360360e+02   6.737629e+01
   2.408184e+01   1.584737e+02
  -7.651245e+01   1.450750e+02
  -1.107497e+02   5.571200e+01
  -7.862488e+01  -2.135402e+01
  -2.395987e+01  -3.393951e+01
   4.051088e+00  -7.676437e+00
  -9.149885e+00  -3.084807e+00
  -3.287652e+01  -4.368945e+01
  -2.330614e+01  -8.733611e+01
   2.830881e+01  -6.978769e+01
   7.966428e+01   1.861679e+01
   7.470381e+01   1.068307e+02
   2.304925e+00   1.098077e+02
  -8.183852e+01   2.167947e+01
  -1.000166e+02  -7.557674e+01
  -2.965023e+01  -1.009951e+02
   6.533808e+01  -5.246253e+01
   9.412384e+01   1.246160e+01
   3.670698e+01   4.784085e+01
  -3.170342e+01   4.838819e+01
  -2.866242e+01   2.709353e+01
   3.482104e+01   4.949515e-01
   6.770909e+01  -6.133192e+00
   1.379866e+01   2.402841e+01
  -7.718676e+01   6.441805e+01
  -1.112369e+02   5.817054e+01
  -6.053156e+01  -1.067647e+01
   1.580441e+01  -8.042136e+01
   5.056701e+01  -7.643866e+01
   3.451201e+01  -3.923503e+00
   3.614681e-01   5.520734e+01
  -2.555890e+01   4.065770e+01
  -3.547592e+01  -1.942730e+01
  -2.542781e+01  -5.261446e+01
   3.280503e+00  -3.058543e+01
   3.222913e+01   9.020450e+00
   3.805225e+01   1.963745e+01
   1.991768e+01   3.078095e-01
   3.369355e-02  -1.266951e+01
  -6.453467e+00   5.159887e+00
  -8.354478e+00   3.669319e+01
  -1.922005e+01   4.222944e+01
  -3.267379e+01   4.793820e+00
  -2.752978e+01  -4.595135e+01
   4.918088e+00  -5.980061e+01
   4.436584e+01  -1.903466e+01
   5.381546e+01   3.957719e+01
   1.308390e+01   6.202740e+01
  -5.302817e+01   3.255747e+01
  -8.555374e+01  -1.598076e+01
  -4.733632e+01  -4.308726e+01
   2.818759e+01  -3.864106e+01
   6.305214e+01  -1.935477e+01
   2.266680e+01  -4.163153e+00
  -3.806145e+01  -3.108459e+00
  -3.767656e+01  -1.706930e+01
   3.126670e+01  -3.165357e+01
   9.128436e+01  -1.907615e+01
