
 $NMID
 id='ANONYMOUS ', fmtdat='(2E16.6)'
 volume=1.0
 tramp=1.0
 $END
  -3.610184e+03  -2.477773e+01
  -2.254240e+03  -1.996693e+03
   2.774672e+02  -2.292635e+03
   1.562684e+03  -1.095227e+03
   9.453176e+02   1.269686e+02
  -2.222939e+02   3.449120e+02
  -5.614910e+02  -2.230808e+02
  -3.057848e+01  -7.382122e+02
   5.890317e+02  -6.489265e+02
   7.504617e+02  -1.625718e+01
   4.333530e+02   6.389861e+02
  -8.893076e+01   7.348472e+02
  -4.272666e+02   1.589337e+02
  -2.956604e+02  -5.255634e+02
   1.733814e+02  -6.151851e+02
   4.780052e+02  -4.610886e+01
   2.847800e+02   5.563799e+02
  -2.006944e+02   6.217489e+02
  -5.092423e+02   2.025092e+02
  -4.176355e+02  -2.422890e+02
  -8.632696e+01  -3.872903e+02
   1.664558e+02  -2.505887e+02
   1.250323e+02  -5.590163e+01
  -1.510334e+02  -2.895857e+01
  -3.179302e+02  -2.124780e+02
  -6.332120e+01  -3.810670e+02
   4.595432e+02  -2.511757e+02
   6.868649e+02   1.453217e+02
   2.965165e+02   4.284028e+02
  -3.441983e+02   3.040403e+02
  -5.854250e+02  -9.602349e+01
  -2.442022e+02  -4.036537e+02
   2.678656e+02  -4.071503e+02
   4.912221e+02  -1.520882e+02
   3.530556e+02   1.848572e+02
   7.704210e+01   3.694075e+02
  -9.506036e+01   2.210951e+02
  -4.231393e+01  -1.353550e+02
   1.708810e+02  -2.611856e+02
   2.908492e+02   9.234302e+01
   9.990811e+01   5.566579e+02
  -2.740527e+02   5.333633e+02
  -4.289032e+02   1.290134e+00
  -1.722173e+02  -4.019527e+02
   2.020909e+02  -2.071463e+02
   2.510848e+02   2.867878e+02
  -9.575382e+01   4.420581e+02
  -4.795817e+02   8.376241e+01
  -5.168535e+02  -3.823562e+02
  -1.538419e+02  -5.235795e+02
   3.274600e+02  -2.921935e+02
   5.518043e+02   6.944868e+01
   3.476772e+02   3.007480e+02
  -8.694505e+01   2.773646e+02
  -3.441632e+02   7.127291e+01
  -2.250708e+02  -9.350482e+01
   3.945575e+01  -5.656331e+01
   8.558119e+01   8.699299e+01
  -1.215153e+02   1.069818e+02
  -2.698999e+02  -5.709570e+01
  -1.291996e+02  -2.313698e+02
   1.708870e+02  -2.469058e+02
   3.349955e+02  -1.079232e+02
   2.348037e+02   9.406265e+01
  -2.601185e+01   2.793171e+02
  -2.661344e+02   3.422471e+02
  -3.522262e+02   1.767005e+02
  -2.508039e+02  -1.521127e+02
  -5.695940e+01  -3.829842e+02
   6.756560e+01  -3.383749e+02
   6.089864e+01  -1.476519e+02
   3.152325e+01  -5.983559e+01
   1.012817e+02  -1.014125e+02
   2.256676e+02  -7.960618e+01
   2.498525e+02   9.520760e+01
   1.123764e+02   2.587937e+02
  -8.652388e+01   2.125599e+02
  -2.008751e+02  -2.285899e+01
  -1.537011e+02  -2.398828e+02
   3.542977e+01  -2.616143e+02
   2.500506e+02  -7.911173e+01
   3.204747e+02   1.704538e+02
   1.699837e+02   3.145350e+02
  -7.067346e+01   2.763216e+02
  -1.881563e+02   1.381468e+02
  -1.473773e+02   4.942700e+01
  -1.284363e+02   5.325943e+01
  -2.571332e+02   4.395332e+01
  -3.988976e+02  -8.373315e+01
  -3.158983e+02  -2.910357e+02
   2.046408e+01  -4.313380e+02
   3.707464e+02  -3.914456e+02
   4.755112e+02  -1.757397e+02
   2.989142e+02   9.887382e+01
   2.950731e+01   2.628001e+02
  -1.074435e+02   2.136750e+02
  -3.794600e+01   3.388038e+01
   1.129899e+02  -6.339495e+01
   1.521772e+02   2.652884e+01
   2.234387e+01   1.596160e+02
  -1.325151e+02   1.268169e+02
  -1.330586e+02  -5.565923e+01
   2.511604e+01  -1.516172e+02
   1.708130e+02  -1.057963e+01
   1.508953e+02   2.371288e+02
  -2.745052e+01   3.384447e+02
  -2.357592e+02   1.962008e+02
  -3.392776e+02  -6.475761e+01
  -2.708298e+02  -2.524469e+02
  -6.893100e+01  -2.667819e+02
   1.228260e+02  -1.437772e+02
   1.583023e+02  -9.485507e+00
   4.298538e+01   2.087817e+01
  -5.637625e+01  -5.277037e+01
  -6.998903e+00  -1.160664e+02
   1.229384e+02  -7.608109e+01
   1.556920e+02   2.312654e+01
   3.987603e+01   6.103084e+01
  -8.013746e+01  -2.896546e+00
  -4.285453e+01  -8.512492e+01
   1.383455e+02  -8.441265e+01
   2.893761e+02   1.743626e+01
   2.529457e+02   1.598046e+02
   3.562073e+01   2.560524e+02
  -1.986427e+02   2.371647e+02
  -2.706383e+02   1.024046e+02
  -1.464919e+02  -4.882877e+01
   2.849732e+01  -8.790086e+01
   7.283239e+01   8.652810e-01
  -4.601585e+01   8.596295e+01
  -1.861026e+02   3.977646e+01
  -1.925533e+02  -1.038937e+02
  -5.752382e+01  -1.924496e+02
   9.081838e+01  -1.401741e+02
   1.298730e+02  -1.933755e+01
   5.354041e+01   3.820447e+01
  -3.644640e+01  -1.283238e+01
  -2.923636e+01  -9.905531e+01
   8.790612e+01  -1.133334e+02
   2.030793e+02  -1.563864e+01
   1.807370e+02   1.305589e+02
   1.169038e+01   2.084633e+02
  -1.582085e+02   1.508030e+02
  -1.784873e+02   7.152518e+00
  -5.670406e+01  -1.006585e+02
   6.344924e+01  -9.852289e+01
   7.372097e+01  -2.550551e+01
   6.839335e+00   2.488614e+01
  -3.134738e+01   1.168117e+01
   9.226744e+00  -1.912259e+01
   8.101441e+01   2.590704e+00
   9.671301e+01   8.783661e+01
   1.036968e+01   1.669533e+02
  -1.363148e+02   1.488887e+02
  -2.328682e+02   1.259678e+01
  -1.903503e+02  -1.551662e+02
  -3.547255e+01  -2.278628e+02
   1.039568e+02  -1.591363e+02
   1.295339e+02  -2.773395e+01
   7.092837e+01   4.804862e+01
   3.116583e+01   3.118454e+01
   5.407044e+01  -1.283449e+01
   8.362344e+01  -5.818530e+00
   5.002414e+01   5.438589e+01
  -4.109502e+01   9.793265e+01
  -1.145738e+02   6.136593e+01
  -9.765043e+01  -4.177942e+01
   1.708629e+01  -1.210740e+02
   1.545652e+02  -8.557657e+01
   1.987973e+02   6.191378e+01
   8.625118e+01   2.065195e+02
  -1.190284e+02   2.187370e+02
  -2.635642e+02   8.184324e+01
  -2.432566e+02  -9.008902e+01
  -9.858914e+01  -1.696565e+02
   4.049405e+01  -1.379910e+02
   8.974412e+01  -7.883493e+01
   7.231672e+01  -6.770390e+01
   6.102900e+01  -9.102584e+01
   9.020673e+01  -7.548531e+01
   1.279664e+02   2.042766e+01
   1.149174e+02   1.522772e+02
   2.468763e+01   2.218208e+02
  -9.970251e+01   1.641966e+02
  -1.688421e+02   1.232757e+01
  -1.258966e+02  -1.243953e+02
  -1.060602e+01  -1.544926e+02
   7.226740e+01  -8.219106e+01
   6.056011e+01   9.801374e+00
  -1.508367e+00   4.902931e+01
  -2.130197e+01   3.454580e+01
   2.962736e+01   1.405645e+01
   8.106045e+01   1.994757e+01
   4.700653e+01   3.931275e+01
  -6.919197e+01   3.746401e+01
  -1.653176e+02  -2.203139e+00
  -1.405901e+02  -5.992778e+01
  -3.505697e+00  -9.301480e+01
   1.282581e+02  -7.079028e+01
   1.426880e+02  -6.323885e+00
   4.424543e+01   4.678696e+01
  -5.936011e+01   4.039637e+01
  -7.579717e+01  -1.878022e+01
  -1.436350e+01  -7.087627e+01
   4.895028e+01  -6.178588e+01
   6.573118e+01  -3.733969e-01
   5.193863e+01   5.013157e+01
   4.526824e+01   4.257734e+01
   5.622065e+01   2.442071e+00
   6.409086e+01   1.548676e+00
   3.999250e+01   7.006139e+01
  -2.971874e+01   1.474619e+02
  -1.216886e+02   1.404783e+02
  -1.723117e+02   3.104451e+01
  -1.249862e+02  -9.309396e+01
  -2.229078e+00  -1.284547e+02
   8.948632e+01  -6.471110e+01
   6.032967e+01   1.238267e+01
  -5.745481e+01   1.955054e+01
  -1.318359e+02  -4.244806e+01
  -6.976110e+01  -1.050433e+02
   8.198874e+01  -1.069884e+02
   1.860031e+02  -4.371672e+01
   1.546500e+02   3.928084e+01
   3.120663e+01   8.406959e+01
  -6.239339e+01   6.203643e+01
  -4.767943e+01   1.066871e+00
   3.917724e+01  -2.880991e+01
   9.008790e+01   2.067036e+01
   3.623452e+01   1.145038e+02
  -8.227452e+01   1.517954e+02
  -1.578632e+02   6.573032e+01
  -1.234634e+02  -9.291099e+01
  -1.299843e+01  -1.898284e+02
   8.224513e+01  -1.380442e+02
   1.017568e+02   1.049812e+01
   5.460027e+01   1.173201e+02
  -1.008810e+01   1.015551e+02
  -4.876550e+01   1.565784e+01
  -4.623579e+01  -3.158159e+01
  -1.933367e+01  -7.723721e+00
  -5.279667e+00   1.806440e+01
  -2.638882e+01  -1.907069e+01
  -5.516727e+01  -8.803542e+01
  -3.377282e+01  -1.043155e+02
   5.208206e+01  -4.188109e+01
   1.332454e+02   3.807310e+01
   1.218127e+02   6.918902e+01
   1.732131e+01   5.106589e+01
  -8.128015e+01   2.361836e+01
  -8.515671e+01   5.595822e+00
  -1.481075e+01  -1.013286e+01
   3.510850e+01  -2.103377e+01
   1.738250e+01  -1.407995e+01
  -1.663524e+01   3.008869e+00
   3.698715e+00   6.584236e+00
   6.759643e+01   8.921277e-01
   9.039190e+01   2.236719e+01
   1.661264e+01   7.918186e+01
  -1.091267e+02   1.138990e+02
  -1.835591e+02   6.168707e+01
  -1.457389e+02  -6.073424e+01
  -2.891495e+01  -1.567730e+02
   7.886776e+01  -1.497550e+02
   1.136707e+02  -6.150144e+01
   7.875500e+01   1.980806e+01
   2.521976e+01   3.646551e+01
   5.890784e-01   1.144429e+01
   1.233219e+01   6.958527e+00
   3.021278e+01   4.709936e+01
   1.851622e+01   8.881903e+01
  -2.893079e+01   7.002665e+01
  -7.748603e+01  -1.604216e+01
  -7.696234e+01  -1.017335e+02
  -1.044056e+01  -1.085723e+02
   7.566688e+01  -2.860011e+01
   1.023584e+02   6.704382e+01
   3.643180e+01   1.010316e+02
  -6.351571e+01   6.003603e+01
  -9.969534e+01  -9.113747e+00
  -4.243618e+01  -5.455619e+01
   3.329428e+01  -5.704366e+01
   3.655864e+01  -2.808533e+01
  -2.809583e+01   4.022098e+00
  -6.714415e+01   7.850543e+00
  -1.677572e+01  -2.603323e+01
   7.714720e+01  -6.394547e+01
   1.167158e+02  -5.327533e+01
   6.720421e+01   1.524621e+01
  -1.421085e+01   8.249974e+01
  -5.539911e+01   7.991036e+01
  -4.152943e+01   1.013284e+01
  -5.134603e+00  -5.226597e+01
   2.389482e+01  -4.540876e+01
   3.586743e+01   1.268396e+01
   2.716814e+01   5.271525e+01
  -1.483279e+00   3.669914e+01
  -3.254303e+01  -6.086320e+00
  -4.023512e+01  -2.355405e+01
  -2.027080e+01  -3.620303e+00
   2.718155e+00   1.763770e+01
   6.510373e+00   4.645795e+00
  -4.032103e-01  -3.267919e+01
   6.168659e+00  -4.899592e+01
   2.807781e+01  -1.686759e+01
   3.656926e+01   3.744305e+01
   7.747341e+00   5.884280e+01
  -4.080443e+01   2.348940e+01
  -5.930884e+01  -3.437394e+01
  -1.749333e+01  -5.990599e+01
   5.506378e+01  -3.451172e+01
   8.980783e+01   1.258486e+01
   4.912606e+01   4.263942e+01
  -2.812347e+01   4.299608e+01
  -6.380257e+01   2.529538e+01
  -2.684028e+01   6.068693e+00
   3.058736e+01  -1.495795e+00
   3.410665e+01   9.244189e+00
  -2.507389e+01   2.664279e+01
  -8.065867e+01   2.006529e+01
