
 $NMID
 id='ANONYMOUS ', fmtdat='(2E16.6)'
 volume=1.0
 tramp=1.0
 $END
   2.885840e+03   1.182736e+01
   1.651431e+03   1.768982e+03
  -5.441431e+02   1.823827e+03
  -1.433458e+03   5.328169e+02
  -6.055805e+02  -4.973310e+02
   4.819308e+02  -3.978113e+02
   6.117738e+02   3.131613e+02
  -1.798559e+01   7.290059e+02
  -5.703560e+02   5.130272e+02
  -6.276197e+02  -8.370736e+01
  -2.849154e+02  -5.884318e+02
   1.824009e+02  -5.911418e+02
   4.385937e+02  -6.366660e+01
   2.535617e+02   4.914228e+02
  -1.920888e+02   4.984169e+02
  -4.085520e+02  -1.591904e+01
  -1.691728e+02  -4.582536e+02
   2.294410e+02  -4.086388e+02
   3.868107e+02  -4.078096e+01
   2.435986e+02   2.437733e+02
  -1.114232e+00   2.880656e+02
  -1.670743e+02   1.698354e+02
  -1.480148e+02   4.997208e+00
   6.887231e+01  -6.870198e+01
   2.717758e+02   6.282786e+01
   1.419453e+02   2.844677e+02
  -2.981838e+02   2.820247e+02
  -5.659336e+02  -4.504698e+01
  -2.905062e+02  -3.711045e+02
   2.615204e+02  -3.315356e+02
   4.996074e+02   1.977887e+01
   2.334727e+02   3.223358e+02
  -1.866430e+02   3.458370e+02
  -3.753971e+02   1.328876e+02
  -2.750405e+02  -1.547029e+02
  -4.229545e+01  -3.197627e+02
   1.427953e+02  -1.905779e+02
   1.258847e+02   1.507284e+02
  -1.076780e+02   3.027309e+02
  -3.065361e+02  -4.715706e+00
  -1.723106e+02  -4.559027e+02
   2.147142e+02  -4.726841e+02
   4.124619e+02  -5.070764e-01
   1.763846e+02   3.779639e+02
  -2.005618e+02   2.194717e+02
  -2.640778e+02  -2.146426e+02
   4.233885e+01  -3.653592e+02
   3.673357e+02  -9.209953e+01
   3.905351e+02   2.677619e+02
   1.054005e+02   3.857894e+02
  -2.547400e+02   2.281781e+02
  -4.147498e+02  -5.130639e+01
  -2.431050e+02  -2.602827e+02
   1.091665e+02  -2.464158e+02
   2.992421e+02  -3.233822e+01
   1.580701e+02   1.413980e+02
  -8.710506e+01   7.628459e+01
  -1.007186e+02  -1.083710e+02
   1.120783e+02  -1.313418e+02
   2.343934e+02   5.096592e+01
   9.209181e+01   2.032450e+02
  -1.377332e+02   1.675543e+02
  -2.132643e+02   3.941199e+01
  -1.192584e+02  -5.562910e+01
   1.873370e+01  -1.343186e+02
   1.360972e+02  -2.032959e+02
   2.137178e+02  -1.441106e+02
   1.918079e+02   8.526837e+01
   5.334620e+01   2.871219e+02
  -8.167329e+01   2.538865e+02
  -8.780364e+01   6.808391e+01
  -1.631934e+01  -1.793564e+01
  -1.911368e+01   5.228288e+01
  -1.193806e+02   8.974717e+01
  -1.820797e+02  -2.714849e+01
  -1.090429e+02  -1.745252e+02
   4.330698e+01  -1.711925e+02
   1.495858e+02  -1.210257e+01
   1.330316e+02   1.541261e+02
  -2.837953e+00   1.936028e+02
  -1.727359e+02   8.021139e+01
  -2.368109e+02  -1.068738e+02
  -1.219285e+02  -2.307333e+02
   6.828119e+01  -2.016002e+02
   1.521429e+02  -7.517521e+01
   9.805232e+01   3.849796e+00
   5.929774e+01  -1.839280e+01
   1.449665e+02  -4.324151e+01
   2.547324e+02   3.346778e+01
   2.131269e+02   1.811650e+02
   3.583958e-01   2.833148e+02
  -2.282315e+02   2.650556e+02
  -3.131484e+02   1.306142e+02
  -2.200973e+02  -5.891959e+01
  -3.853861e+01  -1.926548e+02
   8.695171e+01  -1.680597e+02
   5.968877e+01  -1.880993e+01
  -6.946251e+01   7.580263e+01
  -1.327723e+02  -3.514915e-01
  -3.690927e+01  -1.314679e+02
   1.081410e+02  -1.177377e+02
   1.225281e+02   3.952007e+01
  -9.768233e+00   1.304809e+02
  -1.282553e+02   2.451364e+01
  -1.059326e+02  -1.604385e+02
   2.205633e+01  -2.244491e+02
   1.468627e+02  -1.208021e+02
   2.046328e+02   4.136235e+01
   1.760945e+02   1.500979e+02
   6.351053e+01   1.668330e+02
  -7.088249e+01   1.043398e+02
  -1.165792e+02   1.500323e+01
  -4.046430e+01  -2.259388e+01
   4.649589e+01   2.218706e+01
   2.252124e+01   8.120910e+01
  -7.931250e+01   6.753795e+01
  -1.179543e+02  -6.499933e+00
  -4.047084e+01  -4.842172e+01
   5.071438e+01  -1.380586e+01
   3.691018e+01   4.424585e+01
  -7.575815e+01   5.459993e+01
  -1.767356e+02   1.541820e+00
  -1.676970e+02  -8.573144e+01
  -4.168535e+01  -1.611377e+02
   1.147844e+02  -1.691884e+02
   1.828341e+02  -8.415674e+01
   1.128068e+02   3.354988e+01
  -1.482628e+01   7.399965e+01
  -6.145409e+01   7.129870e+00
   1.825633e+01  -6.734158e+01
   1.262743e+02  -4.120941e+01
   1.395805e+02   6.523301e+01
   4.609307e+01   1.354747e+02
  -6.102958e+01   1.039526e+02
  -9.451212e+01   2.018483e+01
  -4.827771e+01  -2.716974e+01
   1.565491e+01  -4.955317e+00
   2.484434e+01   4.923832e+01
  -4.211026e+01   7.070591e+01
  -1.238152e+02   2.037883e+01
  -1.229827e+02  -7.676571e+01
  -1.512540e+01  -1.400886e+02
   1.060898e+02  -1.066632e+02
   1.267563e+02  -3.570082e+00
   4.328978e+01   7.592573e+01
  -4.330452e+01   7.368476e+01
  -5.512231e+01   2.048924e+01
  -1.417315e+01  -1.670998e+01
   1.159049e+01  -1.308972e+01
  -6.342150e+00   2.734966e+00
  -4.248940e+01  -6.947114e+00
  -5.347057e+01  -5.054775e+01
  -1.001508e+01  -9.768442e+01
   7.752330e+01  -9.625959e+01
   1.472069e+02  -1.861978e+01
   1.293999e+02   9.373120e+01
   2.751751e+01   1.519913e+02
  -7.032555e+01   1.096541e+02
  -8.757474e+01   1.689329e+01
  -4.460145e+01  -3.704925e+01
  -1.750074e+01  -2.380779e+01
  -3.358993e+01   7.373506e+00
  -4.949694e+01   3.905290e+00
  -2.452484e+01  -3.050240e+01
   2.714480e+01  -5.311323e+01
   6.207582e+01  -3.317443e+01
   5.112139e+01   2.119167e+01
  -7.926684e+00   6.706586e+01
  -8.642863e+01   5.378141e+01
  -1.234762e+02  -2.992397e+01
  -6.597737e+01  -1.256555e+02
   6.441584e+01  -1.458536e+02
   1.690412e+02  -6.336586e+01
   1.654548e+02   5.362139e+01
   7.139988e+01   1.132886e+02
  -2.435544e+01   9.493499e+01
  -6.094275e+01   5.411638e+01
  -5.176182e+01   4.408085e+01
  -4.356484e+01   5.714467e+01
  -5.884562e+01   4.616934e+01
  -8.072704e+01  -1.455590e+01
  -7.420124e+01  -9.765886e+01
  -1.914800e+01  -1.433278e+02
   6.232805e+01  -1.099800e+02
   1.120262e+02  -1.433631e+01
   8.787722e+01   7.647551e+01
   1.353071e+01   1.017316e+02
  -4.163089e+01   6.011354e+01
  -3.780979e+01   2.341895e+00
  -4.200574e+00  -2.561650e+01
   4.571045e+00  -2.170230e+01
  -2.399043e+01  -1.240281e+01
  -4.939638e+01  -1.508941e+01
  -2.754263e+01  -2.394403e+01
   3.908721e+01  -2.287349e+01
   9.774562e+01  -2.403843e+00
   9.035059e+01   3.092742e+01
   1.169985e+01   5.479591e+01
  -7.447831e+01   4.684068e+01
  -9.175482e+01   9.475527e+00
  -3.118817e+01  -2.472564e+01
   3.805374e+01  -2.285168e+01
   4.766794e+01   1.216002e+01
   3.446408e+00   4.252724e+01
  -3.643185e+01   3.551580e+01
  -3.932651e+01  -1.919205e+00
  -2.613551e+01  -3.156653e+01
  -2.683261e+01  -2.629629e+01
  -3.946860e+01  -1.606648e+00
  -4.192734e+01  -4.271173e-01
  -2.102780e+01  -4.210589e+01
   2.156167e+01  -9.095057e+01
   7.235761e+01  -8.837373e+01
   1.015614e+02  -2.081174e+01
   7.674370e+01   5.706484e+01
   4.633533e+00   7.872117e+01
  -5.343768e+01   3.778779e+01
  -3.749153e+01  -1.002968e+01
   3.744983e+01  -1.253973e+01
   8.723577e+01   2.778299e+01
   4.856634e+01   6.796825e+01
  -5.061611e+01   7.137631e+01
  -1.209298e+02   3.375111e+01
  -1.035804e+02  -2.054507e+01
  -2.439899e+01  -5.501770e+01
   3.814429e+01  -4.552038e+01
   3.109840e+01  -5.696812e+00
  -2.425786e+01   1.645160e+01
  -5.684137e+01  -1.462375e+01
  -1.983925e+01  -7.525082e+01
   5.928458e+01  -9.700698e+01
   1.068848e+02  -3.812900e+01
   7.985679e+01   6.471269e+01
   5.566799e+00   1.253573e+02
  -5.457386e+01   9.141494e+01
  -6.617951e+01  -3.705593e+00
  -3.897611e+01  -7.426567e+01
  -2.200464e-01  -6.781401e+01
   2.828074e+01  -1.346728e+01
   3.368347e+01   1.964761e+01
   1.751344e+01   5.665802e+00
   2.274761e+00  -1.339370e+01
   1.179743e+01   8.697255e+00
   3.483118e+01   5.574695e+01
   2.768500e+01   6.975513e+01
  -2.850992e+01   2.892289e+01
  -8.759413e+01  -2.541187e+01
  -8.287772e+01  -4.526273e+01
  -1.094931e+01  -3.096353e+01
   5.649193e+01  -1.335804e+01
   5.607619e+01  -4.952003e+00
   6.030083e+00   4.085640e+00
  -2.492346e+01   1.413627e+01
  -8.310183e+00   1.218033e+01
   1.431672e+01  -5.607690e-01
  -3.936660e+00  -6.212348e+00
  -4.781188e+01  -3.332090e+00
  -5.745690e+01  -1.556918e+01
  -3.406483e+00  -5.046754e+01
   7.648618e+01  -7.107935e+01
   1.167701e+02  -3.524236e+01
   8.759623e+01   4.400967e+01
   1.486329e+01   1.025088e+02
  -5.004960e+01   9.352202e+01
  -7.178245e+01   3.559573e+01
  -5.072709e+01  -1.414813e+01
  -1.538449e+01  -2.203906e+01
   2.588462e+00  -4.886453e+00
  -5.966573e+00  -1.996641e+00
  -2.111233e+01  -2.844214e+01
  -1.469964e+01  -5.665138e+01
   1.860973e+01  -4.501389e+01
   5.139132e+01   1.241418e+01
   4.776947e+01   6.936606e+01
   1.008305e+00   7.089613e+01
  -5.290203e+01   1.358487e+01
  -6.422505e+01  -4.925810e+01
  -1.874556e+01  -6.533979e+01
   4.236659e+01  -3.362804e+01
   6.077373e+01   8.382498e+00
   2.363713e+01   3.102789e+01
  -2.059021e+01   3.119293e+01
  -1.865563e+01   1.751186e+01
   2.243477e+01   5.613431e-01
   4.378489e+01  -3.664617e+00
   8.853182e+00   1.555930e+01
  -5.020224e+01   4.131617e+01
  -7.226975e+01   3.719815e+01
  -3.917694e+01  -7.081559e+00
   1.053879e+01  -5.191654e+01
   3.299392e+01  -4.928551e+01
   2.225867e+01  -2.501460e+00
  -4.111277e-02   3.562565e+01
  -1.663307e+01   2.616513e+01
  -2.275781e+01  -1.269825e+01
  -1.621748e+01  -3.410956e+01
   2.162351e+00  -1.975047e+01
   2.075933e+01   5.963588e+00
   2.458232e+01   1.284184e+01
   1.292759e+01   2.882131e-01
  -1.039045e-03  -8.162961e+00
  -4.339068e+00   3.288443e+00
  -5.603372e+00   2.355476e+01
  -1.248740e+01   2.704728e+01
  -2.096359e+01   2.915151e+00
  -1.749567e+01  -2.968526e+01
   3.429622e+00  -3.846171e+01
   2.870015e+01  -1.207175e+01
   3.456208e+01   2.573739e+01
   8.167186e+00   4.009867e+01
  -3.440931e+01   2.085478e+01
  -5.521293e+01  -1.063974e+01
  -3.041853e+01  -2.804292e+01
   1.833325e+01  -2.487207e+01
   4.077254e+01  -1.226295e+01
   1.465681e+01  -2.657722e+00
  -2.451587e+01  -2.276330e+00
  -2.416701e+01  -1.123863e+01
   2.041752e+01  -2.023078e+01
   5.907598e+01  -1.178243e+01
