
 $NMID
 id='ANONYMOUS ', fmtdat='(2E16.6)'
 volume=1.0
 tramp=1.0
 $END
  -3.314557e+03   2.418847e+01
  -1.926044e+03  -2.007599e+03
   5.929532e+02  -2.106285e+03
   1.639148e+03  -6.418488e+02
   7.109752e+02   5.551880e+02
  -5.390306e+02   4.640922e+02
  -7.043985e+02  -3.461228e+02
   8.200384e+00  -8.345732e+02
   6.458896e+02  -5.981665e+02
   7.224974e+02   8.508501e+01
   3.375339e+02   6.709238e+02
  -1.988598e+02   6.826938e+02
  -5.012749e+02   8.174711e+01
  -2.981787e+02  -5.590612e+02
   2.126277e+02  -5.755025e+02
   4.694622e+02   1.123464e+01
   2.019813e+02   5.245111e+02
  -2.575451e+02   4.754778e+02
  -4.458059e+02   5.472193e+01
  -2.859142e+02  -2.766795e+02
  -4.001939e+00  -3.323180e+02
   1.891922e+02  -1.984694e+02
   1.692351e+02  -9.309109e+00
  -7.832086e+01   7.682653e+01
  -3.111456e+02  -7.105624e+01
  -1.642091e+02  -3.241838e+02
   3.394608e+02  -3.248980e+02
   6.492464e+02   4.586748e+01
   3.375622e+02   4.209925e+02
  -2.952051e+02   3.818150e+02
  -5.725458e+02  -1.717150e+01
  -2.714248e+02  -3.666577e+02
   2.102464e+02  -3.987950e+02
   4.296998e+02  -1.570581e+02
   3.182015e+02   1.739812e+02
   5.358833e+01   3.663356e+02
  -1.596343e+02   2.212789e+02
  -1.447938e+02  -1.691995e+02
   1.192055e+02  -3.463722e+02
   3.493711e+02   2.169698e+00
   2.017138e+02   5.198859e+02
  -2.398997e+02   5.444972e+02
  -4.719732e+02   6.921974e+00
  -2.073131e+02  -4.298566e+02
   2.257852e+02  -2.538557e+02
   3.043413e+02   2.426010e+02
  -4.452821e+01   4.194428e+02
  -4.207677e+02   1.097725e+02
  -4.521503e+02  -3.036442e+02
  -1.261538e+02  -4.427608e+02
   2.898234e+02  -2.654692e+02
   4.776424e+02   5.391618e+01
   2.837760e+02   2.956945e+02
  -1.208200e+02   2.843441e+02
  -3.429755e+02   4.201248e+01
  -1.848223e+02  -1.589219e+02
   9.723693e+01  -8.869582e+01
   1.167918e+02   1.217463e+02
  -1.260295e+02   1.513631e+02
  -2.694793e+02  -5.507699e+01
  -1.089641e+02  -2.319062e+02
   1.563438e+02  -1.950221e+02
   2.464045e+02  -4.855070e+01
   1.391790e+02   6.370013e+01
  -2.094955e+01   1.567345e+02
  -1.564790e+02   2.360680e+02
  -2.452417e+02   1.673809e+02
  -2.211710e+02  -9.643864e+01
  -6.460568e+01  -3.294482e+02
   8.998069e+01  -2.934496e+02
   9.960806e+01  -8.111766e+01
   2.005264e+01   1.884061e+01
   2.319676e+01  -6.022804e+01
   1.371345e+02  -1.032026e+02
   2.092961e+02   3.024808e+01
   1.266344e+02   1.995823e+02
  -4.812293e+01   1.968253e+02
  -1.715311e+02   1.496050e+01
  -1.540779e+02  -1.760875e+02
   1.555237e+00  -2.224605e+02
   1.978043e+02  -9.362035e+01
   2.735024e+02   1.206240e+02
   1.431607e+02   2.641043e+02
  -7.572252e+01   2.330831e+02
  -1.741645e+02   8.925562e+01
  -1.137260e+02  -2.292634e+00
  -6.927017e+01   2.195518e+01
  -1.673544e+02   5.058551e+01
  -2.941967e+02  -3.675948e+01
  -2.474979e+02  -2.070782e+02
  -2.924120e+00  -3.267290e+02
   2.609819e+02  -3.077579e+02
   3.597615e+02  -1.535207e+02
   2.537817e+02   6.552614e+01
   4.619616e+01   2.210111e+02
  -9.766467e+01   1.942506e+02
  -6.767371e+01   2.297716e+01
   7.898478e+01  -8.707323e+01
   1.519490e+02  -9.609887e-01
   4.369127e+01   1.501668e+02
  -1.223879e+02   1.362653e+02
  -1.407765e+02  -4.369477e+01
   9.642430e+00  -1.496239e+02
   1.469856e+02  -2.933053e+01
   1.237736e+02   1.838003e+02
  -2.297141e+01   2.592434e+02
  -1.686028e+02   1.410506e+02
  -2.371186e+02  -4.593567e+01
  -2.045784e+02  -1.719023e+02
  -7.432816e+01  -1.918413e+02
   8.086390e+01  -1.206859e+02
   1.338540e+02  -1.845001e+01
   4.669447e+01   2.518976e+01
  -5.340009e+01  -2.535687e+01
  -2.635876e+01  -9.304893e+01
   9.059643e+01  -7.819935e+01
   1.355701e+02   6.299627e+00
   4.689804e+01   5.497996e+01
  -5.819434e+01   1.594492e+01
  -4.260080e+01  -5.089861e+01
   8.733779e+01  -6.358222e+01
   2.041448e+02  -3.001178e+00
   1.940627e+02   9.776464e+01
   4.910218e+01   1.854526e+02
  -1.309817e+02   1.957764e+02
  -2.097005e+02   9.857271e+01
  -1.300422e+02  -3.724274e+01
   1.620726e+01  -8.498978e+01
   7.030611e+01  -8.842054e+00
  -2.056714e+01   7.738021e+01
  -1.449347e+02   4.846442e+01
  -1.613040e+02  -7.372066e+01
  -5.448255e+01  -1.554535e+02
   6.912344e+01  -1.202518e+02
   1.084591e+02  -2.418737e+01
   5.562469e+01   3.058453e+01
  -1.805870e+01   5.339549e+00
  -2.875883e+01  -5.696164e+01
   4.840213e+01  -8.190088e+01
   1.428086e+02  -2.433906e+01
   1.424465e+02   8.752399e+01
   1.872689e+01   1.612935e+02
  -1.211382e+02   1.239901e+02
  -1.459671e+02   5.616948e+00
  -5.071197e+01  -8.677491e+01
   4.901993e+01  -8.523196e+01
   6.313535e+01  -2.420635e+01
   1.623759e+01   1.897348e+01
  -1.343121e+01   1.491803e+01
   7.436361e+00  -3.527959e+00
   4.951701e+01   7.584488e+00
   6.242572e+01   5.815646e+01
   1.228270e+01   1.129429e+02
  -8.885904e+01   1.117463e+02
  -1.697000e+02   2.260412e+01
  -1.500373e+02  -1.070097e+02
  -3.323678e+01  -1.749776e+02
   7.987775e+01  -1.271455e+02
   1.008319e+02  -2.048190e+01
   5.200171e+01   4.215614e+01
   2.058612e+01   2.723789e+01
   3.876263e+01  -8.859206e+00
   5.724515e+01  -4.931506e+00
   2.879173e+01   3.523744e+01
  -3.094694e+01   6.192122e+01
  -7.180958e+01   3.893856e+01
  -5.951580e+01  -2.432253e+01
   8.749914e+00  -7.780783e+01
   9.968452e+01  -6.279702e+01
   1.428524e+02   3.369530e+01
   7.699693e+01   1.444853e+02
  -7.321464e+01   1.687011e+02
  -1.943940e+02   7.451682e+01
  -1.912311e+02  -6.024757e+01
  -8.339499e+01  -1.298360e+02
   2.712462e+01  -1.096414e+02
   6.967040e+01  -6.304195e+01
   5.915264e+01  -5.148497e+01
   4.961738e+01  -6.653284e+01
   6.749661e+01  -5.398795e+01
   9.343095e+01   1.597896e+01
   8.664296e+01   1.120239e+02
   2.345420e+01   1.652309e+02
  -7.085199e+01   1.274490e+02
  -1.289988e+02   1.753068e+01
  -1.019623e+02  -8.742290e+01
  -1.647074e+01  -1.171487e+02
   4.750299e+01  -6.952324e+01
   4.353126e+01  -2.793691e+00
   4.849929e+00   2.963899e+01
  -5.355056e+00   2.497443e+01
   2.772450e+01   1.389604e+01
   5.730977e+01   1.690126e+01
   3.210540e+01   2.745654e+01
  -4.509285e+01   2.675446e+01
  -1.130473e+02   3.497823e+00
  -1.045149e+02  -3.504527e+01
  -1.368181e+01  -6.315985e+01
   8.575839e+01  -5.466219e+01
   1.057651e+02  -1.169088e+01
   3.608803e+01   2.836171e+01
  -4.376450e+01   2.686363e+01
  -5.519773e+01  -1.357783e+01
  -4.538219e+00  -4.925909e+01
   4.162330e+01  -4.158591e+01
   4.555540e+01   1.801509e+00
   3.071128e+01   3.632476e+01
   3.130041e+01   3.016527e+01
   4.548603e+01   1.405315e+00
   4.838514e+01   7.944914e-02
   2.480189e+01   4.857552e+01
  -2.397069e+01   1.053951e+02
  -8.288019e+01   1.027347e+02
  -1.173380e+02   2.487342e+01
  -8.925453e+01  -6.526828e+01
  -5.976341e+00  -9.092114e+01
   6.151458e+01  -4.422201e+01
   4.346501e+01   1.116143e+01
  -4.310139e+01   1.486362e+01
  -1.009379e+02  -3.115144e+01
  -5.664980e+01  -7.792179e+01
   5.775456e+01  -8.280883e+01
   1.391643e+02  -4.002757e+01
   1.196021e+02   2.276647e+01
   2.860365e+01   6.318344e+01
  -4.355975e+01   5.273513e+01
  -3.575723e+01   6.739457e+00
   2.790767e+01  -1.928933e+01
   6.583527e+01   1.629183e+01
   2.379640e+01   8.669608e+01
  -6.729199e+01   1.127267e+02
  -1.229329e+02   4.531352e+01
  -9.292207e+01  -7.375865e+01
  -7.824243e+00  -1.446327e+02
   6.200364e+01  -1.060453e+02
   7.638059e+01   3.699172e+00
   4.560869e+01   8.533689e+01
   7.635142e-01   7.811447e+01
  -3.256204e+01   1.567770e+01
  -3.895574e+01  -2.230636e+01
  -2.013095e+01  -6.263186e+00
  -2.499005e+00   1.541441e+01
  -1.381427e+01  -1.011912e+01
  -4.078353e+01  -6.405793e+01
  -3.252187e+01  -8.008729e+01
   3.275408e+01  -3.353974e+01
   1.013522e+02   2.840491e+01
   9.602000e+01   5.133608e+01
   1.292897e+01   3.570485e+01
  -6.499274e+01   1.611540e+01
  -6.463704e+01   6.258504e+00
  -7.074273e+00  -4.789453e+00
   2.855340e+01  -1.659102e+01
   9.513246e+00  -1.400350e+01
  -1.643406e+01   8.921452e-01
   4.590692e+00   7.046734e+00
   5.514853e+01   3.212170e+00
   6.653997e+01   1.737515e+01
   4.660012e+00   5.837029e+01
  -8.744109e+01   8.300896e+01
  -1.345890e+02   4.198187e+01
  -1.018575e+02  -4.988194e+01
  -1.833359e+01  -1.182220e+02
   5.691931e+01  -1.085653e+02
   8.263322e+01  -4.192356e+01
   5.873498e+01   1.578260e+01
   1.798838e+01   2.535135e+01
  -2.886504e+00   5.793366e+00
   6.931250e+00   2.354912e+00
   2.458040e+01   3.266065e+01
   1.744590e+01   6.523624e+01
  -2.103720e+01   5.216341e+01
  -5.944919e+01  -1.372847e+01
  -5.597048e+01  -7.952034e+01
  -2.070880e+00  -8.190949e+01
   6.089247e+01  -1.643501e+01
   7.480121e+01   5.606636e+01
   2.245248e+01   7.532176e+01
  -4.861476e+01   3.943446e+01
  -7.040285e+01  -9.044542e+00
  -2.765349e+01  -3.577598e+01
   2.357622e+01  -3.638292e+01
   2.152669e+01  -2.034669e+01
  -2.582400e+01  -2.545511e-01
  -5.052366e+01   4.723307e+00
  -1.042014e+01  -1.794530e+01
   5.753144e+01  -4.821306e+01
   8.311534e+01  -4.353897e+01
   4.539047e+01   7.934535e+00
  -1.162295e+01   6.011030e+01
  -3.771955e+01   5.726290e+01
  -2.588031e+01   3.165916e+00
  -4.466897e-01  -4.112682e+01
   1.895255e+01  -3.049435e+01
   2.648758e+01   1.429678e+01
   1.911034e+01   3.923638e+01
  -2.322789e+00   2.296710e+01
  -2.406815e+01  -6.616393e+00
  -2.851670e+01  -1.467480e+01
  -1.490066e+01  -2.689521e-01
   8.674800e-02   9.553271e+00
   4.871734e+00  -3.646192e+00
   6.009416e+00  -2.726863e+01
   1.395222e+01  -3.163251e+01
   2.421300e+01  -3.871513e+00
   2.077802e+01   3.402224e+01
  -3.300924e+00   4.456055e+01
  -3.298984e+01   1.436112e+01
  -4.033626e+01  -2.931543e+01
  -9.954165e+00  -4.621906e+01
   3.957535e+01  -2.445114e+01
   6.397996e+01   1.169305e+01
   3.545121e+01   3.207486e+01
  -2.095646e+01   2.899386e+01
  -4.702835e+01   1.468967e+01
  -1.699879e+01   3.212918e+00
   2.823060e+01   2.203424e+00
   2.803250e+01   1.253290e+01
  -2.318846e+01   2.353628e+01
  -6.788731e+01   1.434764e+01
