
 $NMID
 id='ANONYMOUS ', fmtdat='(2E16.6)'
 volume=1.0
 tramp=1.0
 $END
   4.606608e+03  -9.408912e+00
   2.642805e+03   2.810213e+03
  -8.629383e+02   2.907572e+03
  -2.280875e+03   8.464157e+02
  -9.552596e+02  -7.991130e+02
   7.802250e+02  -6.362871e+02
   9.821975e+02   5.033728e+02
  -2.692288e+01   1.167976e+03
  -9.090592e+02   8.215659e+02
  -1.001107e+03  -1.319501e+02
  -4.560820e+02  -9.378171e+02
   2.897603e+02  -9.425370e+02
   7.014871e+02  -1.008952e+02
   4.082693e+02   7.851120e+02
  -3.039918e+02   7.962631e+02
  -6.518902e+02  -2.416133e+01
  -2.718822e+02  -7.287828e+02
   3.625697e+02  -6.492856e+02
   6.130518e+02  -6.475282e+01
   3.864199e+02   3.862745e+02
  -1.096073e+00   4.571405e+02
  -2.655273e+02   2.706447e+02
  -2.369973e+02   6.628086e+00
   1.097070e+02  -1.152034e+02
   4.379046e+02   9.402591e+01
   2.333462e+02   4.543207e+02
  -4.727175e+02   4.579768e+02
  -9.062816e+02  -6.414372e+01
  -4.685819e+02  -5.920329e+02
   4.160291e+02  -5.354614e+02
   8.003598e+02   2.538403e+01
   3.772573e+02   5.132344e+02
  -2.940478e+02   5.553263e+02
  -5.975468e+02   2.166383e+02
  -4.400536e+02  -2.443404e+02
  -6.922907e+01  -5.104107e+02
   2.289939e+02  -3.043458e+02
   2.047892e+02   2.434192e+02
  -1.703097e+02   4.886042e+02
  -4.939788e+02  -3.867992e+00
  -2.827000e+02  -7.288815e+02
   3.391920e+02  -7.584494e+02
   6.609982e+02  -2.953045e+00
   2.851890e+02   6.047683e+02
  -3.209133e+02   3.532875e+02
  -4.263992e+02  -3.411582e+02
   6.304710e+01  -5.849449e+02
   5.854872e+02  -1.519510e+02
   6.260906e+02   4.215627e+02
   1.721696e+02   6.130484e+02
  -4.039848e+02   3.666597e+02
  -6.616124e+02  -7.701657e+01
  -3.887062e+02  -4.129386e+02
   1.740250e+02  -3.942767e+02
   4.775988e+02  -5.294153e+01
   2.510854e+02   2.261320e+02
  -1.412362e+02   1.223290e+02
  -1.620245e+02  -1.743367e+02
   1.794013e+02  -2.120865e+02
   3.751969e+02   7.977245e+01
   1.480549e+02   3.239239e+02
  -2.174776e+02   2.676117e+02
  -3.367053e+02   6.462399e+01
  -1.887977e+02  -8.508515e+01
   2.617519e+01  -2.112332e+02
   2.104819e+02  -3.251505e+02
   3.372163e+02  -2.339952e+02
   3.076108e+02   1.326265e+02
   8.873362e+01   4.572569e+02
  -1.285214e+02   4.046737e+02
  -1.396664e+02   1.065854e+02
  -2.414888e+01  -3.074784e+01
  -2.688039e+01   8.416914e+01
  -1.880395e+02   1.470153e+02
  -2.915100e+02  -3.923282e+01
  -1.773297e+02  -2.767853e+02
   6.651136e+01  -2.744026e+02
   2.390280e+02  -2.221807e+01
   2.152158e+02   2.435520e+02
  -1.269922e+00   3.091291e+02
  -2.743483e+02   1.310698e+02
  -3.790613e+02  -1.666594e+02
  -1.968684e+02  -3.659483e+02
   1.069752e+02  -3.214024e+02
   2.412533e+02  -1.200751e+02
   1.546472e+02   6.329332e+00
   9.217659e+01  -3.015306e+01
   2.288715e+02  -7.233343e+01
   4.053530e+02   4.798076e+01
   3.417959e+02   2.840981e+02
   5.578993e+00   4.503069e+02
  -3.578614e+02   4.252551e+02
  -4.957530e+02   2.129075e+02
  -3.516942e+02  -9.064607e+01
  -6.441253e+01  -3.068646e+02
   1.371282e+02  -2.689616e+02
   9.599398e+01  -2.951244e+01
  -1.100047e+02   1.231770e+02
  -2.129052e+02   1.229492e+00
  -6.081346e+01  -2.101373e+02
   1.719856e+02  -1.895444e+02
   1.967070e+02   6.212895e+01
  -1.417761e+01   2.089905e+02
  -2.045862e+02   4.120329e+01
  -1.708485e+02  -2.535602e+02
   3.181812e+01  -3.567087e+02
   2.307072e+02  -1.939650e+02
   3.247608e+02   6.188411e+01
   2.823521e+02   2.348340e+02
   1.045365e+02   2.641262e+02
  -1.108066e+02   1.675465e+02
  -1.857496e+02   2.562420e+01
  -6.488427e+01  -3.605773e+01
   7.501230e+01   3.423740e+01
   3.768673e+01   1.294094e+02
  -1.253942e+02   1.093276e+02
  -1.884057e+02  -8.602000e+00
  -6.540565e+01  -7.710949e+01
   8.073019e+01  -2.349586e+01
   6.007283e+01   6.942682e+01
  -1.187233e+02   8.831187e+01
  -2.804081e+02   6.205298e+00
  -2.682938e+02  -1.327013e+02
  -6.975207e+01  -2.554839e+02
   1.793561e+02  -2.715474e+02
   2.897986e+02  -1.370724e+02
   1.803645e+02   5.213478e+01
  -2.274239e+01   1.186120e+02
  -9.835168e+01   1.218980e+01
   2.774331e+01  -1.081015e+02
   2.005445e+02  -6.795413e+01
   2.233485e+02   1.017107e+02
   7.537432e+01   2.150949e+02
  -9.575010e+01   1.665133e+02
  -1.504307e+02   3.356068e+01
  -7.762089e+01  -4.291512e+01
   2.482615e+01  -8.997827e+00
   4.097907e+01   7.724687e+01
  -6.492942e+01   1.132497e+02
  -1.961686e+02   3.504526e+01
  -1.969521e+02  -1.197175e+02
  -2.642195e+01  -2.225965e+02
   1.671584e+02  -1.712880e+02
   2.016249e+02  -7.265331e+00
   6.987576e+01   1.205434e+02
  -6.798985e+01   1.180349e+02
  -8.764299e+01   3.334301e+01
  -2.320121e+01  -2.664250e+01
   1.795800e+01  -2.150423e+01
  -9.726167e+00   3.974824e+00
  -6.690833e+01  -1.027572e+01
  -8.544619e+01  -7.878442e+01
  -1.794219e+01  -1.545028e+02
   1.210057e+02  -1.543580e+02
   2.335244e+02  -3.250110e+01
   2.073825e+02   1.465984e+02
   4.615949e+01   2.411629e+02
  -1.102373e+02   1.753746e+02
  -1.388710e+02   2.803329e+01
  -7.112445e+01  -5.833343e+01
  -2.791138e+01  -3.759328e+01
  -5.309965e+01   1.223883e+01
  -7.828522e+01   7.142446e+00
  -3.919298e+01  -4.754592e+01
   4.193096e+01  -8.422986e+01
   9.721582e+01  -5.372554e+01
   8.109678e+01   3.215323e+01
  -1.099946e+01   1.061413e+02
  -1.356294e+02   8.710257e+01
  -1.965413e+02  -4.488455e+01
  -1.074557e+02  -1.983432e+02
   9.946574e+01  -2.331341e+02
   2.675589e+02  -1.038012e+02
   2.639910e+02   8.251725e+01
   1.153705e+02   1.790870e+02
  -3.724341e+01   1.513926e+02
  -9.610301e+01   8.691440e+01
  -8.169744e+01   7.063828e+01
  -6.837145e+01   9.117598e+01
  -9.259951e+01   7.407306e+01
  -1.282181e+02  -2.181448e+01
  -1.193447e+02  -1.537755e+02
  -3.282705e+01  -2.272759e+02
   9.719512e+01  -1.757963e+02
   1.779155e+02  -2.474554e+01
   1.411264e+02   1.200021e+02
   2.335063e+01   1.615514e+02
  -6.510329e+01   9.656708e+01
  -6.019155e+01   4.772903e+00
  -7.517703e+00  -4.047152e+01
   6.454008e+00  -3.478750e+01
  -3.839398e+01  -1.961700e+01
  -7.842555e+01  -2.316745e+01
  -4.400890e+01  -3.740129e+01
   6.136177e+01  -3.704653e+01
   1.547908e+02  -5.851036e+00
   1.441207e+02   4.725984e+01
   2.006180e+01   8.683765e+01
  -1.170974e+02   7.585506e+01
  -1.456288e+02   1.677125e+01
  -5.019585e+01  -3.856952e+01
   5.991071e+01  -3.673133e+01
   7.578558e+01   1.849753e+01
   5.979079e+00   6.709562e+01
  -5.733807e+01   5.658364e+01
  -6.222700e+01  -2.418221e+00
  -4.165952e+01  -4.940147e+01
  -4.293114e+01  -4.117087e+01
  -6.281417e+01  -2.024275e+00
  -6.659318e+01   1.132318e-03
  -3.392079e+01  -6.618476e+01
   3.274029e+01  -1.444108e+02
   1.130555e+02  -1.415043e+02
   1.604198e+02  -3.500491e+01
   1.226218e+02   8.906726e+01
   8.899991e+00   1.247672e+02
  -8.387034e+01   6.077851e+01
  -5.952656e+01  -1.536747e+01
   5.924937e+01  -2.048423e+01
   1.389812e+02   4.278698e+01
   7.832604e+01   1.072168e+02
  -7.915666e+01   1.142725e+02
  -1.916054e+02   5.573128e+01
  -1.650516e+02  -3.084591e+01
  -3.977879e+01  -8.710106e+01
   5.988791e+01  -7.318193e+01
   4.944281e+01  -9.764610e+00
  -3.811699e+01   2.642961e+01
  -9.034074e+01  -2.231816e+01
  -3.247718e+01  -1.190581e+02
   9.279820e+01  -1.546558e+02
   1.691188e+02  -6.185524e+01
   1.276249e+02   1.016562e+02
   1.061260e+01   1.989023e+02
  -8.529670e+01   1.460141e+02
  -1.052140e+02  -4.694241e+00
  -6.326880e+01  -1.172940e+02
  -1.677654e+00  -1.079483e+02
   4.462657e+01  -2.208876e+01
   5.397746e+01   3.073409e+01
   2.810135e+01   8.908628e+00
   3.399123e+00  -2.141198e+01
   1.873256e+01   1.327265e+01
   5.616864e+01   8.784071e+01
   4.525200e+01   1.105699e+02
  -4.460480e+01   4.661427e+01
  -1.394712e+02  -3.902155e+01
  -1.324368e+02  -7.067738e+01
  -1.792644e+01  -4.886393e+01
   8.957151e+01  -2.188217e+01
   8.901343e+01  -8.782571e+00
   9.548615e+00   6.156383e+00
  -3.945436e+01   2.278608e+01
  -1.295743e+01   1.970504e+01
   2.283672e+01  -9.365799e-01
  -6.356208e+00  -9.939872e+00
  -7.604135e+01  -4.790915e+00
  -9.135746e+01  -2.381538e+01
  -5.887838e+00  -7.977129e+01
   1.204585e+02  -1.137169e+02
   1.845276e+02  -5.763769e+01
   1.392607e+02   6.846188e+01
   2.500466e+01   1.623884e+02
  -7.779381e+01   1.491046e+02
  -1.131451e+02   5.749780e+01
  -8.068355e+01  -2.170410e+01
  -2.477502e+01  -3.463135e+01
   4.088706e+00  -7.581241e+00
  -9.488409e+00  -2.890308e+00
  -3.410133e+01  -4.476188e+01
  -2.438687e+01  -8.973186e+01
   2.880615e+01  -7.173052e+01
   8.175741e+01   1.902299e+01
   7.671071e+01   1.094373e+02
   2.435703e+00   1.123518e+02
  -8.377448e+01   2.204232e+01
  -1.024337e+02  -7.737182e+01
  -3.056494e+01  -1.032488e+02
   6.659829e+01  -5.375985e+01
   9.633475e+01   1.233358e+01
   3.796865e+01   4.854470e+01
  -3.195298e+01   4.959741e+01
  -2.907383e+01   2.822280e+01
   3.571458e+01   8.220697e-01
   6.940596e+01  -6.434922e+00
   1.424645e+01   2.442869e+01
  -7.903416e+01   6.636239e+01
  -1.140486e+02   6.042396e+01
  -6.218076e+01  -1.034494e+01
   1.591691e+01  -8.245541e+01
   5.136989e+01  -7.872822e+01
   3.493888e+01  -4.283201e+00
   2.837608e-01   5.652052e+01
  -2.593399e+01   4.160324e+01
  -3.615505e+01  -1.998967e+01
  -2.621822e+01  -5.383560e+01
   3.044494e+00  -3.115415e+01
   3.296354e+01   9.220985e+00
   3.923035e+01   1.983081e+01
   2.058097e+01   1.487645e-01
  -1.543948e-01  -1.274544e+01
  -7.045600e+00   5.581239e+00
  -8.874141e+00   3.739733e+01
  -1.963876e+01   4.263094e+01
  -3.309788e+01   4.491736e+00
  -2.777205e+01  -4.689412e+01
   5.242715e+00  -6.084330e+01
   4.536675e+01  -1.939404e+01
   5.497159e+01   4.034080e+01
   1.340823e+01   6.347415e+01
  -5.417632e+01   3.361754e+01
  -8.758381e+01  -1.603246e+01
  -4.864622e+01  -4.400208e+01
   2.861288e+01  -3.962436e+01
   6.436035e+01  -1.993488e+01
   2.305144e+01  -4.479788e+00
  -3.906444e+01  -3.530027e+00
  -3.846379e+01  -1.776977e+01
   3.237978e+01  -3.243907e+01
   9.386239e+01  -1.935935e+01
