
 $NMID
 id='ANONYMOUS ', fmtdat='(2E16.6)'
 volume=1.0
 tramp=1.0
 $END
   4.659299e+03   4.042317e+01
   2.638908e+03   2.898224e+03
  -9.367542e+02   2.951588e+03
  -2.356544e+03   8.097261e+02
  -9.685160e+02  -8.669712e+02
   8.178552e+02  -6.665662e+02
   1.012517e+03   5.225355e+02
  -3.522354e+01   1.197372e+03
  -9.386106e+02   8.269130e+02
  -1.020142e+03  -1.520848e+02
  -4.500702e+02  -9.651642e+02
   3.140400e+02  -9.577760e+02
   7.242049e+02  -9.446253e+01
   4.106171e+02   8.044645e+02
  -3.210237e+02   8.062029e+02
  -6.651210e+02  -3.502792e+01
  -2.621916e+02  -7.452707e+02
   3.863126e+02  -6.486669e+02
   6.266998e+02  -4.568554e+01
   3.811037e+02   4.056823e+02
  -1.433969e+01   4.648459e+02
  -2.768411e+02   2.700840e+02
  -2.470356e+02   3.352827e+00
   1.012644e+02  -1.208841e+02
   4.367058e+02   8.840242e+01
   2.385961e+02   4.542635e+02
  -4.712403e+02   4.614638e+02
  -9.130605e+02  -6.686567e+01
  -4.745108e+02  -6.033379e+02
   4.196729e+02  -5.447627e+02
   8.086919e+02   2.691047e+01
   3.796490e+02   5.207966e+02
  -2.995659e+02   5.586909e+02
  -6.044124e+02   2.125383e+02
  -4.421884e+02  -2.531393e+02
  -6.411891e+01  -5.206800e+02
   2.405733e+02  -3.109989e+02
   2.161572e+02   2.466523e+02
  -1.687674e+02   4.996100e+02
  -5.023472e+02   2.146181e+00
  -2.876150e+02  -7.354765e+02
   3.480321e+02  -7.676741e+02
   6.754414e+02  -1.626825e-01
   2.892424e+02   6.178741e+02
  -3.288032e+02   3.615818e+02
  -4.327649e+02  -3.442681e+02
   6.611782e+01  -5.899455e+02
   5.907276e+02  -1.486608e+02
   6.240212e+02   4.311018e+02
   1.635813e+02   6.199702e+02
  -4.123459e+02   3.654617e+02
  -6.655625e+02  -8.648385e+01
  -3.865477e+02  -4.261597e+02
   1.826238e+02  -4.018697e+02
   4.876233e+02  -4.746390e+01
   2.536823e+02   2.393857e+02
  -1.475944e+02   1.287948e+02
  -1.676211e+02  -1.798092e+02
   1.822902e+02  -2.179709e+02
   3.807982e+02   8.413334e+01
   1.462936e+02   3.317876e+02
  -2.249695e+02   2.654820e+02
  -3.390379e+02   5.358703e+01
  -1.821295e+02  -9.067313e+01
   3.435747e+01  -2.046125e+02
   2.135959e+02  -3.148016e+02
   3.369100e+02  -2.288694e+02
   3.065048e+02   1.345774e+02
   8.425054e+01   4.611531e+02
  -1.382169e+02   4.081025e+02
  -1.494783e+02   1.039599e+02
  -2.748154e+01  -3.832598e+01
  -2.397590e+01   7.804871e+01
  -1.842146e+02   1.452276e+02
  -2.895589e+02  -3.928387e+01
  -1.760992e+02  -2.775458e+02
   6.770648e+01  -2.752851e+02
   2.389967e+02  -2.208027e+01
   2.135682e+02   2.444190e+02
  -3.218489e+00   3.095235e+02
  -2.752212e+02   1.294517e+02
  -3.778160e+02  -1.711548e+02
  -1.924163e+02  -3.712281e+02
   1.141382e+02  -3.228209e+02
   2.478058e+02  -1.154939e+02
   1.572479e+02   1.359149e+01
   9.092594e+01  -2.433312e+01
   2.259021e+02  -6.751561e+01
   4.011080e+02   5.389709e+01
   3.354548e+02   2.886877e+02
  -1.668997e+00   4.485105e+02
  -3.631513e+02   4.171656e+02
  -4.979511e+02   2.046148e+02
  -3.516202e+02  -9.482937e+01
  -6.210119e+01  -3.084534e+02
   1.419510e+02  -2.703551e+02
   1.008101e+02  -2.989202e+01
  -1.089789e+02   1.244755e+02
  -2.151040e+02   1.643851e+00
  -6.130078e+01  -2.123732e+02
   1.752111e+02  -1.915676e+02
   1.995381e+02   6.348233e+01
  -1.504067e+01   2.114779e+02
  -2.055552e+02   4.044841e+01
  -1.667175e+02  -2.564885e+02
   3.910474e+01  -3.560041e+02
   2.337961e+02  -1.874728e+02
   3.206887e+02   6.946996e+01
   2.757561e+02   2.382450e+02
   1.006469e+02   2.632719e+02
  -1.119638e+02   1.654640e+02
  -1.867260e+02   2.395049e+01
  -6.620969e+01  -3.736599e+01
   7.434541e+01   3.342452e+01
   3.759093e+01   1.290980e+02
  -1.257682e+02   1.086333e+02
  -1.890766e+02  -1.003240e+01
  -6.612148e+01  -7.812706e+01
   7.958132e+01  -2.357942e+01
   5.871892e+01   6.840676e+01
  -1.185165e+02   8.451980e+01
  -2.774098e+02   1.161274e+00
  -2.638595e+02  -1.353389e+02
  -6.620904e+01  -2.541161e+02
   1.814614e+02  -2.678773e+02
   2.912478e+02  -1.335177e+02
   1.810984e+02   5.446709e+01
  -2.329677e+01   1.195769e+02
  -9.942763e+01   1.221599e+01
   2.754384e+01  -1.077104e+02
   2.008126e+02  -6.598849e+01
   2.222591e+02   1.045405e+02
   7.269805e+01   2.166149e+02
  -9.808817e+01   1.658445e+02
  -1.513255e+02   3.214841e+01
  -7.835712e+01  -4.358284e+01
   2.291892e+01  -9.432855e+00
   3.880701e+01   7.558684e+01
  -6.547822e+01   1.100883e+02
  -1.945675e+02   3.156235e+01
  -1.940331e+02  -1.219775e+02
  -2.311947e+01  -2.225025e+02
   1.698915e+02  -1.687566e+02
   2.026229e+02  -3.891043e+00
   6.886296e+01   1.223937e+02
  -6.968148e+01   1.176753e+02
  -8.864430e+01   3.252601e+01
  -2.381447e+01  -2.633288e+01
   1.685183e+01  -2.104737e+01
  -1.059371e+01   2.628495e+00
  -6.572034e+01  -1.304482e+01
  -8.197784e+01  -8.026671e+01
  -1.430142e+01  -1.528976e+02
   1.225204e+02  -1.505624e+02
   2.322416e+02  -2.861569e+01
   2.039898e+02   1.491025e+02
   4.200456e+01   2.415786e+02
  -1.133346e+02   1.736525e+02
  -1.395718e+02   2.528235e+01
  -7.004018e+01  -6.043953e+01
  -2.702739e+01  -3.870474e+01
  -5.309831e+01   1.089210e+01
  -7.763068e+01   5.168209e+00
  -3.678134e+01  -4.826677e+01
   4.441625e+01  -8.192705e+01
   9.709093e+01  -4.982424e+01
   7.827354e+01   3.397465e+01
  -1.366091e+01   1.039887e+02
  -1.354945e+02   8.279222e+01
  -1.936076e+02  -4.795884e+01
  -1.036720e+02  -1.981777e+02
   1.020720e+02  -2.299241e+02
   2.678772e+02  -9.915864e+01
   2.621216e+02   8.646541e+01
   1.125653e+02   1.807336e+02
  -3.955591e+01   1.507175e+02
  -9.769576e+01   8.529597e+01
  -8.347958e+01   6.918766e+01
  -7.066717e+01   8.962076e+01
  -9.411196e+01   7.167410e+01
  -1.272482e+02  -2.470049e+01
  -1.157565e+02  -1.556686e+02
  -2.844770e+01  -2.269964e+02
   9.994113e+01  -1.735643e+02
   1.777224e+02  -2.202311e+01
   1.387083e+02   1.215359e+02
   2.092372e+01   1.612315e+02
  -6.571206e+01   9.537734e+01
  -5.925078e+01   4.467320e+00
  -6.805304e+00  -3.935340e+01
   6.084775e+00  -3.373773e+01
  -3.872593e+01  -2.035917e+01
  -7.752441e+01  -2.521113e+01
  -4.264671e+01  -3.823986e+01
   6.136005e+01  -3.506199e+01
   1.530310e+02  -2.392988e+00
   1.420251e+02   4.916881e+01
   1.893550e+01   8.558575e+01
  -1.171906e+02   7.267995e+01
  -1.450413e+02   1.434744e+01
  -4.912424e+01  -3.860699e+01
   6.070437e+01  -3.497107e+01
   7.501689e+01   2.010419e+01
   3.615398e+00   6.708339e+01
  -5.925773e+01   5.508360e+01
  -6.177836e+01  -4.201437e+00
  -3.955253e+01  -5.059905e+01
  -4.156433e+01  -4.197209e+01
  -6.296252e+01  -3.059615e+00
  -6.640530e+01  -1.255223e+00
  -3.162212e+01  -6.667994e+01
   3.623642e+01  -1.429598e+02
   1.150457e+02  -1.379574e+02
   1.594020e+02  -3.091324e+01
   1.196839e+02   9.125851e+01
   6.355709e+00   1.237934e+02
  -8.465184e+01   5.803220e+01
  -5.901025e+01  -1.690712e+01
   5.953486e+01  -1.921990e+01
   1.379530e+02   4.538762e+01
   7.631490e+01   1.082278e+02
  -8.079395e+01   1.123800e+02
  -1.918111e+02   5.235290e+01
  -1.639673e+02  -3.326152e+01
  -3.843717e+01  -8.739579e+01
   6.050861e+01  -7.221239e+01
   4.912604e+01  -9.349218e+00
  -3.858776e+01   2.521952e+01
  -8.954102e+01  -2.436715e+01
  -2.960198e+01  -1.197984e+02
   9.651553e+01  -1.526358e+02
   1.708080e+02  -5.805854e+01
   1.255305e+02   1.045240e+02
   6.370113e+00   1.990632e+02
  -8.802811e+01   1.441981e+02
  -1.046005e+02  -6.432631e+00
  -6.099111e+01  -1.177505e+02
  -4.480052e-01  -1.073780e+02
   4.428406e+01  -2.125215e+01
   5.358129e+01   3.135124e+01
   2.849418e+01   9.138172e+00
   3.552879e+00  -2.139397e+01
   1.747646e+01   1.359784e+01
   5.400342e+01   8.865168e+01
   4.374137e+01   1.109752e+02
  -4.465317e+01   4.536949e+01
  -1.384883e+02  -4.174319e+01
  -1.311288e+02  -7.291294e+01
  -1.667633e+01  -4.885527e+01
   9.037908e+01  -2.006376e+01
   8.894102e+01  -7.174352e+00
   8.767381e+00   6.318656e+00
  -4.002838e+01   2.215133e+01
  -1.272180e+01   1.951807e+01
   2.332853e+01  -5.828727e-01
  -6.476582e+00  -1.015316e+01
  -7.643069e+01  -6.340027e+00
  -9.056255e+01  -2.582884e+01
  -3.289349e+00  -8.014936e+01
   1.233478e+02  -1.110684e+02
   1.852915e+02  -5.296696e+01
   1.370135e+02   7.221344e+01
   2.122874e+01   1.628554e+02
  -8.076495e+01   1.465846e+02
  -1.141079e+02   5.436379e+01
  -8.007892e+01  -2.346992e+01
  -2.375589e+01  -3.492213e+01
   4.791953e+00  -7.407894e+00
  -8.957590e+00  -2.933728e+00
  -3.311107e+01  -4.495621e+01
  -2.274211e+01  -8.964876e+01
   3.019876e+01  -7.088404e+01
   8.144018e+01   2.078502e+01
   7.428202e+01   1.112726e+02
  -5.134425e-01   1.126059e+02
  -8.484700e+01   1.998311e+01
  -1.007745e+02  -8.010914e+01
  -2.777579e+01  -1.039500e+02
   6.807118e+01  -5.170857e+01
   9.554418e+01   1.486676e+01
   3.605966e+01   4.896641e+01
  -3.321460e+01   4.802943e+01
  -2.901343e+01   2.706505e+01
   3.635923e+01   1.592836e+00
   6.948609e+01  -4.851931e+00
   1.335977e+01   2.465229e+01
  -8.019686e+01   6.456436e+01
  -1.143361e+02   5.798156e+01
  -6.104175e+01  -1.159405e+01
   1.783618e+01  -8.181577e+01
   5.267696e+01  -7.692355e+01
   3.468928e+01  -2.696901e+00
  -1.135693e+00   5.684609e+01
  -2.710699e+01   4.065417e+01
  -3.594338e+01  -2.124909e+01
  -2.487453e+01  -5.432133e+01
   4.137482e+00  -3.061257e+01
   3.280308e+01   1.013672e+01
   3.834125e+01   2.040064e+01
   2.033003e+01   3.360833e-01
   5.789532e-01  -1.245841e+01
  -6.651309e+00   6.191691e+00
  -1.012943e+01   3.786487e+01
  -2.185189e+01   4.221881e+01
  -3.406885e+01   3.057571e+00
  -2.642090e+01  -4.847592e+01
   7.461718e+00  -6.127718e+01
   4.615677e+01  -1.821396e+01
   5.380165e+01   4.207329e+01
   1.179563e+01   6.397385e+01
  -5.467407e+01   3.213368e+01
  -8.684556e+01  -1.831014e+01
  -4.747265e+01  -4.503108e+01
   2.959080e+01  -3.857599e+01
   6.484370e+01  -1.802205e+01
   2.284853e+01  -3.624957e+00
  -3.970688e+01  -4.333552e+00
  -3.866002e+01  -1.897200e+01
   3.321551e+01  -3.237726e+01
   9.490886e+01  -1.778667e+01
