
 $NMID
 id='ANONYMOUS ', fmtdat='(2E16.6)'
 volume=1.0
 tramp=1.0
 $END
   4.721558e+03  -5.933191e+00
   2.713137e+03   2.888968e+03
  -8.879290e+02   2.992299e+03
  -2.352524e+03   8.722630e+02
  -9.937793e+02  -8.266501e+02
   7.961119e+02  -6.638241e+02
   1.012029e+03   5.106367e+02
  -2.316242e+01   1.199150e+03
  -9.329092e+02   8.452927e+02
  -1.029917e+03  -1.351793e+02
  -4.696593e+02  -9.642409e+02
   2.978675e+02  -9.702773e+02
   7.218269e+02  -1.065372e+02
   4.206948e+02   8.045623e+02
  -3.120958e+02   8.180610e+02
  -6.703171e+02  -2.436602e+01
  -2.784999e+02  -7.495693e+02
   3.757969e+02  -6.677639e+02
   6.331687e+02  -6.481600e+01
   3.975529e+02   3.999152e+02
  -2.493291e+00   4.712925e+02
  -2.736640e+02   2.784750e+02
  -2.445999e+02   8.409364e+00
   1.088146e+02  -1.161537e+02
   4.446077e+02   9.580598e+01
   2.382217e+02   4.622355e+02
  -4.815653e+02   4.665050e+02
  -9.261402e+02  -6.566286e+01
  -4.810714e+02  -6.051803e+02
   4.233561e+02  -5.481775e+02
   8.181886e+02   2.529693e+01
   3.863510e+02   5.248728e+02
  -3.009921e+02   5.679444e+02
  -6.121896e+02   2.209194e+02
  -4.511235e+02  -2.511077e+02
  -7.147017e+01  -5.240500e+02
   2.345694e+02  -3.144367e+02
   2.115910e+02   2.461414e+02
  -1.712029e+02   4.997560e+02
  -5.037739e+02  -1.298140e+00
  -2.898144e+02  -7.437291e+02
   3.464579e+02  -7.770803e+02
   6.777105e+02  -5.232817e+00
   2.941507e+02   6.187282e+02
  -3.271906e+02   3.635208e+02
  -4.363538e+02  -3.475112e+02
   6.455126e+01  -5.982080e+02
   5.992339e+02  -1.547024e+02
   6.398730e+02   4.334256e+02
   1.746534e+02   6.291474e+02
  -4.145863e+02   3.752183e+02
  -6.778806e+02  -8.050743e+01
  -3.988047e+02  -4.249993e+02
   1.778113e+02  -4.056167e+02
   4.906139e+02  -5.477662e+01
   2.597626e+02   2.329980e+02
  -1.437657e+02   1.275315e+02
  -1.675369e+02  -1.776415e+02
   1.822890e+02  -2.179357e+02
   3.847700e+02   8.134913e+01
   1.521935e+02   3.326286e+02
  -2.243122e+02   2.741112e+02
  -3.469093e+02   6.371924e+01
  -1.925335e+02  -9.001991e+01
   3.050051e+01  -2.162229e+02
   2.186133e+02  -3.299441e+02
   3.455828e+02  -2.369109e+02
   3.137502e+02   1.364566e+02
   8.985139e+01   4.684201e+02
  -1.327783e+02   4.157482e+02
  -1.452993e+02   1.105717e+02
  -2.729939e+01  -3.202916e+01
  -2.862056e+01   8.375472e+01
  -1.917022e+02   1.481950e+02
  -2.968052e+02  -4.103905e+01
  -1.803102e+02  -2.830269e+02
   6.829102e+01  -2.801986e+02
   2.438062e+02  -2.221370e+01
   2.189433e+02   2.493377e+02
  -2.107969e+00   3.158250e+02
  -2.805911e+02   1.330947e+02
  -3.872112e+02  -1.718350e+02
  -2.006525e+02  -3.757682e+02
   1.106968e+02  -3.297797e+02
   2.487790e+02  -1.228760e+02
   1.601764e+02   7.485104e+00
   9.536558e+01  -2.907212e+01
   2.342056e+02  -7.158952e+01
   4.139988e+02   5.196275e+01
   3.480045e+02   2.929226e+02
   2.968748e+00   4.607862e+02
  -3.688962e+02   4.328179e+02
  -5.085723e+02   2.151744e+02
  -3.595869e+02  -9.389724e+01
  -6.512215e+01  -3.139678e+02
   1.408872e+02  -2.756161e+02
   9.880919e+01  -3.131151e+01
  -1.118217e+02   1.254028e+02
  -2.174358e+02   1.571508e+00
  -6.235898e+01  -2.147022e+02
   1.758023e+02  -1.942702e+02
   2.014176e+02   6.319506e+01
  -1.431342e+01   2.138221e+02
  -2.090878e+02   4.177708e+01
  -1.737393e+02  -2.605579e+02
   3.471862e+01  -3.655122e+02
   2.379655e+02  -1.969147e+02
   3.322820e+02   6.629495e+01
   2.871024e+02   2.424170e+02
   1.051280e+02   2.703872e+02
  -1.140724e+02   1.705505e+02
  -1.901038e+02   2.573871e+01
  -6.672432e+01  -3.678481e+01
   7.607689e+01   3.505497e+01
   3.810592e+01   1.319859e+02
  -1.283141e+02   1.112293e+02
  -1.926264e+02  -9.199718e+00
  -6.698401e+01  -7.875234e+01
   8.210510e+01  -2.352775e+01
   6.058796e+01   7.105631e+01
  -1.221969e+02   8.902547e+01
  -2.867008e+02   4.017317e+00
  -2.731695e+02  -1.375063e+02
  -6.960412e+01  -2.613177e+02
   1.847711e+02  -2.764189e+02
   2.969971e+02  -1.389527e+02
   1.846097e+02   5.374238e+01
  -2.324302e+01   1.212560e+02
  -1.005212e+02   1.255957e+01
   2.853884e+01  -1.100510e+02
   2.051975e+02  -6.862663e+01
   2.281215e+02   1.049624e+02
   7.636306e+01   2.204934e+02
  -9.857437e+01   1.701288e+02
  -1.540153e+02   3.392242e+01
  -7.940740e+01  -4.382853e+01
   2.482610e+01  -8.704949e+00
   4.076562e+01   7.908971e+01
  -6.736789e+01   1.148783e+02
  -2.007112e+02   3.426320e+01
  -2.006493e+02  -1.236589e+02
  -2.586967e+01  -2.279019e+02
   1.719820e+02  -1.746056e+02
   2.067254e+02  -6.652204e+00
   7.134336e+01   1.236863e+02
  -6.997012e+01   1.206301e+02
  -8.985055e+01   3.395656e+01
  -2.365366e+01  -2.697804e+01
   1.824768e+01  -2.150540e+01
  -1.046486e+01   3.998461e+00
  -6.871779e+01  -1.147476e+01
  -8.669394e+01  -8.172104e+01
  -1.686079e+01  -1.582373e+02
   1.249863e+02  -1.568343e+02
   2.389722e+02  -3.161005e+01
   2.112096e+02   1.512648e+02
   4.592967e+01   2.472017e+02
  -1.138010e+02   1.791320e+02
  -1.425414e+02   2.798180e+01
  -7.277698e+01  -6.032399e+01
  -2.851910e+01  -3.884597e+01
  -5.453087e+01   1.211641e+01
  -8.024142e+01   6.572830e+00
  -3.959061e+01  -4.934814e+01
   4.402730e+01  -8.602401e+01
   1.002531e+02  -5.379423e+01
   8.256058e+01   3.405786e+01
  -1.251862e+01   1.084978e+02
  -1.395888e+02   8.767804e+01
  -2.005748e+02  -4.751990e+01
  -1.084242e+02  -2.034241e+02
   1.032185e+02  -2.376132e+02
   2.743278e+02  -1.045370e+02
   2.697418e+02   8.589767e+01
   1.172165e+02   1.839045e+02
  -3.888577e+01   1.548012e+02
  -9.890502e+01   8.856668e+01
  -8.418098e+01   7.207961e+01
  -7.075974e+01   9.316238e+01
  -9.550568e+01   7.529828e+01
  -1.312918e+02  -2.330960e+01
  -1.212199e+02  -1.583629e+02
  -3.212443e+01  -2.329382e+02
   1.005694e+02  -1.793857e+02
   1.821606e+02  -2.432683e+01
   1.436282e+02   1.235715e+02
   2.295781e+01   1.653661e+02
  -6.699536e+01   9.828275e+01
  -6.127754e+01   4.448179e+00
  -7.150039e+00  -4.124779e+01
   6.849489e+00  -3.514916e+01
  -3.938534e+01  -2.012931e+01
  -8.030186e+01  -2.441531e+01
  -4.476328e+01  -3.875163e+01
   6.317045e+01  -3.726944e+01
   1.584297e+02  -4.526084e+00
   1.469718e+02   4.938989e+01
   1.974246e+01   8.863365e+01
  -1.204116e+02   7.653230e+01
  -1.490635e+02   1.620404e+01
  -5.091223e+01  -3.971229e+01
   6.179083e+01  -3.721125e+01
   7.752638e+01   1.952444e+01
   5.500423e+00   6.906503e+01
  -5.935908e+01   5.781660e+01
  -6.384062e+01  -3.054487e+00
  -4.229340e+01  -5.125864e+01
  -4.364685e+01  -4.258733e+01
  -6.435866e+01  -2.340550e+00
  -6.820721e+01  -4.174708e-01
  -3.414473e+01  -6.826894e+01
   3.473211e+01  -1.478526e+02
   1.168868e+02  -1.439199e+02
   1.645410e+02  -3.431719e+01
   1.248840e+02   9.226977e+01
   8.084089e+00   1.277318e+02
  -8.652777e+01   6.148833e+01
  -6.098535e+01  -1.622322e+01
   6.085161e+01  -2.060817e+01
   1.421423e+02   4.467151e+01
   7.955315e+01   1.102116e+02
  -8.175446e+01   1.164491e+02
  -1.964312e+02   5.587480e+01
  -1.686852e+02  -3.251709e+01
  -4.022244e+01  -8.930760e+01
   6.158035e+01  -7.449357e+01
   5.048175e+01  -9.703113e+00
  -3.933584e+01   2.676771e+01
  -9.247526e+01  -2.354314e+01
  -3.253237e+01  -1.223873e+02
   9.618954e+01  -1.581420e+02
   1.739260e+02  -6.247429e+01
   1.303185e+02   1.050241e+02
   9.667422e+00   2.040202e+02
  -8.827048e+01   1.491173e+02
  -1.076252e+02  -5.483853e+00
  -6.397801e+01  -1.204214e+02
  -1.123793e+00  -1.102952e+02
   4.570032e+01  -2.218588e+01
   5.507551e+01   3.166361e+01
   2.878169e+01   9.072066e+00
   3.538489e+00  -2.186604e+01
   1.891244e+01   1.397187e+01
   5.690669e+01   9.041723e+01
   4.575931e+01   1.133163e+02
  -4.590948e+01   4.721769e+01
  -1.426903e+02  -4.084498e+01
  -1.352661e+02  -7.310204e+01
  -1.794089e+01  -5.019372e+01
   9.202938e+01  -2.201115e+01
   9.120275e+01  -8.458840e+00
   9.611816e+00   6.538245e+00
  -4.055859e+01   2.319473e+01
  -1.324900e+01   1.996960e+01
   2.348371e+01  -9.776706e-01
  -6.546708e+00  -1.015717e+01
  -7.802967e+01  -5.223095e+00
  -9.350083e+01  -2.506308e+01
  -5.443901e+00  -8.213298e+01
   1.243276e+02  -1.159980e+02
   1.896802e+02  -5.771980e+01
   1.424481e+02   7.141607e+01
   2.458249e+01   1.667470e+02
  -8.086414e+01   1.522035e+02
  -1.165154e+02   5.806377e+01
  -8.259175e+01  -2.279037e+01
  -2.507644e+01  -3.569054e+01
   4.371644e+00  -7.878871e+00
  -9.574572e+00  -3.115839e+00
  -3.454906e+01  -4.600913e+01
  -2.435906e+01  -9.196955e+01
   3.000695e+01  -7.330021e+01
   8.374857e+01   1.997970e+01
   7.804066e+01   1.127533e+02
   1.763801e+00   1.154193e+02
  -8.623730e+01   2.220719e+01
  -1.047251e+02  -8.007426e+01
  -3.061617e+01  -1.062321e+02
   6.885557e+01  -5.468877e+01
   9.873722e+01   1.346772e+01
   3.836141e+01   5.016782e+01
  -3.334694e+01   5.054393e+01
  -2.999568e+01   2.847842e+01
   3.675619e+01   8.806827e-01
   7.122908e+01  -6.144621e+00
   1.436641e+01   2.521951e+01
  -8.142641e+01   6.748589e+01
  -1.171176e+02   6.100348e+01
  -6.349548e+01  -1.121587e+01
   1.693276e+01  -8.444278e+01
   5.326913e+01  -8.018004e+01
   3.601329e+01  -3.919086e+00
  -6.272471e-03   5.808482e+01
  -2.701030e+01   4.250398e+01
  -3.713144e+01  -2.075754e+01
  -2.650243e+01  -5.540299e+01
   3.525562e+00  -3.194883e+01
   3.381268e+01   9.687719e+00
   3.994359e+01   2.064431e+01
   2.098604e+01   2.925320e-01
   9.058253e-02  -1.313712e+01
  -6.948713e+00   5.696300e+00
  -9.240439e+00   3.855366e+01
  -2.065835e+01   4.395301e+01
  -3.434268e+01   4.496072e+00
  -2.839382e+01  -4.855164e+01
   5.781774e+00  -6.272176e+01
   4.677312e+01  -1.967371e+01
   5.621792e+01   4.189688e+01
   1.337295e+01   6.528532e+01
  -5.580336e+01   3.402179e+01
  -8.974904e+01  -1.715865e+01
  -4.957056e+01  -4.547790e+01
   2.972594e+01  -4.040862e+01
   6.627800e+01  -1.996139e+01
   2.370345e+01  -4.300676e+00
  -4.017587e+01  -3.654920e+00
  -3.955666e+01  -1.837582e+01
   3.325899e+01  -3.323692e+01
   9.638245e+01  -1.954583e+01
