
 $NMID
 id='ANONYMOUS ', fmtdat='(2E16.6)'
 volume=1.0
 tramp=1.0
 $END
  -4.669958e+03   2.161925e+01
  -2.683634e+03  -2.842454e+03
   8.702870e+02  -2.947176e+03
   2.309130e+03  -8.592196e+02
   9.659171e+02   8.102819e+02
  -7.932027e+02   6.458737e+02
  -9.975382e+02  -5.103165e+02
   2.574795e+01  -1.185118e+03
   9.203353e+02  -8.343927e+02
   1.014723e+03   1.323119e+02
   4.635891e+02   9.497920e+02
  -2.923982e+02   9.554121e+02
  -7.113133e+02   1.027349e+02
  -4.155362e+02  -7.956665e+02
   3.066671e+02  -8.076454e+02
   6.607572e+02   2.351467e+01
   2.768438e+02   7.377648e+02
  -3.658410e+02   6.577554e+02
  -6.201651e+02   6.622125e+01
  -3.914683e+02  -3.903581e+02
   4.334551e-01  -4.626688e+02
   2.685639e+02  -2.744941e+02
   2.403943e+02  -6.575078e+00
  -1.111285e+02   1.183710e+02
  -4.451761e+02  -9.327455e+01
  -2.387825e+02  -4.604749e+02
   4.779839e+02  -4.668334e+02
   9.196246e+02   6.210436e+01
   4.768606e+02   5.996453e+02
  -4.209111e+02   5.448715e+02
  -8.121790e+02  -2.334081e+01
  -3.841542e+02  -5.196011e+02
   2.965343e+02  -5.641377e+02
   6.051155e+02  -2.214177e+02
   4.466143e+02   2.465632e+02
   7.113167e+01   5.173324e+02
  -2.321059e+02   3.087376e+02
  -2.088006e+02  -2.473643e+02
   1.718306e+02  -4.969027e+02
   5.020381e+02   2.541045e+00
   2.892979e+02   7.389915e+02
  -3.421974e+02   7.702416e+02
  -6.707478e+02   4.166676e+00
  -2.906179e+02  -6.131906e+02
   3.252039e+02  -3.591981e+02
   4.338788e+02   3.450893e+02
  -6.215066e+01   5.935326e+02
  -5.931788e+02   1.559347e+02
  -6.358701e+02  -4.251801e+02
  -1.762184e+02  -6.205697e+02
   4.084713e+02  -3.727541e+02
   6.706829e+02   7.610427e+01
   3.946306e+02   4.175221e+02
  -1.759681e+02   4.000791e+02
  -4.840669e+02   5.448547e+01
  -2.543921e+02  -2.290629e+02
   1.436417e+02  -1.242459e+02
   1.647161e+02   1.769407e+02
  -1.818178e+02   2.157975e+02
  -3.807010e+02  -8.008872e+01
  -1.506820e+02  -3.280805e+02
   2.195472e+02  -2.715577e+02
   3.402682e+02  -6.636017e+01
   1.911018e+02   8.503741e+01
  -2.526906e+01   2.133558e+02
  -2.112329e+02   3.300836e+02
  -3.406040e+02   2.386480e+02
  -3.123838e+02  -1.332268e+02
  -9.136931e+01  -4.631863e+02
   1.293725e+02  -4.101927e+02
   1.412981e+02  -1.076228e+02
   2.396043e+01   3.167748e+01
   2.620421e+01  -8.559966e+01
   1.898518e+02  -1.502567e+02
   2.958299e+02   3.839855e+01
   1.809278e+02   2.799630e+02
  -6.646910e+01   2.785618e+02
  -2.423860e+02   2.352747e+01
  -2.192013e+02  -2.460523e+02
   1.127827e-01  -3.134293e+02
   2.776461e+02  -1.339633e+02
   3.847467e+02   1.675252e+02
   2.005538e+02   3.701546e+02
  -1.075718e+02   3.258188e+02
  -2.439975e+02   1.219977e+02
  -1.562581e+02  -6.280463e+00
  -9.275419e+01   3.091163e+01
  -2.313030e+02   7.447632e+01
  -4.106873e+02  -4.675725e+01
  -3.472532e+02  -2.863036e+02
  -7.472192e+00  -4.560143e+02
   3.606352e+02  -4.320996e+02
   5.012837e+02  -2.175530e+02
   3.567381e+02   9.063260e+01
   6.637893e+01   3.108618e+02
  -1.383009e+02   2.729805e+02
  -9.745713e+01   2.985826e+01
   1.111893e+02  -1.255639e+02
   2.160993e+02  -1.916914e+00
   6.235170e+01   2.130535e+02
  -1.740049e+02   1.927393e+02
  -1.997685e+02  -6.254833e+01
   1.380026e+01  -2.120706e+02
   2.073356e+02  -4.252355e+01
   1.739421e+02   2.562020e+02
  -3.096672e+01   3.612451e+02
  -2.326865e+02   1.972068e+02
  -3.288196e+02  -6.126682e+01
  -2.868560e+02  -2.365073e+02
  -1.071061e+02  -2.670983e+02
   1.115447e+02  -1.702484e+02
   1.881969e+02  -2.661041e+01
   6.588316e+01   3.648935e+01
  -7.630270e+01  -3.432928e+01
  -3.879690e+01  -1.311096e+02
   1.267009e+02  -1.113705e+02
   1.910480e+02   8.061946e+00
   6.659191e+01   7.806250e+01
  -8.177480e+01   2.429020e+01
  -6.129122e+01  -7.001384e+01
   1.196856e+02  -8.998208e+01
   2.838362e+02  -7.598435e+00
   2.723200e+02   1.331479e+02
   7.184528e+01   2.584935e+02
  -1.805263e+02   2.758926e+02
  -2.931166e+02   1.399957e+02
  -1.829803e+02  -5.229448e+01
   2.269777e+01  -1.203999e+02
   9.976423e+01  -1.266436e+01
  -2.765206e+01   1.097910e+02
  -2.029786e+02   6.967797e+01
  -2.266831e+02  -1.022413e+02
  -7.711535e+01  -2.176771e+02
   9.645643e+01  -1.690630e+02
   1.523573e+02  -3.453260e+01
   7.887914e+01   4.331276e+01
  -2.513180e+01   9.439459e+00
  -4.199197e+01  -7.792218e+01
   6.509746e+01  -1.150021e+02
   1.984605e+02  -3.641579e+01
   1.999778e+02   1.204134e+02
   2.762886e+01   2.253740e+02
  -1.687029e+02   1.741020e+02
  -2.042055e+02   7.994137e+00
  -7.116588e+01  -1.219580e+02
   6.850500e+01  -1.198430e+02
   8.872442e+01  -3.406038e+01
   2.369903e+01   2.698533e+01
  -1.804718e+01   2.198833e+01
   9.741318e+00  -3.940853e+00
   6.760004e+01   1.011590e+01
   8.674781e+01   7.926701e+01
   1.888781e+01   1.562452e+02
  -1.217830e+02   1.568194e+02
  -2.363375e+02   3.394382e+01
  -2.106303e+02  -1.476003e+02
  -4.764988e+01  -2.440574e+02
   1.110340e+02  -1.780013e+02
   1.405101e+02  -2.885398e+01
   7.214699e+01   5.884205e+01
   2.832964e+01   3.796839e+01
   5.368134e+01  -1.259264e+01
   7.916805e+01  -7.572973e+00
   3.980661e+01   4.785026e+01
  -4.203553e+01   8.529665e+01
  -9.800090e+01   5.479357e+01
  -8.212867e+01  -3.205458e+01
   1.058603e+01  -1.073847e+02
   1.367912e+02  -8.880114e+01
   1.991680e+02   4.452204e+01
   1.097287e+02   2.003826e+02
  -9.969984e+01   2.365558e+02
  -2.705447e+02   1.062305e+02
  -2.676961e+02  -8.255798e+01
  -1.175253e+02  -1.809727e+02
   3.716272e+01  -1.534835e+02
   9.702281e+01  -8.835721e+01
   8.249895e+01  -7.177166e+01
   6.890072e+01  -9.249620e+01
   9.343945e+01  -7.529830e+01
   1.298413e+02   2.159437e+01
   1.214020e+02   1.552059e+02
   3.413043e+01   2.299790e+02
  -9.773770e+01   1.783947e+02
  -1.801083e+02   2.577215e+01
  -1.434342e+02  -1.209607e+02
  -2.431178e+01  -1.635388e+02
   6.554587e+01  -9.813576e+01
   6.098288e+01  -5.177146e+00
   7.885174e+00   4.091845e+01
  -6.284736e+00   3.532233e+01
   3.896665e+01   1.980031e+01
   7.942074e+01   2.315279e+01
   4.467215e+01   3.764949e+01
  -6.189557e+01   3.777363e+01
  -1.566011e+02   6.644237e+00
  -1.461431e+02  -4.719654e+01
  -2.080319e+01  -8.785828e+01
   1.181602e+02  -7.732722e+01
   1.474043e+02  -1.759856e+01
   5.104467e+01   3.881292e+01
  -6.047325e+01   3.737395e+01
  -7.677204e+01  -1.842553e+01
  -6.268420e+00  -6.780201e+01
   5.784400e+01  -5.739692e+01
   6.294270e+01   2.207548e+00
   4.227776e+01   4.976893e+01
   4.359802e+01   4.147650e+01
   6.363225e+01   1.842284e+00
   6.742430e+01  -2.552926e-01
   3.456174e+01   6.678535e+01
  -3.258215e+01   1.462363e+02
  -1.138114e+02   1.437059e+02
  -1.621503e+02   3.614792e+01
  -1.244496e+02  -8.962207e+01
  -9.562459e+00  -1.262482e+02
   8.457977e+01  -6.183831e+01
   6.027934e+01   1.534093e+01
  -5.990374e+01   2.095639e+01
  -1.408744e+02  -4.281123e+01
  -7.973701e+01  -1.082745e+02
   7.969115e+01  -1.160284e+02
   1.938144e+02  -5.720186e+01
   1.672904e+02   3.057757e+01
   4.064240e+01   8.807178e+01
  -6.037445e+01   7.439592e+01
  -5.006657e+01   1.012958e+01
   3.845194e+01  -2.688341e+01
   9.150787e+01   2.225242e+01
   3.327232e+01   1.203802e+02
  -9.341736e+01   1.568372e+02
  -1.709816e+02   6.315683e+01
  -1.295354e+02  -1.024807e+02
  -1.143610e+01  -2.013141e+02
   8.583193e+01  -1.481464e+02
   1.065615e+02   4.320517e+00
   6.455115e+01   1.185149e+02
   2.167017e+00   1.093624e+02
  -4.508576e+01   2.260153e+01
  -5.481132e+01  -3.093581e+01
  -2.853477e+01  -8.968997e+00
  -3.362952e+00   2.172015e+01
  -1.898540e+01  -1.326992e+01
  -5.719373e+01  -8.868697e+01
  -4.627530e+01  -1.118445e+02
   4.493318e+01  -4.742946e+01
   1.413451e+02   3.899772e+01
   1.343788e+02   7.109269e+01
   1.834904e+01   4.937032e+01
  -9.061993e+01   2.242892e+01
  -9.010106e+01   9.233647e+00
  -9.670796e+00  -6.131674e+00
   3.988578e+01  -2.320058e+01
   1.303710e+01  -2.006228e+01
  -2.314363e+01   9.830587e-01
   6.471574e+00   1.007681e+01
   7.701796e+01   4.635438e+00
   9.254930e+01   2.376649e+01
   6.180914e+00   8.065041e+01
  -1.215572e+02   1.154835e+02
  -1.865123e+02   5.900812e+01
  -1.411076e+02  -6.876986e+01
  -2.586956e+01  -1.642688e+02
   7.814342e+01  -1.512035e+02
   1.142587e+02  -5.860014e+01
   8.174331e+01   2.168018e+01
   2.521492e+01   3.493630e+01
  -4.121573e+00   7.630740e+00
   9.616391e+00   2.840219e+00
   3.472909e+01   4.517495e+01
   2.506703e+01   9.076130e+01
  -2.888554e+01   7.272016e+01
  -8.283129e+01  -1.898496e+01
  -7.800994e+01  -1.105178e+02
  -2.814841e+00  -1.136777e+02
   8.472217e+01  -2.253265e+01
   1.039060e+02   7.798859e+01
   3.127373e+01   1.043571e+02
  -6.717952e+01   5.459833e+01
  -9.749839e+01  -1.211484e+01
  -3.861535e+01  -4.891023e+01
   3.209172e+01  -5.026937e+01
   2.925852e+01  -2.872105e+01
  -3.617782e+01  -7.768345e-01
  -7.022655e+01   6.756129e+00
  -1.450265e+01  -2.464064e+01
   7.975939e+01  -6.747477e+01
   1.152121e+02  -6.166360e+01
   6.296084e+01   1.016175e+01
  -1.580315e+01   8.350015e+01
  -5.164692e+01   7.989050e+01
  -3.525780e+01   4.464194e+00
  -4.427417e-01  -5.720435e+01
   2.607881e+01  -4.216338e+01
   3.662654e+01   2.014884e+01
   2.672813e+01   5.438614e+01
  -2.939717e+00   3.148943e+01
  -3.338094e+01  -9.231425e+00
  -3.979430e+01  -1.988368e+01
  -2.085274e+01  -4.623635e-02
   2.150193e-01   1.284553e+01
   7.174221e+00  -5.751144e+00
   8.936195e+00  -3.786315e+01
   1.977632e+01  -4.309114e+01
   3.344406e+01  -4.548544e+00
   2.816375e+01   4.737212e+01
  -5.182745e+00   6.153458e+01
  -4.584923e+01   1.974424e+01
  -5.572093e+01  -4.063465e+01
  -1.376224e+01  -6.419040e+01
   5.468728e+01  -3.423038e+01
   8.866363e+01   1.590064e+01
   4.939064e+01   4.435214e+01
  -2.878831e+01   4.018360e+01
  -6.503130e+01   2.037917e+01
  -2.327334e+01   4.633245e+00
   3.958402e+01   3.511020e+00
   3.897853e+01   1.792698e+01
  -3.273558e+01   3.295599e+01
  -9.501619e+01   1.987082e+01
