
 $NMID
 id='ANONYMOUS ', fmtdat='(2E16.6)'
 volume=1.0
 tramp=1.0
 $END
   4.629385e+03  -2.716947e+01
   2.667693e+03   2.816094e+03
  -8.574368e+02   2.928230e+03
  -2.292817e+03   8.596814e+02
  -9.660767e+02  -8.023691e+02
   7.817657e+02  -6.457031e+02
   9.908901e+02   5.011597e+02
  -2.147831e+01   1.174825e+03
  -9.108725e+02   8.300202e+02
  -1.007578e+03  -1.288978e+02
  -4.624084e+02  -9.415967e+02
   2.879940e+02  -9.493605e+02
   7.055509e+02  -1.047191e+02
   4.140296e+02   7.875742e+02
  -3.025993e+02   8.018996e+02
  -6.558082e+02  -2.174967e+01
  -2.759190e+02  -7.319465e+02
   3.629600e+02  -6.541775e+02
   6.168707e+02  -6.675796e+01
   3.899171e+02   3.877330e+02
   1.762228e-01   4.599682e+02
  -2.662214e+02   2.731962e+02
  -2.387033e+02   7.849506e+00
   1.087655e+02  -1.160925e+02
   4.395369e+02   9.222281e+01
   2.364318e+02   4.547695e+02
  -4.722910e+02   4.617621e+02
  -9.104501e+02  -6.054507e+01
  -4.736575e+02  -5.928032e+02
   4.151800e+02  -5.399489e+02
   8.040413e+02   2.192159e+01
   3.812518e+02   5.139862e+02
  -2.930814e+02   5.590452e+02
  -5.995117e+02   2.198962e+02
  -4.432120e+02  -2.439583e+02
  -7.167777e+01  -5.129544e+02
   2.291050e+02  -3.074007e+02
   2.074971e+02   2.431744e+02
  -1.683088e+02   4.917983e+02
  -4.961150e+02  -1.039906e+00
  -2.873721e+02  -7.306192e+02
   3.375265e+02  -7.636653e+02
   6.645544e+02  -6.136816e+00
   2.895983e+02   6.065525e+02
  -3.208171e+02   3.568457e+02
  -4.299479e+02  -3.405807e+02
   6.086880e+01  -5.878295e+02
   5.875194e+02  -1.549080e+02
   6.303835e+02   4.213081e+02
   1.750095e+02   6.154621e+02
  -4.046054e+02   3.699463e+02
  -6.650510e+02  -7.508274e+01
  -3.922638e+02  -4.138948e+02
   1.733101e+02  -3.973637e+02
   4.800894e+02  -5.515883e+01
   2.537204e+02   2.267576e+02
  -1.414080e+02   1.241094e+02
  -1.639817e+02  -1.744423e+02
   1.791210e+02  -2.141484e+02
   3.774903e+02   7.858012e+01
   1.501557e+02   3.251400e+02
  -2.178069e+02   2.696668e+02
  -3.383384e+02   6.555315e+01
  -1.896099e+02  -8.532812e+01
   2.629641e+01  -2.120079e+02
   2.106126e+02  -3.265941e+02
   3.376955e+02  -2.358456e+02
   3.092825e+02   1.320382e+02
   9.078763e+01   4.590405e+02
  -1.278686e+02   4.073629e+02
  -1.405628e+02   1.078072e+02
  -2.495030e+01  -3.115226e+01
  -2.670523e+01   8.401184e+01
  -1.879271e+02   1.480164e+02
  -2.925922e+02  -3.827336e+01
  -1.790555e+02  -2.771751e+02
   6.567328e+01  -2.757907e+02
   2.398096e+02  -2.326756e+01
   2.169178e+02   2.436925e+02
  -1.289556e-01   3.103754e+02
  -2.749448e+02   1.325948e+02
  -3.812390e+02  -1.660910e+02
  -1.990067e+02  -3.670548e+02
   1.064958e+02  -3.234398e+02
   2.423190e+02  -1.214722e+02
   1.557556e+02   6.120835e+00
   9.256527e+01  -3.016478e+01
   2.294143e+02  -7.305202e+01
   4.069893e+02   4.711327e+01
   3.439577e+02   2.843500e+02
   6.842158e+00   4.521241e+02
  -3.581698e+02   4.279291e+02
  -4.972203e+02   2.152187e+02
  -3.535306e+02  -8.983750e+01
  -6.581165e+01  -3.079359e+02
   1.368063e+02  -2.708229e+02
   9.655055e+01  -3.026176e+01
  -1.097660e+02   1.241218e+02
  -2.138128e+02   2.237713e+00
  -6.203379e+01  -2.107898e+02
   1.719723e+02  -1.912319e+02
   1.979422e+02   6.151541e+01
  -1.332000e+01   2.100265e+02
  -2.052650e+02   4.218213e+01
  -1.723465e+02  -2.541812e+02
   3.102726e+01  -3.584193e+02
   2.312704e+02  -1.952909e+02
   3.262503e+02   6.150967e+01
   2.840234e+02   2.350777e+02
   1.056805e+02   2.647745e+02
  -1.107010e+02   1.685131e+02
  -1.864665e+02   2.640348e+01
  -6.542325e+01  -3.595588e+01
   7.533998e+01   3.402642e+01
   3.833311e+01   1.297071e+02
  -1.254603e+02   1.102063e+02
  -1.892395e+02  -7.932742e+00
  -6.605768e+01  -7.716177e+01
   8.084077e+01  -2.386551e+01
   6.043162e+01   6.942163e+01
  -1.189519e+02   8.883748e+01
  -2.814177e+02   6.877328e+00
  -2.696152e+02  -1.324767e+02
  -7.073559e+01  -2.561906e+02
   1.792143e+02  -2.731024e+02
   2.905571e+02  -1.385698e+02
   1.813935e+02   5.171862e+01
  -2.233422e+01   1.192310e+02
  -9.873522e+01   1.268867e+01
   2.740449e+01  -1.085708e+02
   2.011041e+02  -6.889437e+01
   2.246288e+02   1.014180e+02
   7.640759e+01   2.157996e+02
  -9.561405e+01   1.675703e+02
  -1.509689e+02   3.423902e+01
  -7.816250e+01  -4.276698e+01
   2.472239e+01  -9.076002e+00
   4.121233e+01   7.733996e+01
  -6.488562e+01   1.137254e+02
  -1.967826e+02   3.565306e+01
  -1.980526e+02  -1.196415e+02
  -2.718897e+01  -2.234419e+02
   1.673762e+02  -1.725394e+02
   2.025544e+02  -7.921735e+00
   7.063611e+01   1.208744e+02
  -6.789104e+01   1.187945e+02
  -8.793424e+01   3.381079e+01
  -2.342463e+01  -2.659375e+01
   1.787654e+01  -2.157236e+01
  -9.869405e+00   3.972207e+00
  -6.723536e+01  -1.029233e+01
  -8.589847e+01  -7.898618e+01
  -1.830547e+01  -1.550424e+02
   1.210957e+02  -1.552118e+02
   2.343260e+02  -3.323851e+01
   2.086083e+02   1.466165e+02
   4.703648e+01   2.420706e+02
  -1.102205e+02   1.764823e+02
  -1.394374e+02   2.853901e+01
  -7.164086e+01  -5.845495e+01
  -2.815445e+01  -3.773593e+01
  -5.330416e+01   1.240415e+01
  -7.858401e+01   7.317418e+00
  -3.939009e+01  -4.772055e+01
   4.202237e+01  -8.465645e+01
   9.751896e+01  -5.403320e+01
   8.140400e+01   3.219813e+01
  -1.089439e+01   1.065396e+02
  -1.359533e+02   8.765916e+01
  -1.973698e+02  -4.459748e+01
  -1.083798e+02  -1.987852e+02
   9.920601e+01  -2.342781e+02
   2.683415e+02  -1.049563e+02
   2.653355e+02   8.210430e+01
   1.163980e+02   1.795119e+02
  -3.695521e+01   1.521531e+02
  -9.628466e+01   8.758109e+01
  -8.189939e+01   7.120751e+01
  -6.848249e+01   9.178126e+01
  -9.285116e+01   7.461892e+01
  -1.288363e+02  -2.162001e+01
  -1.202379e+02  -1.541458e+02
  -3.355059e+01  -2.281482e+02
   9.712738e+01  -1.767993e+02
   1.785717e+02  -2.536041e+01
   1.420279e+02   1.200808e+02
   2.390874e+01   1.621312e+02
  -6.504229e+01   9.712736e+01
  -6.033710e+01   4.971881e+00
  -7.608407e+00  -4.054010e+01
   6.356487e+00  -3.484795e+01
  -3.867188e+01  -1.956896e+01
  -7.883459e+01  -2.311835e+01
  -4.426276e+01  -3.747958e+01
   6.152385e+01  -3.729001e+01
   1.553616e+02  -6.177589e+00
   1.447752e+02   4.707409e+01
   2.035231e+01   8.703266e+01
  -1.173644e+02   7.638687e+01
  -1.461583e+02   1.722811e+01
  -5.046108e+01  -3.855575e+01
   6.011569e+01  -3.702037e+01
   7.615534e+01   1.840479e+01
   6.105444e+00   6.742258e+01
  -5.752130e+01   5.700468e+01
  -6.251267e+01  -2.320646e+00
  -4.191700e+01  -4.959302e+01
  -4.319450e+01  -4.126481e+01
  -6.310893e+01  -1.841683e+00
  -6.687935e+01   1.752499e-01
  -3.417293e+01  -6.642733e+01
   3.258508e+01  -1.451261e+02
   1.131921e+02  -1.423185e+02
   1.609739e+02  -3.544901e+01
   1.233221e+02   8.918055e+01
   9.216298e+00   1.252309e+02
  -8.410819e+01   6.118173e+01
  -5.983946e+01  -1.531362e+01
   5.945926e+01  -2.072383e+01
   1.397072e+02   4.260675e+01
   7.895214e+01   1.074503e+02
  -7.918035e+01   1.149515e+02
  -1.922430e+02   5.648603e+01
  -1.658108e+02  -3.050467e+01
  -4.019757e+01  -8.733725e+01
   5.989460e+01  -7.365222e+01
   4.957874e+01  -9.958417e+00
  -3.823654e+01   2.661658e+01
  -9.079713e+01  -2.221285e+01
  -3.291068e+01  -1.195428e+02
   9.286124e+01  -1.556238e+02
   1.697755e+02  -6.257810e+01
   1.284866e+02   1.018046e+02
   1.116915e+01   1.997880e+02
  -8.528769e+01   1.468893e+02
  -1.056513e+02  -4.433024e+00
  -6.383687e+01  -1.175982e+02
  -2.011791e+00  -1.083492e+02
   4.471196e+01  -2.227614e+01
   5.429949e+01   3.068700e+01
   2.827877e+01   8.824234e+00
   3.335558e+00  -2.150949e+01
   1.877969e+01   1.332513e+01
   5.661451e+01   8.808732e+01
   4.577983e+01   1.108847e+02
  -4.463639e+01   4.687929e+01
  -1.401923e+02  -3.883225e+01
  -1.332165e+02  -7.061194e+01
  -1.810168e+01  -4.902477e+01
   8.994883e+01  -2.223532e+01
   8.936952e+01  -9.060537e+00
   9.559848e+00   6.187143e+00
  -3.957471e+01   2.301139e+01
  -1.291536e+01   1.980551e+01
   2.296746e+01  -1.030782e+00
  -6.438510e+00  -9.959732e+00
  -7.643643e+01  -4.590006e+00
  -9.182240e+01  -2.370856e+01
  -6.066892e+00  -8.018353e+01
   1.207593e+02  -1.145663e+02
   1.852312e+02  -5.830308e+01
   1.400582e+02   6.851252e+01
   2.551138e+01   1.630829e+02
  -7.779442e+01   1.499206e+02
  -1.135336e+02   5.798960e+01
  -8.110336e+01  -2.160684e+01
  -2.494714e+01  -3.472331e+01
   4.130992e+00  -7.645390e+00
  -9.498574e+00  -2.889403e+00
  -3.434653e+01  -4.484415e+01
  -2.472137e+01  -9.002749e+01
   2.875569e+01  -7.211239e+01
   8.219061e+01   1.889811e+01
   7.734788e+01   1.097639e+02
   2.704905e+00   1.129037e+02
  -8.416018e+01   2.236715e+01
  -1.031296e+02  -7.750593e+01
  -3.093107e+01  -1.036771e+02
   6.681994e+01  -5.414846e+01
   9.679488e+01   1.220180e+01
   3.818780e+01   4.868340e+01
  -3.202842e+01   4.985387e+01
  -2.911258e+01   2.835857e+01
   3.592946e+01   7.044162e-01
   6.971023e+01  -6.632779e+00
   1.434491e+01   2.451584e+01
  -7.921540e+01   6.685174e+01
  -1.143481e+02   6.094879e+01
  -6.242461e+01  -1.026967e+01
   1.580400e+01  -8.286246e+01
   5.141057e+01  -7.915522e+01
   3.510318e+01  -4.316531e+00
   4.294594e-01   5.681333e+01
  -2.598554e+01   4.184640e+01
  -3.641101e+01  -2.001431e+01
  -2.645994e+01  -5.402035e+01
   3.031255e+00  -3.129110e+01
   3.315165e+01   9.192526e+00
   3.941647e+01   1.982381e+01
   2.064693e+01   8.990579e-02
  -1.413174e-01  -1.280417e+01
  -6.991938e+00   5.656185e+00
  -8.821810e+00   3.766087e+01
  -1.971334e+01   4.293839e+01
  -3.333540e+01   4.585266e+00
  -2.804076e+01  -4.712640e+01
   5.151875e+00  -6.121898e+01
   4.556307e+01  -1.960198e+01
   5.533222e+01   4.044026e+01
   1.362424e+01   6.375980e+01
  -5.433927e+01   3.387803e+01
  -8.801933e+01  -1.592923e+01
  -4.896631e+01  -4.409037e+01
   2.867283e+01  -3.985522e+01
   6.463506e+01  -2.015591e+01
   2.314151e+01  -4.519816e+00
  -3.930394e+01  -3.410934e+00
  -3.874573e+01  -1.775403e+01
   3.242734e+01  -3.272365e+01
   9.427153e+01  -1.974957e+01
