
 $NMID
 id='ANONYMOUS ', fmtdat='(2E16.6)'
 volume=1.0
 tramp=1.0
 $END
  -4.640021e+03   4.998994e+01
  -2.700186e+03  -2.812631e+03
   8.373949e+02  -2.955341e+03
   2.306062e+03  -8.905524e+02
   9.952505e+02   7.969242e+02
  -7.669801e+02   6.628065e+02
  -9.982296e+02  -4.862247e+02
   7.934952e+00  -1.176360e+03
   9.067535e+02  -8.414889e+02
   1.014631e+03   1.204675e+02
   4.734743e+02   9.426149e+02
  -2.810325e+02   9.583647e+02
  -7.073825e+02   1.147375e+02
  -4.219512e+02  -7.848137e+02
   2.977003e+02  -8.077530e+02
   6.593901e+02   1.595927e+01
   2.823199e+02   7.348331e+02
  -3.631467e+02   6.630873e+02
  -6.243842e+02   7.200945e+01
  -3.974451e+02  -3.898509e+02
  -3.160688e+00  -4.650008e+02
   2.661358e+02  -2.775768e+02
   2.399630e+02  -1.236262e+01
  -1.053014e+02   1.121207e+02
  -4.354415e+02  -9.207451e+01
  -2.360117e+02  -4.507792e+02
   4.689320e+02  -4.598532e+02
   9.090869e+02   5.712925e+01
   4.777936e+02   5.885854e+02
  -4.095640e+02   5.404498e+02
  -8.025465e+02  -1.787511e+01
  -3.837516e+02  -5.114930e+02
   2.907142e+02  -5.600106e+02
   5.997487e+02  -2.222826e+02
   4.460036e+02   2.425233e+02
   7.605656e+01   5.141591e+02
  -2.258025e+02   3.121629e+02
  -2.089696e+02  -2.372237e+02
   1.624534e+02  -4.900839e+02
   4.921342e+02  -3.278452e+00
   2.899168e+02   7.262143e+02
  -3.324219e+02   7.658167e+02
  -6.644199e+02   1.282485e+01
  -2.950798e+02  -6.032977e+02
   3.162457e+02  -3.598426e+02
   4.303910e+02   3.365695e+02
  -5.837159e+01   5.875963e+02
  -5.873503e+02   1.567946e+02
  -6.327230e+02  -4.212332e+02
  -1.773372e+02  -6.177414e+02
   4.041814e+02  -3.726388e+02
   6.674777e+02   7.334425e+01
   3.970880e+02   4.141361e+02
  -1.695771e+02   4.004840e+02
  -4.815638e+02   5.945129e+01
  -2.592215e+02  -2.254445e+02
   1.382497e+02  -1.270232e+02
   1.663156e+02   1.715221e+02
  -1.759040e+02   2.151355e+02
  -3.785835e+02  -7.586402e+01
  -1.532923e+02  -3.252649e+02
   2.184078e+02  -2.721928e+02
   3.424496e+02  -6.591841e+01
   1.912461e+02   8.838829e+01
  -2.966012e+01   2.147618e+02
  -2.148043e+02   3.264684e+02
  -3.388886e+02   2.347378e+02
  -3.091423e+02  -1.321455e+02
  -9.216863e+01  -4.597919e+02
   1.262714e+02  -4.107287e+02
   1.418085e+02  -1.118972e+02
   2.856491e+01   2.989745e+01
   2.928238e+01  -8.207268e+01
   1.879009e+02  -1.457063e+02
   2.915592e+02   3.898516e+01
   1.788200e+02   2.768308e+02
  -6.504522e+01   2.754992e+02
  -2.390770e+02   2.322625e+01
  -2.165771e+02  -2.436484e+02
  -2.561221e-02  -3.102781e+02
   2.748046e+02  -1.325433e+02
   3.820425e+02   1.662678e+02
   2.006528e+02   3.681417e+02
  -1.057877e+02   3.257967e+02
  -2.439618e+02   1.239271e+02
  -1.587487e+02  -5.240090e+00
  -9.488619e+01   2.920120e+01
  -2.307195e+02   7.123564e+01
  -4.081807e+02  -4.914124e+01
  -3.446875e+02  -2.865142e+02
  -5.712643e+00  -4.539005e+02
   3.609186e+02  -4.286328e+02
   4.994934e+02  -2.152112e+02
   3.543242e+02   8.971228e+01
   6.628329e+01   3.080621e+02
  -1.358994e+02   2.722736e+02
  -9.630312e+01   3.243825e+01
   1.087191e+02  -1.233321e+02
   2.130322e+02  -3.322574e+00
   6.294218e+01   2.099730e+02
  -1.705925e+02   1.922455e+02
  -1.980819e+02  -6.002437e+01
   1.211829e+01  -2.098695e+02
   2.049804e+02  -4.250170e+01
   1.729801e+02   2.553733e+02
  -3.155019e+01   3.605886e+02
  -2.336357e+02   1.957936e+02
  -3.284942e+02  -6.351719e+01
  -2.843789e+02  -2.374744e+02
  -1.047948e+02  -2.656365e+02
   1.113231e+02  -1.684117e+02
   1.866740e+02  -2.672557e+01
   6.589287e+01   3.527627e+01
  -7.468807e+01  -3.416294e+01
  -3.808839e+01  -1.292991e+02
   1.253628e+02  -1.100103e+02
   1.893171e+02   7.625852e+00
   6.636813e+01   7.661374e+01
  -8.046978e+01   2.327788e+01
  -5.970496e+01  -6.975284e+01
   1.202867e+02  -8.827784e+01
   2.826708e+02  -5.265794e+00
   2.697489e+02   1.341715e+02
   6.974297e+01   2.569014e+02
  -1.803721e+02   2.730292e+02
  -2.912923e+02   1.386676e+02
  -1.819288e+02  -5.128774e+01
   2.181409e+01  -1.191518e+02
   9.845172e+01  -1.317067e+01
  -2.745934e+01   1.081069e+02
  -2.013514e+02   6.873629e+01
  -2.251684e+02  -1.016848e+02
  -7.677132e+01  -2.163921e+02
   9.569271e+01  -1.680904e+02
   1.511658e+02  -3.450279e+01
   7.826378e+01   4.230140e+01
  -2.433673e+01   8.190559e+00
  -4.021100e+01  -7.799535e+01
   6.613979e+01  -1.134545e+02
   1.976571e+02  -3.465673e+01
   1.983235e+02   1.206731e+02
   2.693521e+01   2.242264e+02
  -1.681019e+02   1.731453e+02
  -2.035030e+02   8.228958e+00
  -7.123701e+01  -1.210268e+02
   6.789515e+01  -1.191851e+02
   8.806831e+01  -3.414170e+01
   2.324257e+01   2.619999e+01
  -1.796617e+01   2.096864e+01
   1.050592e+01  -4.292865e+00
   6.823795e+01   1.093909e+01
   8.613924e+01   8.039203e+01
   1.734615e+01   1.561314e+02
  -1.224999e+02   1.552323e+02
  -2.352809e+02   3.238547e+01
  -2.089391e+02  -1.477893e+02
  -4.691326e+01  -2.432111e+02
   1.107773e+02  -1.772731e+02
   1.402841e+02  -2.865835e+01
   7.233845e+01   5.885915e+01
   2.853958e+01   3.807344e+01
   5.375015e+01  -1.230449e+01
   7.920458e+01  -6.904587e+00
   3.947908e+01   4.871031e+01
  -4.306254e+01   8.541896e+01
  -9.898753e+01   5.361525e+01
  -8.183965e+01  -3.347777e+01
   1.197144e+01  -1.073122e+02
   1.374765e+02  -8.711352e+01
   1.980019e+02   4.592592e+01
   1.077945e+02   1.998509e+02
  -1.004494e+02   2.345700e+02
  -2.696028e+02   1.045779e+02
  -2.662140e+02  -8.284562e+01
  -1.166734e+02  -1.802808e+02
   3.723215e+01  -1.526978e+02
   9.678121e+01  -8.796905e+01
   8.237934e+01  -7.174260e+01
   6.907725e+01  -9.247807e+01
   9.371978e+01  -7.497040e+01
   1.297045e+02   2.211987e+01
   1.205677e+02   1.553732e+02
   3.313425e+01   2.294052e+02
  -9.794514e+01   1.773963e+02
  -1.792301e+02   2.508653e+01
  -1.421729e+02  -1.208538e+02
  -2.359251e+01  -1.627003e+02
   6.538883e+01  -9.704278e+01
   6.022949e+01  -4.517561e+00
   7.037045e+00   4.067632e+01
  -6.794599e+00   3.450829e+01
   3.891086e+01   1.938050e+01
   7.948080e+01   2.354895e+01
   4.444310e+01   3.802147e+01
  -6.223259e+01   3.707663e+01
  -1.563596e+02   5.196135e+00
  -1.450847e+02  -4.795692e+01
  -1.966624e+01  -8.719770e+01
   1.184371e+02  -7.603945e+01
   1.467661e+02  -1.680615e+01
   5.026512e+01   3.891571e+01
  -6.076701e+01   3.718815e+01
  -7.661358e+01  -1.876712e+01
  -5.971273e+00  -6.829457e+01
   5.811502e+01  -5.764188e+01
   6.311070e+01   2.600045e+00
   4.223520e+01   5.045984e+01
   4.336170e+01   4.179467e+01
   6.338953e+01   1.806330e+00
   6.723184e+01  -3.732156e-02
   3.418484e+01   6.729250e+01
  -3.330020e+01   1.462009e+02
  -1.145351e+02   1.426130e+02
  -1.622793e+02   3.468327e+01
  -1.237987e+02  -9.033535e+01
  -8.630229e+00  -1.259450e+02
   8.513136e+01  -6.121814e+01
   6.033288e+01   1.556945e+01
  -5.985990e+01   2.073557e+01
  -1.404092e+02  -4.304697e+01
  -7.908074e+01  -1.080636e+02
   7.985615e+01  -1.152515e+02
   1.931742e+02  -5.626338e+01
   1.663353e+02   3.099478e+01
   4.015207e+01   8.767783e+01
  -6.016218e+01   7.366081e+01
  -4.958912e+01   9.768682e+00
   3.869024e+01  -2.669264e+01
   9.141155e+01   2.259683e+01
   3.302268e+01   1.205137e+02
  -9.365090e+01   1.567509e+02
  -1.710512e+02   6.299588e+01
  -1.293074e+02  -1.025611e+02
  -1.103116e+01  -2.011034e+02
   8.595790e+01  -1.475971e+02
   1.060784e+02   4.769301e+00
   6.374650e+01   1.182761e+02
   1.701762e+00   1.085322e+02
  -4.492939e+01   2.201059e+01
  -5.439337e+01  -3.078927e+01
  -2.831491e+01  -8.618400e+00
  -3.335909e+00   2.150983e+01
  -1.880571e+01  -1.387636e+01
  -5.671116e+01  -8.883059e+01
  -4.576391e+01  -1.112306e+02
   4.505805e+01  -4.669250e+01
   1.409503e+02   3.927011e+01
   1.337626e+02   7.107207e+01
   1.798393e+01   4.943830e+01
  -9.053317e+01   2.246225e+01
  -8.981511e+01   8.933731e+00
  -9.563968e+00  -6.535294e+00
   3.976353e+01  -2.317781e+01
   1.294243e+01  -1.962430e+01
  -2.308152e+01   1.242276e+00
   6.524923e+00   9.880832e+00
   7.692474e+01   4.457739e+00
   9.241758e+01   2.408328e+01
   6.104499e+00   8.114295e+01
  -1.217147e+02   1.154183e+02
  -1.868136e+02   5.826353e+01
  -1.412348e+02  -6.949323e+01
  -2.548398e+01  -1.643155e+02
   7.882759e+01  -1.506907e+02
   1.146500e+02  -5.810720e+01
   8.162851e+01   2.188975e+01
   2.495447e+01   3.509095e+01
  -4.232979e+00   7.938167e+00
   9.460185e+00   3.126052e+00
   3.428212e+01   4.515778e+01
   2.453629e+01   9.048357e+01
  -2.910971e+01   7.248304e+01
  -8.272491e+01  -1.905623e+01
  -7.784252e+01  -1.106070e+02
  -2.685426e+00  -1.139123e+02
   8.488914e+01  -2.270245e+01
   1.039905e+02   7.813980e+01
   3.103223e+01   1.046588e+02
  -6.761582e+01   5.456109e+01
  -9.761217e+01  -1.263856e+01
  -3.816873e+01  -4.942145e+01
   3.270461e+01  -5.019985e+01
   2.954366e+01  -2.818320e+01
  -3.620270e+01  -4.352164e-01
  -7.021744e+01   6.581347e+00
  -1.436052e+01  -2.485464e+01
   7.983370e+01  -6.709501e+01
   1.151049e+02  -6.078009e+01
   6.274082e+01   1.081492e+01
  -1.612991e+01   8.344974e+01
  -5.212814e+01   7.941798e+01
  -3.570902e+01   4.111421e+00
  -5.177924e-01  -5.730155e+01
   2.639189e+01  -4.220878e+01
   3.686876e+01   2.010423e+01
   2.654019e+01   5.448487e+01
  -3.322499e+00   3.166712e+01
  -3.346088e+01  -9.276994e+00
  -3.950886e+01  -2.019144e+01
  -2.065264e+01  -2.109189e-01
  -2.780311e-02   1.308692e+01
   6.663763e+00  -5.488543e+00
   8.633114e+00  -3.814568e+01
   1.994586e+01  -4.380625e+01
   3.394071e+01  -4.952819e+00
   2.862200e+01   4.767440e+01
  -5.035996e+00   6.207047e+01
  -4.599722e+01   1.985250e+01
  -5.590145e+01  -4.092769e+01
  -1.374137e+01  -6.432074e+01
   5.486660e+01  -3.393212e+01
   8.875068e+01   1.631809e+01
   4.923098e+01   4.453194e+01
  -2.910657e+01   4.012911e+01
  -6.532992e+01   2.022836e+01
  -2.344995e+01   4.371353e+00
   3.958179e+01   3.134772e+00
   3.919022e+01   1.765868e+01
  -3.238549e+01   3.300792e+01
  -9.474086e+01   2.010943e+01
