
 $NMID
 id='ANONYMOUS ', fmtdat='(2E16.6)'
 volume=1.0
 tramp=1.0
 $END
  -4.859019e+03   1.590012e+01
  -2.794761e+03  -2.961897e+03
   9.045759e+02  -3.072756e+03
   2.408563e+03  -9.005512e+02
   1.015255e+03   8.413688e+02
  -8.185404e+02   6.757809e+02
  -1.037620e+03  -5.265223e+02
   2.462453e+01  -1.231788e+03
   9.572864e+02  -8.692505e+02
   1.057371e+03   1.368804e+02
   4.838008e+02   9.890309e+02
  -3.036711e+02   9.961537e+02
  -7.401167e+02   1.091221e+02
  -4.325900e+02  -8.269317e+02
   3.191896e+02  -8.410355e+02
   6.882494e+02   2.392914e+01
   2.882945e+02   7.691315e+02
  -3.824326e+02   6.868863e+02
  -6.484304e+02   6.956356e+01
  -4.093825e+02  -4.079246e+02
   4.322678e-01  -4.833375e+02
   2.799549e+02  -2.865033e+02
   2.502509e+02  -8.233459e+00
  -1.145789e+02   1.203538e+02
  -4.603959e+02  -9.901738e+01
  -2.458803e+02  -4.777415e+02
   4.973001e+02  -4.822115e+02
   9.549282e+02   6.667331e+01
   4.951230e+02   6.229345e+02
  -4.369557e+02   5.646183e+02
  -8.432598e+02  -2.562903e+01
  -3.983689e+02  -5.403323e+02
   3.093202e+02  -5.856358e+02
   6.299666e+02  -2.289795e+02
   4.646407e+02   2.572195e+02
   7.416067e+01   5.384255e+02
  -2.405388e+02   3.221986e+02
  -2.163728e+02  -2.549177e+02
   1.778438e+02  -5.146187e+02
   5.196193e+02   2.803340e+00
   2.987358e+02   7.670813e+02
  -3.561598e+02   8.001232e+02
  -6.968080e+02   4.977173e+00
  -3.021843e+02  -6.366458e+02
   3.370330e+02  -3.732990e+02
   4.496206e+02   3.584880e+02
  -6.577844e+01   6.165318e+02
  -6.171252e+02   1.606625e+02
  -6.605634e+02  -4.444116e+02
  -1.820508e+02  -6.468845e+02
   4.257724e+02  -3.872216e+02
   6.980860e+02   8.077572e+01
   4.110546e+02   4.354423e+02
  -1.824514e+02   4.165329e+02
  -5.039147e+02   5.696548e+01
  -2.662331e+02  -2.381003e+02
   1.480316e+02  -1.298216e+02
   1.714898e+02   1.829805e+02
  -1.882118e+02   2.238781e+02
  -3.958306e+02  -8.335564e+01
  -1.569256e+02  -3.415347e+02
   2.294688e+02  -2.827673e+02
   3.560857e+02  -6.811787e+01
   1.994026e+02   9.060126e+01
  -2.861746e+01   2.233679e+02
  -2.230732e+02   3.425904e+02
  -3.557752e+02   2.462772e+02
  -3.241824e+02  -1.398434e+02
  -9.387604e+01  -4.822139e+02
   1.351039e+02  -4.275241e+02
   1.476553e+02  -1.134788e+02
   2.650739e+01   3.212219e+01
   2.903742e+01  -8.811287e+01
   1.981598e+02  -1.542877e+02
   3.069518e+02   4.155703e+01
   1.868322e+02   2.916524e+02
  -6.994024e+01   2.891552e+02
  -2.517367e+02   2.340398e+01
  -2.267322e+02  -2.567096e+02
   1.314517e+00  -3.258093e+02
   2.891422e+02  -1.381213e+02
   3.997596e+02   1.757583e+02
   2.079301e+02   3.860796e+02
  -1.126219e+02   3.394494e+02
  -2.548149e+02   1.272160e+02
  -1.638750e+02  -6.488256e+00
  -9.780389e+01   3.145652e+01
  -2.415824e+02   7.568261e+01
  -4.275559e+02  -5.120402e+01
  -3.604130e+02  -3.001065e+02
  -5.492114e+00  -4.751270e+02
   3.780282e+02  -4.483584e+02
   5.232070e+02  -2.243320e+02
   3.709220e+02   9.554895e+01
   6.800376e+01   3.234970e+02
  -1.443265e+02   2.839178e+02
  -1.011546e+02   3.172641e+01
   1.156441e+02  -1.296202e+02
   2.242085e+02  -1.605401e+00
   6.435977e+01   2.212815e+02
  -1.809186e+02   2.000907e+02
  -2.074010e+02  -6.507743e+01
   1.461260e+01  -2.202614e+02
   2.155697e+02  -4.351203e+01
   1.802211e+02   2.676269e+02
  -3.375365e+01   3.765919e+02
  -2.438730e+02   2.045285e+02
  -3.429083e+02  -6.586728e+01
  -2.976491e+02  -2.482352e+02
  -1.098975e+02  -2.786359e+02
   1.169820e+02  -1.765519e+02
   1.958546e+02  -2.708369e+01
   6.853507e+01   3.782589e+01
  -7.887480e+01  -3.611938e+01
  -3.965207e+01  -1.362841e+02
   1.321466e+02  -1.151726e+02
   1.986144e+02   8.994116e+00
   6.903376e+01   8.113061e+01
  -8.497733e+01   2.459921e+01
  -6.310045e+01  -7.326349e+01
   1.255156e+02  -9.289048e+01
   2.958885e+02  -6.036768e+00
   2.827885e+02   1.403777e+02
   7.320637e+01   2.694789e+02
  -1.893967e+02   2.861659e+02
  -3.056806e+02   1.444730e+02
  -1.902686e+02  -5.485219e+01
   2.382983e+01  -1.250074e+02
   1.035957e+02  -1.298454e+01
  -2.925699e+01   1.138078e+02
  -2.114542e+02   7.156223e+01
  -2.355598e+02  -1.073095e+02
  -7.952470e+01  -2.268999e+02
   1.009686e+02  -1.756517e+02
   1.586235e+02  -3.543512e+01
   8.185025e+01   4.510879e+01
  -2.604135e+01   9.236960e+00
  -4.288972e+01  -8.159205e+01
   6.879898e+01  -1.192637e+02
   2.070025e+02  -3.662404e+01
   2.076444e+02   1.265006e+02
   2.774652e+01   2.348464e+02
  -1.764225e+02   1.806915e+02
  -2.127977e+02   7.713160e+00
  -7.381184e+01  -1.271174e+02
   7.168101e+01  -1.245201e+02
   9.242613e+01  -3.523050e+01
   2.440868e+01   2.796802e+01
  -1.894399e+01   2.249100e+01
   1.043986e+01  -4.268268e+00
   7.079706e+01   1.103955e+01
   9.009986e+01   8.345381e+01
   1.860615e+01   1.631457e+02
  -1.279570e+02   1.626698e+02
  -2.464025e+02   3.397910e+01
  -2.186509e+02  -1.548762e+02
  -4.857979e+01  -2.545216e+02
   1.163809e+02  -1.850590e+02
   1.466215e+02  -2.955619e+01
   7.515519e+01   6.161950e+01
   2.952049e+01   3.973048e+01
   5.609537e+01  -1.285945e+01
   8.268543e+01  -7.393152e+00
   4.131402e+01   5.040225e+01
  -4.451435e+01   8.897634e+01
  -1.028843e+02   5.647453e+01
  -8.557676e+01  -3.427010e+01
   1.192360e+01  -1.120763e+02
   1.433892e+02  -9.161501e+01
   2.073141e+02   4.771529e+01
   1.130610e+02   2.093621e+02
  -1.052178e+02   2.457850e+02
  -2.823777e+02   1.092594e+02
  -2.784875e+02  -8.722358e+01
  -1.216562e+02  -1.889976e+02
   3.935624e+01  -1.597212e+02
   1.014517e+02  -9.170561e+01
   8.626456e+01  -7.459327e+01
   7.225577e+01  -9.628571e+01
   9.786344e+01  -7.815304e+01
   1.353836e+02   2.316171e+01
   1.258537e+02   1.624505e+02
   3.444197e+01   2.399109e+02
  -1.027048e+02   1.854441e+02
  -1.877144e+02   2.597937e+01
  -1.487709e+02  -1.267204e+02
  -2.449986e+01  -1.704396e+02
   6.872557e+01  -1.017501e+02
   6.340519e+01  -4.898941e+00
   7.755396e+00   4.268706e+01
  -6.923793e+00   3.656160e+01
   4.053919e+01   2.063060e+01
   8.283817e+01   2.456024e+01
   4.642556e+01   3.958367e+01
  -6.487856e+01   3.896968e+01
  -1.634221e+02   5.857002e+00
  -1.519770e+02  -5.008186e+01
  -2.094079e+01  -9.156570e+01
   1.237302e+02  -7.982621e+01
   1.536651e+02  -1.753515e+01
   5.284284e+01   4.075634e+01
  -6.333997e+01   3.874743e+01
  -8.000353e+01  -1.961469e+01
  -6.242434e+00  -7.096817e+01
   6.062226e+01  -5.980781e+01
   6.575487e+01   2.644511e+00
   4.398150e+01   5.232756e+01
   4.528577e+01   4.355320e+01
   6.628923e+01   2.133406e+00
   7.028980e+01   4.964963e-02
   3.573599e+01   7.001092e+01
  -3.474449e+01   1.525055e+02
  -1.195640e+02   1.492014e+02
  -1.694492e+02   3.664162e+01
  -1.293559e+02  -9.422783e+01
  -9.191137e+00  -1.317028e+02
   8.869969e+01  -6.404779e+01
   6.287818e+01   1.628461e+01
  -6.256720e+01   2.158266e+01
  -1.466806e+02  -4.524812e+01
  -8.257608e+01  -1.131938e+02
   8.364098e+01  -1.205148e+02
   2.022250e+02  -5.864798e+01
   1.741090e+02   3.267445e+01
   4.190272e+01   9.190711e+01
  -6.320595e+01   7.712971e+01
  -5.211470e+01   1.023442e+01
   4.030964e+01  -2.786817e+01
   9.538913e+01   2.365199e+01
   3.423716e+01   1.257735e+02
  -9.807089e+01   1.633133e+02
  -1.786343e+02   6.528067e+01
  -1.347342e+02  -1.073903e+02
  -1.110741e+01  -2.100244e+02
   9.012129e+01  -1.540878e+02
   1.110148e+02   5.059540e+00
   6.664070e+01   1.238287e+02
   1.668656e+00   1.138282e+02
  -4.709671e+01   2.319930e+01
  -5.691703e+01  -3.242976e+01
  -2.963355e+01  -9.333982e+00
  -3.584436e+00   2.256892e+01
  -1.974079e+01  -1.414905e+01
  -5.921107e+01  -9.280555e+01
  -4.767838e+01  -1.166467e+02
   4.713530e+01  -4.906873e+01
   1.472133e+02   4.127964e+01
   1.397357e+02   7.464792e+01
   1.885019e+01   5.162155e+01
  -9.458458e+01   2.311189e+01
  -9.394904e+01   9.206133e+00
  -1.005869e+01  -6.589196e+00
   4.164515e+01  -2.405851e+01
   1.366329e+01  -2.071673e+01
  -2.410747e+01   1.043752e+00
   6.725162e+00   1.045660e+01
   8.029214e+01   5.026808e+00
   9.645537e+01   2.522718e+01
   6.192718e+00   8.435706e+01
  -1.272651e+02   1.200784e+02
  -1.949544e+02   6.069771e+01
  -1.470985e+02  -7.247384e+01
  -2.631295e+01  -1.715168e+02
   8.231796e+01  -1.573566e+02
   1.195843e+02  -6.060911e+01
   8.518657e+01   2.297350e+01
   2.610644e+01   3.660964e+01
  -4.344909e+00   8.072249e+00
   9.985464e+00   3.113981e+00
   3.591658e+01   4.727149e+01
   2.563680e+01   9.470928e+01
  -3.047605e+01   7.570377e+01
  -8.632366e+01  -2.011214e+01
  -8.097338e+01  -1.156068e+02
  -2.534484e+00  -1.187109e+02
   8.851764e+01  -2.330927e+01
   1.081973e+02   8.175762e+01
   3.221941e+01   1.091126e+02
  -7.043610e+01   5.676281e+01
  -1.017647e+02  -1.314723e+01
  -3.999743e+01  -5.138101e+01
   3.388284e+01  -5.236116e+01
   3.076665e+01  -2.968757e+01
  -3.772765e+01  -7.974249e-01
  -7.330085e+01   6.753344e+00
  -1.501255e+01  -2.584681e+01
   8.349096e+01  -7.000056e+01
   1.204288e+02  -6.361850e+01
   6.562005e+01   1.107006e+01
  -1.688717e+01   8.707151e+01
  -5.436131e+01   8.304025e+01
  -3.699625e+01   4.442042e+00
  -3.109485e-01  -5.971591e+01
   2.746131e+01  -4.394527e+01
   3.823635e+01   2.110689e+01
   2.764522e+01   5.688083e+01
  -3.301553e+00   3.293923e+01
  -3.483086e+01  -9.751650e+00
  -4.136825e+01  -2.101194e+01
  -2.169246e+01  -1.929138e-01
   1.081503e-01   1.351168e+01
   7.329860e+00  -5.840779e+00
   9.311771e+00  -3.955962e+01
   2.078603e+01  -4.517655e+01
   3.506660e+01  -4.825437e+00
   2.942491e+01   4.959776e+01
  -5.513573e+00   6.437611e+01
  -4.794843e+01   2.050205e+01
  -5.809250e+01  -4.267472e+01
  -1.415099e+01  -6.706755e+01
   5.725791e+01  -3.543571e+01
   9.251694e+01   1.703005e+01
   5.133900e+01   4.651447e+01
  -3.029096e+01   4.183348e+01
  -6.803947e+01   2.101495e+01
  -2.438264e+01   4.671957e+00
   4.125979e+01   3.650057e+00
   4.066977e+01   1.871406e+01
  -3.412536e+01   3.427170e+01
  -9.907687e+01   2.049258e+01
