
 $NMID
 id='ANONYMOUS ', fmtdat='(2E16.6)'
 volume=1.0
 tramp=1.0
 $END
   4.681914e+03   3.638388e+01
   2.657443e+03   2.910334e+03
  -9.363657e+02   2.970492e+03
  -2.369779e+03   8.203767e+02
  -9.795512e+02  -8.691257e+02
   8.176553e+02  -6.730962e+02
   1.018262e+03   5.213436e+02
  -3.242668e+01   1.202704e+03
  -9.417612e+02   8.329586e+02
  -1.026130e+03  -1.508760e+02
  -4.544640e+02  -9.695750e+02
   3.138405e+02  -9.639472e+02
   7.276524e+02  -9.713569e+01
   4.140320e+02   8.072923e+02
  -3.213820e+02   8.109732e+02
  -6.687906e+02  -3.390792e+01
  -2.647272e+02  -7.492136e+02
   3.880881e+02  -6.535904e+02
   6.312116e+02  -4.713136e+01
   3.845446e+02   4.079561e+02
  -1.371686e+01   4.680627e+02
  -2.780357e+02   2.722546e+02
  -2.483330e+02   4.422461e+00
   1.009889e+02  -1.203211e+02
   4.375837e+02   8.900403e+01
   2.392907e+02   4.553740e+02
  -4.726947e+02   4.627810e+02
  -9.166443e+02  -6.667308e+01
  -4.773111e+02  -6.050290e+02
   4.203177e+02  -5.470086e+02
   8.117833e+02   2.635206e+01
   3.816962e+02   5.225534e+02
  -3.004779e+02   5.612297e+02
  -6.071545e+02   2.138539e+02
  -4.447025e+02  -2.539939e+02
  -6.532441e+01  -5.231940e+02
   2.408199e+02  -3.133834e+02
   2.172494e+02   2.463132e+02
  -1.682823e+02   5.011940e+02
  -5.034797e+02   2.952074e+00
  -2.891479e+02  -7.376733e+02
   3.485293e+02  -7.713465e+02
   6.782311e+02  -1.570877e+00
   2.915754e+02   6.197704e+02
  -3.291835e+02   3.636931e+02
  -4.345666e+02  -3.449384e+02
   6.600793e+01  -5.924062e+02
   5.932979e+02  -1.495672e+02
   6.271923e+02   4.331511e+02
   1.647078e+02   6.232689e+02
  -4.141263e+02   3.675797e+02
  -6.690229e+02  -8.661724e+01
  -3.892951e+02  -4.281241e+02
   1.825787e+02  -4.042601e+02
   4.900543e+02  -4.859263e+01
   2.560426e+02   2.400809e+02
  -1.474444e+02   1.299568e+02
  -1.688050e+02  -1.798869e+02
   1.823542e+02  -2.190365e+02
   3.826536e+02   8.394408e+01
   1.475970e+02   3.332605e+02
  -2.261457e+02   2.672086e+02
  -3.415570e+02   5.388630e+01
  -1.833732e+02  -9.185549e+01
   3.534921e+01  -2.062581e+02
   2.156864e+02  -3.161768e+02
   3.387953e+02  -2.295114e+02
   3.077749e+02   1.353090e+02
   8.481555e+01   4.633685e+02
  -1.385000e+02   4.106454e+02
  -1.503880e+02   1.054026e+02
  -2.845263e+01  -3.811243e+01
  -2.478969e+01   7.796405e+01
  -1.851240e+02   1.452309e+02
  -2.905817e+02  -3.975925e+01
  -1.767102e+02  -2.787515e+02
   6.795431e+01  -2.763874e+02
   2.398775e+02  -2.206556e+01
   2.143369e+02   2.455685e+02
  -3.306902e+00   3.108583e+02
  -2.764461e+02   1.299081e+02
  -3.796217e+02  -1.720685e+02
  -1.935629e+02  -3.731627e+02
   1.145273e+02  -3.247680e+02
   2.492880e+02  -1.165579e+02
   1.586545e+02   1.342168e+01
   9.193003e+01  -2.422299e+01
   2.272848e+02  -6.731398e+01
   4.031960e+02   5.475073e+01
   3.370592e+02   2.905964e+02
  -2.074320e+00   4.509499e+02
  -3.655620e+02   4.191103e+02
  -5.007787e+02   2.053888e+02
  -3.533283e+02  -9.532325e+01
  -6.238426e+01  -3.098546e+02
   1.424155e+02  -2.718330e+02
   1.011541e+02  -3.051945e+01
  -1.092628e+02   1.247662e+02
  -2.158347e+02   1.824531e+00
  -6.170083e+01  -2.131082e+02
   1.756874e+02  -1.925679e+02
   2.003950e+02   6.346174e+01
  -1.488913e+01   2.123379e+02
  -2.063975e+02   4.062582e+01
  -1.675442e+02  -2.579575e+02
   3.948335e+01  -3.581058e+02
   2.354651e+02  -1.883934e+02
   3.226763e+02   7.033453e+01
   2.770284e+02   2.399761e+02
   1.007975e+02   2.647005e+02
  -1.126718e+02   1.661422e+02
  -1.876009e+02   2.407377e+01
  -6.658848e+01  -3.737568e+01
   7.450319e+01   3.364678e+01
   3.764085e+01   1.295850e+02
  -1.263413e+02   1.090164e+02
  -1.899180e+02  -1.006637e+01
  -6.644908e+01  -7.835238e+01
   7.986208e+01  -2.350145e+01
   5.878140e+01   6.882732e+01
  -1.194109e+02   8.474220e+01
  -2.789783e+02   6.984003e-01
  -2.650452e+02  -1.364443e+02
  -6.618141e+01  -2.554572e+02
   1.826436e+02  -2.690010e+02
   2.927575e+02  -1.340431e+02
   1.819990e+02   5.465291e+01
  -2.331537e+01   1.200640e+02
  -9.978898e+01   1.234693e+01
   2.772763e+01  -1.080617e+02
   2.017853e+02  -6.617430e+01
   2.233403e+02   1.051337e+02
   7.304448e+01   2.177329e+02
  -9.858683e+01   1.666703e+02
  -1.520461e+02   3.230576e+01
  -7.870115e+01  -4.368548e+01
   2.294822e+01  -9.238881e+00
   3.871881e+01   7.611823e+01
  -6.612160e+01   1.105117e+02
  -1.956744e+02   3.140612e+01
  -1.949348e+02  -1.228324e+02
  -2.309735e+01  -2.236903e+02
   1.708653e+02  -1.696056e+02
   2.037440e+02  -3.933525e+00
   6.927454e+01   1.229813e+02
  -7.002242e+01   1.182654e+02
  -8.907191e+01   3.272247e+01
  -2.385608e+01  -2.636430e+01
   1.696945e+01  -2.098710e+01
  -1.079113e+01   2.729970e+00
  -6.626744e+01  -1.326248e+01
  -8.240186e+01  -8.099101e+01
  -1.409801e+01  -1.538669e+02
   1.234599e+02  -1.512191e+02
   2.335300e+02  -2.847026e+01
   2.049437e+02   1.501139e+02
   4.209918e+01   2.429420e+02
  -1.140150e+02   1.745850e+02
  -1.404019e+02   2.539280e+01
  -7.050861e+01  -6.081457e+01
  -2.723544e+01  -3.895939e+01
  -5.344845e+01   1.090674e+01
  -7.813708e+01   5.075582e+00
  -3.697071e+01  -4.873477e+01
   4.488045e+01  -8.248407e+01
   9.790840e+01  -4.993946e+01
   7.874296e+01   3.445812e+01
  -1.400636e+01   1.046572e+02
  -1.365093e+02   8.300872e+01
  -1.946297e+02  -4.855253e+01
  -1.039379e+02  -1.993640e+02
   1.029038e+02  -2.310010e+02
   2.694124e+02  -9.943542e+01
   2.634792e+02   8.710255e+01
   1.130823e+02   1.817534e+02
  -3.983974e+01   1.515081e+02
  -9.827020e+01   8.574401e+01
  -8.397821e+01   6.960574e+01
  -7.114129e+01   9.017595e+01
  -9.475844e+01   7.206289e+01
  -1.280257e+02  -2.495818e+01
  -1.163204e+02  -1.566910e+02
  -2.841810e+01  -2.283262e+02
   1.006314e+02  -1.744593e+02
   1.786818e+02  -2.200426e+01
   1.393294e+02   1.223082e+02
   2.089341e+01   1.620969e+02
  -6.612294e+01   9.576111e+01
  -5.949716e+01   4.351304e+00
  -6.683336e+00  -3.957582e+01
   6.239480e+00  -3.381032e+01
  -3.894397e+01  -2.041066e+01
  -7.802627e+01  -2.544134e+01
  -4.287783e+01  -3.855314e+01
   6.182264e+01  -3.515808e+01
   1.539747e+02  -2.129534e+00
   1.427297e+02   4.964682e+01
   1.882285e+01   8.602587e+01
  -1.180055e+02   7.289708e+01
  -1.458450e+02   1.426871e+01
  -4.928672e+01  -3.888787e+01
   6.114118e+01  -3.515978e+01
   7.546156e+01   2.029845e+01
   3.594205e+00   6.759849e+01
  -5.967040e+01   5.547598e+01
  -6.220299e+01  -4.297270e+00
  -3.980706e+01  -5.104274e+01
  -4.178584e+01  -4.229876e+01
  -6.330724e+01  -3.080379e+00
  -6.678753e+01  -1.310401e+00
  -3.176034e+01  -6.719821e+01
   3.659896e+01  -1.438583e+02
   1.159264e+02  -1.386274e+02
   1.604548e+02  -3.083341e+01
   1.203226e+02   9.197730e+01
   6.211248e+00   1.245306e+02
  -8.529713e+01   5.829002e+01
  -5.939181e+01  -1.705450e+01
   5.990258e+01  -1.929541e+01
   1.387279e+02   4.572932e+01
   7.665827e+01   1.088802e+02
  -8.134983e+01   1.129357e+02
  -1.929096e+02   5.248151e+01
  -1.648184e+02  -3.357543e+01
  -3.857190e+01  -8.787956e+01
   6.086671e+01  -7.251717e+01
   4.935266e+01  -9.326314e+00
  -3.887698e+01   2.534600e+01
  -9.008720e+01  -2.458714e+01
  -2.973951e+01  -1.205737e+02
   9.716424e+01  -1.535701e+02
   1.718864e+02  -5.838571e+01
   1.262661e+02   1.051972e+02
   6.323242e+00   2.002702e+02
  -8.861651e+01   1.449919e+02
  -1.051720e+02  -6.571474e+00
  -6.121101e+01  -1.184603e+02
  -3.393988e-01  -1.079034e+02
   4.454642e+01  -2.126941e+01
   5.383166e+01   3.153151e+01
   2.862067e+01   9.136933e+00
   3.576223e+00  -2.148703e+01
   1.756759e+01   1.379944e+01
   5.425055e+01   8.924268e+01
   4.389851e+01   1.115654e+02
  -4.497437e+01   4.551695e+01
  -1.392806e+02  -4.206716e+01
  -1.318257e+02  -7.338193e+01
  -1.671276e+01  -4.918118e+01
   9.092341e+01  -2.018931e+01
   8.944825e+01  -7.153152e+00
   8.812706e+00   6.435459e+00
  -4.025541e+01   2.228005e+01
  -1.279560e+01   1.955540e+01
   2.345483e+01  -6.319450e-01
  -6.521030e+00  -1.017874e+01
  -7.688263e+01  -6.351377e+00
  -9.110774e+01  -2.605378e+01
  -3.306466e+00  -8.073957e+01
   1.241472e+02  -1.117459e+02
   1.865181e+02  -5.316064e+01
   1.379041e+02   7.279557e+01
   2.128562e+01   1.638852e+02
  -8.141038e+01   1.474152e+02
  -1.149028e+02   5.461712e+01
  -8.055939e+01  -2.365968e+01
  -2.385830e+01  -3.517501e+01
   4.834200e+00  -7.513419e+00
  -8.991922e+00  -3.009133e+00
  -3.323217e+01  -4.524492e+01
  -2.277509e+01  -9.016856e+01
   3.043596e+01  -7.128510e+01
   8.192702e+01   2.093242e+01
   7.471094e+01   1.119860e+02
  -5.376002e-01   1.133512e+02
  -8.540017e+01   2.014032e+01
  -1.014168e+02  -8.063474e+01
  -2.790849e+01  -1.046578e+02
   6.857650e+01  -5.203212e+01
   9.617146e+01   1.505544e+01
   3.621319e+01   4.937757e+01
  -3.353704e+01   4.833000e+01
  -2.926128e+01   2.714048e+01
   3.658013e+01   1.540112e+00
   6.992028e+01  -4.847437e+00
   1.342143e+01   2.484892e+01
  -8.072019e+01   6.489437e+01
  -1.150510e+02   5.817188e+01
  -6.139700e+01  -1.179424e+01
   1.801093e+01  -8.232222e+01
   5.310752e+01  -7.732486e+01
   3.499727e+01  -2.659613e+00
  -1.127994e+00   5.721460e+01
  -2.733291e+01   4.092232e+01
  -3.620919e+01  -2.136724e+01
  -2.499517e+01  -5.468231e+01
   4.229926e+00  -3.084541e+01
   3.302223e+01   1.020685e+01
   3.853407e+01   2.059280e+01
   2.042363e+01   3.745425e-01
   6.212398e-01  -1.258674e+01
  -6.605623e+00   6.167733e+00
  -1.012989e+01   3.814344e+01
  -2.200079e+01   4.261654e+01
  -3.436105e+01   3.163445e+00
  -2.667601e+01  -4.882088e+01
   7.468380e+00  -6.175200e+01
   4.646804e+01  -1.834950e+01
   5.417530e+01   4.238512e+01
   1.186652e+01   6.439565e+01
  -5.505529e+01   3.228114e+01
  -8.741100e+01  -1.850103e+01
  -4.774114e+01  -4.534931e+01
   2.983571e+01  -3.881288e+01
   6.530562e+01  -1.811208e+01
   2.302999e+01  -3.603175e+00
  -3.994254e+01  -4.292268e+00
  -3.893111e+01  -1.903567e+01
   3.335653e+01  -3.257728e+01
   9.544092e+01  -1.793077e+01
