
 $NMID
 id='ANONYMOUS ', fmtdat='(2E16.6)'
 volume=1.0
 tramp=1.0
 $END
  -4.695771e+03  -2.387109e+01
  -2.669051e+03  -2.912201e+03
   9.351891e+02  -2.977824e+03
   2.372903e+03  -8.225808e+02
   9.782307e+02   8.723837e+02
  -8.235563e+02   6.752932e+02
  -1.023158e+03  -5.237571e+02
   3.145696e+01  -1.207592e+03
   9.434935e+02  -8.366836e+02
   1.028766e+03   1.501339e+02
   4.566960e+02   9.714746e+02
  -3.136501e+02   9.663602e+02
  -7.300281e+02   9.742914e+01
  -4.167948e+02  -8.096555e+02
   3.209151e+02  -8.136662e+02
   6.705621e+02   3.320171e+01
   2.665969e+02   7.501897e+02
  -3.873364e+02   6.546044e+02
  -6.312675e+02   4.763796e+01
  -3.850211e+02  -4.077174e+02
   1.315579e+01  -4.683786e+02
   2.782031e+02  -2.730084e+02
   2.492034e+02  -4.034288e+00
  -1.013596e+02   1.227200e+02
  -4.405630e+02  -8.692572e+01
  -2.426107e+02  -4.568618e+02
   4.728904e+02  -4.672374e+02
   9.205375e+02   6.370048e+01
   4.806762e+02   6.065052e+02
  -4.209314e+02   5.510214e+02
  -8.152883e+02  -2.389415e+01
  -3.847019e+02  -5.234967e+02
   2.997380e+02  -5.642504e+02
   6.082646e+02  -2.164461e+02
   4.465073e+02   2.535523e+02
   6.638336e+01   5.246372e+02
  -2.417019e+02   3.143467e+02
  -2.192306e+02  -2.480618e+02
   1.681497e+02  -5.046461e+02
   5.066902e+02  -4.336227e+00
   2.930230e+02   7.402632e+02
  -3.479647e+02   7.751744e+02
  -6.810932e+02   2.576643e+00
  -2.939245e+02  -6.219745e+02
   3.302958e+02  -3.658744e+02
   4.377388e+02   3.453293e+02
  -6.431704e+01   5.948614e+02
  -5.947153e+02   1.520977e+02
  -6.303293e+02  -4.319914e+02
  -1.670082e+02  -6.240248e+02
   4.142001e+02  -3.697719e+02
   6.709183e+02   8.472283e+01
   3.908997e+02   4.281852e+02
  -1.828253e+02   4.057861e+02
  -4.913793e+02   4.944955e+01
  -2.563807e+02  -2.406992e+02
   1.485993e+02  -1.304860e+02
   1.697437e+02   1.808324e+02
  -1.830226e+02   2.205781e+02
  -3.841725e+02  -8.345012e+01
  -1.485637e+02  -3.339439e+02
   2.257611e+02  -2.681978e+02
   3.411689e+02  -5.498653e+01
   1.835028e+02   9.059091e+01
  -3.384553e+01   2.058378e+02
  -2.136749e+02   3.176617e+02
  -3.383339e+02   2.319085e+02
  -3.093440e+02  -1.343150e+02
  -8.662214e+01  -4.643408e+02
   1.379692e+02  -4.116815e+02
   1.504692e+02  -1.050194e+02
   2.776294e+01   3.888821e+01
   2.352761e+01  -7.860428e+01
   1.847959e+02  -1.471904e+02
   2.918763e+02   3.826661e+01
   1.785917e+02   2.789002e+02
  -6.709703e+01   2.776913e+02
  -2.407292e+02   2.328785e+01
  -2.161847e+02  -2.453475e+02
   1.979183e+00  -3.118703e+02
   2.767541e+02  -1.315580e+02
   3.812814e+02   1.709551e+02
   1.951860e+02   3.733077e+02
  -1.139215e+02   3.256386e+02
  -2.493186e+02   1.170924e+02
  -1.583986e+02  -1.336418e+01
  -9.129778e+01   2.473110e+01
  -2.270853e+02   6.892280e+01
  -4.040841e+02  -5.266166e+01
  -3.389104e+02  -2.894278e+02
  -5.075374e-02  -4.516768e+02
   3.640815e+02  -4.214855e+02
   5.007187e+02  -2.079752e+02
   3.546056e+02   9.418098e+01
   6.378793e+01   3.105420e+02
  -1.420865e+02   2.729597e+02
  -1.016485e+02   3.043329e+01
   1.092714e+02  -1.259859e+02
   2.168437e+02  -2.545561e+00
   6.265007e+01   2.138354e+02
  -1.759031e+02   1.937839e+02
  -2.014144e+02  -6.323451e+01
   1.434014e+01  -2.132358e+02
   2.069709e+02  -4.159793e+01
   1.688713e+02   2.577193e+02
  -3.810952e+01   3.586644e+02
  -2.346986e+02   1.895919e+02
  -3.230729e+02  -6.877370e+01
  -2.785587e+02  -2.388058e+02
  -1.024442e+02  -2.647057e+02
   1.120839e+02  -1.671084e+02
   1.880423e+02  -2.485597e+01
   6.689273e+01   3.745308e+01
  -7.506027e+01  -3.330597e+01
  -3.844805e+01  -1.299100e+02
   1.262533e+02  -1.099779e+02
   1.905546e+02   9.359137e+00
   6.696694e+01   7.849822e+01
  -8.004775e+01   2.414464e+01
  -5.944633e+01  -6.859661e+01
   1.189374e+02  -8.554661e+01
   2.792699e+02  -2.276143e+00
   2.662273e+02   1.351963e+02
   6.773063e+01   2.556204e+02
  -1.816574e+02   2.705220e+02
  -2.928507e+02   1.356341e+02
  -1.826848e+02  -5.420593e+01
   2.300367e+01  -1.206167e+02
   1.001792e+02  -1.271263e+01
  -2.726621e+01   1.086480e+02
  -2.020180e+02   6.728778e+01
  -2.242955e+02  -1.044492e+02
  -7.405362e+01  -2.179390e+02
   9.818704e+01  -1.674503e+02
   1.523390e+02  -3.297478e+01
   7.915691e+01   4.362278e+01
  -2.299365e+01   9.678198e+00
  -3.940060e+01  -7.587001e+01
   6.542803e+01  -1.110817e+02
   1.957588e+02  -3.256751e+01
   1.958759e+02   1.220673e+02
   2.414403e+01   2.240080e+02
  -1.704888e+02   1.706152e+02
  -2.040992e+02   4.646320e+00
  -6.983189e+01  -1.230733e+02
   6.975692e+01  -1.188185e+02
   8.919678e+01  -3.310146e+01
   2.414466e+01   2.643738e+01
  -1.683359e+01   2.129763e+01
   1.065689e+01  -2.617803e+00
   6.615435e+01   1.292894e+01
   8.278074e+01   8.047921e+01
   1.498645e+01   1.538397e+02
  -1.227496e+02   1.520625e+02
  -2.337352e+02   2.973778e+01
  -2.060020e+02  -1.493523e+02
  -4.320962e+01  -2.431423e+02
   1.135143e+02  -1.753221e+02
   1.404781e+02  -2.595936e+01
   7.073762e+01   6.064624e+01
   2.733700e+01   3.890020e+01
   5.341842e+01  -1.115589e+01
   7.812052e+01  -5.490413e+00
   3.716070e+01   4.843299e+01
  -4.442662e+01   8.258807e+01
  -9.749860e+01   5.048474e+01
  -7.886072e+01  -3.388008e+01
   1.335021e+01  -1.046854e+02
   1.360406e+02  -8.385790e+01
   1.950996e+02   4.751312e+01
   1.051923e+02   1.991282e+02
  -1.018571e+02   2.319341e+02
  -2.693753e+02   1.009013e+02
  -2.643221e+02  -8.608117e+01
  -1.140616e+02  -1.816096e+02
   3.927044e+01  -1.519525e+02
   9.808643e+01  -8.626776e+01
   8.384361e+01  -6.997464e+01
   7.086028e+01  -9.048948e+01
   9.450841e+01  -7.249829e+01
   1.282101e+02   2.441658e+01
   1.171308e+02   1.563246e+02
   2.949710e+01   2.284741e+02
  -9.998994e+01   1.751657e+02
  -1.789023e+02   2.286902e+01
  -1.401651e+02  -1.218507e+02
  -2.170430e+01  -1.622936e+02
   6.578839e+01  -9.633244e+01
   5.964101e+01  -4.776177e+00
   7.035015e+00   3.956194e+01
  -5.939179e+00   3.399398e+01
   3.910266e+01   2.038465e+01
   7.813447e+01   2.511789e+01
   4.306395e+01   3.833906e+01
  -6.161927e+01   3.552294e+01
  -1.540255e+02   2.998766e+00
  -1.431930e+02  -4.893762e+01
  -1.944810e+01  -8.607882e+01
   1.176827e+02  -7.362481e+01
   1.459977e+02  -1.501497e+01
   4.962757e+01   3.865875e+01
  -6.099597e+01   3.541352e+01
  -7.560340e+01  -1.996991e+01
  -3.845819e+00  -6.751208e+01
   5.950120e+01  -5.565075e+01
   6.220093e+01   4.019069e+00
   3.996088e+01   5.079829e+01
   4.199048e+01   4.210310e+01
   6.343410e+01   2.852395e+00
   6.687606e+01   1.017645e+00
   3.205319e+01   6.700468e+01
  -3.598160e+01   1.440562e+02
  -1.152980e+02   1.393235e+02
  -1.603306e+02   3.171954e+01
  -1.208234e+02  -9.143365e+01
  -6.876043e+00  -1.246032e+02
   8.499701e+01  -5.871877e+01
   5.947161e+01   1.682302e+01
  -5.988143e+01   1.957034e+01
  -1.390935e+02  -4.520314e+01
  -7.726590e+01  -1.087047e+02
   8.093038e+01  -1.134741e+02
   1.929627e+02  -5.345617e+01
   1.652578e+02   3.286179e+01
   3.905338e+01   8.787040e+01
  -6.065302e+01   7.297509e+01
  -4.943788e+01   9.628738e+00
   3.875609e+01  -2.552123e+01
   9.024333e+01   2.421821e+01
   3.021997e+01   1.205319e+02
  -9.667271e+01   1.540411e+02
  -1.718178e+02   5.905416e+01
  -1.267850e+02  -1.048263e+02
  -7.120463e+00  -2.004438e+02
   8.812533e+01  -1.455385e+02
   1.053564e+02   6.074016e+00
   6.187226e+01   1.183382e+02
   8.896938e-01   1.081420e+02
  -4.449338e+01   2.158656e+01
  -5.409584e+01  -3.136997e+01
  -2.876093e+01  -9.104389e+00
  -3.492167e+00   2.156841e+01
  -1.761229e+01  -1.360126e+01
  -5.469784e+01  -8.906341e+01
  -4.449142e+01  -1.116068e+02
   4.476300e+01  -4.586344e+01
   1.396152e+02   4.153437e+01
   1.323370e+02   7.294724e+01
   1.696991e+01   4.912016e+01
  -9.096223e+01   2.051861e+01
  -8.954196e+01   7.558061e+00
  -8.827583e+00  -6.312012e+00
   4.024210e+01  -2.245471e+01
   1.271977e+01  -1.972316e+01
  -2.351334e+01   6.610540e-01
   6.568864e+00   1.021453e+01
   7.701396e+01   6.125983e+00
   9.128031e+01   2.568544e+01
   3.553755e+00   8.068772e+01
  -1.238420e+02   1.122722e+02
  -1.863735e+02   5.398064e+01
  -1.381832e+02  -7.224686e+01
  -2.194396e+01  -1.639188e+02
   8.078438e+01  -1.478777e+02
   1.146906e+02  -5.513051e+01
   8.072052e+01   2.335032e+01
   2.404300e+01   3.506749e+01
  -4.818155e+00   7.458237e+00
   9.017566e+00   2.903140e+00
   3.351769e+01   4.513493e+01
   2.324729e+01   9.018573e+01
  -3.014950e+01   7.148623e+01
  -8.209161e+01  -2.064723e+01
  -7.519039e+01  -1.118008e+02
   1.463800e-01  -1.133948e+02
   8.539106e+01  -2.039619e+01
   1.017529e+02   8.033985e+01
   2.831508e+01   1.045709e+02
  -6.836365e+01   5.228040e+01
  -9.623716e+01  -1.463750e+01
  -3.646458e+01  -4.914458e+01
   3.326184e+01  -4.844570e+01
   2.908150e+01  -2.735686e+01
  -3.664704e+01  -1.494962e+00
  -6.995444e+01   5.129414e+00
  -1.352935e+01  -2.476553e+01
   8.052194e+01  -6.530658e+01
   1.148994e+02  -5.882343e+01
   6.148032e+01   1.143082e+01
  -1.767060e+01   8.244026e+01
  -5.274226e+01   7.763605e+01
  -3.488730e+01   2.815687e+00
   9.602995e-01  -5.725777e+01
   2.715444e+01  -4.101346e+01
   3.626658e+01   2.129723e+01
   2.523668e+01   5.460853e+01
  -4.061451e+00   3.081254e+01
  -3.306583e+01  -1.010166e+01
  -3.867365e+01  -2.038544e+01
  -2.047238e+01  -2.497245e-01
  -5.485848e-01   1.252390e+01
   6.678324e+00  -6.303191e+00
   1.010377e+01  -3.818039e+01
   2.190779e+01  -4.255696e+01
   3.431166e+01  -3.146156e+00
   2.673674e+01   4.875316e+01
  -7.349286e+00   6.173095e+01
  -4.642683e+01   1.848663e+01
  -5.430214e+01  -4.219308e+01
  -1.208882e+01  -6.438476e+01
   5.492864e+01  -3.254736e+01
   8.749636e+01   1.813703e+01
   4.795813e+01   4.517420e+01
  -2.965599e+01   3.893214e+01
  -6.522462e+01   1.835583e+01
  -2.297504e+01   3.725779e+00
   4.003128e+01   4.243293e+00
   3.901141e+01   1.900069e+01
  -3.335927e+01   3.274354e+01
  -9.555310e+01   1.824614e+01
