
 $NMID
 id='ANONYMOUS ', fmtdat='(2E16.6)'
 volume=1.0
 tramp=1.0
 $END
  -4.607728e+03  -3.073443e+01
  -2.633036e+03  -2.836248e+03
   8.785643e+02  -2.917953e+03
   2.300751e+03  -8.473823e+02
   9.738800e+02   8.027677e+02
  -7.699691e+02   6.415576e+02
  -9.799189e+02  -4.993173e+02
   2.851494e+01  -1.165874e+03
   9.135812e+02  -8.192760e+02
   1.004392e+03   1.361441e+02
   4.540778e+02   9.427630e+02
  -2.942709e+02   9.459574e+02
  -7.027615e+02   1.018885e+02
  -4.047344e+02  -7.857308e+02
   3.089327e+02  -7.964331e+02
   6.537698e+02   2.676411e+01
   2.682193e+02   7.339574e+02
  -3.706714e+02   6.527345e+02
  -6.207091e+02   6.227955e+01
  -3.886632e+02  -3.928079e+02
   3.930821e+00  -4.615846e+02
   2.684445e+02  -2.711602e+02
   2.376471e+02  -8.327372e+00
  -1.076469e+02   1.086809e+02
  -4.311360e+02  -1.003494e+02
  -2.255321e+02  -4.524077e+02
   4.748398e+02  -4.478630e+02
   9.017985e+02   7.340783e+01
   4.633778e+02   5.925997e+02
  -4.166585e+02   5.285014e+02
  -7.964389e+02  -3.250504e+01
  -3.716943e+02  -5.146962e+02
   2.987728e+02  -5.508852e+02
   5.995771e+02  -2.102789e+02
   4.386636e+02   2.483778e+02
   6.671058e+01   5.113872e+02
  -2.288557e+02   3.054693e+02
  -2.020075e+02  -2.391560e+02
   1.706622e+02  -4.827929e+02
   4.881691e+02   6.524669e+00
   2.740938e+02   7.264336e+02
  -3.436115e+02   7.540484e+02
  -6.590391e+02   8.437063e-01
  -2.817345e+02  -6.036208e+02
   3.200450e+02  -3.509174e+02
   4.208036e+02   3.421494e+02
  -6.860337e+01   5.824334e+02
  -5.861993e+02   1.452989e+02
  -6.214012e+02  -4.294940e+02
  -1.657838e+02  -6.166847e+02
   4.077896e+02  -3.630860e+02
   6.617765e+02   8.426549e+01
   3.873901e+02   4.175998e+02
  -1.749528e+02   3.941558e+02
  -4.787111e+02   5.085489e+01
  -2.533470e+02  -2.273805e+02
   1.389625e+02  -1.230248e+02
   1.615420e+02   1.728869e+02
  -1.784500e+02   2.099105e+02
  -3.743048e+02  -8.191335e+01
  -1.465987e+02  -3.253025e+02
   2.213679e+02  -2.668220e+02
   3.415309e+02  -6.040587e+01
   1.892921e+02   9.090685e+01
  -3.267488e+01   2.138036e+02
  -2.194397e+02   3.217115e+02
  -3.413643e+02   2.275521e+02
  -3.049589e+02  -1.369388e+02
  -8.356980e+01  -4.583721e+02
   1.320416e+02  -4.056470e+02
   1.419664e+02  -1.090238e+02
   2.757164e+01   2.932809e+01
   3.107736e+01  -8.168503e+01
   1.899682e+02  -1.414480e+02
   2.892951e+02   4.424249e+01
   1.727047e+02   2.784468e+02
  -6.966700e+01   2.725361e+02
  -2.380766e+02   1.861880e+01
  -2.109059e+02  -2.461670e+02
   5.562003e+00  -3.083937e+02
   2.755584e+02  -1.267914e+02
   3.768369e+02   1.719320e+02
   1.931370e+02   3.691492e+02
  -1.104125e+02   3.218012e+02
  -2.441354e+02   1.192378e+02
  -1.575116e+02  -7.308522e+00
  -9.509931e+01   2.789452e+01
  -2.310829e+02   6.698565e+01
  -4.053812e+02  -5.588712e+01
  -3.380396e+02  -2.908244e+02
   2.028673e+00  -4.515940e+02
   3.663019e+02  -4.202957e+02
   5.003980e+02  -2.055363e+02
   3.505815e+02   9.533539e+01
   6.039865e+01   3.073020e+02
  -1.396083e+02   2.680014e+02
  -9.577105e+01   3.047118e+01
   1.104728e+02  -1.203841e+02
   2.115504e+02   7.039017e-01
   5.860575e+01   2.096222e+02
  -1.727650e+02   1.877072e+02
  -1.954585e+02  -6.317517e+01
   1.584090e+01  -2.081048e+02
   2.044420e+02  -3.850440e+01
   1.676707e+02   2.568069e+02
  -3.729509e+01   3.580213e+02
  -2.356480e+02   1.910281e+02
  -3.259128e+02  -6.848760e+01
  -2.790244e+02  -2.410891e+02
  -9.961527e+01  -2.661606e+02
   1.137102e+02  -1.655668e+02
   1.859642e+02  -2.327235e+01
   6.470292e+01   3.612728e+01
  -7.366060e+01  -3.546152e+01
  -3.544031e+01  -1.292708e+02
   1.266378e+02  -1.070821e+02
   1.879785e+02   1.095437e+01
   6.446559e+01   7.726764e+01
  -8.055164e+01   2.160051e+01
  -5.817612e+01  -7.059077e+01
   1.213016e+02  -8.592250e+01
   2.814910e+02  -4.650609e-01
   2.661586e+02   1.381888e+02
   6.489047e+01   2.568743e+02
  -1.842211e+02   2.684564e+02
  -2.920266e+02   1.328015e+02
  -1.798234e+02  -5.410977e+01
   2.383734e+01  -1.179223e+02
   9.798091e+01  -1.125965e+01
  -2.935001e+01   1.069818e+02
  -2.014269e+02   6.477662e+01
  -2.220748e+02  -1.049860e+02
  -7.258307e+01  -2.163953e+02
   9.800950e+01  -1.653971e+02
   1.508212e+02  -3.163709e+01
   7.692486e+01   4.342513e+01
  -2.455566e+01   7.604030e+00
  -3.872884e+01  -7.850482e+01
   6.785626e+01  -1.119024e+02
   1.973552e+02  -3.111597e+01
   1.952368e+02   1.234514e+02
   2.294647e+01   2.234434e+02
  -1.700616e+02   1.692843e+02
  -2.023700e+02   4.767499e+00
  -6.868445e+01  -1.214364e+02
   6.953188e+01  -1.172619e+02
   8.807553e+01  -3.239459e+01
   2.253569e+01   2.650346e+01
  -1.838548e+01   2.053994e+01
   1.044514e+01  -4.238718e+00
   6.780261e+01   1.185361e+01
   8.453493e+01   8.140809e+01
   1.470647e+01   1.557584e+02
  -1.245591e+02   1.524599e+02
  -2.346795e+02   2.820435e+01
  -2.053383e+02  -1.505828e+02
  -4.255427e+01  -2.426435e+02
   1.131051e+02  -1.743750e+02
   1.399394e+02  -2.618262e+01
   7.095724e+01   5.963608e+01
   2.777314e+01   3.826554e+01
   5.367865e+01  -1.137719e+01
   7.896353e+01  -5.594130e+00
   3.861645e+01   4.911295e+01
  -4.415611e+01   8.440121e+01
  -9.947330e+01   5.188217e+01
  -8.107226e+01  -3.464673e+01
   1.364034e+01  -1.067310e+02
   1.383660e+02  -8.450360e+01
   1.963335e+02   4.905568e+01
   1.038293e+02   2.007470e+02
  -1.039943e+02   2.316830e+02
  -2.699763e+02   9.943079e+01
  -2.633339e+02  -8.691411e+01
  -1.129385e+02  -1.812374e+02
   3.961590e+01  -1.511938e+02
   9.769015e+01  -8.583562e+01
   8.304641e+01  -6.996084e+01
   7.015600e+01  -9.084100e+01
   9.442530e+01  -7.306115e+01
   1.286657e+02   2.410250e+01
   1.173703e+02   1.565374e+02
   2.913177e+01   2.287460e+02
  -1.004012e+02   1.747909e+02
  -1.786858e+02   2.188437e+01
  -1.393522e+02  -1.226536e+02
  -2.067329e+01  -1.622375e+02
   6.676334e+01  -9.537808e+01
   6.006402e+01  -3.380915e+00
   6.295708e+00   4.070296e+01
  -7.460056e+00   3.428744e+01
   3.828668e+01   1.990256e+01
   7.869653e+01   2.467694e+01
   4.363227e+01   3.855116e+01
  -6.258477e+01   3.591419e+01
  -1.557722e+02   2.601949e+00
  -1.435823e+02  -5.020259e+01
  -1.802186e+01  -8.720266e+01
   1.191892e+02  -7.372655e+01
   1.463028e+02  -1.422195e+01
   4.935607e+01   3.963652e+01
  -6.103509e+01   3.603960e+01
  -7.591398e+01  -1.991827e+01
  -4.926141e+00  -6.803430e+01
   5.864902e+01  -5.640801e+01
   6.276174e+01   3.570044e+00
   4.129585e+01   5.084391e+01
   4.248656e+01   4.228569e+01
   6.297309e+01   2.862630e+00
   6.686900e+01   1.082179e+00
   3.298909e+01   6.750792e+01
  -3.546239e+01   1.449181e+02
  -1.163470e+02   1.400452e+02
  -1.621341e+02   3.188507e+01
  -1.217314e+02  -9.190753e+01
  -6.493318e+00  -1.255004e+02
   8.572042e+01  -5.958095e+01
   5.976133e+01   1.643823e+01
  -5.987535e+01   1.963805e+01
  -1.389156e+02  -4.513785e+01
  -7.682508e+01  -1.088111e+02
   8.137801e+01  -1.133031e+02
   1.930951e+02  -5.269358e+01
   1.649147e+02   3.366663e+01
   3.842489e+01   8.788977e+01
  -6.112487e+01   7.221000e+01
  -4.951636e+01   8.822583e+00
   3.892288e+01  -2.595289e+01
   9.056162e+01   2.395202e+01
   3.090625e+01   1.203675e+02
  -9.563074e+01   1.543419e+02
  -1.710681e+02   5.987234e+01
  -1.268916e+02  -1.040715e+02
  -7.684021e+00  -2.001476e+02
   8.792249e+01  -1.453481e+02
   1.054478e+02   6.539683e+00
   6.141350e+01   1.187424e+02
  -2.114131e-01   1.079950e+02
  -4.512403e+01   2.112602e+01
  -5.354355e+01  -3.155896e+01
  -2.794114e+01  -9.064607e+00
  -3.701726e+00   2.132212e+01
  -1.858171e+01  -1.412822e+01
  -5.496550e+01  -8.930006e+01
  -4.358248e+01  -1.113957e+02
   4.567638e+01  -4.570990e+01
   1.395210e+02   4.137927e+01
   1.318097e+02   7.291579e+01
   1.709202e+01   4.949857e+01
  -9.034498e+01   2.085129e+01
  -8.947531e+01   7.379441e+00
  -9.476148e+00  -6.669192e+00
   3.990262e+01  -2.237468e+01
   1.326244e+01  -1.928096e+01
  -2.291483e+01   8.505977e-01
   6.289924e+00   9.917135e+00
   7.635757e+01   5.688904e+00
   9.153258e+01   2.545237e+01
   4.850946e+00   8.076665e+01
  -1.228557e+02   1.127911e+02
  -1.867672e+02   5.495845e+01
  -1.393989e+02  -7.132756e+01
  -2.269080e+01  -1.638098e+02
   8.087702e+01  -1.486415e+02
   1.149881e+02  -5.598278e+01
   8.082384e+01   2.309516e+01
   2.426783e+01   3.533030e+01
  -4.278288e+00   7.842215e+00
   9.406219e+00   3.288172e+00
   3.334560e+01   4.552193e+01
   2.287940e+01   9.043411e+01
  -3.014689e+01   7.161991e+01
  -8.193368e+01  -2.029507e+01
  -7.560795e+01  -1.112280e+02
  -8.763522e-01  -1.132942e+02
   8.471294e+01  -2.122782e+01
   1.021332e+02   7.933069e+01
   2.921456e+01   1.045740e+02
  -6.809501e+01   5.322378e+01
  -9.691834e+01  -1.411428e+01
  -3.723807e+01  -4.982149e+01
   3.332902e+01  -4.948447e+01
   2.991959e+01  -2.759135e+01
  -3.591461e+01  -1.012408e+00
  -6.993378e+01   5.408268e+00
  -1.391340e+01  -2.496266e+01
   8.050576e+01  -6.541891e+01
   1.155568e+02  -5.854063e+01
   6.231076e+01   1.180098e+01
  -1.738713e+01   8.274859e+01
  -5.318186e+01   7.819014e+01
  -3.562509e+01   3.595323e+00
   3.913701e-01  -5.695124e+01
   2.690471e+01  -4.158741e+01
   3.631415e+01   2.053299e+01
   2.552079e+01   5.461984e+01
  -3.779386e+00   3.149375e+01
  -3.311839e+01  -9.745814e+00
  -3.900339e+01  -2.075937e+01
  -2.055600e+01  -5.794181e-01
  -1.933894e-01   1.305232e+01
   6.761927e+00  -5.253979e+00
   9.144487e+00  -3.772035e+01
   2.039930e+01  -4.325123e+01
   3.374051e+01  -4.467053e+00
   2.773632e+01   4.776365e+01
  -5.907459e+00   6.158774e+01
  -4.602037e+01   1.901870e+01
  -5.495938e+01  -4.154887e+01
  -1.264586e+01  -6.415916e+01
   5.513875e+01  -3.287730e+01
   8.803115e+01   1.763398e+01
   4.825060e+01   4.508721e+01
  -2.958805e+01   3.947764e+01
  -6.529062e+01   1.910904e+01
  -2.342764e+01   4.000250e+00
   3.922349e+01   3.755313e+00
   3.861967e+01   1.814570e+01
  -3.271406e+01   3.222225e+01
  -9.445176e+01   1.840939e+01
