
 $NMID
 id='ANONYMOUS ', fmtdat='(2E16.6)'
 volume=1.0
 tramp=1.0
 $END
  -4.566876e+03  -3.039339e+01
  -2.601998e+03  -2.821191e+03
   8.884170e+02  -2.892723e+03
   2.291608e+03  -8.218900e+02
   9.585300e+02   8.176110e+02
  -7.791563e+02   6.434941e+02
  -9.804685e+02  -5.016503e+02
   3.013899e+01  -1.163183e+03
   9.109362e+02  -8.119985e+02
   9.973271e+02   1.401291e+02
   4.469472e+02   9.388542e+02
  -2.977246e+02   9.381572e+02
  -7.020040e+02   9.786505e+01
  -4.022731e+02  -7.825831e+02
   3.091177e+02  -7.899055e+02
   6.495924e+02   2.932751e+01
   2.626827e+02   7.284153e+02
  -3.714780e+02   6.424091e+02
  -6.145605e+02   5.507850e+01
  -3.805058e+02  -3.923847e+02
   7.789617e+00  -4.565884e+02
   2.680313e+02  -2.672170e+02
   2.382768e+02  -6.269293e+00
  -1.035747e+02   1.124733e+02
  -4.278726e+02  -9.366189e+01
  -2.283487e+02  -4.470018e+02
   4.666470e+02  -4.479876e+02
   8.944566e+02   6.893381e+01
   4.622125e+02   5.887376e+02
  -4.119550e+02   5.285077e+02
  -7.908803e+02  -2.909393e+01
  -3.704226e+02  -5.100096e+02
   2.946144e+02  -5.469805e+02
   5.933103e+02  -2.089165e+02
   4.343960e+02   2.466116e+02
   6.512816e+01   5.082508e+02
  -2.304033e+02   3.037326e+02
  -2.053151e+02  -2.390131e+02
   1.672900e+02  -4.834620e+02
   4.875853e+02   2.513023e+00
   2.766312e+02   7.202748e+02
  -3.402245e+02   7.498230e+02
  -6.569548e+02   1.007761e+00
  -2.814831e+02  -6.012095e+02
   3.191457e+02  -3.508291e+02
   4.204119e+02   3.381351e+02
  -6.615431e+01   5.777911e+02
  -5.800629e+02   1.452631e+02
  -6.145065e+02  -4.237777e+02
  -1.632012e+02  -6.095331e+02
   4.038465e+02  -3.595215e+02
   6.544720e+02   8.343919e+01
   3.821206e+02   4.151277e+02
  -1.754826e+02   3.921250e+02
  -4.758638e+02   4.912612e+01
  -2.501481e+02  -2.290577e+02
   1.406240e+02  -1.237995e+02
   1.619791e+02   1.733444e+02
  -1.775255e+02   2.105609e+02
  -3.720067e+02  -8.143674e+01
  -1.447376e+02  -3.234588e+02
   2.195965e+02  -2.628379e+02
   3.357405e+02  -5.712126e+01
   1.838485e+02   8.930916e+01
  -3.261252e+01   2.071045e+02
  -2.136436e+02   3.147789e+02
  -3.346910e+02   2.254187e+02
  -3.016477e+02  -1.338229e+02
  -8.314604e+01  -4.532644e+02
   1.324547e+02  -4.012482e+02
   1.430065e+02  -1.054961e+02
   2.708403e+01   3.264746e+01
   2.757870e+01  -7.918408e+01
   1.849134e+02  -1.413672e+02
   2.856008e+02   4.129806e+01
   1.720717e+02   2.741807e+02
  -6.767281e+01   2.700918e+02
  -2.352670e+02   2.003280e+01
  -2.094304e+02  -2.419378e+02
   4.219366e+00  -3.047324e+02
   2.716027e+02  -1.264634e+02
   3.723350e+02   1.689247e+02
   1.905703e+02   3.648289e+02
  -1.101646e+02   3.179450e+02
  -2.422029e+02   1.162683e+02
  -1.552074e+02  -9.664699e+00
  -9.200862e+01   2.617987e+01
  -2.257465e+02   6.659225e+01
  -3.982078e+02  -5.385159e+01
  -3.327128e+02  -2.856420e+02
   1.367129e+00  -4.442188e+02
   3.595903e+02  -4.137182e+02
   4.924075e+02  -2.029025e+02
   3.463798e+02   9.350203e+01
   6.058249e+01   3.035914e+02
  -1.384599e+02   2.654722e+02
  -9.653725e+01   2.985385e+01
   1.082886e+02  -1.205880e+02
   2.102007e+02  -4.500622e-01
   5.911088e+01   2.079099e+02
  -1.713094e+02   1.869208e+02
  -1.945754e+02  -6.230443e+01
   1.512769e+01  -2.067231e+02
   2.021292e+02  -3.898282e+01
   1.652683e+02   2.530288e+02
  -3.716537e+01   3.523626e+02
  -2.314634e+02   1.872248e+02
  -3.193941e+02  -6.758618e+01
  -2.741693e+02  -2.363344e+02
  -9.899751e+01  -2.612778e+02
   1.112825e+02  -1.634217e+02
   1.837548e+02  -2.341562e+01
   6.447720e+01   3.610853e+01
  -7.301015e+01  -3.407015e+01
  -3.598680e+01  -1.274436e+02
   1.244780e+02  -1.064174e+02
   1.859186e+02   1.024944e+01
   6.435042e+01   7.653750e+01
  -7.906218e+01   2.222361e+01
  -5.771228e+01  -6.867751e+01
   1.184028e+02  -8.433190e+01
   2.759993e+02  -1.076102e+00
   2.617786e+02   1.348456e+02
   6.485031e+01   2.522090e+02
  -1.803119e+02   2.648056e+02
  -2.876357e+02   1.316050e+02
  -1.779749e+02  -5.336452e+01
   2.319321e+01  -1.170483e+02
   9.725987e+01  -1.158550e+01
  -2.810469e+01   1.058908e+02
  -1.984013e+02   6.461314e+01
  -2.192619e+02  -1.031648e+02
  -7.186272e+01  -2.134937e+02
   9.655994e+01  -1.634459e+02
   1.489690e+02  -3.156619e+01
   7.652316e+01   4.284504e+01
  -2.355721e+01   8.306071e+00
  -3.835087e+01  -7.619306e+01
   6.581791e+01  -1.097319e+02
   1.935046e+02  -3.111034e+01
   1.922393e+02   1.209631e+02
   2.294135e+01   2.200137e+02
  -1.675201e+02   1.669493e+02
  -1.997272e+02   4.536139e+00
  -6.794024e+01  -1.201288e+02
   6.854374e+01  -1.159176e+02
   8.709220e+01  -3.209239e+01
   2.279174e+01   2.606740e+01
  -1.748473e+01   2.051014e+01
   1.034257e+01  -3.520089e+00
   6.601819e+01   1.209720e+01
   8.242367e+01   7.971960e+01
   1.452778e+01   1.524453e+02
  -1.218550e+02   1.497592e+02
  -2.304728e+02   2.825631e+01
  -2.021712e+02  -1.477137e+02
  -4.200416e+01  -2.388749e+02
   1.114916e+02  -1.718290e+02
   1.378600e+02  -2.559761e+01
   6.966703e+01   5.908376e+01
   2.712052e+01   3.789512e+01
   5.269524e+01  -1.108184e+01
   7.733199e+01  -5.435509e+00
   3.739016e+01   4.803753e+01
  -4.355496e+01   8.227267e+01
  -9.706281e+01   5.045221e+01
  -7.885527e+01  -3.378556e+01
   1.332627e+01  -1.041619e+02
   1.351986e+02  -8.282168e+01
   1.926096e+02   4.770975e+01
   1.025913e+02   1.968621e+02
  -1.015394e+02   2.279484e+02
  -2.653552e+02   9.826747e+01
  -2.593648e+02  -8.527812e+01
  -1.114438e+02  -1.784638e+02
   3.890034e+01  -1.489938e+02
   9.628169e+01  -8.454874e+01
   8.202658e+01  -6.877157e+01
   6.931668e+01  -8.917003e+01
   9.293083e+01  -7.159474e+01
   1.263551e+02   2.388138e+01
   1.152794e+02   1.539264e+02
   2.870137e+01   2.248919e+02
  -9.866601e+01   1.720251e+02
  -1.758518e+02   2.183521e+01
  -1.373373e+02  -1.203863e+02
  -2.067115e+01  -1.596105e+02
   6.532972e+01  -9.416844e+01
   5.892406e+01  -3.856517e+00
   6.479116e+00   3.959157e+01
  -6.746551e+00   3.361942e+01
   3.796672e+01   1.979102e+01
   7.716421e+01   2.447399e+01
   4.267489e+01   3.784604e+01
  -6.118428e+01   3.515122e+01
  -1.525230e+02   2.666911e+00
  -1.410574e+02  -4.893360e+01
  -1.826432e+01  -8.534524e+01
   1.166625e+02  -7.243738e+01
   1.437896e+02  -1.424218e+01
   4.864462e+01   3.862118e+01
  -6.002481e+01   3.517277e+01
  -7.453308e+01  -1.964070e+01
  -4.393009e+00  -6.669943e+01
   5.803859e+01  -5.514612e+01
   6.150105e+01   3.710619e+00
   4.006614e+01   4.999375e+01
   4.157474e+01   4.153107e+01
   6.211877e+01   2.843353e+00
   6.577205e+01   1.067740e+00
   3.205160e+01   6.620280e+01
  -3.513857e+01   1.421722e+02
  -1.140707e+02   1.374161e+02
  -1.587646e+02   3.124336e+01
  -1.193344e+02  -9.025127e+01
  -6.493112e+00  -1.230872e+02
   8.404071e+01  -5.822964e+01
   5.865251e+01   1.634315e+01
  -5.890065e+01   1.926229e+01
  -1.366809e+02  -4.448301e+01
  -7.569016e+01  -1.070167e+02
   7.991270e+01  -1.114765e+02
   1.898969e+02  -5.204699e+01
   1.623316e+02   3.286861e+01
   3.800412e+01   8.645937e+01
  -5.997141e+01   7.130377e+01
  -4.868277e+01   8.976305e+00
   3.822336e+01  -2.533985e+01
   8.893281e+01   2.369935e+01
   3.007233e+01   1.184591e+02
  -9.453410e+01   1.516321e+02
  -1.685688e+02   5.848186e+01
  -1.247095e+02  -1.027123e+02
  -7.244937e+00  -1.969703e+02
   8.662128e+01  -1.429927e+02
   1.036790e+02   6.292183e+00
   6.053794e+01   1.166602e+02
   1.802462e-01   1.062879e+02
  -4.414570e+01   2.094793e+01
  -5.286994e+01  -3.099369e+01
  -2.780203e+01  -8.951660e+00
  -3.569511e+00   2.106951e+01
  -1.789121e+01  -1.368519e+01
  -5.391918e+01  -8.775839e+01
  -4.317551e+01  -1.096751e+02
   4.458443e+01  -4.500843e+01
   1.372439e+02   4.082125e+01
   1.298187e+02   7.179110e+01
   1.674497e+01   4.854057e+01
  -8.910907e+01   2.033122e+01
  -8.803493e+01   7.289535e+00
  -9.064051e+00  -6.415461e+00
   3.939124e+01  -2.201767e+01
   1.284208e+01  -1.913881e+01
  -2.277349e+01   7.455284e-01
   6.289679e+00   9.877393e+00
   7.535473e+01   5.808138e+00
   8.991364e+01   2.516299e+01
   4.223119e+00   7.939574e+01
  -1.212690e+02   1.106671e+02
  -1.835528e+02   5.359040e+01
  -1.365841e+02  -7.056633e+01
  -2.194983e+01  -1.611606e+02
   7.956634e+01  -1.458599e+02
   1.129943e+02  -5.467762e+01
   7.944086e+01   2.285020e+01
   2.376698e+01   3.465320e+01
  -4.421302e+00   7.553740e+00
   9.099997e+00   3.081633e+00
   3.284957e+01   4.463594e+01
   2.261232e+01   8.886175e+01
  -2.968158e+01   7.037582e+01
  -8.063618e+01  -2.013773e+01
  -7.414499e+01  -1.096537e+02
  -4.067868e-01  -1.114605e+02
   8.358888e+01  -2.050567e+01
   1.002580e+02   7.846584e+01
   2.833251e+01   1.028561e+02
  -6.709472e+01   5.194239e+01
  -9.504281e+01  -1.412433e+01
  -3.630444e+01  -4.874197e+01
   3.276496e+01  -4.824521e+01
   2.910489e+01  -2.704020e+01
  -3.560871e+01  -1.209902e+00
  -6.879111e+01   5.178426e+00
  -1.352360e+01  -2.447604e+01
   7.921502e+01  -6.426341e+01
   1.134237e+02  -5.764655e+01
   6.095543e+01   1.147864e+01
  -1.724602e+01   8.125490e+01
  -5.216100e+01   7.666596e+01
  -3.474038e+01   3.219400e+00
   6.380523e-01  -5.612994e+01
   2.657321e+01  -4.066177e+01
   3.568133e+01   2.051324e+01
   2.496497e+01   5.372504e+01
  -3.835645e+00   3.070130e+01
  -3.254498e+01  -9.740259e+00
  -3.822601e+01  -2.028322e+01
  -2.018784e+01  -4.472761e-01
  -3.312051e-01   1.262455e+01
   6.630511e+00  -5.581210e+00
   9.395118e+00  -3.726846e+01
   2.067306e+01  -4.224055e+01
   3.340031e+01  -3.849833e+00
   2.685335e+01   4.737186e+01
  -6.409610e+00   6.061421e+01
  -4.542722e+01   1.847104e+01
  -5.377045e+01  -4.113772e+01
  -1.218715e+01  -6.319298e+01
   5.415935e+01  -3.218410e+01
   8.635849e+01   1.757579e+01
   4.732069e+01   4.439789e+01
  -2.913976e+01   3.859866e+01
  -6.419109e+01   1.846877e+01
  -2.286188e+01   3.820188e+00
   3.889178e+01   3.912034e+00
   3.812310e+01   1.820664e+01
  -3.245080e+01   3.187809e+01
  -9.334078e+01   1.798992e+01
