
 $NMID
 id='ANONYMOUS ', fmtdat='(2E16.6)'
 volume=1.0
 tramp=1.0
 $END
  -4.561055e+03  -7.584157e+00
  -2.599303e+03  -2.803022e+03
   8.829891e+02  -2.877707e+03
   2.274324e+03  -8.122791e+02
   9.378227e+02   8.175906e+02
  -7.905049e+02   6.361677e+02
  -9.805624e+02  -5.081300e+02
   3.224521e+01  -1.164244e+03
   9.086357e+02  -8.105170e+02
   9.930068e+02   1.394598e+02
   4.453204e+02   9.349924e+02
  -2.964796e+02   9.332322e+02
  -7.007339e+02   9.458635e+01
  -4.027931e+02  -7.826368e+02
   3.068455e+02  -7.880441e+02
   6.472237e+02   2.903864e+01
   2.633754e+02   7.238108e+02
  -3.659026e+02   6.372453e+02
  -6.071086e+02   5.504358e+01
  -3.766334e+02  -3.873683e+02
   6.800062e+00  -4.520109e+02
   2.660209e+02  -2.655842e+02
   2.376194e+02  -3.895130e+00
  -1.054905e+02   1.182398e+02
  -4.333222e+02  -8.877051e+01
  -2.341453e+02  -4.488757e+02
   4.653462e+02  -4.555424e+02
   8.974311e+02   6.290868e+01
   4.648687e+02   5.890763e+02
  -4.124777e+02   5.333172e+02
  -7.936202e+02  -2.478503e+01
  -3.736805e+02  -5.092559e+02
   2.915701e+02  -5.496209e+02
   5.914248e+02  -2.127263e+02
   4.344500e+02   2.440174e+02
   6.577020e+01   5.071161e+02
  -2.314054e+02   3.017689e+02
  -2.072088e+02  -2.433605e+02
   1.681326e+02  -4.880216e+02
   4.925609e+02   1.326608e+00
   2.822895e+02   7.225933e+02
  -3.380837e+02   7.521676e+02
  -6.582749e+02   9.686730e-01
  -2.826614e+02  -6.026407e+02
   3.207636e+02  -3.518394e+02
   4.242373e+02   3.380850e+02
  -6.266470e+01   5.793052e+02
  -5.791973e+02   1.494873e+02
  -6.167793e+02  -4.178707e+02
  -1.669398e+02  -6.059954e+02
   4.010332e+02  -3.611657e+02
   6.533149e+02   7.872800e+01
   3.815738e+02   4.116841e+02
  -1.757515e+02   3.913911e+02
  -4.745917e+02   4.947303e+01
  -2.470997e+02  -2.286504e+02
   1.430786e+02  -1.227294e+02
   1.618407e+02   1.750795e+02
  -1.788717e+02   2.119330e+02
  -3.722479e+02  -8.053603e+01
  -1.449107e+02  -3.223671e+02
   2.166373e+02  -2.625331e+02
   3.310275e+02  -5.972564e+01
   1.827248e+02   8.444004e+01
  -2.731574e+01   2.041829e+02
  -2.060150e+02   3.166978e+02
  -3.310444e+02   2.300234e+02
  -3.033064e+02  -1.305638e+02
  -8.640871e+01  -4.519725e+02
   1.304153e+02  -3.995093e+02
   1.412216e+02  -1.026000e+02
   2.384041e+01   3.419030e+01
   2.379297e+01  -8.116951e+01
   1.831994e+02  -1.457865e+02
   2.871258e+02   3.741629e+01
   1.753223e+02   2.727999e+02
  -6.546728e+01   2.713020e+02
  -2.359061e+02   2.266584e+01
  -2.124235e+02  -2.398226e+02
   1.156956e+00  -3.050182e+02
   2.705143e+02  -1.294484e+02
   3.733962e+02   1.649937e+02
   1.926189e+02   3.620574e+02
  -1.079251e+02   3.168679e+02
  -2.396997e+02   1.160734e+02
  -1.523678e+02  -9.370762e+00
  -8.921050e+01   2.784113e+01
  -2.235155e+02   7.071119e+01
  -3.974022e+02  -4.772485e+01
  -3.347878e+02  -2.800887e+02
  -4.245073e+00  -4.423928e+02
   3.525979e+02  -4.165495e+02
   4.880856e+02  -2.078609e+02
   3.466886e+02   9.012926e+01
   6.329573e+01   3.030049e+02
  -1.368653e+02   2.656467e+02
  -9.682280e+01   2.864521e+01
   1.080421e+02  -1.227470e+02
   2.112442e+02  -1.642281e+00
   6.049100e+01   2.083473e+02
  -1.709881e+02   1.879337e+02
  -1.953702e+02  -6.185403e+01
   1.418739e+01  -2.072947e+02
   2.021386e+02  -4.083451e+01
   1.671711e+02   2.502291e+02
  -3.322344e+01   3.505530e+02
  -2.271808e+02   1.888813e+02
  -3.176069e+02  -6.246401e+01
  -2.760602e+02  -2.310839e+02
  -1.025939e+02  -2.593118e+02
   1.089396e+02  -1.646768e+02
   1.834077e+02  -2.499615e+01
   6.448755e+01   3.621817e+01
  -7.405907e+01  -3.308014e+01
  -3.765654e+01  -1.275055e+02
   1.234791e+02  -1.079889e+02
   1.860607e+02   8.625121e+00
   6.493461e+01   7.650452e+01
  -7.916373e+01   2.373092e+01
  -5.917082e+01  -6.764843e+01
   1.160880e+02  -8.601012e+01
   2.745613e+02  -5.492698e+00
   2.629247e+02   1.303880e+02
   6.847059e+01   2.507424e+02
  -1.763718e+02   2.667233e+02
  -2.856063e+02   1.344826e+02
  -1.781077e+02  -5.203413e+01
   2.250048e+01  -1.174937e+02
   9.753887e+01  -1.215152e+01
  -2.687737e+01   1.067047e+02
  -1.975170e+02   6.685977e+01
  -2.198336e+02  -1.006907e+02
  -7.367816e+01  -2.122514e+02
   9.486533e+01  -1.639730e+02
   1.485253e+02  -3.284561e+01
   7.696379e+01   4.255535e+01
  -2.375759e+01   9.535946e+00
  -4.012254e+01  -7.499410e+01
   6.333963e+01  -1.105755e+02
   1.921994e+02  -3.407977e+01
   1.931618e+02   1.179447e+02
   2.542435e+01   2.190028e+02
  -1.651525e+02   1.680456e+02
  -1.988094e+02   6.189552e+00
  -6.858405e+01  -1.193843e+02
   6.739892e+01  -1.162766e+02
   8.669404e+01  -3.265854e+01
   2.332047e+01   2.622293e+01
  -1.709732e+01   2.132013e+01
   9.689794e+00  -3.206656e+00
   6.503410e+01   1.087107e+01
   8.284784e+01   7.744773e+01
   1.698939e+01   1.510801e+02
  -1.188607e+02   1.508839e+02
  -2.291481e+02   3.145344e+01
  -2.032971e+02  -1.444620e+02
  -4.450727e+01  -2.373168e+02
   1.092531e+02  -1.721672e+02
   1.367764e+02  -2.681751e+01
   6.953194e+01   5.804798e+01
   2.708115e+01   3.732548e+01
   5.211931e+01  -1.168321e+01
   7.659906e+01  -6.596883e+00
   3.767962e+01   4.664120e+01
  -4.172541e+01   8.182207e+01
  -9.497702e+01   5.172573e+01
  -7.860813e+01  -3.169251e+01
   1.121721e+01  -1.033854e+02
   1.327115e+02  -8.463536e+01
   1.923415e+02   4.439967e+01
   1.051680e+02   1.946627e+02
  -9.791897e+01   2.286282e+02
  -2.630526e+02   1.013211e+02
  -2.593433e+02  -8.192647e+01
  -1.129729e+02  -1.765942e+02
   3.713214e+01  -1.488542e+02
   9.496376e+01  -8.512181e+01
   8.090731e+01  -6.903700e+01
   6.788025e+01  -8.912452e+01
   9.135457e+01  -7.211353e+01
   1.256795e+02   2.215846e+01
   1.164304e+02   1.515357e+02
   3.134167e+01   2.233060e+02
  -9.612089e+01   1.723941e+02
  -1.749642e+02   2.389097e+01
  -1.383999e+02  -1.181988e+02
  -2.261198e+01  -1.588161e+02
   6.398892e+01  -9.493335e+01
   5.895507e+01  -4.968432e+00
   7.476378e+00   3.931650e+01
  -5.889917e+00   3.399690e+01
   3.796689e+01   1.962871e+01
   7.671720e+01   2.331103e+01
   4.282626e+01   3.687042e+01
  -6.006773e+01   3.593336e+01
  -1.513748e+02   5.160577e+00
  -1.411812e+02  -4.658746e+01
  -1.986411e+01  -8.491757e+01
   1.147758e+02  -7.390775e+01
   1.430017e+02  -1.611873e+01
   4.922478e+01   3.772025e+01
  -5.902085e+01   3.555279e+01
  -7.423991e+01  -1.854857e+01
  -5.115820e+00  -6.574985e+01
   5.694914e+01  -5.503093e+01
   6.090058e+01   2.855800e+00
   4.015515e+01   4.873037e+01
   4.177992e+01   4.057920e+01
   6.188482e+01   2.265896e+00
   6.542151e+01   2.802344e-01
   3.262835e+01   6.498908e+01
  -3.305747e+01   1.413756e+02
  -1.113056e+02   1.381763e+02
  -1.570269e+02   3.354569e+01
  -1.196727e+02  -8.788956e+01
  -8.304930e+00  -1.222390e+02
   8.239646e+01  -5.895686e+01
   5.829659e+01   1.553323e+01
  -5.830383e+01   1.982226e+01
  -1.364082e+02  -4.269827e+01
  -7.662740e+01  -1.056381e+02
   7.810517e+01  -1.119543e+02
   1.884187e+02  -5.417085e+01
   1.621249e+02   3.073209e+01
   3.892999e+01   8.573040e+01
  -5.896498e+01   7.191712e+01
  -4.856966e+01   9.689527e+00
   3.750807e+01  -2.560967e+01
   8.852191e+01   2.245626e+01
   3.107980e+01   1.171901e+02
  -9.230585e+01   1.514000e+02
  -1.667443e+02   5.966660e+01
  -1.248777e+02  -1.007628e+02
  -9.283847e+00  -1.955777e+02
   8.454704e+01  -1.431285e+02
   1.032926e+02   4.910525e+00
   6.179052e+01   1.153470e+02
   1.598643e+00   1.060928e+02
  -4.367789e+01   2.166817e+01
  -5.310479e+01  -3.035483e+01
  -2.789823e+01  -8.882055e+00
  -3.348508e+00   2.111489e+01
  -1.793813e+01  -1.293007e+01
  -5.466017e+01  -8.646165e+01
  -4.431644e+01  -1.088992e+02
   4.366099e+01  -4.563182e+01
   1.368747e+02   3.903946e+01
   1.299913e+02   7.004668e+01
   1.732816e+01   4.793469e+01
  -8.835102e+01   2.095965e+01
  -8.750930e+01   8.290295e+00
  -9.082185e+00  -5.959515e+00
   3.900061e+01  -2.224123e+01
   1.259173e+01  -1.946699e+01
  -2.268496e+01   7.490869e-01
   6.317043e+00   9.909392e+00
   7.495387e+01   5.222557e+00
   8.953994e+01   2.391712e+01
   4.888110e+00   7.838562e+01
  -1.192713e+02   1.109651e+02
  -1.814016e+02   5.536574e+01
  -1.360153e+02  -6.829482e+01
  -2.351315e+01  -1.597011e+02
   7.708893e+01  -1.458066e+02
   1.113127e+02  -5.561082e+01
   7.912467e+01   2.179985e+01
   2.408237e+01   3.403334e+01
  -4.277877e+00   7.283338e+00
   9.142984e+00   2.734480e+00
   3.335614e+01   4.397058e+01
   2.368711e+01   8.815584e+01
  -2.863359e+01   7.027946e+01
  -8.029976e+01  -1.920532e+01
  -7.469513e+01  -1.081038e+02
  -1.460975e+00  -1.104437e+02
   8.269102e+01  -2.094261e+01
   1.001365e+02   7.689822e+01
   2.918466e+01   1.015867e+02
  -6.580008e+01   5.212758e+01
  -9.431418e+01  -1.278640e+01
  -3.674894e+01  -4.760502e+01
   3.161161e+01  -4.815347e+01
   2.835659e+01  -2.748024e+01
  -3.538766e+01  -1.154333e+00
  -6.822649e+01   5.888230e+00
  -1.372312e+01  -2.399146e+01
   7.795693e+01  -6.478278e+01
   1.120464e+02  -5.893465e+01
   6.069366e+01   1.031561e+01
  -1.613819e+01   8.080946e+01
  -5.066078e+01   7.687077e+01
  -3.405873e+01   3.716203e+00
   2.072129e-01  -5.566108e+01
   2.578141e+01  -4.052244e+01
   3.542090e+01   2.011527e+01
   2.539215e+01   5.300900e+01
  -3.262077e+00   3.032032e+01
  -3.232559e+01  -9.356086e+00
  -3.830673e+01  -1.951729e+01
  -2.017750e+01  -1.091322e-01
  -6.125748e-02   1.231409e+01
   6.893430e+00  -5.874183e+00
   9.270776e+00  -3.690217e+01
   2.011451e+01  -4.153624e+01
   3.279214e+01  -3.734958e+00
   2.667958e+01   4.661638e+01
  -6.013316e+00   5.983251e+01
  -4.483194e+01   1.863473e+01
  -5.356242e+01  -4.015768e+01
  -1.265717e+01  -6.251978e+01
   5.329816e+01  -3.263717e+01
   8.575930e+01   1.636872e+01
   4.746891e+01   4.349236e+01
  -2.832971e+01   3.857414e+01
  -6.330601e+01   1.897966e+01
  -2.248769e+01   4.174485e+00
   3.869664e+01   3.830824e+00
   3.787907e+01   1.797361e+01
  -3.221085e+01   3.194155e+01
  -9.274770e+01   1.853934e+01
