
 $NMID
 id='ANONYMOUS ', fmtdat='(2E16.6)'
 volume=1.0
 tramp=1.0
 $END
   4.541864e+03  -5.228104e+00
   2.615374e+03   2.780960e+03
  -8.511265e+02   2.886005e+03
  -2.269075e+03   8.468812e+02
  -9.667034e+02  -7.944780e+02
   7.597774e+02  -6.442259e+02
   9.748588e+02   4.860787e+02
  -1.871125e+01   1.153031e+03
  -8.965633e+02   8.154391e+02
  -9.926827e+02  -1.284357e+02
  -4.541845e+02  -9.281989e+02
   2.853297e+02  -9.358952e+02
   6.948043e+02  -1.053570e+02
   4.060944e+02   7.728369e+02
  -2.995640e+02   7.880970e+02
  -6.457628e+02  -2.231157e+01
  -2.687955e+02  -7.222992e+02
   3.628583e+02  -6.448982e+02
   6.121198e+02  -6.314464e+01
   3.845417e+02   3.862858e+02
  -2.174309e+00   4.552281e+02
  -2.636180e+02   2.689816e+02
  -2.356968e+02   9.610689e+00
   1.031272e+02  -1.095338e+02
   4.250317e+02   9.295399e+01
   2.276699e+02   4.427895e+02
  -4.621682e+02   4.462492e+02
  -8.890970e+02  -6.362491e+01
  -4.628131e+02  -5.806650e+02
   4.054086e+02  -5.260262e+02
   7.854196e+02   2.429017e+01
   3.711958e+02   5.040690e+02
  -2.894231e+02   5.454705e+02
  -5.888589e+02   2.119475e+02
  -4.341894e+02  -2.416890e+02
  -6.948413e+01  -5.043123e+02
   2.246328e+02  -3.038563e+02
   2.035102e+02   2.342121e+02
  -1.628781e+02   4.790540e+02
  -4.822206e+02  -3.292681e-01
  -2.779837e+02  -7.132223e+02
   3.323270e+02  -7.469042e+02
   6.512018e+02  -6.591872e+00
   2.838051e+02   5.937197e+02
  -3.131128e+02   3.499899e+02
  -4.187101e+02  -3.330294e+02
   6.224071e+01  -5.745387e+02
   5.760572e+02  -1.481278e+02
   6.148795e+02   4.179340e+02
   1.673949e+02   6.060036e+02
  -3.990560e+02   3.608146e+02
  -6.522900e+02  -7.815739e+01
  -3.844442e+02  -4.094633e+02
   1.700837e+02  -3.908294e+02
   4.722732e+02  -5.347814e+01
   2.516445e+02   2.239429e+02
  -1.369897e+02   1.236179e+02
  -1.616994e+02  -1.697337e+02
   1.741555e+02  -2.094830e+02
   3.700554e+02   7.779966e+01
   1.469237e+02   3.200550e+02
  -2.164835e+02   2.640207e+02
  -3.353997e+02   6.051628e+01
  -1.854964e+02  -8.840713e+01
   3.143697e+01  -2.089172e+02
   2.127849e+02  -3.163731e+02
   3.331335e+02  -2.262763e+02
   3.010650e+02   1.318893e+02
   8.587199e+01   4.506444e+02
  -1.278482e+02   4.007501e+02
  -1.405140e+02   1.078017e+02
  -2.787495e+01  -3.030544e+01
  -2.887548e+01   7.945106e+01
  -1.844846e+02   1.408516e+02
  -2.845775e+02  -4.044230e+01
  -1.724755e+02  -2.721884e+02
   6.596889e+01  -2.689285e+02
   2.339560e+02  -2.076546e+01
   2.096186e+02   2.400495e+02
  -2.689255e+00   3.033969e+02
  -2.698366e+02   1.271998e+02
  -3.720065e+02  -1.661004e+02
  -1.926657e+02  -3.620454e+02
   1.068334e+02  -3.177141e+02
   2.401267e+02  -1.186063e+02
   1.553023e+02   7.199999e+00
   9.277157e+01  -2.721898e+01
   2.257771e+02  -6.736044e+01
   3.981769e+02   5.186668e+01
   3.339870e+02   2.832836e+02
   1.215421e+00   4.435484e+02
  -3.567520e+02   4.152765e+02
  -4.902091e+02   2.055110e+02
  -3.456475e+02  -9.101095e+01
  -6.205543e+01  -3.018798e+02
   1.356056e+02  -2.651800e+02
   9.492786e+01  -3.088100e+01
  -1.072264e+02   1.198712e+02
  -2.085665e+02   1.524578e+00
  -5.985323e+01  -2.060623e+02
   1.687324e+02  -1.867432e+02
   1.934643e+02   6.048954e+01
  -1.368432e+01   2.053526e+02
  -2.008608e+02   3.980568e+01
  -1.665988e+02  -2.513214e+02
   3.449296e+01  -3.521155e+02
   2.302186e+02  -1.888381e+02
   3.201252e+02   6.545342e+01
   2.754104e+02   2.347188e+02
   9.994456e+01   2.604253e+02
  -1.102906e+02   1.635408e+02
  -1.828150e+02   2.443362e+01
  -6.425469e+01  -3.518673e+01
   7.270398e+01   3.391240e+01
   3.619518e+01   1.267054e+02
  -1.234953e+02   1.064787e+02
  -1.850956e+02  -9.146225e+00
  -6.432912e+01  -7.556913e+01
   7.875771e+01  -2.214314e+01
   5.769976e+01   6.855671e+01
  -1.182339e+02   8.496542e+01
  -2.760354e+02   2.411475e+00
  -2.621758e+02  -1.335541e+02
  -6.578656e+01  -2.515554e+02
   1.787179e+02  -2.650986e+02
   2.860274e+02  -1.328459e+02
   1.775064e+02   5.187318e+01
  -2.236940e+01   1.164197e+02
  -9.648470e+01   1.206360e+01
   2.769572e+01  -1.054514e+02
   1.974282e+02  -6.537860e+01
   2.191836e+02   1.015155e+02
   7.301592e+01   2.123134e+02
  -9.515341e+01   1.634729e+02
  -1.481542e+02   3.235363e+01
  -7.624744e+01  -4.207874e+01
   2.367762e+01  -7.895401e+00
   3.850122e+01   7.637695e+01
  -6.558126e+01   1.100702e+02
  -1.933190e+02   3.196824e+01
  -1.926058e+02  -1.197703e+02
  -2.419092e+01  -2.193938e+02
   1.659998e+02  -1.676327e+02
   1.990888e+02  -6.037495e+00
   6.853791e+01   1.190861e+02
  -6.751757e+01   1.159217e+02
  -8.647630e+01   3.256900e+01
  -2.258412e+01  -2.578766e+01
   1.761510e+01  -2.033433e+01
  -1.036858e+01   3.957850e+00
  -6.645853e+01  -1.150598e+01
  -8.319526e+01  -7.938551e+01
  -1.536121e+01  -1.525708e+02
   1.211145e+02  -1.503815e+02
   2.301142e+02  -2.939576e+01
   2.027136e+02   1.463861e+02
   4.347516e+01   2.381536e+02
  -1.100335e+02   1.722073e+02
  -1.374196e+02   2.659429e+01
  -7.010486e+01  -5.833085e+01
  -2.748612e+01  -3.755489e+01
  -5.262984e+01   1.145994e+01
  -7.739669e+01   5.923440e+00
  -3.794928e+01  -4.797331e+01
   4.300414e+01  -8.289100e+01
   9.713309e+01  -5.123098e+01
   7.942903e+01   3.352477e+01
  -1.280060e+01   1.045617e+02
  -1.350298e+02   8.363371e+01
  -1.928774e+02  -4.676108e+01
  -1.034061e+02  -1.961954e+02
   1.003175e+02  -2.281752e+02
   2.644061e+02  -9.959979e+01
   2.593688e+02   8.352394e+01
   1.123091e+02   1.773357e+02
  -3.786237e+01   1.488941e+02
  -9.547492e+01   8.503831e+01
  -8.128407e+01   6.930141e+01
  -6.849481e+01   8.966334e+01
  -9.235225e+01   7.227480e+01
  -1.264912e+02  -2.295189e+01
  -1.162335e+02  -1.530213e+02
  -3.010465e+01  -2.244671e+02
   9.744082e+01  -1.723866e+02
   1.753823e+02  -2.280804e+01
   1.377650e+02   1.194293e+02
   2.151346e+01   1.592003e+02
  -6.476060e+01   9.422824e+01
  -5.882800e+01   3.918611e+00
  -6.502394e+00  -3.970252e+01
   6.863769e+00  -3.358851e+01
  -3.790989e+01  -1.934752e+01
  -7.739411e+01  -2.385892e+01
  -4.299415e+01  -3.759505e+01
   6.111132e+01  -3.554909e+01
   1.526837e+02  -3.500611e+00
   1.412267e+02   4.821766e+01
   1.843603e+01   8.527206e+01
  -1.163695e+02   7.307019e+01
  -1.435374e+02   1.501217e+01
  -4.872575e+01  -3.844079e+01
   5.976477e+01  -3.567663e+01
   7.465153e+01   1.911814e+01
   5.046224e+00   6.677865e+01
  -5.745697e+01   5.570170e+01
  -6.160783e+01  -3.225035e+00
  -4.065147e+01  -4.976111e+01
  -4.190652e+01  -4.127192e+01
  -6.196298e+01  -2.387122e+00
  -6.569619e+01  -6.310899e-01
  -3.263840e+01  -6.607986e+01
   3.406995e+01  -1.424699e+02
   1.132778e+02  -1.381222e+02
   1.587732e+02  -3.220618e+01
   1.199787e+02   8.949571e+01
   7.181461e+00   1.230702e+02
  -8.376160e+01   5.887647e+01
  -5.878487e+01  -1.585812e+01
   5.870313e+01  -1.965720e+01
   1.367893e+02   4.347107e+01
   7.622779e+01   1.063680e+02
  -7.914471e+01   1.118236e+02
  -1.892964e+02   5.310572e+01
  -1.622358e+02  -3.187574e+01
  -3.841014e+01  -8.606035e+01
   5.946661e+01  -7.142932e+01
   4.852744e+01  -9.115352e+00
  -3.807115e+01   2.565499e+01
  -8.907816e+01  -2.302695e+01
  -3.100813e+01  -1.181244e+02
   9.317828e+01  -1.522357e+02
   1.678612e+02  -5.979483e+01
   1.253386e+02   1.015810e+02
   8.725506e+00   1.966620e+02
  -8.548561e+01   1.433879e+02
  -1.035891e+02  -5.685514e+00
  -6.113526e+01  -1.161680e+02
  -6.731574e-01  -1.060556e+02
   4.405879e+01  -2.108099e+01
   5.288513e+01   3.060079e+01
   2.765259e+01   8.687483e+00
   3.451064e+00  -2.100081e+01
   1.814180e+01   1.372812e+01
   5.449818e+01   8.735720e+01
   4.368768e+01   1.091439e+02
  -4.441560e+01   4.516485e+01
  -1.373511e+02  -3.979561e+01
  -1.300424e+02  -7.077795e+01
  -1.705826e+01  -4.846075e+01
   8.875193e+01  -2.103057e+01
   8.785506e+01  -7.847265e+00
   9.216093e+00   6.468258e+00
  -3.911446e+01   2.226597e+01
  -1.278615e+01   1.907017e+01
   2.262253e+01  -9.821069e-01
  -6.308265e+00  -9.738600e+00
  -7.519064e+01  -5.146387e+00
  -9.005107e+01  -2.448504e+01
  -5.040770e+00  -7.937812e+01
   1.201884e+02  -1.115458e+02
   1.831237e+02  -5.496982e+01
   1.372351e+02   6.942988e+01
   2.319640e+01   1.608476e+02
  -7.854854e+01   1.463939e+02
  -1.126109e+02   5.555275e+01
  -7.954347e+01  -2.223161e+01
  -2.400758e+01  -3.452318e+01
   4.271388e+00  -7.695891e+00
  -9.170109e+00  -3.126783e+00
  -3.305189e+01  -4.443288e+01
  -2.309485e+01  -8.863296e+01
   2.917455e+01  -7.052546e+01
   8.066783e+01   1.947526e+01
   7.493713e+01   1.089204e+02
   1.399477e+00   1.113733e+02
  -8.325713e+01   2.128111e+01
  -1.008276e+02  -7.749228e+01
  -2.919953e+01  -1.026029e+02
   6.666538e+01  -5.256538e+01
   9.521280e+01   1.338920e+01
   3.671957e+01   4.863784e+01
  -3.248157e+01   4.863659e+01
  -2.908641e+01   2.720256e+01
   3.544621e+01   8.098433e-01
   6.868912e+01  -5.704909e+00
   1.374621e+01   2.442415e+01
  -7.868711e+01   6.475469e+01
  -1.130226e+02   5.824693e+01
  -6.112028e+01  -1.118621e+01
   1.662916e+01  -8.136417e+01
   5.171024e+01  -7.702463e+01
   3.489246e+01  -3.575045e+00
  -1.081038e-01   5.603905e+01
  -2.624786e+01   4.093867e+01
  -3.584129e+01  -2.008033e+01
  -2.536434e+01  -5.351302e+01
   3.605098e+00  -3.086042e+01
   3.260873e+01   9.431721e+00
   3.836714e+01   2.010287e+01
   2.016347e+01   3.871331e-01
   2.018469e-01  -1.275223e+01
  -6.532573e+00   5.383200e+00
  -8.887387e+00   3.725191e+01
  -2.007466e+01   4.258633e+01
  -3.329766e+01   4.402707e+00
  -2.743192e+01  -4.698199e+01
   5.660946e+00  -6.065205e+01
   4.519392e+01  -1.890405e+01
   5.417624e+01   4.062444e+01
   1.274221e+01   6.302323e+01
  -5.394439e+01   3.257471e+01
  -8.652865e+01  -1.689053e+01
  -4.763855e+01  -4.402307e+01
   2.886362e+01  -3.887703e+01
   6.405468e+01  -1.904690e+01
   2.292706e+01  -4.001887e+00
  -3.872764e+01  -3.480126e+00
  -3.817377e+01  -1.771028e+01
   3.201786e+01  -3.199074e+01
   9.287664e+01  -1.871610e+01
