
 $NMID
 id='ANONYMOUS ', fmtdat='(2E16.6)'
 volume=1.0
 tramp=1.0
 $END
  -3.674821e+03   3.086414e+01
  -2.325372e+03  -1.977749e+03
   2.259134e+02  -2.320590e+03
   1.543109e+03  -1.150405e+03
   9.519022e+02   8.164231e+01
  -2.085091e+02   3.304100e+02
  -5.574692e+02  -2.186667e+02
  -3.779960e+01  -7.398418e+02
   5.827755e+02  -6.645905e+02
   7.565073e+02  -3.281816e+01
   4.506442e+02   6.353275e+02
  -7.226461e+01   7.429662e+02
  -4.228566e+02   1.671222e+02
  -3.041873e+02  -5.267177e+02
   1.638388e+02  -6.254633e+02
   4.812266e+02  -5.626445e+01
   3.014386e+02   5.577434e+02
  -1.854168e+02   6.376414e+02
  -5.097684e+02   2.227003e+02
  -4.317139e+02  -2.320203e+02
  -9.945043e+01  -3.903222e+02
   1.617036e+02  -2.576793e+02
   1.212254e+02  -5.871323e+01
  -1.623604e+02  -3.000712e+01
  -3.315824e+02  -2.188645e+02
  -6.582254e+01  -3.930129e+02
   4.724350e+02  -2.615110e+02
   7.040877e+02   1.424652e+02
   3.035917e+02   4.324444e+02
  -3.511608e+02   3.100416e+02
  -5.983976e+02  -9.380567e+01
  -2.524820e+02  -4.090563e+02
   2.690336e+02  -4.187667e+02
   4.992092e+02  -1.627066e+02
   3.622642e+02   1.817717e+02
   8.406677e+01   3.721624e+02
  -8.987011e+01   2.220116e+02
  -3.715147e+01  -1.394276e+02
   1.766986e+02  -2.642032e+02
   2.965761e+02   9.772830e+01
   1.040544e+02   5.692619e+02
  -2.733203e+02   5.444398e+02
  -4.321057e+02   4.294607e+00
  -1.760816e+02  -4.049328e+02
   2.029099e+02  -2.085084e+02
   2.568668e+02   2.922650e+02
  -9.329653e+01   4.524802e+02
  -4.891058e+02   9.206295e+01
  -5.354415e+02  -3.821459e+02
  -1.676339e+02  -5.315080e+02
   3.288139e+02  -3.032059e+02
   5.645134e+02   6.086317e+01
   3.596247e+02   2.974927e+02
  -8.300637e+01   2.799439e+02
  -3.462939e+02   7.815102e+01
  -2.282614e+02  -8.630050e+01
   3.749390e+01  -5.323756e+01
   8.434313e+01   8.652475e+01
  -1.235404e+02   1.071168e+02
  -2.741171e+02  -5.455442e+01
  -1.348136e+02  -2.316906e+02
   1.683524e+02  -2.557415e+02
   3.400780e+02  -1.209500e+02
   2.457455e+02   8.955401e+01
  -1.740187e+01   2.903075e+02
  -2.664343e+02   3.609929e+02
  -3.600585e+02   1.888419e+02
  -2.601292e+02  -1.526607e+02
  -6.451270e+01  -3.904682e+02
   6.083685e+01  -3.449485e+02
   5.452099e+01  -1.522030e+02
   2.813122e+01  -6.595958e+01
   1.037703e+02  -1.099344e+02
   2.336195e+02  -8.623158e+01
   2.595116e+02   9.506445e+01
   1.189760e+02   2.646605e+02
  -8.640012e+01   2.189948e+02
  -2.071136e+02  -2.140932e+01
  -1.615837e+02  -2.446062e+02
   3.270035e+01  -2.691405e+02
   2.558393e+02  -8.484396e+01
   3.316076e+02   1.692229e+02
   1.799068e+02   3.179624e+02
  -6.581432e+01   2.828743e+02
  -1.872988e+02   1.456363e+02
  -1.480871e+02   5.637815e+01
  -1.312596e+02   6.006807e+01
  -2.651972e+02   5.153821e+01
  -4.130639e+02  -7.756854e+01
  -3.312833e+02  -2.922974e+02
   1.177445e+01  -4.440137e+02
   3.728106e+02  -4.108437e+02
   4.847933e+02  -1.905402e+02
   3.080098e+02   9.616748e+01
   3.416108e+01   2.688769e+02
  -1.057792e+02   2.192488e+02
  -3.581133e+01   3.399773e+01
   1.166528e+02  -6.585344e+01
   1.557209e+02   2.651330e+01
   2.384517e+01   1.628784e+02
  -1.336193e+02   1.299973e+02
  -1.355467e+02  -5.574325e+01
   2.432835e+01  -1.546720e+02
   1.750522e+02  -1.289367e+01
   1.597700e+02   2.399708e+02
  -2.012716e+01   3.477185e+02
  -2.374867e+02   2.078592e+02
  -3.509947e+02  -5.762489e+01
  -2.848879e+02  -2.536920e+02
  -7.632279e+01  -2.737610e+02
   1.238684e+02  -1.503817e+02
   1.619737e+02  -1.221217e+01
   4.337275e+01   2.053703e+01
  -5.919434e+01  -5.414110e+01
  -8.515551e+00  -1.196454e+02
   1.254630e+02  -7.996186e+01
   1.598604e+02   2.148887e+01
   4.102236e+01   6.197319e+01
  -8.330317e+01  -1.971607e+00
  -4.607071e+01  -8.758240e+01
   1.409371e+02  -9.076130e+01
   2.989988e+02   1.121478e+01
   2.643439e+02   1.594093e+02
   4.180070e+01   2.634449e+02
  -2.000696e+02   2.481231e+02
  -2.760262e+02   1.101286e+02
  -1.504107e+02  -4.750457e+01
   2.832071e+01  -9.009990e+01
   7.435602e+01   4.010490e-01
  -4.656018e+01   8.929307e+01
  -1.906780e+02   4.402913e+01
  -1.994426e+02  -1.030438e+02
  -6.254475e+01  -1.960983e+02
   9.050782e+01  -1.452057e+02
   1.327006e+02  -2.192474e+01
   5.492726e+01   3.854730e+01
  -3.895465e+01  -1.270398e+01
  -3.283641e+01  -1.022906e+02
   8.835783e+01  -1.194775e+02
   2.092470e+02  -2.069488e+01
   1.888104e+02   1.305866e+02
   1.624303e+01   2.139298e+02
  -1.591570e+02   1.579158e+02
  -1.824042e+02   1.107235e+01
  -5.965643e+01  -1.017210e+02
   6.321328e+01  -1.019760e+02
   7.486674e+01  -2.731170e+01
   6.981141e+00   2.588866e+01
  -3.275954e+01   1.287530e+01
   8.474307e+00  -2.044196e+01
   8.360821e+01  -1.432838e-01
   1.023477e+02   8.780519e+01
   1.500047e+01   1.720607e+02
  -1.371138e+02   1.567762e+02
  -2.396728e+02   1.804702e+01
  -1.992047e+02  -1.555778e+02
  -4.135665e+01  -2.331651e+02
   1.031440e+02  -1.653626e+02
   1.320965e+02  -3.144778e+01
   7.376124e+01   4.721548e+01
   3.272721e+01   3.091538e+01
   5.526789e+01  -1.461019e+01
   8.604923e+01  -8.218387e+00
   5.342552e+01   5.453231e+01
  -3.927760e+01   1.021827e+02
  -1.166126e+02   6.683317e+01
  -1.023684e+02  -4.028718e+01
   1.423714e+01  -1.256411e+02
   1.574733e+02  -9.243313e+01
   2.065463e+02   5.918982e+01
   9.333355e+01   2.111103e+02
  -1.180449e+02   2.279380e+02
  -2.694195e+02   8.980487e+01
  -2.517688e+02  -8.744223e+01
  -1.046614e+02  -1.720979e+02
   3.871299e+01  -1.424552e+02
   9.028424e+01  -8.277360e+01
   7.236608e+01  -7.098608e+01
   6.015964e+01  -9.484567e+01
   9.067543e+01  -7.983350e+01
   1.319861e+02   1.772507e+01
   1.217379e+02   1.537082e+02
   3.047850e+01   2.274375e+02
  -9.881954e+01   1.709262e+02
  -1.733034e+02   1.615574e+01
  -1.321095e+02  -1.253582e+02
  -1.407968e+01  -1.586850e+02
   7.295789e+01  -8.599847e+01
   6.299508e+01   9.084242e+00
  -3.673165e-01   5.105710e+01
  -2.159166e+01   3.653313e+01
   3.028901e+01   1.378471e+01
   8.381032e+01   1.824855e+01
   4.948304e+01   3.919273e+01
  -7.045376e+01   4.052971e+01
  -1.706403e+02   1.953883e+00
  -1.463049e+02  -5.864604e+01
  -5.531618e+00  -9.630279e+01
   1.306324e+02  -7.617773e+01
   1.467382e+02  -9.605484e+00
   4.670759e+01   4.748253e+01
  -5.984933e+01   4.313711e+01
  -7.838970e+01  -1.740156e+01
  -1.699360e+01  -7.234749e+01
   4.826327e+01  -6.465435e+01
   6.758923e+01  -2.264254e+00
   5.506023e+01   4.989940e+01
   4.773685e+01   4.259509e+01
   5.761184e+01   1.329148e+00
   6.587079e+01   1.178930e-01
   4.323115e+01   7.094482e+01
  -2.661058e+01   1.523281e+02
  -1.218919e+02   1.477067e+02
  -1.769047e+02   3.650320e+01
  -1.310358e+02  -9.260487e+01
  -5.402572e+00  -1.323355e+02
   9.042423e+01  -6.910504e+01
   6.225074e+01   1.106627e+01
  -5.852404e+01   2.144802e+01
  -1.362937e+02  -4.053135e+01
  -7.395519e+01  -1.064121e+02
   8.192309e+01  -1.118531e+02
   1.902677e+02  -4.898269e+01
   1.598342e+02   3.714084e+01
   3.377000e+01   8.579497e+01
  -6.303333e+01   6.499963e+01
  -4.920439e+01   1.911726e+00
   3.950093e+01  -3.072486e+01
   9.305099e+01   1.891995e+01
   4.011928e+01   1.164782e+02
  -8.043471e+01   1.576329e+02
  -1.600435e+02   7.130890e+01
  -1.287914e+02  -9.219234e+01
  -1.793290e+01  -1.943602e+02
   8.120451e+01  -1.435563e+02
   1.049171e+02   8.558967e+00
   5.875200e+01   1.194993e+02
  -8.465989e+00   1.047887e+02
  -5.009933e+01   1.721955e+01
  -4.805511e+01  -3.158598e+01
  -1.969593e+01  -7.700455e+00
  -5.154233e+00   1.863698e+01
  -2.808727e+01  -1.889773e+01
  -5.889112e+01  -8.913464e+01
  -3.670040e+01  -1.065154e+02
   5.291584e+01  -4.443209e+01
   1.376464e+02   3.594527e+01
   1.264962e+02   6.834245e+01
   1.914209e+01   5.215330e+01
  -8.257511e+01   2.611265e+01
  -8.734643e+01   7.649466e+00
  -1.581024e+01  -1.001478e+01
   3.544978e+01  -2.229253e+01
   1.786667e+01  -1.484631e+01
  -1.671880e+01   3.382259e+00
   3.754878e+00   6.636725e+00
   6.905043e+01  -6.515218e-01
   9.338606e+01   2.068777e+01
   1.945648e+01   8.058412e+01
  -1.088572e+02   1.194470e+02
  -1.869385e+02   6.815277e+01
  -1.513107e+02  -5.824005e+01
  -3.363219e+01  -1.600629e+02
   7.730432e+01  -1.559713e+02
   1.151680e+02  -6.624790e+01
   8.130948e+01   1.836630e+01
   2.691937e+01   3.689840e+01
   1.200095e+00   1.173667e+01
   1.309453e+01   6.899212e+00
   3.217292e+01   4.786655e+01
   2.101923e+01   9.098589e+01
  -2.803166e+01   7.264459e+01
  -7.978547e+01  -1.456528e+01
  -8.142039e+01  -1.023242e+02
  -1.364425e+01  -1.109188e+02
   7.652522e+01  -3.127950e+01
   1.065479e+02   6.594091e+01
   4.014026e+01   1.026436e+02
  -6.344218e+01   6.344158e+01
  -1.027179e+02  -6.619007e+00
  -4.536290e+01  -5.508091e+01
   3.258296e+01  -5.979635e+01
   3.715453e+01  -3.003460e+01
  -2.832628e+01   4.769714e+00
  -6.868161e+01   9.739774e+00
  -1.804823e+01  -2.631021e+01
   7.769106e+01  -6.751577e+01
   1.189602e+02  -5.752087e+01
   6.981248e+01   1.399203e+01
  -1.245991e+01   8.509805e+01
  -5.503767e+01   8.371061e+01
  -4.248180e+01   1.190379e+01
  -6.635798e+00  -5.326755e+01
   2.320998e+01  -4.734995e+01
   3.692939e+01   1.186644e+01
   2.925171e+01   5.342276e+01
  -3.541799e-01   3.791446e+01
  -3.348099e+01  -5.330852e+00
  -4.211141e+01  -2.330150e+01
  -2.103086e+01  -3.351190e+00
   3.499379e+00   1.815845e+01
   7.131524e+00   5.014595e+00
  -1.430229e+00  -3.308914e+01
   4.383116e+00  -5.030303e+01
   2.782922e+01  -1.834343e+01
   3.854584e+01   3.691108e+01
   9.869705e+00   5.977351e+01
  -4.103796e+01   2.517344e+01
  -6.178938e+01  -3.346415e+01
  -1.952521e+01  -6.086006e+01
   5.572905e+01  -3.692409e+01
   9.259229e+01   1.046558e+01
   5.154064e+01   4.251945e+01
  -2.769014e+01   4.501241e+01
  -6.473908e+01   2.779169e+01
  -2.752367e+01   7.101436e+00
   3.091237e+01  -2.214012e+00
   3.483845e+01   8.465851e+00
  -2.501851e+01   2.755274e+01
  -8.187520e+01   2.224142e+01
