
 $NMID
 id='ANONYMOUS ', fmtdat='(2E16.6)'
 volume=1.0
 tramp=1.0
 $END
   4.437703e+03  -3.625417e+01
   2.606794e+03   2.646279e+03
  -7.264898e+02   2.813641e+03
  -2.147512e+03   9.245343e+02
  -9.713892e+02  -6.597839e+02
   6.642127e+02  -5.896420e+02
   9.076933e+02   4.401372e+02
  -5.092111e+00   1.088730e+03
  -8.439260e+02   8.002435e+02
  -9.592532e+02  -9.440124e+01
  -4.629742e+02  -8.806342e+02
   2.432359e+02  -9.104831e+02
   6.500454e+02  -1.200822e+02
   3.947361e+02   7.343787e+02
  -2.733424e+02   7.680277e+02
  -6.218424e+02  -4.584163e+00
  -2.824433e+02  -6.975898e+02
   3.279355e+02  -6.525202e+02
   5.973866e+02  -9.846837e+01
   3.996616e+02   3.575470e+02
   2.034773e+01   4.471992e+02
  -2.453999e+02   2.710929e+02
  -2.159613e+02   1.924108e+01
   1.175230e+02  -8.628966e+01
   4.161714e+02   1.162402e+02
   2.029023e+02   4.402633e+02
  -4.698497e+02   4.214114e+02
  -8.679292e+02  -7.485224e+01
  -4.412621e+02  -5.588979e+02
   3.997422e+02  -4.945625e+02
   7.618877e+02   3.417883e+01
   3.564386e+02   4.915635e+02
  -2.868144e+02   5.309917e+02
  -5.787469e+02   2.092212e+02
  -4.275179e+02  -2.308337e+02
  -7.547404e+01  -4.849926e+02
   2.005479e+02  -2.919190e+02
   1.747673e+02   2.204480e+02
  -1.673451e+02   4.461715e+02
  -4.550421e+02  -1.803352e+01
  -2.523500e+02  -6.961025e+02
   3.224302e+02  -7.203379e+02
   6.181052e+02  -8.210465e+00
   2.690356e+02   5.650395e+02
  -2.956577e+02   3.285072e+02
  -3.957434e+02  -3.289393e+02
   6.601210e+01  -5.602046e+02
   5.670053e+02  -1.431355e+02
   6.113558e+02   4.126255e+02
   1.740025e+02   5.985356e+02
  -3.888146e+02   3.571452e+02
  -6.448731e+02  -7.149652e+01
  -3.867260e+02  -3.905160e+02
   1.541409e+02  -3.748974e+02
   4.536559e+02  -6.100292e+01
   2.501603e+02   1.986922e+02
  -1.199271e+02   1.112256e+02
  -1.491014e+02  -1.560326e+02
   1.668027e+02  -1.933879e+02
   3.570390e+02   7.276102e+01
   1.479617e+02   3.063726e+02
  -2.079396e+02   2.672071e+02
  -3.392678e+02   7.617254e+01
  -2.004937e+02  -8.701237e+01
   2.572273e+01  -2.274922e+02
   2.222844e+02  -3.323130e+02
   3.415284e+02  -2.258131e+02
   2.989846e+02   1.356796e+02
   8.602102e+01   4.449312e+02
  -1.140599e+02   3.955254e+02
  -1.241079e+02   1.175374e+02
  -2.680191e+01  -1.195824e+01
  -4.236836e+01   8.807414e+01
  -1.961983e+02   1.349331e+02
  -2.850997e+02  -4.932826e+01
  -1.669713e+02  -2.739129e+02
   6.924457e+01  -2.640544e+02
   2.326346e+02  -1.461873e+01
   2.056068e+02   2.432046e+02
  -6.316777e+00   3.016055e+02
  -2.704979e+02   1.230672e+02
  -3.710030e+02  -1.663046e+02
  -1.954270e+02  -3.570451e+02
   9.813052e+01  -3.156548e+02
   2.317009e+02  -1.266940e+02
   1.549549e+02  -6.228344e+00
   1.005937e+02  -3.548785e+01
   2.361568e+02  -6.808236e+01
   4.075236e+02   5.355471e+01
   3.408988e+02   2.858982e+02
   2.860419e+00   4.500234e+02
  -3.610180e+02   4.237970e+02
  -4.943420e+02   2.099340e+02
  -3.441499e+02  -9.075732e+01
  -5.974251e+01  -2.996681e+02
   1.301474e+02  -2.607348e+02
   8.453712e+01  -3.169016e+01
  -1.104186e+02   1.123217e+02
  -2.018101e+02  -2.890994e+00
  -5.487151e+01  -2.007352e+02
   1.636467e+02  -1.793398e+02
   1.854891e+02   5.969835e+01
  -1.495702e+01   1.987854e+02
  -1.988183e+02   3.656910e+01
  -1.697194e+02  -2.512081e+02
   2.902411e+01  -3.562096e+02
   2.327042e+02  -1.973867e+02
   3.309634e+02   6.131182e+01
   2.835854e+02   2.388909e+02
   9.945584e+01   2.661145e+02
  -1.131581e+02   1.645570e+02
  -1.813463e+02   2.373248e+01
  -6.118649e+01  -3.265108e+01
   7.180702e+01   3.784794e+01
   3.242143e+01   1.272855e+02
  -1.250923e+02   1.040419e+02
  -1.831279e+02  -1.039721e+01
  -6.119022e+01  -7.384085e+01
   8.096740e+01  -1.863050e+01
   5.725522e+01   7.284605e+01
  -1.233424e+02   8.877815e+01
  -2.845111e+02   2.814547e+00
  -2.679512e+02  -1.379040e+02
  -6.464462e+01  -2.571673e+02
   1.831577e+02  -2.675702e+02
   2.872639e+02  -1.327912e+02
   1.751615e+02   5.060987e+01
  -2.323286e+01   1.132944e+02
  -9.368989e+01   1.031891e+01
   3.102810e+01  -1.044167e+02
   1.986608e+02  -6.388876e+01
   2.194012e+02   1.015510e+02
   7.368522e+01   2.116600e+02
  -9.440351e+01   1.630268e+02
  -1.471334e+02   3.188550e+01
  -7.353218e+01  -4.167276e+01
   2.725264e+01  -4.549180e+00
   3.913740e+01   8.216610e+01
  -6.967304e+01   1.144382e+02
  -1.989765e+02   3.233525e+01
  -1.958618e+02  -1.217946e+02
  -2.493336e+01  -2.213115e+02
   1.656131e+02  -1.695045e+02
   1.984948e+02  -8.626456e+00
   6.856405e+01   1.169299e+02
  -6.681070e+01   1.153963e+02
  -8.524026e+01   3.259704e+01
  -2.013949e+01  -2.624554e+01
   2.072067e+01  -1.962787e+01
  -9.805033e+00   7.242388e+00
  -7.056747e+01  -8.490660e+00
  -8.892466e+01  -8.097731e+01
  -1.728348e+01  -1.582987e+02
   1.243561e+02  -1.551192e+02
   2.350832e+02  -2.993561e+01
   2.063817e+02   1.483683e+02
   4.578870e+01   2.401355e+02
  -1.087653e+02   1.741744e+02
  -1.379663e+02   2.907264e+01
  -7.211519e+01  -5.628508e+01
  -2.910006e+01  -3.644723e+01
  -5.370235e+01   1.276202e+01
  -8.003631e+01   7.326000e+00
  -4.201801e+01  -4.925981e+01
   4.175652e+01  -8.807941e+01
   1.014598e+02  -5.620477e+01
   8.537766e+01   3.412610e+01
  -1.189192e+01   1.102102e+02
  -1.402780e+02   8.815635e+01
  -1.988466e+02  -4.775483e+01
  -1.050032e+02  -2.010127e+02
   1.030040e+02  -2.325568e+02
   2.682968e+02  -1.016463e+02
   2.623553e+02   8.317046e+01
   1.139460e+02   1.778898e+02
  -3.728923e+01   1.500899e+02
  -9.505501e+01   8.657262e+01
  -8.002334e+01   7.117547e+01
  -6.691461e+01   9.238445e+01
  -9.250020e+01   7.555664e+01
  -1.294186e+02  -2.098957e+01
  -1.203375e+02  -1.540958e+02
  -3.273273e+01  -2.278667e+02
   9.748537e+01  -1.754281e+02
   1.773286e+02  -2.343484e+01
   1.398084e+02   1.210530e+02
   2.185097e+01   1.612491e+02
  -6.651358e+01   9.470742e+01
  -6.065085e+01   2.097016e+00
  -5.851763e+00  -4.250351e+01
   9.423562e+00  -3.495827e+01
  -3.704717e+01  -1.833663e+01
  -7.981856e+01  -2.227398e+01
  -4.521673e+01  -3.790418e+01
   6.333266e+01  -3.774071e+01
   1.582505e+02  -5.002847e+00
   1.448041e+02   4.948624e+01
   1.720789e+01   8.864467e+01
  -1.199901e+02   7.602681e+01
  -1.461058e+02   1.557287e+01
  -4.953892e+01  -4.029760e+01
   6.014055e+01  -3.816203e+01
   7.655156e+01   1.829114e+01
   8.136129e+00   6.850678e+01
  -5.580363e+01   5.855784e+01
  -6.354038e+01  -1.531618e+00
  -4.444968e+01  -4.983299e+01
  -4.401644e+01  -4.160165e+01
  -6.198895e+01  -1.722750e+00
  -6.663776e+01   7.175153e-02
  -3.583125e+01  -6.743211e+01
   3.160333e+01  -1.465194e+02
   1.150455e+02  -1.430928e+02
   1.640830e+02  -3.528984e+01
   1.246575e+02   9.001620e+01
   8.253672e+00   1.265255e+02
  -8.546805e+01   6.256096e+01
  -6.032492e+01  -1.454707e+01
   5.926761e+01  -2.081570e+01
   1.389410e+02   4.224898e+01
   7.783677e+01   1.071874e+02
  -7.973875e+01   1.141673e+02
  -1.916939e+02   5.482501e+01
  -1.644193e+02  -3.186917e+01
  -3.884500e+01  -8.693346e+01
   6.043413e+01  -7.180287e+01
   4.938038e+01  -8.320108e+00
  -3.854192e+01   2.736547e+01
  -9.121532e+01  -2.165646e+01
  -3.425546e+01  -1.189900e+02
   9.050852e+01  -1.560136e+02
   1.679189e+02  -6.425035e+01
   1.285098e+02   9.995850e+01
   1.239880e+01   1.986965e+02
  -8.451514e+01   1.461239e+02
  -1.053881e+02  -5.330682e+00
  -6.266562e+01  -1.178974e+02
   1.135457e-01  -1.074475e+02
   4.570751e+01  -2.115252e+01
   5.299292e+01   3.081385e+01
   2.656916e+01   8.509663e+00
   3.675406e+00  -2.090157e+01
   2.052886e+01   1.455900e+01
   5.694269e+01   8.832367e+01
   4.391488e+01   1.098778e+02
  -4.626038e+01   4.622107e+01
  -1.396116e+02  -3.832755e+01
  -1.317770e+02  -7.015108e+01
  -1.821396e+01  -4.964598e+01
   8.850656e+01  -2.300810e+01
   8.890734e+01  -8.724036e+00
   1.073752e+01   7.031568e+00
  -3.874570e+01   2.287492e+01
  -1.384175e+01   1.873605e+01
   2.174789e+01  -1.557250e+00
  -5.937679e+00  -9.266441e+00
  -7.499373e+01  -3.519698e+00
  -9.209842e+01  -2.319715e+01
  -8.640857e+00  -8.039661e+01
   1.184960e+02  -1.155172e+02
   1.856429e+02  -6.003718e+01
   1.422814e+02   6.670703e+01
   2.700248e+01   1.625195e+02
  -7.786266e+01   1.509723e+02
  -1.139507e+02   5.947219e+01
  -8.112123e+01  -2.102606e+01
  -2.526503e+01  -3.518188e+01
   3.132347e+00  -8.517298e+00
  -1.015091e+01  -3.737226e+00
  -3.381784e+01  -4.541912e+01
  -2.388270e+01  -9.013951e+01
   2.866579e+01  -7.216102e+01
   8.170710e+01   1.806948e+01
   7.811146e+01   1.083480e+02
   4.797784e+00   1.125908e+02
  -8.273504e+01   2.414583e+01
  -1.038307e+02  -7.530510e+01
  -3.266078e+01  -1.035601e+02
   6.628083e+01  -5.594426e+01
   9.797509e+01   1.125040e+01
   3.946181e+01   5.004978e+01
  -3.229288e+01   5.176003e+01
  -3.073580e+01   2.854444e+01
   3.447324e+01  -4.479776e-01
   6.951291e+01  -7.197010e+00
   1.502567e+01   2.491805e+01
  -7.893530e+01   6.689580e+01
  -1.152053e+02   6.007503e+01
  -6.379531e+01  -1.115189e+01
   1.523395e+01  -8.328781e+01
   5.222826e+01  -7.992051e+01
   3.664744e+01  -5.690604e+00
   1.655259e+00   5.615955e+01
  -2.552898e+01   4.292628e+01
  -3.658142e+01  -1.842723e+01
  -2.695853e+01  -5.393059e+01
   2.612628e+00  -3.261762e+01
   3.324019e+01   8.455476e+00
   3.986537e+01   2.057098e+01
   2.066873e+01   7.590012e-01
  -7.257078e-01  -1.390143e+01
  -6.881785e+00   3.530982e+00
  -6.759143e+00   3.685928e+01
  -1.679823e+01   4.455510e+01
  -3.240845e+01   7.350843e+00
  -3.019767e+01  -4.523683e+01
   2.207614e+00  -6.108855e+01
   4.473018e+01  -2.071364e+01
   5.663533e+01   3.916744e+01
   1.476755e+01   6.323761e+01
  -5.465284e+01   3.439664e+01
  -8.893227e+01  -1.497409e+01
  -4.943032e+01  -4.383027e+01
   2.856369e+01  -4.084195e+01
   6.473574e+01  -2.159936e+01
   2.403401e+01  -4.951494e+00
  -3.768920e+01  -2.219815e+00
  -3.805482e+01  -1.588682e+01
   3.090240e+01  -3.174857e+01
   9.181154e+01  -2.031082e+01
