
 $NMID
 id='ANONYMOUS ', fmtdat='(2E16.6)'
 volume=1.0
 tramp=1.0
 $END
  -4.734437e+03  -1.074784e+01
  -2.695875e+03  -2.908497e+03
   9.158691e+02  -2.983642e+03
   2.356773e+03  -8.425815e+02
   9.704542e+02   8.449616e+02
  -8.198109e+02   6.561864e+02
  -1.015084e+03  -5.285357e+02
   3.514193e+01  -1.207057e+03
   9.428800e+02  -8.398907e+02
   1.029570e+03   1.449139e+02
   4.614098e+02   9.696655e+02
  -3.075375e+02   9.674702e+02
  -7.261290e+02   9.733029e+01
  -4.168398e+02  -8.122574e+02
   3.186594e+02  -8.172635e+02
   6.711247e+02   3.039460e+01
   2.732432e+02   7.508459e+02
  -3.788884e+02   6.612553e+02
  -6.292587e+02   5.783479e+01
  -3.909131e+02  -4.011308e+02
   6.626299e+00  -4.687025e+02
   2.757660e+02  -2.754262e+02
   2.459364e+02  -3.750623e+00
  -1.107892e+02   1.224644e+02
  -4.505775e+02  -9.335849e+01
  -2.422773e+02  -4.670563e+02
   4.845579e+02  -4.725973e+02
   9.320167e+02   6.652980e+01
   4.815154e+02   6.120237e+02
  -4.293863e+02   5.528013e+02
  -8.240475e+02  -2.692380e+01
  -3.872871e+02  -5.291885e+02
   3.033763e+02  -5.704261e+02
   6.142595e+02  -2.205183e+02
   4.507976e+02   2.534418e+02
   6.787525e+01   5.260711e+02
  -2.400198e+02   3.123831e+02
  -2.138684e+02  -2.532611e+02
   1.758905e+02  -5.060346e+02
   5.113615e+02   2.863082e+00
   2.917908e+02   7.509864e+02
  -3.518487e+02   7.802393e+02
  -6.827727e+02  -3.081260e-02
  -2.922296e+02  -6.256508e+02
   3.333732e+02  -3.642596e+02
   4.398161e+02   3.518779e+02
  -6.576426e+01   6.015025e+02
  -6.016450e+02   1.547709e+02
  -6.404691e+02  -4.342028e+02
  -1.733362e+02  -6.292063e+02
   4.164975e+02  -3.747454e+02
   6.783234e+02   8.191423e+01
   3.958939e+02   4.271003e+02
  -1.826048e+02   4.056124e+02
  -4.922546e+02   5.102129e+01
  -2.559019e+02  -2.368026e+02
   1.484655e+02  -1.265704e+02
   1.672914e+02   1.818409e+02
  -1.861067e+02   2.194029e+02
  -3.861576e+02  -8.395676e+01
  -1.501337e+02  -3.344699e+02
   2.247518e+02  -2.725841e+02
   3.436173e+02  -6.263136e+01
   1.902971e+02   8.728242e+01
  -2.768528e+01   2.125974e+02
  -2.139626e+02   3.298189e+02
  -3.442905e+02   2.391559e+02
  -3.151455e+02  -1.359004e+02
  -8.952868e+01  -4.694112e+02
   1.352632e+02  -4.144798e+02
   1.459091e+02  -1.064225e+02
   2.419188e+01   3.493996e+01
   2.493986e+01  -8.501365e+01
   1.909369e+02  -1.515764e+02
   2.985884e+02   3.921468e+01
   1.819690e+02   2.836869e+02
  -6.832423e+01   2.817967e+02
  -2.452415e+02   2.325813e+01
  -2.206149e+02  -2.494359e+02
   1.435346e+00  -3.169539e+02
   2.812275e+02  -1.343225e+02
   3.878926e+02   1.715336e+02
   2.000055e+02   3.759592e+02
  -1.119597e+02   3.288763e+02
  -2.485461e+02   1.205794e+02
  -1.579024e+02  -9.322397e+00
  -9.271630e+01   2.941645e+01
  -2.325716e+02   7.375184e+01
  -4.132496e+02  -4.944606e+01
  -3.480945e+02  -2.909584e+02
  -4.569859e+00  -4.598099e+02
   3.663187e+02  -4.331319e+02
   5.071631e+02  -2.161399e+02
   3.601283e+02   9.374454e+01
   6.556238e+01   3.148219e+02
  -1.421973e+02   2.756669e+02
  -1.002285e+02   2.946751e+01
   1.126054e+02  -1.273497e+02
   2.193803e+02  -1.319641e+00
   6.248560e+01   2.164465e+02
  -1.777342e+02   1.948289e+02
  -2.026823e+02  -6.450876e+01
   1.501480e+01  -2.151885e+02
   2.100519e+02  -4.221872e+01
   1.737418e+02   2.599211e+02
  -3.428205e+01   3.641909e+02
  -2.359078e+02   1.965617e+02
  -3.302210e+02  -6.450426e+01
  -2.871750e+02  -2.400476e+02
  -1.066929e+02  -2.696465e+02
   1.132852e+02  -1.711933e+02
   1.905332e+02  -2.586882e+01
   6.681702e+01   3.764639e+01
  -7.702427e+01  -3.454290e+01
  -3.898958e+01  -1.326129e+02
   1.284384e+02  -1.121393e+02
   1.932823e+02   9.096726e+00
   6.729492e+01   7.953261e+01
  -8.243134e+01   2.458672e+01
  -6.157458e+01  -7.045464e+01
   1.206912e+02  -8.961838e+01
   2.855398e+02  -5.914837e+00
   2.734710e+02   1.354998e+02
   7.121672e+01   2.607529e+02
  -1.833763e+02   2.772999e+02
  -2.968092e+02   1.397045e+02
  -1.849249e+02  -5.412259e+01
   2.352049e+01  -1.219894e+02
   1.013001e+02  -1.246609e+01
  -2.808826e+01   1.109215e+02
  -2.053147e+02   6.941386e+01
  -2.283924e+02  -1.046531e+02
  -7.651307e+01  -2.204982e+02
   9.858270e+01  -1.703100e+02
   1.543008e+02  -3.405191e+01
   7.985243e+01   4.429458e+01
  -2.490379e+01   9.894481e+00
  -4.186253e+01  -7.810208e+01
   6.584072e+01  -1.151406e+02
   1.998786e+02  -3.554874e+01
   2.008380e+02   1.225531e+02
   2.645434e+01   2.275881e+02
  -1.715553e+02   1.746166e+02
  -2.064653e+02   6.462647e+00
  -7.117270e+01  -1.239779e+02
   7.004016e+01  -1.207581e+02
   9.003739e+01  -3.387989e+01
   2.415540e+01   2.733641e+01
  -1.789331e+01   2.221471e+01
   9.953336e+00  -3.424187e+00
   6.761792e+01   1.108578e+01
   8.630235e+01   8.036940e+01
   1.785456e+01   1.571102e+02
  -1.234944e+02   1.569973e+02
  -2.382390e+02   3.279868e+01
  -2.113760e+02  -1.500925e+02
  -4.633253e+01  -2.465761e+02
   1.134451e+02  -1.788871e+02
   1.420596e+02  -2.793621e+01
   7.223951e+01   6.019657e+01
   2.815183e+01   3.870130e+01
   5.415153e+01  -1.220385e+01
   7.963454e+01  -6.963633e+00
   3.931433e+01   4.839140e+01
  -4.317429e+01   8.514239e+01
  -9.869038e+01   5.401791e+01
  -8.188467e+01  -3.278988e+01
   1.147896e+01  -1.075776e+02
   1.379464e+02  -8.821485e+01
   2.000614e+02   4.602692e+01
   1.094248e+02   2.023874e+02
  -1.017430e+02   2.377482e+02
  -2.733983e+02   1.054028e+02
  -2.695280e+02  -8.507103e+01
  -1.174143e+02  -1.834711e+02
   3.855406e+01  -1.546734e+02
   9.862318e+01  -8.846138e+01
   8.397739e+01  -7.173918e+01
   7.041088e+01  -9.263153e+01
   9.483898e+01  -7.502221e+01
   1.306161e+02   2.289484e+01
   1.211099e+02   1.573819e+02
   3.270835e+01   2.320552e+02
  -9.981391e+01   1.792000e+02
  -1.818368e+02   2.486658e+01
  -1.438887e+02  -1.228283e+02
  -2.353407e+01  -1.650708e+02
   6.654682e+01  -9.868912e+01
   6.136890e+01  -5.142484e+00
   7.820011e+00   4.096410e+01
  -6.172480e+00   3.544194e+01
   3.938459e+01   2.039225e+01
   7.973897e+01   2.411032e+01
   4.457267e+01   3.826158e+01
  -6.242729e+01   3.746133e+01
  -1.574209e+02   5.545696e+00
  -1.468337e+02  -4.836919e+01
  -2.067907e+01  -8.838135e+01
   1.193002e+02  -7.697218e+01
   1.486497e+02  -1.681342e+01
   5.121805e+01   3.923909e+01
  -6.126868e+01   3.702221e+01
  -7.717043e+01  -1.920260e+01
  -5.457269e+00  -6.828214e+01
   5.904068e+01  -5.721340e+01
   6.328993e+01   2.865333e+00
   4.184140e+01   5.052939e+01
   4.348163e+01   4.211871e+01
   6.427834e+01   2.342951e+00
   6.798305e+01   2.525603e-01
   3.403498e+01   6.748132e+01
  -3.417199e+01   1.469452e+02
  -1.155859e+02   1.437607e+02
  -1.632440e+02   3.508213e+01
  -1.244941e+02  -9.121986e+01
  -8.742135e+00  -1.270912e+02
   8.556996e+01  -6.141342e+01
   6.057990e+01   1.606082e+01
  -6.056576e+01   2.063933e+01
  -1.417545e+02  -4.428501e+01
  -7.967244e+01  -1.097517e+02
   8.112315e+01  -1.164000e+02
   1.958050e+02  -5.637430e+01
   1.685126e+02   3.189738e+01
   4.047125e+01   8.909669e+01
  -6.129919e+01   7.475014e+01
  -5.051689e+01   1.005596e+01
   3.894117e+01  -2.667224e+01
   9.200058e+01   2.324012e+01
   3.240366e+01   1.216990e+02
  -9.573304e+01   1.573339e+02
  -1.731280e+02   6.211254e+01
  -1.297861e+02  -1.045676e+02
  -9.791436e+00  -2.031652e+02
   8.775791e+01  -1.487558e+02
   1.073687e+02   5.057368e+00
   6.427919e+01   1.198692e+02
   1.654619e+00   1.102988e+02
  -4.543830e+01   2.255496e+01
  -5.517899e+01  -3.155241e+01
  -2.894233e+01  -9.259268e+00
  -3.493567e+00   2.194057e+01
  -1.873970e+01  -1.339599e+01
  -5.688503e+01  -8.980400e+01
  -4.605216e+01  -1.131710e+02
   4.540324e+01  -4.749173e+01
   1.422364e+02   4.047218e+01
   1.350855e+02   7.273055e+01
   1.806801e+01   4.981294e+01
  -9.173328e+01   2.181930e+01
  -9.093220e+01   8.656925e+00
  -9.502855e+00  -6.168213e+00
   4.049504e+01  -2.311055e+01
   1.313170e+01  -2.024296e+01
  -2.352314e+01   7.678233e-01
   6.535120e+00   1.029178e+01
   7.782070e+01   5.391415e+00
   9.305739e+01   2.476352e+01
   5.214770e+00   8.137163e+01
  -1.237693e+02   1.153526e+02
  -1.884210e+02   5.773364e+01
  -1.413953e+02  -7.074425e+01
  -2.457624e+01  -1.658767e+02
   7.996544e+01  -1.516102e+02
   1.155936e+02  -5.792862e+01
   8.222306e+01   2.257819e+01
   2.507627e+01   3.535024e+01
  -4.383651e+00   7.560936e+00
   9.549777e+00   2.834827e+00
   3.470261e+01   4.570203e+01
   2.466408e+01   9.162482e+01
  -2.969846e+01   7.305401e+01
  -8.342046e+01  -1.989169e+01
  -7.767659e+01  -1.122204e+02
  -1.646867e+00  -1.146914e+02
   8.581742e+01  -2.182455e+01
   1.040629e+02   7.975381e+01
   3.044754e+01   1.054838e+02
  -6.826366e+01   5.424981e+01
  -9.801919e+01  -1.315026e+01
  -3.830607e+01  -4.943553e+01
   3.275572e+01  -5.012445e+01
   2.948382e+01  -2.863943e+01
  -3.669743e+01  -1.192073e+00
  -7.087157e+01   6.179025e+00
  -1.431105e+01  -2.490870e+01
   8.095430e+01  -6.737270e+01
   1.164460e+02  -6.133590e+01
   6.314696e+01   1.065023e+01
  -1.667966e+01   8.398076e+01
  -5.258348e+01   7.997050e+01
  -3.538466e+01   3.977092e+00
   1.629792e-01  -5.778351e+01
   2.671201e+01  -4.214327e+01
   3.677460e+01   2.082887e+01
   2.643779e+01   5.504793e+01
  -3.310334e+00   3.153202e+01
  -3.357678e+01  -9.675672e+00
  -3.986050e+01  -2.025760e+01
  -2.099195e+01  -1.150765e-01
  -1.198427e-03   1.280584e+01
   7.229091e+00  -6.049540e+00
   9.578915e+00  -3.826362e+01
   2.073864e+01  -4.312244e+01
   3.395520e+01  -3.947793e+00
   2.775309e+01   4.829920e+01
  -6.129985e+00   6.207781e+01
  -4.651477e+01   1.940008e+01
  -5.568320e+01  -4.161256e+01
  -1.321316e+01  -6.490758e+01
   5.535292e+01  -3.398136e+01
   8.912451e+01   1.688855e+01
   4.936586e+01   4.513818e+01
  -2.937407e+01   4.012998e+01
  -6.572605e+01   1.981336e+01
  -2.337478e+01   4.397221e+00
   4.013262e+01   3.975363e+00
   3.929505e+01   1.862350e+01
  -3.344210e+01   3.313983e+01
  -9.628440e+01   1.926697e+01
