
 $NMID
 id='ANONYMOUS ', fmtdat='(2E16.6)'
 volume=1.0
 tramp=1.0
 $END
  -4.315294e+03   1.995704e+01
  -2.552543e+03  -2.562532e+03
   6.713668e+02  -2.744925e+03
   2.076472e+03  -9.450385e+02
   9.753597e+02   5.948353e+02
  -6.021519e+02   5.638258e+02
  -8.629924e+02  -4.073330e+02
  -1.682669e+00  -1.040897e+03
   8.097083e+02  -7.793410e+02
   9.316788e+02   8.070208e+01
   4.582556e+02   8.490525e+02
  -2.240069e+02   8.875298e+02
  -6.211073e+02   1.264072e+02
  -3.813338e+02  -7.050586e+02
   2.606981e+02  -7.467201e+02
   6.026760e+02  -1.632903e+00
   2.808941e+02   6.792125e+02
  -3.142063e+02   6.477811e+02
  -5.877583e+02   1.098920e+02
  -4.014716e+02  -3.448550e+02
  -2.734747e+01  -4.400634e+02
   2.357606e+02  -2.680808e+02
   2.046761e+02  -2.496395e+01
  -1.188725e+02   6.929377e+01
  -3.986091e+02  -1.285598e+02
  -1.827088e+02  -4.287424e+02
   4.652714e+02  -3.949814e+02
   8.392605e+02   8.483829e+01
   4.208340e+02   5.393177e+02
  -3.894601e+02   4.670527e+02
  -7.346742e+02  -4.254527e+01
  -3.397655e+02  -4.780263e+02
   2.837661e+02  -5.117912e+02
   5.654980e+02  -1.995150e+02
   4.162009e+02   2.251073e+02
   7.525161e+01   4.690948e+02
  -1.863319e+02   2.833845e+02
  -1.578812e+02  -2.062429e+02
   1.652502e+02  -4.195171e+02
   4.301245e+02   2.622632e+01
   2.307780e+02   6.733777e+02
  -3.150234e+02   6.929444e+02
  -5.915318e+02   8.221886e+00
  -2.562280e+02  -5.413382e+02
   2.815311e+02  -3.122916e+02
   3.746121e+02   3.212014e+02
  -7.032528e+01   5.418526e+02
  -5.532715e+02   1.334222e+02
  -5.951374e+02  -4.091232e+02
  -1.687043e+02  -5.876485e+02
   3.803760e+02  -3.465860e+02
   6.303720e+02   7.298026e+01
   3.802253e+02   3.793283e+02
  -1.448717e+02   3.618944e+02
  -4.387869e+02   6.200495e+01
  -2.476908e+02  -1.855136e+02
   1.083718e+02  -1.052102e+02
   1.412412e+02   1.458693e+02
  -1.593571e+02   1.816766e+02
  -3.445649e+02  -7.059124e+01
  -1.450076e+02  -2.962293e+02
   2.038268e+02  -2.633182e+02
   3.391116e+02  -7.776067e+01
   2.035102e+02   9.005635e+01
  -2.876420e+01   2.333251e+02
  -2.299381e+02   3.297616e+02
  -3.420917e+02   2.160153e+02
  -2.903880e+02  -1.381658e+02
  -8.056549e+01  -4.353246e+02
   1.088850e+02  -3.873986e+02
   1.172156e+02  -1.219821e+02
   2.927238e+01   2.933519e+00
   5.088370e+01  -8.757017e+01
   1.988193e+02  -1.251137e+02
   2.780077e+02   5.616462e+01
   1.578529e+02   2.707611e+02
  -7.170190e+01   2.555845e+02
  -2.268485e+02   8.951386e+00
  -1.966047e+02  -2.420283e+02
   1.109408e+01  -2.946270e+02
   2.666528e+02  -1.156381e+02
   3.620094e+02   1.675503e+02
   1.901830e+02   3.511107e+02
  -9.540734e+01   3.096604e+02
  -2.265680e+02   1.273687e+02
  -1.547599e+02   1.092225e+01
  -1.046508e+02   3.618193e+01
  -2.379576e+02   6.246957e+01
  -4.039219e+02  -5.996483e+01
  -3.344288e+02  -2.874111e+02
   2.852702e+00  -4.455819e+02
   3.632792e+02  -4.154545e+02
   4.909143e+02  -2.018642e+02
   3.363514e+02   9.270739e+01
   5.454273e+01   2.935396e+02
  -1.273332e+02   2.535444e+02
  -7.852220e+01   3.258923e+01
   1.098333e+02  -1.047719e+02
   1.940659e+02   5.985643e+00
   5.021410e+01   1.942594e+02
  -1.589027e+02   1.716896e+02
  -1.778083e+02  -5.883366e+01
   1.631435e+01  -1.916645e+02
   1.941034e+02  -3.245955e+01
   1.653647e+02   2.492895e+02
  -3.076758e+01   3.526505e+02
  -2.337596e+02   1.948834e+02
  -3.304927e+02  -6.416320e+01
  -2.789767e+02  -2.415771e+02
  -9.327678e+01  -2.652323e+02
   1.146511e+02  -1.602780e+02
   1.775683e+02  -2.116990e+01
   5.873754e+01   3.094632e+01
  -6.889467e+01  -3.974366e+01
  -2.843419e+01  -1.249537e+02
   1.243817e+02  -9.926566e+01
   1.785744e+02   1.254706e+01
   5.807327e+01   7.178744e+01
  -8.013682e+01   1.522771e+01
  -5.434634e+01  -7.421693e+01
   1.254194e+02  -8.663762e+01
   2.837183e+02   1.984992e+00
   2.635827e+02   1.418074e+02
   5.888103e+01   2.558757e+02
  -1.856529e+02   2.610640e+02
  -2.843152e+02   1.268650e+02
  -1.705953e+02  -5.066271e+01
   2.393519e+01  -1.093391e+02
   9.045516e+01  -8.757543e+00
  -3.310024e+01   1.010589e+02
  -1.961975e+02   5.950422e+01
  -2.144564e+02  -1.023491e+02
  -7.039700e+01  -2.085881e+02
   9.416570e+01  -1.589912e+02
   1.443165e+02  -2.959886e+01
   7.051453e+01   4.105494e+01
  -2.790359e+01   1.827172e+00
  -3.667126e+01  -8.410425e+01
   7.260845e+01  -1.129332e+02
   1.986577e+02  -2.853706e+01
   1.921844e+02   1.235265e+02
   2.192494e+01   2.187702e+02
  -1.648247e+02   1.655879e+02
  -1.953108e+02   7.559122e+00
  -6.644144e+01  -1.146146e+02
   6.651588e+01  -1.124726e+02
   8.351686e+01  -3.129494e+01
   1.820396e+01   2.575697e+01
  -2.195112e+01   1.808950e+01
   1.008672e+01  -8.707586e+00
   7.181205e+01   8.496836e+00
   8.889171e+01   8.247192e+01
   1.496175e+01   1.588638e+02
  -1.264552e+02   1.526119e+02
  -2.337990e+02   2.598248e+01
  -2.024206e+02  -1.498131e+02
  -4.294561e+01  -2.378424e+02
   1.086247e+02  -1.710505e+02
   1.366188e+02  -2.806481e+01
   7.157145e+01   5.552442e+01
   2.916757e+01   3.591844e+01
   5.367836e+01  -1.233930e+01
   8.026578e+01  -6.436588e+00
   4.243203e+01   5.029885e+01
  -4.244815e+01   8.880849e+01
  -1.033956e+02   5.560902e+01
  -8.624863e+01  -3.596864e+01
   1.362088e+01  -1.110500e+02
   1.422562e+02  -8.614889e+01
   1.974907e+02   5.086016e+01
   1.006614e+02   2.013295e+02
  -1.060335e+02   2.288651e+02
  -2.670256e+02   9.698800e+01
  -2.582857e+02  -8.514307e+01
  -1.105696e+02  -1.766548e+02
   3.831851e+01  -1.477042e+02
   9.447309e+01  -8.477609e+01
   7.918745e+01  -7.015419e+01
   6.656583e+01  -9.161421e+01
   9.245531e+01  -7.472136e+01
   1.286997e+02   2.173337e+01
   1.182189e+02   1.540917e+02
   3.013598e+01   2.263899e+02
  -9.840692e+01   1.726762e+02
  -1.755376e+02   2.089833e+01
  -1.366184e+02  -1.217188e+02
  -1.936721e+01  -1.597166e+02
   6.737751e+01  -9.215729e+01
   6.013232e+01  -1.177333e-01
   4.392231e+00   4.305364e+01
  -1.117280e+01   3.439530e+01
   3.596126e+01   1.777983e+01
   7.964178e+01   2.250761e+01
   4.500042e+01   3.834327e+01
  -6.415949e+01   3.697256e+01
  -1.585141e+02   2.726011e+00
  -1.431663e+02  -5.160157e+01
  -1.462301e+01  -8.867566e+01
   1.210884e+02  -7.402630e+01
   1.450644e+02  -1.338095e+01
   4.823020e+01   4.121932e+01
  -6.018979e+01   3.792835e+01
  -7.607482e+01  -1.882258e+01
  -8.363992e+00  -6.883767e+01
   5.525181e+01  -5.859273e+01
   6.367250e+01   1.794322e+00
   4.492127e+01   5.024684e+01
   4.371989e+01   4.194952e+01
   6.101807e+01   2.089664e+00
   6.605782e+01   5.415504e-01
   3.570651e+01   6.793901e+01
  -3.233241e+01   1.460203e+02
  -1.165000e+02   1.413078e+02
  -1.647787e+02   3.322981e+01
  -1.235897e+02  -9.103672e+01
  -6.491078e+00  -1.262766e+02
   8.623349e+01  -6.192570e+01
   6.009795e+01   1.465163e+01
  -5.896331e+01   2.021665e+01
  -1.372867e+02  -4.293464e+01
  -7.584742e+01  -1.069072e+02
   8.039687e+01  -1.122544e+02
   1.904450e+02  -5.201088e+01
   1.622117e+02   3.362855e+01
   3.719655e+01   8.635662e+01
  -6.073893e+01   6.983004e+01
  -4.886295e+01   7.049974e+00
   3.874183e+01  -2.717638e+01
   9.066286e+01   2.208018e+01
   3.368594e+01   1.183431e+02
  -9.015542e+01   1.545754e+02
  -1.665991e+02   6.333263e+01
  -1.269478e+02  -9.951099e+01
  -1.127315e+01  -1.970421e+02
   8.477459e+01  -1.440896e+02
   1.044101e+02   6.632967e+00
   6.060363e+01   1.176799e+02
  -2.006232e+00   1.060715e+02
  -4.595965e+01   1.996303e+01
  -5.171275e+01  -3.100584e+01
  -2.551072e+01  -8.366780e+00
  -3.941086e+00   2.039802e+01
  -2.099497e+01  -1.541113e+01
  -5.591664e+01  -8.837099e+01
  -4.183881e+01  -1.088460e+02
   4.708047e+01  -4.502256e+01
   1.380918e+02   3.899204e+01
   1.296077e+02   7.046886e+01
   1.764856e+01   4.978247e+01
  -8.747893e+01   2.259001e+01
  -8.812208e+01   7.763930e+00
  -1.109533e+01  -7.603677e+00
   3.826612e+01  -2.239252e+01
   1.426068e+01  -1.787615e+01
  -2.107009e+01   1.730059e+00
   5.638712e+00   8.869255e+00
   7.385329e+01   3.493677e+00
   9.145276e+01   2.362635e+01
   9.109848e+00   8.027894e+01
  -1.176947e+02   1.143732e+02
  -1.852775e+02   5.880324e+01
  -1.419868e+02  -6.683894e+01
  -2.617199e+01  -1.615220e+02
   7.879547e+01  -1.497683e+02
   1.140459e+02  -5.874907e+01
   8.045008e+01   2.131478e+01
   2.489480e+01   3.541920e+01
  -2.783302e+00   8.953502e+00
   1.028520e+01   4.277450e+00
   3.287553e+01   4.563699e+01
   2.250844e+01   8.971052e+01
  -2.906613e+01   7.145115e+01
  -8.083746e+01  -1.821413e+01
  -7.713754e+01  -1.076818e+02
  -4.826209e+00  -1.119176e+02
   8.186219e+01  -2.425950e+01
   1.030179e+02   7.470078e+01
   3.238327e+01   1.032536e+02
  -6.623290e+01   5.590921e+01
  -9.787786e+01  -1.168531e+01
  -3.924287e+01  -5.084585e+01
   3.284156e+01  -5.202829e+01
   3.158721e+01  -2.801409e+01
  -3.364434e+01   8.445148e-01
  -6.906218e+01   6.831295e+00
  -1.499759e+01  -2.514270e+01
   7.885463e+01  -6.579603e+01
   1.152841e+02  -5.814543e+01
   6.384685e+01   1.219943e+01
  -1.562566e+01   8.285048e+01
  -5.304846e+01   7.921253e+01
  -3.733414e+01   5.850518e+00
  -1.811223e+00  -5.559224e+01
   2.561458e+01  -4.298084e+01
   3.640737e+01   1.786625e+01
   2.655310e+01   5.380552e+01
  -2.805661e+00   3.306024e+01
  -3.305441e+01  -8.339394e+00
  -3.956034e+01  -2.118927e+01
  -2.046760e+01  -1.263831e+00
   7.774686e-01   1.440480e+01
   6.606973e+00  -2.421013e+00
   5.954072e+00  -3.635796e+01
   1.581069e+01  -4.517467e+01
   3.206820e+01  -8.453978e+00
   3.082909e+01   4.448208e+01
  -1.281474e+00   6.087503e+01
  -4.430968e+01   2.080223e+01
  -5.666459e+01  -3.890449e+01
  -1.471927e+01  -6.279364e+01
   5.478683e+01  -3.390511e+01
   8.873381e+01   1.527655e+01
   4.896058e+01   4.388496e+01
  -2.877073e+01   4.080501e+01
  -6.467431e+01   2.157764e+01
  -2.439109e+01   4.830817e+00
   3.674146e+01   1.799217e+00
   3.750022e+01   1.513623e+01
  -3.013376e+01   3.093322e+01
  -9.022112e+01   1.987723e+01
