
 $NMID
 id='ANONYMOUS ', fmtdat='(2E16.6)'
 volume=1.0
 tramp=1.0
 $END
   4.560549e+03  -1.073995e+00
   2.634252e+03   2.765397e+03
  -8.163184e+02   2.882634e+03
  -2.239566e+03   8.821940e+02
  -9.695662e+02  -7.422234e+02
   7.315566e+02  -6.165770e+02
   9.518272e+02   4.798862e+02
  -2.102738e+01   1.138456e+03
  -8.881757e+02   8.140175e+02
  -9.885176e+02  -1.190309e+02
  -4.592309e+02  -9.197053e+02
   2.735582e+02  -9.336549e+02
   6.826367e+02  -1.084630e+02
   4.016326e+02   7.682500e+02
  -2.950328e+02   7.876677e+02
  -6.425432e+02  -1.760323e+01
  -2.759487e+02  -7.209190e+02
   3.519972e+02  -6.548462e+02
   6.113147e+02  -7.890943e+01
   3.945657e+02   3.775839e+02
   7.197791e+00   4.563506e+02
  -2.592003e+02   2.720121e+02
  -2.288050e+02   1.207922e+01
   1.144427e+02  -1.010426e+02
   4.296419e+02   1.077011e+02
   2.179566e+02   4.516114e+02
  -4.767949e+02   4.410046e+02
  -8.939654e+02  -7.410630e+01
  -4.562829e+02  -5.823577e+02
   4.133471e+02  -5.175775e+02
   7.873942e+02   3.350215e+01
   3.676236e+02   5.082399e+02
  -2.953474e+02   5.462668e+02
  -5.940578e+02   2.118193e+02
  -4.363229e+02  -2.417655e+02
  -7.061793e+01  -5.024412e+02
   2.181594e+02  -3.000014e+02
   1.907438e+02   2.344659e+02
  -1.719593e+02   4.706478e+02
  -4.783325e+02  -1.276745e+01
  -2.666516e+02  -7.193822e+02
   3.369548e+02  -7.441625e+02
   6.452010e+02  -2.880785e+00
   2.770233e+02   5.911690e+02
  -3.123870e+02   3.426451e+02
  -4.130328e+02  -3.395153e+02
   6.769854e+01  -5.769707e+02
   5.816705e+02  -1.459825e+02
   6.216788e+02   4.236441e+02
   1.713892e+02   6.117644e+02
  -4.015255e+02   3.629915e+02
  -6.583208e+02  -7.818458e+01
  -3.890532e+02  -4.072533e+02
   1.673279e+02  -3.873255e+02
   4.700471e+02  -5.524703e+01
   2.519977e+02   2.157342e+02
  -1.322539e+02   1.175095e+02
  -1.563725e+02  -1.672842e+02
   1.753594e+02  -2.038230e+02
   3.689312e+02   7.861069e+01
   1.477941e+02   3.186487e+02
  -2.159685e+02   2.685625e+02
  -3.412798e+02   6.893566e+01
  -1.955797e+02  -8.802259e+01
   2.769009e+01  -2.208301e+02
   2.199591e+02  -3.298676e+02
   3.431564e+02  -2.298600e+02
   3.050030e+02   1.367047e+02
   8.584966e+01   4.552466e+02
  -1.244280e+02   4.029968e+02
  -1.339204e+02   1.124300e+02
  -2.590306e+01  -2.189223e+01
  -3.530834e+01   8.628015e+01
  -1.941219e+02   1.409939e+02
  -2.902287e+02  -4.600795e+01
  -1.721588e+02  -2.783269e+02
   6.968073e+01  -2.710499e+02
   2.377305e+02  -1.745861e+01
   2.108459e+02   2.463028e+02
  -5.316796e+00   3.077602e+02
  -2.751835e+02   1.267295e+02
  -3.771937e+02  -1.697314e+02
  -1.959062e+02  -3.655265e+02
   1.051035e+02  -3.207356e+02
   2.392685e+02  -1.231892e+02
   1.562810e+02   1.029764e+00
   9.736259e+01  -3.233613e+01
   2.346102e+02  -6.938223e+01
   4.092789e+02   5.340955e+01
   3.424756e+02   2.891288e+02
   1.797183e+00   4.537380e+02
  -3.646016e+02   4.258869e+02
  -5.001296e+02   2.104315e+02
  -3.502716e+02  -9.320105e+01
  -6.108253e+01  -3.060107e+02
   1.360746e+02  -2.664410e+02
   9.130622e+01  -3.055053e+01
  -1.115278e+02   1.181756e+02
  -2.090347e+02  -1.727940e+00
  -5.740911e+01  -2.073707e+02
   1.700561e+02  -1.852481e+02
   1.924422e+02   6.226040e+01
  -1.560383e+01   2.055182e+02
  -2.034936e+02   3.823869e+01
  -1.703077e+02  -2.553432e+02
   3.265031e+01  -3.592008e+02
   2.346879e+02  -1.958894e+02
   3.300967e+02   6.402848e+01
   2.838321e+02   2.403061e+02
   1.013557e+02   2.676862e+02
  -1.137149e+02   1.667430e+02
  -1.851564e+02   2.396521e+01
  -6.345076e+01  -3.493712e+01
   7.375709e+01   3.664014e+01
   3.471600e+01   1.294846e+02
  -1.267339e+02   1.069013e+02
  -1.872142e+02  -1.048215e+01
  -6.349037e+01  -7.637678e+01
   8.151451e+01  -2.082583e+01
   5.869974e+01   7.194242e+01
  -1.224558e+02   8.848983e+01
  -2.846387e+02   2.936996e+00
  -2.694207e+02  -1.378107e+02
  -6.633442e+01  -2.586312e+02
   1.840825e+02  -2.706760e+02
   2.915243e+02  -1.345062e+02
   1.789791e+02   5.267803e+01
  -2.370373e+01   1.167936e+02
  -9.685794e+01   1.092233e+01
   3.010512e+01  -1.069168e+02
   2.015013e+02  -6.542058e+01
   2.226237e+02   1.035912e+02
   7.402968e+01   2.154947e+02
  -9.669205e+01   1.656213e+02
  -1.501508e+02   3.224276e+01
  -7.600975e+01  -4.298155e+01
   2.617550e+01  -6.678077e+00
   3.985939e+01   8.048321e+01
  -6.844722e+01   1.142788e+02
  -1.992595e+02   3.283860e+01
  -1.972801e+02  -1.227662e+02
  -2.469567e+01  -2.238537e+02
   1.686374e+02  -1.708864e+02
   2.017594e+02  -6.952423e+00
   6.920021e+01   1.200768e+02
  -6.854367e+01   1.173243e+02
  -8.732297e+01   3.280995e+01
  -2.173394e+01  -2.671917e+01
   1.954513e+01  -2.058730e+01
  -9.937725e+00   5.567372e+00
  -6.923633e+01  -9.926150e+00
  -8.736590e+01  -8.104874e+01
  -1.682161e+01  -1.577003e+02
   1.245004e+02  -1.552257e+02
   2.362853e+02  -3.016702e+01
   2.076965e+02   1.497697e+02
   4.503563e+01   2.428300e+02
  -1.113330e+02   1.756071e+02
  -1.397121e+02   2.802444e+01
  -7.190661e+01  -5.820177e+01
  -2.854038e+01  -3.750773e+01
  -5.390167e+01   1.228867e+01
  -7.982096e+01   6.818796e+00
  -4.060287e+01  -4.905338e+01
   4.273115e+01  -8.657977e+01
   1.004446e+02  -5.474979e+01
   8.364116e+01   3.392967e+01
  -1.220598e+01   1.089221e+02
  -1.395181e+02   8.746739e+01
  -1.989414e+02  -4.780052e+01
  -1.059465e+02  -2.017888e+02
   1.032866e+02  -2.340845e+02
   2.705890e+02  -1.020706e+02
   2.648225e+02   8.492238e+01
   1.146257e+02   1.805326e+02
  -3.837135e+01   1.517521e+02
  -9.682574e+01   8.693275e+01
  -8.192494e+01   7.105478e+01
  -6.872829e+01   9.215754e+01
  -9.373321e+01   7.488982e+01
  -1.297351e+02  -2.231607e+01
  -1.199333e+02  -1.558451e+02
  -3.177400e+01  -2.295649e+02
   9.907904e+01  -1.764765e+02
   1.791555e+02  -2.332516e+01
   1.409166e+02   1.222319e+02
   2.190971e+01   1.627894e+02
  -6.681360e+01   9.602831e+01
  -6.086682e+01   3.144673e+00
  -6.484895e+00  -4.180468e+01
   8.170484e+00  -3.504833e+01
  -3.795497e+01  -1.932267e+01
  -7.963364e+01  -2.337512e+01
  -4.474041e+01  -3.821920e+01
   6.304750e+01  -3.730320e+01
   1.577534e+02  -4.545942e+00
   1.453005e+02   4.955055e+01
   1.829052e+01   8.847314e+01
  -1.198876e+02   7.583517e+01
  -1.470953e+02   1.549735e+01
  -5.002070e+01  -3.999543e+01
   6.073832e+01  -3.739660e+01
   7.667290e+01   1.897916e+01
   6.691690e+00   6.841128e+01
  -5.739423e+01   5.773003e+01
  -6.338066e+01  -2.372093e+00
  -4.309021e+01  -5.030232e+01
  -4.357420e+01  -4.197457e+01
  -6.290383e+01  -2.219990e+00
  -6.714934e+01  -3.328611e-01
  -3.474355e+01  -6.756100e+01
   3.328460e+01  -1.464531e+02
   1.157612e+02  -1.427526e+02
   1.637143e+02  -3.445780e+01
   1.240961e+02   9.097176e+01
   7.922927e+00   1.266695e+02
  -8.570685e+01   6.164721e+01
  -6.033085e+01  -1.543124e+01
   5.985276e+01  -2.048422e+01
   1.398483e+02   4.363003e+01
   7.811865e+01   1.084815e+02
  -8.070662e+01   1.146839e+02
  -1.934691e+02   5.466805e+01
  -1.658655e+02  -3.249657e+01
  -3.915749e+01  -8.791366e+01
   6.101062e+01  -7.274195e+01
   4.982908e+01  -8.856401e+00
  -3.879887e+01   2.688380e+01
  -9.138721e+01  -2.268797e+01
  -3.296020e+01  -1.201956e+02
   9.329248e+01  -1.561024e+02
   1.702728e+02  -6.262692e+01
   1.285593e+02   1.023543e+02
   1.048660e+01   2.004895e+02
  -8.640141e+01   1.467822e+02
  -1.061014e+02  -5.631794e+00
  -6.281487e+01  -1.188666e+02
  -2.197990e-01  -1.085332e+02
   4.561930e+01  -2.153165e+01
   5.375053e+01   3.129561e+01
   2.752786e+01   8.903650e+00
   3.669897e+00  -2.130580e+01
   1.966888e+01   1.415859e+01
   5.650458e+01   8.910963e+01
   4.435699e+01   1.113320e+02
  -4.602920e+01   4.650920e+01
  -1.404558e+02  -3.976405e+01
  -1.327907e+02  -7.169928e+01
  -1.792461e+01  -4.974697e+01
   8.990702e+01  -2.214291e+01
   8.972000e+01  -8.334397e+00
   1.015953e+01   6.717763e+00
  -3.954722e+01   2.281004e+01
  -1.358575e+01   1.929202e+01
   2.249977e+01  -1.149160e+00
  -6.160103e+00  -9.712049e+00
  -7.613310e+01  -4.597235e+00
  -9.233672e+01  -2.422130e+01
  -6.841982e+00  -8.081239e+01
   1.211195e+02  -1.148949e+02
   1.869268e+02  -5.824108e+01
   1.415294e+02   6.897809e+01
   2.529266e+01   1.639345e+02
  -7.931542e+01   1.507894e+02
  -1.148100e+02   5.829110e+01
  -8.144044e+01  -2.199782e+01
  -2.501191e+01  -3.532841e+01
   3.711097e+00  -8.103594e+00
  -9.857142e+00  -3.399526e+00
  -3.397184e+01  -4.562703e+01
  -2.382764e+01  -9.077457e+01
   2.937300e+01  -7.236104e+01
   8.230246e+01   1.915407e+01
   7.743662e+01   1.102287e+02
   2.997463e+00   1.134345e+02
  -8.409892e+01   2.281935e+01
  -1.035625e+02  -7.756536e+01
  -3.126864e+01  -1.044440e+02
   6.731954e+01  -5.490935e+01
   9.787248e+01   1.246525e+01
   3.870909e+01   4.992042e+01
  -3.269885e+01   5.087962e+01
  -3.029150e+01   2.840991e+01
   3.540993e+01   3.701010e-01
   7.006642e+01  -6.477473e+00
   1.459993e+01   2.496217e+01
  -7.999583e+01   6.672244e+01
  -1.158589e+02   6.007865e+01
  -6.340148e+01  -1.120635e+01
   1.618051e+01  -8.345380e+01
   5.266682e+01  -7.964459e+01
   3.611842e+01  -4.782492e+00
   6.601803e-01   5.682608e+01
  -2.620039e+01   4.245609e+01
  -3.657944e+01  -1.958594e+01
  -2.649449e+01  -5.447446e+01
   3.059965e+00  -3.211997e+01
   3.333009e+01   9.104368e+00
   3.973211e+01   2.058641e+01
   2.077454e+01   5.674693e-01
  -3.420432e-01  -1.343275e+01
  -7.006066e+00   4.576459e+00
  -8.093587e+00   3.742835e+01
  -1.866919e+01   4.387840e+01
  -3.311007e+01   5.774366e+00
  -2.897177e+01  -4.665686e+01
   4.125002e+00  -6.148982e+01
   4.555123e+01  -1.996538e+01
   5.603739e+01   4.042381e+01
   1.384238e+01   6.396911e+01
  -5.504837e+01   3.396179e+01
  -8.888620e+01  -1.615112e+01
  -4.918379e+01  -4.455522e+01
   2.906342e+01  -4.038650e+01
   6.520794e+01  -2.055364e+01
   2.375706e+01  -4.599678e+00
  -3.870627e+01  -3.095371e+00
  -3.851286e+01  -1.718390e+01
   3.207179e+01  -3.221095e+01
   9.372672e+01  -1.951188e+01
