
 $NMID
 id='ANONYMOUS ', fmtdat='(2E16.6)'
 volume=1.0
 tramp=1.0
 $END
   2.804869e+03   6.583908e+01
   1.912642e+03   1.346236e+03
   1.708912e+02   1.771769e+03
  -9.723189e+02   1.259854e+03
  -9.018232e+02   4.024577e+02
  -2.032455e+02  -9.401359e+01
   2.197431e+02   1.679804e+01
   6.251408e+01   3.951775e+02
  -3.375541e+02   4.999523e+02
  -5.426724e+02   1.262605e+02
  -4.039838e+02  -3.988577e+02
  -6.456233e+01  -5.591320e+02
   2.068762e+02  -1.942618e+02
   1.986059e+02   3.217290e+02
  -7.338127e+01   4.647778e+02
  -3.353428e+02   9.652289e+01
  -2.890870e+02  -4.147618e+02
   6.974557e+01  -5.893533e+02
   4.167196e+02  -3.069914e+02
   4.337874e+02   1.239040e+02
   1.533339e+02   3.252073e+02
  -8.699876e+01   2.298055e+02
  -3.450913e+01   8.989584e+01
   1.879095e+02   1.377480e+02
   2.283488e+02   3.050783e+02
  -6.946259e+01   3.272682e+02
  -4.517871e+02   9.117857e+01
  -5.146288e+02  -2.110249e+02
  -1.565760e+02  -3.023825e+02
   2.926210e+02  -1.211543e+02
   4.168083e+02   1.545679e+02
   1.370887e+02   3.185786e+02
  -2.482073e+02   2.892500e+02
  -4.056936e+02   9.978231e+01
  -2.811444e+02  -1.379810e+02
  -7.925763e+01  -2.556425e+02
  -7.947487e+00  -1.495621e+02
  -8.767516e+01   5.666285e+01
  -1.772588e+02   8.353363e+01
  -1.348464e+02  -1.664485e+02
   4.594115e+01  -4.246729e+02
   2.263648e+02  -3.530235e+02
   2.448376e+02   6.491230e+00
   7.747360e+01   2.442264e+02
  -1.125332e+02   8.834861e+01
  -1.125397e+02  -2.473552e+02
   1.229238e+02  -3.291151e+02
   3.951424e+02  -2.919890e+01
   4.284598e+02   3.490972e+02
   1.383341e+02   4.488991e+02
  -2.659603e+02   2.309188e+02
  -4.616476e+02  -6.341948e+01
  -3.101597e+02  -2.100157e+02
   2.136131e+01  -1.810695e+02
   2.361117e+02  -8.183395e+01
   1.979670e+02  -1.088235e+01
   3.759200e+01   1.055752e+00
  -2.246742e+01  -2.093800e+01
   7.903609e+01  -2.290272e+01
   1.851452e+02   4.134802e+01
   1.112263e+02   1.572142e+02
  -1.321759e+02   2.278660e+02
  -3.279595e+02   1.429284e+02
  -2.693964e+02  -9.651145e+01
   2.075241e+01  -3.297497e+02
   3.036191e+02  -3.566132e+02
   3.616795e+02  -1.338131e+02
   2.063154e+02   1.663325e+02
   3.150926e+01   3.226787e+02
  -1.988455e+01   2.817387e+02
   3.598899e+00   1.753298e+02
  -3.274807e+01   1.301246e+02
  -1.566216e+02   1.176928e+02
  -2.549890e+02   2.977650e+01
  -2.182272e+02  -1.376542e+02
  -6.208146e+01  -2.442943e+02
   1.022533e+02  -1.640560e+02
   1.714381e+02   5.773562e+01
   1.061466e+02   2.362274e+02
  -6.165692e+01   2.239858e+02
  -2.304435e+02   3.888558e+01
  -2.734408e+02  -1.718838e+02
  -1.477228e+02  -2.715703e+02
   4.167498e+01  -2.377778e+02
   1.434262e+02  -1.500717e+02
   1.376834e+02  -9.302845e+01
   1.540324e+02  -7.315320e+01
   2.775338e+02  -2.459019e+01
   3.922841e+02   1.080279e+02
   2.952991e+02   2.924601e+02
  -3.809150e+01   4.138403e+02
  -3.758173e+02   3.648389e+02
  -4.556292e+02   1.479278e+02
  -2.562433e+02  -1.043278e+02
  -2.250326e+00  -2.273902e+02
   8.412560e+01  -1.683384e+02
  -7.891884e+00  -3.482363e+01
  -1.162731e+02   1.736438e+01
  -1.049787e+02  -4.922705e+01
   8.642956e+00  -1.203545e+02
   1.023193e+02  -7.629084e+01
   8.256366e+01   5.178329e+01
  -3.463743e+01   1.063182e+02
  -1.442072e+02  -1.342969e+01
  -1.350740e+02  -2.218873e+02
   2.206629e+01  -3.211452e+02
   2.359482e+02  -1.980630e+02
   3.479892e+02   6.327851e+01
   2.619655e+02   2.622509e+02
   4.273497e+01   2.673347e+02
  -1.309399e+02   1.253987e+02
  -1.361287e+02  -3.100686e+00
  -2.511253e+01  -9.495324e+00
   4.254774e+01   6.702254e+01
  -1.658208e+01   1.058553e+02
  -1.207099e+02   5.037536e+01
  -1.296289e+02  -3.439496e+01
  -1.947312e+01  -4.875085e+01
   8.005083e+01   2.278708e+01
   3.037307e+01   9.691705e+01
  -1.518285e+02   8.243843e+01
  -2.947586e+02  -3.311484e+01
  -2.409886e+02  -1.781264e+02
  -1.071248e+01  -2.552697e+02
   2.114440e+02  -2.105425e+02
   2.539368e+02  -7.574717e+01
   1.190635e+02   4.613532e+01
  -3.332652e+01   6.369724e+01
  -5.289778e+01  -1.151272e+01
   6.005583e+01  -6.908033e+01
   1.740415e+02  -1.831042e+01
   1.677200e+02   1.044808e+02
   4.361422e+01   1.734024e+02
  -8.620653e+01   1.188940e+02
  -1.131587e+02   8.223007e+00
  -3.443916e+01  -3.479875e+01
   4.612859e+01   2.890465e+01
   2.148803e+01   1.153335e+02
  -1.040824e+02   1.139489e+02
  -2.072468e+02   2.217145e+00
  -1.678864e+02  -1.370999e+02
  -1.099364e+00  -1.960825e+02
   1.495299e+02  -1.342982e+02
   1.588224e+02  -7.354504e+00
   4.587066e+01   8.441831e+01
  -5.941902e+01   8.274282e+01
  -6.236780e+01   1.915110e+01
   5.812707e+00  -2.392111e+01
   4.177015e+01  -4.736281e+00
  -7.982766e+00   3.074911e+01
  -9.090971e+01   4.582231e+00
  -1.055835e+02  -9.286411e+01
  -6.145677e+00  -1.753033e+02
   1.460584e+02  -1.449024e+02
   2.309290e+02   1.277300e+00
   1.768634e+02   1.596769e+02
   2.797756e+01   2.156047e+02
  -9.761638e+01   1.455607e+02
  -1.208909e+02   2.781204e+01
  -7.004435e+01  -3.910421e+01
  -3.336600e+01  -2.555536e+01
  -5.420197e+01   1.361700e+01
  -8.700166e+01   5.575995e+00
  -5.865151e+01  -5.836997e+01
   3.877202e+01  -1.079265e+02
   1.262109e+02  -6.829275e+01
   1.102994e+02   4.745382e+01
  -2.013755e+01   1.319179e+02
  -1.672576e+02   8.552471e+01
  -1.998655e+02  -7.299445e+01
  -7.085606e+01  -2.111908e+02
   1.320895e+02  -2.072216e+02
   2.583228e+02  -6.581960e+01
   2.258828e+02   9.419468e+01
   8.550862e+01   1.607300e+02
  -4.217905e+01   1.267410e+02
  -8.372856e+01   7.222968e+01
  -6.398609e+01   6.494122e+01
  -5.409740e+01   9.020881e+01
  -8.689545e+01   7.644637e+01
  -1.266751e+02  -1.822735e+01
  -1.114752e+02  -1.490350e+02
  -1.955150e+01  -2.156815e+02
   9.999211e+01  -1.545079e+02
   1.606559e+02  -3.444102e+00
   1.140068e+02   1.263527e+02
   1.462845e+00   1.480296e+02
  -7.714694e+01   7.110054e+01
  -6.096138e+01  -2.055972e+01
   7.782373e+00  -5.560199e+01
   3.238323e+01  -3.481143e+01
  -2.242056e+01  -9.755637e+00
  -8.236568e+01  -1.655527e+01
  -4.926592e+01  -3.995946e+01
   7.433248e+01  -3.827601e+01
   1.723027e+02   6.776163e+00
   1.375121e+02   6.831202e+01
  -8.433557e+00   9.760692e+01
  -1.354165e+02   6.761195e+01
  -1.394671e+02  -9.125210e-01
  -3.990271e+01  -5.265079e+01
   5.793067e+01  -4.328086e+01
   7.525218e+01   1.826515e+01
   2.141782e+01   7.269753e+01
  -4.131302e+01   6.526218e+01
  -6.772136e+01   3.167431e+00
  -5.983444e+01  -4.942185e+01
  -4.703422e+01  -4.284203e+01
  -5.061606e+01  -2.602652e+00
  -6.162895e+01  -2.368063e+00
  -4.501164e+01  -7.187165e+01
   2.588215e+01  -1.485535e+02
   1.262640e+02  -1.396336e+02
   1.798757e+02  -2.944823e+01
   1.265144e+02   9.433335e+01
  -1.867828e+00   1.303838e+02
  -9.237249e+01   6.805592e+01
  -6.035974e+01  -9.472268e+00
   5.542255e+01  -1.899371e+01
   1.253642e+02   4.111433e+01
   6.315023e+01   1.022212e+02
  -8.293790e+01   1.010635e+02
  -1.801030e+02   3.512560e+01
  -1.457801e+02  -4.475324e+01
  -2.475797e+01  -8.106136e+01
   6.376344e+01  -5.337407e+01
   4.622126e+01   5.415089e+00
  -3.932451e+01   3.072289e+01
  -8.913860e+01  -1.854487e+01
  -3.946999e+01  -1.094813e+02
   7.234047e+01  -1.483348e+02
   1.470141e+02  -6.882466e+01
   1.194085e+02   8.452161e+01
   1.575354e+01   1.808266e+02
  -7.842461e+01   1.310558e+02
  -9.844656e+01  -1.429777e+01
  -4.823193e+01  -1.162074e+02
   1.864234e+01  -9.621271e+01
   5.167640e+01  -1.105296e+01
   4.006580e+01   3.192632e+01
   1.235679e+01   6.953915e+00
   6.695946e+00  -1.541545e+01
   3.246766e+01   2.288065e+01
   5.453532e+01   8.700285e+01
   2.505955e+01   9.871953e+01
  -5.728907e+01   3.851342e+01
  -1.274168e+02  -3.625833e+01
  -1.128837e+02  -6.693322e+01
  -1.715911e+01  -5.219768e+01
   7.384306e+01  -2.500183e+01
   8.146312e+01  -3.538752e+00
   1.899733e+01   1.279703e+01
  -3.132678e+01   1.955682e+01
  -2.078529e+01   9.895404e+00
   1.155908e+01  -4.454398e+00
  -1.510902e+00  -4.001718e+00
  -6.025836e+01   2.290219e+00
  -8.890743e+01  -2.040824e+01
  -2.534226e+01  -7.742026e+01
   9.846915e+01  -1.133166e+02
   1.804780e+02  -6.557141e+01
   1.495398e+02   5.282712e+01
   3.260507e+01   1.505819e+02
  -7.783597e+01   1.494950e+02
  -1.124019e+02   6.489821e+01
  -7.659374e+01  -1.765121e+01
  -2.567596e+01  -3.734558e+01
  -4.459247e+00  -1.413749e+01
  -1.464520e+01  -9.842192e+00
  -2.735873e+01  -4.841448e+01
  -1.440535e+01  -8.739245e+01
   2.831259e+01  -6.827219e+01
   7.344530e+01   1.318506e+01
   7.687325e+01   9.423022e+01
   1.720084e+01   1.042202e+02
  -6.818743e+01   3.364576e+01
  -1.014144e+02  -5.765235e+01
  -4.130040e+01  -9.785924e+01
   5.982898e+01  -6.469009e+01
   1.013107e+02   5.654455e+00
   4.616179e+01   5.821612e+01
  -3.329545e+01   6.259444e+01
  -4.182662e+01   2.829853e+01
   2.169050e+01  -7.635292e+00
   6.464793e+01  -9.277947e+00
   1.884175e+01   2.680773e+01
  -7.459416e+01   6.196641e+01
  -1.176051e+02   4.820424e+01
  -7.079483e+01  -1.820383e+01
   1.214383e+01  -8.180149e+01
   5.737258e+01  -8.066164e+01
   4.594085e+01  -1.515926e+01
   9.060848e+00   4.823865e+01
  -2.159676e+01   4.803206e+01
  -3.510094e+01  -6.642997e+00
  -2.799551e+01  -5.111581e+01
  -2.435455e-01  -4.060789e+01
   3.182890e+01   3.374067e+00
   4.096965e+01   2.588620e+01
   2.001266e+01   6.144342e+00
  -5.016233e+00  -2.114429e+01
  -6.493732e+00  -1.251447e+01
   7.645194e+00   2.832505e+01
   4.969575e+00   5.296654e+01
  -2.328181e+01   2.631495e+01
  -4.294099e+01  -2.912419e+01
  -1.810873e+01  -5.614632e+01
   3.654065e+01  -2.656132e+01
   6.212981e+01   2.880535e+01
   2.079533e+01   5.628100e+01
  -5.494899e+01   3.532835e+01
  -9.064907e+01  -9.036754e+00
  -4.930007e+01  -4.080300e+01
   2.702479e+01  -4.540072e+01
   6.236728e+01  -2.966863e+01
   2.942073e+01  -7.601083e+00
  -2.350378e+01   5.256179e+00
  -3.012189e+01  -2.470502e+00
   1.921465e+01  -2.177793e+01
   6.948367e+01  -2.047345e+01
