
 $NMID
 id='ANONYMOUS ', fmtdat='(2E16.6)'
 volume=1.0
 tramp=1.0
 $END
  -4.611456e+03  -1.279233e+00
  -2.659590e+03  -2.826641e+03
   8.603716e+02  -2.937131e+03
   2.308747e+03  -8.697522e+02
   9.937434e+02   8.017090e+02
  -7.617685e+02   6.573137e+02
  -9.883045e+02  -4.876038e+02
   1.620810e+01  -1.168249e+03
   9.091203e+02  -8.292458e+02
   1.009385e+03   1.287065e+02
   4.632725e+02   9.426269e+02
  -2.881418e+02   9.524593e+02
  -7.047140e+02   1.099291e+02
  -4.125311e+02  -7.830740e+02
   3.037695e+02  -8.009042e+02
   6.562586e+02   2.159888e+01
   2.737041e+02   7.348427e+02
  -3.697336e+02   6.581786e+02
  -6.250384e+02   6.580949e+01
  -3.933809e+02  -3.936755e+02
   1.603872e+00  -4.644484e+02
   2.679253e+02  -2.743284e+02
   2.390792e+02  -1.158215e+01
  -1.039566e+02   1.075140e+02
  -4.284098e+02  -9.724467e+01
  -2.277644e+02  -4.482187e+02
   4.696772e+02  -4.487474e+02
   9.005295e+02   6.723348e+01
   4.684528e+02   5.882282e+02
  -4.105874e+02   5.309852e+02
  -7.952842e+02  -2.643777e+01
  -3.752199e+02  -5.114215e+02
   2.948363e+02  -5.522695e+02
   5.983650e+02  -2.136753e+02
   4.408674e+02   2.460113e+02
   7.091664e+01   5.120072e+02
  -2.264986e+02   3.094697e+02
  -2.050180e+02  -2.348102e+02
   1.645180e+02  -4.831269e+02
   4.861032e+02   9.657416e-01
   2.791912e+02   7.220689e+02
  -3.374763e+02   7.566422e+02
  -6.594785e+02   7.467255e+00
  -2.877217e+02  -6.008834e+02
   3.161367e+02  -3.545119e+02
   4.227300e+02   3.375753e+02
  -6.457558e+01   5.821525e+02
  -5.849125e+02   1.485755e+02
  -6.233942e+02  -4.267161e+02
  -1.687675e+02  -6.167951e+02
   4.060003e+02  -3.657630e+02
   6.627618e+02   8.101563e+01
   3.911283e+02   4.166335e+02
  -1.716544e+02   3.969290e+02
  -4.795908e+02   5.483593e+01
  -2.573500e+02  -2.265881e+02
   1.371232e+02  -1.258818e+02
   1.640682e+02   1.708146e+02
  -1.756464e+02   2.116646e+02
  -3.752907e+02  -7.893233e+01
  -1.494527e+02  -3.249881e+02
   2.208702e+02  -2.685489e+02
   3.431363e+02  -6.083886e+01
   1.894707e+02   9.216611e+01
  -3.440809e+01   2.142687e+02
  -2.201179e+02   3.208547e+02
  -3.402056e+02   2.275781e+02
  -3.048479e+02  -1.354608e+02
  -8.590296e+01  -4.579782e+02
   1.300804e+02  -4.078105e+02
   1.430440e+02  -1.114578e+02
   3.006777e+01   2.937120e+01
   3.167846e+01  -7.986479e+01
   1.884213e+02  -1.406303e+02
   2.881568e+02   4.311916e+01
   1.734805e+02   2.769626e+02
  -6.797956e+01   2.723123e+02
  -2.371239e+02   1.972746e+01
  -2.113396e+02  -2.447329e+02
   4.171545e+00  -3.078305e+02
   2.744344e+02  -1.276941e+02
   3.772671e+02   1.703801e+02
   1.949686e+02   3.687345e+02
  -1.090896e+02   3.232134e+02
  -2.447880e+02   1.210187e+02
  -1.592190e+02  -6.915083e+00
  -9.590750e+01   2.706982e+01
  -2.306675e+02   6.641502e+01
  -4.050269e+02  -5.560918e+01
  -3.384697e+02  -2.903479e+02
   1.290597e+00  -4.515068e+02
   3.656815e+02  -4.207164e+02
   4.999495e+02  -2.066141e+02
   3.508187e+02   9.385465e+01
   6.178897e+01   3.066825e+02
  -1.381011e+02   2.691579e+02
  -9.589111e+01   3.213692e+01
   1.089613e+02  -1.204281e+02
   2.109909e+02  -9.985865e-01
   6.009761e+01   2.087560e+02
  -1.711374e+02   1.890169e+02
  -1.958254e+02  -6.142648e+01
   1.421880e+01  -2.080065e+02
   2.038241e+02  -3.953162e+01
   1.684727e+02   2.565021e+02
  -3.662532e+01   3.586376e+02
  -2.359342e+02   1.913192e+02
  -3.263739e+02  -6.877406e+01
  -2.790815e+02  -2.409844e+02
  -9.978429e+01  -2.655309e+02
   1.131561e+02  -1.655068e+02
   1.857295e+02  -2.412546e+01
   6.518117e+01   3.552225e+01
  -7.325566e+01  -3.500371e+01
  -3.586897e+01  -1.285859e+02
   1.258569e+02  -1.073152e+02
   1.878010e+02   1.000484e+01
   6.498633e+01   7.662267e+01
  -7.994588e+01   2.164598e+01
  -5.784984e+01  -7.022531e+01
   1.213553e+02  -8.558917e+01
   2.812784e+02  -3.566702e-01
   2.658709e+02   1.378614e+02
   6.506272e+01   2.562886e+02
  -1.834334e+02   2.683727e+02
  -2.913951e+02   1.336198e+02
  -1.801363e+02  -5.316091e+01
   2.298670e+01  -1.178914e+02
   9.771426e+01  -1.199458e+01
  -2.876822e+01   1.066207e+02
  -2.008917e+02   6.532711e+01
  -2.223394e+02  -1.041764e+02
  -7.339403e+01  -2.161366e+02
   9.733088e+01  -1.657754e+02
   1.505958e+02  -3.229944e+01
   7.714077e+01   4.278512e+01
  -2.402482e+01   7.276401e+00
  -3.822706e+01  -7.832151e+01
   6.793030e+01  -1.114906e+02
   1.971122e+02  -3.106175e+01
   1.952718e+02   1.230924e+02
   2.346930e+01   2.233264e+02
  -1.696322e+02   1.698327e+02
  -2.026077e+02   5.520807e+00
  -6.936532e+01  -1.211751e+02
   6.902633e+01  -1.175565e+02
   8.794388e+01  -3.285350e+01
   2.259933e+01   2.608590e+01
  -1.816241e+01   2.020328e+01
   1.086171e+01  -4.294623e+00
   6.814051e+01   1.219005e+01
   8.448720e+01   8.179051e+01
   1.447767e+01   1.557938e+02
  -1.245250e+02   1.523361e+02
  -2.344634e+02   2.837099e+01
  -2.054641e+02  -1.502298e+02
  -4.310294e+01  -2.426515e+02
   1.127100e+02  -1.748317e+02
   1.400966e+02  -2.655756e+01
   7.137112e+01   5.965107e+01
   2.801489e+01   3.837717e+01
   5.376609e+01  -1.140252e+01
   7.904804e+01  -5.506492e+00
   3.854101e+01   4.946213e+01
  -4.453101e+01   8.459917e+01
  -9.982151e+01   5.156975e+01
  -8.098516e+01  -3.510705e+01
   1.400408e+01  -1.067589e+02
   1.385072e+02  -8.420206e+01
   1.961941e+02   4.909597e+01
   1.038438e+02   2.004174e+02
  -1.036503e+02   2.315281e+02
  -2.697043e+02   9.980681e+01
  -2.635218e+02  -8.633248e+01
  -1.134335e+02  -1.809577e+02
   3.922504e+01  -1.513216e+02
   9.754699e+01  -8.617418e+01
   8.302402e+01  -7.035847e+01
   7.018053e+01  -9.121132e+01
   9.454732e+01  -7.329200e+01
   1.289015e+02   2.404634e+01
   1.176682e+02   1.565658e+02
   2.944760e+01   2.288262e+02
  -1.001292e+02   1.750142e+02
  -1.785774e+02   2.224663e+01
  -1.394812e+02  -1.223423e+02
  -2.096890e+01  -1.621016e+02
   6.642815e+01  -9.533653e+01
   5.975856e+01  -3.385012e+00
   6.083600e+00   4.053259e+01
  -7.471932e+00   3.394343e+01
   3.848546e+01   1.966134e+01
   7.891599e+01   2.472674e+01
   4.367375e+01   3.866275e+01
  -6.267824e+01   3.579634e+01
  -1.557986e+02   2.406372e+00
  -1.434733e+02  -5.011435e+01
  -1.790469e+01  -8.688521e+01
   1.191996e+02  -7.359855e+01
   1.462177e+02  -1.439263e+01
   4.922004e+01   3.951908e+01
  -6.119662e+01   3.615160e+01
  -7.602756e+01  -1.989974e+01
  -4.891488e+00  -6.836029e+01
   5.881995e+01  -5.676036e+01
   6.293535e+01   3.623813e+00
   4.138772e+01   5.116704e+01
   4.254097e+01   4.238467e+01
   6.304076e+01   2.651412e+00
   6.691891e+01   9.776563e-01
   3.298710e+01   6.775376e+01
  -3.549737e+01   1.452346e+02
  -1.164147e+02   1.400859e+02
  -1.622634e+02   3.170693e+01
  -1.218604e+02  -9.203339e+01
  -6.469935e+00  -1.255046e+02
   8.592173e+01  -5.957773e+01
   5.993861e+01   1.643964e+01
  -5.992006e+01   1.975007e+01
  -1.391377e+02  -4.492293e+01
  -7.704483e+01  -1.086848e+02
   8.123362e+01  -1.134263e+02
   1.930055e+02  -5.301692e+01
   1.649256e+02   3.334910e+01
   3.859947e+01   8.775589e+01
  -6.087347e+01   7.226279e+01
  -4.934541e+01   8.896449e+00
   3.902795e+01  -2.599088e+01
   9.074983e+01   2.391914e+01
   3.115564e+01   1.206117e+02
  -9.557285e+01   1.548989e+02
  -1.713565e+02   6.037466e+01
  -1.273645e+02  -1.040117e+02
  -8.068739e+00  -2.004749e+02
   8.773728e+01  -1.456773e+02
   1.054407e+02   6.401477e+00
   6.155842e+01   1.186416e+02
   4.239836e-03   1.078222e+02
  -4.501133e+01   2.106126e+01
  -5.360207e+01  -3.136486e+01
  -2.800121e+01  -8.823020e+00
  -3.607715e+00   2.129803e+01
  -1.847717e+01  -1.435300e+01
  -5.509324e+01  -8.936669e+01
  -4.385976e+01  -1.112081e+02
   4.560099e+01  -4.559468e+01
   1.397597e+02   4.118200e+01
   1.320631e+02   7.264974e+01
   1.708757e+01   4.954673e+01
  -9.049112e+01   2.116337e+01
  -8.950573e+01   7.543331e+00
  -9.397896e+00  -6.821393e+00
   3.989011e+01  -2.254467e+01
   1.312747e+01  -1.918740e+01
  -2.299027e+01   1.036284e+00
   6.389714e+00   9.849624e+00
   7.655800e+01   5.415232e+00
   9.171638e+01   2.540235e+01
   4.945760e+00   8.116488e+01
  -1.229427e+02   1.133334e+02
  -1.871061e+02   5.518875e+01
  -1.398628e+02  -7.149972e+01
  -2.298453e+01  -1.641233e+02
   8.091845e+01  -1.488777e+02
   1.152254e+02  -5.612920e+01
   8.100091e+01   2.302186e+01
   2.427662e+01   3.538103e+01
  -4.373588e+00   7.988910e+00
   9.318506e+00   3.371058e+00
   3.335178e+01   4.546657e+01
   2.298200e+01   9.039013e+01
  -3.009949e+01   7.173465e+01
  -8.213497e+01  -2.015224e+01
  -7.599285e+01  -1.113309e+02
  -1.065985e+00  -1.136624e+02
   8.498016e+01  -2.154148e+01
   1.026055e+02   7.935733e+01
   2.939319e+01   1.048577e+02
  -6.832066e+01   5.343771e+01
  -9.715863e+01  -1.415689e+01
  -3.717072e+01  -5.000064e+01
   3.354735e+01  -4.955507e+01
   2.995607e+01  -2.744914e+01
  -3.608119e+01  -7.777959e-01
  -7.006379e+01   5.523423e+00
  -1.391110e+01  -2.506042e+01
   8.051124e+01  -6.560896e+01
   1.154992e+02  -5.861176e+01
   6.228608e+01   1.192263e+01
  -1.735762e+01   8.292363e+01
  -5.324818e+01   7.823003e+01
  -3.584329e+01   3.458141e+00
   2.326012e-01  -5.715433e+01
   2.701475e+01  -4.172593e+01
   3.657394e+01   2.051733e+01
   2.562359e+01   5.470506e+01
  -3.910208e+00   3.159389e+01
  -3.325494e+01  -9.721425e+00
  -3.897462e+01  -2.079869e+01
  -2.049227e+01  -5.658329e-01
  -3.112715e-01   1.314936e+01
   6.493592e+00  -5.259896e+00
   8.989226e+00  -3.801897e+01
   2.054492e+01  -4.369891e+01
   3.410716e+01  -4.653462e+00
   2.807635e+01   4.803119e+01
  -5.797902e+00   6.202316e+01
  -4.617476e+01   1.920507e+01
  -5.523239e+01  -4.167789e+01
  -1.280794e+01  -6.434519e+01
   5.522255e+01  -3.293711e+01
   8.826480e+01   1.765637e+01
   4.838545e+01   4.513140e+01
  -2.969471e+01   3.957250e+01
  -6.551426e+01   1.920305e+01
  -2.350861e+01   3.922508e+00
   3.939969e+01   3.499213e+00
   3.890586e+01   1.801388e+01
  -3.257101e+01   3.247300e+01
  -9.456806e+01   1.884996e+01
