
 $NMID
 id='ANONYMOUS ', fmtdat='(2E16.6)'
 volume=1.0
 tramp=1.0
 $END
  -4.373066e+03  -9.381873e-01
  -2.565690e+03  -2.630234e+03
   7.236693e+02  -2.787757e+03
   2.136600e+03  -9.220922e+02
   9.844011e+02   6.482338e+02
  -6.366929e+02   5.889754e+02
  -8.914777e+02  -4.241969e+02
   3.012537e+00  -1.068754e+03
   8.336898e+02  -7.883262e+02
   9.493341e+02   9.436124e+01
   4.570055e+02   8.717245e+02
  -2.414427e+02   9.021618e+02
  -6.408476e+02   1.223014e+02
  -3.866849e+02  -7.223477e+02
   2.726015e+02  -7.577131e+02
   6.148293e+02   5.328600e+00
   2.763700e+02   6.928206e+02
  -3.307300e+02   6.490889e+02
  -5.982037e+02   9.681696e+01
  -3.985503e+02  -3.588932e+02
  -1.847432e+01  -4.463829e+02
   2.443178e+02  -2.688082e+02
   2.131427e+02  -2.219829e+01
  -1.132364e+02   7.627189e+01
  -4.015171e+02  -1.220908e+02
  -1.905931e+02  -4.307197e+02
   4.647105e+02  -4.030707e+02
   8.493715e+02   8.328102e+01
   4.294804e+02   5.495870e+02
  -3.930303e+02   4.789036e+02
  -7.453748e+02  -4.069951e+01
  -3.453453e+02  -4.849267e+02
   2.870464e+02  -5.181926e+02
   5.721844e+02  -1.998008e+02
   4.202173e+02   2.310923e+02
   7.291543e+01   4.785913e+02
  -1.958622e+02   2.896042e+02
  -1.686073e+02  -2.107410e+02
   1.640168e+02  -4.318754e+02
   4.402637e+02   2.018313e+01
   2.391500e+02   6.816515e+02
  -3.209087e+02   7.046923e+02
  -6.058129e+02   7.485259e+00
  -2.622073e+02  -5.537937e+02
   2.887122e+02  -3.211524e+02
   3.832694e+02   3.240917e+02
  -7.055104e+01   5.487709e+02
  -5.591339e+02   1.341703e+02
  -5.978127e+02  -4.149290e+02
  -1.653679e+02  -5.939925e+02
   3.867761e+02  -3.486010e+02
   6.359530e+02   7.760920e+01
   3.808915e+02   3.892422e+02
  -1.514508e+02   3.695004e+02
  -4.479475e+02   5.915142e+01
  -2.502099e+02  -1.959658e+02
   1.143930e+02  -1.106331e+02
   1.465405e+02   1.510272e+02
  -1.623179e+02   1.879151e+02
  -3.506832e+02  -7.317748e+01
  -1.450206e+02  -3.029458e+02
   2.089424e+02  -2.631642e+02
   3.406183e+02  -7.113280e+01
   1.989906e+02   9.269453e+01
  -3.295901e+01   2.282175e+02
  -2.300010e+02   3.242566e+02
  -3.415659e+02   2.152945e+02
  -2.916542e+02  -1.384887e+02
  -7.954355e+01  -4.396128e+02
   1.153323e+02  -3.914227e+02
   1.245169e+02  -1.197540e+02
   3.092750e+01   9.337473e+00
   4.733857e+01  -8.393531e+01
   1.957910e+02  -1.262135e+02
   2.783150e+02   5.446742e+01
   1.593105e+02   2.716696e+02
  -7.158632e+01   2.579500e+02
  -2.279874e+02   1.031541e+01
  -1.977449e+02  -2.425567e+02
   1.092769e+01  -2.963192e+02
   2.678322e+02  -1.165120e+02
   3.633427e+02   1.695954e+02
   1.890423e+02   3.553612e+02
  -9.993148e+01   3.119655e+02
  -2.315261e+02   1.248026e+02
  -1.564800e+02   5.746394e+00
  -1.030890e+02   3.258391e+01
  -2.357452e+02   6.091864e+01
  -4.021940e+02  -6.182449e+01
  -3.322783e+02  -2.895638e+02
   5.584853e+00  -4.454714e+02
   3.656257e+02  -4.127171e+02
   4.927962e+02  -1.990779e+02
   3.380597e+02   9.443742e+01
   5.458525e+01   2.957118e+02
  -1.305110e+02   2.560880e+02
  -8.265237e+01   3.280961e+01
   1.091624e+02  -1.072298e+02
   1.969857e+02   4.816256e+00
   5.174471e+01   1.968694e+02
  -1.615889e+02   1.747353e+02
  -1.811985e+02  -5.956543e+01
   1.628150e+01  -1.946665e+02
   1.956181e+02  -3.309823e+01
   1.640746e+02   2.513109e+02
  -3.443575e+01   3.530719e+02
  -2.352704e+02   1.917473e+02
  -3.282664e+02  -6.786550e+01
  -2.762166e+02  -2.428452e+02
  -9.247570e+01  -2.648100e+02
   1.148737e+02  -1.600295e+02
   1.789256e+02  -2.090853e+01
   6.010649e+01   3.199959e+01
  -6.911510e+01  -3.877664e+01
  -2.934422e+01  -1.251960e+02
   1.246310e+02  -9.997479e+01
   1.799424e+02   1.274464e+01
   5.925300e+01   7.274103e+01
  -7.957586e+01   1.605898e+01
  -5.418683e+01  -7.325687e+01
   1.248057e+02  -8.490166e+01
   2.821013e+02   3.778254e+00
   2.619604e+02   1.423462e+02
   5.819014e+01   2.552617e+02
  -1.861419e+02   2.603957e+02
  -2.856784e+02   1.262747e+02
  -1.720676e+02  -5.184876e+01
   2.397508e+01  -1.107711e+02
   9.175848e+01  -9.224529e+00
  -3.242834e+01   1.015381e+02
  -1.968056e+02   5.944688e+01
  -2.149588e+02  -1.036557e+02
  -6.971385e+01  -2.100842e+02
   9.544787e+01  -1.595515e+02
   1.454147e+02  -2.939694e+01
   7.164090e+01   4.148633e+01
  -2.659011e+01   2.657225e+00
  -3.592372e+01  -8.267016e+01
   7.224294e+01  -1.113960e+02
   1.977436e+02  -2.740638e+01
   1.913257e+02   1.243476e+02
   2.079251e+01   2.192391e+02
  -1.664766e+02   1.650778e+02
  -1.966018e+02   5.973231e+00
  -6.642481e+01  -1.161449e+02
   6.747015e+01  -1.129530e+02
   8.444977e+01  -3.118029e+01
   1.900284e+01   2.563260e+01
  -2.100345e+01   1.813403e+01
   1.056966e+01  -7.607911e+00
   7.087704e+01   1.011897e+01
   8.689373e+01   8.300822e+01
   1.338223e+01   1.577891e+02
  -1.268080e+02   1.509717e+02
  -2.332844e+02   2.468671e+01
  -2.013662e+02  -1.508349e+02
  -4.128737e+01  -2.385577e+02
   1.103520e+02  -1.708077e+02
   1.373204e+02  -2.676783e+01
   7.111594e+01   5.689229e+01
   2.867259e+01   3.668165e+01
   5.368335e+01  -1.166786e+01
   7.983366e+01  -5.500368e+00
   4.094104e+01   5.050713e+01
  -4.374886e+01   8.733331e+01
  -1.029040e+02   5.346537e+01
  -8.440711e+01  -3.663856e+01
   1.478871e+01  -1.096085e+02
   1.417141e+02  -8.409062e+01
   1.960672e+02   5.189819e+01
   9.947763e+01   2.010777e+02
  -1.067603e+02   2.278112e+02
  -2.674084e+02   9.543412e+01
  -2.581227e+02  -8.685212e+01
  -1.097836e+02  -1.778057e+02
   3.934434e+01  -1.478520e+02
   9.547811e+01  -8.429043e+01
   8.037779e+01  -6.959719e+01
   6.794644e+01  -9.093187e+01
   9.332614e+01  -7.355741e+01
   1.283147e+02   2.319922e+01
   1.166699e+02   1.551457e+02
   2.826542e+01   2.265326e+02
  -9.970805e+01   1.720261e+02
  -1.757878e+02   1.996823e+01
  -1.359577e+02  -1.223764e+02
  -1.858544e+01  -1.598348e+02
   6.746942e+01  -9.203842e+01
   5.966181e+01  -3.978658e-01
   4.291752e+00   4.225773e+01
  -1.055977e+01   3.387305e+01
   3.641842e+01   1.829642e+01
   7.917971e+01   2.362305e+01
   4.426812e+01   3.872803e+01
  -6.396765e+01   3.599237e+01
  -1.574191e+02   1.247405e+00
  -1.423014e+02  -5.218433e+01
  -1.455457e+01  -8.789388e+01
   1.208660e+02  -7.263991e+01
   1.449267e+02  -1.251899e+01
   4.789077e+01   4.100542e+01
  -6.064032e+01   3.698332e+01
  -7.574418e+01  -1.961197e+01
  -6.955471e+00  -6.878289e+01
   5.648561e+01  -5.776168e+01
   6.339534e+01   2.759133e+00
   4.361231e+01   5.086748e+01
   4.300531e+01   4.233149e+01
   6.132174e+01   2.568898e+00
   6.607639e+01   1.104677e+00
   3.441460e+01   6.812341e+01
  -3.415976e+01   1.453170e+02
  -1.172876e+02   1.396676e+02
  -1.640204e+02   3.133552e+01
  -1.221479e+02  -9.205158e+01
  -5.437982e+00  -1.257518e+02
   8.651252e+01  -6.048969e+01
   5.986575e+01   1.550414e+01
  -5.918979e+01   1.964238e+01
  -1.370795e+02  -4.422580e+01
  -7.516810e+01  -1.075104e+02
   8.114555e+01  -1.116051e+02
   1.907980e+02  -5.075834e+01
   1.620668e+02   3.455625e+01
   3.682354e+01   8.662201e+01
  -6.097822e+01   6.972137e+01
  -4.876840e+01   7.112309e+00
   3.897048e+01  -2.652794e+01
   9.033856e+01   2.314437e+01
   3.219992e+01   1.189215e+02
  -9.233336e+01   1.537922e+02
  -1.678697e+02   6.142696e+01
  -1.261452e+02  -1.012232e+02
  -9.156071e+00  -1.975153e+02
   8.623343e+01  -1.435321e+02
   1.042615e+02   7.307672e+00
   5.978217e+01   1.179530e+02
  -2.245789e+00   1.060171e+02
  -4.568199e+01   1.974559e+01
  -5.177712e+01  -3.128260e+01
  -2.598047e+01  -8.497516e+00
  -3.954898e+00   2.049592e+01
  -2.015266e+01  -1.542738e+01
  -5.492045e+01  -8.881367e+01
  -4.147978e+01  -1.092673e+02
   4.690037e+01  -4.456231e+01
   1.378816e+02   4.036027e+01
   1.293645e+02   7.162356e+01
   1.706007e+01   4.974216e+01
  -8.817683e+01   2.168328e+01
  -8.824661e+01   7.085415e+00
  -1.055456e+01  -7.583304e+00
   3.869445e+01  -2.215815e+01
   1.400947e+01  -1.795080e+01
  -2.151195e+01   1.512180e+00
   5.787872e+00   9.071591e+00
   7.434811e+01   4.348095e+00
   9.115185e+01   2.466644e+01
   7.528574e+00   8.055703e+01
  -1.195157e+02   1.131699e+02
  -1.858033e+02   5.643649e+01
  -1.408018e+02  -6.895989e+01
  -2.423874e+01  -1.620250e+02
   8.026744e+01  -1.486050e+02
   1.145812e+02  -5.713189e+01
   8.026511e+01   2.224312e+01
   2.439367e+01   3.553008e+01
  -3.276862e+00   8.771630e+00
   9.937675e+00   4.188185e+00
   3.252016e+01   4.568133e+01
   2.189306e+01   8.973718e+01
  -2.975746e+01   7.113069e+01
  -8.086525e+01  -1.916496e+01
  -7.600796e+01  -1.088739e+02
  -3.158968e+00  -1.122419e+02
   8.269282e+01  -2.309308e+01
   1.022968e+02   7.639083e+01
   3.087046e+01   1.037399e+02
  -6.710075e+01   5.476191e+01
  -9.745961e+01  -1.303544e+01
  -3.818591e+01  -5.091680e+01
   3.345781e+01  -5.106960e+01
   3.135556e+01  -2.745025e+01
  -3.421741e+01   3.436470e-01
  -6.921397e+01   6.024658e+00
  -1.449421e+01  -2.522636e+01
   7.952158e+01  -6.503253e+01
   1.153988e+02  -5.719044e+01
   6.316805e+01   1.268578e+01
  -1.662488e+01   8.259110e+01
  -5.360442e+01   7.833303e+01
  -3.705465e+01   4.888770e+00
  -9.849993e-01  -5.592326e+01
   2.627390e+01  -4.243538e+01
   3.635265e+01   1.870854e+01
   2.588656e+01   5.411158e+01
  -3.402052e+00   3.265553e+01
  -3.301631e+01  -8.884144e+00
  -3.911059e+01  -2.137357e+01
  -2.035789e+01  -1.252953e+00
   3.312546e-01   1.413500e+01
   6.408568e+00  -3.024623e+00
   6.834322e+00  -3.677132e+01
   1.731696e+01  -4.484598e+01
   3.274187e+01  -7.404238e+00
   2.995035e+01   4.558427e+01
  -2.746833e+00   6.121585e+01
  -4.486828e+01   2.012783e+01
  -5.601344e+01  -3.996304e+01
  -1.382736e+01  -6.319209e+01
   5.503992e+01  -3.317115e+01
   8.836971e+01   1.650778e+01
   4.840548e+01   4.445678e+01
  -2.928966e+01   4.021860e+01
  -6.498015e+01   2.049789e+01
  -2.419874e+01   4.359166e+00
   3.734115e+01   2.320973e+00
   3.776901e+01   1.597482e+01
  -3.076260e+01   3.111120e+01
  -9.118017e+01   1.913167e+01
