
 $NMID
 id='ANONYMOUS ', fmtdat='(2E16.6)'
 volume=1.0
 tramp=1.0
 $END
   4.224693e+03   4.179035e+01
   2.466277e+03   2.526453e+03
  -6.730641e+02   2.665565e+03
  -2.019774e+03   9.125136e+02
  -9.414473e+02  -5.626331e+02
   5.809384e+02  -5.231251e+02
   8.224477e+02   4.078214e+02
  -1.545148e+01   1.007612e+03
  -7.964277e+02   7.480029e+02
  -9.051706e+02  -8.646504e+01
  -4.378790e+02  -8.297737e+02
   2.241717e+02  -8.610390e+02
   6.005489e+02  -1.156315e+02
   3.593799e+02   6.912364e+02
  -2.622412e+02   7.247289e+02
  -5.860739e+02  -4.243551e+00
  -2.689372e+02  -6.656056e+02
   3.084568e+02  -6.331365e+02
   5.735939e+02  -1.085048e+02
   3.924655e+02   3.362324e+02
   2.628664e+01   4.299244e+02
  -2.310039e+02   2.598956e+02
  -1.958172e+02   2.244956e+01
   1.245100e+02  -6.177758e+01
   3.913026e+02   1.395874e+02
   1.672372e+02   4.272020e+02
  -4.689674e+02   3.771141e+02
  -8.219166e+02  -1.004680e+02
  -3.995122e+02  -5.339295e+02
   3.921902e+02  -4.460693e+02
   7.185601e+02   5.718514e+01
   3.232039e+02   4.742178e+02
  -2.876798e+02   4.966287e+02
  -5.579981e+02   1.872182e+02
  -4.044659e+02  -2.254503e+02
  -6.744743e+01  -4.577900e+02
   1.822741e+02  -2.712154e+02
   1.435839e+02   2.047224e+02
  -1.733251e+02   4.029103e+02
  -4.181963e+02  -3.941155e+01
  -2.095614e+02  -6.652258e+02
   3.202262e+02  -6.708097e+02
   5.742833e+02   2.947998e+00
   2.382963e+02   5.310678e+02
  -2.793566e+02   2.964635e+02
  -3.583300e+02  -3.231654e+02
   7.931532e+01  -5.299049e+02
   5.455496e+02  -1.216838e+02
   5.798435e+02   4.106163e+02
   1.593574e+02   5.792018e+02
  -3.774978e+02   3.345527e+02
  -6.180193e+02  -7.958557e+01
  -3.684993e+02  -3.739324e+02
   1.451056e+02  -3.489482e+02
   4.277522e+02  -5.529271e+01
   2.387764e+02   1.795958e+02
  -1.049032e+02   9.714192e+01
  -1.324468e+02  -1.433281e+02
   1.592871e+02  -1.718247e+02
   3.347854e+02   7.430511e+01
   1.378396e+02   2.903042e+02
  -2.019916e+02   2.569137e+02
  -3.350149e+02   7.671851e+01
  -2.034624e+02  -8.972370e+01
   2.813225e+01  -2.342589e+02
   2.323273e+02  -3.274203e+02
   3.427359e+02  -2.090671e+02
   2.843194e+02   1.415261e+02
   7.292707e+01   4.288867e+02
  -1.094704e+02   3.777596e+02
  -1.117954e+02   1.197099e+02
  -2.667733e+01   1.636877e+00
  -5.422762e+01   8.940655e+01
  -2.016385e+02   1.202213e+02
  -2.744699e+02  -6.161433e+01
  -1.506228e+02  -2.702587e+02
   7.563479e+01  -2.500884e+02
   2.241243e+02  -3.880582e+00
   1.897947e+02   2.426952e+02
  -1.617934e+01   2.903139e+02
  -2.651939e+02   1.093121e+02
  -3.544877e+02  -1.704003e+02
  -1.829934e+02  -3.472676e+02
   9.618338e+01  -3.026570e+02
   2.220843e+02  -1.238720e+02
   1.513347e+02  -1.229585e+01
   1.050278e+02  -3.730961e+01
   2.383383e+02  -5.958580e+01
   4.003030e+02   6.422492e+01
   3.280531e+02   2.880998e+02
  -7.843914e+00   4.410523e+02
  -3.643359e+02   4.075332e+02
  -4.876589e+02   1.939707e+02
  -3.300300e+02  -9.615320e+01
  -4.889213e+01  -2.898969e+02
   1.280323e+02  -2.465429e+02
   7.495807e+01  -3.023079e+01
  -1.114144e+02   1.000724e+02
  -1.899159e+02  -1.047513e+01
  -4.494141e+01  -1.913311e+02
   1.584439e+02  -1.645990e+02
   1.722904e+02   6.106786e+01
  -1.974638e+01   1.871386e+02
  -1.916585e+02   2.824457e+01
  -1.605117e+02  -2.478058e+02
   3.328655e+01  -3.479675e+02
   2.330595e+02  -1.915950e+02
   3.276410e+02   6.560102e+01
   2.744969e+02   2.424298e+02
   8.878739e+01   2.644975e+02
  -1.159739e+02   1.570730e+02
  -1.750952e+02   1.809227e+01
  -5.640660e+01  -3.094562e+01
   6.755573e+01   4.132083e+01
   2.534503e+01   1.241757e+02
  -1.247313e+02   9.568465e+01
  -1.755417e+02  -1.537840e+01
  -5.525117e+01  -7.144724e+01
   8.021212e+01  -1.317369e+01
   5.289194e+01   7.517290e+01
  -1.259127e+02   8.528853e+01
  -2.820934e+02  -4.896851e+00
  -2.600468e+02  -1.441065e+02
  -5.480430e+01  -2.548401e+02
   1.876763e+02  -2.560597e+02
   2.825140e+02  -1.213209e+02
   1.667883e+02   5.220930e+01
  -2.566755e+01   1.067403e+02
  -8.874553e+01   6.628848e+00
   3.505970e+01  -9.927199e+01
   1.948196e+02  -5.570180e+01
   2.101724e+02   1.038893e+02
   6.667699e+01   2.064535e+02
  -9.490530e+01   1.553177e+02
  -1.425144e+02   2.697326e+01
  -6.819578e+01  -4.162755e+01
   2.886807e+01  -8.603278e-01
   3.577169e+01   8.498399e+01
  -7.385168e+01   1.120010e+02
  -1.978474e+02   2.608350e+01
  -1.889502e+02  -1.247086e+02
  -1.900916e+01  -2.165275e+02
   1.645523e+02  -1.615245e+02
   1.923142e+02  -5.416291e+00
   6.374118e+01   1.133648e+02
  -6.701321e+01   1.097997e+02
  -8.246152e+01   2.959824e+01
  -1.697435e+01  -2.602846e+01
   2.282471e+01  -1.765981e+01
  -9.580881e+00   9.294927e+00
  -7.153513e+01  -8.124785e+00
  -8.827385e+01  -8.242388e+01
  -1.367688e+01  -1.582734e+02
   1.272364e+02  -1.504100e+02
   2.322655e+02  -2.305755e+01
   1.987931e+02   1.507228e+02
   3.991746e+01   2.354866e+02
  -1.089454e+02   1.676233e+02
  -1.350333e+02   2.653483e+01
  -7.017145e+01  -5.498399e+01
  -2.860457e+01  -3.536036e+01
  -5.327595e+01   1.189731e+01
  -7.983838e+01   5.895558e+00
  -4.240643e+01  -5.013580e+01
   4.222165e+01  -8.830680e+01
   1.034307e+02  -5.522821e+01
   8.626751e+01   3.622673e+01
  -1.414216e+01   1.108016e+02
  -1.424786e+02   8.478380e+01
  -1.958262e+02  -5.255252e+01
  -9.743608e+01  -2.011207e+02
   1.080285e+02  -2.257459e+02
   2.655662e+02  -9.293760e+01
   2.543600e+02   8.713531e+01
   1.071275e+02   1.757449e+02
  -3.954979e+01   1.454237e+02
  -9.407614e+01   8.269257e+01
  -7.853294e+01   6.848970e+01
  -6.620622e+01   9.003008e+01
  -9.192649e+01   7.334114e+01
  -1.272432e+02  -2.237280e+01
  -1.157136e+02  -1.534892e+02
  -2.767113e+01  -2.243722e+02
   9.914194e+01  -1.697958e+02
   1.738925e+02  -1.856331e+01
   1.337964e+02   1.221729e+02
   1.720200e+01   1.583246e+02
  -6.815742e+01   9.027610e+01
  -5.999583e+01  -1.028200e+00
  -3.843930e+00  -4.336014e+01
   1.205831e+01  -3.440605e+01
  -3.488426e+01  -1.784129e+01
  -7.874658e+01  -2.261527e+01
  -4.449796e+01  -3.829779e+01
   6.417847e+01  -3.640964e+01
   1.577582e+02  -1.481801e+00
   1.416062e+02   5.285324e+01
   1.320529e+01   8.871381e+01
  -1.211452e+02   7.252360e+01
  -1.439108e+02   1.161356e+01
  -4.741335e+01  -4.174707e+01
   5.973934e+01  -3.730078e+01
   7.521191e+01   1.919301e+01
   8.325370e+00   6.817191e+01
  -5.455848e+01   5.764646e+01
  -6.313521e+01  -1.985725e+00
  -4.466489e+01  -4.981240e+01
  -4.315642e+01  -4.185409e+01
  -6.009336e+01  -2.716417e+00
  -6.533313e+01  -1.155602e+00
  -3.529596e+01  -6.754850e+01
   3.281299e+01  -1.444379e+02
   1.168332e+02  -1.393125e+02
   1.641264e+02  -3.189006e+01
   1.219813e+02   9.116139e+01
   5.307308e+00   1.254773e+02
  -8.600113e+01   6.107501e+01
  -5.936336e+01  -1.476253e+01
   5.847196e+01  -1.950303e+01
   1.352824e+02   4.368398e+01
   7.386098e+01   1.065500e+02
  -8.076792e+01   1.103136e+02
  -1.890377e+02   4.939030e+01
  -1.601261e+02  -3.517956e+01
  -3.570538e+01  -8.588211e+01
   6.109702e+01  -6.823752e+01
   4.860577e+01  -6.148136e+00
  -3.854166e+01   2.678821e+01
  -8.956537e+01  -2.243357e+01
  -3.257437e+01  -1.170951e+02
   8.993357e+01  -1.519840e+02
   1.647541e+02  -6.140040e+01
   1.245453e+02   9.912967e+01
   9.619889e+00   1.946855e+02
  -8.505454e+01   1.416018e+02
  -1.033471e+02  -7.700697e+00
  -5.874816e+01  -1.172231e+02
   3.515177e+00  -1.050533e+02
   4.605101e+01  -1.924315e+01
   5.062851e+01   3.134118e+01
   2.473028e+01   8.664515e+00
   4.239817e+00  -2.005979e+01
   2.123529e+01   1.547578e+01
   5.470306e+01   8.794884e+01
   3.990306e+01   1.081102e+02
  -4.745582e+01   4.423448e+01
  -1.361357e+02  -3.972785e+01
  -1.272749e+02  -7.094113e+01
  -1.715871e+01  -4.955237e+01
   8.632415e+01  -2.159409e+01
   8.722239e+01  -6.791175e+00
   1.131380e+01   7.653049e+00
  -3.788744e+01   2.168865e+01
  -1.463557e+01   1.744997e+01
   2.050669e+01  -1.485548e+00
  -5.289615e+00  -8.733239e+00
  -7.257468e+01  -4.036134e+00
  -9.030683e+01  -2.400124e+01
  -8.971707e+00  -7.922003e+01
   1.167908e+02  -1.121052e+02
   1.837288e+02  -5.709326e+01
   1.402322e+02   6.661992e+01
   2.480375e+01   1.597441e+02
  -7.912709e+01   1.478202e+02
  -1.132642e+02   5.758616e+01
  -7.936599e+01  -2.163996e+01
  -2.447819e+01  -3.533065e+01
   2.472272e+00  -8.902864e+00
  -1.041679e+01  -4.428946e+00
  -3.210695e+01  -4.565824e+01
  -2.133343e+01  -8.912605e+01
   2.934681e+01  -7.047002e+01
   7.962251e+01   1.858664e+01
   7.541194e+01   1.067906e+02
   4.275592e+00   1.104415e+02
  -8.064142e+01   2.353387e+01
  -1.011815e+02  -7.419146e+01
  -3.156549e+01  -1.021978e+02
   6.564791e+01  -5.512062e+01
   9.691870e+01   1.200598e+01
   3.890157e+01   5.080023e+01
  -3.274017e+01   5.170250e+01
  -3.185782e+01   2.773112e+01
   3.280033e+01  -6.165622e-01
   6.828558e+01  -6.279843e+00
   1.484746e+01   2.501103e+01
  -7.853226e+01   6.442208e+01
  -1.149207e+02   5.648439e+01
  -6.353595e+01  -1.263145e+01
   1.597467e+01  -8.188773e+01
   5.326207e+01  -7.824509e+01
   3.717134e+01  -6.015266e+00
   1.517389e+00   5.471022e+01
  -2.545692e+01   4.251268e+01
  -3.569850e+01  -1.759379e+01
  -2.592859e+01  -5.338760e+01
   2.771894e+00  -3.295113e+01
   3.256141e+01   8.348264e+00
   3.918575e+01   2.142088e+01
   2.034638e+01   1.579491e+00
  -9.397174e-01  -1.444006e+01
  -6.833453e+00   1.823187e+00
  -5.828282e+00   3.545442e+01
  -1.511657e+01   4.454722e+01
  -3.120237e+01   8.616530e+00
  -3.037732e+01  -4.353770e+01
   1.109270e+00  -5.979367e+01
   4.367856e+01  -2.035722e+01
   5.588071e+01   3.850268e+01
   1.423094e+01   6.199005e+01
  -5.451361e+01   3.325845e+01
  -8.777438e+01  -1.551952e+01
  -4.815829e+01  -4.372385e+01
   2.865729e+01  -4.035938e+01
   6.401430e+01  -2.116161e+01
   2.433156e+01  -4.801756e+00
  -3.580036e+01  -2.039574e+00
  -3.656064e+01  -1.495644e+01
   2.986514e+01  -2.991484e+01
   8.880492e+01  -1.869243e+01
