
 $NMID
 id='ANONYMOUS ', fmtdat='(2E16.6)'
 volume=1.0
 tramp=1.0
 $END
  -4.042877e+03   5.245833e+00
  -2.433550e+03  -2.334583e+03
   5.138078e+02  -2.558032e+03
   1.862107e+03  -1.000657e+03
   9.502788e+02   4.035773e+02
  -4.566136e+02   4.665631e+02
  -7.398157e+02  -3.405101e+02
  -8.548595e+00  -9.208193e+02
   7.226761e+02  -7.256101e+02
   8.576277e+02   4.274560e+01
   4.467519e+02   7.643803e+02
  -1.702637e+02   8.242747e+02
  -5.426518e+02   1.362424e+02
  -3.457073e+02  -6.353641e+02
   2.261961e+02  -6.938739e+02
   5.521553e+02  -1.870408e+01
   2.828705e+02   6.291373e+02
  -2.658067e+02   6.361082e+02
  -5.528396e+02   1.480522e+02
  -4.068876e+02  -3.009548e+02
  -5.195335e+01  -4.171359e+02
   2.072767e+02  -2.604459e+02
   1.718492e+02  -3.558809e+01
  -1.353307e+02   3.246777e+01
  -3.714496e+02  -1.625054e+02
  -1.366788e+02  -4.139201e+02
   4.666341e+02  -3.415246e+02
   7.829555e+02   1.090649e+02
   3.714512e+02   4.979453e+02
  -3.752217e+02   4.039014e+02
  -6.788678e+02  -6.455886e+01
  -3.027366e+02  -4.505344e+02
   2.783582e+02  -4.723572e+02
   5.372547e+02  -1.820780e+02
   3.917202e+02   2.089367e+02
   7.547780e+01   4.295058e+02
  -1.507335e+02   2.566887e+02
  -1.107604e+02  -1.818695e+02
   1.710862e+02  -3.585754e+02
   3.782169e+02   5.507538e+01
   1.792457e+02   6.315590e+02
  -3.005833e+02   6.311309e+02
  -5.279219e+02   3.220050e+00
  -2.214982e+02  -4.882097e+02
   2.523129e+02  -2.697598e+02
   3.269755e+02   3.102539e+02
  -8.062556e+01   5.045035e+02
  -5.258183e+02   1.149298e+02
  -5.668003e+02  -3.979008e+02
  -1.647586e+02  -5.624071e+02
   3.595562e+02  -3.261086e+02
   6.004519e+02   7.024728e+01
   3.674455e+02   3.471590e+02
  -1.228085e+02   3.275137e+02
  -4.009611e+02   6.517025e+01
  -2.366944e+02  -1.482737e+02
   8.230683e+01  -8.400772e+01
   1.179844e+02   1.238777e+02
  -1.462337e+02   1.518568e+02
  -3.153412e+02  -6.582709e+01
  -1.384794e+02  -2.704415e+02
   1.897599e+02  -2.573462e+02
   3.361963e+02  -9.220572e+01
   2.170992e+02   8.902619e+01
  -2.413572e+01   2.520864e+02
  -2.417703e+02   3.383883e+02
  -3.466563e+02   2.036163e+02
  -2.766537e+02  -1.434025e+02
  -7.236332e+01  -4.155207e+02
   9.175027e+01  -3.675989e+02
   9.304221e+01  -1.309616e+02
   2.768903e+01  -2.235230e+01
   6.981758e+01  -9.563033e+01
   2.107363e+02  -1.097381e+02
   2.692198e+02   7.089286e+01
   1.414932e+02   2.670962e+02
  -7.758049e+01   2.399757e+02
  -2.180801e+02  -3.085668e+00
  -1.815156e+02  -2.418405e+02
   1.997471e+01  -2.830039e+02
   2.610836e+02  -1.025585e+02
   3.473756e+02   1.679898e+02
   1.835253e+02   3.365111e+02
  -8.478797e+01   2.965591e+02
  -2.102525e+02   1.319573e+02
  -1.504156e+02   2.710107e+01
  -1.133197e+02   4.476677e+01
  -2.462452e+02   5.771793e+01
  -4.039411e+02  -6.675729e+01
  -3.298180e+02  -2.875896e+02
   7.175728e+00  -4.413262e+02
   3.647306e+02  -4.094989e+02
   4.851097e+02  -1.947501e+02
   3.228927e+02   9.435368e+01
   4.556778e+01   2.823665e+02
  -1.193671e+02   2.381888e+02
  -6.219966e+01   3.208342e+01
   1.121663e+02  -8.939579e+01
   1.785654e+02   1.444661e+01
   3.921756e+01   1.815278e+02
  -1.492017e+02   1.541860e+02
  -1.605701e+02  -5.817000e+01
   2.006048e+01  -1.764929e+02
   1.857778e+02  -2.427955e+01
   1.611930e+02   2.442025e+02
  -2.748311e+01   3.476246e+02
  -2.334285e+02   1.975006e+02
  -3.349877e+02  -6.171675e+01
  -2.783720e+02  -2.445554e+02
  -8.573705e+01  -2.665561e+02
   1.175730e+02  -1.551269e+02
   1.704888e+02  -1.707276e+01
   5.237586e+01   2.719386e+01
  -6.483668e+01  -4.499150e+01
  -2.050181e+01  -1.222672e+02
   1.242086e+02  -9.104258e+01
   1.702595e+02   1.639504e+01
   5.100906e+01   6.792720e+01
  -8.088242e+01   8.624755e+00
  -5.084180e+01  -7.873906e+01
   1.302102e+02  -8.732826e+01
   2.870437e+02   5.827306e+00
   2.615205e+02   1.476846e+02
   5.159665e+01   2.568471e+02
  -1.901601e+02   2.538377e+02
  -2.793656e+02   1.188534e+02
  -1.615585e+02  -4.973584e+01
   2.585477e+01  -1.013331e+02
   8.390446e+01  -4.889631e+00
  -3.816231e+01   9.597074e+01
  -1.928417e+02   5.277252e+01
  -2.068784e+02  -1.024347e+02
  -6.625607e+01  -2.024878e+02
   9.257348e+01  -1.522987e+02
   1.389863e+02  -2.603262e+01
   6.405126e+01   4.015392e+01
  -3.192750e+01  -3.453920e+00
  -3.499107e+01  -9.021588e+01
   7.796333e+01  -1.144175e+02
   2.010340e+02  -2.508321e+01
   1.891121e+02   1.255681e+02
   1.907161e+01   2.152551e+02
  -1.618271e+02   1.608962e+02
  -1.888730e+02   8.159410e+00
  -6.294173e+01  -1.091416e+02
   6.513714e+01  -1.074551e+02
   7.975017e+01  -2.925368e+01
   1.386182e+01   2.577690e+01
  -2.585176e+01   1.610839e+01
   9.273559e+00  -1.290551e+01
   7.540714e+01   5.258938e+00
   9.296285e+01   8.376359e+01
   1.465024e+01   1.624022e+02
  -1.296037e+02   1.526900e+02
  -2.341369e+02   2.237154e+01
  -1.992407e+02  -1.511765e+02
  -4.137666e+01  -2.342204e+02
   1.061605e+02  -1.671764e+02
   1.338144e+02  -2.869083e+01
   7.152869e+01   5.213440e+01
   3.007891e+01   3.379389e+01
   5.380559e+01  -1.296489e+01
   8.170237e+01  -6.925389e+00
   4.605333e+01   5.138309e+01
  -4.095270e+01   9.283204e+01
  -1.073610e+02   5.919700e+01
  -9.141784e+01  -3.724123e+01
   1.379981e+01  -1.154495e+02
   1.467635e+02  -8.759510e+01
   1.991330e+02   5.383555e+01
   9.676644e+01   2.035479e+02
  -1.100992e+02   2.264873e+02
  -2.659572e+02   9.292620e+01
  -2.535223e+02  -8.595606e+01
  -1.069816e+02  -1.738130e+02
   3.855313e+01  -1.444323e+02
   9.235371e+01  -8.304176e+01
   7.615800e+01  -6.958808e+01
   6.381515e+01  -9.178340e+01
   9.112199e+01  -7.572635e+01
   1.287104e+02   2.033233e+01
   1.181418e+02   1.528708e+02
   2.948881e+01   2.249160e+02
  -9.814960e+01   1.703385e+02
  -1.733342e+02   1.853497e+01
  -1.335604e+02  -1.224021e+02
  -1.686933e+01  -1.580938e+02
   6.915456e+01  -8.902337e+01
   6.079558e+01   3.371744e+00
   2.608454e+00   4.570481e+01
  -1.496314e+01   3.500033e+01
   3.347438e+01   1.631791e+01
   8.038909e+01   2.088112e+01
   4.618808e+01   3.837609e+01
  -6.596916e+01   3.789926e+01
  -1.616435e+02   2.206976e+00
  -1.430752e+02  -5.404847e+01
  -1.104671e+01  -9.088143e+01
   1.237148e+02  -7.403010e+01
   1.445275e+02  -1.156024e+01
   4.724577e+01   4.330599e+01
  -5.957291e+01   3.937641e+01
  -7.621657e+01  -1.828756e+01
  -1.135242e+01  -6.944932e+01
   5.226842e+01  -6.010277e+01
   6.451419e+01   3.836320e-01
   4.814680e+01   4.966339e+01
   4.473600e+01   4.187979e+01
   5.923111e+01   1.980022e+00
   6.542035e+01   5.383972e-01
   3.805136e+01   6.845154e+01
  -3.021164e+01   1.469478e+02
  -1.177397e+02   1.422580e+02
  -1.678730e+02   3.392493e+01
  -1.250851e+02  -9.103095e+01
  -5.819260e+00  -1.274611e+02
   8.709235e+01  -6.389326e+01
   6.029721e+01   1.332054e+01
  -5.833140e+01   2.035371e+01
  -1.356215e+02  -4.202025e+01
  -7.424910e+01  -1.060186e+02
   8.054299e+01  -1.109837e+02
   1.889219e+02  -5.000577e+01
   1.599249e+02   3.504621e+01
   3.540981e+01   8.554788e+01
  -6.129375e+01   6.734698e+01
  -4.865721e+01   4.989707e+00
   3.870855e+01  -2.816986e+01
   9.067694e+01   2.091085e+01
   3.546418e+01   1.166447e+02
  -8.613464e+01   1.540462e+02
  -1.628139e+02   6.525143e+01
  -1.262166e+02  -9.624555e+01
  -1.313006e+01  -1.943183e+02
   8.308501e+01  -1.424222e+02
   1.037184e+02   7.523160e+00
   5.915514e+01   1.175148e+02
  -4.631137e+00   1.047779e+02
  -4.717462e+01   1.873078e+01
  -4.986232e+01  -3.112497e+01
  -2.312621e+01  -8.186905e+00
  -4.424879e+00   1.958343e+01
  -2.343535e+01  -1.651848e+01
  -5.633824e+01  -8.799222e+01
  -3.930680e+01  -1.072287e+02
   4.894010e+01  -4.438895e+01
   1.366220e+02   3.786913e+01
   1.271676e+02   6.943207e+01
   1.796245e+01   5.025295e+01
  -8.493744e+01   2.342413e+01
  -8.710697e+01   7.439005e+00
  -1.274944e+01  -8.389897e+00
   3.695840e+01  -2.203849e+01
   1.554780e+01  -1.662358e+01
  -1.927241e+01   2.216439e+00
   4.847521e+00   8.010554e+00
   7.139549e+01   2.175418e+00
   9.129209e+01   2.253326e+01
   1.265455e+01   7.959348e+01
  -1.136438e+02   1.148747e+02
  -1.843275e+02   6.133023e+01
  -1.439393e+02  -6.331709e+01
  -2.829603e+01  -1.595746e+02
   7.784610e+01  -1.505722e+02
   1.135277e+02  -6.075555e+01
   7.999321e+01   2.022606e+01
   2.536434e+01   3.569381e+01
  -1.278528e+00   9.842223e+00
   1.125574e+01   5.192664e+00
   3.225985e+01   4.615539e+01
   2.157567e+01   8.948911e+01
  -2.859013e+01   7.120075e+01
  -7.967217e+01  -1.692022e+01
  -7.773408e+01  -1.049194e+02
  -7.753658e+00  -1.104935e+02
   7.916696e+01  -2.637350e+01
   1.031498e+02   7.103783e+01
   3.471144e+01   1.021247e+02
  -6.467475e+01   5.801271e+01
  -9.873183e+01  -9.887786e+00
  -4.109717e+01  -5.198276e+01
   3.248672e+01  -5.436313e+01
   3.340573e+01  -2.851845e+01
  -3.135204e+01   2.132408e+00
  -6.831250e+01   7.676272e+00
  -1.594876e+01  -2.535333e+01
   7.788750e+01  -6.566893e+01
   1.158005e+02  -5.719934e+01
   6.549351e+01   1.282620e+01
  -1.449274e+01   8.289435e+01
  -5.345550e+01   8.009546e+01
  -3.884431e+01   8.007958e+00
  -3.409751e+00  -5.420490e+01
   2.455531e+01  -4.413089e+01
   3.616884e+01   1.558554e+01
   2.718887e+01   5.323379e+01
  -1.893481e+00   3.452597e+01
  -3.287103e+01  -7.233542e+00
  -4.014054e+01  -2.184523e+01
  -2.052527e+01  -2.061540e+00
   1.787889e+00   1.562915e+01
   6.847398e+00   3.435789e-01
   3.315177e+00  -3.473495e+01
   1.151055e+01  -4.648947e+01
   3.012554e+01  -1.188921e+01
   3.320173e+01   4.128912e+01
   2.674533e+00   5.980214e+01
  -4.272039e+01   2.208643e+01
  -5.790511e+01  -3.663751e+01
  -1.618944e+01  -6.151944e+01
   5.470720e+01  -3.461137e+01
   8.929940e+01   1.353392e+01
   4.937247e+01   4.309015e+01
  -2.816872e+01   4.192412e+01
  -6.411680e+01   2.352942e+01
  -2.531747e+01   5.609150e+00
   3.422747e+01   4.704471e-01
   3.607870e+01   1.267656e+01
  -2.811272e+01   2.928848e+01
  -8.639893e+01   2.025647e+01
