
 $NMID
 id='ANONYMOUS ', fmtdat='(2E16.6)'
 volume=1.0
 tramp=1.0
 $END
   4.682641e+03  -2.230823e+01
   2.690508e+03   2.870644e+03
  -8.953086e+02   2.972799e+03
  -2.347322e+03   8.483953e+02
  -9.803578e+02  -8.480721e+02
   8.095219e+02  -6.730096e+02
   1.019040e+03   5.119305e+02
  -2.098738e+01   1.200348e+03
  -9.300582e+02   8.418973e+02
  -1.024861e+03  -1.377646e+02
  -4.650051e+02  -9.612064e+02
   3.006399e+02  -9.645505e+02
   7.235009e+02  -1.040818e+02
   4.218668e+02   8.018348e+02
  -3.108182e+02   8.133539e+02
  -6.673670e+02  -2.572222e+01
  -2.743708e+02  -7.440134e+02
   3.765121e+02  -6.573814e+02
   6.272517e+02  -5.697561e+01
   3.891649e+02   3.999082e+02
  -6.438801e+00   4.663919e+02
  -2.733450e+02   2.750696e+02
  -2.465783e+02   6.545924e+00
   1.027690e+02  -1.221287e+02
   4.416877e+02   8.519927e+01
   2.446129e+02   4.553023e+02
  -4.700516e+02   4.698864e+02
  -9.194144e+02  -5.644059e+01
  -4.834779e+02  -6.003159e+02
   4.162274e+02  -5.517301e+02
   8.134661e+02   1.771983e+01
   3.878525e+02   5.189041e+02
  -2.943378e+02   5.655995e+02
  -6.049977e+02   2.218671e+02
  -4.477668e+02  -2.481241e+02
  -7.137714e+01  -5.215388e+02
   2.365708e+02  -3.142760e+02
   2.180792e+02   2.458562e+02
  -1.650938e+02   5.031456e+02
  -5.046905e+02   6.323810e+00
  -2.970803e+02  -7.366725e+02
   3.402701e+02  -7.753524e+02
   6.774428e+02  -8.025871e+00
   2.972557e+02   6.166463e+02
  -3.257941e+02   3.660840e+02
  -4.386437e+02  -3.415244e+02
   5.929927e+01  -5.941234e+02
   5.923448e+02  -1.572186e+02
   6.340049e+02   4.250213e+02
   1.736966e+02   6.210404e+02
  -4.094309e+02   3.730484e+02
  -6.705267e+02  -7.748280e+01
  -3.944620e+02  -4.219903e+02
   1.778059e+02  -4.051093e+02
   4.884540e+02  -5.429751e+01
   2.573185e+02   2.354944e+02
  -1.461309e+02   1.298219e+02
  -1.695606e+02  -1.783049e+02
   1.808026e+02  -2.203852e+02
   3.833492e+02   7.963593e+01
   1.513609e+02   3.308787e+02
  -2.218957e+02   2.703406e+02
  -3.400860e+02   6.030253e+01
  -1.858531e+02  -8.773630e+01
   3.014285e+01  -2.077328e+02
   2.104673e+02  -3.219260e+02
   3.367397e+02  -2.357481e+02
   3.106481e+02   1.315840e+02
   9.111283e+01   4.627459e+02
  -1.325519e+02   4.117470e+02
  -1.471580e+02   1.066742e+02
  -2.707654e+01  -3.677610e+01
  -2.363028e+01   8.042429e+01
  -1.847410e+02   1.490821e+02
  -2.927276e+02  -3.612085e+01
  -1.809616e+02  -2.774571e+02
   6.480435e+01  -2.779957e+02
   2.406230e+02  -2.507258e+01
   2.184272e+02   2.435907e+02
   7.789034e-01   3.118271e+02
  -2.756163e+02   1.340003e+02
  -3.828672e+02  -1.670490e+02
  -1.990150e+02  -3.705466e+02
   1.097504e+02  -3.260682e+02
   2.467615e+02  -1.200206e+02
   1.577526e+02   1.037175e+01
   9.138118e+01  -2.692740e+01
   2.273413e+02  -7.187709e+01
   4.055773e+02   4.815057e+01
   3.426661e+02   2.857584e+02
   5.229407e+00   4.521444e+02
  -3.596246e+02   4.262452e+02
  -4.986399e+02   2.137715e+02
  -3.553296e+02  -9.054792e+01
  -6.662883e+01  -3.097069e+02
   1.389108e+02  -2.736211e+02
   1.002066e+02  -3.100860e+01
  -1.086699e+02   1.264841e+02
  -2.163110e+02   3.977036e+00
  -6.405434e+01  -2.128581e+02
   1.737325e+02  -1.945311e+02
   2.011647e+02   6.148013e+01
  -1.261113e+01   2.127312e+02
  -2.064556e+02   4.328840e+01
  -1.718077e+02  -2.557370e+02
   3.361893e+01  -3.591024e+02
   2.324851e+02  -1.929773e+02
   3.245949e+02   6.442186e+01
   2.820169e+02   2.358640e+02
   1.054073e+02   2.641917e+02
  -1.105697e+02   1.684833e+02
  -1.876287e+02   2.664398e+01
  -6.681654e+01  -3.665678e+01
   7.550387e+01   3.297179e+01
   3.942704e+01   1.297415e+02
  -1.253794e+02   1.110928e+02
  -1.904722e+02  -7.619734e+00
  -6.735046e+01  -7.777771e+01
   8.019122e+01  -2.472471e+01
   6.032321e+01   6.842767e+01
  -1.183450e+02   8.741561e+01
  -2.800249e+02   5.651864e+00
  -2.683822e+02  -1.325515e+02
  -7.053716e+01  -2.554941e+02
   1.791416e+02  -2.728235e+02
   2.915097e+02  -1.386886e+02
   1.828959e+02   5.230067e+01
  -2.200560e+01   1.205529e+02
  -9.983155e+01   1.341870e+01
   2.653208e+01  -1.089753e+02
   2.014801e+02  -6.927291e+01
   2.253465e+02   1.020990e+02
   7.632216e+01   2.170206e+02
  -9.638072e+01   1.683405e+02
  -1.518832e+02   3.443945e+01
  -7.929049e+01  -4.289700e+01
   2.343053e+01  -9.761394e+00
   4.054714e+01   7.600236e+01
  -6.445104e+01   1.123946e+02
  -1.959345e+02   3.492012e+01
  -1.975311e+02  -1.200487e+02
  -2.663068e+01  -2.238625e+02
   1.685471e+02  -1.725077e+02
   2.038056e+02  -6.987207e+00
   7.097579e+01   1.221014e+02
  -6.846840e+01   1.194205e+02
  -8.870617e+01   3.395283e+01
  -2.418692e+01  -2.635796e+01
   1.696403e+01  -2.155905e+01
  -1.039576e+01   3.032756e+00
  -6.653216e+01  -1.171672e+01
  -8.426227e+01  -7.946382e+01
  -1.707247e+01  -1.541316e+02
   1.212293e+02  -1.539508e+02
   2.338518e+02  -3.246465e+01
   2.079767e+02   1.471965e+02
   4.605334e+01   2.427186e+02
  -1.114422e+02   1.765878e+02
  -1.401014e+02   2.768696e+01
  -7.144460e+01  -5.958568e+01
  -2.783866e+01  -3.840999e+01
  -5.333112e+01   1.189506e+01
  -7.824064e+01   6.579478e+00
  -3.813604e+01  -4.795337e+01
   4.316046e+01  -8.349139e+01
   9.713220e+01  -5.221750e+01
   7.983151e+01   3.280338e+01
  -1.187319e+01   1.053273e+02
  -1.354383e+02   8.598391e+01
  -1.962070e+02  -4.527098e+01
  -1.076438e+02  -1.984016e+02
   9.947855e+01  -2.335220e+02
   2.685583e+02  -1.040765e+02
   2.654360e+02   8.313518e+01
   1.161081e+02   1.803582e+02
  -3.756910e+01   1.524145e+02
  -9.704782e+01   8.739557e+01
  -8.287287e+01   7.094921e+01
  -6.960307e+01   9.139462e+01
  -9.357829e+01   7.380083e+01
  -1.286273e+02  -2.273050e+01
  -1.191948e+02  -1.549698e+02
  -3.229968e+01  -2.283236e+02
   9.799975e+01  -1.764709e+02
   1.787896e+02  -2.487956e+01
   1.416861e+02   1.204312e+02
   2.351938e+01   1.622226e+02
  -6.493106e+01   9.713156e+01
  -5.986030e+01   5.302025e+00
  -7.524208e+00  -3.980040e+01
   5.775226e+00  -3.432288e+01
  -3.916253e+01  -1.991831e+01
  -7.853927e+01  -2.401430e+01
  -4.369334e+01  -3.779885e+01
   6.134838e+01  -3.649284e+01
   1.544471e+02  -5.038102e+00
   1.440976e+02   4.738635e+01
   2.038643e+01   8.626707e+01
  -1.171072e+02   7.531740e+01
  -1.460408e+02   1.671353e+01
  -5.019686e+01  -3.828331e+01
   6.052239e+01  -3.630920e+01
   7.594222e+01   1.899885e+01
   4.949594e+00   6.746922e+01
  -5.859205e+01   5.645656e+01
  -6.233545e+01  -3.100067e+00
  -4.086802e+01  -5.017952e+01
  -4.264861e+01  -4.158117e+01
  -6.341618e+01  -2.127002e+00
  -6.692980e+01  -2.046675e-01
  -3.313571e+01  -6.662662e+01
   3.401811e+01  -1.446770e+02
   1.137483e+02  -1.410835e+02
   1.603439e+02  -3.396513e+01
   1.222452e+02   8.996886e+01
   8.454636e+00   1.247989e+02
  -8.434928e+01   6.004994e+01
  -5.971928e+01  -1.598906e+01
   5.966141e+01  -2.033275e+01
   1.396829e+02   4.351639e+01
   7.857884e+01   1.078792e+02
  -7.967525e+01   1.145546e+02
  -1.925188e+02   5.574029e+01
  -1.657813e+02  -3.102995e+01
  -4.004295e+01  -8.751235e+01
   5.996368e+01  -7.367420e+01
   4.945602e+01  -1.010139e+01
  -3.844070e+01   2.611532e+01
  -9.061803e+01  -2.302682e+01
  -3.183584e+01  -1.201077e+02
   9.458550e+01  -1.552483e+02
   1.709371e+02  -6.127380e+01
   1.280764e+02   1.031579e+02
   9.672973e+00   2.003363e+02
  -8.635666e+01   1.466430e+02
  -1.055594e+02  -4.852289e+00
  -6.332855e+01  -1.177666e+02
  -2.000475e+00  -1.082912e+02
   4.442441e+01  -2.213597e+01
   5.442965e+01   3.081965e+01
   2.872825e+01   8.844303e+00
   3.296623e+00  -2.160120e+01
   1.803644e+01   1.337440e+01
   5.590618e+01   8.844645e+01
   4.569643e+01   1.111838e+02
  -4.441093e+01   4.652087e+01
  -1.401647e+02  -3.981222e+01
  -1.332037e+02  -7.140669e+01
  -1.765433e+01  -4.899305e+01
   9.059906e+01  -2.164269e+01
   8.950386e+01  -8.626883e+00
   9.075910e+00   6.196195e+00
  -3.993073e+01   2.290794e+01
  -1.263844e+01   1.987182e+01
   2.338125e+01  -9.162512e-01
  -6.610033e+00  -1.011569e+01
  -7.695294e+01  -5.173063e+00
  -9.166513e+01  -2.449618e+01
  -4.808231e+00  -8.054531e+01
   1.222696e+02  -1.138415e+02
   1.857607e+02  -5.654478e+01
   1.392683e+02   7.025660e+01
   2.410989e+01   1.636227e+02
  -7.892468e+01   1.491090e+02
  -1.140231e+02   5.677393e+01
  -8.104012e+01  -2.230402e+01
  -2.456303e+01  -3.481143e+01
   4.580149e+00  -7.529777e+00
  -9.177928e+00  -2.819617e+00
  -3.410672e+01  -4.483809e+01
  -2.433409e+01  -9.003643e+01
   2.926510e+01  -7.192107e+01
   8.231736e+01   1.959548e+01
   7.662185e+01   1.107710e+02
   1.436904e+00   1.133140e+02
  -8.495520e+01   2.153862e+01
  -1.027500e+02  -7.888713e+01
  -2.979315e+01  -1.041682e+02
   6.758908e+01  -5.329919e+01
   9.653455e+01   1.327485e+01
   3.731866e+01   4.875508e+01
  -3.256865e+01   4.908695e+01
  -2.888926e+01   2.787537e+01
   3.648793e+01   1.039056e+00
   6.989009e+01  -6.047094e+00
   1.393889e+01   2.460254e+01
  -7.974010e+01   6.635513e+01
  -1.143906e+02   6.029932e+01
  -6.185532e+01  -1.064755e+01
   1.657016e+01  -8.272602e+01
   5.182705e+01  -7.848599e+01
   3.491708e+01  -3.484515e+00
  -1.819765e-01   5.717315e+01
  -2.654554e+01   4.144929e+01
  -3.646613e+01  -2.070949e+01
  -2.597996e+01  -5.429311e+01
   3.547653e+00  -3.097410e+01
   3.317522e+01   9.624477e+00
   3.905302e+01   1.994942e+01
   2.054146e+01   4.929233e-02
   2.634492e-01  -1.259481e+01
  -6.745423e+00   6.200152e+00
  -9.510397e+00   3.812300e+01
  -2.102408e+01   4.280075e+01
  -3.402412e+01   3.753834e+00
  -2.742416e+01  -4.814075e+01
   6.333977e+00  -6.165402e+01
   4.608169e+01  -1.912223e+01
   5.489928e+01   4.134301e+01
   1.296946e+01   6.415932e+01
  -5.455521e+01   3.333090e+01
  -8.780713e+01  -1.690560e+01
  -4.858643e+01  -4.455341e+01
   2.911198e+01  -3.941418e+01
   6.495394e+01  -1.932222e+01
   2.299384e+01  -4.117928e+00
  -3.989297e+01  -3.754987e+00
  -3.908987e+01  -1.841326e+01
   3.291206e+01  -3.299678e+01
   9.514895e+01  -1.933567e+01
