
 $NMID
 id='ANONYMOUS ', fmtdat='(2E16.6)'
 volume=1.0
 tramp=1.0
 $END
  -4.551214e+03  -1.934669e+00
  -2.610277e+03  -2.764080e+03
   8.341158e+02  -2.860510e+03
   2.229798e+03  -8.512294e+02
   9.403915e+02   7.562594e+02
  -7.528702e+02   6.073905e+02
  -9.521909e+02  -4.945397e+02
   3.059607e+01  -1.141713e+03
   8.921210e+02  -8.067046e+02
   9.833862e+02   1.261342e+02
   4.505840e+02   9.195345e+02
  -2.799881e+02   9.265263e+02
  -6.836874e+02   9.974163e+01
  -3.978534e+02  -7.716436e+02
   2.982557e+02  -7.836652e+02
   6.401829e+02   2.218133e+01
   2.709709e+02   7.176374e+02
  -3.514653e+02   6.451301e+02
  -6.033646e+02   7.254184e+01
  -3.861542e+02  -3.756716e+02
  -3.967306e+00  -4.509607e+02
   2.593213e+02  -2.679870e+02
   2.291432e+02  -7.473595e+00
  -1.156596e+02   1.081976e+02
  -4.345603e+02  -1.027135e+02
  -2.231146e+02  -4.539228e+02
   4.760545e+02  -4.473768e+02
   8.962216e+02   7.148462e+01
   4.564957e+02   5.855123e+02
  -4.161951e+02   5.216695e+02
  -7.900683e+02  -3.234719e+01
  -3.685812e+02  -5.091853e+02
   2.945584e+02  -5.472731e+02
   5.925247e+02  -2.123405e+02
   4.344958e+02   2.416314e+02
   6.789483e+01   5.018832e+02
  -2.222427e+02   2.968757e+02
  -1.932697e+02  -2.407064e+02
   1.746943e+02  -4.760290e+02
   4.845764e+02   1.271329e+01
   2.701303e+02   7.229247e+02
  -3.387000e+02   7.450787e+02
  -6.476422e+02  -8.566591e-01
  -2.755043e+02  -5.950307e+02
   3.166200e+02  -3.428474e+02
   4.160639e+02   3.412267e+02
  -6.665958e+01   5.779323e+02
  -5.808212e+02   1.473579e+02
  -6.205387e+02  -4.200804e+02
  -1.711057e+02  -6.079762e+02
   4.003096e+02  -3.619427e+02
   6.556035e+02   7.706726e+01
   3.850810e+02   4.061681e+02
  -1.705911e+02   3.859041e+02
  -4.692807e+02   5.230230e+01
  -2.470165e+02  -2.181299e+02
   1.365582e+02  -1.163056e+02
   1.559004e+02   1.706784e+02
  -1.780800e+02   2.050918e+02
  -3.688682e+02  -7.987678e+01
  -1.457774e+02  -3.185740e+02
   2.143974e+02  -2.661326e+02
   3.354373e+02  -6.846665e+01
   1.922291e+02   8.374466e+01
  -2.357636e+01   2.155322e+02
  -2.122711e+02   3.286657e+02
  -3.389937e+02   2.324022e+02
  -3.054502e+02  -1.342418e+02
  -8.663205e+01  -4.536554e+02
   1.252257e+02  -3.998530e+02
   1.335699e+02  -1.075305e+02
   2.230489e+01   2.507932e+01
   3.056097e+01  -8.733998e+01
   1.916593e+02  -1.448037e+02
   2.908650e+02   4.261671e+01
   1.741347e+02   2.769696e+02
  -6.837150e+01   2.716851e+02
  -2.380352e+02   1.942306e+01
  -2.125092e+02  -2.443341e+02
   3.416917e+00  -3.074228e+02
   2.739816e+02  -1.284408e+02
   3.765525e+02   1.671419e+02
   1.954000e+02   3.631121e+02
  -1.048813e+02   3.183668e+02
  -2.373201e+02   1.207232e+02
  -1.528565e+02  -2.622749e+00
  -9.367317e+01   3.286410e+01
  -2.311997e+02   7.230157e+01
  -4.063790e+02  -4.879929e+01
  -3.417350e+02  -2.841165e+02
  -5.210974e+00  -4.501578e+02
   3.581833e+02  -4.252145e+02
   4.950789e+02  -2.121544e+02
   3.493464e+02   9.128863e+01
   6.234962e+01   3.051364e+02
  -1.359183e+02   2.655708e+02
  -9.237068e+01   2.860490e+01
   1.113908e+02  -1.201877e+02
   2.101648e+02   1.246885e+00
   5.800089e+01   2.080661e+02
  -1.707120e+02   1.855250e+02
  -1.931061e+02  -6.274593e+01
   1.558660e+01  -2.060567e+02
   2.033744e+02  -3.927104e+01
   1.702875e+02   2.526459e+02
  -3.072995e+01   3.558666e+02
  -2.303802e+02   1.952304e+02
  -3.261577e+02  -6.049395e+01
  -2.832079e+02  -2.352947e+02
  -1.035451e+02  -2.650234e+02
   1.116054e+02  -1.669794e+02
   1.845743e+02  -2.464328e+01
   6.335299e+01   3.551798e+01
  -7.457473e+01  -3.558209e+01
  -3.601137e+01  -1.293794e+02
   1.258106e+02  -1.078240e+02
   1.870033e+02   9.640589e+00
   6.378802e+01   7.663912e+01
  -8.136592e+01   2.222458e+01
  -5.976583e+01  -7.064472e+01
   1.197481e+02  -8.910793e+01
   2.817423e+02  -6.089340e+00
   2.687823e+02   1.338127e+02
   6.873667e+01   2.563417e+02
  -1.805287e+02   2.708693e+02
  -2.892654e+02   1.356736e+02
  -1.785750e+02  -5.220081e+01
   2.347575e+01  -1.171003e+02
   9.719955e+01  -1.110753e+01
  -2.903743e+01   1.074465e+02
  -2.003174e+02   6.668645e+01
  -2.221042e+02  -1.018950e+02
  -7.456341e+01  -2.140853e+02
   9.560007e+01  -1.652838e+02
   1.495613e+02  -3.275084e+01
   7.627309e+01   4.301490e+01
  -2.608463e+01   8.104916e+00
  -4.117779e+01  -7.876008e+01
   6.591770e+01  -1.141883e+02
   1.971014e+02  -3.483115e+01
   1.968577e+02   1.201406e+02
   2.601860e+01   2.221999e+02
  -1.666437e+02   1.705713e+02
  -2.003589e+02   7.402034e+00
  -6.905947e+01  -1.195295e+02
   6.784370e+01  -1.170858e+02
   8.695680e+01  -3.285555e+01
   2.229427e+01   2.690539e+01
  -1.895023e+01   2.135744e+01
   9.284213e+00  -4.904096e+00
   6.762904e+01   9.197564e+00
   8.671329e+01   7.875769e+01
   1.841377e+01   1.554859e+02
  -1.215692e+02   1.549993e+02
  -2.340543e+02   3.219374e+01
  -2.072866e+02  -1.468870e+02
  -4.610267e+01  -2.406469e+02
   1.097142e+02  -1.747719e+02
   1.383123e+02  -2.830598e+01
   7.110580e+01   5.749875e+01
   2.809457e+01   3.704546e+01
   5.313219e+01  -1.250758e+01
   7.866579e+01  -7.504056e+00
   4.022636e+01   4.755076e+01
  -4.122884e+01   8.523964e+01
  -9.791263e+01   5.504516e+01
  -8.251680e+01  -3.200409e+01
   1.057412e+01  -1.073082e+02
   1.365660e+02  -8.808439e+01
   1.974329e+02   4.513438e+01
   1.072259e+02   1.991296e+02
  -1.002110e+02   2.333296e+02
  -2.677006e+02   1.034587e+02
  -2.634463e+02  -8.258917e+01
  -1.148682e+02  -1.786625e+02
   3.725293e+01  -1.509233e+02
   9.567942e+01  -8.668261e+01
   8.100753e+01  -7.056763e+01
   6.764278e+01  -9.128988e+01
   9.220506e+01  -7.449120e+01
   1.283357e+02   2.127301e+01
   1.196986e+02   1.534624e+02
   3.307020e+01   2.272004e+02
  -9.706192e+01   1.756560e+02
  -1.777347e+02   2.444655e+01
  -1.408816e+02  -1.202237e+02
  -2.302360e+01  -1.614935e+02
   6.559672e+01  -9.621084e+01
   6.062554e+01  -4.142309e+00
   7.364382e+00   4.122218e+01
  -7.220077e+00   3.521705e+01
   3.782267e+01   1.938872e+01
   7.863738e+01   2.262718e+01
   4.440895e+01   3.729609e+01
  -6.172088e+01   3.753554e+01
  -1.557176e+02   6.235379e+00
  -1.445238e+02  -4.760190e+01
  -1.957822e+01  -8.763190e+01
   1.176941e+02  -7.634134e+01
   1.457690e+02  -1.662688e+01
   5.023900e+01   3.905665e+01
  -5.968357e+01   3.718488e+01
  -7.591506e+01  -1.824280e+01
  -6.835443e+00  -6.712109e+01
   5.652638e+01  -5.692384e+01
   6.241325e+01   1.926784e+00
   4.250569e+01   4.904867e+01
   4.329171e+01   4.105979e+01
   6.248270e+01   1.991053e+00
   6.653090e+01  -9.148650e-02
   3.465752e+01   6.617232e+01
  -3.196007e+01   1.447339e+02
  -1.131450e+02   1.421939e+02
  -1.612134e+02   3.571088e+01
  -1.232880e+02  -8.884596e+01
  -9.074046e+00  -1.252172e+02
   8.393016e+01  -6.151871e+01
   5.959323e+01   1.495553e+01
  -5.913109e+01   2.061672e+01
  -1.388016e+02  -4.246589e+01
  -7.821266e+01  -1.070956e+02
   7.914590e+01  -1.142885e+02
   1.915141e+02  -5.562143e+01
   1.648849e+02   3.102907e+01
   3.954031e+01   8.705950e+01
  -6.010139e+01   7.285855e+01
  -4.956688e+01   9.390793e+00
   3.804384e+01  -2.676078e+01
   9.042725e+01   2.190343e+01
   3.304817e+01   1.186462e+02
  -9.173096e+01   1.546582e+02
  -1.682283e+02   6.246225e+01
  -1.276118e+02  -1.008371e+02
  -1.126545e+01  -1.983941e+02
   8.483860e+01  -1.458771e+02
   1.052523e+02   4.741578e+00
   6.323533e+01   1.173700e+02
   1.211064e+00   1.079485e+02
  -4.499273e+01   2.199793e+01
  -5.369049e+01  -3.080989e+01
  -2.759948e+01  -8.972578e+00
  -3.522651e+00   2.128988e+01
  -1.940637e+01  -1.335319e+01
  -5.648172e+01  -8.772876e+01
  -4.484589e+01  -1.104092e+02
   4.503288e+01  -4.673045e+01
   1.393164e+02   3.863517e+01
   1.321191e+02   7.042414e+01
   1.814444e+01   4.897771e+01
  -8.901011e+01   2.211522e+01
  -8.889649e+01   8.829202e+00
  -9.998102e+00  -6.221661e+00
   3.918356e+01  -2.272913e+01
   1.330639e+01  -1.954961e+01
  -2.242374e+01   9.810073e-01
   6.149828e+00   9.793602e+00
   7.550378e+01   4.501955e+00
   9.141309e+01   2.342878e+01
   6.814680e+00   7.948275e+01
  -1.194343e+02   1.139548e+02
  -1.842724e+02   5.858426e+01
  -1.397930e+02  -6.735337e+01
  -2.571370e+01  -1.619668e+02
   7.733516e+01  -1.495656e+02
   1.129317e+02  -5.821394e+01
   8.065458e+01   2.135501e+01
   2.499719e+01   3.465979e+01
  -3.681101e+00   7.707410e+00
   9.783832e+00   3.023534e+00
   3.412283e+01   4.490789e+01
   2.436532e+01   8.980409e+01
  -2.861000e+01   7.178932e+01
  -8.155048e+01  -1.866582e+01
  -7.698289e+01  -1.087587e+02
  -3.234964e+00  -1.119808e+02
   8.309088e+01  -2.254622e+01
   1.025139e+02   7.642708e+01
   3.126352e+01   1.029164e+02
  -6.609129e+01   5.433834e+01
  -9.656155e+01  -1.169944e+01
  -3.860331e+01  -4.867510e+01
   3.167048e+01  -5.023099e+01
   2.943807e+01  -2.854247e+01
  -3.515857e+01  -6.030734e-01
  -6.925677e+01   6.723498e+00
  -1.454138e+01  -2.442030e+01
   7.879159e+01  -6.650953e+01
   1.142501e+02  -6.053746e+01
   6.269244e+01   1.027740e+01
  -1.551594e+01   8.252871e+01
  -5.131889e+01   7.915259e+01
  -3.518385e+01   4.941671e+00
  -6.715813e-01  -5.617509e+01
   2.557278e+01  -4.190151e+01
   3.604275e+01   1.943985e+01
   2.646467e+01   5.368211e+01
  -2.688872e+00   3.147598e+01
  -3.291201e+01  -8.928055e+00
  -3.949074e+01  -1.989267e+01
  -2.066971e+01  -2.870694e-01
   4.856202e-01   1.297701e+01
   7.270316e+00  -4.987242e+00
   8.312610e+00  -3.692742e+01
   1.851939e+01  -4.275415e+01
   3.247431e+01  -5.223063e+00
   2.823943e+01   4.602394e+01
  -4.296948e+00   6.043892e+01
  -4.494387e+01   1.969990e+01
  -5.525997e+01  -3.969095e+01
  -1.380373e+01  -6.314566e+01
   5.411657e+01  -3.392056e+01
   8.774460e+01   1.545036e+01
   4.883671e+01   4.375589e+01
  -2.836492e+01   3.994677e+01
  -6.415354e+01   2.049452e+01
  -2.323405e+01   4.765027e+00
   3.846483e+01   3.312390e+00
   3.806951e+01   1.724554e+01
  -3.199926e+01   3.204211e+01
  -9.304787e+01   1.941430e+01
