
 $NMID
 id='ANONYMOUS ', fmtdat='(2E16.6)'
 volume=1.0
 tramp=1.0
 $END
   4.307920e+03   5.436437e+01
   2.504433e+03   2.572286e+03
  -6.851547e+02   2.702976e+03
  -2.043163e+03   9.258573e+02
  -9.457729e+02  -5.601542e+02
   5.912320e+02  -5.161684e+02
   8.278371e+02   4.214577e+02
  -2.320007e+01   1.022139e+03
  -8.113984e+02   7.565456e+02
  -9.180234e+02  -8.936961e+01
  -4.425365e+02  -8.427885e+02
   2.283028e+02  -8.726431e+02
   6.076151e+02  -1.138281e+02
   3.611686e+02   7.047313e+02
  -2.683143e+02   7.358709e+02
  -5.947319e+02  -5.705269e+00
  -2.733040e+02  -6.766615e+02
   3.108658e+02  -6.440857e+02
   5.806547e+02  -1.129343e+02
   3.994399e+02   3.389242e+02
   2.827131e+01   4.360791e+02
  -2.341416e+02   2.637243e+02
  -1.968815e+02   2.135756e+01
   1.322242e+02  -6.250128e+01
   4.025987e+02   1.468058e+02
   1.679055e+02   4.403376e+02
  -4.843055e+02   3.840730e+02
  -8.403135e+02  -1.071667e+02
  -4.033786e+02  -5.470107e+02
   4.051201e+02  -4.521127e+02
   7.340902e+02   6.300819e+01
   3.273145e+02   4.860118e+02
  -2.962210e+02   5.062282e+02
  -5.703742e+02   1.898028e+02
  -4.116890e+02  -2.305157e+02
  -6.698994e+01  -4.655592e+02
   1.855000e+02  -2.729344e+02
   1.417831e+02   2.118852e+02
  -1.824447e+02   4.092012e+02
  -4.273149e+02  -4.612222e+01
  -2.090960e+02  -6.824235e+02
   3.303797e+02  -6.821364e+02
   5.837971e+02   7.445032e+00
   2.382127e+02   5.423407e+02
  -2.869116e+02   2.985623e+02
  -3.635073e+02  -3.334835e+02
   8.367458e+01  -5.412160e+02
   5.580432e+02  -1.226175e+02
   5.922473e+02   4.202809e+02
   1.626993e+02   5.911092e+02
  -3.857825e+02   3.405193e+02
  -6.307778e+02  -8.185426e+01
  -3.747648e+02  -3.803493e+02
   1.489419e+02  -3.531482e+02
   4.346852e+02  -5.482631e+01
   2.407639e+02   1.812070e+02
  -1.071271e+02   9.568679e+01
  -1.322421e+02  -1.468731e+02
   1.644102e+02  -1.730009e+02
   3.404737e+02   7.731937e+01
   1.392763e+02   2.954648e+02
  -2.054006e+02   2.621079e+02
  -3.412307e+02   8.073808e+01
  -2.097355e+02  -8.969923e+01
   2.569470e+01  -2.410941e+02
   2.367943e+02  -3.381481e+02
   3.518566e+02  -2.149743e+02
   2.912395e+02   1.456335e+02
   7.377911e+01   4.383123e+02
  -1.112758e+02   3.841525e+02
  -1.112739e+02   1.213854e+02
  -2.470554e+01   3.607862e+00
  -5.589240e+01   9.429478e+01
  -2.085355e+02   1.239047e+02
  -2.821621e+02  -6.406922e+01
  -1.537019e+02  -2.775848e+02
   7.850430e+01  -2.558338e+02
   2.300708e+02  -3.039269e+00
   1.941636e+02   2.493446e+02
  -1.728576e+01   2.974169e+02
  -2.720849e+02   1.114341e+02
  -3.626873e+02  -1.746508e+02
  -1.868447e+02  -3.545313e+02
   9.780812e+01  -3.083349e+02
   2.252840e+02  -1.265080e+02
   1.530409e+02  -1.402542e+01
   1.072768e+02  -4.015532e+01
   2.450344e+02  -6.240971e+01
   4.109815e+02   6.476351e+01
   3.368269e+02   2.943142e+02
  -7.077119e+00   4.519261e+02
  -3.723316e+02   4.185610e+02
  -4.990369e+02   1.994667e+02
  -3.375556e+02  -9.866795e+01
  -4.940721e+01  -2.967811e+02
   1.310820e+02  -2.510615e+02
   7.543719e+01  -2.961140e+01
  -1.154388e+02   1.019692e+02
  -1.942039e+02  -1.218235e+01
  -4.466449e+01  -1.959050e+02
   1.626293e+02  -1.668991e+02
   1.753104e+02   6.353246e+01
  -2.128819e+01   1.909563e+02
  -1.963734e+02   2.821698e+01
  -1.645602e+02  -2.532337e+02
   3.298141e+01  -3.558613e+02
   2.377111e+02  -1.973449e+02
   3.359944e+02   6.529026e+01
   2.823776e+02   2.475642e+02
   9.152005e+01   2.714461e+02
  -1.189263e+02   1.612371e+02
  -1.791414e+02   1.819575e+01
  -5.703327e+01  -3.181296e+01
   6.956207e+01   4.287663e+01
   2.555920e+01   1.276749e+02
  -1.281961e+02   9.784044e+01
  -1.796075e+02  -1.619124e+01
  -5.594157e+01  -7.336711e+01
   8.282519e+01  -1.336253e+01
   5.464448e+01   7.749949e+01
  -1.289578e+02   8.838375e+01
  -2.896282e+02  -3.892128e+00
  -2.673639e+02  -1.472714e+02
  -5.665632e+01  -2.616328e+02
   1.923201e+02  -2.629090e+02
   2.893296e+02  -1.242615e+02
   1.702570e+02   5.365061e+01
  -2.681726e+01   1.090033e+02
  -9.075032e+01   6.186950e+00
   3.642639e+01  -1.019280e+02
   1.997519e+02  -5.695909e+01
   2.151139e+02   1.063572e+02
   6.817986e+01   2.111560e+02
  -9.714884e+01   1.587913e+02
  -1.458167e+02   2.738045e+01
  -6.942439e+01  -4.294305e+01
   3.040439e+01  -9.759149e-01
   3.744481e+01   8.756127e+01
  -7.548977e+01   1.156626e+02
  -2.030954e+02   2.745250e+01
  -1.940016e+02  -1.274760e+02
  -1.974501e+01  -2.217371e+02
   1.681621e+02  -1.654388e+02
   1.964169e+02  -5.709474e+00
   6.492233e+01   1.157957e+02
  -6.860568e+01   1.122076e+02
  -8.426212e+01   3.010938e+01
  -1.715079e+01  -2.702629e+01
   2.381351e+01  -1.840807e+01
  -9.300834e+00   9.807923e+00
  -7.327342e+01  -7.436247e+00
  -9.119297e+01  -8.378968e+01
  -1.495042e+01  -1.623864e+02
   1.299918e+02  -1.548879e+02
   2.382198e+02  -2.427356e+01
   2.041104e+02   1.540434e+02
   4.132697e+01   2.409419e+02
  -1.111372e+02   1.715866e+02
  -1.379400e+02   2.747991e+01
  -7.175853e+01  -5.578952e+01
  -2.930158e+01  -3.585455e+01
  -5.447664e+01   1.245625e+01
  -8.182609e+01   6.529859e+00
  -4.402611e+01  -5.092110e+01
   4.239343e+01  -9.079190e+01
   1.056945e+02  -5.764911e+01
   8.904218e+01   3.636455e+01
  -1.363622e+01   1.139202e+02
  -1.458327e+02   8.796252e+01
  -2.012261e+02  -5.314302e+01
  -1.005069e+02  -2.062019e+02
   1.103364e+02  -2.318832e+02
   2.719944e+02  -9.581267e+01
   2.606058e+02   8.880258e+01
   1.098613e+02   1.797426e+02
  -4.028872e+01   1.488890e+02
  -9.605219e+01   8.472953e+01
  -7.999889e+01   7.012192e+01
  -6.723728e+01   9.222454e+01
  -9.367826e+01   7.543409e+01
  -1.302947e+02  -2.231203e+01
  -1.190052e+02  -1.566922e+02
  -2.902282e+01  -2.296820e+02
   1.011080e+02  -1.741118e+02
   1.781191e+02  -1.929005e+01
   1.373607e+02   1.249852e+02
   1.788163e+01   1.622359e+02
  -6.991568e+01   9.267120e+01
  -6.185814e+01  -1.028126e+00
  -4.227691e+00  -4.478583e+01
   1.245602e+01  -3.571259e+01
  -3.546492e+01  -1.827081e+01
  -8.065247e+01  -2.265888e+01
  -4.582807e+01  -3.894372e+01
   6.565182e+01  -3.779791e+01
   1.618945e+02  -2.399497e+00
   1.454976e+02   5.379142e+01
   1.380925e+01   9.135030e+01
  -1.240216e+02   7.502197e+01
  -1.475109e+02   1.226099e+01
  -4.885995e+01  -4.284085e+01
   6.085932e+01  -3.849530e+01
   7.707836e+01   1.931223e+01
   9.088271e+00   6.955478e+01
  -5.528126e+01   5.908844e+01
  -6.460893e+01  -1.594850e+00
  -4.614300e+01  -5.048922e+01
  -4.444411e+01  -4.260078e+01
  -6.141780e+01  -2.716250e+00
  -6.687988e+01  -9.920859e-01
  -3.665363e+01  -6.886686e+01
   3.279302e+01  -1.479502e+02
   1.191426e+02  -1.433597e+02
   1.681772e+02  -3.366554e+01
   1.254262e+02   9.276103e+01
   5.989013e+00   1.286744e+02
  -8.773331e+01   6.313741e+01
  -6.075232e+01  -1.476732e+01
   5.975831e+01  -2.015447e+01
   1.385293e+02   4.431472e+01
   7.586313e+01   1.089476e+02
  -8.244409e+01   1.132316e+02
  -1.935316e+02   5.102254e+01
  -1.641265e+02  -3.575047e+01
  -3.669013e+01  -8.794925e+01
   6.260895e+01  -6.999855e+01
   4.995353e+01  -6.305289e+00
  -3.927640e+01   2.766583e+01
  -9.172180e+01  -2.253875e+01
  -3.379622e+01  -1.195142e+02
   9.127110e+01  -1.556010e+02
   1.680452e+02  -6.331578e+01
   1.275878e+02   1.008773e+02
   1.048928e+01   1.989971e+02
  -8.660854e+01   1.450872e+02
  -1.059297e+02  -7.624196e+00
  -6.050651e+01  -1.199817e+02
   3.525387e+00  -1.077849e+02
   4.731538e+01  -1.991450e+01
   5.185120e+01   3.209980e+01
   2.516207e+01   9.000328e+00
   4.383313e+00  -2.054905e+01
   2.211367e+01   1.561677e+01
   5.637451e+01   8.980854e+01
   4.093850e+01   1.107129e+02
  -4.864875e+01   4.563095e+01
  -1.393829e+02  -4.022323e+01
  -1.303599e+02  -7.233420e+01
  -1.784079e+01  -5.069946e+01
   8.806282e+01  -2.227141e+01
   8.927449e+01  -7.170644e+00
   1.182657e+01   7.694251e+00
  -3.865889e+01   2.220815e+01
  -1.514879e+01   1.796086e+01
   2.081185e+01  -1.462581e+00
  -5.305873e+00  -8.936142e+00
  -7.403680e+01  -3.990868e+00
  -9.248124e+01  -2.416495e+01
  -9.709180e+00  -8.071314e+01
   1.188342e+02  -1.149326e+02
   1.876617e+02  -5.930456e+01
   1.437159e+02   6.722949e+01
   2.600474e+01   1.631795e+02
  -8.032697e+01   1.517009e+02
  -1.155627e+02   5.953697e+01
  -8.124172e+01  -2.181822e+01
  -2.527625e+01  -3.607188e+01
   2.292294e+00  -9.050936e+00
  -1.085425e+01  -4.472521e+00
  -3.307006e+01  -4.674758e+01
  -2.210532e+01  -9.129011e+01
   2.977527e+01  -7.223545e+01
   8.141682e+01   1.874319e+01
   7.744036e+01   1.088248e+02
   4.898894e+00   1.127168e+02
  -8.209585e+01   2.432159e+01
  -1.035860e+02  -7.530589e+01
  -3.280402e+01  -1.042482e+02
   6.670416e+01  -5.673117e+01
   9.921778e+01   1.169634e+01
   4.030500e+01   5.179361e+01
  -3.307915e+01   5.323838e+01
  -3.261941e+01   2.874981e+01
   3.329077e+01  -6.343832e-01
   6.978361e+01  -6.691067e+00
   1.540207e+01   2.548572e+01
  -8.013252e+01   6.619279e+01
  -1.176359e+02   5.828516e+01
  -6.532478e+01  -1.257900e+01
   1.595221e+01  -8.383780e+01
   5.420081e+01  -8.046903e+01
   3.795989e+01  -6.624572e+00
   1.755967e+00   5.577160e+01
  -2.571561e+01   4.363386e+01
  -3.639371e+01  -1.772835e+01
  -2.676192e+01  -5.448058e+01
   2.495258e+00  -3.379021e+01
   3.326427e+01   8.356377e+00
   4.033445e+01   2.178482e+01
   2.093161e+01   1.595697e+00
  -1.218711e+00  -1.478486e+01
  -7.284195e+00   1.701072e+00
  -5.785319e+00   3.595402e+01
  -1.484486e+01   4.537134e+01
  -3.143857e+01   9.026016e+00
  -3.115871e+01  -4.399654e+01
   6.990455e-01  -6.078156e+01
   4.441286e+01  -2.096755e+01
   5.726662e+01   3.892371e+01
   1.480883e+01   6.320094e+01
  -5.563717e+01   3.432885e+01
  -8.984702e+01  -1.536383e+01
  -4.945634e+01  -4.449932e+01
   2.904129e+01  -4.148316e+01
   6.525631e+01  -2.202471e+01
   2.490195e+01  -5.165821e+00
  -3.635285e+01  -2.093462e+00
  -3.715619e+01  -1.512588e+01
   3.048026e+01  -3.043212e+01
   9.055972e+01  -1.914680e+01
