
 $NMID
 id='ANONYMOUS ', fmtdat='(2E16.6)'
 volume=1.0
 tramp=1.0
 $END
   4.600282e+03   3.199254e+01
   2.615266e+03   2.825668e+03
  -8.819393e+02   2.893403e+03
  -2.279287e+03   8.294800e+02
  -9.463517e+02  -7.983103e+02
   7.803505e+02  -6.238552e+02
   9.723514e+02   5.103253e+02
  -3.766941e+01   1.163285e+03
  -9.133182e+02   8.115975e+02
  -9.972694e+02  -1.392192e+02
  -4.475356e+02  -9.387179e+02
   2.958355e+02  -9.376832e+02
   6.991788e+02  -9.484619e+01
   3.998024e+02   7.865265e+02
  -3.097917e+02   7.918862e+02
  -6.498742e+02  -2.922894e+01
  -2.659127e+02  -7.294961e+02
   3.659530e+02  -6.461651e+02
   6.121869e+02  -6.149137e+01
   3.836377e+02   3.875938e+02
  -3.768676e+00   4.563253e+02
  -2.667328e+02   2.681654e+02
  -2.355564e+02   4.829862e+00
   1.122261e+02  -1.128252e+02
   4.369677e+02   9.986157e+01
   2.274783e+02   4.568435e+02
  -4.780216e+02   4.521908e+02
  -9.046876e+02  -7.356863e+01
  -4.614449e+02  -5.953025e+02
   4.211722e+02  -5.295114e+02
   7.988880e+02   3.377792e+01
   3.714518e+02   5.161955e+02
  -2.992561e+02   5.517641e+02
  -5.990433e+02   2.109165e+02
  -4.373215e+02  -2.477574e+02
  -6.471499e+01  -5.097263e+02
   2.303133e+02  -3.010997e+02
   2.003477e+02   2.448702e+02
  -1.756941e+02   4.849422e+02
  -4.924682e+02  -1.009594e+01
  -2.740420e+02  -7.309148e+02
   3.459455e+02  -7.535540e+02
   6.588499e+02   3.503186e+00
   2.782405e+02   6.057633e+02
  -3.233499e+02   3.486520e+02
  -4.217288e+02  -3.452516e+02
   6.889971e+01  -5.836114e+02
   5.865071e+02  -1.461717e+02
   6.221354e+02   4.270756e+02
   1.670077e+02   6.141756e+02
  -4.067833e+02   3.626783e+02
  -6.604960e+02  -8.270177e+01
  -3.849288e+02  -4.152125e+02
   1.767957e+02  -3.914145e+02
   4.767791e+02  -4.884214e+01
   2.485776e+02   2.267028e+02
  -1.413841e+02   1.199047e+02
  -1.593565e+02  -1.751017e+02
   1.811391e+02  -2.092480e+02
   3.735813e+02   8.307019e+01
   1.450034e+02   3.243807e+02
  -2.193154e+02   2.658115e+02
  -3.374179e+02   6.277978e+01
  -1.891442e+02  -8.647112e+01
   2.737245e+01  -2.123052e+02
   2.139164e+02  -3.246610e+02
   3.400702e+02  -2.311253e+02
   3.064293e+02   1.357748e+02
   8.452380e+01   4.578092e+02
  -1.313410e+02   4.030347e+02
  -1.393368e+02   1.057709e+02
  -2.348498e+01  -2.967824e+01
  -2.847512e+01   8.480622e+01
  -1.903838e+02   1.451352e+02
  -2.914459e+02  -4.252358e+01
  -1.745119e+02  -2.787111e+02
   6.934612e+01  -2.736004e+02
   2.393241e+02  -1.959046e+01
   2.128448e+02   2.458874e+02
  -4.369526e+00   3.091591e+02
  -2.757531e+02   1.283382e+02
  -3.776112e+02  -1.701923e+02
  -1.937256e+02  -3.674572e+02
   1.093419e+02  -3.202450e+02
   2.416834e+02  -1.183617e+02
   1.543875e+02   6.777376e+00
   9.290217e+01  -3.005514e+01
   2.303416e+02  -7.051051e+01
   4.057592e+02   5.163946e+01
   3.398763e+02   2.873703e+02
   1.720670e+00   4.509515e+02
  -3.620083e+02   4.228387e+02
  -4.980804e+02   2.088679e+02
  -3.508816e+02  -9.387955e+01
  -6.144360e+01  -3.074376e+02
   1.393033e+02  -2.673966e+02
   9.553505e+01  -2.853005e+01
  -1.115212e+02   1.217334e+02
  -2.125812e+02  -1.137398e+00
  -5.847642e+01  -2.104659e+02
   1.735293e+02  -1.874289e+02
   1.956247e+02   6.401773e+01
  -1.628526e+01   2.084847e+02
  -2.049408e+02   3.909178e+01
  -1.688274e+02  -2.551385e+02
   3.460565e+01  -3.567440e+02
   2.325807e+02  -1.925942e+02
   3.250193e+02   6.437116e+01
   2.809768e+02   2.376393e+02
   1.022369e+02   2.655849e+02
  -1.125555e+02   1.667209e+02
  -1.859536e+02   2.387039e+01
  -6.431530e+01  -3.653028e+01
   7.473082e+01   3.522884e+01
   3.626337e+01   1.299035e+02
  -1.265876e+02   1.080793e+02
  -1.882734e+02  -1.043997e+01
  -6.447283e+01  -7.766032e+01
   8.119098e+01  -2.255651e+01
   5.950513e+01   7.031247e+01
  -1.198682e+02   8.762624e+01
  -2.811643e+02   3.835546e+00
  -2.676719e+02  -1.353974e+02
  -6.747053e+01  -2.566294e+02
   1.821614e+02  -2.702671e+02
   2.912344e+02  -1.345054e+02
   1.797636e+02   5.374076e+01
  -2.394349e+01   1.182371e+02
  -9.832594e+01   1.112728e+01
   2.899205e+01  -1.078703e+02
   2.013458e+02  -6.607054e+01
   2.225188e+02   1.037736e+02
   7.348381e+01   2.157960e+02
  -9.724967e+01   1.656567e+02
  -1.507227e+02   3.215487e+01
  -7.705611e+01  -4.365268e+01
   2.523100e+01  -8.596638e+00
   4.043715e+01   7.805096e+01
  -6.619941e+01   1.130837e+02
  -1.969555e+02   3.339955e+01
  -1.962022e+02  -1.216375e+02
  -2.449577e+01  -2.230391e+02
   1.687124e+02  -1.699573e+02
   2.016739e+02  -5.612358e+00
   6.877002e+01   1.210647e+02
  -6.904389e+01   1.174087e+02
  -8.788710e+01   3.253933e+01
  -2.279957e+01  -2.693751e+01
   1.839486e+01  -2.135134e+01
  -9.668609e+00   4.114140e+00
  -6.708160e+01  -1.059961e+01
  -8.519945e+01  -7.960366e+01
  -1.678190e+01  -1.550980e+02
   1.226012e+02  -1.537090e+02
   2.342488e+02  -3.051578e+01
   2.064210e+02   1.486123e+02
   4.418554e+01   2.417688e+02
  -1.117436e+02   1.745540e+02
  -1.391707e+02   2.696922e+01
  -7.072863e+01  -5.881817e+01
  -2.767655e+01  -3.775252e+01
  -5.328395e+01   1.187283e+01
  -7.854287e+01   6.580126e+00
  -3.908927e+01  -4.794083e+01
   4.253162e+01  -8.422966e+01
   9.796288e+01  -5.329315e+01
   8.127075e+01   3.284177e+01
  -1.180478e+01   1.064686e+02
  -1.367669e+02   8.631638e+01
  -1.966482e+02  -4.665390e+01
  -1.058894e+02  -1.997069e+02
   1.017354e+02  -2.326731e+02
   2.688392e+02  -1.016213e+02
   2.635420e+02   8.486692e+01
   1.139113e+02   1.802089e+02
  -3.856966e+01   1.511831e+02
  -9.686933e+01   8.617484e+01
  -8.224465e+01   7.003382e+01
  -6.906302e+01   9.075506e+01
  -9.325869e+01   7.349617e+01
  -1.282412e+02  -2.279524e+01
  -1.183029e+02  -1.549196e+02
  -3.102160e+01  -2.278523e+02
   9.877652e+01  -1.751941e+02
   1.783313e+02  -2.321679e+01
   1.402605e+02   1.214072e+02
   2.195100e+01   1.619612e+02
  -6.612076e+01   9.607406e+01
  -6.041821e+01   4.128392e+00
  -7.154230e+00  -4.076636e+01
   6.932537e+00  -3.488350e+01
  -3.814981e+01  -1.991478e+01
  -7.838936e+01  -2.373221e+01
  -4.384955e+01  -3.779798e+01
   6.184149e+01  -3.669783e+01
   1.552720e+02  -4.650966e+00
   1.440206e+02   4.861484e+01
   1.924993e+01   8.731359e+01
  -1.180364e+02   7.509273e+01
  -1.460068e+02   1.553892e+01
  -4.995344e+01  -3.915827e+01
   6.024941e+01  -3.638502e+01
   7.576627e+01   1.910017e+01
   5.623513e+00   6.724427e+01
  -5.770403e+01   5.625931e+01
  -6.233641e+01  -2.829304e+00
  -4.149947e+01  -4.973683e+01
  -4.272944e+01  -4.156251e+01
  -6.280811e+01  -2.547319e+00
  -6.667195e+01  -5.369970e-01
  -3.358417e+01  -6.655810e+01
   3.381638e+01  -1.444123e+02
   1.144215e+02  -1.409143e+02
   1.611220e+02  -3.387307e+01
   1.222007e+02   9.016886e+01
   7.906419e+00   1.251213e+02
  -8.451076e+01   6.033203e+01
  -5.949580e+01  -1.579277e+01
   5.947668e+01  -2.004618e+01
   1.387746e+02   4.393935e+01
   7.750925e+01   1.079968e+02
  -8.022447e+01   1.137720e+02
  -1.923210e+02   5.417524e+01
  -1.649858e+02  -3.231769e+01
  -3.904783e+01  -8.754796e+01
   6.063655e+01  -7.270701e+01
   4.962371e+01  -9.276501e+00
  -3.837470e+01   2.622362e+01
  -9.029947e+01  -2.301120e+01
  -3.165535e+01  -1.194008e+02
   9.397837e+01  -1.540923e+02
   1.696670e+02  -6.066186e+01
   1.269460e+02   1.026797e+02
   9.108687e+00   1.991510e+02
  -8.653579e+01   1.454702e+02
  -1.053312e+02  -5.595021e+00
  -6.236525e+01  -1.180074e+02
  -6.652384e-01  -1.081148e+02
   4.495998e+01  -2.172467e+01
   5.372855e+01   3.124851e+01
   2.794934e+01   9.172850e+00
   3.612611e+00  -2.138530e+01
   1.880435e+01   1.346600e+01
   5.558266e+01   8.840883e+01
   4.429248e+01   1.110683e+02
  -4.515808e+01   4.633305e+01
  -1.393025e+02  -4.015752e+01
  -1.319549e+02  -7.182999e+01
  -1.759233e+01  -4.910903e+01
   8.974981e+01  -2.121410e+01
   8.918474e+01  -8.058271e+00
   9.615035e+00   6.259525e+00
  -3.963810e+01   2.247308e+01
  -1.322251e+01   1.958840e+01
   2.278045e+01  -7.557478e-01
  -6.233389e+00  -9.973529e+00
  -7.598219e+01  -5.369762e+00
  -9.129792e+01  -2.452566e+01
  -5.441544e+00  -7.986376e+01
   1.213434e+02  -1.129186e+02
   1.852092e+02  -5.638924e+01
   1.390031e+02   6.946808e+01
   2.384070e+01   1.627267e+02
  -7.904707e+01   1.487671e+02
  -1.137355e+02   5.679486e+01
  -8.060715e+01  -2.233070e+01
  -2.457080e+01  -3.489412e+01
   4.063010e+00  -7.586146e+00
  -9.546443e+00  -3.004461e+00
  -3.377868e+01  -4.514488e+01
  -2.366292e+01  -9.007932e+01
   2.940298e+01  -7.160264e+01
   8.166360e+01   1.965330e+01
   7.596168e+01   1.100764e+02
   1.681220e+00   1.124420e+02
  -8.391705e+01   2.148594e+01
  -1.019448e+02  -7.812031e+01
  -2.990299e+01  -1.035716e+02
   6.702398e+01  -5.340984e+01
   9.641795e+01   1.301163e+01
   3.776230e+01   4.896070e+01
  -3.234725e+01   4.954564e+01
  -2.943569e+01   2.809339e+01
   3.562800e+01   1.073126e+00
   6.952209e+01  -5.928164e+00
   1.412997e+01   2.458005e+01
  -7.964542e+01   6.582579e+01
  -1.147625e+02   5.957810e+01
  -6.230008e+01  -1.086477e+01
   1.653801e+01  -8.245377e+01
   5.209020e+01  -7.850607e+01
   3.507962e+01  -4.149571e+00
  -1.007315e-01   5.652110e+01
  -2.623502e+01   4.151262e+01
  -3.601080e+01  -2.019351e+01
  -2.586011e+01  -5.409505e+01
   3.226952e+00  -3.124651e+01
   3.291983e+01   9.442583e+00
   3.917961e+01   2.020187e+01
   2.062950e+01   3.537604e-01
  -1.251165e-01  -1.281788e+01
  -7.155735e+00   5.392136e+00
  -9.070760e+00   3.726491e+01
  -1.976351e+01   4.255246e+01
  -3.303557e+01   4.389180e+00
  -2.752446e+01  -4.698971e+01
   5.541540e+00  -6.078878e+01
   4.549424e+01  -1.911078e+01
   5.477594e+01   4.070713e+01
   1.298559e+01   6.359859e+01
  -5.452007e+01   3.328029e+01
  -8.760841e+01  -1.665446e+01
  -4.838894e+01  -4.441455e+01
   2.892737e+01  -3.951430e+01
   6.456882e+01  -1.955238e+01
   2.316334e+01  -4.359269e+00
  -3.894969e+01  -3.813402e+00
  -3.827586e+01  -1.799636e+01
   3.260973e+01  -3.211968e+01
   9.396696e+01  -1.860981e+01
