
 $NMID
 id='ANONYMOUS ', fmtdat='(2E16.6)'
 volume=1.0
 tramp=1.0
 $END
   4.610646e+03   4.718387e+01
   2.627983e+03   2.836926e+03
  -8.752662e+02   2.910991e+03
  -2.290738e+03   8.511347e+02
  -9.706571e+02  -7.868031e+02
   7.619097e+02  -6.282652e+02
   9.692282e+02   5.003298e+02
  -3.340400e+01   1.159723e+03
  -9.126230e+02   8.149613e+02
  -1.001522e+03  -1.360999e+02
  -4.522468e+02  -9.404334e+02
   2.930391e+02  -9.432549e+02
   6.981823e+02  -1.003901e+02
   4.001547e+02   7.848920e+02
  -3.097307e+02   7.945534e+02
  -6.519483e+02  -2.729304e+01
  -2.680840e+02  -7.336652e+02
   3.685422e+02  -6.543440e+02
   6.198957e+02  -6.574368e+01
   3.904692e+02   3.905487e+02
  -2.121505e+00   4.614588e+02
  -2.675192e+02   2.710600e+02
  -2.350063e+02   8.301450e+00
   1.120608e+02  -1.054020e+02
   4.323192e+02   1.068544e+02
   2.205452e+02   4.560704e+02
  -4.812106e+02   4.442969e+02
  -9.027230e+02  -7.998057e+01
  -4.587554e+02  -5.943655e+02
   4.210224e+02  -5.238268e+02
   7.965381e+02   3.835525e+01
   3.684892e+02   5.170525e+02
  -3.024498e+02   5.498285e+02
  -6.016419e+02   2.081565e+02
  -4.382477e+02  -2.496302e+02
  -6.533390e+01  -5.105216e+02
   2.274527e+02  -3.030023e+02
   1.965342e+02   2.399212e+02
  -1.754743e+02   4.790033e+02
  -4.865719e+02  -1.260544e+01
  -2.675449e+02  -7.291211e+02
   3.475216e+02  -7.514081e+02
   6.564485e+02   2.750179e+00
   2.770660e+02   6.032756e+02
  -3.208100e+02   3.469631e+02
  -4.174215e+02  -3.456582e+02
   7.237775e+01  -5.826877e+02
   5.882368e+02  -1.425643e+02
   6.219784e+02   4.331333e+02
   1.651092e+02   6.187243e+02
  -4.095116e+02   3.622533e+02
  -6.631077e+02  -8.631157e+01
  -3.872956e+02  -4.176995e+02
   1.751986e+02  -3.919783e+02
   4.776834e+02  -4.981881e+01
   2.523907e+02   2.251265e+02
  -1.376758e+02   1.202293e+02
  -1.589152e+02  -1.724990e+02
   1.795176e+02  -2.071645e+02
   3.733495e+02   8.339465e+01
   1.456896e+02   3.250187e+02
  -2.218252e+02   2.674766e+02
  -3.434142e+02   6.229757e+01
  -1.924065e+02  -9.117214e+01
   3.184856e+01  -2.176886e+02
   2.226680e+02  -3.256184e+02
   3.453441e+02  -2.276615e+02
   3.057309e+02   1.394875e+02
   8.204499e+01   4.599157e+02
  -1.320363e+02   4.056300e+02
  -1.398083e+02   1.100050e+02
  -2.662509e+01  -2.644564e+01
  -3.349835e+01   8.403487e+01
  -1.936987e+02   1.409030e+02
  -2.910055e+02  -4.705262e+01
  -1.716252e+02  -2.809780e+02
   7.179849e+01  -2.728966e+02
   2.393369e+02  -1.670021e+01
   2.104519e+02   2.488677e+02
  -7.444985e+00   3.097161e+02
  -2.776616e+02   1.256915e+02
  -3.778601e+02  -1.742527e+02
  -1.929600e+02  -3.706802e+02
   1.107332e+02  -3.222230e+02
   2.439627e+02  -1.199436e+02
   1.576145e+02   5.624254e+00
   9.666455e+01  -2.944001e+01
   2.342200e+02  -6.701708e+01
   4.088304e+02   5.756451e+01
   3.399027e+02   2.936558e+02
  -3.163431e+00   4.548294e+02
  -3.700240e+02   4.226255e+02
  -5.041215e+02   2.056077e+02
  -3.516582e+02  -9.712798e+01
  -5.904952e+01  -3.087365e+02
   1.405334e+02  -2.677791e+02
   9.451791e+01  -2.995672e+01
  -1.123343e+02   1.193869e+02
  -2.115955e+02  -2.550435e+00
  -5.701771e+01  -2.101508e+02
   1.737422e+02  -1.864752e+02
   1.947584e+02   6.441648e+01
  -1.719631e+01   2.079748e+02
  -2.053640e+02   3.728056e+01
  -1.680608e+02  -2.585272e+02
   3.769209e+01  -3.600949e+02
   2.375700e+02  -1.926610e+02
   3.289375e+02   6.885712e+01
   2.810718e+02   2.436739e+02
   9.926399e+01   2.688303e+02
  -1.153334e+02   1.662448e+02
  -1.867303e+02   2.250669e+01
  -6.424296e+01  -3.623709e+01
   7.389920e+01   3.662803e+01
   3.450166e+01   1.302929e+02
  -1.280333e+02   1.067761e+02
  -1.885637e+02  -1.201025e+01
  -6.387314e+01  -7.771905e+01
   8.155612e+01  -2.089152e+01
   5.830172e+01   7.191191e+01
  -1.229321e+02   8.676496e+01
  -2.843088e+02  -1.514858e-01
  -2.681204e+02  -1.403592e+02
  -6.428891e+01  -2.593839e+02
   1.867807e+02  -2.696898e+02
   2.941572e+02  -1.323993e+02
   1.800350e+02   5.492600e+01
  -2.467667e+01   1.179023e+02
  -9.809004e+01   1.052697e+01
   3.051285e+01  -1.073554e+02
   2.029241e+02  -6.413397e+01
   2.228004e+02   1.063221e+02
   7.221521e+01   2.175756e+02
  -9.899260e+01   1.657251e+02
  -1.515153e+02   3.110279e+01
  -7.664920e+01  -4.396932e+01
   2.546497e+01  -7.123421e+00
   3.898157e+01   8.000495e+01
  -6.912461e+01   1.131232e+02
  -1.993929e+02   3.083565e+01
  -1.963738e+02  -1.249910e+02
  -2.243391e+01  -2.249142e+02
   1.713727e+02  -1.697786e+02
   2.031571e+02  -4.457272e+00
   6.847672e+01   1.219086e+02
  -7.020774e+01   1.174506e+02
  -8.840926e+01   3.217492e+01
  -2.214286e+01  -2.690019e+01
   1.911894e+01  -2.058175e+01
  -1.027363e+01   4.764350e+00
  -6.866937e+01  -1.146693e+01
  -8.570069e+01  -8.214931e+01
  -1.477386e+01  -1.574784e+02
   1.260914e+02  -1.536934e+02
   2.367610e+02  -2.777092e+01
   2.064926e+02   1.522669e+02
   4.233977e+01   2.442247e+02
  -1.140021e+02   1.750854e+02
  -1.407054e+02   2.623926e+01
  -7.133932e+01  -5.975079e+01
  -2.799689e+01  -3.829442e+01
  -5.411164e+01   1.150312e+01
  -7.976451e+01   5.681989e+00
  -3.937946e+01  -4.954410e+01
   4.424790e+01  -8.549033e+01
   1.006858e+02  -5.280822e+01
   8.239138e+01   3.496720e+01
  -1.370625e+01   1.081366e+02
  -1.400679e+02   8.540423e+01
  -1.981790e+02  -4.994361e+01
  -1.040663e+02  -2.028747e+02
   1.056418e+02  -2.332928e+02
   2.722443e+02  -9.942593e+01
   2.647897e+02   8.813075e+01
   1.131170e+02   1.825652e+02
  -4.022266e+01   1.519625e+02
  -9.834687e+01   8.613509e+01
  -8.341273e+01   7.026068e+01
  -7.044618e+01   9.142325e+01
  -9.504189e+01   7.363737e+01
  -1.296230e+02  -2.423535e+01
  -1.181116e+02  -1.577462e+02
  -2.901907e+01  -2.304413e+02
   1.014192e+02  -1.757928e+02
   1.799452e+02  -2.151503e+01
   1.399938e+02   1.239631e+02
   2.031385e+01   1.634427e+02
  -6.772654e+01   9.574987e+01
  -6.076166e+01   2.935920e+00
  -6.181605e+00  -4.143654e+01
   8.008522e+00  -3.477262e+01
  -3.820579e+01  -2.000427e+01
  -7.933813e+01  -2.471276e+01
  -4.409790e+01  -3.885969e+01
   6.331332e+01  -3.632907e+01
   1.574371e+02  -2.530943e+00
   1.447652e+02   5.104898e+01
   1.771561e+01   8.832947e+01
  -1.205432e+02   7.430589e+01
  -1.474868e+02   1.395153e+01
  -4.966789e+01  -4.029976e+01
   6.142475e+01  -3.643270e+01
   7.650156e+01   2.007414e+01
   5.304448e+00   6.854981e+01
  -5.873628e+01   5.688623e+01
  -6.331504e+01  -3.446132e+00
  -4.196663e+01  -5.109494e+01
  -4.291408e+01  -4.261647e+01
  -6.324430e+01  -2.995686e+00
  -6.732252e+01  -1.175295e+00
  -3.350738e+01  -6.805626e+01
   3.557584e+01  -1.460844e+02
   1.175282e+02  -1.412264e+02
   1.638272e+02  -3.219509e+01
   1.228110e+02   9.269831e+01
   6.389507e+00   1.266860e+02
  -8.649676e+01   6.026058e+01
  -6.020048e+01  -1.644855e+01
   6.028755e+01  -1.973437e+01
   1.397416e+02   4.557239e+01
   7.710522e+01   1.096993e+02
  -8.219886e+01   1.139803e+02
  -1.945709e+02   5.262836e+01
  -1.659674e+02  -3.435147e+01
  -3.839585e+01  -8.859256e+01
   6.184281e+01  -7.243844e+01
   4.997138e+01  -8.579441e+00
  -3.921707e+01   2.624961e+01
  -9.122304e+01  -2.407803e+01
  -3.120559e+01  -1.210783e+02
   9.604810e+01  -1.552736e+02
   1.719418e+02  -6.029743e+01
   1.275983e+02   1.046344e+02
   7.696336e+00   2.013430e+02
  -8.860737e+01   1.461574e+02
  -1.062316e+02  -6.826887e+00
  -6.160704e+01  -1.197822e+02
   6.922875e-01  -1.087932e+02
   4.570423e+01  -2.114304e+01
   5.371350e+01   3.194445e+01
   2.784796e+01   9.228598e+00
   3.842394e+00  -2.140429e+01
   1.906768e+01   1.430780e+01
   5.536316e+01   9.000161e+01
   4.344883e+01   1.122168e+02
  -4.634285e+01   4.602298e+01
  -1.403723e+02  -4.175061e+01
  -1.324508e+02  -7.357953e+01
  -1.724081e+01  -4.995837e+01
   9.073455e+01  -2.094673e+01
   9.008193e+01  -7.277817e+00
   9.784559e+00   6.769298e+00
  -4.009013e+01   2.242388e+01
  -1.359576e+01   1.931245e+01
   2.285338e+01  -8.312016e-01
  -6.199119e+00  -9.922977e+00
  -7.660348e+01  -5.728748e+00
  -9.218111e+01  -2.560743e+01
  -5.239214e+00  -8.119912e+01
   1.234108e+02  -1.134946e+02
   1.880985e+02  -5.551224e+01
   1.405660e+02   7.150760e+01
   2.291917e+01   1.648164e+02
  -8.151035e+01   1.498240e+02
  -1.158197e+02   5.656057e+01
  -8.135145e+01  -2.323311e+01
  -2.449945e+01  -3.565265e+01
   4.096160e+00  -7.957662e+00
  -9.635414e+00  -3.402889e+00
  -3.351224e+01  -4.600538e+01
  -2.285354e+01  -9.118566e+01
   3.040278e+01  -7.211631e+01
   8.237542e+01   2.041198e+01
   7.608435e+01   1.118156e+02
   1.097446e+00   1.139129e+02
  -8.499072e+01   2.148774e+01
  -1.027588e+02  -7.959054e+01
  -2.960560e+01  -1.052084e+02
   6.841336e+01  -5.379599e+01
   9.772263e+01   1.405658e+01
   3.776766e+01   5.032940e+01
  -3.350938e+01   5.013256e+01
  -3.039584e+01   2.791633e+01
   3.586311e+01   9.755184e-01
   7.037227e+01  -5.466718e+00
   1.413021e+01   2.516653e+01
  -8.109237e+01   6.581697e+01
  -1.166360e+02   5.880302e+01
  -6.303058e+01  -1.197058e+01
   1.745693e+01  -8.335859e+01
   5.369784e+01  -7.889439e+01
   3.602458e+01  -3.920809e+00
  -2.957782e-01   5.717175e+01
  -2.698127e+01   4.200197e+01
  -3.647111e+01  -2.045069e+01
  -2.573439e+01  -5.498443e+01
   3.668470e+00  -3.189409e+01
   3.331029e+01   9.720933e+00
   3.939449e+01   2.102271e+01
   2.075699e+01   7.017059e-01
   3.343515e-02  -1.327408e+01
  -6.954077e+00   4.948782e+00
  -8.978427e+00   3.771038e+01
  -2.000887e+01   4.358543e+01
  -3.364105e+01   4.834659e+00
  -2.809638e+01  -4.767895e+01
   5.550109e+00  -6.179250e+01
   4.615723e+01  -1.923237e+01
   5.543415e+01   4.159863e+01
   1.282719e+01   6.446839e+01
  -5.557391e+01   3.317653e+01
  -8.872660e+01  -1.761400e+01
  -4.861825e+01  -4.537635e+01
   2.974321e+01  -3.988593e+01
   6.568765e+01  -1.942869e+01
   2.370720e+01  -4.143828e+00
  -3.916638e+01  -3.746475e+00
  -3.864084e+01  -1.806772e+01
   3.281069e+01  -3.216693e+01
   9.472674e+01  -1.837631e+01
