
 $NMID
 id='ANONYMOUS ', fmtdat='(2E16.6)'
 volume=1.0
 tramp=1.0
 $END
  -4.594551e+03   2.798412e+01
  -2.658009e+03  -2.795472e+03
   8.429688e+02  -2.917882e+03
   2.282904e+03  -8.682835e+02
   9.762192e+02   7.919424e+02
  -7.643858e+02   6.486597e+02
  -9.844124e+02  -4.883794e+02
   1.523734e+01  -1.164241e+03
   9.017050e+02  -8.276162e+02
   1.002760e+03   1.244380e+02
   4.633220e+02   9.347286e+02
  -2.828416e+02   9.460866e+02
  -7.001446e+02   1.089522e+02
  -4.131883e+02  -7.793132e+02
   2.986404e+02  -7.976743e+02
   6.521082e+02   1.926182e+01
   2.758944e+02   7.281019e+02
  -3.614880e+02   6.538466e+02
  -6.168885e+02   6.858257e+01
  -3.909593e+02  -3.866560e+02
  -1.210353e+00  -4.594526e+02
   2.644076e+02  -2.731147e+02
   2.371489e+02  -1.044163e+01
  -1.059913e+02   1.113044e+02
  -4.321867e+02  -9.334004e+01
  -2.319378e+02  -4.486508e+02
   4.674863e+02  -4.541446e+02
   9.008283e+02   6.095461e+01
   4.699990e+02   5.857411e+02
  -4.092210e+02   5.334703e+02
  -7.953411e+02  -2.180616e+01
  -3.776256e+02  -5.087435e+02
   2.906967e+02  -5.535238e+02
   5.949986e+02  -2.175507e+02
   4.403753e+02   2.421050e+02
   7.257262e+01   5.091923e+02
  -2.252624e+02   3.071349e+02
  -2.053003e+02  -2.371381e+02
   1.643787e+02  -4.849603e+02
   4.882903e+02  -1.035649e-02
   2.836111e+02   7.216565e+02
  -3.333190e+02   7.568102e+02
  -6.579677e+02   8.668553e+00
  -2.886278e+02  -5.992820e+02
   3.155570e+02  -3.543347e+02
   4.248300e+02   3.360938e+02
  -6.065651e+01   5.819995e+02
  -5.826082e+02   1.527608e+02
  -6.250205e+02  -4.196707e+02
  -1.731534e+02  -6.121996e+02
   4.018401e+02  -3.671766e+02
   6.605840e+02   7.535359e+01
   3.909487e+02   4.114306e+02
  -1.701280e+02   3.952230e+02
  -4.767687e+02   5.628286e+01
  -2.546917e+02  -2.241764e+02
   1.379410e+02  -1.243959e+02
   1.633750e+02   1.710708e+02
  -1.758009e+02   2.120286e+02
  -3.744362e+02  -7.712888e+01
  -1.500124e+02  -3.226267e+02
   2.171087e+02  -2.684534e+02
   3.386930e+02  -6.438464e+01
   1.891600e+02   8.745514e+01
  -2.915028e+01   2.124613e+02
  -2.131796e+02   3.232368e+02
  -3.366165e+02   2.317746e+02
  -3.059650e+02  -1.321276e+02
  -8.939153e+01  -4.557712e+02
   1.267254e+02  -4.056981e+02
   1.402783e+02  -1.095624e+02
   2.724164e+01   2.966605e+01
   2.893286e+01  -8.194592e+01
   1.870286e+02  -1.442478e+02
   2.891525e+02   3.967328e+01
   1.762263e+02   2.751629e+02
  -6.567759e+01   2.728307e+02
  -2.372292e+02   2.206190e+01
  -2.138293e+02  -2.423559e+02
   1.181998e+00  -3.075496e+02
   2.729157e+02  -1.303434e+02
   3.778842e+02   1.661110e+02
   1.972352e+02   3.652312e+02
  -1.060010e+02   3.219137e+02
  -2.416492e+02   1.215205e+02
  -1.565509e+02  -5.689979e+00
  -9.372110e+01   2.904423e+01
  -2.288343e+02   7.029366e+01
  -4.043276e+02  -4.964920e+01
  -3.406254e+02  -2.847067e+02
  -4.401690e+00  -4.496245e+02
   3.586374e+02  -4.236168e+02
   4.953725e+02  -2.116739e+02
   3.506689e+02   9.019720e+01
   6.444925e+01   3.055178e+02
  -1.357839e+02   2.689386e+02
  -9.541341e+01   3.126505e+01
   1.085433e+02  -1.219142e+02
   2.112371e+02  -2.166836e+00
   6.130931e+01   2.084543e+02
  -1.700244e+02   1.895392e+02
  -1.959284e+02  -6.056657e+01
   1.309018e+01  -2.078890e+02
   2.033658e+02  -4.125704e+01
   1.704727e+02   2.534311e+02
  -3.228342e+01   3.568440e+02
  -2.317133e+02   1.933148e+02
  -3.250452e+02  -6.349871e+01
  -2.811418e+02  -2.358575e+02
  -1.031671e+02  -2.635775e+02
   1.108392e+02  -1.665961e+02
   1.850480e+02  -2.573752e+01
   6.500316e+01   3.532137e+01
  -7.406567e+01  -3.417563e+01
  -3.728370e+01  -1.284205e+02
   1.247118e+02  -1.086063e+02
   1.875707e+02   8.330516e+00
   6.536936e+01   7.628188e+01
  -7.999219e+01   2.286938e+01
  -5.911820e+01  -6.935831e+01
   1.193055e+02  -8.731250e+01
   2.800719e+02  -4.658414e+00
   2.670081e+02   1.335947e+02
   6.846638e+01   2.548338e+02
  -1.795449e+02   2.700800e+02
  -2.890642e+02   1.364057e+02
  -1.799660e+02  -5.156228e+01
   2.219585e+01  -1.179855e+02
   9.764986e+01  -1.254621e+01
  -2.765618e+01   1.071634e+02
  -1.997926e+02   6.743758e+01
  -2.227049e+02  -1.015157e+02
  -7.525994e+01  -2.145987e+02
   9.540803e+01  -1.661381e+02
   1.498904e+02  -3.359153e+01
   7.734514e+01   4.231866e+01
  -2.433090e+01   8.192453e+00
  -3.986119e+01  -7.740808e+01
   6.571977e+01  -1.123953e+02
   1.959430e+02  -3.392868e+01
   1.961645e+02   1.200869e+02
   2.599551e+01   2.221951e+02
  -1.670400e+02   1.709227e+02
  -2.014901e+02   7.419022e+00
  -7.003258e+01  -1.201309e+02
   6.770262e+01  -1.177904e+02
   8.735551e+01  -3.344812e+01
   2.294185e+01   2.616514e+01
  -1.792644e+01   2.086467e+01
   1.025038e+01  -4.205867e+00
   6.742943e+01   1.084816e+01
   8.516483e+01   7.965757e+01
   1.693930e+01   1.546655e+02
  -1.216755e+02   1.535416e+02
  -2.331936e+02   3.151161e+01
  -2.065854e+02  -1.469652e+02
  -4.573211e+01  -2.409921e+02
   1.102565e+02  -1.751692e+02
   1.389475e+02  -2.793810e+01
   7.136019e+01   5.844772e+01
   2.809061e+01   3.772808e+01
   5.322960e+01  -1.206260e+01
   7.843069e+01  -6.704744e+00
   3.902776e+01   4.819162e+01
  -4.268624e+01   8.443362e+01
  -9.801922e+01   5.301608e+01
  -8.102121e+01  -3.315030e+01
   1.194172e+01  -1.062517e+02
   1.362946e+02  -8.610982e+01
   1.960724e+02   4.589269e+01
   1.063379e+02   1.983059e+02
  -1.001263e+02   2.321837e+02
  -2.673649e+02   1.028605e+02
  -2.634289e+02  -8.285285e+01
  -1.149836e+02  -1.789233e+02
   3.735705e+01  -1.511145e+02
   9.610388e+01  -8.679164e+01
   8.175722e+01  -7.072660e+01
   6.860731e+01  -9.130336e+01
   9.293868e+01  -7.396493e+01
   1.283284e+02   2.220794e+01
   1.189705e+02   1.541388e+02
   3.220557e+01   2.272590e+02
  -9.749736e+01   1.754102e+02
  -1.776197e+02   2.432358e+01
  -1.405113e+02  -1.201280e+02
  -2.290541e+01  -1.612549e+02
   6.510440e+01  -9.599674e+01
   5.978596e+01  -4.346055e+00
   6.968082e+00   4.037020e+01
  -6.797153e+00   3.430101e+01
   3.842117e+01   1.937472e+01
   7.858630e+01   2.347466e+01
   4.392190e+01   3.770964e+01
  -6.168091e+01   3.663725e+01
  -1.548693e+02   4.891479e+00
  -1.436436e+02  -4.784279e+01
  -1.934106e+01  -8.653363e+01
   1.174654e+02  -7.511363e+01
   1.454375e+02  -1.626682e+01
   4.975765e+01   3.869762e+01
  -6.020352e+01   3.665964e+01
  -7.579872e+01  -1.875892e+01
  -5.781608e+00  -6.752736e+01
   5.761751e+01  -5.682898e+01
   6.243486e+01   2.688846e+00
   4.168782e+01   4.994131e+01
   4.283771e+01   4.144962e+01
   6.275567e+01   2.007684e+00
   6.657189e+01   1.474976e-01
   3.371583e+01   6.662664e+01
  -3.328107e+01   1.446115e+02
  -1.137202e+02   1.409942e+02
  -1.607547e+02   3.407771e+01
  -1.223754e+02  -8.968837e+01
  -8.289480e+00  -1.247614e+02
   8.437058e+01  -6.045426e+01
   5.965470e+01   1.554947e+01
  -5.931628e+01   2.036623e+01
  -1.388927e+02  -4.302111e+01
  -7.801097e+01  -1.072527e+02
   7.939774e+01  -1.139353e+02
   1.914896e+02  -5.518901e+01
   1.646812e+02   3.117865e+01
   3.951451e+01   8.698129e+01
  -5.984508e+01   7.281106e+01
  -4.920523e+01   9.541628e+00
   3.833687e+01  -2.634058e+01
   9.041807e+01   2.258956e+01
   3.235219e+01   1.193398e+02
  -9.311674e+01   1.548380e+02
  -1.694429e+02   6.183209e+01
  -1.276703e+02  -1.018841e+02
  -1.034506e+01  -1.990824e+02
   8.552706e+01  -1.458783e+02
   1.050607e+02   5.003993e+00
   6.283066e+01   1.173249e+02
   1.370205e+00   1.075708e+02
  -4.459233e+01   2.173138e+01
  -5.378718e+01  -3.068849e+01
  -2.800395e+01  -8.692256e+00
  -3.386935e+00   2.130765e+01
  -1.863746e+01  -1.369478e+01
  -5.593109e+01  -8.807877e+01
  -4.498240e+01  -1.103432e+02
   4.475729e+01  -4.619762e+01
   1.394300e+02   3.927448e+01
   1.322376e+02   7.078536e+01
   1.770902e+01   4.898633e+01
  -8.966158e+01   2.193172e+01
  -8.896679e+01   8.592717e+00
  -9.489285e+00  -6.432835e+00
   3.943948e+01  -2.280521e+01
   1.291383e+01  -1.944731e+01
  -2.283509e+01   1.107625e+00
   6.402532e+00   9.827638e+00
   7.610398e+01   4.687826e+00
   9.141316e+01   2.407075e+01
   5.834755e+00   8.022551e+01
  -1.207679e+02   1.138447e+02
  -1.850241e+02   5.721873e+01
  -1.395569e+02  -6.906495e+01
  -2.477440e+01  -1.626809e+02
   7.838127e+01  -1.489935e+02
   1.135876e+02  -5.725087e+01
   8.073432e+01   2.188437e+01
   2.463838e+01   3.478956e+01
  -4.172398e+00   7.795119e+00
   9.397753e+00   3.083241e+00
   3.385719e+01   4.482224e+01
   2.406970e+01   8.969124e+01
  -2.900559e+01   7.168522e+01
  -8.181699e+01  -1.910777e+01
  -7.671292e+01  -1.096793e+02
  -2.341217e+00  -1.126876e+02
   8.402397e+01  -2.218052e+01
   1.026465e+02   7.760754e+01
   3.044223e+01   1.036158e+02
  -6.699903e+01   5.381189e+01
  -9.655987e+01  -1.270971e+01
  -3.772586e+01  -4.896048e+01
   3.241358e+01  -4.962315e+01
   2.930704e+01  -2.790792e+01
  -3.579181e+01  -6.014857e-01
  -6.951130e+01   6.323297e+00
  -1.417136e+01  -2.460963e+01
   7.921411e+01  -6.621070e+01
   1.141603e+02  -5.992827e+01
   6.212920e+01   1.079702e+01
  -1.616595e+01   8.255108e+01
  -5.177413e+01   7.853429e+01
  -3.529061e+01   4.049730e+00
  -3.274439e-01  -5.667688e+01
   2.618713e+01  -4.169522e+01
   3.637197e+01   1.999823e+01
   2.613044e+01   5.398876e+01
  -3.306804e+00   3.131815e+01
  -3.306837e+01  -9.269904e+00
  -3.910065e+01  -2.006735e+01
  -2.048064e+01  -2.579351e-01
  -9.113628e-03   1.292330e+01
   6.718089e+00  -5.420790e+00
   8.694523e+00  -3.764630e+01
   1.979307e+01  -4.316873e+01
   3.348349e+01  -4.758290e+00
   2.811234e+01   4.717644e+01
  -5.165007e+00   6.129645e+01
  -4.554074e+01   1.949119e+01
  -5.517322e+01  -4.060653e+01
  -1.340884e+01  -6.366404e+01
   5.438296e+01  -3.346813e+01
   8.777771e+01   1.634331e+01
   4.861364e+01   4.419527e+01
  -2.887269e+01   3.964687e+01
  -6.466226e+01   1.985864e+01
  -2.320344e+01   4.310276e+00
   3.912924e+01   3.291036e+00
   3.866653e+01   1.762698e+01
  -3.220460e+01   3.252590e+01
  -9.383649e+01   1.954166e+01
