
 $NMID
 id='ANONYMOUS ', fmtdat='(2E16.6)'
 volume=1.0
 tramp=1.0
 $END
   4.780933e+03  -6.748820e+00
   2.739674e+03   2.933320e+03
  -9.147725e+02   3.028892e+03
  -2.390440e+03   8.661051e+02
  -9.981173e+02  -8.562118e+02
   8.213445e+02  -6.776387e+02
   1.032562e+03   5.239724e+02
  -2.574348e+01   1.221001e+03
  -9.494780e+02   8.555043e+02
  -1.044047e+03  -1.416350e+02
  -4.724401e+02  -9.800383e+02
   3.070455e+02  -9.824553e+02
   7.355577e+02  -1.046022e+02
   4.267483e+02   8.182027e+02
  -3.186146e+02   8.285887e+02
  -6.799450e+02  -2.728319e+01
  -2.791414e+02  -7.595204e+02
   3.837006e+02  -6.716825e+02
   6.398773e+02  -5.973854e+01
   3.980219e+02   4.072039e+02
  -5.908946e+00   4.760124e+02
  -2.787018e+02   2.804219e+02
  -2.499674e+02   6.475299e+00
   1.078002e+02  -1.222634e+02
   4.512930e+02   9.172879e+01
   2.458016e+02   4.672205e+02
  -4.843355e+02   4.765581e+02
  -9.387668e+02  -6.294269e+01
  -4.897467e+02  -6.142772e+02
   4.281458e+02  -5.594983e+02
   8.301552e+02   2.280548e+01
   3.931371e+02   5.315047e+02
  -3.034189e+02   5.761689e+02
  -6.190402e+02   2.243356e+02
  -4.564449e+02  -2.545594e+02
  -7.140485e+01  -5.318024e+02
   2.408226e+02  -3.189547e+02
   2.187289e+02   2.515080e+02
  -1.720818e+02   5.107499e+02
  -5.139045e+02   1.984185e+00
  -2.980557e+02  -7.537860e+02
   3.506358e+02  -7.891722e+02
   6.896669e+02  -5.180829e+00
   2.996910e+02   6.293620e+02
  -3.333138e+02   3.706967e+02
  -4.450243e+02  -3.512559e+02
   6.365421e+01  -6.063954e+02
   6.060160e+02  -1.579656e+02
   6.469095e+02   4.369110e+02
   1.760941e+02   6.353917e+02
  -4.194133e+02   3.797142e+02
  -6.851166e+02  -8.120832e+01
  -4.020900e+02  -4.312238e+02
   1.820260e+02  -4.118682e+02
   4.979194e+02  -5.423569e+01
   2.618311e+02   2.391553e+02
  -1.483710e+02   1.305666e+02
  -1.711726e+02  -1.818458e+02
   1.853959e+02  -2.229215e+02
   3.905232e+02   8.264453e+01
   1.535417e+02   3.376800e+02
  -2.271074e+02   2.760993e+02
  -3.484783e+02   6.234283e+01
  -1.916210e+02  -9.003222e+01
   3.058532e+01  -2.145547e+02
   2.174097e+02  -3.307934e+02
   3.465658e+02  -2.401942e+02
   3.173503e+02   1.363377e+02
   9.144007e+01   4.733791e+02
  -1.357493e+02   4.201088e+02
  -1.489482e+02   1.094266e+02
  -2.707261e+01  -3.565945e+01
  -2.586146e+01   8.351433e+01
  -1.911418e+02   1.514859e+02
  -2.997680e+02  -3.907965e+01
  -1.836125e+02  -2.850137e+02
   6.785470e+01  -2.838421e+02
   2.463890e+02  -2.403326e+01
   2.222929e+02   2.506188e+02
  -8.212334e-01   3.190811e+02
  -2.828030e+02   1.356820e+02
  -3.911954e+02  -1.724765e+02
  -2.025559e+02  -3.794273e+02
   1.126071e+02  -3.329577e+02
   2.519117e+02  -1.226947e+02
   1.611269e+02   9.668449e+00
   9.437147e+01  -2.833880e+01
   2.341699e+02  -7.303040e+01
   4.161085e+02   5.080245e+01
   3.505607e+02   2.939574e+02
   3.990589e+00   4.635770e+02
  -3.700403e+02   4.360621e+02
  -5.116237e+02   2.175660e+02
  -3.632250e+02  -9.401953e+01
  -6.673775e+01  -3.170805e+02
   1.426852e+02  -2.789538e+02
   1.014820e+02  -3.124414e+01
  -1.122395e+02   1.282709e+02
  -2.207612e+02   2.614454e+00
  -6.409151e+01  -2.176271e+02
   1.781408e+02  -1.975292e+02
   2.047629e+02   6.376213e+01
  -1.398749e+01   2.169907e+02
  -2.113369e+02   4.312746e+01
  -1.752767e+02  -2.623533e+02
   3.504003e+01  -3.678337e+02
   2.388154e+02  -1.977130e+02
   3.331980e+02   6.645478e+01
   2.888400e+02   2.428084e+02
   1.069793e+02   2.715035e+02
  -1.141243e+02   1.722357e+02
  -1.920151e+02   2.646301e+01
  -6.785526e+01  -3.754637e+01
   7.714726e+01   3.450557e+01
   3.945412e+01   1.331055e+02
  -1.289965e+02   1.130076e+02
  -1.947522e+02  -8.696063e+00
  -6.825713e+01  -7.973702e+01
   8.250943e+01  -2.465285e+01
   6.153440e+01   7.077528e+01
  -1.219804e+02   8.958871e+01
  -2.876410e+02   4.964420e+00
  -2.749958e+02  -1.370702e+02
  -7.123944e+01  -2.624746e+02
   1.848592e+02  -2.789902e+02
   2.990709e+02  -1.409031e+02
   1.867337e+02   5.412501e+01
  -2.314117e+01   1.229828e+02
  -1.019597e+02   1.310452e+01
   2.797184e+01  -1.114065e+02
   2.066808e+02  -7.001513e+01
   2.303253e+02   1.053563e+02
   7.738215e+01   2.223533e+02
  -9.921344e+01   1.718985e+02
  -1.554992e+02   3.461259e+01
  -8.068639e+01  -4.421847e+01
   2.450291e+01  -9.594910e+00
   4.141767e+01   7.860538e+01
  -6.677537e+01   1.154027e+02
  -2.013459e+02   3.517614e+01
  -2.021758e+02  -1.237922e+02
  -2.655115e+01  -2.294659e+02
   1.730968e+02  -1.761693e+02
   2.085334e+02  -6.677390e+00
   7.215801e+01   1.250079e+02
  -7.046446e+01   1.219165e+02
  -9.078984e+01   3.440281e+01
  -2.438942e+01  -2.717600e+01
   1.781810e+01  -2.198981e+01
  -1.051955e+01   3.431804e+00
  -6.847285e+01  -1.180944e+01
  -8.665270e+01  -8.172241e+01
  -1.724244e+01  -1.584625e+02
   1.249472e+02  -1.577554e+02
   2.400687e+02  -3.252652e+01
   2.128138e+02   1.516082e+02
   4.654527e+01   2.488154e+02
  -1.145521e+02   1.805516e+02
  -1.435320e+02   2.811602e+01
  -7.310181e+01  -6.098531e+01
  -2.851675e+01  -3.926186e+01
  -5.473402e+01   1.214984e+01
  -8.039150e+01   6.659843e+00
  -3.935479e+01  -4.929359e+01
   4.424153e+01  -8.587737e+01
   1.000199e+02  -5.375381e+01
   8.229568e+01   3.382241e+01
  -1.232451e+01   1.084070e+02
  -1.394742e+02   8.814392e+01
  -2.013899e+02  -4.706416e+01
  -1.097359e+02  -2.040204e+02
   1.029221e+02  -2.392387e+02
   2.757084e+02  -1.058546e+02
   2.717449e+02   8.599047e+01
   1.183833e+02   1.850902e+02
  -3.893623e+01   1.560076e+02
  -9.959073e+01   8.926982e+01
  -8.491504e+01   7.250854e+01
  -7.135295e+01   9.357818e+01
  -9.601708e+01   7.557915e+01
  -1.318828e+02  -2.346154e+01
  -1.219325e+02  -1.591205e+02
  -3.258565e+01  -2.341848e+02
   1.009195e+02  -1.806332e+02
   1.833253e+02  -2.491409e+01
   1.448596e+02   1.239546e+02
   2.355241e+01   1.663789e+02
  -6.702215e+01   9.928024e+01
  -6.154487e+01   5.032735e+00
  -7.537572e+00  -4.110644e+01
   6.305826e+00  -3.532495e+01
  -3.989478e+01  -2.043771e+01
  -8.055445e+01  -2.464275e+01
  -4.484869e+01  -3.884567e+01
   6.314639e+01  -3.742633e+01
   1.587307e+02  -4.870333e+00
   1.477698e+02   4.911682e+01
   2.047637e+01   8.879886e+01
  -1.205149e+02   7.707910e+01
  -1.498438e+02   1.668241e+01
  -5.137460e+01  -3.957342e+01
   6.208169e+01  -3.723658e+01
   7.787019e+01   1.959706e+01
   5.206607e+00   6.921885e+01
  -5.993966e+01   5.786822e+01
  -6.398627e+01  -3.170809e+00
  -4.208658e+01  -5.144856e+01
  -4.375258e+01  -4.271835e+01
  -6.489843e+01  -2.337048e+00
  -6.860691e+01  -3.587262e-01
  -3.406702e+01  -6.841609e+01
   3.499473e+01  -1.483888e+02
   1.170666e+02  -1.446074e+02
   1.648124e+02  -3.463663e+01
   1.253522e+02   9.251662e+01
   8.384705e+00   1.281596e+02
  -8.668916e+01   6.161617e+01
  -6.122293e+01  -1.640734e+01
   6.119020e+01  -2.073648e+01
   1.430489e+02   4.488211e+01
   8.023850e+01   1.107866e+02
  -8.200801e+01   1.172509e+02
  -1.975237e+02   5.658920e+01
  -1.698407e+02  -3.233668e+01
  -4.073250e+01  -8.982461e+01
   6.176150e+01  -7.525757e+01
   5.077915e+01  -1.008230e+01
  -3.946643e+01   2.679666e+01
  -9.289425e+01  -2.370766e+01
  -3.253287e+01  -1.231011e+02
   9.701756e+01  -1.589488e+02
   1.751253e+02  -6.260002e+01
   1.310539e+02   1.058246e+02
   9.619455e+00   2.052717e+02
  -8.877913e+01   1.500863e+02
  -1.082395e+02  -5.282609e+00
  -6.460034e+01  -1.209574e+02
  -1.582322e+00  -1.110386e+02
   4.574675e+01  -2.253690e+01
   5.561988e+01   3.177455e+01
   2.924690e+01   9.163097e+00
   3.483159e+00  -2.209350e+01
   1.870546e+01   1.380390e+01
   5.720089e+01   9.080868e+01
   4.640466e+01   1.140658e+02
  -4.582589e+01   4.761644e+01
  -1.435632e+02  -4.106148e+01
  -1.362767e+02  -7.348562e+01
  -1.804714e+01  -5.033079e+01
   9.275474e+01  -2.203922e+01
   9.175737e+01  -8.619953e+00
   9.454440e+00   6.409683e+00
  -4.090623e+01   2.336349e+01
  -1.314019e+01   2.027870e+01
   2.382545e+01  -8.985316e-01
  -6.676226e+00  -1.033325e+01
  -7.869845e+01  -5.399691e+00
  -9.395205e+01  -2.522709e+01
  -5.056932e+00  -8.251161e+01
   1.253108e+02  -1.165013e+02
   1.905525e+02  -5.782567e+01
   1.428262e+02   7.202047e+01
   2.454281e+01   1.676984e+02
  -8.117459e+01   1.528563e+02
  -1.170061e+02   5.817122e+01
  -8.303142e+01  -2.296269e+01
  -2.517298e+01  -3.577656e+01
   4.568430e+00  -7.761565e+00
  -9.510267e+00  -2.970302e+00
  -3.485547e+01  -4.612415e+01
  -2.469626e+01  -9.241529e+01
   3.013346e+01  -7.369177e+01
   8.428287e+01   2.018305e+01
   7.837534e+01   1.135467e+02
   1.464462e+00   1.160705e+02
  -8.692649e+01   2.205003e+01
  -1.051875e+02  -8.082341e+01
  -3.052785e+01  -1.067827e+02
   6.927289e+01  -5.468923e+01
   9.904304e+01   1.364546e+01
   3.836510e+01   5.015343e+01
  -3.343566e+01   5.048269e+01
  -2.983877e+01   2.861629e+01
   3.720948e+01   1.075496e+00
   7.163053e+01  -6.118303e+00
   1.433455e+01   2.526695e+01
  -8.185896e+01   6.787973e+01
  -1.175361e+02   6.155574e+01
  -6.358676e+01  -1.107047e+01
   1.707034e+01  -8.481444e+01
   5.334571e+01  -8.049438e+01
   3.591420e+01  -3.716807e+00
  -1.942734e-01   5.850274e+01
  -2.720427e+01   4.254496e+01
  -3.730256e+01  -2.113012e+01
  -2.658444e+01  -5.568988e+01
   3.596257e+00  -3.187540e+01
   3.397678e+01   9.850576e+00
   4.008514e+01   2.058986e+01
   2.109342e+01   1.593215e-01
   1.859202e-01  -1.300473e+01
  -7.007187e+00   6.115969e+00
  -9.641176e+00   3.890018e+01
  -2.126333e+01   4.389330e+01
  -3.467948e+01   4.036250e+00
  -2.817528e+01  -4.912394e+01
   6.307586e+00  -6.306768e+01
   4.715261e+01  -1.960136e+01
   5.629688e+01   4.230741e+01
   1.327450e+01   6.570868e+01
  -5.601432e+01   3.414070e+01
  -9.005888e+01  -1.736267e+01
  -4.977232e+01  -4.572965e+01
   2.987253e+01  -4.045826e+01
   6.658846e+01  -1.984508e+01
   2.366095e+01  -4.262010e+00
  -4.067740e+01  -3.869507e+00
  -3.989457e+01  -1.878771e+01
   3.369100e+01  -3.360380e+01
   9.731743e+01  -1.959941e+01
