
 $NMID
 id='ANONYMOUS ', fmtdat='(2E16.6)'
 volume=1.0
 tramp=1.0
 $END
  -4.718821e+03   5.612286e+00
  -2.703093e+03  -2.896661e+03
   9.047656e+02  -2.989720e+03
   2.360697e+03  -8.532948e+02
   9.849142e+02   8.469573e+02
  -8.117874e+02   6.694870e+02
  -1.019801e+03  -5.176852e+02
   2.566258e+01  -1.205698e+03
   9.377093e+02  -8.442835e+02
   1.030678e+03   1.403496e+02
   4.659559e+02   9.677774e+02
  -3.036818e+02   9.697799e+02
  -7.264632e+02   1.029692e+02
  -4.211745e+02  -8.079100e+02
   3.148503e+02  -8.178463e+02
   6.712709e+02   2.724179e+01
   2.751470e+02   7.498414e+02
  -3.792337e+02   6.626352e+02
  -6.316592e+02   5.834851e+01
  -3.924931e+02  -4.023030e+02
   6.224033e+00  -4.698384e+02
   2.753084e+02  -2.766482e+02
   2.469487e+02  -6.250716e+00
  -1.061201e+02   1.209214e+02
  -4.453381e+02  -9.022423e+01
  -2.428124e+02  -4.610163e+02
   4.777943e+02  -4.704680e+02
   9.265292e+02   6.205453e+01
   4.834791e+02   6.064451e+02
  -4.225475e+02   5.524409e+02
  -8.194097e+02  -2.244719e+01
  -3.880503e+02  -5.246392e+02
   2.994807e+02  -5.686557e+02
   6.109718e+02  -2.213014e+02
   4.504409e+02   2.513902e+02
   7.031793e+01   5.250248e+02
  -2.379935e+02   3.148932e+02
  -2.162227e+02  -2.483287e+02
   1.697357e+02  -5.043840e+02
   5.074126e+02  -2.190345e+00
   2.943669e+02   7.439837e+02
  -3.461840e+02   7.790061e+02
  -6.809652e+02   5.044970e+00
  -2.958704e+02  -6.214125e+02
   3.291419e+02  -3.660536e+02
   4.393780e+02   3.466590e+02
  -6.282341e+01   5.985043e+02
  -5.980887e+02   1.558487e+02
  -6.382765e+02  -4.312715e+02
  -1.735572e+02  -6.270802e+02
   4.140320e+02  -3.746584e+02
   6.760968e+02   8.032614e+01
   3.966675e+02   4.258302e+02
  -1.798683e+02   4.066183e+02
  -4.915836e+02   5.335941e+01
  -2.583811e+02  -2.363799e+02
   1.466371e+02  -1.290219e+02
   1.690761e+02   1.796234e+02
  -1.830342e+02   2.201710e+02
  -3.855069e+02  -8.165477e+01
  -1.514535e+02  -3.334095e+02
   2.242618e+02  -2.723537e+02
   3.438257e+02  -6.121306e+01
   1.888357e+02   8.892160e+01
  -3.034243e+01   2.114321e+02
  -2.144690e+02   3.260920e+02
  -3.418659e+02   2.369199e+02
  -3.131190e+02  -1.345161e+02
  -9.014989e+01  -4.671709e+02
   1.342033e+02  -4.145956e+02
   1.472452e+02  -1.078384e+02
   2.676432e+01   3.545474e+01
   2.535441e+01  -8.223919e+01
   1.884361e+02  -1.494928e+02
   2.957381e+02   3.848268e+01
   1.811923e+02   2.812098e+02
  -6.694087e+01   2.801114e+02
  -2.431148e+02   2.376282e+01
  -2.193381e+02  -2.472626e+02
   8.089292e-01  -3.148466e+02
   2.790389e+02  -1.338833e+02
   3.859664e+02   1.702413e+02
   1.997616e+02   3.744863e+02
  -1.112873e+02   3.285517e+02
  -2.487185e+02   1.209171e+02
  -1.590146e+02  -9.763350e+00
  -9.302389e+01   2.780539e+01
  -2.309121e+02   7.198132e+01
  -4.104141e+02  -5.019559e+01
  -3.457306e+02  -2.900796e+02
  -3.816990e+00  -4.573094e+02
   3.651433e+02  -4.300519e+02
   5.047940e+02  -2.145029e+02
   3.583908e+02   9.283046e+01
   6.583190e+01   3.128938e+02
  -1.409021e+02   2.752894e+02
  -1.002889e+02   3.082256e+01
   1.107019e+02  -1.266448e+02
   2.179083e+02  -2.621360e+00
   6.328467e+01   2.148045e+02
  -1.758586e+02   1.949859e+02
  -2.021416e+02  -6.294118e+01
   1.380508e+01  -2.141898e+02
   2.085505e+02  -4.256786e+01
   1.728497e+02   2.588969e+02
  -3.472708e+01   3.628789e+02
  -2.356513e+02   1.949057e+02
  -3.285975e+02  -6.571356e+01
  -2.848192e+02  -2.395815e+02
  -1.055000e+02  -2.678199e+02
   1.125942e+02  -1.698989e+02
   1.894808e+02  -2.609044e+01
   6.699528e+01   3.708781e+01
  -7.611707e+01  -3.399963e+01
  -3.895887e+01  -1.313213e+02
   1.272683e+02  -1.115110e+02
   1.921813e+02   8.591382e+00
   6.738354e+01   7.870433e+01
  -8.137371e+01   2.435606e+01
  -6.069846e+01  -6.977918e+01
   1.203048e+02  -8.830579e+01
   2.836859e+02  -4.822121e+00
   2.712126e+02   1.352417e+02
   7.024769e+01   2.589047e+02
  -1.823856e+02   2.751935e+02
  -2.950920e+02   1.389710e+02
  -1.842731e+02  -5.344943e+01
   2.283438e+01  -1.213836e+02
   1.006401e+02  -1.294410e+01
  -2.756745e+01   1.099244e+02
  -2.039174e+02   6.906483e+01
  -2.272344e+02  -1.039927e+02
  -7.630379e+01  -2.194149e+02
   9.793138e+01  -1.695988e+02
   1.534470e+02  -3.413336e+01
   7.964410e+01   4.364292e+01
  -2.411796e+01   9.503301e+00
  -4.082911e+01  -7.748202e+01
   6.585617e+01  -1.137797e+02
   1.985872e+02  -3.465350e+01
   1.994076e+02   1.221560e+02
   2.614180e+01   2.263865e+02
  -1.708311e+02   1.737649e+02
  -2.057704e+02   6.515429e+00
  -7.117924e+01  -1.233863e+02
   6.955593e+01  -1.202889e+02
   8.960417e+01  -3.393096e+01
   2.409433e+01   2.680571e+01
  -1.753744e+01   2.169671e+01
   1.039592e+01  -3.337529e+00
   6.750533e+01   1.171779e+01
   8.539618e+01   8.063874e+01
   1.694338e+01   1.562746e+02
  -1.232735e+02   1.555545e+02
  -2.368040e+02   3.203149e+01
  -2.098931e+02  -1.496048e+02
  -4.584297e+01  -2.454843e+02
   1.130804e+02  -1.780998e+02
   1.416221e+02  -2.767870e+01
   7.209240e+01   6.022006e+01
   2.810887e+01   3.876364e+01
   5.399415e+01  -1.195679e+01
   7.928609e+01  -6.530320e+00
   3.875922e+01   4.863434e+01
  -4.369743e+01   8.465231e+01
  -9.864486e+01   5.293712e+01
  -8.110472e+01  -3.339128e+01
   1.220580e+01  -1.068798e+02
   1.375649e+02  -8.686648e+01
   1.986084e+02   4.647174e+01
   1.082032e+02   2.012542e+02
  -1.015635e+02   2.359623e+02
  -2.720008e+02   1.043567e+02
  -2.680658e+02  -8.490435e+01
  -1.167481e+02  -1.826402e+02
   3.845588e+01  -1.539057e+02
   9.828899e+01  -8.804135e+01
   8.381901e+01  -7.150300e+01
   7.044800e+01  -9.228262e+01
   9.475636e+01  -7.450687e+01
   1.300831e+02   2.320755e+01
   1.202172e+02   1.570154e+02
   3.206401e+01   2.310263e+02
  -9.961281e+01   1.781639e+02
  -1.808597e+02   2.453626e+01
  -1.428738e+02  -1.223093e+02
  -2.319968e+01  -1.641368e+02
   6.612192e+01  -9.793441e+01
   6.069470e+01  -4.977251e+00
   7.432874e+00   4.051751e+01
  -6.193768e+00   3.482708e+01
   3.937456e+01   2.018511e+01
   7.944496e+01   2.435733e+01
   4.421102e+01   3.833657e+01
  -6.228414e+01   3.687929e+01
  -1.565385e+02   4.742614e+00
  -1.457368e+02  -4.847803e+01
  -2.019800e+01  -8.756695e+01
   1.188765e+02  -7.597915e+01
   1.478138e+02  -1.641964e+01
   5.066683e+01   3.902984e+01
  -6.126127e+01   3.669229e+01
  -7.680324e+01  -1.936610e+01
  -5.075873e+00  -6.827935e+01
   5.918193e+01  -5.704871e+01
   6.310877e+01   3.169054e+00
   4.146104e+01   5.077820e+01
   4.313044e+01   4.215689e+01
   6.403438e+01   2.327045e+00
   6.768050e+01   3.784452e-01
   3.355122e+01   6.749808e+01
  -3.459995e+01   1.463519e+02
  -1.155177e+02   1.425831e+02
  -1.625518e+02   3.408867e+01
  -1.235960e+02  -9.130909e+01
  -8.226749e+00  -1.264052e+02
   8.552845e+01  -6.072204e+01
   6.038477e+01   1.622220e+01
  -6.037289e+01   2.043117e+01
  -1.411062e+02  -4.433200e+01
  -7.912442e+01  -1.093161e+02
   8.093254e+01  -1.156384e+02
   1.948704e+02  -5.576976e+01
   1.675399e+02   3.194073e+01
   4.016557e+01   8.862302e+01
  -6.093839e+01   7.423616e+01
  -5.008991e+01   9.948679e+00
   3.894233e+01  -2.640655e+01
   9.162418e+01   2.343305e+01
   3.202828e+01   1.214613e+02
  -9.580046e+01   1.567647e+02
  -1.728122e+02   6.166989e+01
  -1.292464e+02  -1.044685e+02
  -9.396842e+00  -2.025168e+02
   8.764298e+01  -1.480330e+02
   1.067707e+02   5.240577e+00
   6.369188e+01   1.193352e+02
   1.550029e+00   1.095371e+02
  -4.511716e+01   2.222366e+01
  -5.487107e+01  -3.135802e+01
  -2.887182e+01  -9.046173e+00
  -3.437100e+00   2.179940e+01
  -1.841693e+01  -1.361668e+01
  -5.638474e+01  -8.960021e+01
  -4.576126e+01  -1.125438e+02
   4.519907e+01  -4.695413e+01
   1.416133e+02   4.056622e+01
   1.344240e+02   7.254348e+01
   1.777816e+01   4.964864e+01
  -9.153081e+01   2.170096e+01
  -9.052282e+01   8.473730e+00
  -9.303765e+00  -6.321257e+00
   4.037204e+01  -2.303696e+01
   1.295243e+01  -2.000858e+01
  -2.352226e+01   8.760278e-01
   6.591977e+00   1.020276e+01
   7.765549e+01   5.364841e+00
   9.266875e+01   2.493101e+01
   4.920069e+00   8.140652e+01
  -1.236955e+02   1.148728e+02
  -1.879984e+02   5.694174e+01
  -1.408429e+02  -7.113741e+01
  -2.412682e+01  -1.654524e+02
   8.014042e+01  -1.507398e+02
   1.154467e+02  -5.731511e+01
   8.190071e+01   2.269256e+01
   2.481134e+01   3.529754e+01
  -4.527492e+00   7.647999e+00
   9.367245e+00   2.925761e+00
   3.436941e+01   4.550300e+01
   2.433593e+01   9.116794e+01
  -2.975609e+01   7.268178e+01
  -8.314431e+01  -1.995185e+01
  -7.726598e+01  -1.120631e+02
  -1.372078e+00  -1.145142e+02
   8.578635e+01  -2.170031e+01
   1.037328e+02   7.980383e+01
   3.004949e+01   1.053592e+02
  -6.837290e+01   5.389983e+01
  -9.768546e+01  -1.351872e+01
  -3.780167e+01  -4.947761e+01
   3.300903e+01  -4.975890e+01
   2.942519e+01  -2.820625e+01
  -3.673063e+01  -1.083789e+00
  -7.066853e+01   6.000480e+00
  -1.411924e+01  -2.492854e+01
   8.078142e+01  -6.692896e+01
   1.159530e+02  -6.068304e+01
   6.269845e+01   1.094086e+01
  -1.688263e+01   8.365639e+01
  -5.264815e+01   7.936884e+01
  -3.541557e+01   3.625941e+00
   2.279948e-01  -5.772549e+01
   2.686438e+01  -4.194588e+01
   3.679483e+01   2.088098e+01
   2.619615e+01   5.495007e+01
  -3.572549e+00   3.142665e+01
  -3.351535e+01  -9.741015e+00
  -3.952437e+01  -2.031918e+01
  -2.080405e+01  -1.566403e-01
  -2.019772e-01   1.281678e+01
   6.905432e+00  -6.059505e+00
   9.549710e+00  -3.839085e+01
   2.104019e+01  -4.328357e+01
   3.423797e+01  -3.935372e+00
   2.775488e+01   4.850627e+01
  -6.286093e+00   6.222788e+01
  -4.653872e+01   1.930653e+01
  -5.550674e+01  -4.178056e+01
  -1.305598e+01  -6.483700e+01
   5.526778e+01  -3.364764e+01
   8.882509e+01   1.718073e+01
   4.907532e+01   4.513600e+01
  -2.949054e+01   3.988587e+01
  -6.570063e+01   1.953006e+01
  -2.333245e+01   4.184592e+00
   4.015281e+01   3.841059e+00
   3.936567e+01   1.857072e+01
  -3.326367e+01   3.315626e+01
  -9.604335e+01   1.930038e+01
