
 $NMID
 id='ANONYMOUS ', fmtdat='(2E16.6)'
 volume=1.0
 tramp=1.0
 $END
   4.697518e+03  -7.363088e+01
   2.720879e+03   2.864225e+03
  -8.890058e+02   2.993878e+03
  -2.361374e+03   8.535613e+02
  -9.849717e+02  -8.694467e+02
   8.255801e+02  -6.948753e+02
   1.040458e+03   5.109395e+02
  -1.005314e+01   1.214650e+03
  -9.310736e+02   8.550221e+02
  -1.032358e+03  -1.337857e+02
  -4.731195e+02  -9.652608e+02
   2.990570e+02  -9.720178e+02
   7.320841e+02  -1.084626e+02
   4.336631e+02   8.048078e+02
  -3.067745e+02   8.202226e+02
  -6.720779e+02  -2.213746e+01
  -2.792578e+02  -7.448465e+02
   3.761737e+02  -6.578174e+02
   6.281222e+02  -5.519443e+01
   3.887116e+02   4.012182e+02
  -6.553394e+00   4.669615e+02
  -2.738960e+02   2.770051e+02
  -2.510155e+02   6.770427e+00
   9.741713e+01  -1.297813e+02
   4.445048e+02   7.295953e+01
   2.566752e+02   4.520250e+02
  -4.609751e+02   4.817602e+02
  -9.236800e+02  -4.149369e+01
  -4.955547e+02  -5.986703e+02
   4.099839e+02  -5.642119e+02
   8.181226e+02   4.689991e+00
   3.974430e+02   5.160822e+02
  -2.870669e+02   5.718638e+02
  -6.032467e+02   2.298111e+02
  -4.514448e+02  -2.446277e+02
  -7.606334e+01  -5.243381e+02
   2.385813e+02  -3.193320e+02
   2.283030e+02   2.466356e+02
  -1.574346e+02   5.130262e+02
  -5.110096e+02   1.726380e+01
  -3.126670e+02  -7.359393e+02
   3.323295e+02  -7.848090e+02
   6.845024e+02  -1.586083e+01
   3.080633e+02   6.191682e+02
  -3.252627e+02   3.749142e+02
  -4.481575e+02  -3.363781e+02
   5.054179e+01  -5.972909e+02
   5.912388e+02  -1.658080e+02
   6.387734e+02   4.170118e+02
   1.794910e+02   6.189765e+02
  -4.062613e+02   3.782543e+02
  -6.716357e+02  -7.037174e+01
  -3.979807e+02  -4.207580e+02
   1.766339e+02  -4.103949e+02
   4.913462e+02  -5.818786e+01
   2.596412e+02   2.383704e+02
  -1.489187e+02   1.344423e+02
  -1.746226e+02  -1.795686e+02
   1.797270e+02  -2.264232e+02
   3.868180e+02   7.598566e+01
   1.547729e+02   3.316957e+02
  -2.199894e+02   2.715083e+02
  -3.370073e+02   6.044676e+01
  -1.823976e+02  -8.512409e+01
   2.850233e+01  -2.023957e+02
   2.027375e+02  -3.196873e+02
   3.304376e+02  -2.398598e+02
   3.121946e+02   1.261309e+02
   9.683174e+01   4.618503e+02
  -1.306133e+02   4.135409e+02
  -1.496292e+02   1.053524e+02
  -2.741677e+01  -4.134128e+01
  -1.865380e+01   7.843891e+01
  -1.791979e+02   1.529703e+02
  -2.924523e+02  -2.972075e+01
  -1.856779e+02  -2.739575e+02
   6.015856e+01  -2.794984e+02
   2.401267e+02  -2.983574e+01
   2.222166e+02   2.392671e+02
   5.852894e+00   3.115383e+02
  -2.730050e+02   1.384236e+02
  -3.843234e+02  -1.615015e+02
  -2.025267e+02  -3.682259e+02
   1.075569e+02  -3.270298e+02
   2.466459e+02  -1.205881e+02
   1.572923e+02   1.192498e+01
   8.848244e+01  -2.596532e+01
   2.229357e+02  -7.469974e+01
   4.026088e+02   4.201199e+01
   3.436907e+02   2.796083e+02
   1.087439e+01   4.490610e+02
  -3.516885e+02   4.276160e+02
  -4.932569e+02   2.186663e+02
  -3.559739e+02  -8.570499e+01
  -7.113091e+01  -3.086415e+02
   1.364954e+02  -2.758244e+02
   1.023429e+02  -3.182248e+01
  -1.059854e+02   1.297020e+02
  -2.176059e+02   7.895322e+00
  -6.794811e+01  -2.129896e+02
   1.722266e+02  -1.982213e+02
   2.035943e+02   5.902944e+01
  -9.548401e+00   2.141408e+02
  -2.059489e+02   4.674319e+01
  -1.738739e+02  -2.527458e+02
   3.018933e+01  -3.573558e+02
   2.284601e+02  -1.932515e+02
   3.215367e+02   6.086948e+01
   2.822317e+02   2.302004e+02
   1.088635e+02   2.605462e+02
  -1.072426e+02   1.692721e+02
  -1.871858e+02   2.921499e+01
  -6.790717e+01  -3.642695e+01
   7.605958e+01   3.082994e+01
   4.207657e+01   1.287882e+02
  -1.231864e+02   1.131476e+02
  -1.906216e+02  -4.779000e+00
  -6.901873e+01  -7.721153e+01
   7.911626e+01  -2.671994e+01
   6.127231e+01   6.628568e+01
  -1.154023e+02   8.780778e+01
  -2.768785e+02   9.398278e+00
  -2.679252e+02  -1.273455e+02
  -7.414866e+01  -2.523671e+02
   1.737928e+02  -2.738729e+02
   2.885556e+02  -1.422094e+02
   1.837092e+02   5.013271e+01
  -2.017934e+01   1.213885e+02
  -1.001820e+02   1.512243e+01
   2.413213e+01  -1.093813e+02
   1.997158e+02  -7.218118e+01
   2.260315e+02   9.883067e+01
   7.879085e+01   2.155922e+02
  -9.410882e+01   1.692686e+02
  -1.513067e+02   3.646227e+01
  -8.037632e+01  -4.189794e+01
   2.233069e+01  -1.102824e+01
   4.138493e+01   7.367115e+01
  -6.158919e+01   1.118353e+02
  -1.933963e+02   3.742957e+01
  -1.977398e+02  -1.164972e+02
  -2.935485e+01  -2.223705e+02
   1.658807e+02  -1.737542e+02
   2.032751e+02  -8.945687e+00
   7.234917e+01   1.214216e+02
  -6.690830e+01   1.201336e+02
  -8.835489e+01   3.500209e+01
  -2.514579e+01  -2.589115e+01
   1.580094e+01  -2.197979e+01
  -1.041583e+01   2.255578e+00
  -6.532801e+01  -1.154546e+01
  -8.355633e+01  -7.758781e+01
  -1.865472e+01  -1.518917e+02
   1.178896e+02  -1.539128e+02
   2.314282e+02  -3.542124e+01
   2.084030e+02   1.434371e+02
   4.854763e+01   2.408702e+02
  -1.091139e+02   1.770247e+02
  -1.391599e+02   2.880030e+01
  -7.145151e+01  -5.899822e+01
  -2.780965e+01  -3.820829e+01
  -5.271206e+01   1.223468e+01
  -7.719570e+01   7.266614e+00
  -3.758413e+01  -4.688835e+01
   4.217703e+01  -8.239838e+01
   9.490198e+01  -5.209186e+01
   7.844104e+01   3.137710e+01
  -1.058367e+01   1.036432e+02
  -1.324164e+02   8.641523e+01
  -1.946704e+02  -4.216503e+01
  -1.096382e+02  -1.950996e+02
   9.530360e+01  -2.330683e+02
   2.653582e+02  -1.068671e+02
   2.649999e+02   7.943864e+01
   1.177453e+02   1.781540e+02
  -3.558513e+01   1.521637e+02
  -9.571499e+01   8.801704e+01
  -8.201804e+01   7.131814e+01
  -6.858381e+01   9.129584e+01
  -9.224494e+01   7.394801e+01
  -1.277447e+02  -2.144510e+01
  -1.198259e+02  -1.526021e+02
  -3.458316e+01  -2.263032e+02
   9.532995e+01  -1.764637e+02
   1.774365e+02  -2.704457e+01
   1.423727e+02   1.177504e+02
   2.554989e+01   1.609099e+02
  -6.298470e+01   9.763307e+01
  -5.916859e+01   6.612075e+00
  -8.263374e+00  -3.884334e+01
   4.580857e+00  -3.398455e+01
  -3.953551e+01  -1.963962e+01
  -7.795306e+01  -2.329489e+01
  -4.347593e+01  -3.699086e+01
   6.005166e+01  -3.665272e+01
   1.524177e+02  -6.768178e+00
   1.433866e+02   4.493648e+01
   2.187418e+01   8.487061e+01
  -1.147505e+02   7.592945e+01
  -1.447156e+02   1.849792e+01
  -5.038335e+01  -3.699428e+01
   5.972749e+01  -3.634181e+01
   7.545472e+01   1.813114e+01
   5.020620e+00   6.668963e+01
  -5.808162e+01   5.626794e+01
  -6.164822e+01  -2.690556e+00
  -4.038772e+01  -4.940884e+01
  -4.251513e+01  -4.077345e+01
  -6.325335e+01  -1.463338e+00
  -6.648177e+01   5.080438e-01
  -3.308420e+01  -6.557700e+01
   3.260522e+01  -1.435846e+02
   1.109959e+02  -1.408883e+02
   1.579546e+02  -3.525918e+01
   1.218409e+02   8.787530e+01
   9.858630e+00   1.233882e+02
  -8.278977e+01   6.003340e+01
  -5.932411e+01  -1.548307e+01
   5.905508e+01  -2.076239e+01
   1.392716e+02   4.184259e+01
   7.937159e+01   1.062945e+02
  -7.773757e+01   1.146729e+02
  -1.905760e+02   5.771501e+01
  -1.651502e+02  -2.871272e+01
  -4.099119e+01  -8.650077e+01
   5.855703e+01  -7.418628e+01
   4.897275e+01  -1.096188e+01
  -3.782956e+01   2.609649e+01
  -9.006884e+01  -2.209763e+01
  -3.247042e+01  -1.190629e+02
   9.293064e+01  -1.549982e+02
   1.695625e+02  -6.215584e+01
   1.281990e+02   1.015658e+02
   1.133519e+01   1.990416e+02
  -8.439533e+01   1.466252e+02
  -1.048421e+02  -3.504358e+00
  -6.433264e+01  -1.161105e+02
  -3.669115e+00  -1.076097e+02
   4.356138e+01  -2.267716e+01
   5.466557e+01   2.995681e+01
   2.905965e+01   8.510712e+00
   2.942966e+00  -2.161819e+01
   1.753068e+01   1.282589e+01
   5.627819e+01   8.715711e+01
   4.699627e+01   1.100759e+02
  -4.315245e+01   4.673179e+01
  -1.396685e+02  -3.820688e+01
  -1.333042e+02  -6.958959e+01
  -1.796324e+01  -4.828171e+01
   9.009658e+01  -2.223848e+01
   8.884467e+01  -9.569110e+00
   8.729958e+00   5.875659e+00
  -3.960876e+01   2.320094e+01
  -1.206062e+01   2.009757e+01
   2.353315e+01  -1.048745e+00
  -6.817597e+00  -1.013715e+01
  -7.683553e+01  -4.588950e+00
  -9.115868e+01  -2.352847e+01
  -4.899334e+00  -7.991566e+01
   1.208175e+02  -1.140356e+02
   1.837255e+02  -5.751784e+01
   1.383928e+02   6.886768e+01
   2.520441e+01   1.623320e+02
  -7.683645e+01   1.484897e+02
  -1.125223e+02   5.708722e+01
  -8.066290e+01  -2.146961e+01
  -2.462761e+01  -3.418839e+01
   4.762354e+00  -7.323490e+00
  -8.935351e+00  -2.504746e+00
  -3.441869e+01  -4.398240e+01
  -2.527439e+01  -8.904608e+01
   2.834146e+01  -7.165856e+01
   8.204368e+01   1.881679e+01
   7.700371e+01   1.095526e+02
   2.029319e+00   1.125905e+02
  -8.452702e+01   2.181274e+01
  -1.026545e+02  -7.785256e+01
  -3.016600e+01  -1.031640e+02
   6.673995e+01  -5.312083e+01
   9.565479e+01   1.249063e+01
   3.714361e+01   4.769096e+01
  -3.182115e+01   4.853040e+01
  -2.796665e+01   2.784947e+01
   3.664362e+01   9.160326e-01
   6.936780e+01  -6.564655e+00
   1.388780e+01   2.419192e+01
  -7.853785e+01   6.665229e+01
  -1.126541e+02   6.119480e+01
  -6.109987e+01  -9.757075e+00
   1.577369e+01  -8.217039e+01
   5.045093e+01  -7.818109e+01
   3.425655e+01  -3.395176e+00
   9.624706e-02   5.695373e+01
  -2.608239e+01   4.113267e+01
  -3.640716e+01  -2.060742e+01
  -2.620174e+01  -5.365792e+01
   3.364049e+00  -3.043893e+01
   3.302164e+01   9.413431e+00
   3.881268e+01   1.922192e+01
   2.035653e+01  -3.338721e-01
   3.261218e-01  -1.223269e+01
  -6.587024e+00   6.784463e+00
  -9.568639e+00   3.821077e+01
  -2.125539e+01   4.236166e+01
  -3.406654e+01   3.372337e+00
  -2.719827e+01  -4.806914e+01
   6.434277e+00  -6.138407e+01
   4.579519e+01  -1.917762e+01
   5.459891e+01   4.085398e+01
   1.323513e+01   6.371640e+01
  -5.373830e+01   3.348009e+01
  -8.710106e+01  -1.617354e+01
  -4.855258e+01  -4.380794e+01
   2.855509e+01  -3.915151e+01
   6.428717e+01  -1.944694e+01
   2.255689e+01  -4.174113e+00
  -4.009320e+01  -3.581617e+00
  -3.922423e+01  -1.834623e+01
   3.269607e+01  -3.338694e+01
   9.489578e+01  -2.008583e+01
