
 $NMID
 id='ANONYMOUS ', fmtdat='(2E16.6)'
 volume=1.0
 tramp=1.0
 $END
  -4.623367e+03   2.080362e+01
  -2.652227e+03  -2.820533e+03
   8.722819e+02  -2.918453e+03
   2.293209e+03  -8.401169e+02
   9.527838e+02   8.153008e+02
  -7.945326e+02   6.441556e+02
  -9.930670e+02  -5.090808e+02
   2.656307e+01  -1.177795e+03
   9.144491e+02  -8.260658e+02
   1.005780e+03   1.341145e+02
   4.571306e+02   9.430499e+02
  -2.931336e+02   9.463288e+02
  -7.074983e+02   9.992509e+01
  -4.120311e+02  -7.899849e+02
   3.054106e+02  -7.999274e+02
   6.551735e+02   2.496489e+01
   2.721618e+02   7.310814e+02
  -3.647781e+02   6.485950e+02
  -6.137713e+02   6.158212e+01
  -3.848353e+02  -3.884155e+02
   2.785303e+00  -4.576198e+02
   2.671063e+02  -2.708686e+02
   2.396409e+02  -5.385484e+00
  -1.081025e+02   1.198732e+02
  -4.409076e+02  -8.900995e+01
  -2.391123e+02  -4.549834e+02
   4.708570e+02  -4.644024e+02
   9.107295e+02   5.936514e+01
   4.737709e+02   5.944686e+02
  -4.160840e+02   5.420898e+02
  -8.048735e+02  -2.136148e+01
  -3.814276e+02  -5.143488e+02
   2.927489e+02  -5.590034e+02
   5.985418e+02  -2.193954e+02
   4.419145e+02   2.444278e+02
   6.980695e+01   5.130198e+02
  -2.318950e+02   3.062788e+02
  -2.097050e+02  -2.459549e+02
   1.689803e+02  -4.947633e+02
   4.991170e+02   1.878920e-01
   2.892144e+02   7.317023e+02
  -3.386307e+02   7.639366e+02
  -6.662445e+02   4.224199e+00
  -2.890157e+02  -6.087731e+02
   3.230659e+02  -3.573797e+02
   4.314264e+02   3.410530e+02
  -6.052567e+01   5.878621e+02
  -5.867040e+02   1.550054e+02
  -6.286136e+02  -4.199457e+02
  -1.736855e+02  -6.134472e+02
   4.042643e+02  -3.687698e+02
   6.631410e+02   7.542546e+01
   3.895958e+02   4.141726e+02
  -1.754456e+02   3.969674e+02
  -4.800905e+02   5.316403e+01
  -2.513563e+02  -2.289894e+02
   1.438681e+02  -1.241447e+02
   1.641869e+02   1.763135e+02
  -1.803562e+02   2.151002e+02
  -3.774930e+02  -7.946274e+01
  -1.488315e+02  -3.254483e+02
   2.175447e+02  -2.678790e+02
   3.353378e+02  -6.398128e+01
   1.869683e+02   8.384454e+01
  -2.529502e+01   2.084276e+02
  -2.070236e+02   3.242885e+02
  -3.351144e+02   2.360645e+02
  -3.088485e+02  -1.308459e+02
  -9.055397e+01  -4.579611e+02
   1.290811e+02  -4.056529e+02
   1.413059e+02  -1.050915e+02
   2.366184e+01   3.345822e+01
   2.411767e+01  -8.362779e+01
   1.859841e+02  -1.493343e+02
   2.921527e+02   3.659480e+01
   1.795647e+02   2.761246e+02
  -6.504194e+01   2.757238e+02
  -2.395251e+02   2.416358e+01
  -2.171611e+02  -2.424242e+02
  -5.772688e-01  -3.097302e+02
   2.739929e+02  -1.330164e+02
   3.801722e+02   1.650697e+02
   1.979786e+02   3.658989e+02
  -1.069938e+02   3.219860e+02
  -2.417614e+02   1.196374e+02
  -1.542274e+02  -7.673173e+00
  -9.055769e+01   2.968032e+01
  -2.270832e+02   7.373895e+01
  -4.044586e+02  -4.553545e+01
  -3.423277e+02  -2.820324e+02
  -7.628912e+00  -4.494838e+02
   3.551450e+02  -4.259923e+02
   4.942590e+02  -2.147545e+02
   3.525048e+02   8.922740e+01
   6.606974e+01   3.071770e+02
  -1.370143e+02   2.701508e+02
  -9.743939e+01   2.938361e+01
   1.093637e+02  -1.250082e+02
   2.142225e+02  -2.550292e+00
   6.230162e+01   2.109969e+02
  -1.723184e+02   1.913064e+02
  -1.982549e+02  -6.174992e+01
   1.334636e+01  -2.102093e+02
   2.049612e+02  -4.253691e+01
   1.716011e+02   2.528163e+02
  -3.088458e+01   3.561926e+02
  -2.292210e+02   1.939262e+02
  -3.234068e+02  -6.061684e+01
  -2.825095e+02  -2.327182e+02
  -1.060947e+02  -2.629702e+02
   1.096436e+02  -1.681052e+02
   1.859874e+02  -2.650946e+01
   6.543107e+01   3.630178e+01
  -7.551219e+01  -3.336905e+01
  -3.887737e+01  -1.293887e+02
   1.248404e+02  -1.103829e+02
   1.888968e+02   7.662712e+00
   6.618191e+01   7.725546e+01
  -8.049037e+01   2.449300e+01
  -6.066927e+01  -6.857160e+01
   1.174605e+02  -8.854041e+01
   2.792432e+02  -7.770014e+00
   2.683553e+02   1.306704e+02
   7.134739e+01   2.545187e+02
  -1.774664e+02   2.723191e+02
  -2.891610e+02   1.385040e+02
  -1.809928e+02  -5.164911e+01
   2.223124e+01  -1.192851e+02
   9.884644e+01  -1.277618e+01
  -2.682013e+01   1.085849e+02
  -2.002301e+02   6.916458e+01
  -2.238936e+02  -1.007535e+02
  -7.624754e+01  -2.149444e+02
   9.519035e+01  -1.670663e+02
   1.505365e+02  -3.427697e+01
   7.824499e+01   4.277087e+01
  -2.440838e+01   9.771718e+00
  -4.150306e+01  -7.620899e+01
   6.365430e+01  -1.131238e+02
   1.952536e+02  -3.613204e+01
   1.971937e+02   1.184572e+02
   2.740293e+01   2.222796e+02
  -1.664608e+02   1.718304e+02
  -2.016789e+02   7.755577e+00
  -7.035467e+01  -1.206195e+02
   6.762856e+01  -1.184512e+02
   8.772617e+01  -3.369477e+01
   2.371989e+01   2.659104e+01
  -1.743617e+01   2.183746e+01
   9.655341e+00  -3.502749e+00
   6.624251e+01   1.025624e+01
   8.505384e+01   7.795718e+01
   1.860303e+01   1.535632e+02
  -1.196891e+02   1.544126e+02
  -2.327370e+02   3.369748e+01
  -2.076861e+02  -1.452944e+02
  -4.700110e+01  -2.406898e+02
   1.096186e+02  -1.756122e+02
   1.386315e+02  -2.832074e+01
   7.103297e+01   5.826711e+01
   2.780403e+01   3.758513e+01
   5.285620e+01  -1.233394e+01
   7.783861e+01  -7.400443e+00
   3.887189e+01   4.702644e+01
  -4.153895e+01   8.362981e+01
  -9.616262e+01   5.363075e+01
  -8.041767e+01  -3.145917e+01
   1.042176e+01  -1.053607e+02
   1.343293e+02  -8.730547e+01
   1.959961e+02   4.362180e+01
   1.083704e+02   1.971784e+02
  -9.788421e+01   2.331648e+02
  -2.665677e+02   1.049154e+02
  -2.640398e+02  -8.130579e+01
  -1.160119e+02  -1.785147e+02
   3.662129e+01  -1.514370e+02
   9.576334e+01  -8.714255e+01
   8.153409e+01  -7.070556e+01
   6.812017e+01  -9.105383e+01
   9.215397e+01  -7.404088e+01
   1.278605e+02   2.142069e+01
   1.195274e+02   1.529861e+02
   3.361383e+01   2.266283e+02
  -9.632357e+01   1.758717e+02
  -1.775824e+02   2.554459e+01
  -1.415034e+02  -1.191042e+02
  -2.412370e+01  -1.612129e+02
   6.442326e+01  -9.691500e+01
   6.000865e+01  -5.397307e+00
   7.922259e+00   4.006777e+01
  -5.858119e+00   3.474108e+01
   3.858810e+01   1.964549e+01
   7.813881e+01   2.296211e+01
   4.387975e+01   3.708188e+01
  -6.080077e+01   3.710854e+01
  -1.539479e+02   6.562621e+00
  -1.439285e+02  -4.629546e+01
  -2.079196e+01  -8.634245e+01
   1.161500e+02  -7.613331e+01
   1.452232e+02  -1.745870e+01
   5.035429e+01   3.805208e+01
  -5.961465e+01   3.666223e+01
  -7.558828e+01  -1.821046e+01
  -5.893415e+00  -6.671151e+01
   5.724044e+01  -5.636987e+01
   6.190785e+01   2.311639e+00
   4.133581e+01   4.906614e+01
   4.283606e+01   4.086015e+01
   6.282465e+01   1.843346e+00
   6.645752e+01  -2.341333e-01
   3.381448e+01   6.572727e+01
  -3.230698e+01   1.439205e+02
  -1.120031e+02   1.414172e+02
  -1.594194e+02   3.550891e+01
  -1.224068e+02  -8.828612e+01
  -9.451741e+00  -1.242300e+02
   8.322790e+01  -6.070746e+01
   5.933937e+01   1.523969e+01
  -5.905497e+01   2.061076e+01
  -1.388719e+02  -4.227916e+01
  -7.864189e+01  -1.067323e+02
   7.849804e+01  -1.143625e+02
   1.910260e+02  -5.646399e+01
   1.649513e+02   3.003120e+01
   4.016237e+01   8.682080e+01
  -5.943206e+01   7.347545e+01
  -4.933270e+01   1.014738e+01
   3.787454e+01  -2.637801e+01
   9.010918e+01   2.203942e+01
   3.257695e+01   1.187066e+02
  -9.239420e+01   1.544713e+02
  -1.687320e+02   6.197813e+01
  -1.276019e+02  -1.012470e+02
  -1.104412e+01  -1.984980e+02
   8.471743e+01  -1.460218e+02
   1.050068e+02   4.201660e+00
   6.367288e+01   1.167490e+02
   2.339606e+00   1.078250e+02
  -4.430155e+01   2.236123e+01
  -5.413731e+01  -3.047299e+01
  -2.831142e+01  -8.861793e+00
  -3.275943e+00   2.146351e+01
  -1.847984e+01  -1.296752e+01
  -5.626678e+01  -8.738612e+01
  -4.576855e+01  -1.103080e+02
   4.409788e+01  -4.676071e+01
   1.393183e+02   3.854169e+01
   1.325371e+02   7.014280e+01
   1.803262e+01   4.858221e+01
  -8.947335e+01   2.198670e+01
  -8.882657e+01   9.099240e+00
  -9.377413e+00  -5.966264e+00
   3.940293e+01  -2.286731e+01
   1.273250e+01  -1.986980e+01
  -2.295128e+01   9.146939e-01
   6.439174e+00   1.000392e+01
   7.606297e+01   4.706588e+00
   9.115022e+01   2.352443e+01
   5.751263e+00   7.947884e+01
  -1.200974e+02   1.136471e+02
  -1.837719e+02   5.784242e+01
  -1.387664e+02  -6.806614e+01
  -2.524516e+01  -1.619485e+02
   7.707371e+01  -1.488162e+02
   1.125781e+02  -5.750453e+01
   8.053515e+01   2.146776e+01
   2.478314e+01   3.438590e+01
  -4.192329e+00   7.430726e+00
   9.385807e+00   2.715135e+00
   3.424786e+01   4.445250e+01
   2.474839e+01   8.941134e+01
  -2.850656e+01   7.163063e+01
  -8.166976e+01  -1.883390e+01
  -7.673998e+01  -1.091021e+02
  -2.481777e+00  -1.120714e+02
   8.367536e+01  -2.197579e+01
   1.022892e+02   7.715401e+01
   3.056490e+01   1.028741e+02
  -6.630506e+01   5.356267e+01
  -9.593454e+01  -1.211077e+01
  -3.785598e+01  -4.807016e+01
   3.164116e+01  -4.929004e+01
   2.865752e+01  -2.823842e+01
  -3.582906e+01  -8.941589e-01
  -6.922641e+01   6.560367e+00
  -1.419276e+01  -2.424850e+01
   7.865028e+01  -6.644103e+01
   1.134335e+02  -6.078702e+01
   6.185775e+01   9.961453e+00
  -1.568293e+01   8.222193e+01
  -5.084229e+01   7.858842e+01
  -3.458319e+01   4.200398e+00
  -2.769329e-01  -5.645522e+01
   2.578366e+01  -4.141207e+01
   3.608099e+01   2.005501e+01
   2.625187e+01   5.361572e+01
  -2.979477e+00   3.087770e+01
  -3.288540e+01  -9.197823e+00
  -3.913577e+01  -1.953083e+01
  -2.053318e+01   2.094205e-02
   1.221840e-01   1.253878e+01
   7.052705e+00  -5.909072e+00
   9.048531e+00  -3.742368e+01
   1.986524e+01  -4.230370e+01
   3.310104e+01  -4.160703e+00
   2.750548e+01   4.693724e+01
  -5.473231e+00   6.068403e+01
  -4.529569e+01   1.931543e+01
  -5.474916e+01  -4.022890e+01
  -1.340438e+01  -6.332850e+01
   5.386998e+01  -3.363522e+01
   8.725888e+01   1.583298e+01
   4.859194e+01   4.375967e+01
  -2.841094e+01   3.946573e+01
  -6.409300e+01   1.987972e+01
  -2.283645e+01   4.490833e+00
   3.920257e+01   3.591850e+00
   3.850264e+01   1.788657e+01
  -3.243053e+01   3.258924e+01
  -9.391758e+01   1.950348e+01
