
 $NMID
 id='ANONYMOUS ', fmtdat='(2E16.6)'
 volume=1.0
 tramp=1.0
 $END
   4.879864e+03  -4.834819e+00
   2.799099e+03   2.996147e+03
  -9.325027e+02   3.096300e+03
  -2.444107e+03   8.886761e+02
  -1.025755e+03  -8.734626e+02
   8.342915e+02  -6.950304e+02
   1.054490e+03   5.316530e+02
  -2.430078e+01   1.245812e+03
  -9.687847e+02   8.744125e+02
  -1.066883e+03  -1.437913e+02
  -4.835157e+02  -1.000856e+03
   3.128541e+02  -1.004366e+03
   7.510284e+02  -1.084729e+02
   4.362076e+02   8.344873e+02
  -3.250233e+02   8.463926e+02
  -6.946187e+02  -2.729527e+01
  -2.852915e+02  -7.761630e+02
   3.927300e+02  -6.872193e+02
   6.551887e+02  -6.138144e+01
   4.076032e+02   4.167890e+02
  -5.991371e+00   4.871267e+02
  -2.847857e+02   2.868872e+02
  -2.553698e+02   7.568134e+00
   1.090909e+02  -1.232069e+02
   4.588132e+02   9.441449e+01
   2.496478e+02   4.757595e+02
  -4.938784e+02   4.845050e+02
  -9.569574e+02  -6.495485e+01
  -4.996447e+02  -6.261511e+02
   4.359964e+02  -5.699833e+02
   8.462102e+02   2.359873e+01
   4.007451e+02   5.420933e+02
  -3.098541e+02   5.873910e+02
  -6.319247e+02   2.283680e+02
  -4.659607e+02  -2.600774e+02
  -7.319654e+01  -5.429483e+02
   2.451889e+02  -3.263791e+02
   2.230633e+02   2.550464e+02
  -1.746473e+02   5.200516e+02
  -5.228868e+02   2.390714e+00
  -3.033348e+02  -7.680142e+02
   3.575503e+02  -8.049329e+02
   7.034002e+02  -6.077680e+00
   3.061963e+02   6.414692e+02
  -3.392268e+02   3.784014e+02
  -4.533586e+02  -3.578609e+02
   6.531830e+01  -6.183079e+02
   6.183799e+02  -1.605352e+02
   6.597307e+02   4.468880e+02
   1.791166e+02   6.491655e+02
  -4.284007e+02   3.873422e+02
  -6.994261e+02  -8.361569e+01
  -4.108300e+02  -4.406999e+02
   1.852660e+02  -4.207359e+02
   5.084412e+02  -5.572392e+01
   2.683602e+02   2.440141e+02
  -1.505694e+02   1.338134e+02
  -1.749790e+02  -1.848715e+02
   1.885025e+02  -2.273209e+02
   3.985103e+02   8.418879e+01
   1.569550e+02   3.447636e+02
  -2.323774e+02   2.819846e+02
  -3.568885e+02   6.303032e+01
  -1.958080e+02  -9.319010e+01
   3.269507e+01  -2.196779e+02
   2.237565e+02  -3.369467e+02
   3.543527e+02  -2.439583e+02
   3.233794e+02   1.397229e+02
   9.278115e+01   4.832587e+02
  -1.387675e+02   4.293170e+02
  -1.525311e+02   1.126399e+02
  -2.870370e+01  -3.601215e+01
  -2.737758e+01   8.451499e+01
  -1.952581e+02   1.533931e+02
  -3.053516e+02  -4.068333e+01
  -1.866438e+02  -2.909618e+02
   6.956886e+01  -2.892858e+02
   2.511250e+02  -2.401278e+01
   2.261320e+02   2.560526e+02
  -1.417013e+00   3.254250e+02
  -2.886776e+02   1.378195e+02
  -3.989331e+02  -1.767495e+02
  -2.063892e+02  -3.877554e+02
   1.152799e+02  -3.401472e+02
   2.577107e+02  -1.254449e+02
   1.652893e+02   9.887926e+00
   9.706308e+01  -2.841506e+01
   2.394188e+02  -7.344719e+01
   4.247137e+02   5.328760e+01
   3.572283e+02   3.012182e+02
   2.797732e+00   4.734248e+02
  -3.791785e+02   4.442817e+02
  -5.230097e+02   2.209095e+02
  -3.705543e+02  -9.657212e+01
  -6.759881e+01  -3.235887e+02
   1.457910e+02  -2.847125e+02
   1.034865e+02  -3.236856e+01
  -1.144006e+02   1.303564e+02
  -2.249244e+02   2.578799e+00
  -6.523383e+01  -2.218377e+02
   1.816437e+02  -2.014486e+02
   2.087708e+02   6.495972e+01
  -1.430828e+01   2.212463e+02
  -2.155533e+02   4.367503e+01
  -1.784698e+02  -2.683242e+02
   3.662798e+01  -3.758159e+02
   2.447382e+02  -2.013619e+02
   3.404539e+02   6.908003e+01
   2.942550e+02   2.490010e+02
   1.082994e+02   2.774204e+02
  -1.169452e+02   1.754221e+02
  -1.959709e+02   2.671769e+01
  -6.928684e+01  -3.821053e+01
   7.841165e+01   3.539290e+01
   3.990048e+01   1.357128e+02
  -1.317665e+02   1.149486e+02
  -1.986516e+02  -9.154705e+00
  -6.956269e+01  -8.128797e+01
   8.408918e+01  -2.479282e+01
   6.239170e+01   7.241961e+01
  -1.250260e+02   9.096218e+01
  -2.938073e+02   3.981246e+00
  -2.802692e+02  -1.408969e+02
  -7.182827e+01  -2.680923e+02
   1.894766e+02  -2.841812e+02
   3.055623e+02  -1.431632e+02
   1.905304e+02   5.543469e+01
  -2.367883e+01   1.253683e+02
  -1.039308e+02   1.331990e+01
   2.876933e+01  -1.134288e+02
   2.110296e+02  -7.095689e+01
   2.348954e+02   1.080004e+02
   7.860913e+01   2.271396e+02
  -1.015591e+02   1.753063e+02
  -1.587380e+02   3.508332e+01
  -8.224325e+01  -4.511112e+01
   2.488971e+01  -9.452351e+00
   4.176991e+01   8.047162e+01
  -6.874183e+01   1.174936e+02
  -2.057235e+02   3.516391e+01
  -2.060624e+02  -1.269962e+02
  -2.654992e+01  -2.343576e+02
   1.771356e+02  -1.795460e+02
   2.130189e+02  -6.501223e+00
   7.354764e+01   1.276960e+02
  -7.211337e+01   1.243400e+02
  -9.271449e+01   3.501833e+01
  -2.476368e+01  -2.764094e+01
   1.824798e+01  -2.220009e+01
  -1.094062e+01   3.584541e+00
  -7.014252e+01  -1.238600e+01
  -8.830467e+01  -8.397844e+01
  -1.696877e+01  -1.620166e+02
   1.282073e+02  -1.606724e+02
   2.452405e+02  -3.243135e+01
   2.168779e+02   1.554344e+02
   4.694846e+01   2.542474e+02
  -1.173745e+02   1.841904e+02
  -1.467284e+02   2.843570e+01
  -7.466825e+01  -6.247654e+01
  -2.913417e+01  -4.021040e+01
  -5.599572e+01   1.225387e+01
  -8.221219e+01   6.503234e+00
  -4.007542e+01  -5.067472e+01
   4.562785e+01  -8.775471e+01
   1.025987e+02  -5.450031e+01
   8.401738e+01   3.507138e+01
  -1.312918e+01   1.108009e+02
  -1.429272e+02   8.945903e+01
  -2.055291e+02  -4.882769e+01
  -1.113414e+02  -2.086589e+02
   1.058501e+02  -2.439146e+02
   2.818344e+02  -1.073084e+02
   2.772913e+02   8.848101e+01
   1.204752e+02   1.892695e+02
  -4.010962e+01   1.592249e+02
  -1.019159e+02   9.098389e+01
  -8.690818e+01   7.396385e+01
  -7.315310e+01   9.553369e+01
  -9.836376e+01   7.701587e+01
  -1.347532e+02  -2.434902e+01
  -1.241652e+02  -1.629353e+02
  -3.264462e+01  -2.393352e+02
   1.035542e+02  -1.842388e+02
   1.872510e+02  -2.496427e+01
   1.475592e+02   1.269660e+02
   2.359491e+01   1.699347e+02
  -6.866911e+01   1.011061e+02
  -6.275138e+01   4.865496e+00
  -7.423636e+00  -4.198819e+01
   6.643392e+00  -3.591034e+01
  -4.072828e+01  -2.086353e+01
  -8.232500e+01  -2.543095e+01
  -4.572795e+01  -3.988440e+01
   6.471092e+01  -3.798305e+01
   1.622366e+02  -4.341503e+00
   1.507283e+02   5.067310e+01
   2.049018e+01   9.066889e+01
  -1.234217e+02   7.827307e+01
  -1.530683e+02   1.658626e+01
  -5.226126e+01  -4.058198e+01
   6.360508e+01  -3.791416e+01
   7.953635e+01   2.025764e+01
   5.133330e+00   7.089358e+01
  -6.144114e+01   5.911332e+01
  -6.545211e+01  -3.448670e+00
  -4.293103e+01  -5.283798e+01
  -4.459804e+01  -4.382848e+01
  -6.628113e+01  -2.499551e+00
  -7.009123e+01  -5.445916e-01
  -3.461915e+01  -7.012908e+01
   3.621400e+01  -1.516334e+02
   1.201229e+02  -1.473651e+02
   1.685969e+02  -3.476097e+01
   1.278316e+02   9.498323e+01
   8.112903e+00   1.309689e+02
  -8.887246e+01   6.269118e+01
  -6.257371e+01  -1.693699e+01
   6.258297e+01  -2.103515e+01
   1.460466e+02   4.620095e+01
   8.166682e+01   1.133560e+02
  -8.409489e+01   1.195310e+02
  -2.018833e+02   5.726167e+01
  -1.733416e+02  -3.347411e+01
  -4.135580e+01  -9.180990e+01
   6.323031e+01  -7.664342e+01
   5.181774e+01  -1.012268e+01
  -4.045388e+01   2.728011e+01
  -9.490291e+01  -2.448657e+01
  -3.297905e+01  -1.259378e+02
   9.952110e+01  -1.622993e+02
   1.791584e+02  -6.364383e+01
   1.337308e+02   1.084393e+02
   9.366158e+00   2.098170e+02
  -9.106319e+01   1.531406e+02
  -1.105307e+02  -5.708650e+00
  -6.562574e+01  -1.237207e+02
  -1.295782e+00  -1.133207e+02
   4.677616e+01  -2.281226e+01
   5.669938e+01   3.255191e+01
   2.982448e+01   9.337522e+00
   3.596430e+00  -2.252831e+01
   1.906192e+01   1.429403e+01
   5.819820e+01   9.297535e+01
   4.710308e+01   1.165484e+02
  -4.697185e+01   4.841877e+01
  -1.465967e+02  -4.230406e+01
  -1.390325e+02  -7.536960e+01
  -1.827182e+01  -5.150571e+01
   9.483951e+01  -2.237147e+01
   9.375201e+01  -8.571734e+00
   9.633001e+00   6.668482e+00
  -4.183019e+01   2.380388e+01
  -1.345197e+01   2.059983e+01
   2.433957e+01  -9.379110e-01
  -6.816904e+00  -1.052731e+01
  -8.041754e+01  -5.618865e+00
  -9.597265e+01  -2.603552e+01
  -5.009989e+00  -8.447942e+01
   1.283503e+02  -1.188595e+02
   1.949844e+02  -5.859723e+01
   1.459201e+02   7.405401e+01
   2.469721e+01   1.714952e+02
  -8.342880e+01   1.560019e+02
  -1.198183e+02   5.914401e+01
  -8.481543e+01  -2.367498e+01
  -2.560890e+01  -3.665954e+01
   4.707099e+00  -8.002198e+00
  -9.682748e+00  -3.124688e+00
  -3.544129e+01  -4.721582e+01
  -2.494931e+01  -9.445830e+01
   3.099395e+01  -7.522544e+01
   8.609999e+01   2.080205e+01
   7.987941e+01   1.162406e+02
   1.261331e+00   1.187179e+02
  -8.894106e+01   2.242924e+01
  -1.074093e+02  -8.284788e+01
  -3.096265e+01  -1.092928e+02
   7.102030e+01  -5.578064e+01
   1.012599e+02   1.425184e+01
   3.902881e+01   5.146905e+01
  -3.442017e+01   5.153889e+01
  -3.063076e+01   2.907409e+01
   3.803830e+01   1.082958e+00
   7.323762e+01  -6.084177e+00
   1.457715e+01   2.590922e+01
  -8.382720e+01   6.915498e+01
  -1.202506e+02   6.250203e+01
  -6.493901e+01  -1.159175e+01
   1.768205e+01  -8.666582e+01
   5.480083e+01  -8.208448e+01
   3.683487e+01  -3.655864e+00
  -2.837498e-01   5.982854e+01
  -2.796169e+01   4.345937e+01
  -3.815404e+01  -2.165370e+01
  -2.703305e+01  -5.700463e+01
   3.823727e+00  -3.262719e+01
   3.473620e+01   1.014080e+01
   4.087641e+01   2.119848e+01
   2.151683e+01   2.430178e-01
   2.689698e-01  -1.335574e+01
  -7.054085e+00   6.169574e+00
  -9.848528e+00   3.981422e+01
  -2.184739e+01   4.500863e+01
  -3.557444e+01   4.168466e+00
  -2.883011e+01  -5.033616e+01
   6.518427e+00  -6.458954e+01
   4.827274e+01  -1.998196e+01
   5.752317e+01   4.341935e+01
   1.344947e+01   6.722837e+01
  -5.737073e+01   3.473143e+01
  -9.206103e+01  -1.801044e+01
  -5.076330e+01  -4.688316e+01
   3.068822e+01  -4.129730e+01
   6.818191e+01  -2.013561e+01
   2.424193e+01  -4.253573e+00
  -4.157148e+01  -3.937392e+00
  -4.079772e+01  -1.920998e+01
   3.441637e+01  -3.430041e+01
   9.945121e+01  -1.991639e+01
