
 $NMID
 id='ANONYMOUS ', fmtdat='(2E16.6)'
 volume=1.0
 tramp=1.0
 $END
  -4.804660e+03  -2.478767e+00
  -2.747486e+03  -2.945241e+03
   9.167461e+02  -3.035048e+03
   2.391536e+03  -8.702785e+02
   9.962734e+02   8.490347e+02
  -8.217966e+02   6.695255e+02
  -1.029543e+03  -5.287927e+02
   3.024242e+01  -1.222531e+03
   9.531535e+02  -8.558235e+02
   1.046051e+03   1.425123e+02
   4.727037e+02   9.824322e+02
  -3.077154e+02   9.841156e+02
  -7.355227e+02   1.031299e+02
  -4.252651e+02  -8.216406e+02
   3.205635e+02  -8.306952e+02
   6.813924e+02   2.797883e+01
   2.802368e+02   7.621366e+02
  -3.831492e+02   6.749242e+02
  -6.409272e+02   6.230742e+01
  -4.003439e+02  -4.066810e+02
   4.600842e+00  -4.773081e+02
   2.790688e+02  -2.812731e+02
   2.491149e+02  -5.947400e+00
  -1.119246e+02   1.215259e+02
  -4.553034e+02  -9.611172e+01
  -2.442916e+02  -4.725424e+02
   4.911799e+02  -4.775053e+02
   9.444437e+02   6.719183e+01
   4.890103e+02   6.187132e+02
  -4.336430e+02   5.595309e+02
  -8.346863e+02  -2.662874e+01
  -3.931143e+02  -5.357342e+02
   3.071504e+02  -5.785372e+02
   6.231993e+02  -2.243713e+02
   4.582334e+02   2.563426e+02
   7.068170e+01   5.335095e+02
  -2.412507e+02   3.182209e+02
  -2.160682e+02  -2.541638e+02
   1.767316e+02  -5.112351e+02
   5.161363e+02   2.373754e+00
   2.955337e+02   7.598647e+02
  -3.550075e+02   7.913300e+02
  -6.913167e+02   2.348496e+00
  -2.977311e+02  -6.324792e+02
   3.358907e+02  -3.696639e+02
   4.452906e+02   3.556178e+02
  -6.624279e+01   6.097278e+02
  -6.102647e+02   1.573250e+02
  -6.506834e+02  -4.407283e+02
  -1.769324e+02  -6.392783e+02
   4.222523e+02  -3.810811e+02
   6.890895e+02   8.242016e+01
   4.036774e+02   4.328288e+02
  -1.832643e+02   4.120411e+02
  -4.993156e+02   5.363376e+01
  -2.617163e+02  -2.386690e+02
   1.486554e+02  -1.289018e+02
   1.699892e+02   1.828188e+02
  -1.873863e+02   2.221843e+02
  -3.917025e+02  -8.407702e+01
  -1.535266e+02  -3.389238e+02
   2.280505e+02  -2.777491e+02
   3.506245e+02  -6.438741e+01
   1.945468e+02   8.979102e+01
  -2.919565e+01   2.178268e+02
  -2.194472e+02   3.354915e+02
  -3.504902e+02   2.421721e+02
  -3.196874e+02  -1.383250e+02
  -9.122464e+01  -4.765346e+02
   1.361482e+02  -4.217138e+02
   1.477871e+02  -1.100547e+02
   2.588320e+01   3.403996e+01
   2.704918e+01  -8.598658e+01
   1.944842e+02  -1.525861e+02
   3.027112e+02   4.066975e+01
   1.842217e+02   2.880064e+02
  -6.940293e+01   2.856596e+02
  -2.486049e+02   2.317077e+01
  -2.235029e+02  -2.534445e+02
   1.719452e+00  -3.216114e+02
   2.855133e+02  -1.359988e+02
   3.939392e+02   1.743677e+02
   2.036482e+02   3.818838e+02
  -1.130642e+02   3.346014e+02
  -2.525489e+02   1.236650e+02
  -1.614223e+02  -8.491822e+00
  -9.543254e+01   2.987926e+01
  -2.371600e+02   7.410394e+01
  -4.204184e+02  -5.123847e+01
  -3.538721e+02  -2.964730e+02
  -4.094199e+00  -4.677817e+02
   3.733194e+02  -4.402361e+02
   5.160096e+02  -2.194186e+02
   3.657586e+02   9.525119e+01
   6.648221e+01   3.195399e+02
  -1.438280e+02   2.801014e+02
  -1.011198e+02   3.075328e+01
   1.141219e+02  -1.285289e+02
   2.220428e+02  -1.436713e+00
   6.343046e+01   2.191507e+02
  -1.797043e+02   1.977044e+02
  -2.053569e+02  -6.495177e+01
   1.493430e+01  -2.180315e+02
   2.130272e+02  -4.272329e+01
   1.766641e+02   2.643760e+02
  -3.487138e+01   3.707296e+02
  -2.405978e+02   2.000704e+02
  -3.366130e+02  -6.617834e+01
  -2.919747e+02  -2.449381e+02
  -1.078236e+02  -2.743941e+02
   1.154583e+02  -1.737457e+02
   1.934267e+02  -2.626732e+01
   6.783265e+01   3.784906e+01
  -7.787501e+01  -3.535451e+01
  -3.923213e+01  -1.345055e+02
   1.304715e+02  -1.135770e+02
   1.961264e+02   9.262112e+00
   6.823495e+01   8.046112e+01
  -8.365865e+01   2.451392e+01
  -6.217139e+01  -7.189591e+01
   1.233336e+02  -9.090345e+01
   2.907810e+02  -5.282239e+00
   2.778974e+02   1.385431e+02
   7.173999e+01   2.652888e+02
  -1.869418e+02   2.815124e+02
  -3.017008e+02   1.417250e+02
  -1.877810e+02  -5.478618e+01
   2.377124e+01  -1.236295e+02
   1.025812e+02  -1.270726e+01
  -2.875375e+01   1.123526e+02
  -2.086056e+02   7.023757e+01
  -2.320188e+02  -1.064355e+02
  -7.775140e+01  -2.240568e+02
   1.001354e+02  -1.730193e+02
   1.566695e+02  -3.457890e+01
   8.093826e+01   4.479654e+01
  -2.532101e+01   9.517556e+00
  -4.210834e+01  -7.985375e+01
   6.758113e+01  -1.169749e+02
   2.035453e+02  -3.563576e+01
   2.040946e+02   1.249930e+02
   2.669863e+01   2.314405e+02
  -1.744812e+02   1.775138e+02
  -2.099230e+02   6.726448e+00
  -7.242924e+01  -1.258279e+02
   7.111415e+01  -1.226766e+02
   9.139959e+01  -3.448310e+01
   2.431148e+01   2.763129e+01
  -1.836902e+01   2.227288e+01
   1.032176e+01  -3.766267e+00
   6.923568e+01   1.137493e+01
   8.796311e+01   8.224585e+01
   1.778739e+01   1.602097e+02
  -1.261373e+02   1.595714e+02
  -2.424793e+02   3.289231e+01
  -2.148247e+02  -1.530054e+02
  -4.700122e+01  -2.508647e+02
   1.153837e+02  -1.819498e+02
   1.445732e+02  -2.847328e+01
   7.367951e+01   6.118636e+01
   2.879349e+01   3.937071e+01
   5.520285e+01  -1.239456e+01
   8.121754e+01  -6.948678e+00
   4.013371e+01   4.958829e+01
  -4.419948e+01   8.697473e+01
  -1.009964e+02   5.488944e+01
  -8.358541e+01  -3.384538e+01
   1.206659e+01  -1.097902e+02
   1.409289e+02  -8.951374e+01
   2.036190e+02   4.737147e+01
   1.108496e+02   2.061534e+02
  -1.040003e+02   2.416379e+02
  -2.782628e+02   1.068402e+02
  -2.740589e+02  -8.673798e+01
  -1.193024e+02  -1.866184e+02
   3.927897e+01  -1.572667e+02
   1.003205e+02  -8.998593e+01
   8.539632e+01  -7.309174e+01
   7.166139e+01  -9.441196e+01
   9.664674e+01  -7.642202e+01
   1.330674e+02   2.338694e+01
   1.232140e+02   1.603408e+02
   3.308043e+01   2.362373e+02
  -1.017157e+02   1.822540e+02
  -1.849501e+02   2.509239e+01
  -1.461731e+02  -1.251277e+02
  -2.371542e+01  -1.679011e+02
   6.781882e+01  -1.001444e+02
   6.235143e+01  -4.924151e+00
   7.666369e+00   4.178448e+01
  -6.582935e+00   3.591479e+01
   4.001853e+01   2.059163e+01
   8.130916e+01   2.459219e+01
   4.541513e+01   3.908384e+01
  -6.377549e+01   3.803246e+01
  -1.604764e+02   5.262048e+00
  -1.493372e+02  -4.956884e+01
  -2.062541e+01  -8.996440e+01
   1.217376e+02  -7.810426e+01
   1.512709e+02  -1.687092e+01
   5.194190e+01   4.008907e+01
  -6.248111e+01   3.774970e+01
  -7.860402e+01  -1.962225e+01
  -5.619664e+00  -6.974274e+01
   6.010027e+01  -5.844749e+01
   6.457639e+01   2.955243e+00
   4.277255e+01   5.164905e+01
   4.429505e+01   4.299522e+01
   6.535826e+01   2.357271e+00
   6.919517e+01   3.017975e-01
   3.469126e+01   6.891970e+01
  -3.489831e+01   1.497765e+02
  -1.180035e+02   1.462561e+02
  -1.665054e+02   3.540778e+01
  -1.267638e+02  -9.312370e+01
  -8.649956e+00  -1.294704e+02
   8.737263e+01  -6.251075e+01
   6.175905e+01   1.635971e+01
  -6.167363e+01   2.099037e+01
  -1.442606e+02  -4.512042e+01
  -8.096320e+01  -1.117230e+02
   8.268982e+01  -1.183621e+02
   1.992714e+02  -5.714683e+01
   1.713612e+02   3.263934e+01
   4.105018e+01   9.063682e+01
  -6.241050e+01   7.587641e+01
  -5.133270e+01   1.007198e+01
   3.974049e+01  -2.717707e+01
   9.372919e+01   2.370715e+01
   3.305394e+01   1.239714e+02
  -9.741209e+01   1.603023e+02
  -1.762657e+02   6.337090e+01
  -1.321848e+02  -1.064101e+02
  -9.991286e+00  -2.068527e+02
   8.935500e+01  -1.513819e+02
   1.092472e+02   5.290509e+00
   6.524444e+01   1.220591e+02
   1.472474e+00   1.121090e+02
  -4.630398e+01   2.277772e+01
  -5.604124e+01  -3.210297e+01
  -2.933337e+01  -9.322614e+00
  -3.567394e+00   2.226556e+01
  -1.915127e+01  -1.386240e+01
  -5.787099e+01  -9.152215e+01
  -4.670589e+01  -1.150721e+02
   4.636799e+01  -4.817286e+01
   1.447787e+02   4.123649e+01
   1.373969e+02   7.403155e+01
   1.833456e+01   5.079451e+01
  -9.334143e+01   2.230070e+01
  -9.253653e+01   8.745957e+00
  -9.724480e+00  -6.429173e+00
   4.117039e+01  -2.353858e+01
   1.340395e+01  -2.045591e+01
  -2.387749e+01   8.810908e-01
   6.643642e+00   1.039502e+01
   7.917260e+01   5.370062e+00
   9.478923e+01   2.525473e+01
   5.460849e+00   8.302679e+01
  -1.259690e+02   1.175787e+02
  -1.920343e+02   5.877452e+01
  -1.442185e+02  -7.211007e+01
  -2.506481e+01  -1.689562e+02
   8.160100e+01  -1.544025e+02
   1.178654e+02  -5.900421e+01
   8.374068e+01   2.300063e+01
   2.550840e+01   3.607116e+01
  -4.433280e+00   7.829104e+00
   9.729003e+00   3.004820e+00
   3.522258e+01   4.657957e+01
   2.496753e+01   9.327402e+01
  -3.028828e+01   7.437341e+01
  -8.493285e+01  -2.021543e+01
  -7.915890e+01  -1.142446e+02
  -1.792455e+00  -1.168778e+02
   8.737767e+01  -2.239649e+01
   1.060901e+02   8.113386e+01
   3.108203e+01   1.075193e+02
  -6.960537e+01   5.537564e+01
  -9.995384e+01  -1.344785e+01
  -3.899911e+01  -5.055706e+01
   3.352315e+01  -5.116390e+01
   3.019359e+01  -2.906169e+01
  -3.730638e+01  -1.056206e+00
  -7.218369e+01   6.300168e+00
  -1.458929e+01  -2.544762e+01
   8.245756e+01  -6.856172e+01
   1.186369e+02  -6.224334e+01
   6.435769e+01   1.104661e+01
  -1.702047e+01   8.556939e+01
  -5.371578e+01   8.140856e+01
  -3.624618e+01   4.052960e+00
   6.405219e-02  -5.885133e+01
   2.725297e+01  -4.301201e+01
   3.753672e+01   2.110790e+01
   2.692786e+01   5.609192e+01
  -3.434577e+00   3.224359e+01
  -3.423227e+01  -9.817917e+00
  -4.056774e+01  -2.074681e+01
  -2.133753e+01  -1.917353e-01
  -2.374706e-02   1.316826e+01
   7.232239e+00  -5.976888e+00
   9.556291e+00  -3.900458e+01
   2.098973e+01  -4.420278e+01
   3.465751e+01  -4.288299e+00
   2.852028e+01   4.916165e+01
  -6.024566e+00   6.336475e+01
  -4.736934e+01   1.986439e+01
  -5.685463e+01  -4.237733e+01
  -1.353591e+01  -6.612165e+01
   5.644408e+01  -3.458701e+01
   9.087136e+01   1.723192e+01
   5.028803e+01   4.600154e+01
  -2.998677e+01   4.093182e+01
  -6.703125e+01   2.024562e+01
  -2.390647e+01   4.445797e+00
   4.079067e+01   3.880177e+00
   4.004642e+01   1.878986e+01
  -3.388720e+01   3.372366e+01
  -9.787321e+01   1.973935e+01
