
 $NMID
 id='ANONYMOUS ', fmtdat='(2E16.6)'
 volume=1.0
 tramp=1.0
 $END
  -4.600439e+03   4.505528e+00
  -2.648980e+03  -2.809740e+03
   8.541979e+02  -2.916818e+03
   2.286933e+03  -8.623943e+02
   9.749150e+02   7.919195e+02
  -7.644419e+02   6.432995e+02
  -9.805687e+02  -4.923221e+02
   2.080330e+01  -1.163534e+03
   9.055943e+02  -8.239729e+02
   1.002814e+03   1.283460e+02
   4.599004e+02   9.370270e+02
  -2.864070e+02   9.455863e+02
  -7.000617e+02   1.062780e+02
  -4.093665e+02  -7.813860e+02
   3.023117e+02  -7.969627e+02
   6.523524e+02   2.188682e+01
   2.733547e+02   7.301220e+02
  -3.641217e+02   6.539855e+02
  -6.180982e+02   6.731388e+01
  -3.907009e+02  -3.882531e+02
   7.663286e-02  -4.602263e+02
   2.655848e+02  -2.724933e+02
   2.367355e+02  -9.741227e+00
  -1.075948e+02   1.096603e+02
  -4.321742e+02  -9.723648e+01
  -2.286537e+02  -4.508361e+02
   4.715195e+02  -4.512698e+02
   9.015163e+02   6.667613e+01
   4.667801e+02   5.885399e+02
  -4.127935e+02   5.307932e+02
  -7.958595e+02  -2.676162e+01
  -3.749524e+02  -5.113701e+02
   2.943102e+02  -5.524849e+02
   5.971177e+02  -2.146572e+02
   4.397842e+02   2.445373e+02
   7.030843e+01   5.098106e+02
  -2.261633e+02   3.060588e+02
  -2.029447e+02  -2.380176e+02
   1.676293e+02  -4.834163e+02
   4.879431e+02   3.600629e+00
   2.789330e+02   7.239975e+02
  -3.377294e+02   7.553933e+02
  -6.578239e+02   5.219791e+00
  -2.852806e+02  -6.007440e+02
   3.172803e+02  -3.523243e+02
   4.227553e+02   3.389941e+02
  -6.421135e+01   5.823002e+02
  -5.843871e+02   1.496472e+02
  -6.240539e+02  -4.238878e+02
  -1.705610e+02  -6.142898e+02
   4.043039e+02  -3.656781e+02
   6.614128e+02   7.882853e+01
   3.898120e+02   4.135888e+02
  -1.718199e+02   3.944257e+02
  -4.772595e+02   5.424144e+01
  -2.540726e+02  -2.247515e+02
   1.379940e+02  -1.233058e+02
   1.621749e+02   1.716080e+02
  -1.769603e+02   2.107093e+02
  -3.742316e+02  -7.908601e+01
  -1.486879e+02  -3.235095e+02
   2.186804e+02  -2.681125e+02
   3.401544e+02  -6.350980e+01
   1.899743e+02   8.869632e+01
  -3.014965e+01   2.138694e+02
  -2.160838e+02   3.237003e+02
  -3.392038e+02   2.304216e+02
  -3.058603e+02  -1.343620e+02
  -8.710067e+01  -4.570835e+02
   1.285213e+02  -4.057530e+02
   1.403613e+02  -1.096424e+02
   2.714311e+01   2.887470e+01
   3.023363e+01  -8.242100e+01
   1.889236e+02  -1.431993e+02
   2.896486e+02   4.187465e+01
   1.748208e+02   2.769041e+02
  -6.752547e+01   2.728613e+02
  -2.378474e+02   2.045989e+01
  -2.127776e+02  -2.443090e+02
   3.092702e+00  -3.081946e+02
   2.743414e+02  -1.289158e+02
   3.778393e+02   1.686356e+02
   1.958579e+02   3.669676e+02
  -1.075697e+02   3.220349e+02
  -2.424854e+02   1.209491e+02
  -1.569308e+02  -5.833460e+00
  -9.457345e+01   2.902584e+01
  -2.303684e+02   6.919994e+01
  -4.055638e+02  -5.214749e+01
  -3.402569e+02  -2.874761e+02
  -1.978233e+00  -4.511260e+02
   3.621486e+02  -4.231258e+02
   4.980215e+02  -2.096702e+02
   3.509535e+02   9.235529e+01
   6.278644e+01   3.065044e+02
  -1.373028e+02   2.686205e+02
  -9.525277e+01   3.088884e+01
   1.096436e+02  -1.211846e+02
   2.113855e+02  -7.732324e-01
   6.004194e+01   2.090024e+02
  -1.711970e+02   1.886691e+02
  -1.956387e+02  -6.173893e+01
   1.432998e+01  -2.079645e+02
   2.039764e+02  -4.005423e+01
   1.696561e+02   2.550124e+02
  -3.406221e+01   3.577920e+02
  -2.335289e+02   1.929673e+02
  -3.261087e+02  -6.527252e+01
  -2.809628e+02  -2.382645e+02
  -1.019094e+02  -2.651180e+02
   1.122034e+02  -1.664385e+02
   1.855666e+02  -2.473648e+01
   6.480613e+01   3.562119e+01
  -7.399676e+01  -3.488737e+01
  -3.645049e+01  -1.289664e+02
   1.257062e+02  -1.080411e+02
   1.878764e+02   9.458806e+00
   6.493860e+01   7.672960e+01
  -8.042864e+01   2.227944e+01
  -5.884013e+01  -7.009494e+01
   1.203818e+02  -8.705856e+01
   2.812612e+02  -3.105102e+00
   2.672307e+02   1.356717e+02
   6.713558e+01   2.561530e+02
  -1.817473e+02   2.698715e+02
  -2.906084e+02   1.351265e+02
  -1.799993e+02  -5.261529e+01
   2.294579e+01  -1.179789e+02
   9.780183e+01  -1.194592e+01
  -2.850238e+01   1.072071e+02
  -2.007266e+02   6.640557e+01
  -2.227032e+02  -1.030105e+02
  -7.429009e+01  -2.155157e+02
   9.652707e+01  -1.659961e+02
   1.503910e+02  -3.281723e+01
   7.715242e+01   4.282329e+01
  -2.462358e+01   7.881039e+00
  -3.954546e+01  -7.814366e+01
   6.674859e+01  -1.125359e+02
   1.969312e+02  -3.292352e+01
   1.961551e+02   1.215993e+02
   2.485711e+01   2.229988e+02
  -1.683907e+02   1.705204e+02
  -2.020062e+02   6.459898e+00
  -6.954526e+01  -1.206997e+02
   6.848582e+01  -1.176784e+02
   8.769013e+01  -3.304989e+01
   2.271649e+01   2.637526e+01
  -1.825633e+01   2.076760e+01
   1.027855e+01  -4.342369e+00
   6.777261e+01   1.109723e+01
   8.524347e+01   8.043553e+01
   1.620763e+01   1.554655e+02
  -1.230265e+02   1.534956e+02
  -2.342232e+02   3.030470e+01
  -2.064749e+02  -1.486013e+02
  -4.462446e+01  -2.419609e+02
   1.114417e+02  -1.751018e+02
   1.394855e+02  -2.736846e+01
   7.132898e+01   5.888349e+01
   2.804272e+01   3.792202e+01
   5.349207e+01  -1.186447e+01
   7.881263e+01  -6.353512e+00
   3.907662e+01   4.861245e+01
  -4.320998e+01   8.469557e+01
  -9.881222e+01   5.286233e+01
  -8.136391e+01  -3.373593e+01
   1.253100e+01  -1.067633e+02
   1.374162e+02  -8.579702e+01
   1.966291e+02   4.717251e+01
   1.055696e+02   1.996608e+02
  -1.018301e+02   2.324348e+02
  -2.688218e+02   1.017267e+02
  -2.637862e+02  -8.451555e+01
  -1.143605e+02  -1.800430e+02
   3.826354e+01  -1.513487e+02
   9.680719e+01  -8.655744e+01
   8.229014e+01  -7.055395e+01
   6.920733e+01  -9.130275e+01
   9.359962e+01  -7.381128e+01
   1.286906e+02   2.287877e+01
   1.186299e+02   1.552559e+02
   3.115376e+01   2.281976e+02
  -9.872822e+01   1.754696e+02
  -1.783048e+02   2.342286e+01
  -1.402980e+02  -1.213045e+02
  -2.207603e+01  -1.618963e+02
   6.589880e+01  -9.589284e+01
   6.005317e+01  -3.917391e+00
   6.715616e+00   4.066166e+01
  -7.150791e+00   3.441563e+01
   3.836403e+01   1.957818e+01
   7.878922e+01   2.389079e+01
   4.394243e+01   3.807190e+01
  -6.216750e+01   3.649840e+01
  -1.555926e+02   4.106138e+00
  -1.439265e+02  -4.884295e+01
  -1.882839e+01  -8.703814e+01
   1.183842e+02  -7.479717e+01
   1.460321e+02  -1.551977e+01
   4.970438e+01   3.917582e+01
  -6.058558e+01   3.655118e+01
  -7.598961e+01  -1.918801e+01
  -5.584910e+00  -6.783218e+01
   5.799465e+01  -5.681185e+01
   6.268671e+01   2.955937e+00
   4.172246e+01   5.031335e+01
   4.282844e+01   4.181588e+01
   6.290355e+01   2.325625e+00
   6.679027e+01   4.828801e-01
   3.360025e+01   6.706440e+01
  -3.404577e+01   1.450160e+02
  -1.149008e+02   1.409789e+02
  -1.616460e+02   3.342006e+01
  -1.224358e+02  -9.063595e+01
  -7.663254e+00  -1.253110e+02
   8.502239e+01  -6.033212e+01
   5.980513e+01   1.585281e+01
  -5.961158e+01   2.014846e+01
  -1.391199e+02  -4.384077e+01
  -7.769309e+01  -1.080034e+02
   8.026943e+01  -1.139028e+02
   1.924094e+02  -5.434641e+01
   1.650363e+02   3.217984e+01
   3.914914e+01   8.746654e+01
  -6.045359e+01   7.267567e+01
  -4.942488e+01   9.244547e+00
   3.861004e+01  -2.628526e+01
   9.063869e+01   2.308033e+01
   3.194416e+01   1.198739e+02
  -9.407460e+01   1.549201e+02
  -1.702246e+02   6.128732e+01
  -1.275994e+02  -1.027683e+02
  -9.458098e+00  -1.997574e+02
   8.650672e+01  -1.459175e+02
   1.053937e+02   5.587758e+00
   6.241181e+01   1.180660e+02
   7.265117e-01   1.079193e+02
  -4.491516e+01   2.153553e+01
  -5.375479e+01  -3.107626e+01
  -2.796566e+01  -8.856515e+00
  -3.526092e+00   2.133539e+01
  -1.873653e+01  -1.388602e+01
  -5.571097e+01  -8.866975e+01
  -4.448942e+01  -1.109085e+02
   4.523078e+01  -4.611524e+01
   1.396863e+02   4.007461e+01
   1.322688e+02   7.166829e+01
   1.754008e+01   4.927550e+01
  -8.999869e+01   2.159661e+01
  -8.929602e+01   8.163498e+00
  -9.559189e+00  -6.537592e+00
   3.964582e+01  -2.267684e+01
   1.311139e+01  -1.940175e+01
  -2.285138e+01   1.017719e+00
   6.344694e+00   9.860400e+00
   7.626077e+01   5.032911e+00
   9.162277e+01   2.457500e+01
   5.597891e+00   8.052453e+01
  -1.216205e+02   1.136788e+02
  -1.859566e+02   5.660167e+01
  -1.398054e+02  -6.987919e+01
  -2.413445e+01  -1.633265e+02
   7.938216e+01  -1.491811e+02
   1.142745e+02  -5.697219e+01
   8.090345e+01   2.232677e+01
   2.457299e+01   3.505339e+01
  -4.165875e+00   7.840185e+00
   9.456083e+00   3.180067e+00
   3.373057e+01   4.517881e+01
   2.366844e+01   9.013328e+01
  -2.945390e+01   7.179323e+01
  -8.197517e+01  -1.953655e+01
  -7.646918e+01  -1.103569e+02
  -1.903093e+00  -1.130580e+02
   8.433603e+01  -2.192730e+01
   1.026414e+02   7.826042e+01
   3.012858e+01   1.041061e+02
  -6.745434e+01   5.375985e+01
  -9.688771e+01  -1.316977e+01
  -3.769356e+01  -4.937867e+01
   3.276986e+01  -4.973865e+01
   2.963048e+01  -2.788267e+01
  -3.582743e+01  -7.297874e-01
  -6.976902e+01   6.031536e+00
  -1.413847e+01  -2.478091e+01
   7.979976e+01  -6.605097e+01
   1.149034e+02  -5.953486e+01
   6.237085e+01   1.117648e+01
  -1.659494e+01   8.277627e+01
  -5.237773e+01   7.859877e+01
  -3.550428e+01   3.974419e+00
  -1.095394e-01  -5.683142e+01
   2.645091e+01  -4.176472e+01
   3.639685e+01   2.016146e+01
   2.598116e+01   5.429624e+01
  -3.440245e+00   3.147754e+01
  -3.313666e+01  -9.425179e+00
  -3.916700e+01  -2.036551e+01
  -2.055667e+01  -3.948049e-01
  -3.356388e-02   1.302169e+01
   6.778313e+00  -5.293402e+00
   8.806992e+00  -3.767626e+01
   1.990793e+01  -4.328461e+01
   3.355326e+01  -4.749205e+00
   2.807751e+01   4.736238e+01
  -5.329936e+00   6.145468e+01
  -4.574233e+01   1.938723e+01
  -5.522419e+01  -4.094187e+01
  -1.319860e+01  -6.391479e+01
   5.474908e+01  -3.334649e+01
   8.804303e+01   1.677459e+01
   4.858748e+01   4.457065e+01
  -2.915478e+01   3.969375e+01
  -6.497886e+01   1.968644e+01
  -2.334910e+01   4.240618e+00
   3.915454e+01   3.444247e+00
   3.866340e+01   1.778497e+01
  -3.240321e+01   3.241729e+01
  -9.412414e+01   1.915884e+01
