
 $NMID
 id='ANONYMOUS ', fmtdat='(2E16.6)'
 volume=1.0
 tramp=1.0
 $END
  -4.715497e+03  -1.704629e+01
  -2.690773e+03  -2.914624e+03
   9.229431e+02  -2.993222e+03
   2.376164e+03  -8.426941e+02
   9.904918e+02   8.607933e+02
  -8.145690e+02   6.760638e+02
  -1.022857e+03  -5.189440e+02
   2.771236e+01  -1.207849e+03
   9.426000e+02  -8.422034e+02
   1.032658e+03   1.455972e+02
   4.625988e+02   9.722681e+02
  -3.094535e+02   9.711585e+02
  -7.296662e+02   1.015893e+02
  -4.194193e+02  -8.097814e+02
   3.190592e+02  -8.175245e+02
   6.726609e+02   3.031348e+01
   2.710259e+02   7.526496e+02
  -3.857797e+02   6.613800e+02
  -6.350040e+02   5.310509e+01
  -3.906970e+02  -4.073495e+02
   1.003776e+01  -4.713898e+02
   2.778323e+02  -2.758018e+02
   2.486496e+02  -6.035835e+00
  -1.031430e+02   1.198938e+02
  -4.415320e+02  -9.041278e+01
  -2.409649e+02  -4.588114e+02
   4.763663e+02  -4.667501e+02
   9.236402e+02   6.506015e+01
   4.817979e+02   6.070906e+02
  -4.220310e+02   5.507407e+02
  -8.174054e+02  -2.468605e+01
  -3.857396e+02  -5.249806e+02
   3.010493e+02  -5.662478e+02
   6.110692e+02  -2.178201e+02
   4.490552e+02   2.537063e+02
   6.825040e+01   5.259234e+02
  -2.397747e+02   3.157746e+02
  -2.173610e+02  -2.469068e+02
   1.687918e+02  -5.035316e+02
   5.058955e+02  -2.901404e+00
   2.920937e+02   7.422002e+02
  -3.482284e+02   7.772767e+02
  -6.814394e+02   3.898622e+00
  -2.949174e+02  -6.219536e+02
   3.295225e+02  -3.661117e+02
   4.377693e+02   3.464098e+02
  -6.486499e+01   5.969043e+02
  -5.974681e+02   1.526861e+02
  -6.343217e+02  -4.342836e+02
  -1.691864e+02  -6.276319e+02
   4.156437e+02  -3.721305e+02
   6.748011e+02   8.429295e+01
   3.945251e+02   4.287887e+02
  -1.814512e+02   4.070199e+02
  -4.925831e+02   5.138606e+01
  -2.588506e+02  -2.389885e+02
   1.469082e+02  -1.303376e+02
   1.697058e+02   1.798158e+02
  -1.827512e+02   2.201850e+02
  -3.852599e+02  -8.295236e+01
  -1.501687e+02  -3.344973e+02
   2.263616e+02  -2.707503e+02
   3.446495e+02  -5.723934e+01
   1.868123e+02   9.163706e+01
  -3.406019e+01   2.099563e+02
  -2.170977e+02   3.215886e+02
  -3.418358e+02   2.330589e+02
  -3.110338e+02  -1.357451e+02
  -8.734993e+01  -4.668162e+02
   1.369768e+02  -4.143187e+02
   1.497047e+02  -1.076317e+02
   2.849205e+01   3.666748e+01
   2.583877e+01  -7.979030e+01
   1.874546e+02  -1.469345e+02
   2.936242e+02   3.980762e+01
   1.789625e+02   2.808961e+02
  -6.788059e+01   2.788228e+02
  -2.419932e+02   2.262067e+01
  -2.169694e+02  -2.473672e+02
   2.482717e+00  -3.136528e+02
   2.786334e+02  -1.318272e+02
   3.837398e+02   1.722158e+02
   1.970092e+02   3.753714e+02
  -1.135426e+02   3.279182e+02
  -2.502475e+02   1.192451e+02
  -1.599502e+02  -1.168244e+01
  -9.329333e+01   2.569430e+01
  -2.300898e+02   6.905441e+01
  -4.080572e+02  -5.369616e+01
  -3.420172e+02  -2.921190e+02
   7.566272e-02  -4.557324e+02
   3.675900e+02  -4.253002e+02
   5.049524e+02  -2.097369e+02
   3.568480e+02   9.482414e+01
   6.393178e+01   3.123235e+02
  -1.422351e+02   2.744268e+02
  -1.009987e+02   3.111945e+01
   1.102004e+02  -1.257025e+02
   2.172752e+02  -2.176251e+00
   6.256806e+01   2.144298e+02
  -1.762063e+02   1.942852e+02
  -2.017565e+02  -6.331288e+01
   1.441192e+01  -2.137818e+02
   2.080183e+02  -4.148192e+01
   1.704033e+02   2.596444e+02
  -3.787743e+01   3.618923e+02
  -2.370209e+02   1.919015e+02
  -3.269002e+02  -6.917684e+01
  -2.813699e+02  -2.413887e+02
  -1.028135e+02  -2.673049e+02
   1.133203e+02  -1.682678e+02
   1.891269e+02  -2.494623e+01
   6.703181e+01   3.727299e+01
  -7.530431e+01  -3.404689e+01
  -3.815745e+01  -1.307541e+02
   1.272748e+02  -1.103241e+02
   1.915613e+02   9.561171e+00
   6.705731e+01   7.870772e+01
  -8.077126e+01   2.374018e+01
  -5.962144e+01  -6.964262e+01
   1.206075e+02  -8.642996e+01
   2.823536e+02  -1.963259e+00
   2.686490e+02   1.369927e+02
   6.777711e+01   2.581140e+02
  -1.836643e+02   2.725171e+02
  -2.950727e+02   1.364521e+02
  -1.836706e+02  -5.436588e+01
   2.318874e+01  -1.209956e+02
   1.004360e+02  -1.264913e+01
  -2.788710e+01   1.091302e+02
  -2.035410e+02   6.746151e+01
  -2.258521e+02  -1.052367e+02
  -7.463043e+01  -2.194025e+02
   9.878807e+01  -1.685555e+02
   1.532470e+02  -3.314381e+01
   7.934669e+01   4.378656e+01
  -2.350787e+01   9.157643e+00
  -3.952357e+01  -7.720316e+01
   6.661836e+01  -1.122667e+02
   1.978926e+02  -3.258458e+01
   1.975637e+02   1.233506e+02
   2.428710e+01   2.258489e+02
  -1.717268e+02   1.720223e+02
  -2.055310e+02   5.000541e+00
  -7.037163e+01  -1.236537e+02
   7.015274e+01  -1.195813e+02
   8.965748e+01  -3.336035e+01
   2.396130e+01   2.659537e+01
  -1.734418e+01   2.122994e+01
   1.077926e+01  -3.094335e+00
   6.727272e+01   1.278440e+01
   8.404250e+01   8.148375e+01
   1.509697e+01   1.557471e+02
  -1.242462e+02   1.535995e+02
  -2.360456e+02   2.977555e+01
  -2.078104e+02  -1.508368e+02
  -4.368818e+01  -2.451877e+02
   1.142445e+02  -1.768208e+02
   1.416229e+02  -2.641806e+01
   7.155941e+01   6.088402e+01
   2.777500e+01   3.908815e+01
   5.398330e+01  -1.135486e+01
   7.906866e+01  -5.599052e+00
   3.790316e+01   4.910193e+01
  -4.478111e+01   8.389105e+01
  -9.895126e+01   5.131508e+01
  -8.017260e+01  -3.443677e+01
   1.355728e+01  -1.061973e+02
   1.378742e+02  -8.481542e+01
   1.972011e+02   4.824416e+01
   1.059076e+02   2.012357e+02
  -1.031398e+02   2.340020e+02
  -2.718610e+02   1.016657e+02
  -2.665453e+02  -8.680267e+01
  -1.150079e+02  -1.830287e+02
   3.954539e+01  -1.531771e+02
   9.878672e+01  -8.706365e+01
   8.434178e+01  -7.073808e+01
   7.126234e+01  -9.152332e+01
   9.532246e+01  -7.341226e+01
   1.295577e+02   2.446236e+01
   1.184149e+02   1.577317e+02
   2.987293e+01   2.306165e+02
  -1.008426e+02   1.767609e+02
  -1.804302e+02   2.299706e+01
  -1.413200e+02  -1.230205e+02
  -2.178550e+01  -1.637091e+02
   6.651862e+01  -9.698252e+01
   6.023055e+01  -4.483212e+00
   6.882285e+00   4.018794e+01
  -6.382231e+00   3.431512e+01
   3.929119e+01   2.036700e+01
   7.905374e+01   2.518865e+01
   4.363919e+01   3.873927e+01
  -6.243372e+01   3.596462e+01
  -1.558941e+02   2.976080e+00
  -1.446043e+02  -4.961353e+01
  -1.927184e+01  -8.708452e+01
   1.191100e+02  -7.436723e+01
   1.473768e+02  -1.506395e+01
   5.000134e+01   3.921688e+01
  -6.157007e+01   3.596328e+01
  -7.640764e+01  -2.008621e+01
  -4.205632e+00  -6.832780e+01
   5.981191e+01  -5.646682e+01
   6.295296e+01   3.907105e+00
   4.073161e+01   5.131149e+01
   4.254156e+01   4.252764e+01
   6.390105e+01   2.798740e+00
   6.749126e+01   9.813349e-01
   3.263630e+01   6.777691e+01
  -3.608574e+01   1.456800e+02
  -1.165516e+02   1.408606e+02
  -1.622745e+02   3.211559e+01
  -1.222456e+02  -9.233987e+01
  -6.908734e+00  -1.259702e+02
   8.596581e+01  -5.953486e+01
   6.013490e+01   1.683551e+01
  -6.041957e+01   1.982595e+01
  -1.403800e+02  -4.546527e+01
  -7.796046e+01  -1.096451e+02
   8.168430e+01  -1.145325e+02
   1.946964e+02  -5.392203e+01
   1.666869e+02   3.320839e+01
   3.932898e+01   8.862091e+01
  -6.123322e+01   7.348002e+01
  -4.986663e+01   9.545547e+00
   3.915755e+01  -2.590029e+01
   9.120011e+01   2.430344e+01
   3.080369e+01   1.216112e+02
  -9.716191e+01   1.556914e+02
  -1.731960e+02   6.001783e+01
  -1.281241e+02  -1.054830e+02
  -7.539026e+00  -2.022435e+02
   8.874172e+01  -1.469286e+02
   1.063386e+02   6.160350e+00
   6.241331e+01   1.194606e+02
   7.134187e-01   1.090476e+02
  -4.502975e+01   2.167341e+01
  -5.446957e+01  -3.163213e+01
  -2.881960e+01  -9.109500e+00
  -3.547594e+00   2.169521e+01
  -1.801941e+01  -1.390039e+01
  -5.534698e+01  -8.991378e+01
  -4.477665e+01  -1.124965e+02
   4.537006e+01  -4.624275e+01
   1.409300e+02   4.174238e+01
   1.334922e+02   7.346389e+01
   1.718628e+01   4.966621e+01
  -9.163813e+01   2.091373e+01
  -9.033740e+01   7.667662e+00
  -9.069741e+00  -6.490316e+00
   4.049937e+01  -2.269630e+01
   1.294110e+01  -1.977239e+01
  -2.358081e+01   7.700937e-01
   6.580133e+00   1.020962e+01
   7.758049e+01   5.960913e+00
   9.222881e+01   2.578875e+01
   4.003485e+00   8.151876e+01
  -1.246479e+02   1.136163e+02
  -1.882038e+02   5.489524e+01
  -1.399011e+02  -7.260388e+01
  -2.250492e+01  -1.654255e+02
   8.145782e+01  -1.495216e+02
   1.158239e+02  -5.596018e+01
   8.153050e+01   2.342841e+01
   2.434497e+01   3.545121e+01
  -4.731616e+00   7.661525e+00
   9.187680e+00   3.043881e+00
   3.380484e+01   4.561590e+01
   2.343639e+01   9.104670e+01
  -3.036798e+01   7.221226e+01
  -8.284714e+01  -2.065988e+01
  -7.613171e+01  -1.126347e+02
  -2.357396e-01  -1.144705e+02
   8.602467e+01  -2.092089e+01
   1.029231e+02   8.073947e+01
   2.891447e+01   1.055596e+02
  -6.892442e+01   5.309341e+01
  -9.735019e+01  -1.457842e+01
  -3.701977e+01  -4.978523e+01
   3.359535e+01  -4.919866e+01
   2.956033e+01  -2.765722e+01
  -3.681743e+01  -1.308782e+00
  -7.060626e+01   5.317651e+00
  -1.377004e+01  -2.505428e+01
   8.120806e+01  -6.601751e+01
   1.160692e+02  -5.936699e+01
   6.226270e+01   1.161999e+01
  -1.769737e+01   8.331687e+01
  -5.330338e+01   7.852961e+01
  -3.544389e+01   3.044417e+00
   7.485668e-01  -5.773634e+01
   2.733030e+01  -4.158425e+01
   3.667396e+01   2.125951e+01
   2.559657e+01   5.510819e+01
  -4.029818e+00   3.129745e+01
  -3.341364e+01  -1.007223e+01
  -3.911968e+01  -2.065441e+01
  -2.066772e+01  -3.249178e-01
  -4.742780e-01   1.279917e+01
   6.703145e+00  -6.084230e+00
   9.882834e+00  -3.846981e+01
   2.170462e+01  -4.323322e+01
   3.454168e+01  -3.588124e+00
   2.734646e+01   4.896714e+01
  -6.968462e+00   6.234484e+01
  -4.675841e+01   1.886362e+01
  -5.505232e+01  -4.239502e+01
  -1.242080e+01  -6.493807e+01
   5.547968e+01  -3.297734e+01
   8.849170e+01   1.811646e+01
   4.852687e+01   4.553947e+01
  -2.990392e+01   3.946916e+01
  -6.586747e+01   1.878403e+01
  -2.331882e+01   3.831818e+00
   4.021580e+01   4.074123e+00
   3.932973e+01   1.889262e+01
  -3.343931e+01   3.297207e+01
  -9.613615e+01   1.860403e+01
