
 $NMID
 id='ANONYMOUS ', fmtdat='(2E16.6)'
 volume=1.0
 tramp=1.0
 $END
  -3.525685e+03  -7.593523e-01
  -2.019598e+03  -2.154688e+03
   6.631769e+02  -2.225137e+03
   1.747121e+03  -6.470426e+02
   7.323177e+02   6.109900e+02
  -5.956070e+02   4.859317e+02
  -7.502169e+02  -3.853639e+02
   2.177921e+01  -8.930422e+02
   6.964757e+02  -6.276500e+02
   7.661467e+02   1.019109e+02
   3.481903e+02   7.182265e+02
  -2.225785e+02   7.212761e+02
  -5.366090e+02   7.683823e+01
  -3.112725e+02  -6.010170e+02
   2.336212e+02  -6.090594e+02
   4.988988e+02   1.913332e+01
   2.073052e+02   5.583711e+02
  -2.784521e+02   4.972060e+02
  -4.699190e+02   4.929468e+01
  -2.959208e+02  -2.962859e+02
   1.204392e+00  -3.502936e+02
   2.035604e+02  -2.070309e+02
   1.812065e+02  -5.132051e+00
  -8.418405e+01   8.713099e+01
  -3.344597e+02  -7.341164e+01
  -1.770853e+02  -3.479148e+02
   3.627685e+02  -3.488621e+02
   6.931283e+02   5.109129e+01
   3.573437e+02   4.535128e+02
  -3.190906e+02   4.084219e+02
  -6.120752e+02  -2.108759e+01
  -2.875815e+02  -3.933118e+02
   2.261231e+02  -4.242685e+02
   4.577886e+02  -1.646341e+02
   3.364564e+02   1.877404e+02
   5.233985e+01   3.906637e+02
  -1.752548e+02   2.326951e+02
  -1.558236e+02  -1.860008e+02
   1.310357e+02  -3.728840e+02
   3.772726e+02   4.020007e+00
   2.144975e+02   5.579105e+02
  -2.607594e+02   5.795552e+02
  -5.054097e+02   1.394124e+00
  -2.171725e+02  -4.628015e+02
   2.457362e+02  -2.696039e+02
   3.252545e+02   2.617030e+02
  -4.945572e+01   4.473680e+02
  -4.483863e+02   1.150519e+02
  -4.784771e+02  -3.240764e+02
  -1.307206e+02  -4.697967e+02
   3.098922e+02  -2.799442e+02
   5.064095e+02   6.021035e+01
   2.971145e+02   3.167026e+02
  -1.334908e+02   3.014382e+02
  -3.655457e+02   3.996722e+01
  -1.921910e+02  -1.731096e+02
   1.077914e+02  -9.337223e+01
   1.236243e+02   1.333080e+02
  -1.373892e+02   1.617437e+02
  -2.869098e+02  -6.158931e+01
  -1.129084e+02  -2.480833e+02
   1.670123e+02  -2.046624e+02
   2.583777e+02  -4.901019e+01
   1.447658e+02   6.584390e+01
  -2.074825e+01   1.622510e+02
  -1.624655e+02   2.487058e+02
  -2.589656e+02   1.782333e+02
  -2.351285e+02  -1.023266e+02
  -6.700036e+01  -3.502230e+02
   9.892456e+01  -3.097228e+02
   1.069879e+02  -8.184128e+01
   1.874285e+01   2.313878e+01
   2.126826e+01  -6.434393e+01
   1.445059e+02  -1.117785e+02
   2.229819e+02   3.094370e+01
   1.349857e+02   2.123017e+02
  -5.155543e+01   2.097945e+02
  -1.829430e+02   1.633612e+01
  -1.640835e+02  -1.870034e+02
   1.743153e+00  -2.366059e+02
   2.103286e+02  -9.962027e+01
   2.898579e+02   1.284875e+02
   1.500677e+02   2.806195e+02
  -8.241468e+01   2.459864e+02
  -1.849724e+02   9.174462e+01
  -1.186551e+02  -4.875036e+00
  -7.100111e+01   2.292763e+01
  -1.756941e+02   5.468033e+01
  -3.104881e+02  -3.790025e+01
  -2.611941e+02  -2.185399e+02
  -3.144561e+00  -3.450305e+02
   2.752893e+02  -3.249408e+02
   3.803087e+02  -1.619158e+02
   2.690742e+02   7.019514e+01
   4.859923e+01   2.350390e+02
  -1.054163e+02   2.056400e+02
  -7.334215e+01   2.259337e+01
   8.445768e+01  -9.382705e+01
   1.627919e+02  -4.691100e-01
   4.606222e+01   1.608343e+02
  -1.318776e+02   1.446656e+02
  -1.503102e+02  -4.786242e+01
   1.124783e+01  -1.598226e+02
   1.566503e+02  -3.103814e+01
   1.303194e+02   1.946207e+02
  -2.513842e+01   2.732843e+02
  -1.773399e+02   1.481559e+02
  -2.488875e+02  -4.824765e+01
  -2.157892e+02  -1.807387e+02
  -7.931828e+01  -2.026296e+02
   8.532912e+01  -1.280147e+02
   1.422516e+02  -1.920218e+01
   4.957662e+01   2.764303e+01
  -5.726630e+01  -2.646983e+01
  -2.845702e+01  -9.912733e+01
   9.626870e+01  -8.333954e+01
   1.441837e+02   7.017088e+00
   4.986364e+01   5.909846e+01
  -6.186176e+01   1.767847e+01
  -4.574872e+01  -5.339917e+01
   9.131475e+01  -6.734607e+01
   2.149538e+02  -3.950431e+00
   2.051996e+02   1.024550e+02
   5.268726e+01   1.959167e+02
  -1.381289e+02   2.075015e+02
  -2.222650e+02   1.042685e+02
  -1.379636e+02  -4.026660e+01
   1.765214e+01  -9.068461e+01
   7.524226e+01  -9.117256e+00
  -2.155646e+01   8.262811e+01
  -1.537295e+02   5.151250e+01
  -1.708015e+02  -7.840983e+01
  -5.724870e+01  -1.648844e+02
   7.368200e+01  -1.272917e+02
   1.152392e+02  -2.535874e+01
   5.928215e+01   3.298180e+01
  -1.905475e+01   6.684183e+00
  -3.110686e+01  -5.939987e+01
   5.016500e+01  -8.660008e+01
   1.504442e+02  -2.628307e+01
   1.505819e+02   9.224316e+01
   1.969824e+01   1.705786e+02
  -1.284279e+02   1.308314e+02
  -1.544492e+02   5.169524e+00
  -5.327040e+01  -9.241872e+01
   5.231119e+01  -9.023025e+01
   6.716216e+01  -2.535375e+01
   1.763727e+01   2.042049e+01
  -1.386306e+01   1.634968e+01
   7.505841e+00  -3.111136e+00
   5.136860e+01   8.029143e+00
   6.535715e+01   6.067569e+01
   1.331895e+01   1.185293e+02
  -9.318825e+01   1.179744e+02
  -1.790308e+02   2.426540e+01
  -1.585175e+02  -1.128586e+02
  -3.480621e+01  -1.848733e+02
   8.482959e+01  -1.341118e+02
   1.064680e+02  -2.119423e+01
   5.441669e+01   4.482355e+01
   2.134633e+01   2.885630e+01
   4.074089e+01  -9.259993e+00
   6.005505e+01  -5.271657e+00
   2.997616e+01   3.660814e+01
  -3.237296e+01   6.455197e+01
  -7.476791e+01   4.095371e+01
  -6.215875e+01  -2.493723e+01
   8.754365e+00  -8.140746e+01
   1.042749e+02  -6.639528e+01
   1.505259e+02   3.496413e+01
   8.177314e+01   1.522804e+02
  -7.685624e+01   1.783505e+02
  -2.052612e+02   7.884247e+01
  -2.020429e+02  -6.384946e+01
  -8.796044e+01  -1.374509e+02
   2.887981e+01  -1.158847e+02
   7.381307e+01  -6.637820e+01
   6.273016e+01  -5.397203e+01
   5.258155e+01  -6.975652e+01
   7.114723e+01  -5.658425e+01
   9.824237e+01   1.701038e+01
   9.111209e+01   1.181367e+02
   2.460961e+01   1.742483e+02
  -7.489534e+01   1.344660e+02
  -1.363580e+02   1.851483e+01
  -1.078101e+02  -9.229891e+01
  -1.747569e+01  -1.238207e+02
   5.012933e+01  -7.377519e+01
   4.611322e+01  -3.436814e+00
   5.594151e+00   3.106443e+01
  -5.110672e+00   2.660868e+01
   2.935368e+01   1.507038e+01
   6.009046e+01   1.793051e+01
   3.366155e+01   2.879234e+01
  -4.716987e+01   2.823744e+01
  -1.187100e+02   4.052197e+00
  -1.103155e+02  -3.662275e+01
  -1.506768e+01  -6.660202e+01
   8.998864e+01  -5.781837e+01
   1.116292e+02  -1.246989e+01
   3.833328e+01   2.971191e+01
  -4.601901e+01   2.804149e+01
  -5.805269e+01  -1.435666e+01
  -4.464722e+00  -5.149371e+01
   4.405310e+01  -4.329709e+01
   4.772447e+01   1.991919e+00
   3.187714e+01   3.800036e+01
   3.282439e+01   3.167482e+01
   4.810953e+01   1.680307e+00
   5.103089e+01   1.545046e-01
   2.587328e+01   5.085391e+01
  -2.542367e+01   1.106535e+02
  -8.703926e+01   1.081835e+02
  -1.231119e+02   2.640723e+01
  -9.379613e+01  -6.859044e+01
  -6.486271e+00  -9.566693e+01
   6.447711e+01  -4.640415e+01
   4.560981e+01   1.190355e+01
  -4.545430e+01   1.556595e+01
  -1.064030e+02  -3.309856e+01
  -5.975405e+01  -8.233507e+01
   6.093939e+01  -8.736777e+01
   1.469447e+02  -4.222872e+01
   1.263723e+02   2.404488e+01
   3.025317e+01   6.682069e+01
  -4.606037e+01   5.589205e+01
  -3.788983e+01   7.327371e+00
   2.929381e+01  -2.018284e+01
   6.920570e+01   1.730752e+01
   2.465569e+01   9.132851e+01
  -7.142775e+01   1.183567e+02
  -1.297349e+02   4.708076e+01
  -9.760233e+01  -7.816199e+01
  -7.715417e+00  -1.524561e+02
   6.568455e+01  -1.116993e+02
   8.060863e+01   3.864303e+00
   4.818120e+01   9.003733e+01
   9.889160e-01   8.268583e+01
  -3.426592e+01   1.678180e+01
  -4.126142e+01  -2.366755e+01
  -2.147565e+01  -6.862304e+00
  -2.656139e+00   1.638205e+01
  -1.435582e+01  -1.027249e+01
  -4.284896e+01  -6.746544e+01
  -3.438756e+01  -8.479777e+01
   3.432953e+01  -3.558271e+01
   1.067942e+02   3.021239e+01
   1.013055e+02   5.444738e+01
   1.361954e+01   3.751046e+01
  -6.867322e+01   1.660120e+01
  -6.822591e+01   6.520117e+00
  -7.323759e+00  -4.778923e+00
   3.026835e+01  -1.737898e+01
   9.987215e+00  -1.503135e+01
  -1.747958e+01   6.946721e-01
   4.844322e+00   7.607959e+00
   5.824491e+01   3.802156e+00
   6.997707e+01   1.845669e+01
   4.391201e+00   6.119266e+01
  -9.254139e+01   8.692905e+01
  -1.415956e+02   4.378347e+01
  -1.066558e+02  -5.277884e+01
  -1.883116e+01  -1.245221e+02
   5.998804e+01  -1.141223e+02
   8.688271e+01  -4.383660e+01
   6.179535e+01   1.680827e+01
   1.890941e+01   2.661673e+01
  -3.136671e+00   5.837377e+00
   7.271297e+00   2.268624e+00
   2.600962e+01   3.439458e+01
   1.845696e+01   6.882154e+01
  -2.224392e+01   5.491113e+01
  -6.261470e+01  -1.474262e+01
  -5.857607e+01  -8.402780e+01
  -1.663451e+00  -8.613469e+01
   6.424455e+01  -1.676393e+01
   7.837478e+01   5.949056e+01
   2.323146e+01   7.922410e+01
  -5.117823e+01   4.110182e+01
  -7.384852e+01  -9.668879e+00
  -2.900192e+01  -3.734803e+01
   2.463823e+01  -3.798485e+01
   2.239446e+01  -2.154576e+01
  -2.734750e+01  -6.635869e-01
  -5.321186e+01   4.787024e+00
  -1.087429e+01  -1.877589e+01
   6.072226e+01  -5.068172e+01
   8.756214e+01  -4.600884e+01
   4.765715e+01   8.115919e+00
  -1.238272e+01   6.317755e+01
  -3.958737e+01   6.022834e+01
  -2.684740e+01   3.216660e+00
  -1.264305e-01  -4.331853e+01
   1.997622e+01  -3.185979e+01
   2.768914e+01   1.536545e+01
   1.998270e+01   4.132663e+01
  -2.413000e+00   2.391095e+01
  -2.525473e+01  -7.126010e+00
  -3.002257e+01  -1.531647e+01
  -1.576502e+01  -1.802080e-01
   8.926262e-02   9.805696e+00
   5.381562e+00  -4.206286e+00
   6.823500e+00  -2.864791e+01
   1.509588e+01  -3.270939e+01
   2.539010e+01  -3.450809e+00
   2.125792e+01   3.598470e+01
  -4.080811e+00   4.665559e+01
  -3.480845e+01   1.479851e+01
  -4.208877e+01  -3.103063e+01
  -1.016512e+01  -4.868106e+01
   4.161604e+01  -2.564804e+01
   6.712589e+01   1.247962e+01
   3.719647e+01   3.383749e+01
  -2.203272e+01   3.032973e+01
  -4.939606e+01   1.516483e+01
  -1.770712e+01   3.378930e+00
   2.990490e+01   2.743722e+00
   2.944476e+01   1.365049e+01
  -2.483912e+01   2.478095e+01
  -7.192615e+01   1.466565e+01
