
 $NMID
 id='ANONYMOUS ', fmtdat='(2E16.6)'
 volume=1.0
 tramp=1.0
 $END
  -4.335407e+03   3.452217e+01
  -2.564172e+03  -2.574931e+03
   6.827766e+02  -2.758373e+03
   2.091796e+03  -9.372650e+02
   9.724935e+02   6.151023e+02
  -6.198094e+02   5.739250e+02
  -8.766082e+02  -4.141853e+02
  -2.342117e+00  -1.053038e+03
   8.162551e+02  -7.849762e+02
   9.374498e+02   8.331131e+01
   4.596095e+02   8.554716e+02
  -2.281297e+02   8.922286e+02
  -6.285733e+02   1.253032e+02
  -3.860904e+02  -7.109812e+02
   2.623683e+02  -7.512319e+02
   6.067222e+02  -6.907127e-01
   2.812443e+02   6.819955e+02
  -3.169587e+02   6.468711e+02
  -5.886546e+02   1.059103e+02
  -3.994742e+02  -3.475342e+02
  -2.522994e+01  -4.406427e+02
   2.377056e+02  -2.683558e+02
   2.079878e+02  -2.346254e+01
  -1.167377e+02   7.509067e+01
  -4.021920e+02  -1.221989e+02
  -1.899093e+02  -4.293799e+02
   4.627334e+02  -4.029177e+02
   8.445977e+02   7.875643e+01
   4.273182e+02   5.421788e+02
  -3.893280e+02   4.752798e+02
  -7.401272e+02  -3.741209e+01
  -3.449556e+02  -4.792638e+02
   2.820245e+02  -5.162869e+02
   5.666040e+02  -2.029504e+02
   4.184699e+02   2.251506e+02
   7.601594e+01   4.722843e+02
  -1.898990e+02   2.858299e+02
  -1.640699e+02  -2.092763e+02
   1.634261e+02  -4.271355e+02
   4.364105e+02   2.150259e+01
   2.389545e+02   6.766666e+02
  -3.141622e+02   6.996981e+02
  -5.979884e+02   9.923371e+00
  -2.610665e+02  -5.461924e+02
   2.840973e+02  -3.174168e+02
   3.808449e+02   3.209142e+02
  -6.710132e+01   5.453684e+02
  -5.546486e+02   1.372446e+02
  -5.981660e+02  -4.069949e+02
  -1.705750e+02  -5.880336e+02
   3.806307e+02  -3.491779e+02
   6.321587e+02   7.095569e+01
   3.813068e+02   3.808079e+02
  -1.465747e+02   3.652435e+02
  -4.418417e+02   6.232406e+01
  -2.480589e+02  -1.890648e+02
   1.116115e+02  -1.075289e+02
   1.439727e+02   1.482761e+02
  -1.604632e+02   1.854440e+02
  -3.473830e+02  -7.014694e+01
  -1.459892e+02  -2.980815e+02
   2.038819e+02  -2.636131e+02
   3.373689e+02  -7.690505e+01
   2.011597e+02   8.853823e+01
  -2.772975e+01   2.297580e+02
  -2.256036e+02   3.285491e+02
  -3.393679e+02   2.185187e+02
  -2.918519e+02  -1.358941e+02
  -8.284051e+01  -4.361043e+02
   1.095561e+02  -3.885814e+02
   1.192902e+02  -1.201307e+02
   2.872256e+01   6.339109e+00
   4.743202e+01  -8.681353e+01
   1.961657e+02  -1.279468e+02
   2.787099e+02   5.284458e+01
   1.606076e+02   2.698466e+02
  -6.982639e+01   2.571668e+02
  -2.273934e+02   1.139288e+01
  -1.989809e+02  -2.405406e+02
   8.771946e+00  -2.952946e+02
   2.661271e+02  -1.180450e+02
   3.633085e+02   1.655182e+02
   1.915375e+02   3.509777e+02
  -9.541052e+01   3.103462e+02
  -2.271858e+02   1.268098e+02
  -1.542447e+02   9.224613e+00
  -1.026211e+02   3.554425e+01
  -2.356533e+02   6.417309e+01
  -4.026862e+02  -5.692480e+01
  -3.349926e+02  -2.847793e+02
   3.149839e-01  -4.444404e+02
   3.598190e+02  -4.162471e+02
   4.889358e+02  -2.041023e+02
   3.372838e+02   9.090640e+01
   5.661100e+01   2.938517e+02
  -1.271504e+02   2.549925e+02
  -8.032489e+01   3.245583e+01
   1.089743e+02  -1.070325e+02
   1.956568e+02   4.304124e+00
   5.208649e+01   1.952745e+02
  -1.592594e+02   1.738762e+02
  -1.797113e+02  -5.831817e+01
   1.524666e+01  -1.931437e+02
   1.945150e+02  -3.412944e+01
   1.662608e+02   2.483091e+02
  -2.961449e+01   3.519322e+02
  -2.318713e+02   1.947672e+02
  -3.287197e+02  -6.260692e+01
  -2.790793e+02  -2.388966e+02
  -9.518151e+01  -2.637130e+02
   1.131693e+02  -1.609252e+02
   1.778208e+02  -2.227706e+01
   5.941909e+01   3.123596e+01
  -6.948952e+01  -3.864050e+01
  -2.991778e+01  -1.248828e+02
   1.236481e+02  -1.005573e+02
   1.791419e+02   1.136155e+01
   5.903900e+01   7.194311e+01
  -7.980207e+01   1.646667e+01
  -5.506367e+01  -7.312278e+01
   1.238172e+02  -8.687896e+01
   2.821829e+02   5.940438e-02
   2.635716e+02   1.392490e+02
   6.084179e+01   2.545949e+02
  -1.832484e+02   2.619448e+02
  -2.834459e+02   1.286184e+02
  -1.713457e+02  -5.003644e+01
   2.327832e+01  -1.101541e+02
   9.104835e+01  -9.500248e+00
  -3.193048e+01   1.016274e+02
  -1.957490e+02   6.099974e+01
  -2.150840e+02  -1.011280e+02
  -7.147233e+01  -2.083514e+02
   9.344213e+01  -1.596461e+02
   1.444125e+02  -3.049089e+01
   7.128181e+01   4.085539e+01
  -2.735829e+01   2.785428e+00
  -3.729578e+01  -8.278132e+01
   7.100718e+01  -1.127280e+02
   1.974591e+02  -2.986777e+01
   1.924274e+02   1.219297e+02
   2.313781e+01   2.183201e+02
  -1.639191e+02   1.662237e+02
  -1.953396e+02   8.168823e+00
  -6.703106e+01  -1.146841e+02
   6.604685e+01  -1.129681e+02
   8.360173e+01  -3.173112e+01
   1.884909e+01   2.567706e+01
  -2.128716e+01   1.849138e+01
   1.000800e+01  -8.113356e+00
   7.096767e+01   8.488640e+00
   8.836657e+01   8.143586e+01
   1.576131e+01   1.576498e+02
  -1.247910e+02   1.526250e+02
  -2.327526e+02   2.745301e+01
  -2.027382e+02  -1.481567e+02
  -4.397689e+01  -2.371979e+02
   1.078330e+02  -1.713070e+02
   1.362937e+02  -2.841208e+01
   7.144409e+01   5.543740e+01
   2.902806e+01   3.590641e+01
   5.336406e+01  -1.244970e+01
   7.968939e+01  -6.746363e+00
   4.201061e+01   4.964992e+01
  -4.196756e+01   8.803449e+01
  -1.020659e+02   5.545530e+01
  -8.536900e+01  -3.511257e+01
   1.291658e+01  -1.100431e+02
   1.406055e+02  -8.635694e+01
   1.967493e+02   4.928925e+01
   1.017606e+02   1.998235e+02
  -1.040428e+02   2.288316e+02
  -2.657230e+02   9.834011e+01
  -2.582802e+02  -8.361889e+01
  -1.113398e+02  -1.759009e+02
   3.753644e+01  -1.477236e+02
   9.403108e+01  -8.503976e+01
   7.897184e+01  -7.022299e+01
   6.624684e+01  -9.144102e+01
   9.188695e+01  -7.465799e+01
   1.282241e+02   2.124861e+01
   1.184090e+02   1.530801e+02
   3.109653e+01   2.255294e+02
  -9.730395e+01   1.727236e+02
  -1.750776e+02   2.188411e+01
  -1.370474e+02  -1.205717e+02
  -2.032091e+01  -1.592525e+02
   6.651044e+01  -9.256244e+01
   5.988013e+01  -8.938867e-01
   4.887656e+00   4.253258e+01
  -1.042696e+01   3.431801e+01
   3.619958e+01   1.780923e+01
   7.926625e+01   2.225592e+01
   4.482400e+01   3.794204e+01
  -6.344743e+01   3.703031e+01
  -1.574197e+02   3.593124e+00
  -1.428817e+02  -5.039458e+01
  -1.552152e+01  -8.802624e+01
   1.198803e+02  -7.433923e+01
   1.445203e+02  -1.422701e+01
   4.840868e+01   4.056298e+01
  -5.981315e+01   3.782816e+01
  -7.580991e+01  -1.846688e+01
  -8.244917e+00  -6.834930e+01
   5.512822e+01  -5.831332e+01
   6.326142e+01   1.669602e+00
   4.450059e+01   4.982861e+01
   4.358644e+01   4.155782e+01
   6.101834e+01   1.863943e+00
   6.587321e+01   2.544169e-01
   3.555604e+01   6.735999e+01
  -3.180021e+01   1.453749e+02
  -1.151713e+02   1.411515e+02
  -1.634919e+02   3.382887e+01
  -1.232826e+02  -9.005376e+01
  -7.165491e+00  -1.255733e+02
   8.542009e+01  -6.181094e+01
   5.985182e+01   1.449536e+01
  -5.870911e+01   2.036634e+01
  -1.371177e+02  -4.229845e+01
  -7.621845e+01  -1.062798e+02
   7.956133e+01  -1.123339e+02
   1.896768e+02  -5.290310e+01
   1.620434e+02   3.260974e+01
   3.766309e+01   8.598539e+01
  -6.015427e+01   7.017567e+01
  -4.870934e+01   7.524576e+00
   3.843467e+01  -2.710135e+01
   9.035315e+01   2.173560e+01
   3.379518e+01   1.178848e+02
  -8.964480e+01   1.543112e+02
  -1.660900e+02   6.346476e+01
  -1.268894e+02  -9.898807e+01
  -1.179791e+01  -1.964983e+02
   8.404047e+01  -1.440635e+02
   1.041242e+02   6.022505e+00
   6.108559e+01   1.169728e+02
  -1.182388e+00   1.058865e+02
  -4.554025e+01   2.029270e+01
  -5.189881e+01  -3.067195e+01
  -2.576890e+01  -8.302565e+00
  -3.785532e+00   2.045669e+01
  -2.066802e+01  -1.503336e+01
  -5.601897e+01  -8.778837e+01
  -4.247111e+01  -1.084915e+02
   4.643670e+01  -4.518658e+01
   1.378688e+02   3.839245e+01
   1.297010e+02   6.979018e+01
   1.777125e+01   4.942065e+01
  -8.734182e+01   2.271347e+01
  -8.786847e+01   8.152961e+00
  -1.087473e+01  -7.368861e+00
   3.819496e+01  -2.248903e+01
   1.397355e+01  -1.807431e+01
  -2.121115e+01   1.704653e+00
   5.743129e+00   8.946376e+00
   7.386799e+01   3.388744e+00
   9.117307e+01   2.326570e+01
   8.928836e+00   7.990497e+01
  -1.172302e+02   1.142587e+02
  -1.843018e+02   5.902933e+01
  -1.413370e+02  -6.634898e+01
  -2.645544e+01  -1.609436e+02
   7.789297e+01  -1.493675e+02
   1.133211e+02  -5.873330e+01
   8.024695e+01   2.102119e+01
   2.489489e+01   3.510728e+01
  -2.916430e+00   8.766174e+00
   1.015104e+01   4.060170e+00
   3.304606e+01   4.524049e+01
   2.294837e+01   8.928859e+01
  -2.869090e+01   7.130834e+01
  -8.071152e+01  -1.797871e+01
  -7.715306e+01  -1.072480e+02
  -4.874075e+00  -1.115500e+02
   8.172877e+01  -2.416862e+01
   1.028156e+02   7.442335e+01
   3.236750e+01   1.027708e+02
  -6.586240e+01   5.564606e+01
  -9.735752e+01  -1.141635e+01
  -3.908393e+01  -5.024809e+01
   3.245497e+01  -5.162802e+01
   3.106177e+01  -2.801917e+01
  -3.378472e+01   7.560857e-01
  -6.882490e+01   6.981615e+00
  -1.492344e+01  -2.491517e+01
   7.836256e+01  -6.587445e+01
   1.144905e+02  -5.857477e+01
   6.342412e+01   1.172663e+01
  -1.533788e+01   8.254066e+01
  -5.238551e+01   7.901273e+01
  -3.688564e+01   5.736758e+00
  -1.799626e+00  -5.550291e+01
   2.542826e+01  -4.273134e+01
   3.631069e+01   1.794815e+01
   2.658511e+01   5.352248e+01
  -2.731147e+00   3.270786e+01
  -3.295122e+01  -8.311820e+00
  -3.942881e+01  -2.081382e+01
  -2.040085e+01  -1.052747e+00
   7.318097e-01   1.414479e+01
   6.607238e+00  -2.831192e+00
   6.171797e+00  -3.638987e+01
   1.610083e+01  -4.476361e+01
   3.207570e+01  -8.037646e+00
   3.049102e+01   4.453686e+01
  -1.575075e+00   6.067253e+01
  -4.421684e+01   2.069820e+01
  -5.637464e+01  -3.876547e+01
  -1.470754e+01  -6.260291e+01
   5.439593e+01  -3.391403e+01
   8.830949e+01   1.503434e+01
   4.887904e+01   4.357769e+01
  -2.851852e+01   4.059526e+01
  -6.433231e+01   2.149778e+01
  -2.411833e+01   4.838335e+00
   3.691071e+01   1.873931e+00
   3.754606e+01   1.528028e+01
  -3.019024e+01   3.111745e+01
  -9.027466e+01   2.005420e+01
