
 $NMID
 id='ANONYMOUS ', fmtdat='(2E16.6)'
 volume=1.0
 tramp=1.0
 $END
   3.889049e+03   6.968114e+00
   2.221032e+03   2.384954e+03
  -7.430371e+02   2.454263e+03
  -1.933885e+03   7.033141e+02
  -8.046572e+02  -6.850180e+02
   6.644904e+02  -5.388930e+02
   8.311274e+02   4.289671e+02
  -2.610418e+01   9.884307e+02
  -7.717185e+02   6.913241e+02
  -8.459272e+02  -1.159330e+02
  -3.816458e+02  -7.949057e+02
   2.493841e+02  -7.957112e+02
   5.945403e+02  -8.267742e+01
   3.429383e+02   6.651156e+02
  -2.600102e+02   6.717664e+02
  -5.510927e+02  -2.312891e+01
  -2.263628e+02  -6.168204e+02
   3.099676e+02  -5.461528e+02
   5.184119e+02  -5.064693e+01
   3.239766e+02   3.288464e+02
  -3.663217e+00   3.861516e+02
  -2.258134e+02   2.274209e+02
  -2.011537e+02   4.589276e+00
   9.147829e+01  -9.790590e+01
   3.688216e+02   7.902716e+01
   1.967626e+02   3.832917e+02
  -3.988822e+02   3.858055e+02
  -7.646114e+02  -5.588549e+01
  -3.947095e+02  -5.013679e+02
   3.520728e+02  -4.519528e+02
   6.756521e+02   2.291886e+01
   3.174059e+02   4.342190e+02
  -2.494773e+02   4.679665e+02
  -5.048258e+02   1.809830e+02
  -3.706573e+02  -2.078808e+02
  -5.667564e+01  -4.316620e+02
   1.952369e+02  -2.569298e+02
   1.738444e+02   2.061043e+02
  -1.441961e+02   4.131599e+02
  -4.176197e+02  -3.235691e+00
  -2.377937e+02  -6.157165e+02
   2.884045e+02  -6.398837e+02
   5.591241e+02  -8.734559e-01
   2.398331e+02   5.120670e+02
  -2.722578e+02   2.983457e+02
  -3.597288e+02  -2.886897e+02
   5.451639e+01  -4.935441e+02
   4.943441e+02  -1.266329e+02
   5.265503e+02   3.575386e+02
   1.428251e+02   5.177564e+02
  -3.421910e+02   3.080923e+02
  -5.578704e+02  -6.732149e+01
  -3.264344e+02  -3.504659e+02
   1.486213e+02  -3.329865e+02
   4.039445e+02  -4.294733e+01
   2.114251e+02   1.929242e+02
  -1.202466e+02   1.037269e+02
  -1.370192e+02  -1.480541e+02
   1.520202e+02  -1.792874e+02
   3.168239e+02   6.850721e+01
   1.239083e+02   2.743214e+02
  -1.847277e+02   2.247695e+02
  -2.840006e+02   5.231205e+01
  -1.579081e+02  -7.268431e+01
   2.345315e+01  -1.768632e+02
   1.781318e+02  -2.721375e+02
   2.843904e+02  -1.959597e+02
   2.588464e+02   1.124824e+02
   7.339111e+01   3.859705e+02
  -1.103786e+02   3.411840e+02
  -1.192523e+02   8.906716e+01
  -2.066618e+01  -2.711732e+01
  -2.224363e+01   7.004422e+01
  -1.580882e+02   1.234254e+02
  -2.453215e+02  -3.345943e+01
  -1.488471e+02  -2.336043e+02
   5.663978e+01  -2.312614e+02
   2.014626e+02  -1.835783e+01
   1.807601e+02   2.056609e+02
  -1.811149e+00   2.605366e+02
  -2.314934e+02   1.098069e+02
  -3.189468e+02  -1.416380e+02
  -1.646333e+02  -3.093820e+02
   9.169381e+01  -2.707877e+02
   2.043705e+02  -1.000568e+02
   1.305750e+02   6.669171e+00
   7.744078e+01  -2.444414e+01
   1.924643e+02  -5.996953e+01
   3.408109e+02   4.181871e+01
   2.866218e+02   2.404802e+02
   3.015305e+00   3.791096e+02
  -3.028370e+02   3.565801e+02
  -4.182778e+02   1.774506e+02
  -2.961712e+02  -7.751344e+01
  -5.347131e+01  -2.588927e+02
   1.166847e+02  -2.265867e+02
   8.165408e+01  -2.470530e+01
  -9.275495e+01   1.038544e+02
  -1.797545e+02   7.507676e-01
  -5.097836e+01  -1.775149e+02
   1.457214e+02  -1.597283e+02
   1.660745e+02   5.289059e+01
  -1.242021e+01   1.764536e+02
  -1.726011e+02   3.429950e+01
  -1.429557e+02  -2.142910e+02
   2.838928e+01  -3.003365e+02
   1.950486e+02  -1.621204e+02
   2.728697e+02   5.366691e+01
   2.365805e+02   1.987000e+02
   8.715719e+01   2.225478e+02
  -9.375770e+01   1.407111e+02
  -1.566896e+02   2.106268e+01
  -5.480025e+01  -3.069599e+01
   6.308187e+01   2.883097e+01
   3.156365e+01   1.090651e+02
  -1.058756e+02   9.184412e+01
  -1.588376e+02  -7.743824e+00
  -5.509559e+01  -6.523938e+01
   6.790092e+01  -1.971574e+01
   5.034350e+01   5.842248e+01
  -1.000850e+02   7.369808e+01
  -2.357920e+02   4.133615e+00
  -2.252119e+02  -1.125323e+02
  -5.791535e+01  -2.151448e+02
   1.517896e+02  -2.280076e+02
   2.445741e+02  -1.145488e+02
   1.519917e+02   4.455232e+01
  -1.943566e+01   1.000577e+02
  -8.306055e+01   1.011565e+01
   2.350093e+01  -9.100672e+01
   1.691101e+02  -5.668342e+01
   1.878678e+02   8.643584e+01
   6.278978e+01   1.815547e+02
  -8.126522e+01   1.400496e+02
  -1.269291e+02   2.784201e+01
  -6.544835e+01  -3.638925e+01
   2.066226e+01  -7.643366e+00
   3.413199e+01   6.487704e+01
  -5.490888e+01   9.487170e+01
  -1.650742e+02   2.876549e+01
  -1.653376e+02  -1.014575e+02
  -2.146070e+01  -1.875578e+02
   1.414766e+02  -1.436896e+02
   1.700157e+02  -5.317886e+00
   5.853162e+01   1.019418e+02
  -5.771078e+01   9.929186e+01
  -7.404121e+01   2.783517e+01
  -1.960923e+01  -2.245123e+01
   1.499472e+01  -1.804819e+01
  -8.306691e+00   3.123040e+00
  -5.614920e+01  -9.143008e+00
  -7.135956e+01  -6.667651e+01
  -1.438940e+01  -1.299328e+02
   1.023569e+02  -1.293242e+02
   1.965914e+02  -2.650273e+01
   1.740149e+02   1.241538e+02
   3.793339e+01   2.032932e+02
  -9.358038e+01   1.473286e+02
  -1.171279e+02   2.300736e+01
  -5.965921e+01  -4.955345e+01
  -2.331856e+01  -3.186972e+01
  -4.474341e+01   1.003937e+01
  -6.585411e+01   5.627003e+00
  -3.259387e+01  -4.018997e+01
   3.578432e+01  -7.054192e+01
   8.191988e+01  -4.456469e+01
   6.785068e+01   2.743332e+01
  -9.777455e+00   8.907134e+01
  -1.143322e+02   7.257711e+01
  -1.650837e+02  -3.851187e+01
  -8.971638e+01  -1.672174e+02
   8.448893e+01  -1.958101e+02
   2.255989e+02  -8.640188e+01
   2.220127e+02   7.047060e+01
   9.652703e+01   1.512839e+02
  -3.193380e+01   1.273911e+02
  -8.132154e+01   7.284157e+01
  -6.918856e+01   5.916739e+01
  -5.806168e+01   7.647038e+01
  -7.832524e+01   6.191154e+01
  -1.078304e+02  -1.897688e+01
  -9.979368e+01  -1.299815e+02
  -2.669675e+01  -1.914649e+02
   8.252958e+01  -1.476340e+02
   1.498965e+02  -2.019958e+01
   1.183769e+02   1.015184e+02
   1.909332e+01   1.360904e+02
  -5.507381e+01   8.110097e+01
  -5.058905e+01   3.906296e+00
  -6.191307e+00  -3.394126e+01
   5.417227e+00  -2.915945e+01
  -3.236357e+01  -1.670226e+01
  -6.589104e+01  -1.992239e+01
  -3.681922e+01  -3.168298e+01
   5.173116e+01  -3.084006e+01
   1.301385e+02  -4.228826e+00
   1.210466e+02   4.028086e+01
   1.663697e+01   7.300706e+01
  -9.875132e+01   6.328812e+01
  -1.226230e+02   1.357676e+01
  -4.208789e+01  -3.256378e+01
   5.062850e+01  -3.059584e+01
   6.369995e+01   1.592114e+01
   4.594612e+00   5.651022e+01
  -4.865905e+01   4.734874e+01
  -5.234094e+01  -2.382307e+00
  -3.470639e+01  -4.183252e+01
  -3.590546e+01  -3.485262e+01
  -5.293683e+01  -1.951557e+00
  -5.607130e+01  -2.768515e-01
  -2.814425e+01  -5.585873e+01
   2.828928e+01  -1.213796e+02
   9.571245e+01  -1.185318e+02
   1.350226e+02  -2.868390e+01
   1.027396e+02   7.550931e+01
   6.962535e+00   1.049720e+02
  -7.083630e+01   5.068192e+01
  -5.004065e+01  -1.325425e+01
   4.998148e+01  -1.698634e+01
   1.168668e+02   3.662384e+01
   6.554004e+01   9.058294e+01
  -6.708175e+01   9.588076e+01
  -1.615257e+02   4.618933e+01
  -1.388495e+02  -2.657032e+01
  -3.319467e+01  -7.348108e+01
   5.065026e+01  -6.143317e+01
   4.162771e+01  -8.101745e+00
  -3.220924e+01   2.203214e+01
  -7.594842e+01  -1.922645e+01
  -2.676217e+01  -1.004410e+02
   7.893978e+01  -1.298390e+02
   1.427950e+02  -5.129595e+01
   1.070499e+02   8.623954e+01
   8.029524e+00   1.675883e+02
  -7.246418e+01   1.226141e+02
  -8.854085e+01  -4.353282e+00
  -5.280652e+01  -9.896747e+01
  -1.086550e+00  -9.086947e+01
   3.757576e+01  -1.843330e+01
   4.537541e+01   2.606277e+01
   2.372285e+01   7.588781e+00
   2.917865e+00  -1.803442e+01
   1.557731e+01   1.123872e+01
   4.687610e+01   7.418987e+01
   3.774641e+01   9.328038e+01
  -3.764337e+01   3.903520e+01
  -1.172897e+02  -3.346984e+01
  -1.112763e+02  -6.006016e+01
  -1.485298e+01  -4.118264e+01
   7.560423e+01  -1.803017e+01
   7.498929e+01  -7.037428e+00
   7.920517e+00   5.212488e+00
  -3.335603e+01   1.904240e+01
  -1.091043e+01   1.656393e+01
   1.931283e+01  -6.958209e-01
  -5.356219e+00  -8.419278e+00
  -6.410642e+01  -4.381854e+00
  -7.680440e+01  -2.048455e+01
  -4.458179e+00  -6.724562e+01
   1.020584e+02  -9.522018e+01
   1.556236e+02  -4.760683e+01
   1.168664e+02   5.840953e+01
   2.027441e+01   1.368905e+02
  -6.616886e+01   1.251219e+02
  -9.552237e+01   4.781468e+01
  -6.784436e+01  -1.865671e+01
  -2.067394e+01  -2.924621e+01
   3.556996e+00  -6.345548e+00
  -7.913325e+00  -2.446799e+00
  -2.852476e+01  -3.778341e+01
  -2.018150e+01  -7.561516e+01
   2.456994e+01  -6.025991e+01
   6.879550e+01   1.640318e+01
   6.410008e+01   9.256580e+01
   1.452350e+00   9.467313e+01
  -7.075388e+01   1.813363e+01
  -8.592181e+01  -6.572600e+01
  -2.518688e+01  -8.711090e+01
   5.638381e+01  -4.488231e+01
   8.100731e+01   1.089205e+01
   3.163958e+01   4.099459e+01
  -2.715821e+01   4.149928e+01
  -2.451374e+01   2.357321e+01
   3.017821e+01   8.687873e-01
   5.848482e+01  -5.088491e+00
   1.183653e+01   2.062521e+01
  -6.684100e+01   5.552739e+01
  -9.620074e+01   5.039249e+01
  -5.219824e+01  -8.972095e+00
   1.380416e+01  -6.933819e+01
   4.356635e+01  -6.598516e+01
   2.938660e+01  -3.330274e+00
  -5.682118e-02   4.765574e+01
  -2.207179e+01   3.486345e+01
  -3.038750e+01  -1.707973e+01
  -2.181133e+01  -4.545547e+01
   2.762095e+00  -2.615202e+01
   2.772692e+01   7.950360e+00
   3.289171e+01   1.683743e+01
   1.730403e+01   1.784081e-01
  -8.857215e-03  -1.068654e+01
  -5.898214e+00   4.789703e+00
  -7.725114e+00   3.155035e+01
  -1.693003e+01   3.579970e+01
  -2.801729e+01   3.510117e+00
  -2.311099e+01  -3.976874e+01
   4.839721e+00  -5.129290e+01
   3.835608e+01  -1.609145e+01
   4.606653e+01   3.431068e+01
   1.096220e+01   5.355709e+01
  -4.575270e+01   2.802571e+01
  -7.363928e+01  -1.395991e+01
  -4.074213e+01  -3.728362e+01
   2.429617e+01  -3.318066e+01
   5.430584e+01  -1.641734e+01
   1.938831e+01  -3.619799e+00
  -3.299644e+01  -3.160506e+00
  -3.239726e+01  -1.521088e+01
   2.745627e+01  -2.726723e+01
   7.925594e+01  -1.592988e+01
