
 $NMID
 id='ANONYMOUS ', fmtdat='(2E16.6)'
 volume=1.0
 tramp=1.0
 $END
  -2.569083e+03   4.059286e+00
  -1.467119e+03  -1.577384e+03
   4.974765e+02  -1.623179e+03
   1.283475e+03  -4.564853e+02
   5.282673e+02   4.656884e+02
  -4.487846e+02   3.625232e+02
  -5.562384e+02  -2.862397e+02
   1.640977e+01  -6.582167e+02
   5.119881e+02  -4.583307e+02
   5.602775e+02   7.827806e+01
   2.517073e+02   5.272751e+02
  -1.671294e+02   5.265356e+02
  -3.962777e+02   5.374786e+01
  -2.287499e+02  -4.412309e+02
   1.722766e+02  -4.446755e+02
   3.651784e+02   1.598836e+01
   1.487304e+02   4.075943e+02
  -2.063079e+02   3.583277e+02
  -3.418417e+02   3.006445e+01
  -2.114935e+02  -2.185629e+02
   4.218660e+00  -2.544413e+02
   1.499968e+02  -1.496612e+02
   1.347228e+02  -2.094609e+00
  -5.812525e+01   6.815998e+01
  -2.442516e+02  -4.742785e+01
  -1.341352e+02  -2.518541e+02
   2.599576e+02  -2.585809e+02
   5.057011e+02   3.261515e+01
   2.638514e+02   3.313036e+02
  -2.309283e+02   3.025536e+02
  -4.474367e+02  -1.152165e+01
  -2.120222e+02  -2.860722e+02
   1.627424e+02  -3.103706e+02
   3.324362e+02  -1.210260e+02
   2.450502e+02   1.367973e+02
   3.770482e+01   2.859724e+02
  -1.308574e+02   1.707886e+02
  -1.187646e+02  -1.371655e+02
   9.311433e+01  -2.766510e+02
   2.784803e+02  -1.456388e+00
   1.618426e+02   4.064487e+02
  -1.888898e+02   4.250251e+02
  -3.719219e+02   1.897651e+00
  -1.610743e+02  -3.397669e+02
   1.805437e+02  -1.997363e+02
   2.405655e+02   1.892692e+02
  -3.366565e+01   3.265250e+02
  -3.256477e+02   8.561288e+01
  -3.476964e+02  -2.337018e+02
  -9.475059e+01  -3.405462e+02
   2.251381e+02  -2.040476e+02
   3.676906e+02   4.316838e+01
   2.151493e+02   2.316153e+02
  -9.887691e+01   2.212782e+02
  -2.676898e+02   2.837843e+01
  -1.394065e+02  -1.294921e+02
   8.120015e+01  -7.003587e+01
   9.210119e+01   9.887814e+01
  -1.004992e+02   1.204836e+02
  -2.101380e+02  -4.473360e+01
  -8.206662e+01  -1.816456e+02
   1.216469e+02  -1.477811e+02
   1.855772e+02  -3.333193e+01
   1.019060e+02   4.708794e+01
  -1.521148e+01   1.135989e+02
  -1.143977e+02   1.774117e+02
  -1.849363e+02   1.300340e+02
  -1.708429e+02  -7.242504e+01
  -4.956317e+01  -2.540948e+02
   7.323475e+01  -2.250637e+02
   8.012757e+01  -5.732801e+01
   1.351206e+01   2.031317e+01
   1.231790e+01  -4.513500e+01
   1.018641e+02  -8.271779e+01
   1.613827e+02   1.980356e+01
   9.947552e+01   1.527661e+02
  -3.596174e+01   1.528882e+02
  -1.325804e+02   1.365973e+01
  -1.201528e+02  -1.340611e+02
  -2.738994e-01  -1.714901e+02
   1.516520e+02  -7.360879e+01
   2.102269e+02   9.183298e+01
   1.088661e+02   2.032856e+02
  -6.046263e+01   1.783899e+02
  -1.349242e+02   6.523932e+01
  -8.562783e+01  -5.763407e+00
  -4.955167e+01   1.533676e+01
  -1.247607e+02   4.020962e+01
  -2.227956e+02  -2.578325e+01
  -1.883035e+02  -1.564212e+02
  -3.303481e+00  -2.481298e+02
   1.968655e+02  -2.343068e+02
   2.734790e+02  -1.176271e+02
   1.950809e+02   4.986249e+01
   3.639732e+01   1.702359e+02
  -7.663843e+01   1.498338e+02
  -5.498652e+01   1.624837e+01
   6.023092e+01  -6.969131e+01
   1.191127e+02  -1.674107e+00
   3.476844e+01   1.172612e+02
  -9.596852e+01   1.064374e+02
  -1.104084e+02  -3.436664e+01
   7.426425e+00  -1.169133e+02
   1.136082e+02  -2.360559e+01
   9.429763e+01   1.402065e+02
  -1.820242e+01   1.967613e+02
  -1.270353e+02   1.061041e+02
  -1.778948e+02  -3.461206e+01
  -1.551191e+02  -1.289230e+02
  -5.827338e+01  -1.450969e+02
   6.064656e+01  -9.271021e+01
   1.030808e+02  -1.450525e+01
   3.650360e+01   2.036555e+01
  -4.174702e+01  -1.816923e+01
  -2.168723e+01  -7.151966e+01
   6.903039e+01  -6.111023e+01
   1.046805e+02   4.344268e+00
   3.685265e+01   4.294787e+01
  -4.428845e+01   1.373880e+01
  -3.343344e+01  -3.760186e+01
   6.469718e+01  -4.835626e+01
   1.537096e+02  -3.701791e+00
   1.476603e+02   7.237139e+01
   3.912329e+01   1.403663e+02
  -9.819722e+01   1.501081e+02
  -1.600770e+02   7.621546e+01
  -1.003315e+02  -2.891014e+01
   1.232299e+01  -6.626156e+01
   5.495153e+01  -7.156021e+00
  -1.464786e+01   6.008195e+01
  -1.107429e+02   3.811172e+01
  -1.237262e+02  -5.606564e+01
  -4.183718e+01  -1.191211e+02
   5.297112e+01  -9.236928e+01
   8.343617e+01  -1.882151e+01
   4.350866e+01   2.376260e+01
  -1.310565e+01   5.628436e+00
  -2.268247e+01  -4.167624e+01
   3.506849e+01  -6.200062e+01
   1.075484e+02  -1.957241e+01
   1.085921e+02   6.569048e+01
   1.474144e+01   1.228625e+02
  -9.242491e+01   9.467259e+01
  -1.117168e+02   3.768235e+00
  -3.880091e+01  -6.705285e+01
   3.764617e+01  -6.551413e+01
   4.871063e+01  -1.854331e+01
   1.331703e+01   1.465439e+01
  -9.362294e+00   1.206676e+01
   5.467194e+00  -1.615802e+00
   3.629938e+01   6.142734e+00
   4.636493e+01   4.321386e+01
   9.778445e+00   8.447862e+01
  -6.622278e+01   8.474956e+01
  -1.283566e+02   1.816945e+01
  -1.143210e+02  -8.056753e+01
  -2.540577e+01  -1.331018e+02
   6.106487e+01  -9.685298e+01
   7.674566e+01  -1.522446e+01
   3.906817e+01   3.258001e+01
   1.519699e+01   2.097604e+01
   2.918592e+01  -6.602794e+00
   4.285209e+01  -3.797217e+00
   2.102175e+01   2.603093e+01
  -2.332615e+01   4.573663e+01
  -5.296230e+01   2.897149e+01
  -4.386289e+01  -1.757895e+01
   6.114256e+00  -5.775332e+01
   7.403000e+01  -4.757736e+01
   1.077903e+02   2.443322e+01
   5.943883e+01   1.088208e+02
  -5.431472e+01   1.284025e+02
  -1.473110e+02   5.740421e+01
  -1.457059e+02  -4.545318e+01
  -6.377344e+01  -9.892028e+01
   2.055572e+01  -8.363967e+01
   5.318300e+01  -4.794403e+01
   4.537494e+01  -3.885220e+01
   3.802881e+01  -5.005430e+01
   5.114653e+01  -4.051799e+01
   7.047381e+01   1.228100e+01
   6.550388e+01   8.479710e+01
   1.795920e+01   1.251703e+02
  -5.360183e+01   9.688470e+01
  -9.812207e+01   1.378651e+01
  -7.790155e+01  -6.598561e+01
  -1.304938e+01  -8.904645e+01
   3.562251e+01  -5.345545e+01
   3.299931e+01  -3.043977e+00
   4.335749e+00   2.189653e+01
  -3.067844e+00   1.903157e+01
   2.142876e+01   1.100622e+01
   4.300019e+01   1.301755e+01
   2.400584e+01   2.059408e+01
  -3.352231e+01   2.019116e+01
  -8.468204e+01   3.159557e+00
  -7.920306e+01  -2.576579e+01
  -1.143720e+01  -4.745315e+01
   6.408271e+01  -4.160546e+01
   8.014316e+01  -9.351807e+00
   2.769392e+01   2.096147e+01
  -3.305093e+01   1.995359e+01
  -4.163170e+01  -1.030053e+01
  -2.832491e+00  -3.681494e+01
   3.196978e+01  -3.086580e+01
   3.409795e+01   1.568944e+00
   2.243255e+01   2.727603e+01
   2.343360e+01   2.267905e+01
   3.477138e+01   1.173302e+00
   3.669607e+01   5.062418e-02
   1.828110e+01   3.634810e+01
  -1.839857e+01   7.924579e+01
  -6.209978e+01   7.757579e+01
  -8.780641e+01   1.902004e+01
  -6.714280e+01  -4.906532e+01
  -4.883364e+00  -6.843923e+01
   4.604479e+01  -3.308266e+01
   3.268930e+01   8.673977e+00
  -3.267421e+01   1.119800e+01
  -7.659859e+01  -2.375088e+01
  -4.319322e+01  -5.912137e+01
   4.358474e+01  -6.293131e+01
   1.055819e+02  -3.076130e+01
   9.101952e+01   1.689236e+01
   2.204219e+01   4.802126e+01
  -3.290226e+01   4.051816e+01
  -2.721324e+01   5.606470e+00
   2.098232e+01  -1.436701e+01
   4.964894e+01   1.249723e+01
   1.752633e+01   6.571044e+01
  -5.167647e+01   8.503021e+01
  -9.353525e+01   3.362327e+01
  -7.018836e+01  -5.642344e+01
  -5.434970e+00  -1.097266e+02
   4.723070e+01  -8.043358e+01
   5.793032e+01   2.542155e+00
   3.488596e+01   6.455283e+01
   1.192664e+00   5.951607e+01
  -2.438597e+01   1.227182e+01
  -2.989894e+01  -1.691919e+01
  -1.576247e+01  -4.939259e+00
  -1.818990e+00   1.187728e+01
  -9.958552e+00  -7.167429e+00
  -3.075500e+01  -4.838713e+01
  -2.513436e+01  -6.103497e+01
   2.430777e+01  -2.567353e+01
   7.684507e+01   2.170952e+01
   7.308316e+01   3.909387e+01
   9.774136e+00   2.681507e+01
  -4.960288e+01   1.185288e+01
  -4.907883e+01   4.804313e+00
  -5.021226e+00  -3.289610e+00
   2.188321e+01  -1.254611e+01
   6.963843e+00  -1.098867e+01
  -1.279768e+01   4.351605e-01
   3.594432e+00   5.583296e+00
   4.213333e+01   2.865565e+00
   5.023003e+01   1.331058e+01
   2.700212e+00   4.395860e+01
  -6.685712e+01   6.236362e+01
  -1.016239e+02   3.120564e+01
  -7.625161e+01  -3.822292e+01
  -1.333842e+01  -8.956009e+01
   4.301360e+01  -8.180542e+01
   6.232127e+01  -3.125354e+01
   4.440329e+01   1.214039e+01
   1.352983e+01   1.902244e+01
  -2.457344e+00   4.048258e+00
   5.082167e+00   1.475401e+00
   1.879436e+01   2.456438e+01
   1.346251e+01   4.937834e+01
  -1.595602e+01   3.944684e+01
  -4.509121e+01  -1.069347e+01
  -4.201241e+01  -6.059643e+01
  -8.611203e-01  -6.196544e+01
   4.643904e+01  -1.177400e+01
   5.624309e+01   4.310804e+01
   1.641253e+01   5.694218e+01
  -3.686836e+01   2.922384e+01
  -5.284050e+01  -7.098628e+00
  -2.058490e+01  -2.656869e+01
   1.765733e+01  -2.692924e+01
   1.576269e+01  -1.542207e+01
  -1.994397e+01  -6.483723e-01
  -3.826410e+01   3.371485e+00
  -7.685061e+00  -1.341466e+01
   4.363151e+01  -3.644077e+01
   6.267593e+01  -3.325581e+01
   3.395450e+01   5.654822e+00
  -8.967066e+00   4.531480e+01
  -2.824983e+01   4.312255e+01
  -1.901286e+01   2.035107e+00
   1.000619e-01  -3.126233e+01
   1.443437e+01  -2.269935e+01
   1.989741e+01   1.132345e+01
   1.428753e+01   2.969526e+01
  -1.823247e+00   1.693006e+01
  -1.814164e+01  -5.243169e+00
  -2.147284e+01  -1.084597e+01
  -1.130532e+01   9.078159e-03
  -6.296466e-02   6.844698e+00
   3.840327e+00  -3.433403e+00
   5.258976e+00  -2.077552e+01
   1.140950e+01  -2.325323e+01
   1.846666e+01  -1.986193e+00
   1.491903e+01   2.623531e+01
  -3.458646e+00   3.359674e+01
  -2.517183e+01   1.045735e+01
  -3.002766e+01  -2.252740e+01
  -7.126876e+00  -3.508001e+01
   2.982245e+01  -1.834476e+01
   4.806525e+01   9.117393e+00
   2.665578e+01   2.433618e+01
  -1.584416e+01   2.161264e+01
  -3.547703e+01   1.064833e+01
  -1.255349e+01   2.338633e+00
   2.181331e+01   2.144796e+00
   2.132749e+01   1.012663e+01
  -1.809470e+01   1.803304e+01
  -5.213089e+01   1.052602e+01
