
 $NMID
 id='ANONYMOUS ', fmtdat='(2E16.6)'
 volume=1.0
 tramp=1.0
 $END
  -4.504422e+03  -1.735854e+01
  -2.585116e+03  -2.753289e+03
   8.349136e+02  -2.847857e+03
   2.229927e+03  -8.470142e+02
   9.523382e+02   7.595675e+02
  -7.390935e+02   6.164774e+02
  -9.484086e+02  -4.826113e+02
   2.573346e+01  -1.132124e+03
   8.858292e+02  -8.014336e+02
   9.786485e+02   1.262463e+02
   4.476999e+02   9.151527e+02
  -2.797331e+02   9.227881e+02
  -6.805732e+02   1.023907e+02
  -3.954000e+02  -7.639049e+02
   2.973233e+02  -7.778567e+02
   6.366696e+02   2.239181e+01
   2.667583e+02   7.147067e+02
  -3.551529e+02   6.417531e+02
  -6.047628e+02   6.890022e+01
  -3.842058e+02  -3.784025e+02
  -1.316802e+00  -4.506362e+02
   2.593124e+02  -2.665016e+02
   2.290683e+02  -9.607209e+00
  -1.095135e+02   1.033413e+02
  -4.233475e+02  -1.023974e+02
  -2.178388e+02  -4.446635e+02
   4.680742e+02  -4.368458e+02
   8.825637e+02   7.299160e+01
   4.514237e+02   5.778240e+02
  -4.084814e+02   5.138817e+02
  -7.784249e+02  -3.297012e+01
  -3.629752e+02  -5.029685e+02
   2.922781e+02  -5.390063e+02
   5.865895e+02  -2.071083e+02
   4.296912e+02   2.410536e+02
   6.702112e+01   4.980878e+02
  -2.199669e+02   2.970522e+02
  -1.927613e+02  -2.332902e+02
   1.690019e+02  -4.685942e+02
   4.752611e+02   1.000349e+01
   2.653174e+02   7.109308e+02
  -3.350234e+02   7.359558e+02
  -6.408792e+02   1.117132e+00
  -2.739569e+02  -5.874329e+02
   3.112284e+02  -3.404606e+02
   4.096185e+02   3.354217e+02
  -6.732210e+01   5.697484e+02
  -5.739553e+02   1.428607e+02
  -6.106045e+02  -4.193693e+02
  -1.654002e+02  -6.035144e+02
   3.978051e+02  -3.565000e+02
   6.484966e+02   8.008992e+01
   3.810747e+02   4.053619e+02
  -1.685726e+02   3.836972e+02
  -4.660845e+02   5.169280e+01
  -2.478085e+02  -2.178589e+02
   1.335460e+02  -1.178883e+02
   1.559616e+02   1.674278e+02
  -1.741826e+02   2.031615e+02
  -3.651084e+02  -7.918472e+01
  -1.443400e+02  -3.164415e+02
   2.148950e+02  -2.628523e+02
   3.352129e+02  -6.351293e+01
   1.890193e+02   8.768802e+01
  -2.938594e+01   2.133940e+02
  -2.156447e+02   3.202283e+02
  -3.363574e+02   2.248288e+02
  -2.997429e+02  -1.345342e+02
  -8.305478e+01  -4.489213e+02
   1.262175e+02  -3.970606e+02
   1.354449e+02  -1.084653e+02
   2.594678e+01   2.523954e+01
   3.244421e+01  -8.273710e+01
   1.888168e+02  -1.389613e+02
   2.848880e+02   4.436418e+01
   1.694369e+02   2.736875e+02
  -6.859477e+01   2.671410e+02
  -2.338966e+02   1.767476e+01
  -2.072422e+02  -2.420697e+02
   5.424649e+00  -3.028061e+02
   2.706940e+02  -1.245352e+02
   3.704561e+02   1.679588e+02
   1.909859e+02   3.609726e+02
  -1.060103e+02   3.155320e+02
  -2.374150e+02   1.188967e+02
  -1.539393e+02  -4.168327e+00
  -9.440130e+01   2.969199e+01
  -2.287834e+02   6.714098e+01
  -4.002657e+02  -5.360702e+01
  -3.343347e+02  -2.848853e+02
   8.779406e-02  -4.447747e+02
   3.590349e+02  -4.157438e+02
   4.915435e+02  -2.043477e+02
   3.443356e+02   9.272716e+01
   5.959773e+01   3.014003e+02
  -1.355960e+02   2.624797e+02
  -9.193681e+01   2.977824e+01
   1.092242e+02  -1.172688e+02
   2.067444e+02   1.342042e+00
   5.688217e+01   2.049966e+02
  -1.686197e+02   1.831437e+02
  -1.905848e+02  -6.181060e+01
   1.560151e+01  -2.032647e+02
   2.005031e+02  -3.764097e+01
   1.660024e+02   2.516138e+02
  -3.437560e+01   3.522818e+02
  -2.309703e+02   1.900834e+02
  -3.222056e+02  -6.498992e+01
  -2.765582e+02  -2.364227e+02
  -9.879647e+01  -2.623098e+02
   1.117472e+02  -1.633023e+02
   1.823653e+02  -2.315069e+01
   6.292303e+01   3.498958e+01
  -7.249693e+01  -3.544517e+01
  -3.446652e+01  -1.272075e+02
   1.245493e+02  -1.051488e+02
   1.843708e+02   1.059904e+01
   6.283268e+01   7.556310e+01
  -7.968909e+01   2.087903e+01
  -5.748915e+01  -7.003883e+01
   1.197015e+02  -8.575250e+01
   2.781298e+02  -1.767942e+00
   2.631848e+02   1.355441e+02
   6.452986e+01   2.533034e+02
  -1.809550e+02   2.649324e+02
  -2.867416e+02   1.313052e+02
  -1.762662e+02  -5.254702e+01
   2.343359e+01  -1.153434e+02
   9.577165e+01  -1.083573e+01
  -2.924175e+01   1.051522e+02
  -1.980080e+02   6.395871e+01
  -2.184765e+02  -1.025188e+02
  -7.198231e+01  -2.122062e+02
   9.570449e+01  -1.626107e+02
   1.478951e+02  -3.134149e+01
   7.513415e+01   4.251813e+01
  -2.497707e+01   7.084927e+00
  -3.869926e+01  -7.809692e+01
   6.690335e+01  -1.111788e+02
   1.948550e+02  -3.148545e+01
   1.928615e+02   1.209488e+02
   2.339854e+01   2.197589e+02
  -1.664142e+02   1.670943e+02
  -1.985197e+02   5.703235e+00
  -6.768673e+01  -1.186821e+02
   6.787444e+01  -1.152364e+02
   8.618832e+01  -3.199892e+01
   2.176093e+01   2.619639e+01
  -1.864467e+01   2.026067e+01
   9.959001e+00  -4.797375e+00
   6.726551e+01   1.064917e+01
   8.445860e+01   7.973091e+01
   1.555801e+01   1.539668e+02
  -1.223077e+02   1.511982e+02
  -2.313840e+02   2.872262e+01
  -2.029357e+02  -1.475419e+02
  -4.301964e+01  -2.384920e+02
   1.102754e+02  -1.719097e+02
   1.373622e+02  -2.661079e+01
   7.014135e+01   5.788103e+01
   2.763777e+01   3.720966e+01
   5.283422e+01  -1.163336e+01
   7.798559e+01  -6.127135e+00
   3.892597e+01   4.816435e+01
  -4.261805e+01   8.396480e+01
  -9.813680e+01   5.243675e+01
  -8.091779e+01  -3.360227e+01
   1.262160e+01  -1.059242e+02
   1.364560e+02  -8.455038e+01
   1.942050e+02   4.751721e+01
   1.031138e+02   1.977583e+02
  -1.018029e+02   2.288644e+02
  -2.655707e+02   9.901776e+01
  -2.594714e+02  -8.442654e+01
  -1.117819e+02  -1.777410e+02
   3.832646e+01  -1.488273e+02
   9.556251e+01  -8.485744e+01
   8.103951e+01  -6.924314e+01
   6.821177e+01  -8.986532e+01
   9.240408e+01  -7.266977e+01
   1.269144e+02   2.278453e+01
   1.165745e+02   1.534310e+02
   2.993562e+01   2.251341e+02
  -9.799036e+01   1.725640e+02
  -1.758078e+02   2.221247e+01
  -1.377063e+02  -1.203064e+02
  -2.092762e+01  -1.596896e+02
   6.563569e+01  -9.406200e+01
   5.944558e+01  -3.232174e+00
   6.323269e+00   4.054411e+01
  -7.655149e+00   3.410735e+01
   3.744092e+01   1.929785e+01
   7.775407e+01   2.358569e+01
   4.341295e+01   3.768797e+01
  -6.168955e+01   3.599606e+01
  -1.540052e+02   3.577439e+00
  -1.419418e+02  -4.897232e+01
  -1.788825e+01  -8.633179e+01
   1.174186e+02  -7.351887e+01
   1.441427e+02  -1.461880e+01
   4.885060e+01   3.911584e+01
  -5.979331e+01   3.607041e+01
  -7.494789e+01  -1.909443e+01
  -5.717876e+00  -6.698216e+01
   5.698054e+01  -5.603221e+01
   6.194241e+01   2.901621e+00
   4.144348e+01   4.963702e+01
   4.227700e+01   4.136975e+01
   6.183541e+01   2.510332e+00
   6.583278e+01   6.929502e-01
   3.328224e+01   6.631017e+01
  -3.373980e+01   1.430999e+02
  -1.139764e+02   1.389448e+02
  -1.600380e+02   3.265206e+01
  -1.207633e+02  -8.979357e+01
  -7.118073e+00  -1.238729e+02
   8.416963e+01  -5.956803e+01
   5.897515e+01   1.564600e+01
  -5.880830e+01   1.970921e+01
  -1.369307e+02  -4.360589e+01
  -7.611922e+01  -1.067472e+02
   7.961597e+01  -1.120071e+02
   1.899056e+02  -5.275237e+01
   1.625118e+02   3.250046e+01
   3.811685e+01   8.637557e+01
  -6.001374e+01   7.122473e+01
  -4.882535e+01   8.694292e+00
   3.816076e+01  -2.595703e+01
   8.936345e+01   2.289861e+01
   3.136402e+01   1.181431e+02
  -9.279372e+01   1.524571e+02
  -1.676450e+02   6.014541e+01
  -1.254555e+02  -1.013961e+02
  -8.916714e+00  -1.967781e+02
   8.563278e+01  -1.434930e+02
   1.039293e+02   5.969059e+00
   6.104214e+01   1.167254e+02
   1.071216e-02   1.063981e+02
  -4.458366e+01   2.097978e+01
  -5.271496e+01  -3.089018e+01
  -2.725194e+01  -8.853295e+00
  -3.627071e+00   2.094815e+01
  -1.879955e+01  -1.385732e+01
  -5.476309e+01  -8.762339e+01
  -4.319937e+01  -1.094361e+02
   4.504309e+01  -4.533180e+01
   1.375227e+02   3.985853e+01
   1.299782e+02   7.105006e+01
   1.721355e+01   4.874241e+01
  -8.853372e+01   2.109809e+01
  -8.802802e+01   7.720350e+00
  -9.652359e+00  -6.550824e+00
   3.903089e+01  -2.218525e+01
   1.319814e+01  -1.896936e+01
  -2.230611e+01   9.612643e-01
   6.107925e+00   9.653503e+00
   7.489473e+01   5.076018e+00
   9.030847e+01   2.439072e+01
   5.738478e+00   7.932396e+01
  -1.198289e+02   1.118067e+02
  -1.835229e+02   5.561511e+01
  -1.379550e+02  -6.888111e+01
  -2.356482e+01  -1.609647e+02
   7.865674e+01  -1.470815e+02
   1.128455e+02  -5.613857e+01
   7.969631e+01   2.214615e+01
   2.421457e+01   3.469763e+01
  -3.915441e+00   7.811590e+00
   9.472334e+00   3.268669e+00
   3.308235e+01   4.477473e+01
   2.295650e+01   8.902052e+01
  -2.923000e+01   7.072392e+01
  -8.066357e+01  -1.938341e+01
  -7.515684e+01  -1.087689e+02
  -1.894667e+00  -1.113366e+02
   8.289789e+01  -2.160923e+01
   1.010040e+02   7.706033e+01
   2.970570e+01   1.026396e+02
  -6.648511e+01   5.310108e+01
  -9.565974e+01  -1.303438e+01
  -3.732388e+01  -4.896137e+01
   3.239629e+01  -4.929451e+01
   2.956083e+01  -2.753541e+01
  -3.502442e+01  -7.065524e-01
  -6.875944e+01   5.837427e+00
  -1.401026e+01  -2.450847e+01
   7.883375e+01  -6.490936e+01
   1.136754e+02  -5.829402e+01
   6.175690e+01   1.126869e+01
  -1.647809e+01   8.162803e+01
  -5.196915e+01   7.754128e+01
  -3.520866e+01   4.135067e+00
  -1.188711e-01  -5.587122e+01
   2.606692e+01  -4.127049e+01
   3.578013e+01   1.970994e+01
   2.554988e+01   5.357731e+01
  -3.337851e+00   3.123270e+01
  -3.262770e+01  -9.259374e+00
  -3.868593e+01  -2.029416e+01
  -2.031228e+01  -5.574055e-01
   8.845762e-02   1.299353e+01
   6.797520e+00  -4.839912e+00
   8.489347e+00  -3.688489e+01
   1.917772e+01  -4.274282e+01
   3.279709e+01  -5.002061e+00
   2.781550e+01   4.635303e+01
  -4.942300e+00   6.040898e+01
  -4.496512e+01   1.913262e+01
  -5.449652e+01  -4.024671e+01
  -1.300102e+01  -6.291989e+01
   5.411082e+01  -3.283778e+01
   8.688211e+01   1.657882e+01
   4.785634e+01   4.402230e+01
  -2.879094e+01   3.922399e+01
  -6.407513e+01   1.948072e+01
  -2.316449e+01   4.238125e+00
   3.826942e+01   3.395042e+00
   3.786260e+01   1.737286e+01
  -3.184485e+01   3.163311e+01
  -9.243680e+01   1.859133e+01
