
 $NMID
 id='ANONYMOUS ', fmtdat='(2E16.6)'
 volume=1.0
 tramp=1.0
 $END
   4.430630e+03   2.134462e+01
   2.625227e+03   2.627872e+03
  -6.601563e+02   2.818738e+03
  -2.114948e+03   1.012329e+03
  -1.027937e+03  -5.547486e+02
   5.695852e+02  -5.573734e+02
   8.566145e+02   4.006206e+02
   1.482503e+00   1.045698e+03
  -8.217528e+02   7.951680e+02
  -9.526594e+02  -7.463221e+01
  -4.743035e+02  -8.637812e+02
   2.192496e+02  -9.103229e+02
   6.233526e+02  -1.363678e+02
   3.831349e+02   7.150140e+02
  -2.654237e+02   7.639613e+02
  -6.151388e+02   5.467600e+00
  -2.922312e+02  -6.986428e+02
   3.183391e+02  -6.783549e+02
   6.099310e+02  -1.276584e+02
   4.251893e+02   3.507569e+02
   3.557022e+01   4.568975e+02
  -2.392643e+02   2.787910e+02
  -2.028208e+02   3.127392e+01
   1.300484e+02  -5.349970e+01
   4.032896e+02   1.537154e+02
   1.676464e+02   4.438537e+02
  -4.918827e+02   3.861666e+02
  -8.568391e+02  -1.068416e+02
  -4.183560e+02  -5.519044e+02
   4.051213e+02  -4.605449e+02
   7.475667e+02   5.978231e+01
   3.378201e+02   4.934130e+02
  -3.005045e+02   5.188733e+02
  -5.852388e+02   1.973269e+02
  -4.265472e+02  -2.339578e+02
  -7.655606e+01  -4.784696e+02
   1.823349e+02  -2.879374e+02
   1.451432e+02   2.044653e+02
  -1.769988e+02   4.126611e+02
  -4.275968e+02  -4.154656e+01
  -2.150228e+02  -6.901514e+02
   3.299229e+02  -7.005194e+02
   5.955348e+02  -4.122463e+00
   2.523123e+02   5.478958e+02
  -2.844375e+02   3.094323e+02
  -3.705488e+02  -3.347517e+02
   8.292908e+01  -5.530605e+02
   5.716273e+02  -1.272425e+02
   6.104404e+02   4.324716e+02
   1.701644e+02   6.108066e+02
  -3.950746e+02   3.530826e+02
  -6.509558e+02  -8.199162e+01
  -3.930943e+02  -3.902041e+02
   1.449595e+02  -3.666354e+02
   4.473735e+02  -6.414684e+01
   2.573878e+02   1.817702e+02
  -1.022584e+02   1.026093e+02
  -1.387658e+02  -1.439322e+02
   1.620168e+02  -1.774563e+02
   3.500114e+02   7.449421e+01
   1.483122e+02   3.025621e+02
  -2.120360e+02   2.735494e+02
  -3.589748e+02   8.376521e+01
  -2.194659e+02  -9.883050e+01
   3.352842e+01  -2.544423e+02
   2.534086e+02  -3.471594e+02
   3.647915e+02  -2.169784e+02
   2.977362e+02   1.509239e+02
   7.698932e+01   4.508291e+02
  -1.109757e+02   4.000128e+02
  -1.156288e+02   1.333085e+02
  -3.261915e+01   7.796436e+00
  -6.409450e+01   9.333409e+01
  -2.152928e+02   1.211345e+02
  -2.871185e+02  -6.891953e+01
  -1.557207e+02  -2.846824e+02
   8.040802e+01  -2.610980e+02
   2.343710e+02  -1.697194e+00
   1.972349e+02   2.565954e+02
  -1.875850e+01   3.046266e+02
  -2.792174e+02   1.128844e+02
  -3.729339e+02  -1.807546e+02
  -1.940135e+02  -3.660354e+02
   9.916341e+01  -3.205226e+02
   2.340954e+02  -1.346937e+02
   1.630791e+02  -1.684203e+01
   1.155860e+02  -3.958555e+01
   2.551098e+02  -5.953111e+01
   4.245513e+02   7.211818e+01
   3.465497e+02   3.076591e+02
  -1.096820e+01   4.676814e+02
  -3.892951e+02   4.302004e+02
  -5.175150e+02   2.032411e+02
  -3.473551e+02  -1.020814e+02
  -5.040898e+01  -3.046218e+02
   1.329758e+02  -2.596093e+02
   7.604893e+01  -3.461624e+01
  -1.168998e+02   1.019093e+02
  -1.969529e+02  -1.134404e+01
  -4.654492e+01  -1.989461e+02
   1.641122e+02  -1.720280e+02
   1.791651e+02   6.265723e+01
  -2.015579e+01   1.948779e+02
  -2.007450e+02   2.862925e+01
  -1.694754e+02  -2.627109e+02
   3.563195e+01  -3.696536e+02
   2.495231e+02  -2.033683e+02
   3.499155e+02   7.184248e+01
   2.902144e+02   2.601347e+02
   9.108545e+01   2.809806e+02
  -1.240514e+02   1.648457e+02
  -1.840897e+02   1.864005e+01
  -5.907102e+01  -3.121593e+01
   6.979083e+01   4.484194e+01
   2.494263e+01   1.302567e+02
  -1.317624e+02   9.929301e+01
  -1.841408e+02  -1.670990e+01
  -5.747791e+01  -7.417131e+01
   8.443487e+01  -1.191214e+01
   5.425947e+01   8.072916e+01
  -1.357397e+02   8.940410e+01
  -3.003442e+02  -8.235110e+00
  -2.744964e+02  -1.558047e+02
  -5.508596e+01  -2.704809e+02
   2.009073e+02  -2.690582e+02
   2.987827e+02  -1.266468e+02
   1.753207e+02   5.462230e+01
  -2.689682e+01   1.112677e+02
  -9.227346e+01   6.860700e+00
   3.811789e+01  -1.033795e+02
   2.056823e+02  -5.727847e+01
   2.213820e+02   1.103709e+02
   7.000185e+01   2.179537e+02
  -1.002798e+02   1.635485e+02
  -1.499604e+02   2.807672e+01
  -7.102255e+01  -4.329862e+01
   3.071841e+01   1.203638e+00
   3.612040e+01   9.178294e+01
  -8.074031e+01   1.182038e+02
  -2.106797e+02   2.546082e+01
  -1.993774e+02  -1.336924e+02
  -1.903741e+01  -2.292582e+02
   1.744869e+02  -1.705023e+02
   2.033523e+02  -6.035336e+00
   6.741498e+01   1.191075e+02
  -7.069650e+01   1.155977e+02
  -8.668983e+01   3.126809e+01
  -1.691022e+01  -2.701673e+01
   2.494506e+01  -1.750584e+01
  -1.081969e+01   1.097150e+01
  -7.753278e+01  -8.929316e+00
  -9.424089e+01  -8.925641e+01
  -1.299135e+01  -1.693271e+02
   1.370051e+02  -1.588734e+02
   2.467965e+02  -2.238671e+01
   2.098126e+02   1.612597e+02
   4.151172e+01   2.497607e+02
  -1.155988e+02   1.773890e+02
  -1.433445e+02   2.817264e+01
  -7.500556e+01  -5.810896e+01
  -3.085700e+01  -3.746404e+01
  -5.691974e+01   1.250056e+01
  -8.544448e+01   5.699134e+00
  -4.552143e+01  -5.450821e+01
   4.580100e+01  -9.498677e+01
   1.119775e+02  -5.835289e+01
   9.261446e+01   4.026307e+01
  -1.649115e+01   1.188685e+02
  -1.534421e+02   8.900543e+01
  -2.080190e+02  -5.799179e+01
  -1.013238e+02  -2.144321e+02
   1.167339e+02  -2.384321e+02
   2.822118e+02  -9.674412e+01
   2.690364e+02   9.345468e+01
   1.127659e+02   1.863444e+02
  -4.234722e+01   1.537835e+02
  -9.978072e+01   8.749779e+01
  -8.315728e+01   7.290063e+01
  -7.035004e+01   9.601831e+01
  -9.812215e+01   7.805265e+01
  -1.355866e+02  -2.417669e+01
  -1.225529e+02  -1.637147e+02
  -2.836162e+01  -2.385326e+02
   1.059691e+02  -1.797137e+02
   1.842661e+02  -1.866959e+01
   1.409291e+02   1.303808e+02
   1.716780e+01   1.677980e+02
  -7.288826e+01   9.467700e+01
  -6.338293e+01  -2.354043e+00
  -2.960569e+00  -4.647426e+01
   1.401739e+01  -3.601488e+01
  -3.672178e+01  -1.838787e+01
  -8.417352e+01  -2.425401e+01
  -4.743337e+01  -4.123107e+01
   6.910560e+01  -3.830071e+01
   1.685797e+02  -3.801447e-02
   1.499905e+02   5.758178e+01
   1.234283e+01   9.437496e+01
  -1.299653e+02   7.607315e+01
  -1.528009e+02   1.125812e+01
  -4.963825e+01  -4.500505e+01
   6.391218e+01  -3.983490e+01
   8.008994e+01   2.073734e+01
   9.082425e+00   7.329872e+01
  -5.796489e+01   6.196425e+01
  -6.764937e+01  -2.277115e+00
  -4.813702e+01  -5.371456e+01
  -4.596459e+01  -4.495446e+01
  -6.355711e+01  -2.866304e+00
  -6.939270e+01  -1.466279e+00
  -3.766361e+01  -7.264078e+01
   3.538095e+01  -1.541788e+02
   1.255829e+02  -1.476660e+02
   1.757345e+02  -3.266358e+01
   1.297085e+02   9.796927e+01
   4.601131e+00   1.337549e+02
  -9.243531e+01   6.485502e+01
  -6.340071e+01  -1.575991e+01
   6.222595e+01  -2.059222e+01
   1.435494e+02   4.671594e+01
   7.783801e+01   1.133239e+02
  -8.637667e+01   1.166701e+02
  -2.007784e+02   5.136383e+01
  -1.694736e+02  -3.822946e+01
  -3.727417e+01  -9.110159e+01
   6.508580e+01  -7.162856e+01
   5.135274e+01  -5.838210e+00
  -4.134450e+01   2.854654e+01
  -9.543688e+01  -2.409293e+01
  -3.476742e+01  -1.247491e+02
   9.551859e+01  -1.619074e+02
   1.751754e+02  -6.560682e+01
   1.324651e+02   1.052999e+02
   1.011799e+01   2.069951e+02
  -9.060753e+01   1.501933e+02
  -1.096488e+02  -8.837615e+00
  -6.159668e+01  -1.248003e+02
   4.687738e+00  -1.110326e+02
   4.918599e+01  -1.972779e+01
   5.327105e+01   3.332841e+01
   2.575393e+01   8.882629e+00
   4.586974e+00  -2.105276e+01
   2.289137e+01   1.728968e+01
   5.792444e+01   9.390481e+01
   4.159504e+01   1.144621e+02
  -5.107540e+01   4.634669e+01
  -1.445626e+02  -4.249589e+01
  -1.347195e+02  -7.551904e+01
  -1.798636e+01  -5.300811e+01
   9.156593e+01  -2.317693e+01
   9.258904e+01  -6.866773e+00
   1.224650e+01   8.691277e+00
  -4.007845e+01   2.303752e+01
  -1.574763e+01   1.797056e+01
   2.150537e+01  -1.910237e+00
  -5.554373e+00  -8.980984e+00
  -7.689862e+01  -3.934369e+00
  -9.616305e+01  -2.575188e+01
  -1.007596e+01  -8.486057e+01
   1.240728e+02  -1.195578e+02
   1.961239e+02  -6.054790e+01
   1.500131e+02   7.120412e+01
   2.639150e+01   1.701117e+02
  -8.495217e+01   1.572883e+02
  -1.211233e+02   6.125272e+01
  -8.445919e+01  -2.312662e+01
  -2.592656e+01  -3.789093e+01
   2.489057e+00  -9.944247e+00
  -1.112584e+01  -5.160646e+00
  -3.369384e+01  -4.878617e+01
  -2.205087e+01  -9.476931e+01
   3.146325e+01  -7.488505e+01
   8.462030e+01   1.970138e+01
   8.034035e+01   1.135482e+02
   4.898099e+00   1.177860e+02
  -8.572310e+01   2.559954e+01
  -1.080026e+02  -7.869050e+01
  -3.379916e+01  -1.091183e+02
   7.019674e+01  -5.909611e+01
   1.036310e+02   1.303774e+01
   4.136431e+01   5.488869e+01
  -3.547110e+01   5.547103e+01
  -3.457886e+01   2.913640e+01
   3.461694e+01  -1.195890e+00
   7.270202e+01  -6.649980e+00
   1.585445e+01   2.692604e+01
  -8.369627e+01   6.829953e+01
  -1.225875e+02   5.919325e+01
  -6.783749e+01  -1.423386e+01
   1.718990e+01  -8.729921e+01
   5.737488e+01  -8.313756e+01
   4.034549e+01  -6.433437e+00
   1.945263e+00   5.821281e+01
  -2.728909e+01   4.557841e+01
  -3.826385e+01  -1.834484e+01
  -2.756536e+01  -5.695273e+01
   3.180812e+00  -3.556960e+01
   3.477426e+01   8.770650e+00
   4.161460e+01   2.327246e+01
   2.151920e+01   1.988048e+00
  -9.367683e-01  -1.584589e+01
  -6.839272e+00   1.214097e+00
  -5.484462e+00   3.780876e+01
  -1.556498e+01   4.842579e+01
  -3.342994e+01   1.015912e+01
  -3.323521e+01  -4.619348e+01
   3.841347e-01  -6.411072e+01
   4.646701e+01  -2.202296e+01
   5.997837e+01   4.098254e+01
   1.538911e+01   6.603398e+01
  -5.831872e+01   3.528924e+01
  -9.380049e+01  -1.668916e+01
  -5.126918e+01  -4.669281e+01
   3.078557e+01  -4.317885e+01
   6.848100e+01  -2.273862e+01
   2.628455e+01  -4.994314e+00
  -3.775174e+01  -1.598028e+00
  -3.895172e+01  -1.528580e+01
   3.118241e+01  -3.166515e+01
   9.380925e+01  -2.020048e+01
