
 $NMID
 id='ANONYMOUS ', fmtdat='(2E16.6)'
 volume=1.0
 tramp=1.0
 $END
   4.303145e+03   3.015018e+00
   2.581283e+03   2.520279e+03
  -5.882529e+02   2.744008e+03
  -2.028962e+03   1.037196e+03
  -1.022857e+03  -4.851769e+02
   5.111480e+02  -5.305298e+02
   8.139397e+02   3.670420e+02
   1.233340e+01   9.982310e+02
  -7.821113e+02   7.772486e+02
  -9.227695e+02  -5.592703e+01
  -4.727338e+02  -8.274995e+02
   1.948851e+02  -8.854315e+02
   5.929626e+02  -1.438974e+02
   3.734863e+02   6.836015e+02
  -2.476905e+02   7.426596e+02
  -5.944488e+02   1.483619e+01
  -2.943251e+02  -6.760301e+02
   2.981994e+02  -6.719627e+02
   5.953492e+02  -1.418304e+02
   4.263142e+02   3.331783e+02
   4.524331e+01   4.468778e+02
  -2.271017e+02   2.759220e+02
  -1.910346e+02   3.665599e+01
   1.319774e+02  -4.041248e+01
   3.892633e+02   1.610809e+02
   1.529111e+02   4.322335e+02
  -4.842766e+02   3.662526e+02
  -8.299336e+02  -1.090720e+02
  -4.020578e+02  -5.301906e+02
   3.925683e+02  -4.376270e+02
   7.218360e+02   6.191472e+01
   3.253072e+02   4.775317e+02
  -2.930052e+02   5.024038e+02
  -5.696734e+02   1.925482e+02
  -4.162279e+02  -2.245931e+02
  -7.902060e+01  -4.614070e+02
   1.672546e+02  -2.791723e+02
   1.304325e+02   1.918420e+02
  -1.731203e+02   3.893448e+02
  -4.055042e+02  -4.677409e+01
  -2.000619e+02  -6.672760e+02
   3.176639e+02  -6.758184e+02
   5.695156e+02  -7.123965e+00
   2.428714e+02   5.235464e+02
  -2.695590e+02   2.951664e+02
  -3.531162e+02  -3.249234e+02
   8.246806e+01  -5.357031e+02
   5.564851e+02  -1.226716e+02
   5.972894e+02   4.224425e+02
   1.698358e+02   5.968130e+02
  -3.831469e+02   3.452236e+02
  -6.358903e+02  -7.761845e+01
  -3.880176e+02  -3.750484e+02
   1.339955e+02  -3.538556e+02
   4.313429e+02  -6.751525e+01
   2.540434e+02   1.671295e+02
  -9.156558e+01   9.655885e+01
  -1.315646e+02  -1.340088e+02
   1.543478e+02  -1.673127e+02
   3.379192e+02   7.004872e+01
   1.468883e+02   2.909830e+02
  -2.048622e+02   2.703787e+02
  -3.555934e+02   8.842051e+01
  -2.221329e+02  -9.807617e+01
   3.243446e+01  -2.585750e+02
   2.549497e+02  -3.466012e+02
   3.619934e+02  -2.113894e+02
   2.906307e+02   1.500147e+02
   7.553784e+01   4.398910e+02
  -1.026950e+02   3.912963e+02
  -1.071388e+02   1.366226e+02
  -3.328429e+01   1.601775e+01
  -6.995370e+01   9.410882e+01
  -2.161539e+02   1.147632e+02
  -2.810169e+02  -7.209315e+01
  -1.497466e+02  -2.798025e+02
   8.027335e+01  -2.535615e+02
   2.287841e+02   1.313978e+00
   1.910586e+02   2.530907e+02
  -2.029578e+01   2.977195e+02
  -2.740309e+02   1.084455e+02
  -3.652052e+02  -1.778667e+02
  -1.915947e+02  -3.574235e+02
   9.360143e+01  -3.142634e+02
   2.268385e+02  -1.363103e+02
   1.611642e+02  -2.241719e+01
   1.178017e+02  -4.168096e+01
   2.551687e+02  -5.739773e+01
   4.205479e+02   7.300337e+01
   3.424973e+02   3.041988e+02
  -1.127740e+01   4.619694e+02
  -3.853176e+02   4.250351e+02
  -5.103652e+02   2.003210e+02
  -3.400349e+02  -1.003820e+02
  -4.820778e+01  -2.977449e+02
   1.279366e+02  -2.530575e+02
   7.003865e+01  -3.522100e+01
  -1.155676e+02   9.610984e+01
  -1.897548e+02  -1.275537e+01
  -4.365022e+01  -1.923833e+02
   1.582538e+02  -1.657036e+02
   1.721763e+02   6.060531e+01
  -1.999330e+01   1.880927e+02
  -1.957782e+02   2.654522e+01
  -1.673551e+02  -2.582544e+02
   3.338383e+01  -3.650366e+02
   2.470568e+02  -2.028395e+02
   3.485473e+02   7.013258e+01
   2.877089e+02   2.583163e+02
   8.822363e+01   2.783566e+02
  -1.233427e+02   1.617646e+02
  -1.799244e+02   1.786008e+01
  -5.677100e+01  -2.926879e+01
   6.763572e+01   4.579199e+01
   2.253064e+01   1.277458e+02
  -1.299135e+02   9.599042e+01
  -1.796474e+02  -1.702713e+01
  -5.503972e+01  -7.177386e+01
   8.352999e+01  -9.770357e+00
   5.251804e+01   8.118713e+01
  -1.359902e+02   8.877686e+01
  -2.985674e+02  -9.119812e+00
  -2.713256e+02  -1.557761e+02
  -5.262643e+01  -2.679073e+02
   1.997489e+02  -2.644226e+02
   2.938977e+02  -1.237145e+02
   1.710105e+02   5.304028e+01
  -2.663654e+01   1.076422e+02
  -8.911664e+01   6.082073e+00
   3.895400e+01  -1.005978e+02
   2.023124e+02  -5.512757e+01
   2.171664e+02   1.086379e+02
   6.875324e+01   2.137228e+02
  -9.823780e+01   1.602078e+02
  -1.466743e+02   2.722902e+01
  -6.843774e+01  -4.213919e+01
   3.143908e+01   3.080407e+00
   3.505077e+01   9.279093e+01
  -8.165621e+01   1.174596e+02
  -2.093538e+02   2.431903e+01
  -1.967294e+02  -1.326821e+02
  -1.851825e+01  -2.259165e+02
   1.714462e+02  -1.679443e+02
   1.995183e+02  -6.872362e+00
   6.620288e+01   1.159880e+02
  -6.915644e+01   1.131584e+02
  -8.454683e+01   3.069252e+01
  -1.540444e+01  -2.650610e+01
   2.583949e+01  -1.652596e+01
  -1.069009e+01   1.229204e+01
  -7.821306e+01  -7.894848e+00
  -9.479074e+01  -8.897722e+01
  -1.283827e+01  -1.689416e+02
   1.365699e+02  -1.575366e+02
   2.444926e+02  -2.139720e+01
   2.071214e+02   1.597661e+02
   4.124763e+01   2.462439e+02
  -1.132839e+02   1.749098e+02
  -1.411745e+02   2.851696e+01
  -7.462267e+01  -5.638561e+01
  -3.106271e+01  -3.645503e+01
  -5.647768e+01   1.267487e+01
  -8.517655e+01   5.857855e+00
  -4.631130e+01  -5.451806e+01
   4.500152e+01  -9.560853e+01
   1.123887e+02  -5.894224e+01
   9.345602e+01   4.047448e+01
  -1.647259e+01   1.192578e+02
  -1.534905e+02   8.866960e+01
  -2.066398e+02  -5.820813e+01
  -9.938891e+01  -2.128768e+02
   1.165033e+02  -2.355201e+02
   2.790001e+02  -9.509444e+01
   2.652399e+02   9.219320e+01
   1.110801e+02   1.834054e+02
  -4.161724e+01   1.514324e+02
  -9.798249e+01   8.645205e+01
  -8.130298e+01   7.238619e+01
  -6.870433e+01   9.550127e+01
  -9.676632e+01   7.792389e+01
  -1.345194e+02  -2.329941e+01
  -1.217819e+02  -1.616857e+02
  -2.836699e+01  -2.358808e+02
   1.045355e+02  -1.775652e+02
   1.817711e+02  -1.816395e+01
   1.388728e+02   1.290552e+02
   1.657213e+01   1.656291e+02
  -7.248847e+01   9.284772e+01
  -6.284040e+01  -3.396017e+00
  -2.278830e+00  -4.681163e+01
   1.509374e+01  -3.569478e+01
  -3.571248e+01  -1.755246e+01
  -8.380835e+01  -2.342761e+01
  -4.746275e+01  -4.087390e+01
   6.907532e+01  -3.826669e+01
   1.680774e+02   4.553072e-02
   1.485926e+02   5.762213e+01
   1.110291e+01   9.402896e+01
  -1.295503e+02   7.545873e+01
  -1.511624e+02   1.084550e+01
  -4.883477e+01  -4.514630e+01
   6.317375e+01  -4.008860e+01
   7.949637e+01   2.026459e+01
   1.004560e+01   7.301204e+01
  -5.648494e+01   6.217217e+01
  -6.741238e+01  -1.744816e+00
  -4.887239e+01  -5.316692e+01
  -4.596346e+01  -4.452388e+01
  -6.243431e+01  -2.601209e+00
  -6.858055e+01  -1.305566e+00
  -3.817324e+01  -7.224526e+01
   3.419750e+01  -1.533034e+02
   1.247016e+02  -1.468018e+02
   1.751772e+02  -3.269808e+01
   1.292066e+02   9.698941e+01
   4.486634e+00   1.329157e+02
  -9.191260e+01   6.501545e+01
  -6.301073e+01  -1.510414e+01
   6.145147e+01  -2.059075e+01
   1.418797e+02   4.568726e+01
   7.687057e+01   1.118264e+02
  -8.540689e+01   1.153643e+02
  -1.983267e+02   5.067298e+01
  -1.672267e+02  -3.794938e+01
  -3.656241e+01  -8.987811e+01
   6.443514e+01  -7.027024e+01
   5.070625e+01  -5.216374e+00
  -4.098356e+01   2.868323e+01
  -9.470970e+01  -2.335468e+01
  -3.533117e+01  -1.231554e+02
   9.309789e+01  -1.607006e+02
   1.724261e+02  -6.614641e+01
   1.314232e+02   1.030714e+02
   1.111326e+01   2.043925e+02
  -8.893312e+01   1.485790e+02
  -1.084254e+02  -8.833197e+00
  -6.079606e+01  -1.234696e+02
   5.241324e+00  -1.094953e+02
   4.904252e+01  -1.916451e+01
   5.225293e+01   3.288211e+01
   2.478415e+01   8.566994e+00
   4.621802e+00  -2.058454e+01
   2.343933e+01   1.760068e+01
   5.772216e+01   9.289132e+01
   4.068930e+01   1.127227e+02
  -5.111585e+01   4.570795e+01
  -1.429525e+02  -4.144688e+01
  -1.329303e+02  -7.416681e+01
  -1.798590e+01  -5.268413e+01
   8.995521e+01  -2.353500e+01
   9.141927e+01  -6.907300e+00
   1.263975e+01   8.945317e+00
  -3.924822e+01   2.286076e+01
  -1.592260e+01   1.735911e+01
   2.076276e+01  -2.188929e+00
  -5.314968e+00  -8.570598e+00
  -7.551470e+01  -3.210347e+00
  -9.537138e+01  -2.501229e+01
  -1.130350e+01  -8.408535e+01
   1.215187e+02  -1.191019e+02
   1.941474e+02  -6.119568e+01
   1.496428e+02   6.932110e+01
   2.722640e+01   1.680728e+02
  -8.369872e+01   1.563559e+02
  -1.199131e+02   6.158294e+01
  -8.367045e+01  -2.241272e+01
  -2.589406e+01  -3.763311e+01
   2.018523e+00  -1.023489e+01
  -1.129563e+01  -5.449166e+00
  -3.324654e+01  -4.843568e+01
  -2.171944e+01  -9.377667e+01
   3.090071e+01  -7.422434e+01
   8.360848e+01   1.890991e+01
   8.016759e+01   1.115691e+02
   6.067340e+00   1.164560e+02
  -8.418493e+01   2.634838e+01
  -1.074347e+02  -7.665656e+01
  -3.449068e+01  -1.078788e+02
   6.910766e+01  -5.945665e+01
   1.031216e+02   1.223020e+01
   4.161896e+01   5.481574e+01
  -3.509378e+01   5.581290e+01
  -3.484445e+01   2.899170e+01
   3.364771e+01  -1.788617e+00
   7.186092e+01  -7.022398e+00
   1.605195e+01   2.678787e+01
  -8.253449e+01   6.784755e+01
  -1.215288e+02   5.853237e+01
  -6.775830e+01  -1.429958e+01
   1.653859e+01  -8.664005e+01
   5.692233e+01  -8.275898e+01
   4.059334e+01  -7.047707e+00
   2.616021e+00   5.734486e+01
  -2.670324e+01   4.565358e+01
  -3.801298e+01  -1.737466e+01
  -2.765148e+01  -5.626198e+01
   2.888249e+00  -3.578768e+01
   3.448818e+01   8.271742e+00
   4.143467e+01   2.324750e+01
   2.130548e+01   2.196931e+00
  -1.207727e+00  -1.615860e+01
  -6.693605e+00   3.096072e-01
  -4.431819e+00   3.711642e+01
  -1.404312e+01   4.869943e+01
  -3.269477e+01   1.134266e+01
  -3.396687e+01  -4.484505e+01
  -1.057538e+00  -6.343339e+01
   4.558709e+01  -2.240938e+01
   6.004830e+01   3.986991e+01
   1.590624e+01   6.510508e+01
  -5.776642e+01   3.530372e+01
  -9.328707e+01  -1.586597e+01
  -5.107184e+01  -4.596978e+01
   3.031833e+01  -4.324400e+01
   6.777795e+01  -2.330847e+01
   2.638968e+01  -5.188745e+00
  -3.669037e+01  -9.497236e-01
  -3.831930e+01  -1.421477e+01
   3.011162e+01  -3.102436e+01
   9.174444e+01  -2.051635e+01
