
 $NMID
 id='ANONYMOUS ', fmtdat='(2E16.6)'
 volume=1.0
 tramp=1.0
 $END
   4.443512e+03   3.138571e+01
   2.586894e+03   2.667015e+03
  -7.311794e+02   2.805006e+03
  -2.139776e+03   9.329848e+02
  -9.779572e+02  -6.270286e+02
   6.383833e+02  -5.638448e+02
   8.818578e+02   4.392777e+02
  -1.730335e+01   1.073106e+03
  -8.450552e+02   7.885346e+02
  -9.550359e+02  -9.758953e+01
  -4.571063e+02  -8.789821e+02
   2.439706e+02  -9.067366e+02
   6.406418e+02  -1.173797e+02
   3.816471e+02   7.327891e+02
  -2.788799e+02   7.636828e+02
  -6.190131e+02  -7.820073e+00
  -2.791670e+02  -7.006722e+02
   3.293416e+02  -6.584442e+02
   6.012073e+02  -1.041630e+02
   4.051885e+02   3.574280e+02
   2.214178e+01   4.501458e+02
  -2.455154e+02   2.711352e+02
  -2.105211e+02   2.043817e+01
   1.257277e+02  -7.400944e+01
   4.134965e+02   1.355024e+02
   1.857648e+02   4.468175e+02
  -4.855014e+02   4.056016e+02
  -8.662672e+02  -9.657552e+01
  -4.268184e+02  -5.631174e+02
   4.098389e+02  -4.786726e+02
   7.588629e+02   5.266927e+01
   3.449069e+02   4.977854e+02
  -2.985415e+02   5.250501e+02
  -5.847032e+02   1.995264e+02
  -4.253600e+02  -2.366611e+02
  -7.041169e+01  -4.836570e+02
   1.972998e+02  -2.871682e+02
   1.604133e+02   2.188561e+02
  -1.782994e+02   4.331677e+02
  -4.469239e+02  -3.360716e+01
  -2.310909e+02  -7.000045e+02
   3.344567e+02  -7.108413e+02
   6.106549e+02   1.458254e+00
   2.558771e+02   5.632445e+02
  -2.966401e+02   3.177749e+02
  -3.838030e+02  -3.374234e+02
   7.866685e+01  -5.586597e+02
   5.718946e+02  -1.318835e+02
   6.088074e+02   4.266728e+02
   1.675108e+02   6.056446e+02
  -3.954438e+02   3.524053e+02
  -6.477218e+02  -8.161044e+01
  -3.853297e+02  -3.941981e+02
   1.553904e+02  -3.698218e+02
   4.520723e+02  -5.703406e+01
   2.496424e+02   1.946036e+02
  -1.153174e+02   1.054938e+02
  -1.428309e+02  -1.540370e+02
   1.684194e+02  -1.855497e+02
   3.541079e+02   7.770020e+01
   1.447443e+02   3.067051e+02
  -2.118759e+02   2.679399e+02
  -3.470090e+02   7.709418e+01
  -2.077021e+02  -9.202217e+01
   2.884915e+01  -2.379876e+02
   2.362262e+02  -3.382283e+02
   3.534285e+02  -2.210362e+02
   2.985622e+02   1.446085e+02
   7.862196e+01   4.490644e+02
  -1.167382e+02   3.960756e+02
  -1.210384e+02   1.215107e+02
  -2.729030e+01  -4.480456e+00
  -5.092898e+01   9.136713e+01
  -2.058962e+02   1.294201e+02
  -2.871092e+02  -5.939494e+01
  -1.609659e+02  -2.807234e+02
   7.638642e+01  -2.633364e+02
   2.346317e+02  -7.587986e+00
   2.012204e+02   2.511316e+02
  -1.379717e+01   3.038780e+02
  -2.760102e+02   1.172954e+02
  -3.714342e+02  -1.754563e+02
  -1.920827e+02  -3.627801e+02
   1.014640e+02  -3.167722e+02
   2.334451e+02  -1.275491e+02
   1.573072e+02  -9.199757e+00
   1.062593e+02  -3.717666e+01
   2.447294e+02  -6.403319e+01
   4.150545e+02   6.332309e+01
   3.420245e+02   2.972429e+02
  -5.501669e+00   4.580294e+02
  -3.756278e+02   4.250055e+02
  -5.059962e+02   2.043518e+02
  -3.455641e+02  -9.831574e+01
  -5.363616e+01  -3.030901e+02
   1.340764e+02  -2.594042e+02
   8.156128e+01  -3.125397e+01
  -1.148841e+02   1.079323e+02
  -2.008111e+02  -8.485853e+00
  -4.962240e+01  -2.014562e+02
   1.663768e+02  -1.751251e+02
   1.829145e+02   6.325389e+01
  -1.925188e+01   1.977536e+02
  -2.006922e+02   3.176182e+01
  -1.680783e+02  -2.574309e+02
   3.410577e+01  -3.616840e+02
   2.406720e+02  -1.986803e+02
   3.384310e+02   6.717377e+01
   2.854719e+02   2.493384e+02
   9.486623e+01   2.735092e+02
  -1.189512e+02   1.644858e+02
  -1.831510e+02   2.021280e+01
  -6.000213e+01  -3.294492e+01
   7.127985e+01   4.136442e+01
   2.860232e+01   1.294100e+02
  -1.291065e+02   1.016035e+02
  -1.840382e+02  -1.455009e+01
  -5.912965e+01  -7.494619e+01
   8.303636e+01  -1.559904e+01
   5.606329e+01   7.664605e+01
  -1.288907e+02   8.878550e+01
  -2.914918e+02  -2.955524e+00
  -2.705730e+02  -1.468809e+02
  -5.955792e+01  -2.637153e+02
   1.925100e+02  -2.678426e+02
   2.936058e+02  -1.285683e+02
   1.751530e+02   5.392911e+01
  -2.593563e+01   1.126839e+02
  -9.361973e+01   7.969275e+00
   3.483393e+01  -1.043552e+02
   2.025954e+02  -5.999867e+01
   2.199550e+02   1.070009e+02
   7.069344e+01   2.152057e+02
  -9.829258e+01   1.628379e+02
  -1.489248e+02   2.920669e+01
  -7.236044e+01  -4.326413e+01
   2.905697e+01  -2.418016e+00
   3.796404e+01   8.642914e+01
  -7.470419e+01   1.160757e+02
  -2.043376e+02   2.868911e+01
  -1.969987e+02  -1.280343e+02
  -2.111592e+01  -2.251475e+02
   1.706959e+02  -1.689984e+02
   2.007412e+02  -6.009690e+00
   6.715814e+01   1.186259e+02
  -6.947558e+01   1.151790e+02
  -8.628498e+01   3.136589e+01
  -1.875130e+01  -2.701436e+01
   2.266924e+01  -1.897846e+01
  -9.968176e+00   8.605886e+00
  -7.314562e+01  -8.837914e+00
  -9.077848e+01  -8.460057e+01
  -1.494694e+01  -1.630188e+02
   1.304361e+02  -1.563450e+02
   2.405050e+02  -2.566625e+01
   2.072997e+02   1.551116e+02
   4.252458e+01   2.446945e+02
  -1.129220e+02   1.749174e+02
  -1.404350e+02   2.776329e+01
  -7.280382e+01  -5.752007e+01
  -2.947671e+01  -3.701360e+01
  -5.508677e+01   1.237514e+01
  -8.230329e+01   6.331136e+00
  -4.325258e+01  -5.139637e+01
   4.364866e+01  -9.059132e+01
   1.058394e+02  -5.682670e+01
   8.825329e+01   3.673202e+01
  -1.405579e+01   1.137391e+02
  -1.460992e+02   8.813144e+01
  -2.027106e+02  -5.290602e+01
  -1.027103e+02  -2.075078e+02
   1.100987e+02  -2.349338e+02
   2.750902e+02  -9.824316e+01
   2.649863e+02   8.921946e+01
   1.124309e+02   1.824258e+02
  -4.044659e+01   1.515886e+02
  -9.769802e+01   8.637497e+01
  -8.184379e+01   7.129092e+01
  -6.890439e+01   9.338153e+01
  -9.523479e+01   7.602829e+01
  -1.318364e+02  -2.303347e+01
  -1.204205e+02  -1.588413e+02
  -2.963235e+01  -2.326734e+02
   1.021717e+02  -1.768148e+02
   1.806520e+02  -2.040864e+01
   1.398201e+02   1.259523e+02
   1.898917e+01   1.643933e+02
  -6.990324e+01   9.458773e+01
  -6.208211e+01   4.251892e-02
  -4.662177e+00  -4.429402e+01
   1.140703e+01  -3.564209e+01
  -3.677084e+01  -1.877819e+01
  -8.141825e+01  -2.350372e+01
  -4.594349e+01  -3.945594e+01
   6.586259e+01  -3.777970e+01
   1.626384e+02  -2.353152e+00
   1.469646e+02   5.360391e+01
   1.496005e+01   9.139532e+01
  -1.245544e+02   7.565309e+01
  -1.491982e+02   1.301023e+01
  -4.957053e+01  -4.257357e+01
   6.184442e+01  -3.848773e+01
   7.792468e+01   1.972088e+01
   8.163703e+00   7.034194e+01
  -5.698227e+01   5.945821e+01
  -6.515291e+01  -2.139895e+00
  -4.564030e+01  -5.147518e+01
  -4.460685e+01  -4.317473e+01
  -6.269023e+01  -2.663028e+00
  -6.783121e+01  -9.672279e-01
  -3.625231e+01  -6.963643e+01
   3.393269e+01  -1.494393e+02
   1.201486e+02  -1.445413e+02
   1.690924e+02  -3.357297e+01
   1.263224e+02   9.391587e+01
   6.174446e+00   1.296722e+02
  -8.857633e+01   6.312653e+01
  -6.145543e+01  -1.538683e+01
   6.064078e+01  -2.037130e+01
   1.406713e+02   4.500437e+01
   7.727677e+01   1.103444e+02
  -8.323700e+01   1.148839e+02
  -1.960435e+02   5.232705e+01
  -1.665912e+02  -3.554425e+01
  -3.772658e+01  -8.906832e+01
   6.295682e+01  -7.153858e+01
   5.043055e+01  -7.054979e+00
  -3.979782e+01   2.764724e+01
  -9.281711e+01  -2.318267e+01
  -3.369827e+01  -1.215265e+02
   9.357752e+01  -1.577773e+02
   1.712907e+02  -6.364225e+01
   1.294636e+02   1.030266e+02
   1.016946e+01   2.022299e+02
  -8.802161e+01   1.473525e+02
  -1.072686e+02  -7.383043e+00
  -6.164791e+01  -1.212742e+02
   2.631050e+00  -1.092180e+02
   4.736066e+01  -2.044528e+01
   5.301807e+01   3.229304e+01
   2.623029e+01   8.992957e+00
   4.219199e+00  -2.100802e+01
   2.148399e+01   1.560551e+01
   5.687963e+01   9.096732e+01
   4.231952e+01   1.122961e+02
  -4.854450e+01   4.620672e+01
  -1.414860e+02  -4.094928e+01
  -1.326687e+02  -7.331925e+01
  -1.789721e+01  -5.113433e+01
   8.993180e+01  -2.241663e+01
   9.057557e+01  -7.417144e+00
   1.136245e+01   7.642471e+00
  -3.949237e+01   2.265836e+01
  -1.481127e+01   1.847542e+01
   2.166357e+01  -1.445331e+00
  -5.682426e+00  -9.259773e+00
  -7.575366e+01  -4.299541e+00
  -9.363631e+01  -2.478982e+01
  -8.700922e+00  -8.208647e+01
   1.215250e+02  -1.163196e+02
   1.902442e+02  -5.918473e+01
   1.449191e+02   6.928066e+01
   2.571976e+01   1.657820e+02
  -8.160518e+01   1.531830e+02
  -1.171661e+02   5.956762e+01
  -8.236831e+01  -2.239316e+01
  -2.538034e+01  -3.641990e+01
   2.872180e+00  -8.968498e+00
  -1.059325e+01  -4.294284e+00
  -3.359572e+01  -4.705886e+01
  -2.265933e+01  -9.231376e+01
   3.025258e+01  -7.315020e+01
   8.279109e+01   1.930055e+01
   7.828944e+01   1.109866e+02
   4.086676e+00   1.146422e+02
  -8.403962e+01   2.408429e+01
  -1.049452e+02  -7.735867e+01
  -3.247738e+01  -1.059442e+02
   6.810965e+01  -5.677886e+01
   1.001687e+02   1.248488e+01
   4.006191e+01   5.213560e+01
  -3.373476e+01   5.309068e+01
  -3.242897e+01   2.877207e+01
   3.449912e+01  -3.803455e-01
   7.086445e+01  -6.534693e+00
   1.524533e+01   2.576983e+01
  -8.133770e+01   6.702877e+01
  -1.187157e+02   5.919013e+01
  -6.546856e+01  -1.263959e+01
   1.651218e+01  -8.483399e+01
   5.474343e+01  -8.104041e+01
   3.804381e+01  -5.883517e+00
   1.346208e+00   5.695725e+01
  -2.643361e+01   4.381626e+01
  -3.703563e+01  -1.865607e+01
  -2.688613e+01  -5.532097e+01
   2.928350e+00  -3.375278e+01
   3.377125e+01   8.800672e+00
   4.054462e+01   2.185949e+01
   2.108874e+01   1.360249e+00
  -8.143894e-01  -1.462220e+01
  -7.090940e+00   2.602680e+00
  -6.598674e+00   3.706898e+01
  -1.650972e+01   4.575065e+01
  -3.266580e+01   8.141136e+00
  -3.095321e+01  -4.569808e+01
   1.927054e+00  -6.208740e+01
   4.551810e+01  -2.088952e+01
   5.765514e+01   4.019012e+01
   1.457706e+01   6.442484e+01
  -5.633604e+01   3.447916e+01
  -9.078337e+01  -1.615364e+01
  -4.992286e+01  -4.528835e+01
   2.964484e+01  -4.161887e+01
   6.630465e+01  -2.166517e+01
   2.493286e+01  -4.900874e+00
  -3.767003e+01  -2.375797e+00
  -3.820500e+01  -1.599914e+01
   3.136466e+01  -3.144587e+01
   9.284103e+01  -1.949602e+01
