
 $NMID
 id='ANONYMOUS ', fmtdat='(2E16.6)'
 volume=1.0
 tramp=1.0
 $END
   3.022264e+03  -8.126393e+01
   2.057761e+03   1.472660e+03
   7.822085e+01   1.930887e+03
  -1.133878e+03   1.218799e+03
  -9.040980e+02   2.202231e+02
  -5.142152e+01  -2.010952e+02
   3.532131e+02   7.017558e+01
   7.829632e+01   5.123537e+02
  -3.988770e+02   5.641358e+02
  -6.059575e+02   1.083489e+02
  -4.272480e+02  -4.630442e+02
  -3.101407e+01  -6.139085e+02
   2.794894e+02  -1.924956e+02
   2.496308e+02   3.776755e+02
  -8.663836e+01   5.145900e+02
  -3.783765e+02   9.224567e+01
  -2.987218e+02  -4.464942e+02
   9.683795e+01  -5.920430e+02
   4.342877e+02  -2.757256e+02
   4.240333e+02   1.519279e+02
   1.366163e+02   3.370853e+02
  -1.060369e+02   2.372678e+02
  -6.657140e+01   7.987917e+01
   1.669624e+02   8.816547e+01
   2.601376e+02   2.487443e+02
  -3.936787e+00   3.329292e+02
  -4.296669e+02   1.636188e+02
  -5.671547e+02  -1.545685e+02
  -2.206120e+02  -3.286401e+02
   2.899545e+02  -1.984914e+02
   4.695882e+02   1.058661e+02
   1.877521e+02   3.311016e+02
  -2.327924e+02   3.337200e+02
  -4.196164e+02   1.336424e+02
  -3.063349e+02  -1.388871e+02
  -8.978466e+01  -2.883384e+02
   2.295336e+01  -1.769219e+02
  -2.995906e+01   8.091100e+01
  -1.577057e+02   1.534842e+02
  -1.912406e+02  -1.210558e+02
  -3.082756e+01  -4.554925e+02
   2.170738e+02  -4.198654e+02
   3.067007e+02  -1.369976e+01
   1.266219e+02   2.890893e+02
  -1.341381e+02   1.386533e+02
  -1.713105e+02  -2.440124e+02
   9.267515e+01  -3.641322e+02
   4.111049e+02  -6.572700e+01
   4.612973e+02   3.327602e+02
   1.578810e+02   4.580006e+02
  -2.705376e+02   2.584425e+02
  -4.836906e+02  -4.454665e+01
  -3.259175e+02  -2.260937e+02
   3.493094e+01  -2.158628e+02
   2.675932e+02  -8.821377e+01
   2.069714e+02   2.133918e+01
   1.008059e+01   2.473343e+01
  -4.965716e+01  -4.139884e+01
   8.768669e+01  -5.866870e+01
   2.135617e+02   3.587821e+01
   1.232827e+02   1.759536e+02
  -1.345267e+02   2.341054e+02
  -3.176258e+02   1.359628e+02
  -2.508277e+02  -8.578031e+01
   1.419005e+01  -3.012885e+02
   2.693762e+02  -3.477771e+02
   3.404108e+02  -1.568600e+02
   2.212753e+02   1.469765e+02
   5.342897e+01   3.331601e+02
  -2.553208e+01   2.974255e+02
  -1.677289e+01   1.625184e+02
  -3.068391e+01   1.004277e+02
  -1.278733e+02   1.100285e+02
  -2.324739e+02   5.431527e+01
  -2.256127e+02  -1.087773e+02
  -8.765953e+01  -2.376569e+02
   8.546195e+01  -1.797481e+02
   1.773043e+02   3.581172e+01
   1.285095e+02   2.244778e+02
  -4.080710e+01   2.318742e+02
  -2.274151e+02   6.119396e+01
  -2.880908e+02  -1.549414e+02
  -1.623144e+02  -2.735591e+02
   4.187468e+01  -2.477345e+02
   1.517318e+02  -1.476750e+02
   1.363083e+02  -7.846948e+01
   1.382200e+02  -6.692872e+01
   2.593937e+02  -3.892008e+01
   3.847451e+02   8.269369e+01
   3.030798e+02   2.723978e+02
  -1.623188e+01   4.078695e+02
  -3.492666e+02   3.751818e+02
  -4.428486e+02   1.692833e+02
  -2.674342e+02  -8.873493e+01
  -2.149185e+01  -2.322553e+02
   8.270781e+01  -1.840926e+02
   8.653277e+00  -3.544162e+01
  -1.085299e+02   3.776944e+01
  -1.199881e+02  -3.338984e+01
  -9.152979e+00  -1.301749e+02
   1.055931e+02  -9.780555e+01
   1.009419e+02   4.647174e+01
  -2.429777e+01   1.207689e+02
  -1.489953e+02   1.991413e+00
  -1.446495e+02  -2.156557e+02
   1.236675e+01  -3.186447e+02
   2.223313e+02  -1.986451e+02
   3.359119e+02   5.127563e+01
   2.649634e+02   2.416069e+02
   5.976353e+01   2.561079e+02
  -1.188812e+02   1.321843e+02
  -1.397396e+02   7.193602e+00
  -3.197083e+01  -1.181150e+01
   4.786084e+01   5.748928e+01
  -3.267018e+00   1.057544e+02
  -1.148941e+02   6.247364e+01
  -1.359734e+02  -2.363288e+01
  -2.875456e+01  -5.023285e+01
   7.730462e+01   1.200402e+01
   3.662749e+01   8.783611e+01
  -1.392739e+02   8.474484e+01
  -2.837816e+02  -1.707602e+01
  -2.427165e+02  -1.573913e+02
  -2.793773e+01  -2.460047e+02
   1.919845e+02  -2.201072e+02
   2.485914e+02  -9.236593e+01
   1.273308e+02   4.055902e+01
  -2.721891e+01   7.168598e+01
  -5.862249e+01  -4.440467e+00
   4.982546e+01  -7.451175e+01
   1.715142e+02  -3.199004e+01
   1.751700e+02   9.443077e+01
   5.397537e+01   1.731193e+02
  -8.042162e+01   1.262054e+02
  -1.151348e+02   1.660350e+01
  -4.187104e+01  -3.294758e+01
   4.112873e+01   2.094403e+01
   2.658503e+01   1.044997e+02
  -9.113005e+01   1.126427e+02
  -1.984547e+02   1.358694e+01
  -1.715278e+02  -1.243768e+02
  -1.191321e+01  -1.940824e+02
   1.430615e+02  -1.415327e+02
   1.610889e+02  -1.307339e+01
   5.203524e+01   8.593283e+01
  -5.567281e+01   8.822168e+01
  -6.379274e+01   2.350840e+01
   3.435474e-02  -2.308613e+01
   3.602016e+01  -8.015929e+00
  -7.816615e+00   2.570335e+01
  -8.454298e+01   4.105299e+00
  -1.016196e+02  -8.516433e+01
  -1.268735e+01  -1.662638e+02
   1.330187e+02  -1.460272e+02
   2.237980e+02  -1.143137e+01
   1.812835e+02   1.467015e+02
   3.739295e+01   2.122533e+02
  -9.167342e+01   1.495717e+02
  -1.195135e+02   3.118153e+01
  -6.988368e+01  -3.900619e+01
  -3.258557e+01  -2.594282e+01
  -5.206878e+01   1.460683e+01
  -8.281885e+01   8.080504e+00
  -5.520367e+01  -5.361661e+01
   3.552556e+01  -1.021208e+02
   1.160518e+02  -6.695178e+01
   1.032861e+02   4.096724e+01
  -1.472039e+01   1.241801e+02
  -1.545201e+02   8.753580e+01
  -1.949787e+02  -6.024159e+01
  -8.093083e+01  -1.998102e+02
   1.158750e+02  -2.086424e+02
   2.493525e+02  -7.828305e+01
   2.281901e+02   8.166650e+01
   9.333655e+01   1.557247e+02
  -3.564112e+01   1.282972e+02
  -8.077135e+01   7.543337e+01
  -6.294623e+01   6.640862e+01
  -5.213382e+01   8.976716e+01
  -8.306353e+01   7.661773e+01
  -1.238998e+02  -1.441221e+01
  -1.141863e+02  -1.419058e+02
  -2.803055e+01  -2.103971e+02
   9.137729e+01  -1.565090e+02
   1.581849e+02  -1.220406e+01
   1.188563e+02   1.174564e+02
   9.895922e+00   1.453499e+02
  -7.007963e+01   7.527958e+01
  -5.901612e+01  -1.393329e+01
   3.733584e+00  -5.130864e+01
   2.608744e+01  -3.409191e+01
  -2.497560e+01  -1.000559e+01
  -7.999705e+01  -1.477873e+01
  -4.810686e+01  -3.702042e+01
   6.889470e+01  -3.887051e+01
   1.642655e+02  -2.746296e-01
   1.361284e+02   5.849302e+01
  -7.884877e-01   9.248760e+01
  -1.261777e+02   7.063579e+01
  -1.359985e+02   6.437888e+00
  -4.167453e+01  -4.730419e+01
   5.543811e+01  -4.274610e+01
   7.371511e+01   1.547800e+01
   2.029053e+01   6.941655e+01
  -4.102263e+01   6.360392e+01
  -6.489519e+01   4.056429e+00
  -5.657983e+01  -4.665047e+01
  -4.624222e+01  -4.000352e+01
  -5.123297e+01  -5.739587e-01
  -6.067169e+01   9.323629e-02
  -4.389305e+01  -6.777028e+01
   2.187453e+01  -1.445184e+02
   1.161241e+02  -1.393667e+02
   1.703852e+02  -3.445241e+01
   1.249149e+02   8.698834e+01
   3.776138e+00   1.254374e+02
  -8.640934e+01   6.744757e+01
  -5.891183e+01  -8.367342e+00
   5.383258e+01  -2.047067e+01
   1.252727e+02   3.603719e+01
   6.706433e+01   9.776528e+01
  -7.648900e+01   1.027335e+02
  -1.751704e+02   4.328724e+01
  -1.457316e+02  -3.621772e+01
  -2.914750e+01  -7.856103e+01
   5.912671e+01  -5.693980e+01
   4.517572e+01   1.253668e+00
  -3.716453e+01   3.027867e+01
  -8.741138e+01  -1.589827e+01
  -4.073610e+01  -1.068790e+02
   6.896907e+01  -1.478098e+02
   1.445093e+02  -7.071149e+01
   1.203193e+02   8.107196e+01
   2.040320e+01   1.782320e+02
  -7.291833e+01   1.322901e+02
  -9.688934e+01  -9.126314e+00
  -5.287673e+01  -1.111528e+02
   1.150346e+01  -9.539249e+01
   4.837925e+01  -1.394233e+01
   4.214596e+01   2.921870e+01
   1.487194e+01   6.284915e+00
   5.328666e+00  -1.607811e+01
   2.968591e+01   2.000186e+01
   5.588202e+01   8.291884e+01
   3.098718e+01   9.652417e+01
  -5.213962e+01   4.013954e+01
  -1.268882e+02  -3.148223e+01
  -1.149768e+02  -6.167109e+01
  -1.828213e+01  -4.958842e+01
   7.363209e+01  -2.641302e+01
   8.010366e+01  -6.974997e+00
   1.709059e+01   1.099814e+01
  -3.108682e+01   2.068922e+01
  -1.832372e+01   1.165801e+01
   1.305204e+01  -4.390427e+00
  -2.549157e+00  -4.696401e+00
  -6.124426e+01   3.293544e+00
  -8.744070e+01  -1.762078e+01
  -2.378858e+01  -7.530857e+01
   9.581122e+01  -1.136591e+02
   1.741308e+02  -6.792932e+01
   1.455073e+02   4.962525e+01
   3.527467e+01   1.473799e+02
  -7.104722e+01   1.474471e+02
  -1.074896e+02   6.521301e+01
  -7.569010e+01  -1.538078e+01
  -2.584112e+01  -3.505637e+01
  -3.166978e+00  -1.273053e+01
  -1.347893e+01  -8.095830e+00
  -2.905352e+01  -4.539487e+01
  -1.835367e+01  -8.454171e+01
   2.541115e+01  -6.773446e+01
   7.324528e+01   1.132411e+01
   7.787275e+01   9.169007e+01
   1.762677e+01   1.024117e+02
  -6.807976e+01   3.322358e+01
  -1.009078e+02  -5.614768e+01
  -4.142946e+01  -9.494347e+01
   5.754262e+01  -6.299128e+01
   9.789140e+01   3.658709e+00
   4.497103e+01   5.373887e+01
  -3.055239e+01   5.959468e+01
  -3.764089e+01   2.839455e+01
   2.337908e+01  -7.039453e+00
   6.335371e+01  -1.062257e+01
   1.828204e+01   2.518508e+01
  -7.116959e+01   6.327472e+01
  -1.118152e+02   5.230206e+01
  -6.765396e+01  -1.445362e+01
   9.920009e+00  -8.000237e+01
   5.231686e+01  -7.957878e+01
   4.261018e+01  -1.401651e+01
   9.023367e+00   4.816907e+01
  -2.040311e+01   4.634032e+01
  -3.481103e+01  -7.571901e+00
  -2.850918e+01  -4.928090e+01
  -6.718588e-01  -3.794021e+01
   3.134979e+01   3.251012e+00
   4.011582e+01   2.293418e+01
   1.955332e+01   4.349759e+00
  -4.482819e+00  -1.911379e+01
  -6.297118e+00  -8.938147e+00
   5.781928e+00   2.921270e+01
   2.075643e+00   5.021470e+01
  -2.401372e+01   2.289659e+01
  -4.053112e+01  -3.032560e+01
  -1.553595e+01  -5.536395e+01
   3.632796e+01  -2.594243e+01
   6.031671e+01   2.818824e+01
   2.086260e+01   5.540479e+01
  -5.219944e+01   3.566387e+01
  -8.796723e+01  -7.267914e+00
  -4.908146e+01  -3.867153e+01
   2.528002e+01  -4.398541e+01
   6.024494e+01  -2.913585e+01
   2.736208e+01  -7.585899e+00
  -2.547539e+01   4.770521e+00
  -3.111056e+01  -3.802497e+00
   1.989796e+01  -2.384469e+01
   7.091827e+01  -2.244559e+01
