
 $NMID
 id='ANONYMOUS ', fmtdat='(2E16.6)'
 volume=1.0
 tramp=1.0
 $END
  -3.573161e+03   4.154126e+01
  -2.297953e+03  -1.918410e+03
   1.881887e+02  -2.292349e+03
   1.518915e+03  -1.169735e+03
   9.793008e+02   6.161015e+01
  -1.654443e+02   3.446805e+02
  -5.445742e+02  -1.833053e+02
  -5.709528e+01  -7.132210e+02
   5.575534e+02  -6.592150e+02
   7.437127e+02  -4.477557e+01
   4.532968e+02   6.169267e+02
  -5.887428e+01   7.342738e+02
  -4.099218e+02   1.790317e+02
  -3.037724e+02  -5.039784e+02
   1.524661e+02  -6.139814e+02
   4.713729e+02  -6.315663e+01
   3.009385e+02   5.465782e+02
  -1.822230e+02   6.348408e+02
  -5.093689e+02   2.254629e+02
  -4.328642e+02  -2.298825e+02
  -1.011424e+02  -3.883337e+02
   1.570124e+02  -2.570766e+02
   1.181897e+02  -6.561820e+01
  -1.523287e+02  -4.117377e+01
  -3.105938e+02  -2.181468e+02
  -5.617035e+01  -3.739582e+02
   4.553894e+02  -2.423732e+02
   6.764750e+02   1.399288e+02
   2.956020e+02   4.117544e+02
  -3.322429e+02   2.944624e+02
  -5.738740e+02  -9.031023e+01
  -2.439347e+02  -3.930077e+02
   2.602455e+02  -4.037174e+02
   4.851268e+02  -1.572077e+02
   3.542181e+02   1.758155e+02
   8.705217e+01   3.618329e+02
  -8.007710e+01   2.221923e+02
  -3.398957e+01  -1.225196e+02
   1.633165e+02  -2.472740e+02
   2.757998e+02   9.159059e+01
   9.712187e+01   5.427422e+02
  -2.594878e+02   5.263981e+02
  -4.149487e+02   1.297330e+01
  -1.755794e+02  -3.848180e+02
   1.879852e+02  -2.034264e+02
   2.443796e+02   2.778581e+02
  -9.061332e+01   4.358632e+02
  -4.739820e+02   8.753400e+01
  -5.197804e+02  -3.751988e+02
  -1.627000e+02  -5.207558e+02
   3.199079e+02  -2.956574e+02
   5.508257e+02   6.042756e+01
   3.555215e+02   2.902876e+02
  -7.415488e+01   2.748214e+02
  -3.372819e+02   8.158840e+01
  -2.309879e+02  -8.035354e+01
   2.874493e+01  -5.536218e+01
   8.392019e+01   7.748611e+01
  -1.138267e+02   1.026371e+02
  -2.659108e+02  -4.978114e+01
  -1.346707e+02  -2.246654e+02
   1.659452e+02  -2.517009e+02
   3.394849e+02  -1.166231e+02
   2.425110e+02   9.499750e+01
  -2.548995e+01   2.890346e+02
  -2.712348e+02   3.493167e+02
  -3.544835e+02   1.774931e+02
  -2.503469e+02  -1.513251e+02
  -6.143047e+01  -3.801937e+02
   5.764949e+01  -3.398844e+02
   5.477247e+01  -1.561724e+02
   3.474929e+01  -6.836899e+01
   1.083510e+02  -1.029669e+02
   2.288757e+02  -7.620787e+01
   2.489160e+02   9.722535e+01
   1.117060e+02   2.574791e+02
  -8.516308e+01   2.104573e+02
  -1.991550e+02  -2.363174e+01
  -1.532193e+02  -2.391923e+02
   3.450965e+01  -2.603831e+02
   2.488484e+02  -7.920010e+01
   3.214744e+02   1.677885e+02
   1.749205e+02   3.117142e+02
  -6.419936e+01   2.780629e+02
  -1.852623e+02   1.451583e+02
  -1.499268e+02   5.657768e+01
  -1.333456e+02   5.614943e+01
  -2.615649e+02   4.400045e+01
  -4.034091e+02  -8.340442e+01
  -3.207795e+02  -2.912991e+02
   1.774389e+01  -4.348527e+02
   3.715144e+02  -3.973231e+02
   4.770663e+02  -1.806287e+02
   2.992173e+02   9.604577e+01
   3.112895e+01   2.611605e+02
  -1.023628e+02   2.139123e+02
  -3.333025e+01   3.691124e+01
   1.121972e+02  -6.030503e+01
   1.484889e+02   2.570505e+01
   2.267244e+01   1.560318e+02
  -1.276345e+02   1.258499e+02
  -1.302487e+02  -5.244825e+01
   2.296630e+01  -1.487137e+02
   1.691588e+02  -1.101091e+01
   1.542485e+02   2.366520e+02
  -2.327082e+01   3.418123e+02
  -2.372845e+02   2.013394e+02
  -3.455911e+02  -6.269530e+01
  -2.755824e+02  -2.540279e+02
  -6.960084e+01  -2.686915e+02
   1.231918e+02  -1.446097e+02
   1.574791e+02  -1.079280e+01
   4.240397e+01   1.873411e+01
  -5.553556e+01  -5.384924e+01
  -6.157138e+00  -1.154460e+02
   1.225110e+02  -7.567150e+01
   1.547881e+02   2.197831e+01
   3.940318e+01   5.926223e+01
  -8.035581e+01  -4.287492e+00
  -4.238747e+01  -8.658122e+01
   1.408095e+02  -8.606282e+01
   2.934099e+02   1.685695e+01
   2.558563e+02   1.610309e+02
   3.592483e+01   2.580449e+02
  -1.992985e+02   2.389194e+02
  -2.704326e+02   1.043178e+02
  -1.461983e+02  -4.657950e+01
   2.746552e+01  -8.659935e+01
   7.124713e+01   4.056058e-01
  -4.655901e+01   8.515469e+01
  -1.860455e+02   4.036035e+01
  -1.935441e+02  -1.024410e+02
  -5.953651e+01  -1.919180e+02
   8.928992e+01  -1.409300e+02
   1.292092e+02  -2.041901e+01
   5.277289e+01   3.699170e+01
  -3.736419e+01  -1.481649e+01
  -2.900851e+01  -1.015268e+02
   8.980153e+01  -1.150602e+02
   2.055774e+02  -1.615749e+01
   1.828145e+02   1.307695e+02
   1.326463e+01   2.094466e+02
  -1.573024e+02   1.530362e+02
  -1.788191e+02   9.860477e+00
  -5.803643e+01  -9.929951e+01
   6.224815e+01  -9.899934e+01
   7.300685e+01  -2.640180e+01
   5.870475e+00   2.448433e+01
  -3.246011e+01   1.092411e+01
   9.575391e+00  -2.076638e+01
   8.354278e+01   1.554045e+00
   9.959595e+01   8.908310e+01
   1.125879e+01   1.698655e+02
  -1.376525e+02   1.513726e+02
  -2.351396e+02   1.358670e+01
  -1.928192e+02  -1.553829e+02
  -3.788312e+01  -2.290458e+02
   1.026015e+02  -1.611766e+02
   1.301562e+02  -2.974673e+01
   7.268297e+01   4.705581e+01
   3.238461e+01   3.082647e+01
   5.474964e+01  -1.360025e+01
   8.507675e+01  -6.508256e+00
   5.196517e+01   5.548702e+01
  -4.095243e+01   1.008475e+02
  -1.171377e+02   6.350124e+01
  -1.004829e+02  -4.261970e+01
   1.700139e+01  -1.239271e+02
   1.572476e+02  -8.763638e+01
   2.017466e+02   6.212124e+01
   8.755006e+01   2.083615e+02
  -1.194735e+02   2.210758e+02
  -2.651586e+02   8.400747e+01
  -2.454513e+02  -8.868159e+01
  -1.005805e+02  -1.695330e+02
   3.941608e+01  -1.390173e+02
   8.930394e+01  -8.035136e+01
   7.167021e+01  -6.941533e+01
   6.024332e+01  -9.309679e+01
   9.043866e+01  -7.763877e+01
   1.298994e+02   1.921007e+01
   1.177338e+02   1.528038e+02
   2.686123e+01   2.237795e+02
  -9.912241e+01   1.663755e+02
  -1.697930e+02   1.352543e+01
  -1.274669e+02  -1.245958e+02
  -1.153790e+01  -1.554316e+02
   7.250379e+01  -8.261328e+01
   6.104250e+01   1.052600e+01
  -2.033759e+00   5.013410e+01
  -2.245993e+01   3.474649e+01
   2.960356e+01   1.318476e+01
   8.266811e+01   1.915878e+01
   4.824042e+01   3.958684e+01
  -7.038157e+01   3.848785e+01
  -1.681649e+02  -1.478445e+00
  -1.423962e+02  -6.018093e+01
  -2.954695e+00  -9.421275e+01
   1.299841e+02  -7.231834e+01
   1.439352e+02  -7.138578e+00
   4.457148e+01   4.744191e+01
  -5.978317e+01   4.188937e+01
  -7.699240e+01  -1.824551e+01
  -1.589745e+01  -7.224130e+01
   4.839504e+01  -6.382500e+01
   6.697946e+01  -1.204584e+00
   5.400366e+01   5.062376e+01
   4.647397e+01   4.284998e+01
   5.642179e+01   1.705113e+00
   6.469620e+01   9.390583e-01
   4.165898e+01   7.107860e+01
  -2.838161e+01   1.500813e+02
  -1.224982e+02   1.432778e+02
  -1.751401e+02   3.258618e+01
  -1.277056e+02  -9.340762e+01
  -2.949616e+00  -1.302336e+02
   9.057718e+01  -6.667703e+01
   6.142068e+01   1.167731e+01
  -5.782646e+01   2.039854e+01
  -1.334409e+02  -4.135401e+01
  -7.114899e+01  -1.052399e+02
   8.194559e+01  -1.085752e+02
   1.871518e+02  -4.543853e+01
   1.559750e+02   3.853991e+01
   3.188706e+01   8.432681e+01
  -6.242185e+01   6.250434e+01
  -4.787913e+01   9.106985e-01
   3.955237e+01  -2.977607e+01
   9.153028e+01   1.983744e+01
   3.839249e+01   1.153662e+02
  -8.076997e+01   1.547676e+02
  -1.584241e+02   6.895938e+01
  -1.260088e+02  -9.195833e+01
  -1.567664e+01  -1.915114e+02
   8.135720e+01  -1.401703e+02
   1.027427e+02   9.934517e+00
   5.584100e+01   1.180229e+02
  -9.932227e+00   1.021006e+02
  -4.939237e+01   1.571335e+01
  -4.650503e+01  -3.133702e+01
  -1.896966e+01  -7.246693e+00
  -5.211236e+00   1.801886e+01
  -2.740575e+01  -1.976943e+01
  -5.674460e+01  -8.859790e+01
  -3.455833e+01  -1.044510e+02
   5.280783e+01  -4.235795e+01
   1.349190e+02   3.688344e+01
   1.233125e+02   6.835024e+01
   1.797482e+01   5.172387e+01
  -8.145935e+01   2.520163e+01
  -8.579950e+01   6.428631e+00
  -1.543425e+01  -1.060846e+01
   3.492805e+01  -2.167390e+01
   1.766014e+01  -1.383927e+01
  -1.636519e+01   3.593956e+00
   3.698422e+00   6.266231e+00
   6.791013e+01  -4.081199e-01
   9.179008e+01   2.154810e+01
   1.859839e+01   8.033744e+01
  -1.084079e+02   1.169374e+02
  -1.853756e+02   6.483026e+01
  -1.491015e+02  -5.953606e+01
  -3.147231e+01  -1.581881e+02
   7.842697e+01  -1.525982e+02
   1.146889e+02  -6.384724e+01
   7.990472e+01   1.901128e+01
   2.592223e+01   3.684788e+01
   9.926375e-01   1.206096e+01
   1.268237e+01   7.350850e+00
   3.071363e+01   4.747657e+01
   1.924097e+01   8.953711e+01
  -2.852505e+01   7.111397e+01
  -7.841517e+01  -1.504456e+01
  -7.932592e+01  -1.016183e+02
  -1.252791e+01  -1.098288e+02
   7.588456e+01  -3.059022e+01
   1.047427e+02   6.596768e+01
   3.855381e+01   1.019765e+02
  -6.365253e+01   6.213225e+01
  -1.014954e+02  -8.005727e+00
  -4.376802e+01  -5.547213e+01
   3.347247e+01  -5.873904e+01
   3.736989e+01  -2.860143e+01
  -2.793360e+01   5.020527e+00
  -6.780251e+01   8.859537e+00
  -1.743820e+01  -2.641314e+01
   7.725248e+01  -6.546856e+01
   1.176947e+02  -5.453785e+01
   6.852654e+01   1.530188e+01
  -1.337765e+01   8.379976e+01
  -5.565746e+01   8.153194e+01
  -4.270900e+01   1.099690e+01
  -6.300881e+00  -5.269553e+01
   2.367408e+01  -4.664856e+01
   3.668075e+01   1.184492e+01
   2.820421e+01   5.305860e+01
  -1.153278e+00   3.771667e+01
  -3.310080e+01  -5.542847e+00
  -4.098705e+01  -2.378232e+01
  -2.044320e+01  -3.735240e+00
   3.005566e+00   1.833448e+01
   6.281986e+00   5.483322e+00
  -1.685822e+00  -3.299891e+01
   4.791374e+00  -5.066656e+01
   2.823243e+01  -1.858966e+01
   3.848831e+01   3.702661e+01
   9.634062e+00   5.977536e+01
  -4.083729e+01   2.472238e+01
  -6.101150e+01  -3.382930e+01
  -1.881859e+01  -6.033897e+01
   5.552749e+01  -3.560267e+01
   9.142529e+01   1.157346e+01
   5.031329e+01   4.258044e+01
  -2.810150e+01   4.416411e+01
  -6.449754e+01   2.677902e+01
  -2.749973e+01   6.450704e+00
   3.041832e+01  -2.529412e+00
   3.455501e+01   8.148662e+00
  -2.432528e+01   2.700167e+01
  -8.042127e+01   2.166126e+01
