
 $NMID
 id='ANONYMOUS ', fmtdat='(2E16.6)'
 volume=1.0
 tramp=1.0
 $END
   3.190510e+03  -3.527710e+01
   2.042498e+03   1.684290e+03
  -1.445740e+02   2.011470e+03
  -1.305371e+03   1.048119e+03
  -8.415200e+02  -1.032448e+01
   1.392795e+02  -2.654216e+02
   4.595074e+02   1.719865e+02
   3.852876e+01   6.220126e+02
  -4.901343e+02   5.777491e+02
  -6.512824e+02   4.363954e+01
  -4.003347e+02  -5.385137e+02
   4.519360e+01  -6.429467e+02
   3.520282e+02  -1.535864e+02
   2.619217e+02   4.467369e+02
  -1.331872e+02   5.416711e+02
  -4.130965e+02   5.711515e+01
  -2.711797e+02  -4.806195e+02
   1.482056e+02  -5.654270e+02
   4.429359e+02  -2.120397e+02
   3.873264e+02   1.918370e+02
   9.756928e+01   3.405375e+02
  -1.344493e+02   2.278902e+02
  -9.770348e+01   5.611743e+01
   1.497861e+02   3.773398e+01
   2.876582e+02   2.044883e+02
   4.564049e+01   3.453161e+02
  -4.204966e+02   2.179367e+02
  -6.104056e+02  -1.321215e+02
  -2.567291e+02  -3.714649e+02
   3.073793e+02  -2.578565e+02
   5.162184e+02   8.839509e+01
   2.148933e+02   3.551315e+02
  -2.366678e+02   3.618410e+02
  -4.355944e+02   1.412463e+02
  -3.158920e+02  -1.557775e+02
  -7.628701e+01  -3.191420e+02
   6.826227e+01  -1.899820e+02
   1.899342e+01   1.164217e+02
  -1.582706e+02   2.170782e+02
  -2.484133e+02  -9.496440e+01
  -7.864582e+01  -4.938799e+02
   2.372166e+02  -4.669434e+02
   3.653372e+02  -3.832767e+00
   1.475886e+02   3.437393e+02
  -1.709807e+02   1.733578e+02
  -2.150879e+02  -2.561273e+02
   8.481940e+01  -3.919372e+02
   4.270507e+02  -7.792179e+01
   4.696473e+02   3.353513e+02
   1.499179e+02   4.653446e+02
  -2.855851e+02   2.649707e+02
  -4.940403e+02  -5.154224e+01
  -3.175873e+02  -2.539956e+02
   6.614246e+01  -2.391611e+02
   2.966622e+02  -7.184096e+01
   2.004226e+02   6.460517e+01
  -2.508438e+01   4.106948e+01
  -6.829324e+01  -6.994569e+01
   1.055979e+02  -8.663706e+01
   2.354221e+02   4.619244e+01
   1.189353e+02   1.980493e+02
  -1.448645e+02   2.266510e+02
  -3.018702e+02   1.133512e+02
  -2.235278e+02  -7.878052e+01
   1.323516e+01  -2.646394e+02
   2.400488e+02  -3.252085e+02
   3.216989e+02  -1.655607e+02
   2.280362e+02   1.368341e+02
   5.623064e+01   3.416342e+02
  -4.776208e+01   3.015407e+02
  -4.064349e+01   1.386948e+02
  -2.446238e+01   6.673381e+01
  -9.805421e+01   1.007422e+02
  -2.115993e+02   7.276493e+01
  -2.288107e+02  -8.846687e+01
  -1.017930e+02  -2.343209e+02
   7.809859e+01  -1.905841e+02
   1.818965e+02   2.214707e+01
   1.400886e+02   2.173990e+02
  -3.102783e+01   2.363385e+02
  -2.259845e+02   7.236995e+01
  -2.915312e+02  -1.498807e+02
  -1.593149e+02  -2.782753e+02
   5.443743e+01  -2.482893e+02
   1.614304e+02  -1.318637e+02
   1.305167e+02  -5.574753e+01
   1.195231e+02  -5.658106e+01
   2.387604e+02  -4.525372e+01
   3.683756e+02   6.996200e+01
   2.947380e+02   2.595276e+02
  -1.044400e+01   3.944367e+02
  -3.314304e+02   3.654759e+02
  -4.296637e+02   1.691382e+02
  -2.706333e+02  -8.522052e+01
  -2.853218e+01  -2.360355e+02
   9.107085e+01  -1.909966e+02
   2.674094e+01  -3.031101e+01
  -1.044370e+02   5.427198e+01
  -1.340288e+02  -2.572200e+01
  -1.838633e+01  -1.411031e+02
   1.156148e+02  -1.108746e+02
   1.156304e+02   4.899660e+01
  -2.231468e+01   1.332055e+02
  -1.533653e+02   9.523074e+00
  -1.418651e+02  -2.117890e+02
   1.582211e+01  -3.084242e+02
   2.109259e+02  -1.868101e+02
   3.144148e+02   4.952537e+01
   2.545020e+02   2.261470e+02
   6.652794e+01   2.441438e+02
  -1.108234e+02   1.328056e+02
  -1.421119e+02   1.013885e+01
  -3.675766e+01  -1.698228e+01
   5.164805e+01   4.968665e+01
   5.506633e+00   1.057486e+02
  -1.114915e+02   6.910387e+01
  -1.399502e+02  -1.982287e+01
  -3.457363e+01  -5.388456e+01
   7.446086e+01   3.551916e+00
   4.022951e+01   7.930916e+01
  -1.268217e+02   8.152858e+01
  -2.675435e+02  -1.027193e+01
  -2.354364e+02  -1.430747e+02
  -3.580788e+01  -2.349479e+02
   1.789212e+02  -2.195063e+02
   2.441078e+02  -9.653997e+01
   1.314007e+02   4.155382e+01
  -2.553058e+01   7.789833e+01
  -6.422492e+01  -1.305541e+00
   4.277535e+01  -7.813133e+01
   1.687440e+02  -3.775456e+01
   1.757235e+02   9.122159e+01
   5.508783e+01   1.726739e+02
  -7.969890e+01   1.276255e+02
  -1.165366e+02   1.886343e+01
  -4.707048e+01  -3.388369e+01
   3.599030e+01   1.285570e+01
   2.904099e+01   9.295917e+01
  -8.004807e+01   1.072039e+02
  -1.871579e+02   1.801351e+01
  -1.677255e+02  -1.164255e+02
  -1.426686e+01  -1.895176e+02
   1.404149e+02  -1.397930e+02
   1.605399e+02  -1.064311e+01
   5.241759e+01   8.876408e+01
  -5.557829e+01   8.953090e+01
  -6.546497e+01   2.395343e+01
  -4.953819e+00  -2.304350e+01
   3.036236e+01  -1.094847e+01
  -7.251234e+00   1.955220e+01
  -7.564476e+01   1.380587e+00
  -9.275211e+01  -7.835559e+01
  -1.379478e+01  -1.544041e+02
   1.226971e+02  -1.401693e+02
   2.136501e+02  -1.570617e+01
   1.770361e+02   1.384562e+02
   3.710888e+01   2.065547e+02
  -9.063738e+01   1.465084e+02
  -1.167674e+02   2.864257e+01
  -6.588613e+01  -4.079981e+01
  -2.955509e+01  -2.679568e+01
  -4.925498e+01   1.338707e+01
  -7.711554e+01   7.738835e+00
  -4.890690e+01  -4.878634e+01
   3.423909e+01  -9.244918e+01
   1.049698e+02  -6.102928e+01
   9.296414e+01   3.600191e+01
  -1.236972e+01   1.133903e+02
  -1.414693e+02   8.330560e+01
  -1.847724e+02  -5.304271e+01
  -8.262359e+01  -1.885425e+02
   1.057571e+02  -2.027687e+02
   2.395014e+02  -7.961899e+01
   2.231835e+02   7.738943e+01
   9.271132e+01   1.521662e+02
  -3.412326e+01   1.260694e+02
  -7.954664e+01   7.352259e+01
  -6.333464e+01   6.332702e+01
  -5.247041e+01   8.478191e+01
  -8.015791e+01   7.175147e+01
  -1.176986e+02  -1.495304e+01
  -1.089588e+02  -1.362383e+02
  -2.767467e+01  -2.021539e+02
   8.745652e+01  -1.519232e+02
   1.537178e+02  -1.421064e+01
   1.171824e+02   1.115198e+02
   1.227117e+01   1.408751e+02
  -6.529952e+01   7.589505e+01
  -5.636798e+01  -8.986988e+00
   7.319374e-01  -4.632417e+01
   2.030988e+01  -3.280292e+01
  -2.627114e+01  -1.172937e+01
  -7.499203e+01  -1.550164e+01
  -4.459322e+01  -3.479199e+01
   6.323280e+01  -3.662331e+01
   1.530508e+02  -2.099264e+00
   1.305428e+02   5.257500e+01
   4.110873e+00   8.648758e+01
  -1.170082e+02   6.829275e+01
  -1.305808e+02   8.452964e+00
  -4.146367e+01  -4.281953e+01
   5.302144e+01  -3.908449e+01
   6.996635e+01   1.510049e+01
   1.629654e+01   6.462866e+01
  -4.189355e+01   5.825356e+01
  -6.049953e+01   2.663133e+00
  -5.023227e+01  -4.413278e+01
  -4.299453e+01  -3.779740e+01
  -5.079728e+01  -9.656353e-01
  -5.851114e+01   1.025608e-01
  -3.947742e+01  -6.326406e+01
   2.258889e+01  -1.361436e+02
   1.085685e+02  -1.323160e+02
   1.585201e+02  -3.328873e+01
   1.175404e+02   8.213260e+01
   5.013264e+00   1.182956e+02
  -8.065146e+01   6.248018e+01
  -5.558308e+01  -9.257079e+00
   5.189843e+01  -1.934240e+01
   1.210864e+02   3.541166e+01
   6.575110e+01   9.433101e+01
  -7.270952e+01   9.955060e+01
  -1.689482e+02   4.362996e+01
  -1.418558e+02  -3.303888e+01
  -2.981240e+01  -7.610448e+01
   5.614186e+01  -5.735490e+01
   4.377759e+01  -1.217440e+00
  -3.510372e+01   2.781547e+01
  -8.300077e+01  -1.621084e+01
  -3.667681e+01  -1.031677e+02
   6.994924e+01  -1.405928e+02
   1.412518e+02  -6.466125e+01
   1.148583e+02   8.075191e+01
   1.717243e+01   1.723324e+02
  -7.139918e+01   1.276875e+02
  -9.331831e+01  -7.576784e+00
  -5.228563e+01  -1.062677e+02
   8.031020e+00  -9.301071e+01
   4.497177e+01  -1.511595e+01
   4.235308e+01   2.803318e+01
   1.683836e+01   6.738046e+00
   4.683440e+00  -1.637196e+01
   2.584618e+01   1.710806e+01
   5.289689e+01   7.914413e+01
   3.225980e+01   9.430926e+01
  -4.759983e+01   3.956218e+01
  -1.223392e+02  -3.125593e+01
  -1.122003e+02  -6.018865e+01
  -1.731857e+01  -4.657050e+01
   7.272928e+01  -2.379752e+01
   7.750924e+01  -6.991446e+00
   1.463335e+01   9.126639e+00
  -3.111881e+01   1.987325e+01
  -1.627343e+01   1.289414e+01
   1.433383e+01  -3.223606e+00
  -3.124423e+00  -5.634071e+00
  -6.078180e+01   1.212846e+00
  -8.325036e+01  -1.780848e+01
  -1.869440e+01  -7.156113e+01
   9.539407e+01  -1.069672e+02
   1.661149e+02  -6.211098e+01
   1.356582e+02   5.035084e+01
   3.113860e+01   1.419575e+02
  -6.812283e+01   1.395056e+02
  -1.022862e+02   6.002729e+01
  -7.238764e+01  -1.577726e+01
  -2.425190e+01  -3.288981e+01
  -1.570357e+00  -1.073799e+01
  -1.199050e+01  -6.395979e+00
  -2.863041e+01  -4.272111e+01
  -1.872734e+01  -8.095591e+01
   2.460962e+01  -6.475691e+01
   7.079822e+01   1.232811e+01
   7.308000e+01   9.009000e+01
   1.341911e+01   9.838411e+01
  -6.727777e+01   2.878183e+01
  -9.522124e+01  -5.730331e+01
  -3.682143e+01  -9.101605e+01
   5.587051e+01  -5.739922e+01
   9.184140e+01   5.025116e+00
   4.117366e+01   4.931065e+01
  -2.875240e+01   5.412227e+01
  -3.358804e+01   2.703475e+01
   2.452405e+01  -4.746858e+00
   6.095376e+01  -9.158975e+00
   1.646223e+01   2.346217e+01
  -6.873341e+01   6.037987e+01
  -1.060044e+02   5.134038e+01
  -6.277456e+01  -1.245426e+01
   1.048928e+01  -7.590162e+01
   4.892306e+01  -7.505254e+01
   3.830225e+01  -1.140627e+01
   6.580855e+00   4.702982e+01
  -2.021434e+01   4.263450e+01
  -3.288465e+01  -9.752426e+00
  -2.643646e+01  -4.734796e+01
  -8.032296e-02  -3.425150e+01
   2.980402e+01   4.303223e+00
   3.778298e+01   2.084294e+01
   1.876979e+01   3.169481e+00
  -3.484897e+00  -1.655694e+01
  -6.436920e+00  -5.306667e+00
   2.202561e+00   2.899190e+01
  -2.419356e+00   4.527028e+01
  -2.415482e+01   1.750889e+01
  -3.521717e+01  -3.179457e+01
  -1.021445e+01  -5.292406e+01
   3.600860e+01  -2.296803e+01
   5.556799e+01   2.893399e+01
   1.805213e+01   5.379149e+01
  -4.953275e+01   3.330200e+01
  -8.273894e+01  -8.500951e+00
  -4.619932e+01  -3.749093e+01
   2.435655e+01  -4.055384e+01
   5.744732e+01  -2.557898e+01
   2.479938e+01  -6.653315e+00
  -2.676819e+01   2.490515e+00
  -3.064369e+01  -6.668452e+00
   2.157944e+01  -2.413071e+01
   7.171817e+01  -2.020814e+01
