
 $NMID
 id='ANONYMOUS ', fmtdat='(2E16.6)'
 volume=1.0
 tramp=1.0
 $END
  -3.459261e+03  -1.011182e+01
  -2.185414e+03  -1.879487e+03
   2.143913e+02  -2.194835e+03
   1.464421e+03  -1.098064e+03
   9.207886e+02   6.428508e+01
  -1.734705e+02   3.115801e+02
  -5.159287e+02  -1.959537e+02
  -3.606130e+01  -6.885322e+02
   5.486896e+02  -6.236311e+02
   7.141331e+02  -3.088251e+01
   4.248380e+02   5.995682e+02
  -6.775483e+01   7.025426e+02
  -3.952723e+02   1.610450e+02
  -2.822653e+02  -4.932826e+02
   1.567332e+02  -5.885873e+02
   4.536865e+02  -5.266595e+01
   2.825718e+02   5.294265e+02
  -1.796422e+02   6.071807e+02
  -4.882013e+02   2.121499e+02
  -4.122667e+02  -2.227677e+02
  -9.370452e+01  -3.726401e+02
   1.536458e+02  -2.443159e+02
   1.127977e+02  -5.863257e+01
  -1.527607e+02  -3.844914e+01
  -3.045483e+02  -2.164712e+02
  -5.056646e+01  -3.686477e+02
   4.493384e+02  -2.328154e+02
   6.574073e+02   1.459360e+02
   2.785059e+02   4.062092e+02
  -3.314575e+02   2.813451e+02
  -5.579086e+02  -9.745798e+01
  -2.306341e+02  -3.862945e+02
   2.588408e+02  -3.888880e+02
   4.724368e+02  -1.464622e+02
   3.398753e+02   1.746886e+02
   7.752158e+01   3.501939e+02
  -8.164748e+01   2.095701e+02
  -2.854648e+01  -1.251437e+02
   1.676339e+02  -2.390641e+02
   2.702744e+02   9.724915e+01
   8.579354e+01   5.327019e+02
  -2.615712e+02   5.061634e+02
  -4.018597e+02   2.160556e+00
  -1.608707e+02  -3.775320e+02
   1.883880e+02  -1.917724e+02
   2.336622e+02   2.764739e+02
  -9.456205e+01   4.228138e+02
  -4.615753e+02   7.913022e+01
  -5.002029e+02  -3.689015e+02
  -1.522381e+02  -5.050822e+02
   3.134116e+02  -2.820848e+02
   5.324759e+02   6.451260e+01
   3.386317e+02   2.837105e+02
  -7.732076e+01   2.623810e+02
  -3.260062e+02   7.259271e+01
  -2.180283e+02  -7.970643e+01
   3.072441e+01  -4.959665e+01
   7.764466e+01   7.835157e+01
  -1.146290e+02   9.683148e+01
  -2.563345e+02  -5.315198e+01
  -1.259568e+02  -2.186312e+02
   1.622029e+02  -2.411376e+02
   3.270460e+02  -1.115711e+02
   2.345296e+02   9.085007e+01
  -2.292349e+01   2.793563e+02
  -2.627016e+02   3.391426e+02
  -3.456461e+02   1.712256e+02
  -2.425170e+02  -1.493521e+02
  -5.535440e+01  -3.693005e+02
   5.954364e+01  -3.262967e+02
   5.201168e+01  -1.477327e+02
   3.028068e+01  -6.614768e+01
   1.043279e+02  -1.021197e+02
   2.241856e+02  -7.456276e+01
   2.427044e+02   9.636602e+01
   1.066303e+02   2.519661e+02
  -8.542619e+01   2.041759e+02
  -1.943786e+02  -2.490679e+01
  -1.473950e+02  -2.342525e+02
   3.600888e+01  -2.531554e+02
   2.430176e+02  -7.494864e+01
   3.106512e+02   1.656008e+02
   1.662286e+02   3.031983e+02
  -6.480960e+01   2.674057e+02
  -1.790430e+02   1.377032e+02
  -1.430309e+02   5.386239e+01
  -1.281907e+02   5.525730e+01
  -2.541929e+02   4.287264e+01
  -3.913283e+02  -8.215411e+01
  -3.096491e+02  -2.837799e+02
   1.925152e+01  -4.215947e+02
   3.619104e+02  -3.836731e+02
   4.634972e+02  -1.724544e+02
   2.895165e+02   9.590341e+01
   2.761214e+01   2.541408e+02
  -1.019037e+02   2.055111e+02
  -3.228655e+01   3.332113e+01
   1.110422e+02  -5.818945e+01
   1.447294e+02   2.766110e+01
   1.952386e+01   1.525806e+02
  -1.263724e+02   1.198846e+02
  -1.256701e+02  -5.364285e+01
   2.491106e+01  -1.442931e+02
   1.649046e+02  -8.842607e+00
   1.478282e+02   2.301984e+02
  -2.432437e+01   3.303973e+02
  -2.300576e+02   1.941740e+02
  -3.341516e+02  -6.117672e+01
  -2.664445e+02  -2.470056e+02
  -6.662417e+01  -2.614945e+02
   1.205252e+02  -1.399862e+02
   1.530305e+02  -8.890879e+00
   4.039973e+01   1.913732e+01
  -5.429882e+01  -5.295787e+01
  -5.117721e+00  -1.129036e+02
   1.200409e+02  -7.276081e+01
   1.502688e+02   2.300604e+01
   3.733858e+01   5.847095e+01
  -7.874002e+01  -4.381867e+00
  -4.136357e+01  -8.452460e+01
   1.365890e+02  -8.356386e+01
   2.846478e+02   1.685386e+01
   2.480400e+02   1.571259e+02
   3.400186e+01   2.510350e+02
  -1.948417e+02   2.312635e+02
  -2.632911e+02   9.934452e+01
  -1.411876e+02  -4.684967e+01
   2.803191e+01  -8.395131e+01
   6.946490e+01   1.594229e+00
  -4.613866e+01   8.296657e+01
  -1.812029e+02   3.792650e+01
  -1.870117e+02  -1.009026e+02
  -5.611724e+01  -1.865556e+02
   8.785226e+01  -1.358785e+02
   1.256312e+02  -1.855786e+01
   5.078279e+01   3.689681e+01
  -3.692425e+01  -1.395917e+01
  -2.860418e+01  -9.871318e+01
   8.718425e+01  -1.118984e+02
   1.996377e+02  -1.527252e+01
   1.768557e+02   1.276842e+02
   1.163244e+01   2.032248e+02
  -1.534531e+02   1.472029e+02
  -1.730351e+02   8.061127e+00
  -5.506281e+01  -9.678006e+01
   6.129510e+01  -9.541208e+01
   7.102907e+01  -2.477269e+01
   5.559453e+00   2.434254e+01
  -3.179159e+01   1.100181e+01
   8.737688e+00  -2.000935e+01
   8.047549e+01   1.233570e+00
   9.638032e+01   8.602741e+01
   1.084454e+01   1.646088e+02
  -1.338136e+02   1.465778e+02
  -2.282554e+02   1.239669e+01
  -1.863662e+02  -1.515589e+02
  -3.540683e+01  -2.221013e+02
   1.004006e+02  -1.553488e+02
   1.260140e+02  -2.799072e+01
   6.974907e+01   4.577220e+01
   3.096868e+01   2.980413e+01
   5.297407e+01  -1.301592e+01
   8.235194e+01  -6.232966e+00
   5.033256e+01   5.340049e+01
  -3.940013e+01   9.735488e+01
  -1.131740e+02   6.170911e+01
  -9.740037e+01  -4.088214e+01
   1.624795e+01  -1.200231e+02
   1.524020e+02  -8.500224e+01
   1.955968e+02   6.061446e+01
   8.436906e+01   2.026274e+02
  -1.167949e+02   2.142366e+02
  -2.576024e+02   8.028669e+01
  -2.374548e+02  -8.735839e+01
  -9.640191e+01  -1.649711e+02
   3.908747e+01  -1.344853e+02
   8.696132e+01  -7.719768e+01
   6.967481e+01  -6.654966e+01
   5.858607e+01  -8.956641e+01
   8.767274e+01  -7.470870e+01
   1.255272e+02   1.900913e+01
   1.133349e+02   1.483490e+02
   2.506485e+01   2.168592e+02
  -9.685578e+01   1.607234e+02
  -1.647725e+02   1.220530e+01
  -1.230882e+02  -1.215081e+02
  -1.040815e+01  -1.508846e+02
   7.094130e+01  -7.997816e+01
   5.957662e+01   1.033702e+01
  -1.778058e+00   4.882211e+01
  -2.181892e+01   3.411585e+01
   2.838929e+01   1.319944e+01
   7.976728e+01   1.869863e+01
   4.660204e+01   3.832381e+01
  -6.816854e+01   3.730591e+01
  -1.629453e+02  -1.544088e+00
  -1.380375e+02  -5.878097e+01
  -2.825771e+00  -9.177032e+01
   1.261345e+02  -6.997621e+01
   1.396540e+02  -6.346620e+00
   4.328987e+01   4.624806e+01
  -5.781614e+01   4.029712e+01
  -7.442179e+01  -1.789342e+01
  -1.527794e+01  -6.959093e+01
   4.682512e+01  -6.124177e+01
   6.467324e+01  -1.082368e+00
   5.208228e+01   4.873531e+01
   4.486445e+01   4.150101e+01
   5.459506e+01   2.086753e+00
   6.263785e+01   1.210648e+00
   4.020672e+01   6.863903e+01
  -2.781870e+01   1.449487e+02
  -1.189681e+02   1.385286e+02
  -1.696389e+02   3.142802e+01
  -1.233742e+02  -9.065656e+01
  -2.591048e+00  -1.262291e+02
   8.765929e+01  -6.441401e+01
   5.925250e+01   1.146533e+01
  -5.603635e+01   1.947626e+01
  -1.289344e+02  -4.070603e+01
  -6.841004e+01  -1.023572e+02
   7.988757e+01  -1.048775e+02
   1.816430e+02  -4.315172e+01
   1.510873e+02   3.816826e+01
   3.046833e+01   8.200540e+01
  -6.100729e+01   6.037306e+01
  -4.665558e+01   6.736489e-01
   3.825686e+01  -2.871075e+01
   8.840323e+01   1.949346e+01
   3.658022e+01   1.115698e+02
  -7.874903e+01   1.490309e+02
  -1.533216e+02   6.574557e+01
  -1.212504e+02  -8.952626e+01
  -1.419068e+01  -1.852082e+02
   7.945672e+01  -1.352107e+02
   9.957644e+01   1.006315e+01
   5.364879e+01   1.146724e+02
  -1.016315e+01   9.919322e+01
  -4.806794e+01   1.521282e+01
  -4.492707e+01  -3.075987e+01
  -1.829374e+01  -7.414339e+00
  -5.225629e+00   1.749088e+01
  -2.665731e+01  -1.890046e+01
  -5.461035e+01  -8.591506e+01
  -3.286678e+01  -1.015977e+02
   5.138480e+01  -4.110067e+01
   1.303531e+02   3.635186e+01
   1.190126e+02   6.692288e+01
   1.730698e+01   5.010622e+01
  -7.881721e+01   2.378794e+01
  -8.313943e+01   5.797919e+00
  -1.504054e+01  -1.009795e+01
   3.392883e+01  -2.068505e+01
   1.733766e+01  -1.351165e+01
  -1.577026e+01   3.178033e+00
   3.430752e+00   6.182300e+00
   6.554839e+01   1.593649e-01
   8.865806e+01   2.117636e+01
   1.768976e+01   7.734663e+01
  -1.052426e+02   1.123151e+02
  -1.793520e+02   6.206666e+01
  -1.437115e+02  -5.782341e+01
  -2.970788e+01  -1.529620e+02
   7.631867e+01  -1.473867e+02
   1.109778e+02  -6.140083e+01
   7.715452e+01   1.872295e+01
   2.502544e+01   3.570286e+01
   1.064131e+00   1.147957e+01
   1.239706e+01   7.032525e+00
   2.965293e+01   4.616688e+01
   1.829799e+01   8.689529e+01
  -2.788448e+01   6.869986e+01
  -7.568822e+01  -1.497479e+01
  -7.609940e+01  -9.854595e+01
  -1.160388e+01  -1.059638e+02
   7.325384e+01  -2.901662e+01
   1.006957e+02   6.416243e+01
   3.686675e+01   9.853303e+01
  -6.152605e+01   5.976083e+01
  -9.801203e+01  -7.943090e+00
  -4.238280e+01  -5.360968e+01
   3.227079e+01  -5.674622e+01
   3.622927e+01  -2.783677e+01
  -2.685839e+01   4.460634e+00
  -6.555759e+01   8.261117e+00
  -1.684031e+01  -2.550192e+01
   7.502828e+01  -6.300598e+01
   1.142869e+02  -5.248986e+01
   6.641439e+01   1.481545e+01
  -1.320908e+01   8.094397e+01
  -5.404168e+01   7.883686e+01
  -4.110482e+01   1.074674e+01
  -5.750979e+00  -5.080684e+01
   2.290275e+01  -4.495772e+01
   3.515600e+01   1.159823e+01
   2.706446e+01   5.137506e+01
  -1.022623e+00   3.640637e+01
  -3.187663e+01  -5.489156e+00
  -3.971122e+01  -2.308863e+01
  -1.989734e+01  -3.684438e+00
   3.034833e+00   1.763469e+01
   6.458710e+00   5.326900e+00
  -1.324512e+00  -3.156892e+01
   4.571667e+00  -4.845390e+01
   2.689239e+01  -1.767250e+01
   3.672409e+01   3.560955e+01
   9.026095e+00   5.734369e+01
  -3.942629e+01   2.359609e+01
  -5.866318e+01  -3.275727e+01
  -1.786209e+01  -5.826862e+01
   5.378545e+01  -3.429103e+01
   8.825361e+01   1.140639e+01
   4.847394e+01   4.132993e+01
  -2.719136e+01   4.260175e+01
  -6.226141e+01   2.566362e+01
  -2.655060e+01   6.296309e+00
   2.924810e+01  -2.009369e+00
   3.307122e+01   8.177272e+00
  -2.385361e+01   2.576367e+01
  -7.785054e+01   2.017695e+01
