
 $NMID
 id='ANONYMOUS ', fmtdat='(2E16.6)'
 volume=1.0
 tramp=1.0
 $END
  -2.674187e+03   2.486441e+01
  -1.759768e+03  -1.372728e+03
   3.474774e+01  -1.702707e+03
   1.059669e+03  -9.797180e+02
   7.640732e+02  -9.262948e+01
  -2.811253e+01   2.023378e+02
  -3.463197e+02  -1.003454e+02
  -4.958420e+01  -4.852173e+02
   3.842779e+02  -4.898846e+02
   5.426529e+02  -6.381941e+01
   3.554629e+02   4.331538e+02
  -7.693059e+00   5.428233e+02
  -2.713949e+02   1.501437e+02
  -2.176360e+02  -3.543719e+02
   9.710624e+01  -4.544988e+02
   3.414081e+02  -6.319801e+01
   2.435780e+02   4.019830e+02
  -1.096571e+02   5.011528e+02
  -3.823766e+02   2.097195e+02
  -3.515014e+02  -1.513636e+02
  -9.980420e+01  -2.945416e+02
   1.049009e+02  -2.007906e+02
   7.051473e+01  -5.997573e+01
  -1.356971e+02  -5.923665e+01
  -2.314070e+02  -2.002204e+02
  -1.204415e+01  -2.909933e+02
   3.680417e+02  -1.570156e+02
   5.038074e+02   1.299975e+02
   2.015112e+02   3.013667e+02
  -2.576951e+02   1.910336e+02
  -4.214634e+02  -8.873775e+01
  -1.693470e+02  -2.962652e+02
   2.053143e+02  -2.963301e+02
   3.694940e+02  -1.141921e+02
   2.669557e+02   1.292480e+02
   7.006995e+01   2.617272e+02
  -3.843461e+01   1.583578e+02
   7.543440e+00  -8.187274e+01
   1.366251e+02  -1.547964e+02
   1.847984e+02   9.548416e+01
   4.066064e+01   4.069827e+02
  -1.983666e+02   3.783357e+02
  -2.871824e+02   6.144911e+00
  -1.153306e+02  -2.710101e+02
   1.303805e+02  -1.321287e+02
   1.620713e+02   2.160793e+02
  -8.026304e+01   3.236806e+02
  -3.613297e+02   5.737735e+01
  -3.979571e+02  -2.928760e+02
  -1.286784e+02  -3.999606e+02
   2.417704e+02  -2.230601e+02
   4.211385e+02   4.591487e+01
   2.764521e+02   2.092543e+02
  -4.366175e+01   1.954070e+02
  -2.432093e+02   6.781195e+01
  -1.768949e+02  -3.699658e+01
   4.444701e+00  -2.834059e+01
   5.004686e+01   4.660752e+01
  -8.246362e+01   6.063238e+01
  -1.924317e+02  -3.662264e+01
  -1.034205e+02  -1.615882e+02
   1.226215e+02  -1.981084e+02
   2.701641e+02  -1.052246e+02
   2.052223e+02   7.460610e+01
  -1.579992e+01   2.461395e+02
  -2.256119e+02   2.883153e+02
  -2.882835e+02   1.347472e+02
  -1.918223e+02  -1.252315e+02
  -4.388245e+01  -2.912985e+02
   3.342071e+01  -2.585105e+02
   2.565514e+01  -1.316606e+02
   2.590097e+01  -7.356933e+01
   1.005126e+02  -8.953365e+01
   1.930162e+02  -5.097032e+01
   1.944114e+02   8.854876e+01
   7.844525e+01   2.045279e+02
  -7.265436e+01   1.582055e+02
  -1.541321e+02  -2.752649e+01
  -1.128082e+02  -1.922217e+02
   3.387251e+01  -2.012226e+02
   1.961893e+02  -5.463185e+01
   2.482770e+02   1.347858e+02
   1.362413e+02   2.396888e+02
  -4.344802e+01   2.139005e+02
  -1.365079e+02   1.201573e+02
  -1.167877e+02   5.764931e+01
  -1.132026e+02   5.205210e+01
  -2.164397e+02   3.284541e+01
  -3.248558e+02  -7.095198e+01
  -2.553953e+02  -2.336487e+02
   1.636892e+01  -3.467622e+02
   2.989200e+02  -3.162210e+02
   3.791109e+02  -1.411914e+02
   2.310765e+02   7.800236e+01
   1.886026e+01   2.020011e+02
  -7.632180e+01   1.608347e+02
  -1.475308e+01   2.895442e+01
   9.220007e+01  -3.759782e+01
   1.083581e+02   2.689658e+01
   1.024756e+01   1.163918e+02
  -9.567358e+01   8.846042e+01
  -9.223666e+01  -4.181302e+01
   2.122829e+01  -1.086424e+02
   1.301324e+02  -3.091177e+00
   1.214963e+02   1.862836e+02
  -1.551257e+01   2.711785e+02
  -1.899626e+02   1.644768e+02
  -2.813272e+02  -4.755955e+01
  -2.219592e+02  -2.057399e+02
  -5.121719e+01  -2.170734e+02
   1.009615e+02  -1.129380e+02
   1.215408e+02  -5.911065e+00
   2.938621e+01   1.237532e+01
  -4.197961e+01  -4.711332e+01
   6.218531e-01  -9.107596e+01
   9.841832e+01  -5.515801e+01
   1.185537e+02   2.030266e+01
   2.656564e+01   4.491710e+01
  -6.536354e+01  -8.048187e+00
  -3.188078e+01  -7.292546e+01
   1.164984e+02  -7.023564e+01
   2.385535e+02   1.548028e+01
   2.048529e+02   1.331696e+02
   2.428291e+01   2.083379e+02
  -1.631292e+02   1.875134e+02
  -2.137934e+02   7.862272e+01
  -1.110520e+02  -3.663056e+01
   2.347963e+01  -6.390368e+01
   5.260387e+01   3.147641e+00
  -4.106180e+01   6.501950e+01
  -1.472358e+02   2.793919e+01
  -1.503779e+02  -8.212779e+01
  -4.520031e+01  -1.498229e+02
   7.044082e+01  -1.086318e+02
   1.000472e+02  -1.401282e+01
   3.777906e+01   2.912295e+01
  -3.318449e+01  -1.557372e+01
  -2.254318e+01  -8.609624e+01
   7.578966e+01  -9.401378e+01
   1.671210e+02  -1.108913e+01
   1.451831e+02   1.062487e+02
   9.050883e+00   1.659054e+02
  -1.240189e+02   1.199812e+02
  -1.390461e+02   8.680537e+00
  -4.422839e+01  -7.578423e+01
   4.891825e+01  -7.607050e+01
   5.593621e+01  -1.983178e+01
   1.605643e+00   1.980897e+01
  -2.898889e+01   7.529349e+00
   6.932086e+00  -1.978144e+01
   6.973632e+01  -1.450910e+00
   8.335936e+01   7.220435e+01
   9.387477e+00   1.391794e+02
  -1.125944e+02   1.222556e+02
  -1.894124e+02   8.930991e+00
  -1.531986e+02  -1.255216e+02
  -2.984142e+01  -1.814864e+02
   8.037398e+01  -1.269926e+02
   1.025191e+02  -2.465955e+01
   5.845616e+01   3.516067e+01
   2.673769e+01   2.312015e+01
   4.406922e+01  -1.154904e+01
   6.944157e+01  -5.864220e+00
   4.462691e+01   4.517635e+01
  -3.145195e+01   8.412270e+01
  -9.683793e+01   5.412774e+01
  -8.475019e+01  -3.479120e+01
   1.334419e+01  -1.029400e+02
   1.294853e+02  -7.209201e+01
   1.637027e+02   5.154360e+01
   6.818383e+01   1.690615e+02
  -9.852435e+01   1.764873e+02
  -2.123435e+02   6.527692e+01
  -1.941678e+02  -7.137608e+01
  -7.864246e+01  -1.340819e+02
   3.158161e+01  -1.095152e+02
   7.009428e+01  -6.353361e+01
   5.524355e+01  -5.552179e+01
   4.617330e+01  -7.508221e+01
   7.151487e+01  -6.338488e+01
   1.044884e+02   1.406706e+01
   9.500994e+01   1.216725e+02
   2.169803e+01   1.788304e+02
  -7.913713e+01   1.323512e+02
  -1.349628e+02   9.547704e+00
  -1.006278e+02  -1.004387e+02
  -7.827506e+00  -1.238479e+02
   5.947197e+01  -6.438838e+01
   4.970232e+01   1.083804e+01
  -2.733105e+00   4.231658e+01
  -2.072940e+01   2.855293e+01
   2.198029e+01   9.519522e+00
   6.703796e+01   1.396918e+01
   3.977511e+01   3.169582e+01
  -5.779762e+01   3.187377e+01
  -1.375526e+02  -1.024008e+00
  -1.146819e+02  -4.980564e+01
  -7.277803e-02  -7.747453e+01
   1.062625e+02  -5.858942e+01
   1.153917e+02  -4.784464e+00
   3.531042e+01   3.958842e+01
  -4.747189e+01   3.489561e+01
  -6.205721e+01  -1.406697e+01
  -1.518959e+01  -5.841986e+01
   3.651711e+01  -5.248557e+01
   5.444048e+01  -2.208882e+00
   4.591690e+01   4.004816e+01
   3.823483e+01   3.425446e+01
   4.406686e+01   1.186163e+00
   5.156469e+01   5.938496e-01
   3.542967e+01   5.735957e+01
  -2.083497e+01   1.213960e+02
  -9.900590e+01   1.162910e+02
  -1.430099e+02   2.727926e+01
  -1.040534e+02  -7.472544e+01
  -2.267893e+00  -1.056143e+02
   7.323654e+01  -5.533573e+01
   4.953650e+01   8.242143e+00
  -4.598209e+01   1.664566e+01
  -1.061818e+02  -3.226878e+01
  -5.631012e+01  -8.383369e+01
   6.574741e+01  -8.661382e+01
   1.493246e+02  -3.554137e+01
   1.239051e+02   3.167070e+01
   2.454217e+01   6.718609e+01
  -5.050498e+01   4.863237e+01
  -3.840853e+01  -6.527770e-01
   3.167541e+01  -2.478159e+01
   7.364201e+01   1.484611e+01
   3.244731e+01   9.138018e+01
  -6.160098e+01   1.241876e+02
  -1.243908e+02   5.719260e+01
  -1.009629e+02  -7.123656e+01
  -1.441620e+01  -1.519253e+02
   6.385331e+01  -1.116800e+02
   8.217168e+01   8.380571e+00
   4.416393e+01   9.468197e+01
  -9.668664e+00   8.126188e+01
  -4.060365e+01   1.190197e+01
  -3.613237e+01  -2.521303e+01
  -1.352257e+01  -5.710022e+00
  -4.518849e+00   1.392146e+01
  -2.391341e+01  -1.656839e+01
  -4.617519e+01  -7.080734e+01
  -2.617678e+01  -8.279074e+01
   4.373369e+01  -3.379582e+01
   1.074958e+02   2.851122e+01
   9.753877e+01   5.393879e+01
   1.483985e+01   4.188412e+01
  -6.355586e+01   2.103117e+01
  -6.824835e+01   5.138048e+00
  -1.367556e+01  -9.020000e+00
   2.708158e+01  -1.723019e+01
   1.514275e+01  -1.029528e+01
  -1.182013e+01   3.241915e+00
   2.387780e+00   4.421668e+00
   5.277508e+01  -1.412120e+00
   7.372963e+01   1.628183e+01
   1.775580e+01   6.395736e+01
  -8.388054e+01   9.459437e+01
  -1.481383e+02   5.446951e+01
  -1.214059e+02  -4.483713e+01
  -2.724553e+01  -1.256448e+02
   6.193725e+01  -1.234985e+02
   9.162468e+01  -5.311635e+01
   6.394735e+01   1.428552e+01
   2.129933e+01   2.975110e+01
   1.958761e+00   1.030680e+01
   1.095606e+01   6.521115e+00
   2.439290e+01   3.849438e+01
   1.502843e+01   7.181777e+01
  -2.240404e+01   5.707194e+01
  -6.221366e+01  -1.096864e+01
  -6.443339e+01  -7.946481e+01
  -1.248153e+01  -8.716680e+01
   5.890983e+01  -2.628345e+01
   8.441119e+01   5.007743e+01
   3.295931e+01   8.101386e+01
  -4.982036e+01   5.164022e+01
  -8.222208e+01  -4.820041e+00
  -3.674084e+01  -4.527412e+01
   2.643410e+01  -4.903174e+01
   3.129434e+01  -2.352353e+01
  -2.073502e+01   4.994643e+00
  -5.393060e+01   7.908759e+00
  -1.479916e+01  -2.132233e+01
   6.124325e+01  -5.274170e+01
   9.490725e+01  -4.350209e+01
   5.637599e+01   1.253289e+01
  -9.698026e+00   6.743024e+01
  -4.481185e+01   6.637939e+01
  -3.536455e+01   1.058354e+01
  -6.344588e+00  -4.130016e+01
   1.810344e+01  -3.839376e+01
   2.929369e+01   7.760473e+00
   2.327729e+01   4.215676e+01
  -1.154320e-01   3.138461e+01
  -2.647028e+01  -3.561708e+00
  -3.347061e+01  -1.947897e+01
  -1.651516e+01  -3.531258e+00
   3.241600e+00   1.560620e+01
   5.319524e+00   6.412467e+00
  -3.335432e+00  -2.527104e+01
   5.266080e-01  -4.160490e+01
   2.113535e+01  -1.749160e+01
   3.270496e+01   2.726624e+01
   1.078125e+01   4.715021e+01
  -3.157397e+01   2.089104e+01
  -5.000535e+01  -2.534342e+01
  -1.634138e+01  -4.749941e+01
   4.448085e+01  -2.929922e+01
   7.392347e+01   7.764937e+00
   4.085882e+01   3.351239e+01
  -2.200685e+01   3.639776e+01
  -5.133411e+01   2.312741e+01
  -2.275560e+01   5.858901e+00
   2.257643e+01  -3.021888e+00
   2.670197e+01   4.695153e+00
  -1.805289e+01   2.052011e+01
  -6.180446e+01   1.781237e+01
