
 $NMID
 id='ANONYMOUS ', fmtdat='(2E16.6)'
 volume=1.0
 tramp=1.0
 $END
   1.317311e+03   7.074645e+01
   9.264379e+02   6.010644e+02
   1.593480e+02   8.333487e+02
  -4.104745e+02   6.855704e+02
  -4.715320e+02   3.049821e+02
  -1.893336e+02  -3.986136e+00
   4.943628e+01  -2.986326e+01
   3.575001e+01   1.418099e+02
  -1.335611e+02   2.309319e+02
  -2.465815e+02   8.248971e+01
  -2.030471e+02  -1.672931e+02
  -5.824362e+01  -2.609284e+02
   6.809656e+01  -1.073846e+02
   8.262389e+01   1.313915e+02
  -2.374429e+01   2.146006e+02
  -1.497519e+02   5.732427e+01
  -1.487429e+02  -1.936712e+02
   1.748341e+01  -3.031882e+02
   2.047217e+02  -1.774914e+02
   2.302155e+02   4.685470e+01
   9.031252e+01   1.607606e+02
  -3.271487e+01   1.160666e+02
  -1.598940e+00   5.375710e+01
   1.041894e+02   9.572978e+01
   9.908266e+01   1.806536e+02
  -6.575211e+01   1.604963e+02
  -2.365908e+02   1.194555e+01
  -2.346209e+02  -1.288373e+02
  -5.217583e+01  -1.357859e+02
   1.446358e+02  -2.509643e+01
   1.845209e+02   9.671042e+01
   4.802840e+01   1.521477e+02
  -1.294904e+02   1.265189e+02
  -1.976120e+02   3.813449e+01
  -1.324722e+02  -6.627570e+01
  -3.965153e+01  -1.131480e+02
  -2.279835e+01  -6.509217e+01
  -7.178807e+01   1.317740e+01
  -9.486064e+01   7.422665e+00
  -3.854630e+01  -1.029684e+02
   5.676562e+01  -1.967189e+02
   1.130706e+02  -1.482165e+02
   9.283358e+01   7.070781e+00
   2.009321e+01   9.830647e+01
  -4.237589e+01   2.236915e+01
  -2.965028e+01  -1.232262e+02
   7.317146e+01  -1.496719e+02
   1.915060e+02  -6.931868e-01
   2.044029e+02   1.814803e+02
   6.506751e+01   2.229586e+02
  -1.302087e+02   1.067880e+02
  -2.245268e+02  -3.692111e+01
  -1.537614e+02  -9.602782e+01
   1.666298e-01  -7.642132e+01
   1.040410e+02  -4.282554e+01
   9.922362e+01  -2.396404e+01
   3.489775e+01  -9.626078e+00
   5.111018e-01   1.772700e+00
   3.330973e+01   5.054710e+00
   8.045644e+01   2.044777e+01
   5.348919e+01   6.939066e+01
  -6.438069e+01   1.147852e+02
  -1.727173e+02   7.843396e+01
  -1.473299e+02  -5.423299e+01
   1.359522e+01  -1.829869e+02
   1.708364e+02  -1.869164e+02
   1.933430e+02  -5.807592e+01
   9.798736e+01   9.233574e+01
   8.290161e+00   1.582046e+02
  -4.071600e+00   1.370368e+02
   1.246781e+01   9.779084e+01
  -1.905864e+01   8.173823e+01
  -9.443802e+01   6.320442e+01
  -1.399651e+02   3.121974e+00
  -1.069861e+02  -8.291258e+01
  -2.025374e+01  -1.261642e+02
   5.846783e+01  -7.567511e+01
   8.369546e+01   3.891769e+01
   4.401419e+01   1.245168e+02
  -3.984279e+01   1.097130e+02
  -1.176643e+02   1.018009e+01
  -1.327622e+02  -9.348560e+01
  -7.052198e+01  -1.359716e+02
   1.873809e+01  -1.171548e+02
   6.836839e+01  -7.979977e+01
   7.163528e+01  -5.593496e+01
   8.681753e+01  -4.059794e+01
   1.501112e+02  -6.103156e+00
   2.037433e+02   6.575537e+01
   1.480939e+02   1.571935e+02
  -2.788845e+01   2.137351e+02
  -2.024688e+02   1.825776e+02
  -2.372290e+02   6.749461e+01
  -1.252885e+02  -5.857297e+01
   6.483219e+00  -1.126234e+02
   4.139408e+01  -7.884650e+01
  -1.268849e+01  -1.870535e+01
  -6.183741e+01  -1.092676e+00
  -4.542043e+01  -3.130643e+01
   1.176786e+01  -5.546578e+01
   4.861200e+01  -2.925958e+01
   3.303847e+01   2.722859e+01
  -2.109111e+01   4.668843e+01
  -7.043741e+01  -1.322008e+01
  -6.558546e+01  -1.151227e+02
   1.398260e+01  -1.652706e+02
   1.262483e+02  -1.019515e+02
   1.839895e+02   3.677400e+01
   1.331539e+02   1.426112e+02
   1.447928e+01   1.410645e+02
  -7.173423e+01   6.092059e+01
  -6.719516e+01  -5.491274e+00
  -9.655493e+00  -3.000680e+00
   1.891700e+01   3.843626e+01
  -1.442433e+01   5.342855e+01
  -6.351099e+01   2.018629e+01
  -6.268574e+01  -2.160861e+01
  -5.775684e+00  -2.339899e+01
   4.177321e+01   1.671753e+01
   1.246083e+01   5.354833e+01
  -8.334241e+01   4.128263e+01
  -1.556320e+02  -2.366681e+01
  -1.224093e+02  -9.979971e+01
   1.973595e+00  -1.341177e+02
   1.158745e+02  -1.032019e+02
   1.310187e+02  -3.193993e+01
   5.677611e+01   2.494726e+01
  -1.908566e+01   2.840946e+01
  -2.378168e+01  -8.642689e+00
   3.501054e+01  -3.234978e+01
   8.930474e+01  -3.601127e+00
   8.222457e+01   5.679765e+01
   1.840234e+01   8.790403e+01
  -4.565878e+01   5.745481e+01
  -5.630611e+01   9.826876e-01
  -1.402478e+01  -1.795499e+01
   2.578159e+01   1.885107e+01
   8.498297e+00   6.402150e+01
  -5.910929e+01   5.886418e+01
  -1.097698e+02  -3.699569e+00
  -8.427411e+01  -7.514207e+01
   3.570333e+00  -1.006755e+02
   7.834326e+01  -6.580951e+01
   7.976402e+01  -2.241769e+00
   2.114248e+01   4.169462e+01
  -3.131081e+01   3.980466e+01
  -3.077431e+01   8.189773e+00
   5.774162e+00  -1.229247e+01
   2.402308e+01  -6.585341e-01
  -4.320038e+00   1.834721e+01
  -4.979550e+01   2.794037e+00
  -5.622371e+01  -5.097364e+01
  -4.897277e-01  -9.385522e+01
   8.025126e+01  -7.380789e+01
   1.209949e+02   5.864514e+00
   8.863173e+01   8.671362e+01
   1.095320e+01   1.112637e+02
  -5.163156e+01   7.285662e+01
  -6.218486e+01   1.335455e+01
  -3.625924e+01  -1.957654e+01
  -1.771108e+01  -1.270906e+01
  -2.867486e+01   6.725282e+00
  -4.646302e+01   1.933990e+00
  -3.187537e+01  -3.212485e+01
   2.112995e+01  -5.827979e+01
   6.938475e+01  -3.585881e+01
   5.992814e+01   2.728386e+01
  -1.263939e+01   7.124687e+01
  -9.134000e+01   4.311465e+01
  -1.044782e+02  -4.270253e+01
  -3.196320e+01  -1.126789e+02
   7.420546e+01  -1.052529e+02
   1.354764e+02  -2.870993e+01
   1.143599e+02   5.272355e+01
   4.070134e+01   8.366558e+01
  -2.384642e+01   6.399147e+01
  -4.361811e+01   3.580425e+01
  -3.271864e+01   3.293953e+01
  -2.807006e+01   4.670711e+01
  -4.587584e+01   3.945183e+01
  -6.616422e+01  -1.052316e+01
  -5.634089e+01  -7.892966e+01
  -6.964014e+00  -1.124098e+02
   5.427819e+01  -7.827345e+01
   8.289410e+01   1.633403e+00
   5.625967e+01   6.801898e+01
  -2.593799e+00   7.656823e+01
  -4.225267e+01   3.437916e+01
  -3.187996e+01  -1.356436e+01
   5.932428e+00  -3.041326e+01
   1.956074e+01  -1.797491e+01
  -1.029297e+01  -4.515620e+00
  -4.339257e+01  -8.939724e+00
  -2.590978e+01  -2.167610e+01
   4.050109e+01  -1.946531e+01
   9.187107e+01   6.336351e+00
   7.094374e+01   3.902974e+01
  -7.826157e+00   5.209179e+01
  -7.331860e+01   3.344745e+01
  -7.267633e+01  -3.388050e+00
  -1.955035e+01  -2.924488e+01
   3.065850e+01  -2.269565e+01
   3.926585e+01   1.031653e+01
   1.184248e+01   3.883035e+01
  -2.095250e+01   3.456560e+01
  -3.603753e+01   1.470795e+00
  -3.246475e+01  -2.651742e+01
  -2.461020e+01  -2.309195e+01
  -2.549523e+01  -1.932050e+00
  -3.189806e+01  -2.064684e+00
  -2.386127e+01  -3.864368e+01
   1.447304e+01  -7.805330e+01
   6.878935e+01  -7.187708e+01
   9.636585e+01  -1.320631e+01
   6.579527e+01   5.121547e+01
  -3.195389e+00   6.890054e+01
  -4.987725e+01   3.542757e+01
  -3.164892e+01  -5.067562e+00
   2.895016e+01  -9.284546e+00
   6.421698e+01   2.269749e+01
   3.082024e+01   5.386471e+01
  -4.487132e+01   5.108703e+01
  -9.390795e+01   1.486511e+01
  -7.442717e+01  -2.614940e+01
  -1.089436e+01  -4.228753e+01
   3.434758e+01  -2.568535e+01
   2.394336e+01   4.604583e+00
  -2.104346e+01   1.610057e+01
  -4.649016e+01  -1.029944e+01
  -2.021220e+01  -5.702484e+01
   3.769994e+01  -7.656664e+01
   7.594348e+01  -3.522951e+01
   6.110536e+01   4.409077e+01
   6.887378e+00   9.350654e+01
  -4.189182e+01   6.671226e+01
  -5.095469e+01  -9.313322e+00
  -2.286723e+01  -6.139058e+01
   1.249303e+01  -4.932466e+01
   2.784512e+01  -4.348605e+00
   1.952001e+01   1.727075e+01
   5.066716e+00   3.621186e+00
   3.955861e+00  -7.513818e+00
   1.799638e+01   1.314011e+01
   2.761349e+01   4.613419e+01
   1.042836e+01   5.106588e+01
  -3.154357e+01   1.896118e+01
  -6.547524e+01  -2.007455e+01
  -5.689973e+01  -3.595203e+01
  -8.422888e+00  -2.785134e+01
   3.765456e+01  -1.263669e+01
   4.214789e+01  -5.891154e-01
   1.065768e+01   7.464181e+00
  -1.594363e+01   9.667159e+00
  -1.168668e+01   4.154656e+00
   5.142392e+00  -2.512264e+00
  -3.325707e-01  -1.612011e+00
  -3.029008e+01   1.191485e+00
  -4.624387e+01  -1.130764e+01
  -1.419067e+01  -4.066358e+01
   5.092680e+01  -5.843310e+01
   9.501736e+01  -3.328917e+01
   7.881864e+01   2.786705e+01
   1.624950e+01   7.833539e+01
  -4.234291e+01   7.771548e+01
  -5.956647e+01   3.357201e+01
  -3.966795e+01  -9.684363e+00
  -1.318283e+01  -2.008688e+01
  -2.937311e+00  -8.016471e+00
  -8.036148e+00  -5.900973e+00
  -1.330262e+01  -2.600075e+01
  -5.832867e+00  -4.581859e+01
   1.550062e+01  -3.525197e+01
   3.769705e+01   7.160560e+00
   3.940411e+01   4.891866e+01
   9.243811e+00   5.415764e+01
  -3.477615e+01   1.795556e+01
  -5.254266e+01  -2.958159e+01
  -2.161307e+01  -5.129813e+01
   3.145399e+01  -3.428272e+01
   5.353246e+01   3.400817e+00
   2.435704e+01   3.183227e+01
  -1.819978e+01   3.363227e+01
  -2.332448e+01   1.445397e+01
   1.025133e+01  -4.500566e+00
   3.361098e+01  -4.463436e+00
   1.001688e+01   1.445594e+01
  -3.939050e+01   3.139716e+01
  -6.251826e+01   2.308444e+01
  -3.771790e+01  -1.092307e+01
   6.866398e+00  -4.275021e+01
   3.142576e+01  -4.193238e+01
   2.519216e+01  -8.439551e+00
   5.017232e+00   2.468949e+01
  -1.143557e+01   2.553860e+01
  -1.825190e+01  -2.695313e+00
  -1.433248e+01  -2.687107e+01
  -1.387909e-02  -2.211979e+01
   1.656786e+01   1.588863e+00
   2.139852e+01   1.451024e+01
   1.039915e+01   3.937665e+00
  -2.846254e+00  -1.186066e+01
  -3.254177e+00  -8.181363e+00
   5.134368e+00   1.414898e+01
   4.196057e+00   2.870709e+01
  -1.161932e+01   1.543593e+01
  -2.352607e+01  -1.417734e+01
  -1.093748e+01  -2.922192e+01
   1.867962e+01  -1.418012e+01
   3.292074e+01   1.474267e+01
   1.097772e+01   2.912176e+01
  -2.925475e+01   1.814050e+01
  -4.773955e+01  -5.044479e+00
  -2.551970e+01  -2.163116e+01
   1.449395e+01  -2.405045e+01
   3.284696e+01  -1.577991e+01
   1.605814e+01  -3.969398e+00
  -1.104747e+01   3.260491e+00
  -1.505489e+01  -2.961058e-01
   9.185508e+00  -1.031265e+01
   3.458344e+01  -1.012332e+01
