
 $NMID
 id='ANONYMOUS ', fmtdat='(2E16.6)'
 volume=1.0
 tramp=1.0
 $END
  -1.977748e+03  -4.201765e+01
  -1.409329e+03  -8.707299e+02
  -2.559440e+02  -1.245390e+03
   6.002337e+02  -1.025631e+03
   6.870799e+02  -4.495496e+02
   2.641038e+02   9.898252e+00
  -8.617470e+01   3.989638e+01
  -5.939244e+01  -2.213115e+02
   1.962186e+02  -3.535891e+02
   3.689743e+02  -1.290424e+02
   3.091398e+02   2.473684e+02
   9.200945e+01   3.901502e+02
  -1.047014e+02   1.611219e+02
  -1.324173e+02  -1.977775e+02
   2.895852e+01  -3.240394e+02
   2.243321e+02  -8.976258e+01
   2.283108e+02   2.849186e+02
  -1.777369e+01   4.499865e+02
  -2.985958e+02   2.669972e+02
  -3.416210e+02  -6.399444e+01
  -1.378163e+02  -2.360828e+02
   4.629886e+01  -1.738646e+02
   3.793046e+00  -7.851991e+01
  -1.557721e+02  -1.326821e+02
  -1.569300e+02  -2.581411e+02
   8.461969e+01  -2.409854e+02
   3.479583e+02  -3.408304e+01
   3.580474e+02   1.765098e+02
   8.895694e+01   2.022791e+02
  -2.133411e+02   5.067728e+01
  -2.826594e+02  -1.315627e+02
  -8.203137e+01  -2.251609e+02
   1.857473e+02  -1.969246e+02
   2.929648e+02  -6.723317e+01
   2.013381e+02   9.355234e+01
   6.386225e+01   1.696983e+02
   3.275717e+01   9.840786e+01
   9.981165e+01  -2.491083e+01
   1.384212e+02  -2.195723e+01
   6.700610e+01   1.465042e+02
  -6.888003e+01   2.970375e+02
  -1.613624e+02   2.308319e+02
  -1.444396e+02  -5.164737e+00
  -3.841710e+01  -1.498504e+02
   6.443766e+01  -3.995908e+01
   5.467150e+01   1.813223e+02
  -9.986060e+01   2.282224e+02
  -2.855062e+02   1.182077e+01
  -3.129606e+02  -2.597987e+02
  -1.065475e+02  -3.289731e+02
   1.895982e+02  -1.658477e+02
   3.363785e+02   4.460291e+01
   2.329020e+02   1.384372e+02
   9.666245e-01   1.168771e+02
  -1.559478e+02   6.779612e+01
  -1.469712e+02   3.564734e+01
  -4.833946e+01   1.310351e+01
   2.002003e+00  -3.360360e-01
  -5.057443e+01  -2.500413e+00
  -1.229789e+02  -2.688366e+01
  -8.298244e+01  -1.028908e+02
   9.147634e+01  -1.730446e+02
   2.518972e+02  -1.217680e+02
   2.182935e+02   7.378218e+01
  -1.269296e+01   2.685732e+02
  -2.426164e+02   2.822941e+02
  -2.821326e+02   9.559052e+01
  -1.501786e+02  -1.312204e+02
  -2.032884e+01  -2.352620e+02
   1.706110e+00  -2.048113e+02
  -1.990063e+01  -1.429852e+02
   2.494141e+01  -1.186300e+02
   1.345215e+02  -9.635001e+01
   2.049259e+02  -1.240193e+01
   1.623939e+02   1.158939e+02
   3.733608e+01   1.855514e+02
  -8.213334e+01   1.159622e+02
  -1.261051e+02  -5.229910e+01
  -7.215150e+01  -1.816920e+02
   5.284521e+01  -1.648940e+02
   1.736982e+02  -2.174305e+01
   2.016962e+02   1.319158e+02
   1.109633e+02   1.991338e+02
  -2.355682e+01   1.752991e+02
  -9.925963e+01   1.204206e+02
  -1.038945e+02   8.392366e+01
  -1.254357e+02   6.269135e+01
  -2.202790e+02   1.608547e+01
  -3.035103e+02  -8.728516e+01
  -2.260046e+02  -2.253828e+02
   3.119929e+01  -3.170913e+02
   2.905206e+02  -2.790311e+02
   3.477028e+02  -1.109297e+02
   1.889825e+02   8.059783e+01
  -3.479664e+00   1.676657e+02
  -5.836075e+01   1.199935e+02
   1.771404e+01   2.725862e+01
   9.089485e+01  -2.827501e+00
   7.007819e+01   4.309397e+01
  -1.355708e+01   8.370412e+01
  -7.137533e+01   4.739228e+01
  -5.190903e+01  -3.863489e+01
   2.849765e+01  -7.150694e+01
   1.053928e+02   1.539973e+01
   1.023867e+02   1.675343e+02
  -1.366632e+01   2.451156e+02
  -1.818775e+02   1.557338e+02
  -2.726636e+02  -4.647208e+01
  -2.028346e+02  -2.042445e+02
  -2.842887e+01  -2.073173e+02
   1.027962e+02  -9.362196e+01
   1.001657e+02   4.609381e+00
   1.513522e+01   4.364570e+00
  -3.002002e+01  -5.525738e+01
   1.800931e+01  -7.971113e+01
   9.277728e+01  -3.352124e+01
   9.436360e+01   2.860994e+01
   1.038970e+01   3.464422e+01
  -6.223740e+01  -2.209061e+01
  -2.110345e+01  -7.793121e+01
   1.206387e+02  -6.447618e+01
   2.303080e+02   2.765936e+01
   1.852260e+02   1.411979e+02
   3.816451e+00   1.978336e+02
  -1.658728e+02   1.581853e+02
  -1.924250e+02   5.386694e+01
  -8.591693e+01  -3.432938e+01
   2.661926e+01  -4.365228e+01
   3.617922e+01   1.120625e+01
  -4.962032e+01   4.981049e+01
  -1.319477e+02   1.004567e+01
  -1.247036e+02  -8.011015e+01
  -3.156106e+01  -1.295621e+02
   6.496230e+01  -8.757416e+01
   8.361817e+01  -4.387606e+00
   2.222707e+01   2.591821e+01
  -3.837456e+01  -2.612525e+01
  -1.549667e+01  -9.340014e+01
   8.404472e+01  -8.925838e+01
   1.618562e+02   2.503696e-01
   1.280105e+02   1.069143e+02
  -4.720428e-01   1.490999e+02
  -1.130060e+02   1.011334e+02
  -1.183459e+02   6.821202e+00
  -3.348796e+01  -6.118246e+01
   4.455873e+01  -6.070275e+01
   4.545960e+01  -1.371019e+01
  -7.489401e+00   1.835159e+01
  -3.496432e+01   2.217663e+00
   5.697975e+00  -2.680099e+01
   7.298865e+01  -5.920336e+00
   8.474998e+01   7.263807e+01
   4.864352e+00   1.380844e+02
  -1.148214e+02   1.124243e+02
  -1.787457e+02  -2.912836e+00
  -1.349705e+02  -1.238745e+02
  -2.128449e+01  -1.641091e+02
   7.322267e+01  -1.102575e+02
   9.150335e+01  -2.240776e+01
   5.441104e+01   2.767275e+01
   2.661561e+01   1.822263e+01
   4.201228e+01  -1.111813e+01
   6.832574e+01  -4.834916e+00
   4.803880e+01   4.591494e+01
  -2.881908e+01   8.649982e+01
  -1.004007e+02   5.553725e+01
  -8.904808e+01  -3.752684e+01
   1.553171e+01  -1.052031e+02
   1.323996e+02  -6.745011e+01
   1.558551e+02   5.808987e+01
   5.255904e+01   1.645897e+02
  -1.043850e+02   1.588312e+02
  -1.987461e+02   4.881407e+01
  -1.716236e+02  -7.262504e+01
  -6.418848e+01  -1.219612e+02
   3.231081e+01  -9.585507e+01
   6.301291e+01  -5.497880e+01
   4.716813e+01  -5.014728e+01
   3.967618e+01  -7.017428e+01
   6.612150e+01  -6.014482e+01
   9.811919e+01   1.276899e+01
   8.664823e+01   1.141330e+02
   1.532337e+01   1.657432e+02
  -7.665530e+01   1.181737e+02
  -1.226300e+02   1.534116e+00
  -8.636503e+01  -9.779158e+01
   1.526651e-01  -1.132701e+02
   6.060777e+01  -5.293595e+01
   4.753736e+01   1.822414e+01
  -7.237401e+00   4.482830e+01
  -2.765231e+01   2.728502e+01
   1.568374e+01   6.350950e+00
   6.436286e+01   1.146929e+01
   3.905867e+01   3.085347e+01
  -5.871607e+01   3.039100e+01
  -1.355015e+02  -5.269523e+00
  -1.064048e+02  -5.419206e+01
   8.869268e+00  -7.693727e+01
   1.064291e+02  -5.256936e+01
   1.074456e+02   1.583292e+00
   3.023286e+01   4.205123e+01
  -4.432695e+01   3.468850e+01
  -5.839137e+01  -1.355424e+01
  -1.884674e+01  -5.674166e+01
   2.974708e+01  -5.179327e+01
   5.303657e+01  -3.593145e+00
   4.872186e+01   3.779802e+01
   3.722359e+01   3.301018e+01
   3.791279e+01   1.721738e+00
   4.723701e+01   1.634031e+00
   3.664895e+01   5.594096e+01
  -1.816357e+01   1.157424e+02
  -9.821520e+01   1.089891e+02
  -1.412882e+02   2.363249e+01
  -9.918900e+01  -7.269433e+01
   1.611658e+00  -1.016818e+02
   7.196613e+01  -5.425286e+01
   4.692017e+01   6.234383e+00
  -4.238660e+01   1.496954e+01
  -9.596699e+01  -3.075033e+01
  -4.804845e+01  -7.821682e+01
   6.393705e+01  -7.751382e+01
   1.380827e+02  -2.632096e+01
   1.112348e+02   3.512508e+01
   1.815233e+01   6.199986e+01
  -4.946936e+01   3.969553e+01
  -3.554130e+01  -5.504631e+00
   3.035818e+01  -2.457722e+01
   6.907248e+01   1.328064e+01
   3.215980e+01   8.347214e+01
  -5.270691e+01   1.147557e+02
  -1.109658e+02   5.516057e+01
  -9.223594e+01  -6.273319e+01
  -1.410588e+01  -1.380148e+02
   5.905397e+01  -1.005039e+02
   7.567740e+01   1.138933e+01
   3.661986e+01   8.959389e+01
  -1.595228e+01   7.346339e+01
  -4.075208e+01   7.773247e+00
  -2.977641e+01  -2.459521e+01
  -7.907727e+00  -5.117900e+00
  -5.444049e+00   1.135038e+01
  -2.685217e+01  -1.849628e+01
  -4.274227e+01  -6.691175e+01
  -1.794371e+01  -7.505925e+01
   4.549852e+01  -2.942739e+01
   9.768813e+01   2.684939e+01
   8.584177e+01   5.064008e+01
   1.361894e+01   4.068034e+01
  -5.530644e+01   2.024021e+01
  -6.228570e+01   2.775154e+00
  -1.586337e+01  -1.047239e+01
   2.324666e+01  -1.502228e+01
   1.690628e+01  -6.775791e+00
  -7.685573e+00   3.896753e+00
   6.593987e-01   2.453545e+00
   4.493833e+01  -2.969491e+00
   6.877246e+01   1.476910e+01
   2.234268e+01   5.949514e+01
  -7.303988e+01   8.846238e+01
  -1.388860e+02   5.304273e+01
  -1.173606e+02  -3.806407e+01
  -2.721530e+01  -1.151277e+02
   5.917448e+01  -1.164761e+02
   8.650269e+01  -5.195077e+01
   5.902971e+01   1.266029e+01
   2.028527e+01   2.903545e+01
   4.510154e+00   1.161503e+01
   1.200151e+01   8.259999e+00
   2.084303e+01   3.771972e+01
   1.073657e+01   6.737609e+01
  -2.137139e+01   5.274020e+01
  -5.609168e+01  -9.039048e+00
  -6.026843e+01  -7.077136e+01
  -1.571430e+01  -7.970481e+01
   5.085357e+01  -2.781972e+01
   7.886580e+01   4.175195e+01
   3.390702e+01   7.490011e+01
  -4.510221e+01   5.175846e+01
  -7.907218e+01  -2.868162e+00
  -3.712944e+01  -4.579193e+01
   2.543731e+01  -5.017619e+01
   3.358347e+01  -2.228526e+01
  -1.520093e+01   6.970732e+00
  -4.949762e+01   7.981612e+00
  -1.531096e+01  -2.087702e+01
   5.685384e+01  -4.809611e+01
   9.117645e+01  -3.692695e+01
   5.595281e+01   1.440103e+01
  -8.375459e+00   6.339804e+01
  -4.448969e+01   6.316512e+01
  -3.665571e+01   1.330828e+01
  -8.326427e+00  -3.638634e+01
   1.588008e+01  -3.807385e+01
   2.710318e+01   3.427435e+00
   2.227054e+01   3.909366e+01
   8.793403e-01   3.248637e+01
  -2.455163e+01  -1.736873e+00
  -3.214753e+01  -2.040125e+01
  -1.550624e+01  -5.262871e+00
   4.597906e+00   1.724955e+01
   5.109666e+00   1.162065e+01
  -7.919202e+00  -2.086245e+01
  -6.961125e+00  -4.207271e+01
   1.671852e+01  -2.292351e+01
   3.510736e+01   2.026748e+01
   1.699432e+01   4.280111e+01
  -2.713274e+01   2.162094e+01
  -4.911542e+01  -2.057201e+01
  -1.733162e+01  -4.265038e+01
   4.238858e+01  -2.798276e+01
   7.062773e+01   5.540415e+00
   3.857646e+01   3.089027e+01
  -2.040729e+01   3.601172e+01
  -4.785982e+01   2.452165e+01
  -2.342587e+01   6.469614e+00
   1.645595e+01  -5.173313e+00
   2.241448e+01   3.664428e-02
  -1.331288e+01   1.582918e+01
  -5.102516e+01   1.645918e+01
