
 $NMID
 id='ANONYMOUS ', fmtdat='(2E16.6)'
 volume=1.0
 tramp=1.0
 $END
   1.574783e+03   5.241685e+01
   1.114742e+03   7.155720e+02
   1.832636e+02   1.002567e+03
  -5.016244e+02   8.070545e+02
  -5.579563e+02   3.373596e+02
  -2.055620e+02  -2.141736e+01
   7.670399e+01  -3.165277e+01
   4.764220e+01   1.815409e+02
  -1.624403e+02   2.821660e+02
  -2.983623e+02   9.743263e+01
  -2.442615e+02  -2.036237e+02
  -6.673434e+01  -3.146275e+02
   8.909700e+01  -1.281880e+02
   1.058411e+02   1.602226e+02
  -2.741539e+01   2.593839e+02
  -1.816034e+02   6.864610e+01
  -1.779414e+02  -2.310179e+02
   2.256963e+01  -3.577619e+02
   2.430256e+02  -2.061398e+02
   2.704597e+02   5.789764e+01
   1.051288e+02   1.906360e+02
  -4.022552e+01   1.381329e+02
  -6.043470e+00   6.272015e+01
   1.190963e+02   1.061593e+02
   1.202081e+02   2.039278e+02
  -6.789804e+01   1.882717e+02
  -2.736252e+02   2.409926e+01
  -2.821043e+02  -1.417977e+02
  -7.101841e+01  -1.613539e+02
   1.678028e+02  -4.023649e+01
   2.232333e+02   1.052502e+02
   6.414205e+01   1.791563e+02
  -1.486326e+02   1.548832e+02
  -2.332785e+02   5.056630e+01
  -1.594648e+02  -7.683356e+01
  -4.935783e+01  -1.369212e+02
  -2.377083e+01  -8.078016e+01
  -7.627653e+01   1.760765e+01
  -1.073113e+02   1.783222e+01
  -5.209093e+01  -1.136603e+02
   5.507544e+01  -2.338466e+02
   1.294667e+02  -1.833933e+02
   1.168159e+02   3.736559e+00
   3.160691e+01   1.202044e+02
  -5.133752e+01   3.360044e+01
  -4.305402e+01  -1.429572e+02
   8.056358e+01  -1.802562e+02
   2.264772e+02  -6.888280e+00
   2.452180e+02   2.095795e+02
   8.038999e+01   2.626852e+02
  -1.525899e+02   1.299519e+02
  -2.667254e+02  -3.935511e+01
  -1.837918e+02  -1.139375e+02
   7.510835e-01  -9.476667e+01
   1.261349e+02  -5.247775e+01
   1.185663e+02  -2.468918e+01
   3.799620e+01  -7.738661e+00
  -3.430646e+00   7.622224e-02
   3.946906e+01   9.140038e-01
   9.831819e+01   2.226356e+01
   6.528568e+01   8.352238e+01
  -7.533800e+01   1.362139e+02
  -2.016275e+02   9.194440e+01
  -1.708994e+02  -6.214038e+01
   1.494565e+01  -2.114618e+02
   1.958204e+02  -2.187294e+02
   2.238360e+02  -7.174108e+01
   1.171975e+02   1.052644e+02
   1.362754e+01   1.869052e+02
  -4.483567e+00   1.634107e+02
   1.217299e+01   1.138053e+02
  -2.247780e+01   9.232787e+01
  -1.072305e+02   7.311248e+01
  -1.611091e+02   7.000003e+00
  -1.265198e+02  -9.307860e+01
  -2.760802e+01  -1.468353e+02
   6.584657e+01  -9.094370e+01
   9.887920e+01   4.237874e+01
   5.500861e+01   1.441943e+02
  -4.343233e+01   1.297802e+02
  -1.374344e+02   1.537785e+01
  -1.581303e+02  -1.067714e+02
  -8.556819e+01  -1.595210e+02
   2.126219e+01  -1.392134e+02
   8.118376e+01  -9.409538e+01
   8.417563e+01  -6.421652e+01
   1.000260e+02  -4.698321e+01
   1.738486e+02  -9.331667e+00
   2.384025e+02   7.325190e+01
   1.755029e+02   1.814032e+02
  -2.907198e+01   2.502628e+02
  -2.335905e+02   2.164643e+02
  -2.765652e+02   8.301864e+01
  -1.487516e+02  -6.599623e+01
   4.457232e+00  -1.326880e+02
   4.774797e+01  -9.497339e+01
  -1.287558e+01  -2.242583e+01
  -7.124599e+01   1.484599e+00
  -5.515532e+01  -3.418099e+01
   1.101809e+01  -6.615444e+01
   5.695011e+01  -3.753908e+01
   4.126413e+01   3.073369e+01
  -2.288770e+01   5.665829e+01
  -8.317578e+01  -1.308589e+01
  -7.880692e+01  -1.340685e+02
   1.444779e+01  -1.939298e+02
   1.462370e+02  -1.202901e+02
   2.147564e+02   4.110140e+01
   1.572196e+02   1.643610e+02
   1.966118e+01   1.640011e+02
  -8.235736e+01   7.260466e+01
  -7.929532e+01  -4.706187e+00
  -1.232326e+01  -3.618766e+00
   2.290047e+01   4.375344e+01
  -1.497784e+01   6.258635e+01
  -7.356492e+01   2.548929e+01
  -7.441320e+01  -2.356099e+01
  -8.153110e+00  -2.746643e+01
   4.860283e+01   1.812604e+01
   1.551208e+01   6.159848e+01
  -9.615208e+01   4.896286e+01
  -1.813790e+02  -2.526633e+01
  -1.442053e+02  -1.140686e+02
  -3.458239e-01  -1.561594e+02
   1.330477e+02  -1.227398e+02
   1.528755e+02  -4.024269e+01
   6.785375e+01   2.814629e+01
  -2.132519e+01   3.440584e+01
  -2.859283e+01  -8.991692e+00
   3.956487e+01  -3.868469e+01
   1.043789e+02  -6.389022e+00
   9.772982e+01   6.492887e+01
   2.341631e+01   1.030327e+02
  -5.250398e+01   6.862249e+01
  -6.628763e+01   2.568071e+00
  -1.750906e+01  -2.063278e+01
   2.957544e+01   2.113569e+01
   1.070772e+01   7.373783e+01
  -6.759533e+01   6.904822e+01
  -1.277286e+02  -2.553828e+00
  -9.966816e+01  -8.624334e+01
   2.353276e+00  -1.179283e+02
   9.082630e+01  -7.858208e+01
   9.397980e+01  -3.822638e+00
   2.591341e+01   4.899505e+01
  -3.602049e+01   4.760031e+01
  -3.624317e+01   1.038546e+01
   6.000511e+00  -1.423958e+01
   2.742843e+01  -1.178529e+00
  -5.094341e+00   2.094276e+01
  -5.774749e+01   3.310551e+00
  -6.568384e+01  -5.878644e+01
  -1.662342e+00  -1.090715e+02
   9.232411e+01  -8.704472e+01
   1.411282e+02   4.831651e+00
   1.049457e+02   9.978324e+01
   1.456818e+01   1.301719e+02
  -5.951551e+01   8.633596e+01
  -7.282822e+01   1.641614e+01
  -4.272639e+01  -2.284585e+01
  -2.080428e+01  -1.493483e+01
  -3.339846e+01   8.127238e+00
  -5.404360e+01   2.724310e+00
  -3.708835e+01  -3.710184e+01
   2.429367e+01  -6.782659e+01
   8.015928e+01  -4.209769e+01
   6.955937e+01   3.113216e+01
  -1.400679e+01   8.273551e+01
  -1.055349e+02   5.111371e+01
  -1.221673e+02  -4.818722e+01
  -3.918211e+01  -1.306728e+02
   8.463910e+01  -1.239688e+02
   1.577635e+02  -3.583487e+01
   1.347836e+02   5.978284e+01
   4.918350e+01   9.738496e+01
  -2.685403e+01   7.543850e+01
  -5.067612e+01   4.267628e+01
  -3.815991e+01   3.907387e+01
  -3.255083e+01   5.497632e+01
  -5.327411e+01   4.656173e+01
  -7.743176e+01  -1.163014e+01
  -6.684048e+01  -9.158553e+01
  -9.711896e+00  -1.313103e+02
   6.230340e+01  -9.239424e+01
   9.698945e+01   4.396371e-01
   6.692806e+01   7.846842e+01
  -1.647650e+00   8.953308e+01
  -4.851734e+01   4.102057e+01
  -3.715453e+01  -1.498674e+01
   6.408598e+00  -3.514880e+01
   2.212131e+01  -2.099342e+01
  -1.246948e+01  -5.233021e+00
  -5.073815e+01  -1.013314e+01
  -3.036238e+01  -2.501967e+01
   4.682818e+01  -2.303989e+01
   1.068886e+02   6.286717e+00
   8.322761e+01   4.432579e+01
  -8.083055e+00   6.046552e+01
  -8.481268e+01   3.987120e+01
  -8.488196e+01  -2.761050e+00
  -2.324126e+01  -3.356932e+01
   3.564508e+01  -2.671686e+01
   4.597399e+01   1.162082e+01
   1.389232e+01   4.522243e+01
  -2.448398e+01   4.054079e+01
  -4.199736e+01   1.951459e+00
  -3.782793e+01  -3.075607e+01
  -2.889067e+01  -2.669573e+01
  -3.003296e+01  -1.870399e+00
  -3.735020e+01  -1.977351e+00
  -2.801149e+01  -4.483767e+01
   1.622486e+01  -9.126823e+01
   7.926142e+01  -8.460702e+01
   1.119422e+02  -1.642286e+01
   7.726173e+01   5.901356e+01
  -2.810914e+00   8.028803e+01
  -5.774193e+01   4.169356e+01
  -3.704058e+01  -5.699820e+00
   3.376895e+01  -1.121595e+01
   7.551897e+01   2.573173e+01
   3.691878e+01   6.254165e+01
  -5.165876e+01   6.037628e+01
  -1.095601e+02   1.888457e+01
  -8.746850e+01  -2.929146e+01
  -1.353162e+01  -4.926184e+01
   3.959147e+01  -3.073412e+01
   2.795180e+01   4.784236e+00
  -2.440698e+01   1.893189e+01
  -5.445118e+01  -1.158878e+01
  -2.415466e+01  -6.661629e+01
   4.355378e+01  -9.010438e+01
   8.879725e+01  -4.199555e+01
   7.213188e+01   5.110150e+01
   9.096684e+00   1.095164e+02
  -4.821170e+01   7.870944e+01
  -5.965933e+01  -1.007396e+01
  -2.767994e+01  -7.133769e+01
   1.354812e+01  -5.780542e+01
   3.223601e+01  -5.546639e+00
   2.325202e+01   1.981962e+01
   6.289514e+00   4.087239e+00
   4.423096e+00  -8.911495e+00
   2.080185e+01   1.506342e+01
   3.278346e+01   5.357379e+01
   1.323366e+01   5.959331e+01
  -3.630557e+01   2.254505e+01
  -7.693685e+01  -2.268989e+01
  -6.725519e+01  -4.128250e+01
  -1.012612e+01  -3.235619e+01
   4.417391e+01  -1.522632e+01
   4.931914e+01  -1.311351e+00
   1.228150e+01   8.541214e+00
  -1.865058e+01   1.159113e+01
  -1.336449e+01   5.113906e+00
   6.233497e+00  -3.008145e+00
  -5.512006e-01  -1.960094e+00
  -3.573151e+01   1.702577e+00
  -5.419684e+01  -1.275133e+01
  -1.663637e+01  -4.753045e+01
   5.927326e+01  -6.896640e+01
   1.107328e+02  -3.977315e+01
   9.225313e+01   3.208277e+01
   1.976420e+01   9.159285e+01
  -4.860177e+01   9.119685e+01
  -6.926378e+01   3.970328e+01
  -4.653906e+01  -1.092718e+01
  -1.557114e+01  -2.326411e+01
  -3.291555e+00  -9.264359e+00
  -9.287775e+00  -6.703787e+00
  -1.592225e+01  -3.008825e+01
  -7.528335e+00  -5.340523e+01
   1.769959e+01  -4.140457e+01
   4.430997e+01   8.003988e+00
   4.665958e+01   5.700215e+01
   1.114742e+01   6.342014e+01
  -4.082005e+01   2.123308e+01
  -6.185121e+01  -3.436220e+01
  -2.561919e+01  -5.985940e+01
   3.658010e+01  -4.020497e+01
   6.249767e+01   3.565183e+00
   2.854330e+01   3.677513e+01
  -2.096310e+01   3.919515e+01
  -2.682116e+01   1.702708e+01
   1.227244e+01  -5.307264e+00
   3.931694e+01  -5.556848e+00
   1.174126e+01   1.675965e+01
  -4.570915e+01   3.721301e+01
  -7.258068e+01   2.785177e+01
  -4.392350e+01  -1.225524e+01
   7.625069e+00  -5.003584e+01
   3.613407e+01  -4.921690e+01
   2.918885e+01  -9.820066e+00
   6.014858e+00   2.901223e+01
  -1.321497e+01   2.984923e+01
  -2.146923e+01  -3.210754e+00
  -1.701279e+01  -3.129020e+01
  -1.141693e-01  -2.566346e+01
   1.943259e+01   1.784747e+00
   2.506023e+01   1.660247e+01
   1.214910e+01   4.359308e+00
  -3.286761e+00  -1.368739e+01
  -3.755250e+00  -9.147466e+00
   5.887049e+00   1.678094e+01
   4.630817e+00   3.346223e+01
  -1.377279e+01   1.778708e+01
  -2.745948e+01  -1.677968e+01
  -1.265355e+01  -3.428422e+01
   2.189347e+01  -1.668577e+01
   3.854769e+01   1.714788e+01
   1.304221e+01   3.408988e+01
  -3.396109e+01   2.145860e+01
  -5.579247e+01  -5.538415e+00
  -3.004544e+01  -2.505111e+01
   1.674147e+01  -2.813600e+01
   3.830116e+01  -1.860101e+01
   1.860362e+01  -4.695146e+00
  -1.324921e+01   3.873520e+00
  -1.787313e+01  -4.252683e-01
   1.079490e+01  -1.246205e+01
   4.077404e+01  -1.236783e+01
