
 $NMID
 id='ANONYMOUS ', fmtdat='(2E16.6)'
 volume=1.0
 tramp=1.0
 $END
  -3.285519e+07   1.957800e+06
  -2.217917e+07  -1.663293e+07
   7.455055e+05  -2.181628e+07
   1.465751e+07  -1.231621e+07
   1.116547e+07   6.636956e+05
  -1.718424e+05   5.869360e+06
  -6.309786e+06   1.607865e+06
  -3.805357e+06  -5.403261e+06
   2.199634e+06  -7.630382e+06
   5.881312e+06  -3.058524e+06
   5.001821e+06   3.734651e+06
   8.935312e+05   6.036440e+06
  -2.707731e+06   1.681086e+06
  -2.283653e+06  -4.448334e+06
   1.833035e+06  -5.529530e+06
   5.162343e+06  -2.449314e+05
   3.763805e+06   6.109366e+06
  -1.439164e+06   7.755313e+06
  -5.944123e+06   4.048355e+06
  -6.457530e+06  -1.219057e+06
  -3.522912e+06  -4.293155e+06
  -2.379406e+05  -4.284342e+06
   6.681510e+05  -2.820744e+06
  -8.499445e+05  -2.146137e+06
  -1.945026e+06  -3.077792e+06
   2.649597e+05  -4.123743e+06
   4.888017e+06  -3.064260e+06
   7.383317e+06   2.037545e+05
   4.690464e+06   3.129504e+06
  -7.217008e+05   3.311753e+06
  -3.522064e+06   1.087654e+06
  -1.659828e+06  -1.198053e+06
   1.894753e+06  -1.669295e+06
   3.316991e+06  -9.385177e+04
   1.923316e+06   2.361001e+06
  -3.374885e+05   3.656592e+06
  -1.597303e+06   2.246313e+06
  -1.341355e+06  -8.326073e+05
  -2.024434e+05  -2.196667e+06
   4.742607e+05  -6.884991e+04
  -3.478566e+05   2.778882e+06
  -1.929801e+06   2.157205e+06
  -2.031829e+06  -1.696125e+06
   3.696856e+05  -3.890849e+06
   3.182977e+06  -1.225753e+06
   3.151506e+06   3.486177e+06
  -3.618867e+05   4.961997e+06
  -4.390321e+06   1.790286e+06
  -5.290399e+06  -2.574794e+06
  -2.210813e+06  -4.269740e+06
   2.249288e+06  -2.628766e+06
   4.389115e+06   3.195791e+05
   2.619599e+06   2.192696e+06
  -1.091823e+06   1.845953e+06
  -3.071248e+06  -4.224500e+04
  -1.691112e+06  -1.475881e+06
   9.401619e+05  -1.020375e+06
   1.578087e+06   5.538152e+05
  -2.354064e+05   1.165366e+06
  -1.807652e+06   1.750900e+04
  -8.282162e+05  -1.508261e+06
   1.828704e+06  -1.660899e+06
   3.303760e+06  -1.397747e+05
   1.957390e+06   2.071713e+06
  -1.243674e+06   3.679718e+06
  -3.985922e+06   3.504398e+06
  -4.572121e+06   1.058256e+06
  -2.967992e+06  -2.451061e+06
  -6.118745e+05  -4.520405e+06
   8.187931e+05  -3.806692e+06
   8.795123e+05  -1.735226e+06
   6.110005e+05  -6.931682e+05
   1.126417e+06  -1.010564e+06
   2.184932e+06  -9.026197e+05
   2.524313e+06   6.675238e+05
   1.413578e+06   2.359585e+06
  -5.280317e+05   2.193785e+06
  -1.925574e+06   6.027779e+04
  -1.716095e+06  -2.176268e+06
   1.230536e+05  -2.654911e+06
   2.377459e+06  -1.103197e+06
   3.282900e+06   1.228467e+06
   2.075181e+06   2.728070e+06
  -8.104744e+04   2.667306e+06
  -1.299138e+06   1.670382e+06
  -1.194028e+06   9.386727e+05
  -1.204092e+06   8.960701e+05
  -2.398583e+06   7.805431e+05
  -3.716492e+06  -2.987683e+05
  -3.138157e+06  -2.159553e+06
  -3.063878e+05  -3.607691e+06
   2.780857e+06  -3.517607e+06
   3.781332e+06  -1.755858e+06
   2.269083e+06   6.451031e+05
  -8.132581e+04   2.073529e+06
  -1.207981e+06   1.565415e+06
  -4.594062e+05  -1.402086e+05
   1.027747e+06  -1.124618e+06
   1.575808e+06  -3.718857e+05
   6.758908e+05   9.656030e+05
  -5.413922e+05   1.018506e+06
  -6.227069e+05  -2.845226e+05
   5.575212e+05  -1.018188e+06
   1.682623e+06   2.394989e+05
   1.419677e+06   2.495252e+06
  -3.141849e+05   3.444573e+06
  -2.398091e+06   2.033298e+06
  -3.436734e+06  -6.061227e+05
  -2.698802e+06  -2.499253e+06
  -6.626993e+05  -2.601740e+06
   1.174122e+06  -1.383318e+06
   1.481504e+06  -1.696001e+05
   4.455292e+05   2.694352e+04
  -3.558646e+05  -6.485495e+05
   2.288334e+05  -1.115496e+06
   1.499933e+06  -5.757117e+05
   1.764806e+06   5.508370e+05
   4.880773e+05   1.121045e+06
  -9.737573e+05   6.080579e+05
  -9.450095e+05  -3.506761e+05
   6.410664e+05  -7.171908e+05
   2.153867e+06  -6.652216e+04
   1.956753e+06   1.150177e+06
   2.190293e+04   2.010457e+06
  -2.049427e+06   1.750007e+06
  -2.518613e+06   4.006681e+05
  -1.121312e+06  -1.007834e+06
   7.035038e+05  -1.246018e+06
   1.232470e+06  -1.969485e+05
   1.381361e+05   8.711718e+05
  -1.294772e+06   6.831060e+05
  -1.582025e+06  -5.600177e+05
  -5.076246e+05  -1.452223e+06
   8.229705e+05  -1.064609e+06
   1.184451e+06   5.270322e+04
   3.855994e+05   6.306498e+05
  -6.185934e+05   1.072290e+05
  -6.537120e+05  -8.871590e+05
   5.045541e+05  -1.260698e+06
   1.788809e+06  -4.973242e+05
   1.827530e+06   8.978305e+05
   4.133363e+05   1.820244e+06
  -1.177443e+06   1.521763e+06
  -1.519913e+06   3.092217e+05
  -5.464946e+05  -7.291437e+05
   5.254493e+05  -7.855699e+05
   6.473586e+05  -8.700240e+04
  -2.285367e+04   4.714351e+05
  -5.502881e+05   3.541512e+05
  -3.489252e+05  -9.627195e+04
   2.845289e+05  -1.524158e+05
   5.608125e+05   4.198754e+05
  -2.545417e+04   1.044445e+06
  -1.165853e+06   8.842330e+05
  -1.881442e+06  -2.772600e+05
  -1.373175e+06  -1.686065e+06
   1.160768e+05  -2.220506e+06
   1.428799e+06  -1.441084e+06
   1.643565e+06  -2.972202e+04
   9.752478e+05   8.874346e+05
   3.604096e+05   8.365145e+05
   3.019961e+05   3.405166e+05
   4.138924e+05   2.015706e+05
   8.259406e+04   5.810258e+05
  -7.105231e+05   8.708443e+05
  -1.328782e+06   4.253591e+05
  -1.088686e+06  -6.501181e+05
   1.019500e+05  -1.461701e+06
   1.534372e+06  -1.122219e+06
   2.100770e+06   3.334838e+05
   1.175309e+06   1.829253e+06
  -7.045339e+05   2.160111e+06
  -2.165067e+06   1.109442e+06
  -2.209792e+06  -3.781476e+05
  -1.099127e+06  -1.170602e+06
   5.217398e+04  -1.022708e+06
   4.490750e+05  -6.215297e+05
   2.526648e+05  -6.627350e+05
   1.507549e+05  -1.055157e+06
   5.259601e+05  -1.089941e+06
   1.091331e+06  -2.995511e+05
   1.212344e+06   9.448889e+05
   5.479005e+05   1.701436e+06
  -5.333809e+05   1.319129e+06
  -1.174872e+06   6.779773e+04
  -8.133280e+05  -1.070611e+06
   2.061188e+05  -1.264338e+06
   9.210500e+05  -5.245906e+05
   7.421383e+05   4.201894e+05
   5.115266e+04   8.736751e+05
  -2.986052e+05   7.465882e+05
   2.254400e+03   4.441351e+05
   3.720328e+05   3.261541e+05
   4.556452e+04   3.598320e+05
  -9.760554e+05   2.471967e+05
  -1.796203e+06  -2.011305e+05
  -1.493070e+06  -8.286293e+05
  -1.112429e+05  -1.221762e+06
   1.281844e+06  -1.048849e+06
   1.604090e+06  -3.838945e+05
   8.066529e+05   2.871092e+05
  -1.652088e+05   4.612770e+05
  -4.264232e+05   1.005465e+05
  -7.145652e+01  -3.021712e+05
   4.365635e+05  -2.243278e+05
   4.311828e+05   2.981244e+05
   1.542173e+05   6.749334e+05
   1.089565e+04   4.372527e+05
   1.334709e+05  -1.561081e+05
   3.180767e+05  -3.541508e+05
   2.727470e+05   1.921780e+05
  -1.476293e+05   9.292005e+05
  -7.762987e+05   9.718802e+05
  -1.112682e+06   1.351986e+05
  -6.853053e+05  -8.050601e+05
   3.412868e+05  -9.534567e+05
   1.063565e+06  -2.507580e+05
   6.669243e+05   5.283293e+05
  -5.922186e+05   6.292430e+05
  -1.487165e+06   1.555465e+04
  -1.067086e+06  -7.280967e+05
   3.161310e+05  -9.933166e+05
   1.373295e+06  -6.158295e+05
   1.213004e+06   6.513201e+04
   1.872950e+05   4.860600e+05
  -5.703358e+05   3.108957e+05
  -3.276789e+05  -2.246423e+05
   5.591590e+05  -4.457507e+05
   1.067759e+06   1.081497e+05
   5.600090e+05   1.089757e+06
  -5.869961e+05   1.530553e+06
  -1.374364e+06   7.857439e+05
  -1.162653e+06  -6.918054e+05
  -2.217208e+05  -1.654015e+06
   6.438781e+05  -1.254177e+06
   8.698966e+05   7.859784e+04
   4.887702e+05   1.072047e+06
  -9.798168e+04   9.376548e+05
  -4.896070e+05   1.253669e+05
  -4.926142e+05  -3.460834e+05
  -2.145202e+05  -1.412740e+05
  -1.847480e+04   1.084521e+05
  -1.776306e+05  -2.192965e+05
  -4.621495e+05  -8.524232e+05
  -2.796352e+05  -9.980267e+05
   5.597413e+05  -3.972495e+05
   1.378307e+06   3.871366e+05
   1.266887e+06   7.323084e+05
   1.976034e+05   6.210030e+05
  -8.307814e+05   4.004024e+05
  -9.202161e+05   2.168732e+05
  -2.825662e+05  -2.605445e+03
   1.502530e+05  -2.045842e+05
  -4.181936e+04  -2.253043e+05
  -3.178403e+05  -1.206386e+05
  -2.037392e+04  -1.243117e+05
   6.781677e+05  -2.027293e+05
   9.479942e+05   7.737497e+03
   3.051903e+05   6.093809e+05
  -8.108844e+05   1.052142e+06
  -1.487519e+06   6.780669e+05
  -1.210629e+06  -4.024750e+05
  -2.544569e+05  -1.292003e+06
   6.514176e+05  -1.251038e+06
   9.453009e+05  -4.665319e+05
   6.135511e+05   2.375597e+05
   9.945183e+04   3.226135e+05
  -1.230875e+05   1.969913e+04
   5.180679e+04  -6.488476e+04
   3.155708e+05   3.086434e+05
   2.720252e+05   7.328529e+05
  -1.622727e+05   6.094622e+05
  -6.376794e+05  -1.416649e+05
  -6.552294e+05  -8.975777e+05
  -5.452109e+04  -9.318333e+05
   7.219423e+05  -1.788796e+05
   9.392791e+05   6.951191e+05
   2.988584e+05   9.842634e+05
  -6.473329e+05   5.860243e+05
  -9.912017e+05  -6.307025e+04
  -4.619027e+05  -5.036430e+05
   2.427608e+05  -5.665900e+05
   2.853795e+05  -3.306099e+05
  -2.842324e+05  -2.639024e+04
  -6.078789e+05   3.971399e+04
  -1.204306e+05  -2.670293e+05
   7.400134e+05  -6.459209e+05
   1.090288e+06  -5.645575e+05
   6.433398e+05   9.980924e+04
  -7.446582e+04   7.733802e+05
  -4.358739e+05   7.709176e+05
  -3.277908e+05   1.158036e+05
  -2.834025e+04  -4.600948e+05
   2.201317e+05  -3.715066e+05
   3.274418e+05   1.781831e+05
   2.359016e+05   5.241415e+05
  -5.262182e+04   3.445925e+05
  -3.556433e+05  -5.504913e+04
  -4.228797e+05  -2.106517e+05
  -2.234550e+05  -5.122574e+04
   9.131858e+03   9.597237e+04
   7.664169e+04  -4.501574e+04
   5.304041e+04  -3.546503e+05
   1.341253e+05  -4.464352e+05
   3.180702e+05  -1.128368e+05
   3.580005e+05   3.970261e+05
   6.584996e+04   5.955904e+05
  -3.922827e+05   2.699737e+05
  -5.780885e+05  -2.755343e+05
  -2.168443e+05  -5.389923e+05
   4.410194e+05  -3.365448e+05
   7.772837e+05   7.394880e+04
   4.299909e+05   3.365094e+05
  -2.598586e+05   3.335307e+05
  -5.650668e+05   1.747887e+05
  -1.889450e+05   1.414041e+04
   3.696247e+05  -2.817193e+04
   3.947783e+05   1.065625e+05
  -1.932864e+05   3.024995e+05
  -7.478670e+05   2.598663e+05
