
 $NMID
 id='ANONYMOUS ', fmtdat='(2E16.6)'
 volume=1.0
 tramp=1.0
 $END
   1.762878e+07   1.141946e+06
   1.062491e+07   9.659157e+06
  -1.472327e+06   1.112858e+07
  -8.068918e+06   6.026150e+06
  -5.785538e+06  -3.463844e+05
   1.694122e+05  -2.975687e+06
   3.326978e+06  -8.852285e+05
   2.001869e+06   2.862881e+06
  -1.223295e+06   4.169233e+06
  -3.201853e+06   1.582889e+06
  -2.587213e+06  -2.305326e+06
  -2.174482e+05  -3.456894e+06
   1.653403e+06  -7.443343e+05
   1.192445e+06   2.737634e+06
  -1.124121e+06   3.126827e+06
  -2.775562e+06   7.063848e+03
  -1.806713e+06  -3.456562e+06
   1.100510e+06  -4.134536e+06
   3.436105e+06  -1.848520e+06
   3.414222e+06   1.137407e+06
   1.486380e+06   2.617127e+06
  -3.449437e+05   2.198217e+06
  -4.742659e+05   1.179743e+06
   7.593477e+05   1.063007e+06
   1.326426e+06   1.991987e+06
  -3.132205e+05   2.601129e+06
  -3.159685e+06   1.610655e+06
  -4.385441e+06  -5.542407e+05
  -2.489547e+06  -2.128641e+06
   7.892314e+05  -1.918103e+06
   2.320772e+06  -4.019870e+05
   1.010132e+06   9.954091e+05
  -1.306774e+06   1.187468e+06
  -2.215741e+06   2.815557e+04
  -1.187786e+06  -1.627808e+06
   4.251522e+05  -2.305745e+06
   1.138245e+06  -1.155501e+06
   6.480953e+05   7.818868e+05
  -2.162331e+05   1.324968e+06
  -4.133906e+05  -2.052729e+05
   3.278093e+05  -1.814841e+06
   1.193599e+06  -1.243467e+06
   1.053521e+06   9.585603e+05
  -2.623300e+05   1.989615e+06
  -1.559826e+06   4.139457e+05
  -1.384427e+06  -2.005520e+06
   4.409933e+05  -2.552253e+06
   2.474853e+06  -7.068275e+05
   2.898735e+06   1.633397e+06
   1.185781e+06   2.470251e+06
  -1.321312e+06   1.474386e+06
  -2.522673e+06  -2.260070e+05
  -1.491469e+06  -1.248994e+06
   6.017179e+05  -9.656510e+05
   1.667143e+06   1.163003e+05
   8.785238e+05   8.305864e+05
  -5.514867e+05   5.053360e+05
  -9.074582e+05  -3.388745e+05
   3.355882e+04  -6.552939e+05
   9.021051e+05  -1.148945e+05
   4.834027e+05   6.201773e+05
  -8.756190e+05   7.403730e+05
  -1.705540e+06   2.818004e+04
  -9.787688e+05  -1.138107e+06
   9.066159e+05  -2.035301e+06
   2.533429e+06  -1.863304e+06
   2.730902e+06  -3.573708e+05
   1.552348e+06   1.631198e+06
   1.146838e+05   2.655572e+06
  -5.447648e+05   2.147688e+06
  -4.325160e+05   1.042814e+06
  -3.594558e+05   5.644387e+05
  -8.480189e+05   7.085308e+05
  -1.520006e+06   4.653221e+05
  -1.599647e+06  -5.967116e+05
  -7.910002e+05  -1.598258e+06
   4.393908e+05  -1.401277e+06
   1.253717e+06  -4.861210e+03
   1.029010e+06   1.400506e+06
  -1.738004e+05   1.623688e+06
  -1.501108e+06   5.374189e+05
  -1.878916e+06  -9.329877e+05
  -1.016279e+06  -1.709848e+06
   2.357255e+05  -1.477345e+06
   8.107619e+05  -8.116041e+05
   6.545374e+05  -4.534796e+05
   6.758048e+05  -5.072225e+05
   1.420449e+06  -4.275150e+05
   2.193788e+06   2.584702e+05
   1.815691e+06   1.363310e+06
   9.310860e+04   2.173570e+06
  -1.782522e+06   2.049553e+06
  -2.368807e+06   9.365705e+05
  -1.367259e+06  -5.086755e+05
   1.511672e+05  -1.296881e+06
   8.268775e+05  -9.082936e+05
   2.766791e+05   1.220721e+05
  -6.738445e+05   6.491044e+05
  -9.510653e+05   1.620240e+05
  -3.472251e+05  -6.082650e+05
   3.731747e+05  -6.072900e+05
   3.948200e+05   1.675539e+05
  -2.869556e+05   6.175162e+05
  -9.384774e+05  -7.865865e+04
  -8.390229e+05  -1.401728e+06
   1.171843e+05  -2.030782e+06
   1.369783e+06  -1.258917e+06
   2.065635e+06   3.376449e+05
   1.649970e+06   1.540721e+06
   3.810996e+05   1.610525e+06
  -7.550898e+05   8.191075e+05
  -9.147269e+05   5.860398e+04
  -2.674698e+05  -2.766550e+04
   1.978263e+05   3.999733e+05
  -1.651791e+05   6.469992e+05
  -8.979045e+05   2.894005e+05
  -1.023218e+06  -3.663483e+05
  -2.619706e+05  -6.654848e+05
   5.963924e+05  -3.429463e+05
   5.794626e+05   2.256957e+05
  -3.739863e+05   4.427857e+05
  -1.307093e+06   4.184163e+04
  -1.201255e+06  -7.137869e+05
  -6.922305e+03  -1.232519e+06
   1.271047e+06  -1.033546e+06
   1.530186e+06  -1.884166e+05
   6.392323e+05   6.271312e+05
  -4.609324e+05   7.082933e+05
  -7.290656e+05   6.662825e+04
  -3.946777e+04  -5.254748e+05
   7.985266e+05  -3.703481e+05
   9.349454e+05   3.682403e+05
   2.853629e+05   8.745648e+05
  -4.963637e+05   6.293985e+05
  -7.038239e+05  -3.647763e+04
  -2.270006e+05  -3.729659e+05
   3.655658e+05  -4.519579e+04
   3.668765e+05   5.546667e+05
  -3.448389e+05   7.506724e+05
  -1.100744e+06   2.495379e+05
  -1.079334e+06  -5.952733e+05
  -1.999367e+05  -1.106075e+06
   7.421473e+05  -8.819621e+05
   9.152197e+05  -1.521272e+05
   3.138203e+05   4.448906e+05
  -3.315827e+05   4.619648e+05
  -4.056091e+05   3.920332e+04
   4.927928e+03  -3.015906e+05
   3.473324e+05  -2.328295e+05
   2.474488e+05   5.330221e+04
  -1.404353e+05   1.062865e+05
  -3.258222e+05  -2.358336e+05
   2.472969e+04  -6.161008e+05
   7.160528e+05  -5.074541e+05
   1.127741e+06   2.101646e+05
   7.858545e+05   1.051659e+06
  -1.229544e+05   1.342775e+06
  -8.922123e+05   8.513841e+05
  -1.001156e+06  -1.317912e+03
  -5.981668e+05  -5.591170e+05
  -2.251157e+05  -5.433629e+05
  -1.691595e+05  -2.447164e+05
  -2.194265e+05  -1.359635e+05
  -2.599771e+04  -3.398334e+05
   4.386509e+05  -5.097506e+05
   8.099473e+05  -2.424284e+05
   6.628288e+05   4.111189e+05
  -7.291437e+04   8.935753e+05
  -9.480651e+05   6.579613e+05
  -1.268007e+06  -2.432349e+05
  -6.751779e+05  -1.124968e+06
   4.629505e+05  -1.278044e+06
   1.316268e+06  -6.221648e+05
   1.323865e+06   2.596602e+05
   6.603193e+05   7.186366e+05
  -2.989326e+04   6.306106e+05
  -2.900493e+05   3.941757e+05
  -1.987079e+05   4.085606e+05
  -1.415320e+05   6.245802e+05
  -3.479553e+05   6.295320e+05
  -6.608774e+05   1.442934e+05
  -7.064843e+05  -6.059910e+05
  -2.872087e+05  -1.045386e+06
   3.584207e+05  -7.860735e+05
   7.124114e+05  -1.612847e+04
   4.656594e+05   6.567503e+05
  -1.432652e+05   7.502630e+05
  -5.451279e+05   3.014452e+05
  -4.224780e+05  -2.487254e+05
  -1.862191e+04  -5.060216e+05
   1.759248e+05  -4.349573e+05
  -3.869881e+03  -2.720757e+05
  -2.158430e+05  -2.126496e+05
  -1.793833e+04  -2.217927e+05
   5.866991e+05  -1.247723e+05
   1.068471e+06   1.663061e+05
   8.785100e+05   5.305149e+05
   4.447067e+04   7.247648e+05
  -7.884227e+05   5.895170e+05
  -9.683639e+05   1.985346e+05
  -4.754446e+05  -1.734477e+05
   1.087292e+05  -2.625881e+05
   2.512990e+05  -5.514255e+04
  -1.824817e+04   1.744305e+05
  -2.760507e+05   1.245422e+05
  -2.509438e+05  -1.920427e+05
  -6.564716e+04  -4.225669e+05
   1.620907e+04  -2.723797e+05
  -8.044767e+04   1.013910e+05
  -2.051187e+05   2.243191e+05
  -1.634137e+05  -1.192531e+05
   1.147468e+05  -5.671494e+05
   4.943101e+05  -5.673543e+05
   6.669152e+05  -3.781714e+04
   3.801836e+05   5.132808e+05
  -2.369671e+05   5.565063e+05
  -6.478536e+05   1.078697e+05
  -3.906113e+05  -3.414145e+05
   3.685951e+05  -3.666835e+05
   9.015044e+05   1.613876e+04
   6.436521e+05   4.528574e+05
  -1.959092e+05   5.969919e+05
  -8.391084e+05   3.601655e+05
  -7.394062e+05  -5.229611e+04
  -1.101768e+05  -2.982017e+05
   3.481391e+05  -1.796296e+05
   1.864481e+05   1.428065e+05
  -3.598842e+05   2.534127e+05
  -6.486814e+05  -1.029791e+05
  -3.027123e+05  -6.862533e+05
   4.112869e+05  -9.152073e+05
   8.642649e+05  -4.360555e+05
   6.892122e+05   4.539223e+05
   9.294293e+04   1.012365e+06
  -4.178620e+05   7.518602e+05
  -5.237480e+05  -5.936210e+04
  -2.784514e+05  -6.566262e+05
   6.803562e+04  -5.672300e+05
   2.946336e+05  -6.725792e+04
   2.998775e+05   2.197569e+05
   1.373636e+05   8.934278e+04
   8.992141e+03  -6.607489e+04
   8.616809e+04   1.384335e+05
   2.528951e+05   5.288294e+05
   1.567382e+05   6.087051e+05
  -3.360039e+05   2.223627e+05
  -8.287462e+05  -2.684416e+05
  -7.610038e+05  -4.700143e+05
  -1.048666e+05  -3.787469e+05
   5.235109e+05  -2.261968e+05
   5.653585e+05  -1.141479e+05
   1.608615e+05   7.205818e+03
  -1.004794e+05   1.210894e+05
   3.338071e+04   1.370372e+05
   2.049798e+05   8.122403e+04
   5.451790e+03   7.943765e+04
  -4.315832e+05   1.081734e+05
  -5.760176e+05  -3.367312e+04
  -1.516503e+05  -3.852898e+05
   5.345716e+05  -6.164614e+05
   9.177979e+05  -3.597975e+05
   7.137760e+05   2.903741e+05
   1.170492e+05   7.954750e+05
  -4.274530e+05   7.370722e+05
  -5.904330e+05   2.507228e+05
  -3.717265e+05  -1.659022e+05
  -4.704019e+04  -2.013214e+05
   8.875830e+04  -7.590553e+03
  -2.530397e+04   4.370953e+04
  -1.869357e+05  -1.895235e+05
  -1.501758e+05  -4.499469e+05
   1.187696e+05  -3.647756e+05
   3.900912e+05   1.096736e+05
   3.711376e+05   5.740526e+05
  -5.110058e+03   5.728992e+05
  -4.557121e+05   8.209411e+04
  -5.533656e+05  -4.593658e+05
  -1.473945e+05  -6.091152e+05
   4.151182e+05  -3.313784e+05
   5.967578e+05   7.115019e+04
   2.568974e+05   3.145705e+05
  -1.674604e+05   3.276540e+05
  -1.750688e+05   1.860338e+05
   1.833463e+05   2.202406e+04
   3.736453e+05  -7.647766e+03
   6.155916e+04   1.653266e+05
  -4.661528e+05   3.734840e+05
  -6.650535e+05   3.159056e+05
  -3.739763e+05  -7.582724e+04
   6.935249e+04  -4.641681e+05
   2.793537e+05  -4.475716e+05
   1.963939e+05  -4.908299e+04
   1.782664e+03   2.869793e+05
  -1.485129e+05   2.154089e+05
  -1.993262e+05  -1.254225e+05
  -1.277594e+05  -3.258856e+05
   4.817633e+04  -2.012150e+05
   2.162457e+05   4.729617e+04
   2.445663e+05   1.352300e+05
   1.311210e+05   3.181038e+04
   5.302466e+03  -5.424260e+04
  -3.972830e+04   3.929205e+04
  -5.099050e+04   2.263629e+05
  -1.163786e+05   2.674648e+05
  -2.107204e+05   4.684400e+04
  -2.006489e+05  -2.679725e+05
  -8.791083e+03  -3.736646e+05
   2.526298e+05  -1.513293e+05
   3.409978e+05   1.924690e+05
   1.143575e+05   3.395417e+05
  -2.753234e+05   1.895130e+05
  -4.672095e+05  -7.338707e+04
  -2.493694e+05  -2.181162e+05
   1.709330e+05  -1.887490e+05
   3.503190e+05  -8.088496e+04
   1.089118e+05   1.998469e+03
  -2.391338e+05   4.994499e+03
  -2.461576e+05  -8.362730e+04
   1.306205e+05  -1.887243e+05
   4.748905e+05  -1.438674e+05
