
 $NMID
 id='ANONYMOUS ', fmtdat='(2E16.6)'
 volume=1.0
 tramp=1.0
 $END
  -5.250916e+07  -1.172132e+06
  -3.096174e+07  -3.270003e+07
   7.344204e+06  -3.513800e+07
   2.571549e+07  -1.353981e+07
   1.530430e+07   6.288961e+06
  -3.026294e+06   8.590160e+06
  -9.150682e+06  -9.904277e+05
  -2.693376e+06  -9.056990e+06
   5.711260e+06  -8.874014e+06
   9.024675e+06  -1.942956e+06
   6.508954e+06   5.956811e+06
   6.323116e+05   8.195091e+06
  -3.855352e+06   2.457310e+06
  -2.476663e+06  -5.363899e+06
   3.566277e+06  -6.307681e+06
   7.373754e+06   1.247749e+06
   4.099978e+06   9.616932e+06
  -3.646283e+06   1.103428e+07
  -9.547405e+06   5.367082e+06
  -1.005197e+07  -2.179427e+06
  -5.920054e+06  -7.148538e+06
  -3.616985e+05  -7.950069e+06
   2.711174e+06  -5.392204e+06
   1.409281e+06  -2.483734e+06
  -1.305934e+06  -2.324554e+06
  -1.238206e+05  -4.241498e+06
   5.468871e+06  -4.127363e+06
   9.377965e+06  -1.787084e+05
   6.587716e+06   4.158958e+06
  -6.862941e+04   4.825507e+06
  -3.819119e+06   2.260788e+06
  -2.397464e+06  -2.806889e+05
   8.364441e+05  -1.134866e+06
   2.518956e+06  -4.488248e+05
   2.194999e+06   1.635590e+06
   4.711814e+05   3.953596e+06
  -1.869612e+06   3.565107e+06
  -2.930188e+06  -3.442665e+05
  -1.347743e+06  -3.481430e+06
   8.250099e+05  -1.579366e+06
   2.098340e+05   2.580043e+06
  -2.412719e+06   2.263551e+06
  -2.297968e+06  -2.988856e+06
   2.229417e+06  -5.677440e+06
   6.329202e+06  -8.421438e+05
   4.601655e+06   6.502506e+06
  -1.875855e+06   7.888015e+06
  -7.000544e+06   2.135291e+06
  -6.609426e+06  -4.291630e+06
  -1.807280e+06  -5.779556e+06
   3.321233e+06  -2.638703e+06
   5.094147e+06   1.411894e+06
   2.392394e+06   3.295691e+06
  -2.242613e+06   2.060692e+06
  -4.257002e+06  -8.865351e+05
  -1.829840e+06  -2.546385e+06
   1.628999e+06  -1.261278e+06
   1.694161e+06   9.785270e+05
  -1.142147e+06   9.130097e+05
  -2.289450e+06  -1.499890e+06
   4.731863e+05  -3.055554e+06
   4.188262e+06  -1.722200e+06
   4.913169e+06   1.218753e+06
   2.164036e+06   3.699413e+06
  -1.825123e+06   4.993753e+06
  -4.969638e+06   4.569696e+06
  -6.008430e+06   1.520751e+06
  -4.277987e+06  -3.169414e+06
  -7.678329e+05  -5.956468e+06
   1.769872e+06  -4.582268e+06
   1.598621e+06  -1.278913e+06
   1.985023e+05   5.280414e+04
   1.979349e+05  -1.058797e+06
   1.801456e+06  -1.661847e+06
   2.849023e+06  -2.837182e+04
   1.939488e+06   2.093830e+06
  -1.063571e+05   2.211669e+06
  -1.661560e+06   1.733972e+05
  -1.692672e+06  -2.151145e+06
   6.650368e+04  -2.933791e+06
   2.775958e+06  -1.529146e+06
   4.302455e+06   1.307036e+06
   2.974647e+06   3.692174e+06
  -1.449993e+05   3.992524e+06
  -2.186645e+06   2.500674e+06
  -2.083479e+06   1.059342e+06
  -1.741035e+06   6.957022e+05
  -2.886069e+06   4.965402e+05
  -4.283783e+06  -7.536041e+05
  -3.431946e+06  -2.749667e+06
  -1.011436e+05  -4.101641e+06
   3.243239e+06  -3.853545e+06
   4.213830e+06  -2.032433e+06
   2.635349e+06   5.175303e+05
   1.811236e+05   2.264528e+06
  -1.176880e+06   1.888329e+06
  -5.548041e+05  -7.265744e+04
   1.125255e+06  -1.284510e+06
   1.889450e+06  -3.593627e+05
   8.659709e+05   1.206927e+06
  -5.547177e+05   1.105888e+06
  -4.626628e+05  -3.850756e+05
   9.985696e+05  -7.385704e+05
   1.813181e+06   1.154709e+06
   7.210502e+05   3.352605e+06
  -1.431251e+06   3.411490e+06
  -3.042988e+06   1.233464e+06
  -3.340563e+06  -1.351112e+06
  -2.347380e+06  -2.771162e+06
  -4.686373e+05  -2.653413e+06
   1.269517e+06  -1.461265e+06
   1.592749e+06  -2.001774e+05
   4.909504e+05   5.049802e+04
  -3.509233e+05  -7.566750e+05
   4.196197e+05  -1.319646e+06
   1.887862e+06  -5.480009e+05
   2.003891e+06   8.910295e+05
   3.731369e+05   1.400587e+06
  -1.177000e+06   5.627298e+05
  -9.080866e+05  -4.650981e+05
   8.360540e+05  -5.503902e+05
   2.206045e+06   2.908664e+05
   1.789638e+06   1.365224e+06
  -2.341005e+05   2.003547e+06
  -2.328886e+06   1.663004e+06
  -2.783341e+06   2.542279e+05
  -1.196786e+06  -1.267988e+06
   9.334491e+05  -1.469345e+06
   1.540073e+06  -1.596421e+05
   1.704923e+05   1.075668e+06
  -1.526107e+06   7.144027e+05
  -1.712017e+06  -7.927411e+05
  -3.368333e+05  -1.652380e+06
   1.085816e+06  -9.806130e+05
   1.256358e+06   3.047348e+05
   2.493631e+05   7.769287e+05
  -7.929326e+05   4.679407e+04
  -7.257648e+05  -1.066710e+06
   5.990451e+05  -1.425535e+06
   2.026020e+06  -5.195931e+05
   2.029625e+06   1.078976e+06
   3.617012e+05   2.081730e+06
  -1.454185e+06   1.628405e+06
  -1.725556e+06   1.966584e+05
  -4.961758e+05  -8.712116e+05
   6.676764e+05  -8.003275e+05
   6.481943e+05  -6.679452e+04
  -1.114771e+05   3.830044e+05
  -5.108961e+05   2.307146e+05
  -1.597991e+05  -6.693775e+04
   4.249988e+05   5.273963e+04
   5.198550e+05   6.511192e+05
  -2.004740e+05   1.181555e+06
  -1.387440e+06   8.900578e+05
  -2.084529e+06  -4.313715e+05
  -1.450524e+06  -1.962703e+06
   2.399726e+05  -2.430024e+06
   1.632615e+06  -1.414544e+06
   1.703736e+06   1.284198e+05
   8.745212e+05   9.134495e+05
   3.257350e+05   6.856731e+05
   4.644861e+05   2.471706e+05
   6.053901e+05   3.156185e+05
   8.147823e+04   7.535814e+05
  -8.763250e+05   8.995362e+05
  -1.456556e+06   3.289294e+05
  -1.065053e+06  -7.308507e+05
   2.472336e+05  -1.477471e+06
   1.735751e+06  -1.076012e+06
   2.258461e+06   4.994893e+05
   1.127415e+06   2.113623e+06
  -1.021733e+06   2.360841e+06
  -2.547794e+06   1.018419e+06
  -2.355682e+06  -6.670104e+05
  -9.677072e+05  -1.346790e+06
   1.994864e+05  -9.635014e+05
   4.048995e+05  -5.294551e+05
   1.111617e+05  -7.582758e+05
   1.319128e+05  -1.296871e+06
   6.831205e+05  -1.273221e+06
   1.293983e+06  -3.018601e+05
   1.328977e+06   1.099078e+06
   5.391049e+05   1.908201e+06
  -6.403372e+05   1.436972e+06
  -1.291738e+06  -1.178454e+04
  -8.058467e+05  -1.288382e+06
   3.941085e+05  -1.393661e+06
   1.154762e+06  -4.065773e+05
   8.017880e+05   6.868400e+05
  -1.215881e+05   1.063761e+06
  -5.276496e+05   7.790047e+05
  -8.109261e+04   4.218935e+05
   4.299283e+05   3.437539e+05
   5.638232e+04   3.865218e+05
  -1.147333e+06   2.028543e+05
  -2.058881e+06  -3.481955e+05
  -1.613031e+06  -1.048970e+06
   4.252229e+04  -1.431005e+06
   1.594408e+06  -1.125000e+06
   1.834687e+06  -2.677717e+05
   8.328603e+05   4.900118e+05
  -2.626063e+05   5.614592e+05
  -5.088527e+05   3.446493e+04
  -2.291840e+04  -4.148083e+05
   4.491162e+05  -2.540797e+05
   4.785067e+05   3.464805e+05
   2.412915e+05   7.307065e+05
   8.492908e+04   4.836159e+05
   1.373850e+05  -1.004916e+05
   2.877189e+05  -3.012093e+05
   2.783262e+05   2.330110e+05
  -1.503559e+05   9.935910e+05
  -9.106801e+05   1.064085e+06
  -1.362601e+06   1.602776e+05
  -8.415169e+05  -9.267592e+05
   4.265107e+05  -1.134955e+06
   1.262091e+06  -3.226667e+05
   7.320716e+05   5.822880e+05
  -7.073947e+05   6.459242e+05
  -1.594569e+06  -1.045381e+05
  -1.010015e+06  -8.700797e+05
   4.862516e+05  -9.915572e+05
   1.507130e+06  -4.766567e+05
   1.240065e+06   1.962057e+05
   1.334654e+05   5.177166e+05
  -6.538229e+05   2.667458e+05
  -3.822978e+05  -2.986318e+05
   5.944337e+05  -5.210757e+05
   1.190626e+06   9.082410e+04
   6.669860e+05   1.194134e+06
  -6.047295e+05   1.710103e+06
  -1.498319e+06   8.827747e+05
  -1.259370e+06  -7.685722e+05
  -1.943387e+05  -1.803085e+06
   7.511346e+05  -1.297657e+06
   9.286307e+05   1.829036e+05
   4.260926e+05   1.200832e+06
  -2.274159e+05   9.720929e+05
  -5.664391e+05   8.043241e+04
  -4.661925e+05  -3.815884e+05
  -1.626915e+05  -1.380738e+05
  -4.986783e+04   9.426568e+04
  -2.815822e+05  -3.020845e+05
  -5.075982e+05  -9.766838e+05
  -1.829198e+05  -1.084186e+06
   7.242246e+05  -3.906586e+05
   1.480692e+06   4.757256e+05
   1.280198e+06   8.472886e+05
   1.820231e+05   7.042475e+05
  -8.570724e+05   4.196299e+05
  -9.893720e+05   1.777495e+05
  -3.652074e+05  -5.842176e+04
   1.461325e+05  -2.270181e+05
   4.097069e+04  -2.015537e+05
  -2.620331e+05  -9.111985e+04
  -5.358467e+04  -1.351360e+05
   6.609010e+05  -2.406342e+05
   1.055988e+06   1.242995e+04
   4.443616e+05   7.023269e+05
  -8.445541e+05   1.190554e+06
  -1.720062e+06   7.627365e+05
  -1.431515e+06  -4.345310e+05
  -2.786698e+05  -1.416096e+06
   7.775612e+05  -1.387260e+06
   1.059891e+06  -5.472699e+05
   6.604937e+05   2.295996e+05
   1.385764e+05   3.627563e+05
  -6.437512e+04   7.420706e+04
   8.348230e+04  -1.000425e+04
   2.975021e+05   3.730890e+05
   2.440597e+05   8.145975e+05
  -1.800363e+05   6.871440e+05
  -6.861529e+05  -1.148360e+05
  -7.524358e+05  -9.529959e+05
  -1.288339e+05  -1.042598e+06
   7.535407e+05  -2.622155e+05
   1.048821e+06   7.151601e+05
   3.599411e+05   1.099183e+06
  -7.170544e+05   6.926922e+05
  -1.133768e+06  -7.113831e+04
  -5.421959e+05  -6.257144e+05
   2.908611e+05  -6.948174e+05
   3.924431e+05  -3.725100e+05
  -2.386671e+05  -2.828041e+03
  -6.518677e+05   4.300895e+04
  -1.518119e+05  -3.127841e+05
   8.309902e+05  -6.832885e+05
   1.276902e+06  -5.355833e+05
   7.782026e+05   1.884677e+05
  -9.566578e+04   8.807391e+05
  -5.659358e+05   8.667689e+05
  -4.413589e+05   1.708195e+05
  -6.211679e+04  -4.786208e+05
   2.385773e+05  -4.461754e+05
   3.558939e+05   1.364452e+05
   2.593409e+05   5.810120e+05
  -5.034438e+04   4.411980e+05
  -3.952801e+05  -3.920953e+04
  -4.828600e+05  -2.899943e+05
  -2.437618e+05  -1.035202e+05
   3.954338e+04   1.608334e+05
   8.136040e+04   6.173002e+04
  -2.970827e+04  -3.509114e+05
   2.764036e+04  -5.699350e+05
   3.159872e+05  -2.431923e+05
   4.802427e+05   3.686484e+05
   1.814487e+05   6.529144e+05
  -4.049113e+05   3.253161e+05
  -6.798933e+05  -2.719256e+05
  -2.651448e+05  -5.729812e+05
   5.140156e+05  -3.719729e+05
   8.981161e+05   6.784586e+04
   4.882080e+05   3.789606e+05
  -2.956803e+05   4.139912e+05
  -6.479625e+05   2.435339e+05
  -2.622870e+05   2.043396e+04
   3.360782e+05  -8.201498e+04
   4.071671e+05   4.770107e+04
  -1.558750e+05   2.870148e+05
  -7.291724e+05   2.796012e+05
