
 $NMID
 id='ANONYMOUS ', fmtdat='(2E16.6)'
 volume=1.0
 tramp=1.0
 $END
   3.211585e+07  -7.684043e+05
   2.120376e+07   1.651332e+07
  -1.101571e+06   2.106048e+07
  -1.448110e+07   1.195722e+07
  -1.100038e+07  -4.986416e+05
   1.418226e+05  -5.708906e+06
   6.262691e+06  -1.674520e+06
   3.819202e+06   5.336343e+06
  -2.199781e+06   7.671540e+06
  -5.861571e+06   3.040058e+06
  -4.852875e+06  -3.863534e+06
  -6.843096e+05  -6.075285e+06
   2.776508e+06  -1.515421e+06
   2.177559e+06   4.660870e+06
  -1.933736e+06   5.603879e+06
  -5.116965e+06   2.045643e+05
  -3.614148e+06  -6.114882e+06
   1.569682e+06  -7.627790e+06
   5.947305e+06  -3.799198e+06
   6.261813e+06   1.461727e+06
   3.182065e+06   4.331410e+06
  -1.167418e+04   4.053507e+06
  -6.141289e+05   2.553080e+06
   1.106708e+06   2.160903e+06
   2.063475e+06   3.370499e+06
  -4.611761e+05   4.333721e+06
  -5.211207e+06   2.916812e+06
  -7.526360e+06  -5.766811e+05
  -4.545435e+06  -3.388558e+06
   1.023670e+06  -3.284341e+06
   3.754672e+06  -8.503801e+05
   1.640393e+06   1.466661e+06
  -2.167741e+06   1.792731e+06
  -3.598258e+06  -2.641302e+04
  -1.929250e+06  -2.624593e+06
   5.779962e+05  -3.797615e+06
   1.743039e+06  -2.127124e+06
   1.184017e+06   1.025800e+06
  -4.989051e+04   2.188889e+06
  -5.064106e+05  -1.405559e+05
   5.181260e+05  -2.953863e+06
   2.038004e+06  -2.181519e+06
   1.998945e+06   1.697809e+06
  -3.515700e+05   3.805159e+06
  -2.995011e+06   1.133710e+06
  -2.932194e+06  -3.454628e+06
   4.483286e+05  -4.814738e+06
   4.372872e+06  -1.622444e+06
   5.273497e+06   2.713196e+06
   2.191340e+06   4.365169e+06
  -2.322503e+06   2.649605e+06
  -4.481369e+06  -3.723227e+05
  -2.661791e+06  -2.239854e+06
   1.087078e+06  -1.822880e+06
   3.050652e+06   9.301908e+04
   1.659570e+06   1.478452e+06
  -9.560294e+05   9.802296e+05
  -1.605025e+06  -5.898369e+05
   1.789174e+05  -1.212902e+06
   1.791732e+06  -1.197047e+05
   9.187352e+05   1.387929e+06
  -1.696712e+06   1.607076e+06
  -3.235677e+06   1.589752e+05
  -1.916476e+06  -2.044679e+06
   1.382241e+06  -3.650551e+06
   4.200640e+06  -3.402336e+06
   4.673478e+06  -8.731948e+05
   2.859698e+06   2.617744e+06
   4.351416e+05   4.592687e+06
  -8.866599e+05   3.840172e+06
  -8.647674e+05   1.822249e+06
  -6.758303e+05   8.174266e+05
  -1.327263e+06   1.061793e+06
  -2.405660e+06   8.062679e+05
  -2.623120e+06  -8.806946e+05
  -1.351334e+06  -2.581443e+06
   6.873677e+05  -2.299236e+06
   2.065941e+06   1.348849e+04
   1.732481e+06   2.352862e+06
  -2.371754e+05   2.753477e+06
  -2.500745e+06   1.013934e+06
  -3.281875e+06  -1.418505e+06
  -1.953179e+06  -2.837937e+06
   1.994830e+05  -2.632022e+06
   1.328109e+06  -1.586275e+06
   1.172902e+06  -9.111931e+05
   1.220329e+06  -9.164752e+05
   2.481266e+06  -7.689488e+05
   3.819583e+06   3.884846e+05
   3.180256e+06   2.304160e+06
   2.184237e+05   3.739233e+06
  -2.989764e+06   3.560243e+06
  -3.986934e+06   1.679094e+06
  -2.321774e+06  -7.823414e+05
   1.938763e+05  -2.163613e+06
   1.335955e+06  -1.561439e+06
   4.653348e+05   1.816315e+05
  -1.116534e+06   1.125644e+06
  -1.632381e+06   3.234293e+05
  -6.426855e+05  -1.017090e+06
   6.117099e+05  -1.034887e+06
   6.629281e+05   3.127510e+05
  -5.653496e+05   1.076977e+06
  -1.727831e+06  -2.013173e+05
  -1.475545e+06  -2.546353e+06
   3.050856e+05  -3.582573e+06
   2.484714e+06  -2.141179e+06
   3.581692e+06   6.490173e+05
   2.790805e+06   2.667072e+06
   6.367043e+05   2.744422e+06
  -1.266403e+06   1.404797e+06
  -1.546969e+06   1.228102e+05
  -4.589474e+05  -4.077319e+04
   3.500408e+05   6.835342e+05
  -2.637548e+05   1.137868e+06
  -1.552391e+06   5.458963e+05
  -1.797996e+06  -6.095905e+05
  -4.745857e+05  -1.162501e+06
   1.027790e+06  -6.047423e+05
   9.880093e+05   3.935903e+05
  -6.726990e+05   7.574363e+05
  -2.258232e+06   4.638846e+04
  -2.039830e+06  -1.243423e+06
   1.023568e+04  -2.111993e+06
   2.176518e+06  -1.778061e+06
   2.623851e+06  -3.488492e+05
   1.125735e+06   1.067320e+06
  -7.619714e+05   1.251028e+06
  -1.263076e+06   1.581415e+05
  -1.026997e+05  -8.992298e+05
   1.360521e+06  -6.642274e+05
   1.622857e+06   6.193473e+05
   4.973644e+05   1.515849e+06
  -8.705818e+05   1.092324e+06
  -1.228775e+06  -7.198932e+04
  -3.919356e+05  -6.601664e+05
   6.404138e+05  -9.611606e+04
   6.521293e+05   9.397112e+05
  -5.635846e+05   1.294799e+06
  -1.872807e+06   4.610036e+05
  -1.866526e+06  -9.863105e+05
  -3.748917e+05  -1.895183e+06
   1.257372e+06  -1.540056e+06
   1.577536e+06  -2.802470e+05
   5.469900e+05   7.682050e+05
  -5.671495e+05   8.013350e+05
  -6.847127e+05   6.660670e+04
   2.943165e+04  -5.105258e+05
   5.976428e+05  -3.739747e+05
   3.923962e+05   1.139504e+05
  -2.813938e+05   1.787972e+05
  -5.796071e+05  -4.262252e+05
   3.730202e+04  -1.077653e+06
   1.225778e+06  -8.904203e+05
   1.943058e+06   3.352691e+05
   1.376119e+06   1.784300e+06
  -1.827055e+05   2.301191e+06
  -1.522836e+06   1.465246e+06
  -1.715463e+06  -4.517489e+03
  -1.004287e+06  -9.562234e+05
  -3.566854e+05  -9.041438e+05
  -2.890384e+05  -3.785853e+05
  -4.061543e+05  -2.122205e+05
  -6.996695e+04  -5.907010e+05
   7.500700e+05  -8.879179e+05
   1.391062e+06  -4.200294e+05
   1.127690e+06   7.023204e+05
  -1.320426e+05   1.528552e+06
  -1.621640e+06   1.136529e+06
  -2.176702e+06  -3.982996e+05
  -1.178302e+06  -1.927079e+06
   7.767692e+05  -2.220402e+06
   2.265498e+06  -1.100149e+06
   2.287266e+06   4.388611e+05
   1.127750e+06   1.243757e+06
  -7.085054e+04   1.077408e+06
  -4.955569e+05   6.494120e+05
  -3.044522e+05   6.781242e+05
  -1.981932e+05   1.074342e+06
  -5.721426e+05   1.103300e+06
  -1.132392e+06   2.758268e+05
  -1.226757e+06  -1.015775e+06
  -5.177325e+05  -1.781143e+06
   5.934070e+05  -1.352774e+06
   1.222683e+06  -3.944404e+04
   8.178802e+05   1.126807e+06
  -2.380133e+05   1.304367e+06
  -9.572367e+05   5.319473e+05
  -7.571293e+05  -4.354386e+05
  -4.356221e+04  -8.963055e+05
   3.128006e+05  -7.694512e+05
   3.637889e+03  -4.678468e+05
  -3.732155e+05  -3.508557e+05
  -3.615798e+04  -3.749844e+05
   1.011674e+06  -2.330399e+05
   1.848401e+06   2.524636e+05
   1.525877e+06   8.944402e+05
   9.264541e+04   1.263447e+06
  -1.345740e+06   1.049146e+06
  -1.669790e+06   3.606167e+05
  -8.331989e+05  -3.064636e+05
   1.774545e+05  -4.670255e+05
   4.409592e+05  -9.915447e+04
  -1.134903e+04   3.025635e+05
  -4.615536e+05   2.164755e+05
  -4.357428e+05  -3.203553e+05
  -1.298237e+05  -7.049269e+05
   1.157160e+04  -4.530703e+05
  -1.435761e+05   1.661019e+05
  -3.489895e+05   3.687529e+05
  -2.820336e+05  -2.040908e+05
   1.820314e+05  -9.631009e+05
   8.307053e+05  -9.863254e+05
   1.145130e+06  -1.047614e+05
   6.761448e+05   8.529432e+05
  -3.792665e+05   9.692127e+05
  -1.100854e+06   2.206696e+05
  -6.741901e+05  -5.692994e+05
   6.283515e+05  -6.378217e+05
   1.546808e+06   1.935211e+04
   1.100995e+06   7.821913e+05
  -3.446041e+05   1.030813e+06
  -1.445075e+06   6.158652e+05
  -1.267072e+06  -9.385320e+04
  -1.861200e+05  -5.125555e+05
   6.000712e+05  -3.116689e+05
   3.306849e+05   2.392419e+05
  -5.976932e+05   4.412310e+05
  -1.103051e+06  -1.508390e+05
  -5.392355e+05  -1.149661e+06
   6.640677e+05  -1.564628e+06
   1.452279e+06  -7.667947e+05
   1.184264e+06   7.549168e+05
   1.804647e+05   1.723919e+06
  -7.046155e+05   1.288365e+06
  -9.033019e+05  -9.959940e+04
  -4.842415e+05  -1.126565e+06
   1.200545e+05  -9.774357e+05
   5.100916e+05  -1.209265e+05
   5.084232e+05   3.759349e+05
   2.259316e+05   1.566646e+05
   1.992706e+04  -1.143578e+05
   1.682047e+05   2.264611e+05
   4.510777e+05   8.955354e+05
   2.696622e+05   1.046778e+06
  -5.824613e+05   3.989512e+05
  -1.420389e+06  -4.421351e+05
  -1.302002e+06  -7.974112e+05
  -1.888350e+05  -6.482090e+05
   8.805683e+05  -3.896115e+05
   9.642804e+05  -2.010959e+05
   2.874066e+05   5.346609e+03
  -1.648674e+05   2.062804e+05
   4.516943e+04   2.400147e+05
   3.356604e+05   1.406639e+05
   1.436155e+04   1.301805e+05
  -7.192391e+05   1.858987e+05
  -9.820338e+05  -3.885057e+04
  -2.849335e+05  -6.379728e+05
   8.808292e+05  -1.060206e+06
   1.555782e+06  -6.526381e+05
   1.231100e+06   4.572534e+05
   2.215286e+05   1.348573e+06
  -7.097613e+05   1.275596e+06
  -9.935278e+05   4.498619e+05
  -6.305880e+05  -2.700648e+05
  -8.986921e+04  -3.373922e+05
   1.357389e+05  -1.050180e+04
  -5.341893e+04   7.257409e+04
  -3.230632e+05  -3.273919e+05
  -2.639724e+05  -7.692573e+05
   1.888434e+05  -6.253625e+05
   6.586502e+05   1.729938e+05
   6.460033e+05   9.566627e+05
   1.790474e+04   9.657638e+05
  -7.585144e+05   1.538615e+05
  -9.486862e+05  -7.571931e+05
  -2.741474e+05  -1.028334e+06
   6.895059e+05  -5.812542e+05
   1.021313e+06   9.731979e+04
   4.598085e+05   5.296778e+05
  -2.671952e+05   5.726751e+05
  -2.989058e+05   3.335718e+05
   3.010338e+05   4.003553e+04
   6.334110e+05  -2.143973e+04
   1.142877e+05   2.784490e+05
  -7.871388e+05   6.483291e+05
  -1.141654e+06   5.591272e+05
  -6.567116e+05  -1.157059e+05
   1.012201e+05  -7.962155e+05
   4.678896e+05  -7.836272e+05
   3.344825e+05  -1.054369e+05
   1.069488e+04   4.805296e+05
  -2.403545e+05   3.739429e+05
  -3.334986e+05  -2.018517e+05
  -2.274250e+05  -5.507446e+05
   6.616990e+04  -3.488005e+05
   3.663147e+05   7.121833e+04
   4.300376e+05   2.260812e+05
   2.305194e+05   5.536091e+04
  -3.625624e+03  -9.375325e+04
  -8.223921e+04   5.608744e+04
  -7.663097e+04   3.694727e+05
  -1.661280e+05   4.488295e+05
  -3.360495e+05   9.322309e+04
  -3.480424e+05  -4.300541e+05
  -3.687123e+04  -6.189274e+05
   4.181848e+05  -2.637663e+05
   5.853898e+05   3.075895e+05
   2.042261e+05   5.679687e+05
  -4.652234e+05   3.346475e+05
  -7.988908e+05  -1.033654e+05
  -4.331911e+05  -3.621330e+05
   2.791543e+05  -3.321832e+05
   5.883896e+05  -1.569936e+05
   1.901497e+05  -8.288885e+03
  -3.916144e+05   1.056249e+04
  -4.080130e+05  -1.316122e+05
   2.172399e+05  -3.116857e+05
   7.943027e+05  -2.443677e+05
