
 $NMID
 id='ANONYMOUS ', fmtdat='(2E16.6)'
 volume=1.0
 tramp=1.0
 $END
  -4.888851e+07   7.369275e+05
  -3.041751e+07  -2.867524e+07
   4.921739e+06  -3.287270e+07
   2.333384e+07  -1.435701e+07
   1.499154e+07   4.565535e+06
  -2.105266e+06   8.276192e+06
  -8.799296e+06  -4.105500e+04
  -3.375528e+06  -8.361940e+06
   4.774781e+06  -9.084752e+06
   8.500464e+06  -2.564671e+06
   6.462972e+06   5.456257e+06
   8.651183e+05   7.924067e+06
  -3.641178e+06   2.395028e+06
  -2.597677e+06  -5.319111e+06
   3.130480e+06  -6.454939e+06
   7.092120e+06   7.145105e+05
   4.365637e+06   8.939668e+06
  -2.955866e+06   1.062679e+07
  -8.797152e+06   5.378750e+06
  -9.438475e+06  -1.809330e+06
  -5.574223e+06  -6.470658e+06
  -5.104281e+05  -7.154763e+06
   2.064461e+06  -4.922579e+06
   7.294574e+05  -2.601112e+06
  -1.548482e+06  -2.711682e+06
  -1.710759e+04  -4.398046e+06
   5.498699e+06  -4.025735e+06
   9.184776e+06  -1.722927e+05
   6.361186e+06   3.935468e+06
  -2.016752e+05   4.551839e+06
  -3.856598e+06   2.021510e+06
  -2.241498e+06  -5.522963e+05
   1.241439e+06  -1.323292e+06
   2.890586e+06  -3.270192e+05
   2.191271e+06   1.943556e+06
   2.508820e+05   4.028254e+06
  -1.816793e+06   3.334307e+06
  -2.546076e+06  -4.481898e+05
  -1.107782e+06  -3.188935e+06
   6.843987e+05  -1.184053e+06
   3.590690e+04   2.750601e+06
  -2.369184e+06   2.367722e+06
  -2.391455e+06  -2.702903e+06
   1.645075e+06  -5.465259e+06
   5.636366e+06  -1.157543e+06
   4.503170e+06   5.773039e+06
  -1.335007e+06   7.397076e+06
  -6.481868e+06   2.255308e+06
  -6.593092e+06  -3.877231e+06
  -2.106026e+06  -5.592172e+06
   3.132765e+06  -2.823597e+06
   5.172176e+06   1.084611e+06
   2.645415e+06   3.109998e+06
  -1.963917e+06   2.154843e+06
  -4.125470e+06  -5.922251e+05
  -1.933911e+06  -2.317218e+06
   1.470872e+06  -1.282815e+06
   1.764769e+06   8.797994e+05
  -9.096568e+05   1.084873e+06
  -2.317037e+06  -1.052612e+06
  -3.721276e+03  -2.760825e+06
   3.622403e+06  -1.898471e+06
   4.698054e+06   7.594223e+05
   2.282644e+06   3.343497e+06
  -1.665296e+06   4.845800e+06
  -4.849515e+06   4.503194e+06
  -5.822569e+06   1.517815e+06
  -4.103964e+06  -3.032879e+06
  -8.288617e+05  -5.783630e+06
   1.508262e+06  -4.608335e+06
   1.465846e+06  -1.527981e+06
   3.793873e+05  -1.689148e+05
   5.073287e+05  -1.053740e+06
   1.978916e+06  -1.483578e+06
   2.855048e+06   1.763232e+05
   1.860143e+06   2.258100e+06
  -2.410944e+05   2.300486e+06
  -1.825603e+06   1.403042e+05
  -1.791039e+06  -2.263559e+06
   6.836898e+04  -2.989498e+06
   2.764815e+06  -1.491804e+06
   4.194457e+06   1.295386e+06
   2.880580e+06   3.522042e+06
  -6.829274e+04   3.766808e+06
  -1.969768e+06   2.398205e+06
  -1.893530e+06   1.114075e+06
  -1.661647e+06   8.210805e+05
  -2.883090e+06   6.393820e+05
  -4.334560e+06  -6.122400e+05
  -3.539038e+06  -2.677670e+06
  -2.021030e+05  -4.155454e+06
   3.234156e+06  -3.963250e+06
   4.269964e+06  -2.071631e+06
   2.645561e+06   5.630453e+05
   1.186737e+05   2.304862e+06
  -1.228494e+06   1.881700e+06
  -5.502766e+05  -9.085932e+04
   1.138923e+06  -1.304306e+06
   1.882014e+06  -4.014649e+05
   8.624289e+05   1.178437e+06
  -5.700799e+05   1.137390e+06
  -5.433231e+05  -3.744477e+05
   9.128935e+05  -8.870175e+05
   1.900568e+06   9.041343e+05
   1.027569e+06   3.269551e+06
  -1.133187e+06   3.644731e+06
  -3.017417e+06   1.589593e+06
  -3.575345e+06  -1.175005e+06
  -2.598080e+06  -2.833557e+06
  -5.628991e+05  -2.777885e+06
   1.297132e+06  -1.516137e+06
   1.636268e+06  -2.084886e+05
   5.027190e+05   4.259316e+04
  -3.766904e+05  -7.581204e+05
   3.658633e+05  -1.327941e+06
   1.855413e+06  -6.060393e+05
   2.043758e+06   8.085266e+05
   4.467170e+05   1.382855e+06
  -1.167959e+06   6.180516e+05
  -9.707411e+05  -4.480679e+05
   8.190864e+05  -6.399635e+05
   2.313632e+06   1.830308e+05
   1.944971e+06   1.366545e+06
  -1.584188e+05   2.117098e+06
  -2.354956e+06   1.791630e+06
  -2.843466e+06   3.322093e+05
  -1.247412e+06  -1.241316e+06
   8.921489e+05  -1.483181e+06
   1.519073e+06  -1.974106e+05
   1.807995e+05   1.060920e+06
  -1.523709e+06   7.538410e+05
  -1.767631e+06  -7.466261e+05
  -4.228105e+05  -1.676601e+06
   1.054913e+06  -1.071918e+06
   1.307444e+06   2.302023e+05
   3.159379e+05   7.719544e+05
  -7.757908e+05   7.782454e+04
  -7.467429e+05  -1.055662e+06
   5.885776e+05  -1.446596e+06
   2.047618e+06  -5.513842e+05
   2.075019e+06   1.061650e+06
   4.121459e+05   2.102621e+06
  -1.429230e+06   1.690889e+06
  -1.750698e+06   2.565702e+05
  -5.472919e+05  -8.693338e+05
   6.509549e+05  -8.440052e+05
   6.809892e+05  -8.007292e+04
  -8.987778e+04   4.331212e+05
  -5.523128e+05   2.813190e+05
  -2.271965e+05  -8.637908e+04
   4.090795e+05  -1.635430e+04
   5.689500e+05   6.102126e+05
  -1.468776e+05   1.203537e+06
  -1.383485e+06   9.437448e+05
  -2.130010e+06  -3.910498e+05
  -1.513113e+06  -1.965584e+06
   1.983254e+05  -2.490300e+06
   1.646863e+06  -1.507012e+06
   1.777583e+06   7.715706e+04
   9.556822e+05   9.542315e+05
   3.496291e+05   7.716469e+05
   4.315431e+05   2.838347e+05
   5.776568e+05   2.863027e+05
   9.280467e+04   7.355902e+05
  -8.649636e+05   9.432736e+05
  -1.492022e+06   3.832165e+05
  -1.130358e+06  -7.417634e+05
   2.099712e+05  -1.553140e+06
   1.757820e+06  -1.155706e+06
   2.328266e+06   4.603872e+05
   1.215313e+06   2.126632e+06
  -9.565675e+05   2.428488e+06
  -2.552512e+06   1.120077e+06
  -2.440043e+06  -5.950484e+05
  -1.070085e+06  -1.360057e+06
   1.611655e+05  -1.037921e+06
   4.423796e+05  -5.858632e+05
   1.581449e+05  -7.605230e+05
   1.329246e+05  -1.283326e+06
   6.565884e+05  -1.285417e+06
   1.292495e+06  -3.269552e+05
   1.366487e+06   1.096981e+06
   5.815074e+05   1.936365e+06
  -6.299010e+05   1.476837e+06
  -1.321750e+06   2.133592e+04
  -8.601436e+05  -1.280505e+06
   3.443460e+05  -1.429780e+06
   1.139804e+06  -4.772462e+05
   8.339441e+05   6.300920e+05
  -6.174799e+04   1.061729e+06
  -4.759694e+05   8.172093e+05
  -5.731461e+04   4.540519e+05
   4.340983e+05   3.530771e+05
   5.702964e+04   3.972628e+05
  -1.150868e+06   2.359677e+05
  -2.083213e+06  -3.042849e+05
  -1.665741e+06  -1.022009e+06
  -1.673274e+04  -1.440028e+06
   1.567271e+06  -1.171749e+06
   1.855781e+06  -3.324348e+05
   8.750286e+05   4.449046e+05
  -2.392755e+05   5.610468e+05
  -5.099529e+05   6.188992e+04
  -2.091226e+04  -3.985059e+05
   4.671231e+05  -2.589634e+05
   4.901826e+05   3.459544e+05
   2.283435e+05   7.467872e+05
   6.753346e+04   4.906184e+05
   1.450944e+05  -1.242853e+05
   3.134784e+05  -3.332546e+05
   2.917658e+05   2.311156e+05
  -1.536414e+05   1.023443e+06
  -9.075263e+05   1.093920e+06
  -1.348135e+06   1.710454e+05
  -8.388209e+05  -9.269777e+05
   4.116825e+05  -1.136772e+06
   1.258226e+06  -3.247436e+05
   7.513674e+05   5.907092e+05
  -7.037898e+05   6.792199e+05
  -1.645562e+06  -6.300013e+04
  -1.087582e+06  -8.676492e+05
   4.529931e+05  -1.050037e+06
   1.543991e+06  -5.551038e+05
   1.299588e+06   1.591674e+05
   1.604363e+05   5.352916e+05
  -6.603795e+05   2.994953e+05
  -3.868981e+05  -2.864536e+05
   6.093930e+05  -5.252790e+05
   1.210573e+06   9.429205e+04
   6.721073e+05   1.215800e+06
  -6.200254e+05   1.740774e+06
  -1.529316e+06   9.038353e+05
  -1.296745e+06  -7.766739e+05
  -2.225896e+05  -1.847221e+06
   7.498521e+05  -1.355429e+06
   9.607528e+05   1.536819e+05
   4.757492e+05   1.220871e+06
  -1.926628e+05   1.015158e+06
  -5.711130e+05   1.031492e+05
  -5.008549e+05  -3.890601e+05
  -1.884605e+05  -1.472937e+05
  -4.218305e+04   1.050804e+05
  -2.649110e+05  -2.860904e+05
  -5.251362e+05  -9.829919e+05
  -2.300814e+05  -1.114076e+06
   7.061375e+05  -4.200669e+05
   1.527157e+06   4.639126e+05
   1.347582e+06   8.493035e+05
   2.008065e+05   7.130489e+05
  -8.910677e+05   4.378203e+05
  -1.018267e+06   2.044730e+05
  -3.585138e+05  -3.947823e+04
   1.537230e+05  -2.316779e+05
   1.590678e+04  -2.227352e+05
  -2.931319e+05  -1.067395e+05
  -4.580086e+04  -1.371295e+05
   6.988802e+05  -2.413752e+05
   1.074613e+06   5.488842e+03
   4.256983e+05   7.021547e+05
  -8.695835e+05   1.209203e+06
  -1.727043e+06   7.855774e+05
  -1.434140e+06  -4.359087e+05
  -2.923243e+05  -1.446559e+06
   7.681880e+05  -1.419320e+06
   1.072539e+06  -5.546762e+05
   6.790508e+05   2.409920e+05
   1.347632e+05   3.663768e+05
  -8.524718e+04   5.814534e+04
   7.897808e+04  -2.990328e+04
   3.216937e+05   3.707135e+05
   2.705251e+05   8.295276e+05
  -1.790684e+05   6.976762e+05
  -7.047086e+05  -1.263036e+05
  -7.631269e+05  -9.786439e+05
  -1.170065e+05  -1.056950e+06
   7.786612e+05  -2.510343e+05
   1.069048e+06   7.393626e+05
   3.645444e+05   1.114986e+06
  -7.259043e+05   6.969340e+05
  -1.145283e+06  -6.493708e+04
  -5.487163e+05  -6.135361e+05
   2.841745e+05  -6.901041e+05
   3.747089e+05  -3.820149e+05
  -2.655689e+05  -1.169416e+04
  -6.707031e+05   4.700855e+04
  -1.513765e+05  -3.124291e+05
   8.407879e+05  -7.110808e+05
   1.280369e+06  -5.819000e+05
   7.768456e+05   1.625917e+05
  -8.797231e+04   8.914868e+05
  -5.468149e+05   8.851529e+05
  -4.243113e+05   1.659365e+05
  -5.584113e+04  -4.960263e+05
   2.413998e+05  -4.455446e+05
   3.638819e+05   1.556456e+05
   2.681386e+05   5.907569e+05
  -4.961258e+04   4.319337e+05
  -4.021339e+05  -4.424526e+04
  -4.910826e+05  -2.755012e+05
  -2.515188e+05  -9.027109e+04
   3.389228e+04   1.464959e+05
   8.746737e+04   2.908566e+04
  -4.526209e+03  -3.676262e+05
   5.918059e+04  -5.551183e+05
   3.283746e+05  -2.131911e+05
   4.644978e+05   3.921361e+05
   1.557987e+05   6.635697e+05
  -4.191258e+05   3.251032e+05
  -6.817110e+05  -2.823601e+05
  -2.652072e+05  -5.891071e+05
   5.142860e+05  -3.829043e+05
   9.042839e+05   6.739861e+04
   4.963380e+05   3.813733e+05
  -2.954693e+05   4.105103e+05
  -6.511454e+05   2.375386e+05
  -2.513075e+05   2.234572e+04
   3.626398e+05  -6.825302e+04
   4.224149e+05   6.822955e+04
  -1.760344e+05   3.062272e+05
  -7.717057e+05   2.887947e+05
