
 $NMID
 id='ANONYMOUS ', fmtdat='(2E16.6)'
 volume=1.0
 tramp=1.0
 $END
  -1.922076e+07   5.162727e+05
  -1.342844e+07  -8.416996e+06
  -6.753549e+05  -1.223748e+07
   8.141032e+06  -8.779779e+06
   7.343994e+06  -1.329961e+06
   7.267437e+05   3.591734e+06
  -4.065020e+06   2.114030e+06
  -3.330753e+06  -3.094909e+06
   7.137006e+05  -5.711294e+06
   3.697979e+06  -2.701027e+06
   3.296270e+06   2.512006e+06
   4.702224e+05   4.216668e+06
  -1.920458e+06   8.620846e+05
  -1.601618e+06  -3.568827e+06
   1.092794e+06  -4.251519e+06
   3.366182e+06  -5.518935e+05
   2.636621e+06   3.834834e+06
  -7.218276e+05   4.992180e+06
  -3.689852e+06   2.430295e+06
  -3.787626e+06  -1.081731e+06
  -1.570086e+06  -2.662014e+06
   2.553248e+05  -1.998077e+06
  -1.150194e+05  -1.072114e+06
  -1.711070e+06  -1.597178e+06
  -1.921322e+06  -3.082858e+06
   6.053227e+05  -3.554560e+06
   4.193871e+06  -1.908806e+06
   5.495810e+06   8.299034e+05
   2.952944e+06   2.576519e+06
  -1.214855e+06   2.156735e+06
  -3.060392e+06   1.793184e+05
  -1.088860e+06  -1.616976e+06
   2.201727e+06  -1.681868e+06
   3.285920e+06   1.860430e+05
   1.476721e+06   2.475463e+06
  -8.498046e+05   3.041867e+06
  -1.417754e+06   1.228602e+06
  -3.831831e+05  -1.104905e+06
   5.547120e+05  -1.373660e+06
   3.427118e+05   6.976934e+05
  -6.796747e+05   2.530865e+06
  -1.548360e+06   1.715903e+06
  -1.475073e+06  -9.699984e+05
  -2.606981e+05  -2.415265e+06
   1.323915e+06  -9.120594e+05
   1.720562e+06   1.853854e+06
  -4.360993e+03   2.847068e+06
  -2.699611e+06   1.045756e+06
  -3.771558e+06  -1.753931e+06
  -1.833174e+06  -3.079576e+06
   1.573318e+06  -2.106360e+06
   3.400451e+06   1.046091e+04
   2.202042e+06   1.478409e+06
  -5.177550e+05   1.357128e+06
  -2.049645e+06   1.321055e+05
  -1.248059e+06  -8.587279e+05
   5.665038e+05  -6.737727e+05
   1.255110e+06   3.645732e+05
   1.703164e+05   1.056047e+06
  -1.248744e+06   6.067193e+05
  -1.153674e+06  -5.457878e+05
   5.655410e+05  -1.191473e+06
   2.035163e+06  -5.206577e+05
   1.416164e+06   1.129675e+06
  -1.034024e+06   2.492750e+06
  -3.204708e+06   2.319125e+06
  -3.367634e+06   4.234613e+05
  -1.812498e+06  -1.995109e+06
  -1.721546e+05  -3.279881e+06
   4.735265e+05  -2.837139e+06
   4.573960e+05  -1.634173e+06
   6.917276e+05  -9.599101e+05
   1.461562e+06  -8.786301e+05
   2.180211e+06  -3.619970e+05
   2.065355e+06   1.045880e+06
   8.870313e+05   2.280447e+06
  -7.697699e+05   1.898473e+06
  -1.812345e+06  -8.398600e+04
  -1.399547e+06  -1.988902e+06
   2.781381e+05  -2.172598e+06
   1.955792e+06  -6.214727e+05
   2.310931e+06   1.238477e+06
   1.200337e+06   2.055872e+06
  -2.324011e+05   1.680832e+06
  -8.249154e+05   9.522227e+05
  -6.591611e+05   6.602507e+05
  -8.195926e+05   7.948630e+05
  -1.878702e+06   6.832865e+05
  -2.932130e+06  -2.374143e+05
  -2.465271e+06  -1.753454e+06
  -1.748266e+05  -2.910767e+06
   2.378166e+06  -2.757699e+06
   3.179434e+06  -1.203920e+06
   1.776038e+06   7.500336e+05
  -3.038632e+05   1.726848e+06
  -1.156177e+06   1.147608e+06
  -3.465285e+05  -1.903486e+05
   9.166160e+05  -8.484423e+05
   1.240522e+06  -2.282437e+05
   4.319314e+05   7.718021e+05
  -5.257607e+05   8.086918e+05
  -5.979891e+05  -2.326241e+05
   3.181175e+05  -9.697966e+05
   1.349894e+06  -1.342496e+05
   1.406075e+06   1.793184e+06
   9.878642e+04   2.932479e+06
  -1.827366e+06   2.002824e+06
  -2.962287e+06  -3.178861e+05
  -2.384134e+06  -2.141071e+06
  -5.501775e+05  -2.256865e+06
   1.038718e+06  -1.109397e+06
   1.240960e+06  -5.963776e+04
   3.605002e+05   3.415845e+04
  -2.751417e+05  -5.333753e+05
   1.773704e+05  -8.559593e+05
   1.152212e+06  -4.192952e+05
   1.376057e+06   4.224106e+05
   4.005626e+05   8.648137e+05
  -7.892585e+05   4.896766e+05
  -8.216332e+05  -3.044289e+05
   4.951740e+05  -6.739753e+05
   1.842586e+06  -1.302155e+05
   1.723436e+06   9.809709e+05
   4.928281e+04   1.743544e+06
  -1.727364e+06   1.456905e+06
  -2.074628e+06   2.873691e+05
  -8.742229e+05  -8.096627e+05
   5.769265e+05  -9.300979e+05
   9.325413e+05  -1.096069e+05
   4.766864e+04   6.725679e+05
  -1.055349e+06   5.051002e+05
  -1.275946e+06  -4.614974e+05
  -4.389896e+05  -1.183824e+06
   6.417636e+05  -9.086643e+05
   9.801274e+05  -6.133682e+03
   3.546936e+05   4.968068e+05
  -4.699473e+05   8.388726e+04
  -4.933772e+05  -7.290629e+05
   4.605954e+05  -1.001928e+06
   1.474193e+06  -3.345236e+05
   1.448828e+06   7.894207e+05
   2.872050e+05   1.477636e+06
  -9.694947e+05   1.203258e+06
  -1.229324e+06   2.374302e+05
  -4.497664e+05  -5.917021e+05
   4.341527e+05  -6.414000e+05
   5.670828e+05  -4.739030e+04
   5.736717e+01   4.546991e+05
  -5.148277e+05   3.469355e+05
  -3.955944e+05  -1.074332e+05
   1.778758e+05  -2.170951e+05
   4.822815e+05   2.747729e+05
   1.269534e+04   8.362932e+05
  -9.483799e+05   7.086125e+05
  -1.524119e+06  -2.599985e+05
  -1.071947e+06  -1.401413e+06
   1.518606e+05  -1.819932e+06
   1.209527e+06  -1.188556e+06
   1.391328e+06  -2.283762e+04
   8.494120e+05   7.942578e+05
   2.964499e+05   8.065609e+05
   1.764609e+05   3.561091e+05
   2.602961e+05   1.456721e+05
   4.537583e+04   4.263961e+05
  -5.738144e+05   7.078959e+05
  -1.108466e+06   3.584440e+05
  -9.295483e+05  -5.679412e+05
   8.045270e+04  -1.253218e+06
   1.285951e+06  -9.258465e+05
   1.732671e+06   3.099919e+05
   9.512130e+05   1.510358e+06
  -5.718153e+05   1.741947e+06
  -1.751562e+06   8.927643e+05
  -1.822580e+06  -3.022041e+05
  -9.534183e+05  -9.806134e+05
   2.220479e+04  -9.073656e+05
   4.345762e+05  -5.634989e+05
   3.178511e+05  -5.247152e+05
   1.963647e+05  -7.971393e+05
   4.403464e+05  -8.309397e+05
   8.676588e+05  -2.016985e+05
   9.500995e+05   8.088402e+05
   3.942748e+05   1.406932e+06
  -4.792878e+05   1.062489e+06
  -9.676488e+05   3.633926e+04
  -6.535842e+05  -8.673956e+05
   1.550243e+05  -1.022598e+06
   7.132408e+05  -4.597355e+05
   5.901958e+05   2.781172e+05
   7.818435e+04   6.686873e+05
  -1.902473e+05   6.134378e+05
   1.920097e+04   3.924124e+05
   2.813640e+05   2.907759e+05
   1.964172e+04   3.009132e+05
  -7.770092e+05   1.876848e+05
  -1.425552e+06  -1.932404e+05
  -1.197466e+06  -6.894935e+05
  -1.046333e+05  -9.675407e+05
   1.020246e+06  -8.087836e+05
   1.300479e+06  -3.045564e+05
   6.688281e+05   1.957682e+05
  -1.218544e+05   3.444685e+05
  -3.347753e+05   9.647162e+04
   2.475018e+04  -2.090225e+05
   3.801762e+05  -1.596249e+05
   3.358669e+05   2.552906e+05
   6.255819e+04   5.659225e+05
  -4.531396e+04   3.588685e+05
   1.184037e+05  -1.551894e+05
   3.050019e+05  -3.193949e+05
   2.282413e+05   1.584351e+05
  -1.662945e+05   7.702372e+05
  -6.574909e+05   7.658452e+05
  -8.597226e+05   5.282485e+04
  -4.855207e+05  -6.763885e+05
   3.035628e+05  -7.274255e+05
   8.434688e+05  -1.331519e+05
   5.223854e+05   4.638576e+05
  -4.888543e+05   5.072993e+05
  -1.235917e+06  -1.873233e+03
  -9.135779e+05  -6.126662e+05
   2.408753e+05  -8.424557e+05
   1.153285e+06  -5.309930e+05
   1.032861e+06   5.301880e+04
   1.634611e+05   4.142457e+05
  -4.706487e+05   2.608107e+05
  -2.478502e+05  -1.786284e+05
   4.909991e+05  -3.264964e+05
   8.653161e+05   1.531464e+05
   3.845614e+05   9.243335e+05
  -5.736672e+05   1.215856e+06
  -1.170467e+06   5.702208e+05
  -9.283371e+05  -6.187087e+05
  -1.255034e+05  -1.372794e+06
   5.669503e+05  -1.034013e+06
   7.213065e+05   6.181257e+04
   4.002283e+05   8.918558e+05
  -7.083274e+04   7.908095e+05
  -3.955053e+05   1.056714e+05
  -4.224368e+05  -3.065027e+05
  -2.025820e+05  -1.338714e+05
  -6.984856e+03   9.834217e+04
  -9.602047e+04  -1.626275e+05
  -3.377437e+05  -7.042449e+05
  -2.368248e+05  -8.365913e+05
   4.291566e+05  -3.181379e+05
   1.126767e+06   3.606811e+05
   1.054254e+06   6.406217e+05
   1.486997e+05   5.085289e+05
  -7.249707e+05   2.989005e+05
  -7.744686e+05   1.618103e+05
  -2.065679e+05   9.009057e+03
   1.417994e+05  -1.592183e+05
  -6.339238e+04  -2.056247e+05
  -2.957999e+05  -1.316606e+05
   2.294927e+03  -1.049659e+05
   6.045024e+05  -1.278594e+05
   7.719557e+05   5.000981e+04
   1.723461e+05   5.015757e+05
  -7.371243e+05   8.097667e+05
  -1.214915e+06   4.765046e+05
  -9.289261e+05  -3.922222e+05
  -1.481323e+05  -1.073766e+06
   5.661722e+05  -9.900550e+05
   7.893613e+05  -3.231618e+05
   4.998452e+05   2.380726e+05
   5.360009e+04   2.670226e+05
  -1.345605e+05  -1.194998e+04
   3.295863e+04  -7.813214e+04
   2.664277e+05   2.527999e+05
   2.127738e+05   6.106046e+05
  -1.626273e+05   4.851636e+05
  -5.244254e+05  -1.654348e+05
  -4.805774e+05  -7.840366e+05
   3.139652e+04  -7.597743e+05
   6.195597e+05  -8.297270e+04
   7.303923e+05   6.372154e+05
   1.841029e+05   8.141707e+05
  -5.568330e+05   4.283706e+05
  -7.907496e+05  -9.826222e+04
  -3.394937e+05  -4.036226e+05
   2.161475e+05  -4.217323e+05
   2.155962e+05  -2.532719e+05
  -2.644552e+05  -4.580161e+04
  -5.078762e+05   4.652522e+03
  -7.742828e+04  -2.161495e+05
   6.297717e+05  -5.063383e+05
   8.854578e+05  -4.482590e+05
   4.902397e+05   7.806288e+04
  -9.227643e+04   6.168701e+05
  -3.555632e+05   6.020479e+05
  -2.384623e+05   5.934690e+04
   1.208008e+04  -3.910182e+05
   1.998794e+05  -2.775499e+05
   2.624669e+05   1.880309e+05
   1.686231e+05   4.389727e+05
  -6.349517e+04   2.523537e+05
  -2.873765e+05  -7.181274e+04
  -3.280948e+05  -1.671351e+05
  -1.810762e+05  -3.142164e+04
  -1.082287e+04   5.492783e+04
   6.515609e+04  -8.300304e+04
   9.945330e+04  -3.067449e+05
   1.857198e+05  -3.255204e+05
   2.824094e+05  -2.433018e+04
   2.365331e+05   3.738601e+05
  -2.300413e+04   4.935000e+05
  -3.465686e+05   1.904223e+05
  -4.417045e+05  -2.676067e+05
  -1.407587e+05  -4.615132e+05
   3.647053e+05  -2.541456e+05
   6.149006e+05   1.040387e+05
   3.296876e+05   2.927345e+05
  -2.252408e+05   2.398397e+05
  -4.603465e+05   9.287417e+04
  -1.308821e+05  -1.967942e+02
   3.367789e+05   1.704190e+04
   3.312557e+05   1.374086e+05
  -1.981970e+05   2.598005e+05
  -6.674766e+05   1.809154e+05
