
 $NMID
 id='ANONYMOUS ', fmtdat='(2E16.6)'
 volume=1.0
 tramp=1.0
 $END
   5.123160e+07  -2.542789e+06
   3.256917e+07   2.962729e+07
  -4.589594e+06   3.479715e+07
  -2.415447e+07   1.513548e+07
  -1.549773e+07  -4.989593e+06
   2.278477e+06  -8.657327e+06
   9.052669e+06   2.359327e+05
   3.352031e+06   8.666462e+06
  -4.931431e+06   9.158797e+06
  -8.709868e+06   2.590462e+06
  -6.798638e+06  -5.379155e+06
  -1.185278e+06  -8.001865e+06
   3.607062e+06  -2.675222e+06
   2.795301e+06   5.103667e+06
  -3.056091e+06   6.456224e+06
  -7.310291e+06  -6.855894e+05
  -4.685657e+06  -9.121893e+06
   2.804974e+06  -1.104700e+07
   8.964994e+06  -5.892810e+06
   9.951249e+06   1.452466e+06
   6.243612e+06   6.555341e+06
   9.075206e+05   7.692375e+06
  -2.221395e+06   5.445279e+06
  -1.160546e+06   2.591325e+06
   1.418176e+06   2.269086e+06
   3.540678e+05   4.161768e+06
  -5.104326e+06   4.366772e+06
  -9.163389e+06   7.689542e+05
  -6.716604e+06  -3.625751e+06
  -2.482687e+05  -4.700819e+06
   3.587917e+06  -2.435289e+06
   2.334009e+06   1.426174e+05
  -8.118999e+05   1.162382e+06
  -2.486243e+06   5.523859e+05
  -2.236200e+06  -1.523838e+06
  -6.662064e+05  -3.863013e+06
   1.606739e+06  -3.593632e+06
   2.852015e+06   1.494404e+05
   1.529959e+06   3.283180e+06
  -6.673332e+05   1.558040e+06
  -3.289584e+05  -2.528713e+06
   2.233986e+06  -2.381964e+06
   2.474983e+06   2.761957e+06
  -1.743536e+06   5.715439e+06
  -6.083853e+06   1.300792e+06
  -4.945007e+06  -5.988535e+06
   1.254148e+06  -7.814674e+06
   6.672503e+06  -2.568367e+06
   6.765694e+06   3.749195e+06
   2.175841e+06   5.554505e+06
  -3.083030e+06   2.833447e+06
  -5.118571e+06  -1.032512e+06
  -2.604457e+06  -3.086100e+06
   2.035096e+06  -2.204115e+06
   4.237327e+06   5.518878e+05
   1.993792e+06   2.364768e+06
  -1.494301e+06   1.358202e+06
  -1.744101e+06  -8.452720e+05
   1.037026e+06  -1.009099e+06
   2.373629e+06   1.267073e+06
  -1.850909e+05   3.016131e+06
  -3.936160e+06   2.005566e+06
  -4.899184e+06  -8.230845e+05
  -2.387120e+06  -3.461410e+06
   1.465260e+06  -5.001237e+06
   4.588585e+06  -4.780103e+06
   5.782293e+06  -1.863347e+06
   4.375725e+06   2.825131e+06
   1.134491e+06   5.785013e+06
  -1.428119e+06   4.632501e+06
  -1.499304e+06   1.398941e+06
  -2.479614e+05  -2.551026e+04
  -1.736467e+05   1.020819e+06
  -1.671933e+06   1.698864e+06
  -2.774940e+06   1.753035e+05
  -2.010972e+06  -1.948799e+06
  -1.283616e+04  -2.180407e+06
   1.637038e+06  -2.623316e+05
   1.801166e+06   2.024403e+06
   1.138881e+05   2.891179e+06
  -2.626115e+06   1.668472e+06
  -4.289576e+06  -1.012644e+06
  -3.142604e+06  -3.417881e+06
  -1.223173e+05  -3.905200e+06
   1.963810e+06  -2.586644e+06
   1.963455e+06  -1.182435e+06
   1.665478e+06  -8.068010e+05
   2.808737e+06  -6.779264e+05
   4.261529e+06   4.683724e+05
   3.550474e+06   2.489704e+06
   3.567948e+05   4.030109e+06
  -2.954631e+06   3.988841e+06
  -4.021693e+06   2.250624e+06
  -2.617293e+06  -3.514706e+05
  -3.069703e+05  -2.211279e+06
   1.045295e+06  -1.924979e+06
   5.496161e+05   3.404915e+04
  -1.024470e+06   1.331415e+06
  -1.832403e+06   4.796565e+05
  -9.288323e+05  -1.125070e+06
   4.753276e+05  -1.127311e+06
   4.883862e+05   3.461390e+05
  -9.270391e+05   8.083525e+05
  -1.870219e+06  -9.927497e+05
  -9.547746e+05  -3.252436e+06
   1.171614e+06  -3.484156e+06
   2.929899e+06  -1.442585e+06
   3.403393e+06   1.118047e+06
   2.501508e+06   2.603620e+06
   6.243910e+05   2.597861e+06
  -1.166405e+06   1.515950e+06
  -1.559398e+06   2.918690e+05
  -4.884883e+05  -1.975501e+04
   3.940833e+05   7.205463e+05
  -3.218585e+05   1.322837e+06
  -1.815067e+06   6.642150e+05
  -2.031342e+06  -7.386494e+05
  -4.678433e+05  -1.350165e+06
   1.115776e+06  -6.335989e+05
   9.256570e+05   3.962856e+05
  -7.871917e+05   5.973329e+05
  -2.197469e+06  -1.464230e+05
  -1.855672e+06  -1.239300e+06
   1.051918e+05  -1.997088e+06
   2.194353e+06  -1.787353e+06
   2.728892e+06  -4.258288e+05
   1.262340e+06   1.170498e+06
  -8.196366e+05   1.504488e+06
  -1.501411e+06   2.596932e+05
  -2.380191e+05  -1.041903e+06
   1.453151e+06  -8.001865e+05
   1.738129e+06   6.684538e+05
   4.438435e+05   1.608171e+06
  -1.003756e+06   1.044355e+06
  -1.261944e+06  -2.111609e+05
  -3.049190e+05  -7.463048e+05
   7.681713e+05  -9.868466e+04
   7.752546e+05   9.983957e+05
  -5.016534e+05   1.432668e+06
  -1.958186e+06   6.319184e+05
  -2.061295e+06  -9.363041e+05
  -4.863842e+05  -2.025567e+06
   1.327977e+06  -1.696503e+06
   1.689799e+06  -3.064879e+05
   5.508820e+05   8.258816e+05
  -6.027607e+05   8.339552e+05
  -6.359177e+05   1.090673e+05
   8.377408e+04  -3.855464e+05
   4.914583e+05  -2.594603e+05
   1.654285e+05   6.033645e+04
  -4.219633e+05  -2.045457e+04
  -5.549623e+05  -6.075640e+05
   1.232294e+05  -1.176159e+06
   1.311228e+06  -9.610378e+05
   2.077841e+06   2.970219e+05
   1.547503e+06   1.842870e+06
  -8.763185e+04   2.409853e+06
  -1.523977e+06   1.499187e+06
  -1.693641e+06  -2.026294e+04
  -9.244833e+05  -8.553114e+05
  -3.616315e+05  -6.690859e+05
  -4.642346e+05  -2.208556e+05
  -6.083021e+05  -2.705156e+05
  -1.235751e+05  -7.338732e+05
   8.103573e+05  -9.397431e+05
   1.418115e+06  -4.108137e+05
   1.094860e+06   6.619796e+05
  -1.561811e+05   1.476197e+06
  -1.646943e+06   1.165879e+06
  -2.256026e+06  -3.552617e+05
  -1.242577e+06  -2.011265e+06
   8.552997e+05  -2.387536e+06
   2.443144e+06  -1.164654e+06
   2.366008e+06   5.065209e+05
   1.044781e+06   1.268967e+06
  -1.349389e+05   9.692371e+05
  -3.732820e+05   5.507064e+05
  -7.135452e+04   7.501485e+05
  -5.263329e+04   1.279410e+06
  -5.917509e+05   1.293097e+06
  -1.252692e+06   3.765420e+05
  -1.374861e+06  -1.000786e+06
  -6.475705e+05  -1.845949e+06
   5.424441e+05  -1.454379e+06
   1.272982e+06  -6.953796e+04
   8.747288e+05   1.216372e+06
  -2.979437e+05   1.397237e+06
  -1.108072e+06   4.776660e+05
  -8.324421e+05  -6.192766e+05
   4.826889e+04  -1.051576e+06
   4.646574e+05  -8.014276e+05
   5.107381e+04  -4.243347e+05
  -4.424920e+05  -3.152062e+05
  -7.679376e+04  -3.785647e+05
   1.116144e+06  -2.699130e+05
   2.045280e+06   2.169819e+05
   1.652345e+06   9.321010e+05
   5.083369e+04   1.407856e+06
  -1.495306e+06   1.204242e+06
  -1.789119e+06   3.804857e+05
  -8.530171e+05  -4.250523e+05
   2.219253e+05  -5.665095e+05
   4.980837e+05  -6.723397e+04
   4.531867e+04   4.046656e+05
  -4.307734e+05   2.768986e+05
  -4.926244e+05  -3.133315e+05
  -2.770680e+05  -7.073758e+05
  -1.088331e+05  -4.716200e+05
  -1.310138e+05   1.099066e+05
  -2.688079e+05   3.161551e+05
  -2.867893e+05  -2.136152e+05
   9.283872e+04  -9.885185e+05
   8.325344e+05  -1.100180e+06
   1.325378e+06  -2.361424e+05
   8.785349e+05   8.617428e+05
  -3.513437e+05   1.138903e+06
  -1.220601e+06   3.895336e+05
  -7.559284e+05  -5.313552e+05
   6.572153e+05  -6.808266e+05
   1.580785e+06   4.021358e+03
   1.054510e+06   7.961212e+05
  -4.154672e+05   1.011344e+06
  -1.458511e+06   5.675808e+05
  -1.238272e+06  -1.150527e+05
  -1.654073e+05  -5.033031e+05
   6.269716e+05  -3.052184e+05
   3.930522e+05   2.685043e+05
  -5.556041e+05   5.463443e+05
  -1.177253e+06  -2.071447e+04
  -7.249536e+05  -1.137552e+06
   4.974769e+05  -1.719899e+06
   1.426036e+06  -9.575145e+05
   1.287966e+06   6.835326e+05
   2.998258e+05   1.767278e+06
  -6.624414e+05   1.327328e+06
  -9.273764e+05  -1.212754e+05
  -4.955962e+05  -1.157335e+06
   1.610841e+05  -9.736668e+05
   5.515628e+05  -1.149002e+05
   4.851236e+05   3.484225e+05
   1.719328e+05   1.268621e+05
   4.199662e+04  -9.738639e+04
   2.908332e+05   2.779968e+05
   5.579369e+05   9.306573e+05
   2.506990e+05   1.058439e+06
  -6.853049e+05   4.300156e+05
  -1.489441e+06  -3.793754e+05
  -1.317357e+06  -7.580396e+05
  -2.221351e+05  -6.826092e+05
   8.234020e+05  -4.649820e+05
   9.659587e+05  -2.361671e+05
   3.606733e+05   3.364465e+04
  -1.315412e+05   2.326831e+05
  -2.432086e+04   2.037848e+05
   2.674231e+05   7.647391e+04
   5.868403e+04   1.296706e+05
  -6.414596e+05   2.747273e+05
  -1.040535e+06   4.991144e+04
  -4.736749e+05  -6.645762e+05
   7.648717e+05  -1.221592e+06
   1.646600e+06  -8.519318e+05
   1.431693e+06   3.450739e+05
   3.576279e+05   1.379937e+06
  -6.823332e+05   1.412040e+06
  -1.011474e+06   5.992968e+05
  -6.646578e+05  -1.891917e+05
  -1.560706e+05  -3.486107e+05
   6.258836e+04  -7.411409e+04
  -8.033623e+04   1.768339e+04
  -3.173092e+05  -3.484463e+05
  -2.910954e+05  -7.875887e+05
   1.365584e+05  -6.867154e+05
   6.834082e+05   7.461937e+04
   7.961681e+05   8.964780e+05
   1.850666e+05   1.019328e+06
  -7.294918e+05   2.997286e+05
  -1.075308e+06  -6.458839e+05
  -4.176845e+05  -1.061742e+06
   6.661668e+05  -7.223711e+05
   1.119420e+06   3.805608e+03
   5.689375e+05   5.812938e+05
  -2.449241e+05   6.978314e+05
  -3.606079e+05   3.893272e+05
   2.396313e+05  -9.869311e+03
   6.409365e+05  -8.038998e+04
   1.668667e+05   2.986460e+05
  -7.781548e+05   7.237075e+05
  -1.223204e+06   6.071230e+05
  -7.746038e+05  -1.362814e+05
   4.187693e+04  -8.723979e+05
   5.027752e+05  -8.865822e+05
   4.211741e+05  -1.918010e+05
   8.772672e+04   4.697489e+05
  -2.094398e+05   4.518782e+05
  -3.592256e+05  -1.167692e+05
  -2.896708e+05  -5.573597e+05
   2.429095e+04  -4.347620e+05
   3.918118e+05   1.646670e+04
   4.920723e+05   2.545637e+05
   2.464670e+05   8.542455e+04
  -4.680574e+04  -1.533849e+05
  -8.376361e+04  -5.044252e+04
   4.555834e+04   3.463160e+05
   1.682921e+01   5.597888e+05
  -2.992563e+05   2.524205e+05
  -4.909098e+05  -3.388827e+05
  -2.116310e+05  -6.333987e+05
   3.815579e+05  -3.430014e+05
   6.839521e+05   2.299800e+05
   2.935100e+05   5.503333e+05
  -4.834789e+05   3.965462e+05
  -8.870891e+05  -1.502126e+04
  -5.027060e+05  -3.444709e+05
   2.666830e+05  -4.231176e+05
   6.232629e+05  -2.756406e+05
   2.548624e+05  -3.521961e+04
  -3.299737e+05   9.836601e+04
  -4.057894e+05  -2.635520e+04
   1.393779e+05  -2.945298e+05
   7.070455e+05  -3.190692e+05
