
 $NMID
 id='ANONYMOUS ', fmtdat='(2E16.6)'
 volume=1.0
 tramp=1.0
 $END
   5.029659e+07  -4.099303e+06
   3.341784e+07   2.818134e+07
  -3.202799e+06   3.468703e+07
  -2.368067e+07   1.592401e+07
  -1.591380e+07  -4.487486e+06
   1.951527e+06  -8.822838e+06
   9.252131e+06  -5.776965e+04
   3.686002e+06   8.704004e+06
  -4.828261e+06   9.429449e+06
  -8.748464e+06   2.841960e+06
  -6.825418e+06  -5.206960e+06
  -1.250448e+06  -7.896908e+06
   3.474356e+06  -2.659072e+06
   2.710923e+06   5.090378e+06
  -3.052979e+06   6.543612e+06
  -7.356256e+06  -4.923473e+05
  -4.884236e+06  -8.968640e+06
   2.510426e+06  -1.104419e+07
   8.679699e+06  -6.048387e+06
   9.768040e+06   1.146234e+06
   6.288984e+06   6.158271e+06
   1.229165e+06   7.420652e+06
  -1.839797e+06   5.512936e+06
  -1.046541e+06   2.904983e+06
   1.229989e+06   2.478195e+06
   1.763734e+05   4.077443e+06
  -5.029081e+06   4.163581e+06
  -8.939786e+06   7.138322e+05
  -6.579319e+06  -3.474839e+06
  -2.751769e+05  -4.461021e+06
   3.437490e+06  -2.242057e+06
   2.100290e+06   1.695380e+05
  -1.019232e+06   9.697215e+05
  -2.483777e+06   2.848291e+05
  -2.018194e+06  -1.601152e+06
  -5.101355e+05  -3.701821e+06
   1.488076e+06  -3.469570e+06
   2.636016e+06   1.275846e+04
   1.537172e+06   3.037147e+06
  -4.382659e+05   1.483770e+06
  -1.522372e+05  -2.442294e+06
   2.267252e+06  -2.356546e+06
   2.556146e+06   2.712621e+06
  -1.532314e+06   5.818998e+06
  -5.962932e+06   1.622045e+06
  -5.105187e+06  -5.704574e+06
   9.547879e+05  -7.794044e+06
   6.508463e+06  -2.717079e+06
   6.789118e+06   3.660745e+06
   2.228695e+06   5.582986e+06
  -3.107264e+06   2.876879e+06
  -5.190154e+06  -1.039808e+06
  -2.671088e+06  -3.136834e+06
   1.997790e+06  -2.289798e+06
   4.256117e+06   4.590579e+05
   2.061316e+06   2.332886e+06
  -1.452964e+06   1.390184e+06
  -1.763748e+06  -8.620533e+05
   1.057641e+06  -1.132777e+06
   2.540188e+06   1.173470e+06
   4.663771e+04   3.116020e+06
  -3.830661e+06   2.242746e+06
  -4.969952e+06  -6.446793e+05
  -2.505685e+06  -3.394697e+06
   1.388718e+06  -4.931167e+06
   4.502911e+06  -4.672924e+06
   5.649334e+06  -1.842228e+06
   4.277164e+06   2.707937e+06
   1.136696e+06   5.674154e+06
  -1.406337e+06   4.662256e+06
  -1.576420e+06   1.487444e+06
  -4.014732e+05  -5.493513e+04
  -2.682216e+05   8.447002e+05
  -1.626239e+06   1.503459e+06
  -2.623216e+06   7.068677e+04
  -1.836905e+06  -1.944574e+06
   1.018100e+05  -2.090586e+06
   1.634155e+06  -1.379895e+05
   1.702841e+06   2.091596e+06
   4.005310e+04   2.848830e+06
  -2.576680e+06   1.592831e+06
  -4.169738e+06  -9.960260e+05
  -3.096900e+06  -3.302861e+06
  -2.018896e+05  -3.811597e+06
   1.852039e+06  -2.595105e+06
   1.920199e+06  -1.246501e+06
   1.689136e+06  -8.432536e+05
   2.839420e+06  -6.644353e+05
   4.262535e+06   5.092342e+05
   3.514434e+06   2.529295e+06
   2.908649e+05   4.025631e+06
  -3.011302e+06   3.905833e+06
  -4.012778e+06   2.132227e+06
  -2.539872e+06  -4.000663e+05
  -2.306889e+05  -2.151569e+06
   1.061524e+06  -1.842878e+06
   5.245005e+05   4.458753e+04
  -1.039064e+06   1.286943e+06
  -1.821365e+06   4.561745e+05
  -9.056646e+05  -1.106390e+06
   5.021345e+05  -1.094788e+06
   4.974606e+05   3.876417e+05
  -9.771406e+05   8.604765e+05
  -1.972321e+06  -9.829512e+05
  -1.013240e+06  -3.340256e+06
   1.239708e+06  -3.614324e+06
   3.070428e+06  -1.480720e+06
   3.475844e+06   1.216937e+06
   2.452173e+06   2.733119e+06
   5.371300e+05   2.638926e+06
  -1.200749e+06   1.472040e+06
  -1.548633e+06   2.448947e+05
  -4.856310e+05  -2.941537e+04
   3.809369e+05   7.266483e+05
  -3.268540e+05   1.321793e+06
  -1.811240e+06   6.549261e+05
  -2.031783e+06  -7.540348e+05
  -4.641519e+05  -1.362522e+06
   1.131023e+06  -6.204738e+05
   9.254349e+05   4.333172e+05
  -8.262355e+05   6.077456e+05
  -2.240298e+06  -2.035760e+05
  -1.843516e+06  -1.324402e+06
   1.712158e+05  -2.027250e+06
   2.251916e+06  -1.742248e+06
   2.738228e+06  -3.682917e+05
   1.247198e+06   1.184092e+06
  -8.218926e+05   1.486988e+06
  -1.488570e+06   2.528795e+05
  -2.267017e+05  -1.025992e+06
   1.457009e+06  -7.737753e+05
   1.732324e+06   6.979850e+05
   4.208850e+05   1.633161e+06
  -1.038343e+06   1.047349e+06
  -1.284312e+06  -2.337443e+05
  -3.049968e+05  -7.687749e+05
   7.688946e+05  -9.963771e+04
   7.571273e+05   1.002255e+06
  -5.234223e+05   1.411396e+06
  -1.954873e+06   5.889063e+05
  -2.030544e+06  -9.680188e+05
  -4.502417e+05  -2.025778e+06
   1.352358e+06  -1.673843e+06
   1.697566e+06  -2.792355e+05
   5.406189e+05   8.422438e+05
  -6.220465e+05   8.269398e+05
  -6.390955e+05   8.244039e+04
   1.109612e+05  -4.017814e+05
   5.252088e+05  -2.382438e+05
   1.692585e+05   1.035004e+05
  -4.471097e+05   1.689385e+03
  -5.720880e+05  -6.191119e+05
   1.342457e+05  -1.187676e+06
   1.327980e+06  -9.419700e+05
   2.068784e+06   3.339463e+05
   1.508057e+06   1.863975e+06
  -1.397464e+05   2.400510e+06
  -1.567072e+06   1.465756e+06
  -1.706351e+06  -6.788665e+04
  -8.950706e+05  -9.026506e+05
  -3.081962e+05  -6.941230e+05
  -4.265552e+05  -2.148581e+05
  -6.030686e+05  -2.525648e+05
  -1.250260e+05  -7.246322e+05
   8.276769e+05  -9.303601e+05
   1.436444e+06  -3.811103e+05
   1.079033e+06   7.011851e+05
  -2.024182e+05   1.486904e+06
  -1.680642e+06   1.131966e+06
  -2.248607e+06  -4.061647e+05
  -1.206876e+06  -2.041042e+06
   8.924621e+05  -2.382580e+06
   2.468425e+06  -1.131723e+06
   2.372949e+06   5.559752e+05
   1.025737e+06   1.315927e+06
  -1.750851e+05   9.873688e+05
  -4.122197e+05   5.299528e+05
  -9.272198e+04   7.116998e+05
  -6.211940e+04   1.251213e+06
  -5.982417e+05   1.277794e+06
  -1.247479e+06   3.592890e+05
  -1.346086e+06  -1.020258e+06
  -6.058668e+05  -1.849789e+06
   5.707528e+05  -1.435028e+06
   1.274954e+06  -4.266042e+04
   8.590099e+05   1.232790e+06
  -3.185977e+05   1.402117e+06
  -1.127745e+06   4.782040e+05
  -8.462490e+05  -6.228767e+05
   4.654225e+04  -1.062715e+06
   4.752298e+05  -8.164691e+05
   6.709188e+04  -4.354264e+05
  -4.271678e+05  -3.193852e+05
  -6.568095e+04  -3.758781e+05
   1.118003e+06  -2.567680e+05
   2.035029e+06   2.424656e+05
   1.636643e+06   9.588835e+05
   3.940932e+04   1.416515e+06
  -1.503019e+06   1.187432e+06
  -1.800145e+06   3.533172e+05
  -8.647640e+05  -4.406232e+05
   2.198122e+05  -5.656489e+05
   5.047071e+05  -6.536899e+04
   4.815575e+04   3.933186e+05
  -4.324306e+05   2.586185e+05
  -4.827697e+05  -3.194246e+05
  -2.522517e+05  -6.948841e+05
  -9.335380e+04  -4.568819e+05
  -1.442135e+05   1.080926e+05
  -2.913970e+05   3.011160e+05
  -2.842355e+05  -2.207271e+05
   1.198927e+05  -9.759552e+05
   8.478090e+05  -1.078961e+06
   1.308450e+06  -2.246488e+05
   8.514145e+05   8.568898e+05
  -3.576655e+05   1.122591e+06
  -1.204288e+06   3.696078e+05
  -7.356486e+05  -5.433426e+05
   6.705588e+05  -6.695944e+05
   1.585439e+06   4.131129e+04
   1.044263e+06   8.352782e+05
  -4.438655e+05   1.018546e+06
  -1.488975e+06   5.370563e+05
  -1.247428e+06  -1.519181e+05
  -1.526958e+05  -5.144664e+05
   6.384025e+05  -2.951205e+05
   3.896939e+05   2.689336e+05
  -5.587104e+05   5.224889e+05
  -1.158739e+06  -4.709644e+04
  -6.870657e+05  -1.134219e+06
   5.300542e+05  -1.681501e+06
   1.430449e+06  -9.106372e+05
   1.260144e+06   7.088686e+05
   2.551737e+05   1.763896e+06
  -6.974777e+05   1.308581e+06
  -9.317641e+05  -1.414494e+05
  -4.722594e+05  -1.173729e+06
   1.861185e+05  -9.820458e+05
   5.565865e+05  -1.081161e+05
   4.756772e+05   3.685507e+05
   1.678031e+05   1.425448e+05
   4.641484e+04  -1.013059e+05
   2.868506e+05   2.647630e+05
   5.363947e+05   9.318277e+05
   2.269773e+05   1.073802e+06
  -6.901569e+05   4.292765e+05
  -1.474225e+06  -4.134061e+05
  -1.297782e+06  -7.970651e+05
  -2.091107e+05  -6.851876e+05
   8.314608e+05  -4.325149e+05
   9.721136e+05  -2.103264e+05
   3.624436e+05   3.000679e+04
  -1.361051e+05   2.237068e+05
  -3.195835e+04   2.174476e+05
   2.604090e+05   9.844501e+04
   5.322037e+04   1.248682e+05
  -6.423808e+05   2.420210e+05
  -1.030514e+06   2.727911e+04
  -4.528749e+05  -6.491291e+05
   7.820505e+05  -1.180987e+06
   1.641738e+06  -8.170725e+05
   1.401869e+06   3.587668e+05
   3.208071e+05   1.373797e+06
  -7.031456e+05   1.390402e+06
  -1.008153e+06   5.708651e+05
  -6.487145e+05  -2.067480e+05
  -1.460507e+05  -3.435193e+05
   5.862770e+04  -5.766184e+04
  -8.865206e+04   2.301044e+04
  -3.137047e+05  -3.586671e+05
  -2.734848e+05  -7.946274e+05
   1.485391e+05  -6.754541e+05
   6.683244e+05   9.452767e+04
   7.592283e+05   9.019712e+05
   1.586213e+05   1.000363e+06
  -7.197925e+05   2.694787e+05
  -1.039606e+06  -6.638396e+05
  -3.895480e+05  -1.054032e+06
   6.676830e+05  -6.974854e+05
   1.105442e+06   2.270766e+04
   5.593289e+05   5.793195e+05
  -2.457934e+05   6.850774e+05
  -3.606968e+05   3.890800e+05
   2.365172e+05   9.099109e+03
   6.368627e+05  -6.190865e+04
   1.603235e+05   2.951948e+05
  -7.902389e+05   7.017655e+05
  -1.234305e+06   5.888170e+05
  -7.724226e+05  -1.374628e+05
   5.621173e+04  -8.626721e+05
   5.106948e+05  -8.784710e+05
   4.100184e+05  -1.910618e+05
   6.983575e+04   4.629531e+05
  -2.117154e+05   4.397209e+05
  -3.430656e+05  -1.274554e+05
  -2.742722e+05  -5.578849e+05
   2.435092e+04  -4.252095e+05
   3.834488e+05   2.583328e+04
   4.894335e+05   2.575462e+05
   2.496208e+05   8.824519e+04
  -5.030809e+04  -1.453079e+05
  -1.000514e+05  -4.690009e+04
   2.622583e+04   3.310894e+05
  -5.979866e+03   5.301701e+05
  -2.839927e+05   2.313116e+05
  -4.622623e+05  -3.357892e+05
  -1.888756e+05  -6.136897e+05
   3.820728e+05  -3.246568e+05
   6.639481e+05   2.377488e+05
   2.729458e+05   5.478679e+05
  -4.858137e+05   3.856458e+05
  -8.728236e+05  -2.918042e+04
  -4.898884e+05  -3.495621e+05
   2.654776e+05  -4.115605e+05
   6.131806e+05  -2.598658e+05
   2.493832e+05  -3.762212e+04
  -3.237522e+05   7.543062e+04
  -3.906048e+05  -4.341976e+04
   1.550631e+05  -2.809443e+05
   7.123867e+05  -2.840078e+05
