
 $NMID
 id='ANONYMOUS ', fmtdat='(2E16.6)'
 volume=1.0
 tramp=1.0
 $END
   5.695884e+07   7.293150e+05
   3.394905e+07   3.558338e+07
  -7.857382e+06   3.846908e+07
  -2.810180e+07   1.466354e+07
  -1.673560e+07  -7.149566e+06
   3.375425e+06  -9.449929e+06
   1.000551e+07   1.244485e+06
   2.810307e+06   9.945712e+06
  -6.364519e+06   9.518281e+06
  -9.842579e+06   1.990648e+06
  -7.032420e+06  -6.397969e+06
  -7.023473e+05  -8.779169e+06
   4.097617e+06  -2.713332e+06
   2.594593e+06   5.632313e+06
  -3.921742e+06   6.676356e+06
  -7.997164e+06  -1.417995e+06
  -4.407533e+06  -1.041890e+07
   3.971652e+06  -1.194129e+07
   1.031875e+07  -5.857677e+06
   1.090405e+07   2.236233e+06
   6.566137e+06   7.649419e+06
   5.862574e+05   8.699827e+06
  -2.946780e+06   6.061098e+06
  -1.807935e+06   2.786401e+06
   1.120246e+06   2.345635e+06
   1.276699e+05   4.318191e+06
  -5.643828e+06   4.351304e+06
  -9.867465e+06   2.898642e+05
  -7.080458e+06  -4.330127e+06
  -1.225553e+05  -5.118874e+06
   3.867064e+06  -2.487783e+06
   2.483982e+06   1.009663e+05
  -7.534394e+05   9.742011e+05
  -2.436381e+06   4.018725e+05
  -2.205272e+06  -1.595249e+06
  -5.654838e+05  -4.056142e+06
   1.911462e+06  -3.858381e+06
   3.212137e+06   1.853851e+05
   1.625292e+06   3.682265e+06
  -7.854348e+05   1.863900e+06
  -2.413037e+05  -2.563833e+06
   2.573976e+06  -2.335255e+06
   2.472893e+06   3.267159e+06
  -2.479526e+06   6.209126e+06
  -6.992633e+06   9.888124e+05
  -5.094267e+06  -7.039041e+06
   2.006838e+06  -8.604710e+06
   7.552800e+06  -2.356344e+06
   7.041686e+06   4.631602e+06
   1.832672e+06   6.206061e+06
  -3.597236e+06   2.755575e+06
  -5.400471e+06  -1.618144e+06
  -2.480210e+06  -3.606117e+06
   2.465835e+06  -2.233214e+06
   4.604438e+06   9.764853e+05
   1.973624e+06   2.784840e+06
  -1.756303e+06   1.376412e+06
  -1.784839e+06  -1.075792e+06
   1.327639e+06  -9.685422e+05
   2.532058e+06   1.743023e+06
  -5.724594e+05   3.463083e+06
  -4.654973e+06   1.917235e+06
  -5.377775e+06  -1.386745e+06
  -2.333268e+06  -4.051358e+06
   1.931811e+06  -5.333104e+06
   5.230110e+06  -4.841234e+06
   6.357249e+06  -1.650845e+06
   4.590650e+06   3.311468e+06
   8.437033e+05   6.322401e+06
  -1.961900e+06   4.878381e+06
  -1.820536e+06   1.288940e+06
  -2.255232e+05  -2.101663e+05
  -8.136807e+04   9.913753e+05
  -1.735623e+06   1.743296e+06
  -2.894591e+06   1.202811e+05
  -2.011515e+06  -2.080639e+06
   6.809746e+04  -2.229443e+06
   1.650370e+06  -1.553839e+05
   1.700021e+06   2.219414e+06
  -7.291359e+04   3.041556e+06
  -2.886789e+06   1.627372e+06
  -4.548314e+06  -1.327258e+06
  -3.210045e+06  -3.899248e+06
   1.076269e+05  -4.296479e+06
   2.346765e+06  -2.728921e+06
   2.280978e+06  -1.143984e+06
   1.894839e+06  -6.972436e+05
   3.058330e+06  -4.577648e+05
   4.494488e+06   8.641812e+05
   3.562890e+06   2.936217e+06
   4.992038e+04   4.290463e+06
  -3.421746e+06   3.979289e+06
  -4.387810e+06   2.093216e+06
  -2.736528e+06  -5.147224e+05
  -2.104656e+05  -2.325333e+06
   1.199197e+06  -1.968710e+06
   5.792076e+05   5.517477e+04
  -1.165050e+06   1.331586e+06
  -1.985702e+06   3.743132e+05
  -9.247365e+05  -1.264311e+06
   5.697079e+05  -1.146331e+06
   4.516497e+05   4.186687e+05
  -1.114845e+06   7.337561e+05
  -1.927626e+06  -1.332428e+06
  -6.530377e+05  -3.630740e+06
   1.687159e+06  -3.563785e+06
   3.301259e+06  -1.150349e+06
   3.452674e+06   1.561041e+06
   2.333111e+06   2.950067e+06
   4.123154e+05   2.749498e+06
  -1.333879e+06   1.495981e+06
  -1.651933e+06   1.953646e+05
  -5.134654e+05  -5.929916e+04
   3.569579e+05   7.928983e+05
  -4.558581e+05   1.388575e+06
  -1.996413e+06   5.648834e+05
  -2.104095e+06  -9.644401e+05
  -3.767856e+05  -1.485390e+06
   1.236432e+06  -5.718855e+05
   9.218673e+05   5.000603e+05
  -9.036346e+05   5.320660e+05
  -2.284043e+06  -3.853038e+05
  -1.798964e+06  -1.470073e+06
   3.098439e+05  -2.064603e+06
   2.457716e+06  -1.676098e+06
   2.906972e+06  -2.197753e+05
   1.244106e+06   1.348042e+06
  -9.894203e+05   1.546106e+06
  -1.629164e+06   1.661090e+05
  -1.855667e+05  -1.128610e+06
   1.600578e+06  -7.344748e+05
   1.780148e+06   8.571428e+05
   3.162388e+05   1.739692e+06
  -1.167429e+06   1.000989e+06
  -1.312942e+06  -3.550216e+05
  -2.418018e+05  -8.257784e+05
   8.331710e+05  -4.048815e+04
   7.445412e+05   1.117798e+06
  -6.363554e+05   1.473773e+06
  -2.111388e+06   5.183859e+05
  -2.103050e+06  -1.146342e+06
  -3.526912e+05  -2.179193e+06
   1.545289e+06  -1.685862e+06
   1.812841e+06  -1.797225e+05
   5.062135e+05   9.222452e+05
  -7.089906e+05   8.256154e+05
  -6.643978e+05   6.260783e+04
   1.370489e+05  -3.766202e+05
   5.243769e+05  -2.028498e+05
   1.264791e+05   7.930103e+04
  -4.727539e+05  -8.665611e+04
  -5.303397e+05  -7.173503e+05
   2.443718e+05  -1.240092e+06
   1.469042e+06  -9.038270e+05
   2.168099e+06   4.840155e+05
   1.485695e+06   2.068313e+06
  -2.859261e+05   2.527282e+06
  -1.726757e+06   1.438173e+06
  -1.767153e+06  -1.759800e+05
  -8.730738e+05  -9.640012e+05
  -3.090399e+05  -6.925893e+05
  -4.884238e+05  -2.382147e+05
  -6.488609e+05  -3.383249e+05
  -7.897648e+04  -8.008398e+05
   9.399938e+05  -9.222622e+05
   1.525659e+06  -3.023545e+05
   1.078892e+06   7.855858e+05
  -3.020936e+05   1.522815e+06
  -1.830369e+06   1.078369e+06
  -2.339788e+06  -5.626201e+05
  -1.134681e+06  -2.226270e+06
   1.113758e+06  -2.452749e+06
   2.686780e+06  -1.018959e+06
   2.446152e+06   7.489295e+05
   9.668422e+05   1.428635e+06
  -2.433322e+05   9.864794e+05
  -4.235046e+05   5.206502e+05
  -9.910196e+04   7.800984e+05
  -1.355240e+05   1.361825e+06
  -7.292646e+05   1.332816e+06
  -1.359836e+06   3.044279e+05
  -1.373174e+06  -1.160520e+06
  -5.373903e+05  -1.993938e+06
   6.841029e+05  -1.487802e+06
   1.344877e+06   3.357935e+04
   8.199321e+05   1.363059e+06
  -4.424011e+05   1.453325e+06
  -1.229593e+06   3.982475e+05
  -8.363203e+05  -7.498651e+05
   1.530470e+05  -1.125979e+06
   5.818332e+05  -8.088998e+05
   1.011545e+05  -4.340724e+05
  -4.449387e+05  -3.603294e+05
  -5.348581e+04  -4.018426e+05
   1.207856e+06  -1.934570e+05
   2.151912e+06   3.951456e+05
   1.668206e+06   1.123431e+06
  -7.330326e+04   1.503337e+06
  -1.690124e+06   1.158886e+06
  -1.924720e+06   2.469650e+05
  -8.628821e+05  -5.398490e+05
   2.859083e+05  -5.915652e+05
   5.381363e+05  -2.295611e+04
   2.530705e+04   4.423113e+05
  -4.676407e+05   2.602446e+05
  -4.968081e+05  -3.681126e+05
  -2.517221e+05  -7.588445e+05
  -9.292949e+04  -5.009888e+05
  -1.473128e+05   9.325314e+04
  -2.982646e+05   2.941922e+05
  -2.820336e+05  -2.507538e+05
   1.694814e+05  -1.026305e+06
   9.646722e+05  -1.095675e+06
   1.432260e+06  -1.584773e+05
   8.765581e+05   9.726618e+05
  -4.571926e+05   1.187438e+06
  -1.324586e+06   3.322148e+05
  -7.555538e+05  -6.134065e+05
   7.513167e+05  -6.621370e+05
   1.658480e+06   1.412175e+05
   1.024877e+06   9.314031e+05
  -5.377590e+05   1.020773e+06
  -1.580848e+06   4.559977e+05
  -1.281143e+06  -2.357547e+05
  -1.242058e+05  -5.405976e+05
   6.878597e+05  -2.633831e+05
   3.989136e+05   3.181411e+05
  -6.183011e+05   5.377597e+05
  -1.236474e+06  -1.015879e+05
  -6.876413e+05  -1.244572e+06
   6.390325e+05  -1.773797e+06
   1.564556e+06  -9.055132e+05
   1.300830e+06   8.134325e+05
   1.779983e+05   1.877716e+06
  -8.026459e+05   1.334179e+06
  -9.643021e+05  -2.122796e+05
  -4.183429e+05  -1.259613e+06
   2.625381e+05  -1.005211e+06
   5.944688e+05  -7.164922e+04
   4.711933e+05   4.041413e+05
   1.580766e+05   1.453061e+05
   5.704346e+04  -9.622925e+04
   3.023233e+05   3.201717e+05
   5.201558e+05   1.024614e+06
   1.651416e+05   1.132317e+06
  -7.712552e+05   3.983502e+05
  -1.533196e+06  -5.161677e+05
  -1.311335e+06  -9.032230e+05
  -1.785393e+05  -7.383080e+05
   8.899799e+05  -4.232264e+05
   1.030336e+06  -1.668352e+05
   3.878984e+05   6.902937e+04
  -1.515587e+05   2.347226e+05
  -5.690010e+04   2.079284e+05
   2.585792e+05   9.600225e+04
   5.719523e+04   1.388805e+05
  -6.785961e+05   2.417505e+05
  -1.098956e+06  -2.316689e+04
  -4.691979e+05  -7.338413e+05
   8.825816e+05  -1.231897e+06
   1.805265e+06  -7.818234e+05
   1.495954e+06   4.611809e+05
   2.752914e+05   1.474915e+06
  -8.293432e+05   1.438063e+06
  -1.108195e+06   5.625865e+05
  -6.806234e+05  -2.421485e+05
  -1.437491e+05  -3.776311e+05
   5.700484e+04  -7.951173e+04
  -9.253136e+04   3.204926e+03
  -3.007319e+05  -3.966288e+05
  -2.395505e+05  -8.517317e+05
   1.926377e+05  -7.142154e+05
   7.081205e+05   1.213654e+05
   7.756046e+05   9.921576e+05
   1.332016e+05   1.084646e+06
  -7.786614e+05   2.718585e+05
  -1.083843e+06  -7.473414e+05
  -3.678721e+05  -1.147430e+06
   7.513437e+05  -7.190466e+05
   1.183215e+06   8.389949e+04
   5.638773e+05   6.628982e+05
  -3.093907e+05   7.282681e+05
  -4.199748e+05   3.870863e+05
   2.390924e+05   5.244636e+03
   6.764088e+05  -3.715472e+04
   1.576523e+05   3.284760e+05
  -8.738289e+05   6.999664e+05
  -1.345442e+06   5.375553e+05
  -8.189381e+05  -2.100914e+05
   1.083410e+05  -9.191823e+05
   6.065325e+05  -9.014625e+05
   4.686568e+05  -1.813551e+05
   6.240612e+04   4.941153e+05
  -2.508700e+05   4.658567e+05
  -3.660730e+05  -1.387372e+05
  -2.640791e+05  -6.073454e+05
   5.344985e+04  -4.653556e+05
   4.103508e+05   4.183602e+04
   5.037295e+05   3.123406e+05
   2.541947e+05   1.157472e+05
  -4.511553e+04  -1.728419e+05
  -8.794307e+04  -7.816932e+04
   3.640900e+04   3.571841e+05
  -1.710201e+04   5.972117e+05
  -3.225321e+05   2.626793e+05
  -5.035293e+05  -3.767735e+05
  -1.950076e+05  -6.764327e+05
   4.201740e+05  -3.365741e+05
   7.082712e+05   2.842900e+05
   2.722366e+05   5.950858e+05
  -5.415844e+05   3.829032e+05
  -9.377287e+05  -7.617764e+04
  -5.061118e+05  -3.992316e+05
   3.107068e+05  -4.336410e+05
   6.773692e+05  -2.542845e+05
   2.795450e+05  -2.144480e+04
  -3.397442e+05   8.565621e+04
  -4.172408e+05  -4.606131e+04
   1.596387e+05  -2.894155e+05
   7.501314e+05  -2.795721e+05
