
 $NMID
 id='ANONYMOUS ', fmtdat='(2E16.6)'
 volume=1.0
 tramp=1.0
 $END
   3.395074e+07  -7.494216e+05
   2.236582e+07   1.734906e+07
  -1.121098e+06   2.216642e+07
  -1.520990e+07   1.271304e+07
  -1.160681e+07  -3.820378e+05
   8.661823e+04  -6.007014e+06
   6.590906e+06  -1.861429e+06
   4.103683e+06   5.587114e+06
  -2.235903e+06   8.162143e+06
  -6.172344e+06   3.281245e+06
  -5.164022e+06  -4.088930e+06
  -7.468802e+05  -6.466204e+06
   2.959630e+06  -1.607137e+06
   2.355139e+06   4.976322e+06
  -2.005078e+06   5.986834e+06
  -5.412194e+06   2.547633e+05
  -3.854552e+06  -6.462413e+06
   1.636871e+06  -8.084733e+06
   6.298898e+06  -4.024312e+06
   6.632003e+06   1.572295e+06
   3.333315e+06   4.608586e+06
  -6.137856e+04   4.264849e+06
  -6.393226e+05   2.638403e+06
   1.263320e+06   2.258753e+06
   2.281787e+06   3.617344e+06
  -4.743681e+05   4.672528e+06
  -5.591223e+06   3.139318e+06
  -8.057105e+06  -6.130310e+05
  -4.844174e+06  -3.621768e+06
   1.125424e+06  -3.514223e+06
   4.049973e+06  -9.063096e+05
   1.776140e+06   1.605904e+06
  -2.335493e+06   1.983805e+06
  -3.901555e+06   8.441733e+03
  -2.106067e+06  -2.833641e+06
   6.185865e+05  -4.100224e+06
   1.878612e+06  -2.261695e+06
   1.249457e+06   1.141019e+06
  -9.473080e+04   2.345053e+06
  -5.690506e+05  -1.958562e+05
   5.444551e+05  -3.200216e+06
   2.164479e+06  -2.350978e+06
   2.129594e+06   1.780923e+06
  -3.355117e+05   4.008545e+06
  -3.119821e+06   1.186743e+06
  -3.078574e+06  -3.643044e+06
   4.656367e+05  -5.072614e+06
   4.629055e+06  -1.715649e+06
   5.623869e+06   2.858774e+06
   2.371976e+06   4.629740e+06
  -2.448498e+06   2.846449e+06
  -4.782323e+06  -3.496766e+05
  -2.864916e+06  -2.353040e+06
   1.127818e+06  -1.938944e+06
   3.232401e+06   7.794197e+04
   1.770686e+06   1.550584e+06
  -1.007055e+06   1.040606e+06
  -1.719292e+06  -6.123864e+05
   1.525267e+05  -1.293405e+06
   1.880830e+06  -1.742006e+05
   1.001552e+06   1.415511e+06
  -1.749989e+06   1.690394e+06
  -3.407494e+06   1.998203e+05
  -2.038356e+06  -2.144772e+06
   1.469966e+06  -3.891693e+06
   4.488663e+06  -3.645817e+06
   4.992980e+06  -9.344919e+05
   3.047701e+06   2.802188e+06
   4.707479e+05   4.902705e+06
  -9.132457e+05   4.097883e+06
  -8.858503e+05   1.965151e+06
  -7.155939e+05   9.148977e+05
  -1.446219e+06   1.172438e+06
  -2.609331e+06   8.746513e+05
  -2.836072e+06  -9.525941e+05
  -1.466313e+06  -2.785398e+06
   7.329218e+05  -2.488009e+06
   2.232590e+06  -4.633008e+03
   1.884276e+06   2.517874e+06
  -2.404199e+05   2.958256e+06
  -2.680928e+06   1.091126e+06
  -3.513633e+06  -1.519422e+06
  -2.079841e+06  -3.030938e+06
   2.197823e+05  -2.796513e+06
   1.409865e+06  -1.676356e+06
   1.233156e+06  -9.679478e+05
   1.286911e+06  -9.901822e+05
   2.644628e+06  -8.448719e+05
   4.088410e+06   3.868499e+05
   3.420456e+06   2.443917e+06
   2.603572e+05   4.004193e+06
  -3.183095e+06   3.836469e+06
  -4.270811e+06   1.822501e+06
  -2.497379e+06  -8.343154e+05
   2.023757e+05  -2.330149e+06
   1.432478e+06  -1.682807e+06
   5.007408e+05   1.955775e+05
  -1.193183e+06   1.213672e+06
  -1.744885e+06   3.546742e+05
  -6.892560e+05  -1.086627e+06
   6.512457e+05  -1.115516e+06
   7.177494e+05   3.251808e+05
  -5.818545e+05   1.161378e+06
  -1.837717e+06  -1.809027e+05
  -1.608999e+06  -2.689886e+06
   2.681222e+05  -3.834399e+06
   2.621649e+06  -2.332140e+06
   3.846150e+06   6.467937e+05
   3.028613e+06   2.832196e+06
   7.116703e+05   2.942479e+06
  -1.350358e+06   1.517918e+06
  -1.661204e+06   1.416189e+05
  -4.924236e+05  -4.039353e+04
   3.799109e+05   7.296821e+05
  -2.739507e+05   1.216828e+06
  -1.654902e+06   5.922409e+05
  -1.925645e+06  -6.373649e+05
  -5.169225e+05  -1.236835e+06
   1.094653e+06  -6.555705e+05
   1.064677e+06   4.119055e+05
  -7.092094e+05   8.208813e+05
  -2.420801e+06   7.666047e+04
  -2.205051e+06  -1.312197e+06
  -1.313435e+04  -2.267491e+06
   2.318254e+06  -1.927343e+06
   2.810223e+06  -3.950095e+05
   1.212306e+06   1.133807e+06
  -8.083079e+05   1.341225e+06
  -1.348558e+06   1.747741e+05
  -1.123783e+05  -9.618473e+05
   1.453032e+06  -7.198221e+05
   1.742681e+06   6.498180e+05
   5.477159e+05   1.617892e+06
  -9.189735e+05   1.178890e+06
  -1.315248e+06  -6.233910e+04
  -4.273613e+05  -7.002255e+05
   6.825176e+05  -1.062272e+05
   7.035064e+05   1.002913e+06
  -5.971688e+05   1.391549e+06
  -2.005820e+06   5.055548e+05
  -2.007240e+06  -1.045710e+06
  -4.145628e+05  -2.028132e+06
   1.335265e+06  -1.658544e+06
   1.687103e+06  -3.130381e+05
   5.929626e+05   8.171013e+05
  -6.002827e+05   8.632099e+05
  -7.356217e+05   7.760006e+04
   2.351357e+04  -5.501024e+05
   6.386897e+05  -4.113262e+05
   4.289052e+05   1.163643e+05
  -2.933487e+05   1.973334e+05
  -6.235201e+05  -4.468819e+05
   2.954451e+04  -1.152676e+06
   1.306045e+06  -9.633525e+05
   2.084956e+06   3.451847e+05
   1.487382e+06   1.903113e+06
  -1.789749e+05   2.469435e+06
  -1.620613e+06   1.585422e+06
  -1.840923e+06   1.214178e+04
  -1.090642e+06  -1.017748e+06
  -3.954421e+05  -9.731621e+05
  -3.118758e+05  -4.109586e+05
  -4.313555e+05  -2.261434e+05
  -7.658731e+04  -6.305537e+05
   7.960416e+05  -9.574678e+05
   1.488149e+06  -4.633435e+05
   1.218344e+06   7.438854e+05
  -1.259973e+05   1.642535e+06
  -1.729470e+06   1.233273e+06
  -2.337869e+06  -4.097909e+05
  -1.278801e+06  -2.055506e+06
   8.136795e+05  -2.383482e+06
   2.416705e+06  -1.196477e+06
   2.454663e+06   4.490289e+05
   1.223321e+06   1.321601e+06
  -6.227700e+04   1.158305e+06
  -5.271278e+05   7.062378e+05
  -3.278454e+05   7.326764e+05
  -2.101369e+05   1.151629e+06
  -6.063725e+05   1.183623e+06
  -1.210916e+06   3.016398e+05
  -1.321929e+06  -1.081410e+06
  -5.674232e+05  -1.906675e+06
   6.271866e+05  -1.455031e+06
   1.310512e+06  -5.197399e+04
   8.847722e+05   1.199918e+06
  -2.432798e+05   1.398034e+06
  -1.016994e+06   5.782892e+05
  -8.109872e+05  -4.566396e+05
  -5.466475e+04  -9.554124e+05
   3.250048e+05  -8.247433e+05
  -2.572221e+03  -5.022018e+05
  -4.026336e+05  -3.752202e+05
  -4.118765e+04  -4.027566e+05
   1.081268e+06  -2.566000e+05
   1.981039e+06   2.582652e+05
   1.641351e+06   9.467683e+05
   1.095091e+05   1.349990e+06
  -1.432937e+06   1.131215e+06
  -1.785206e+06   3.997677e+05
  -8.939712e+05  -3.182137e+05
   1.867100e+05  -4.992953e+05
   4.701116e+05  -1.102859e+05
  -1.265072e+04   3.232173e+05
  -4.950902e+05   2.357318e+05
  -4.692402e+05  -3.408164e+05
  -1.420809e+05  -7.578189e+05
   1.163046e+04  -4.879534e+05
  -1.518351e+05   1.813135e+05
  -3.722149e+05   4.016901e+05
  -3.042405e+05  -2.164098e+05
   1.892336e+05  -1.036176e+06
   8.843111e+05  -1.062907e+06
   1.225451e+06  -1.161205e+05
   7.279105e+05   9.124326e+05
  -4.018140e+05   1.039482e+06
  -1.179100e+06   2.404021e+05
  -7.272719e+05  -6.069916e+05
   6.682008e+05  -6.885698e+05
   1.659146e+06   7.254548e+03
   1.189560e+06   8.276650e+05
  -3.578390e+05   1.108409e+06
  -1.543381e+06   6.753060e+05
  -1.360636e+06  -8.776392e+04
  -2.051854e+05  -5.480041e+05
   6.400074e+05  -3.396043e+05
   3.547539e+05   2.539907e+05
  -6.402185e+05   4.769528e+05
  -1.185299e+06  -1.563467e+05
  -5.846418e+05  -1.232177e+06
   7.050328e+05  -1.683928e+06
   1.555156e+06  -8.318414e+05
   1.276301e+06   8.025878e+05
   2.058934e+05   1.848956e+06
  -7.457050e+05   1.388632e+06
  -9.690162e+05  -9.830536e+04
  -5.291530e+05  -1.203535e+06
   1.185795e+05  -1.049041e+06
   5.449476e+05  -1.338059e+05
   5.500600e+05   3.988674e+05
   2.457661e+05   1.657063e+05
   1.938042e+04  -1.228891e+05
   1.783944e+05   2.423825e+05
   4.888617e+05   9.576259e+05
   2.993804e+05   1.119777e+06
  -6.190525e+05   4.306893e+05
  -1.527383e+06  -4.639442e+05
  -1.404668e+06  -8.446002e+05
  -2.071496e+05  -6.934339e+05
   9.439808e+05  -4.254078e+05
   1.033268e+06  -2.238349e+05
   3.059757e+05   3.712352e+03
  -1.762654e+05   2.227992e+05
   5.323326e+04   2.567131e+05
   3.643964e+05   1.481841e+05
   1.542940e+04   1.404171e+05
  -7.736214e+05   2.053317e+05
  -1.054084e+06  -3.593252e+04
  -3.062571e+05  -6.846804e+05
   9.411107e+05  -1.143696e+06
   1.664421e+06  -7.078631e+05
   1.322021e+06   4.857452e+05
   2.461846e+05   1.446523e+06
  -7.528641e+05   1.372158e+06
  -1.064109e+06   4.876885e+05
  -6.796904e+05  -2.866277e+05
  -9.759566e+04  -3.621127e+05
   1.486498e+05  -1.226896e+04
  -5.489958e+04   7.926448e+04
  -3.493856e+05  -3.475790e+05
  -2.892974e+05  -8.228394e+05
   1.992772e+05  -6.720282e+05
   7.094282e+05   1.824747e+05
   6.992326e+05   1.024680e+06
   2.292050e+04   1.037700e+06
  -8.158211e+05   1.689612e+05
  -1.023724e+06  -8.087240e+05
  -2.994115e+05  -1.102541e+06
   7.375863e+05  -6.268569e+05
   1.095872e+06   9.915166e+04
   4.944284e+05   5.647318e+05
  -2.843044e+05   6.140690e+05
  -3.170396e+05   3.579956e+05
   3.258957e+05   4.021118e+04
   6.803006e+05  -2.726268e+04
   1.234865e+05   2.981563e+05
  -8.400569e+05   7.011438e+05
  -1.218363e+06   6.077414e+05
  -7.021889e+05  -1.196923e+05
   1.041059e+05  -8.543098e+05
   4.956892e+05  -8.417631e+05
   3.572848e+05  -1.123702e+05
   1.420477e+04   5.171854e+05
  -2.566535e+05   4.020227e+05
  -3.606546e+05  -2.161121e+05
  -2.474172e+05  -5.897490e+05
   7.044544e+04  -3.734102e+05
   3.940408e+05   7.486876e+04
   4.613239e+05   2.389602e+05
   2.468477e+05   5.675678e+04
  -2.503867e+03  -9.983311e+04
  -8.562545e+04   6.366081e+04
  -8.145790e+04   4.000250e+05
  -1.804184e+05   4.833865e+05
  -3.636352e+05   9.976952e+04
  -3.754835e+05  -4.631867e+05
  -4.057838e+04  -6.666298e+05
   4.486360e+05  -2.855560e+05
   6.298562e+05   3.284019e+05
   2.224489e+05   6.095955e+05
  -4.966961e+05   3.614312e+05
  -8.574563e+05  -1.073836e+05
  -4.666711e+05  -3.862311e+05
   2.984233e+05  -3.568755e+05
   6.311204e+05  -1.702210e+05
   2.027693e+05  -8.765641e+03
  -4.232754e+05   1.390571e+04
  -4.410102e+05  -1.400290e+05
   2.318108e+05  -3.383308e+05
   8.535188e+05  -2.693454e+05
