
 $NMID
 id='ANONYMOUS ', fmtdat='(2E16.6)'
 volume=1.0
 tramp=1.0
 $END
   9.340589e+06   1.714234e+06
   4.342593e+06   5.811384e+06
  -1.963107e+06   5.414024e+06
  -4.251555e+06   2.183957e+06
  -2.304730e+06  -6.812187e+05
   4.746160e+05  -1.423080e+06
   1.517633e+06  -2.764048e+05
   7.725564e+05   1.369953e+06
  -6.120771e+05   1.890026e+06
  -1.536538e+06   5.935832e+05
  -1.290347e+06  -1.359507e+06
  -1.584332e+04  -1.894886e+06
   1.082958e+06  -4.006004e+05
   8.453275e+05   1.409780e+06
  -4.306791e+05   1.506867e+06
  -1.259956e+06  -1.265326e+05
  -6.810682e+05  -1.732122e+06
   7.872930e+05  -1.868382e+06
   1.868115e+06  -6.285218e+05
   1.744548e+06   8.931025e+05
   6.082732e+05   1.654918e+06
  -5.404481e+05   1.316006e+06
  -6.722742e+05   4.399061e+05
   2.236967e+05   6.101804e+04
   8.984829e+05   6.143400e+05
   1.613785e+05   1.338046e+06
  -1.538486e+06   1.134741e+06
  -2.427168e+06  -6.060013e+04
  -1.474860e+06  -1.202538e+06
   3.840342e+05  -1.356729e+06
   1.388108e+06  -5.648359e+05
   8.618531e+05   4.366348e+05
  -3.632728e+05   8.743054e+05
  -1.074381e+06   3.693793e+05
  -7.821261e+05  -7.128740e+05
   9.530264e+04  -1.304256e+06
   7.230066e+05  -6.429679e+05
   5.656247e+05   6.172422e+05
  -1.054940e+05   9.680517e+05
  -4.671978e+05  -1.143789e+04
  -9.586906e+04  -9.835699e+05
   4.811735e+05  -6.328728e+05
   4.413610e+05   5.207439e+05
  -2.663538e+05   8.703392e+05
  -8.414724e+05  -8.548589e+04
  -5.798507e+05  -1.190186e+06
   3.880233e+05  -1.228044e+06
   1.293955e+06  -2.722753e+05
   1.413092e+06   7.358034e+05
   5.928525e+05   1.092357e+06
  -5.858539e+05   7.207027e+05
  -1.164102e+06  -2.489347e+04
  -6.528748e+05  -5.688280e+05
   3.807004e+05  -4.654218e+05
   8.524370e+05   1.190871e+05
   3.788079e+05   4.994059e+05
  -3.359062e+05   2.844312e+05
  -4.538387e+05  -1.527585e+05
  -9.735712e+03  -2.466270e+05
   2.935494e+05   1.465078e+04
   4.022586e+04   2.207423e+05
  -4.831896e+05   1.472176e+05
  -7.118591e+05  -1.415710e+05
  -3.466673e+05  -5.733910e+05
   4.654133e+05  -1.000746e+06
   1.227458e+06  -9.930360e+05
   1.396305e+06  -2.293230e+05
   8.499230e+05   8.663057e+05
   8.169287e+04   1.382578e+06
  -2.734689e+05   9.913583e+05
  -1.294396e+05   3.577180e+05
   1.955201e+04   2.408959e+05
  -2.335036e+05   5.296802e+05
  -7.240313e+05   5.146022e+05
  -9.572378e+05  -8.723522e+04
  -6.479999e+05  -7.619563e+05
   4.531865e+04  -8.334090e+05
   6.503477e+05  -2.018752e+05
   6.841074e+05   5.885777e+05
   4.284696e+04   8.633330e+05
  -7.800356e+05   3.902371e+05
  -1.050434e+06  -4.282027e+05
  -5.434559e+05  -9.208117e+05
   1.919119e+05  -7.868584e+05
   4.843082e+05  -3.499344e+05
   3.212184e+05  -1.213127e+05
   2.536260e+05  -2.071202e+05
   5.988727e+05  -2.726471e+05
   1.013642e+06  -8.983648e+03
   9.229822e+05   5.328810e+05
   1.957591e+05   1.025128e+06
  -6.964059e+05   1.113554e+06
  -1.107194e+06   6.409605e+05
  -7.756818e+05  -1.603355e+05
  -5.650804e+04  -7.086078e+05
   3.862612e+05  -5.621172e+05
   2.063500e+05   5.070664e+04
  -2.876722e+05   4.127248e+05
  -5.011343e+05   1.497352e+05
  -2.308518e+05  -3.273778e+05
   1.610007e+05  -3.857602e+05
   2.379832e+05   8.238132e+03
  -3.255230e+04   2.900211e+05
  -3.434378e+05   4.366362e+04
  -3.994169e+05  -5.160570e+05
  -1.005610e+05  -8.382544e+05
   4.414280e+05  -6.154048e+05
   8.983054e+05  -8.858500e+03
   8.800684e+05   5.504808e+05
   3.279232e+05   7.081094e+05
  -2.989458e+05   4.465207e+05
  -4.542481e+05   9.020918e+04
  -1.316917e+05  -6.208653e+03
   1.390102e+05   1.778585e+05
  -3.370324e+04   3.322709e+05
  -4.307389e+05   2.022225e+05
  -5.365483e+05  -1.193278e+05
  -1.850716e+05  -3.286424e+05
   2.606262e+05  -2.508716e+05
   3.283932e+05   1.810178e+04
  -6.998152e+04   2.282894e+05
  -5.525103e+05   1.666378e+05
  -6.209958e+05  -1.801032e+05
  -1.381470e+05  -5.544674e+05
   5.008104e+05  -5.937780e+05
   7.210427e+05  -2.003503e+05
   3.488877e+05   2.806929e+05
  -2.027744e+05   3.883878e+05
  -3.801581e+05   6.271102e+04
  -6.340166e+04  -2.849256e+05
   3.686648e+05  -2.530183e+05
   4.836419e+05   1.078480e+05
   2.049223e+05   4.003076e+05
  -1.866590e+05   3.442480e+05
  -3.458781e+05   4.499169e+04
  -1.584600e+05  -1.660688e+05
   1.573027e+05  -7.826645e+04
   2.327999e+05   2.072410e+05
  -7.741968e+04   3.803911e+05
  -4.908409e+05   2.159738e+05
  -5.611123e+05  -1.968988e+05
  -1.762622e+05  -5.174467e+05
   3.017941e+05  -4.738809e+05
   4.416714e+05  -1.248821e+05
   1.944024e+05   2.108956e+05
  -1.249006e+05   2.710511e+05
  -2.200184e+05   7.550641e+04
  -7.757102e+04  -1.402917e+05
   1.026176e+05  -1.771815e+05
   1.329984e+05  -5.511381e+04
   2.311993e+02   3.121793e+04
  -1.216754e+05  -6.371725e+04
  -2.775771e+04  -2.510761e+05
   2.806876e+05  -2.732756e+05
   5.318711e+05   1.204260e+04
   4.412379e+05   4.338391e+05
   3.636159e+04   6.460412e+05
  -3.574458e+05   4.726296e+05
  -4.684147e+05   7.738634e+04
  -3.313376e+05  -2.190137e+05
  -1.663823e+05  -2.521917e+05
  -1.018393e+05  -1.276603e+05
  -8.488484e+04  -6.034429e+04
  -6.591180e+03  -1.378766e+05
   1.604780e+05  -2.370692e+05
   3.230208e+05  -1.625501e+05
   3.177122e+05   1.204806e+05
   4.726820e+04   3.938152e+05
  -3.653411e+05   3.683064e+05
  -5.977497e+05  -9.877137e+03
  -4.043329e+05  -4.608061e+05
   1.103487e+05  -6.204847e+05
   5.589655e+05  -3.859854e+05
   6.359070e+05   1.326518e+04
   3.768673e+05   2.726828e+05
   5.840498e+04   2.972841e+05
  -9.496320e+04   2.278913e+05
  -7.943724e+04   2.329772e+05
  -4.893894e+04   3.139961e+05
  -1.343830e+05   3.143521e+05
  -3.041802e+05   1.056079e+05
  -3.791465e+05  -2.407476e+05
  -2.141568e+05  -4.783030e+05
   1.133682e+05  -4.054181e+05
   3.370887e+05  -6.904442e+04
   2.666634e+05   2.647741e+05
  -6.152634e+03   3.526547e+05
  -2.110487e+05   1.792120e+05
  -1.915169e+05  -7.092490e+04
  -4.407682e+04  -2.109440e+05
   3.090339e+04  -2.013014e+05
  -3.396455e+04  -1.304057e+05
  -1.081990e+05  -9.308783e+04
  -1.657250e+04  -1.005347e+05
   2.525816e+05  -8.748195e+04
   4.898463e+05   9.837126e+03
   4.419858e+05   1.776613e+05
   8.207116e+04   3.169272e+05
  -3.169987e+05   3.187938e+05
  -4.344311e+05   1.666960e+05
  -2.294809e+05  -2.914274e+04
   3.500136e+04  -1.157365e+05
   1.014832e+05  -4.255560e+04
  -2.102377e+04   7.503346e+04
  -1.365702e+05   6.916407e+04
  -1.247737e+05  -8.316533e+04
  -4.205929e+04  -2.101842e+05
   2.395991e+03  -1.427074e+05
  -2.251156e+04   5.606202e+04
  -6.995467e+04   1.370578e+05
  -7.260212e+04  -2.908482e+04
   1.784789e+04  -2.667358e+05
   1.810279e+05  -2.897992e+05
   2.897305e+05  -4.578217e+04
   1.954977e+05   2.226314e+05
  -8.165808e+04   2.615808e+05
  -2.965446e+05   7.031867e+04
  -2.046692e+05  -1.429396e+05
   1.465487e+05  -1.934500e+05
   4.232687e+05  -5.850837e+04
   3.413165e+05   1.526143e+05
  -3.407309e+04   2.882208e+05
  -3.565565e+05   2.430445e+05
  -3.523655e+05   4.597667e+04
  -8.192295e+04  -1.299932e+05
   1.449695e+05  -1.174765e+05
   9.417008e+04   5.050216e+04
  -1.594966e+05   1.446637e+05
  -3.196950e+05  -1.191479e+04
  -1.819947e+05  -3.182307e+05
   1.547134e+05  -4.667717e+05
   3.978758e+05  -2.565509e+05
   3.584295e+05   1.798555e+05
   1.071032e+05   4.790018e+05
  -1.437438e+05   3.895724e+05
  -2.457443e+05   1.823597e+04
  -1.851565e+05  -2.805526e+05
  -2.889623e+04  -2.699876e+05
   1.227763e+05  -5.753718e+04
   1.682588e+05   7.526864e+04
   8.684187e+04   2.676170e+04
  -4.732247e+03  -3.389149e+04
   3.133079e+04   6.186254e+04
   1.498701e+05   2.355457e+05
   1.311997e+05   2.746529e+05
  -1.289440e+05   1.215991e+05
  -4.145221e+05  -7.228410e+04
  -4.032829e+05  -1.645239e+05
  -7.259366e+04  -1.668608e+05
   2.452286e+05  -1.454974e+05
   2.606545e+05  -9.775235e+04
   6.187054e+04  -6.800448e+03
  -4.708503e+04   6.758476e+04
   3.845846e+04   6.032369e+04
   1.195329e+05   1.897384e+04
   5.278471e+03   3.745423e+04
  -2.126318e+05   8.413091e+04
  -2.759036e+05   1.841875e+04
  -7.592792e+04  -1.839818e+05
   2.334859e+05  -3.287431e+05
   4.114296e+05  -2.125278e+05
   3.446148e+05   1.134144e+05
   1.005525e+05   3.753430e+05
  -1.539923e+05   3.669535e+05
  -2.662553e+05   1.468698e+05
  -1.925306e+05  -5.753266e+04
  -3.139833e+04  -9.326642e+04
   5.691489e+04  -9.688356e+03
   2.192099e+03   2.798568e+04
  -1.043236e+05  -6.764799e+04
  -1.086465e+05  -1.989753e+05
   3.499205e+04  -1.825235e+05
   2.024188e+05   3.094137e+04
   2.140033e+05   2.637329e+05
   1.846738e+04   2.837809e+05
  -2.300773e+05   6.089530e+04
  -2.961315e+05  -2.003131e+05
  -9.758270e+04  -2.859284e+05
   1.855522e+05  -1.736826e+05
   2.824468e+05   4.719396e+03
   1.279073e+05   1.269711e+05
  -6.353831e+04   1.521017e+05
  -5.988757e+04   9.128431e+04
   1.034419e+05  -1.168254e+03
   1.796804e+05  -2.591691e+04
   3.245847e+04   7.483133e+04
  -1.978876e+05   2.080877e+05
  -2.809129e+05   1.935164e+05
  -1.644358e+05  -1.258076e+04
   9.430687e+03  -2.219709e+05
   9.880064e+04  -2.175394e+05
   8.366800e+04  -1.748877e+04
   1.427790e+04   1.454930e+05
  -6.425038e+04   1.052272e+05
  -1.095958e+05  -5.851207e+04
  -7.867350e+04  -1.485705e+05
   2.049774e+04  -9.051293e+04
   1.091104e+05   1.442396e+04
   1.162806e+05   4.488969e+04
   5.938288e+04   1.206088e+03
   9.792664e+03  -2.104590e+04
  -4.500016e+03   3.854912e+04
  -2.068880e+04   1.283933e+05
  -6.923180e+04   1.374047e+05
  -1.186610e+05   1.949622e+04
  -1.059814e+05  -1.390475e+05
  -7.875920e+03  -1.921954e+05
   1.202126e+05  -8.488856e+04
   1.705042e+05   8.331896e+04
   7.187943e+04   1.619368e+05
  -1.167273e+05   1.022688e+05
  -2.232010e+05  -1.588682e+04
  -1.290470e+05  -9.132341e+04
   7.595337e+04  -9.273440e+04
   1.673359e+05  -4.758585e+04
   4.540792e+04   3.585276e+03
  -1.328904e+05   1.771939e+04
  -1.371740e+05  -3.437606e+04
   5.554028e+04  -1.132699e+05
   2.351151e+05  -1.082744e+05
