
 $NMID
 id='ANONYMOUS ', fmtdat='(2E16.6)'
 volume=1.0
 tramp=1.0
 $END
  -5.887399e+07   9.720248e+05
  -3.576490e+07  -3.650004e+07
   7.657360e+06  -4.017911e+07
   2.886110e+07  -1.514384e+07
   1.709685e+07   7.747322e+06
  -3.632827e+06   9.785901e+06
  -1.020862e+07  -1.558367e+06
  -2.661297e+06  -1.023901e+07
   6.593439e+06  -9.440464e+06
   1.000669e+07  -1.895205e+06
   7.262914e+06   6.294268e+06
   9.654678e+05   8.753124e+06
  -4.025814e+06   2.960927e+06
  -2.714207e+06  -5.325958e+06
   3.869126e+06  -6.544245e+06
   8.140459e+06   1.446120e+06
   4.618601e+06   1.053248e+07
  -3.857290e+06   1.222381e+07
  -1.041509e+07   6.274835e+06
  -1.131288e+07  -1.875402e+06
  -7.192490e+06  -7.673238e+06
  -9.957425e+05  -9.203761e+06
   3.127442e+06  -6.591745e+06
   2.347190e+06  -2.758396e+06
  -8.701278e+05  -1.807193e+06
  -4.533188e+05  -3.945218e+06
   5.118717e+06  -4.597100e+06
   9.666573e+06  -8.765099e+05
   7.339753e+06   3.964802e+06
   6.115614e+05   5.201909e+06
  -3.493263e+06   2.885396e+06
  -2.527194e+06   3.708402e+05
   2.567210e+05  -7.165184e+05
   1.901549e+06  -5.924888e+05
   2.160567e+06   1.099300e+06
   9.774340e+05   3.772253e+06
  -1.664661e+06   4.070567e+06
  -3.507479e+06   1.591274e+05
  -2.074515e+06  -3.731370e+06
   7.397368e+05  -2.279373e+06
   5.343694e+05   2.237537e+06
  -2.407666e+06   2.273788e+06
  -2.507931e+06  -3.325091e+06
   2.618526e+06  -6.415871e+06
   7.442130e+06  -1.109301e+06
   5.499685e+06   7.227819e+06
  -1.945167e+06   8.965915e+06
  -7.683315e+06   2.629389e+06
  -7.090281e+06  -4.489220e+06
  -1.810648e+06  -6.099925e+06
   3.530362e+06  -2.684272e+06
   5.246439e+06   1.611488e+06
   2.350162e+06   3.576610e+06
  -2.551343e+06   2.248767e+06
  -4.672609e+06  -9.638611e+05
  -1.992536e+06  -2.835221e+06
   1.775829e+06  -1.435872e+06
   1.723594e+06   1.049330e+06
  -1.486612e+06   8.680675e+05
  -2.574448e+06  -2.006007e+06
   8.058250e+05  -3.745612e+06
   4.987192e+06  -1.999011e+06
   5.542086e+06   1.495529e+06
   2.389051e+06   4.162312e+06
  -1.721119e+06   5.402736e+06
  -4.884125e+06   5.012181e+06
  -6.212289e+06   1.956022e+06
  -4.792855e+06  -3.051834e+06
  -1.115625e+06  -6.225237e+06
   1.906892e+06  -4.813258e+06
   1.873397e+06  -1.093618e+06
   8.317669e+04   4.651729e+05
  -3.087700e+05  -8.994599e+05
   1.340383e+06  -1.927815e+06
   2.726569e+06  -4.991302e+05
   2.110834e+06   1.693606e+06
   1.968162e+05   2.033528e+06
  -1.395686e+06   2.610572e+05
  -1.640480e+06  -1.926996e+06
  -9.735224e+04  -2.868464e+06
   2.688571e+06  -1.768601e+06
   4.559401e+06   1.020944e+06
   3.421388e+06   3.740676e+06
   7.943092e+04   4.386958e+06
  -2.326380e+06   2.887445e+06
  -2.343310e+06   1.186619e+06
  -1.884958e+06   6.459002e+05
  -2.930626e+06   4.514636e+05
  -4.321590e+06  -7.452655e+05
  -3.472675e+06  -2.717748e+06
  -1.673150e+05  -4.069888e+06
   3.089904e+06  -3.885901e+06
   4.042774e+06  -2.198798e+06
   2.641519e+06   2.929518e+05
   3.950579e+05   2.168123e+06
  -9.876779e+05   1.962893e+06
  -5.681582e+05   5.733006e+03
   1.027169e+06  -1.323313e+06
   1.901334e+06  -4.346699e+05
   9.733328e+05   1.191479e+06
  -4.667013e+05   1.106903e+06
  -3.758477e+05  -3.896620e+05
   1.133540e+06  -6.205245e+05
   1.859955e+06   1.446051e+06
   5.098895e+05   3.579784e+06
  -1.775033e+06   3.309965e+06
  -3.185011e+06   9.079607e+05
  -3.175691e+06  -1.537336e+06
  -2.124482e+06  -2.678776e+06
  -4.261624e+05  -2.497569e+06
   1.179864e+06  -1.444770e+06
   1.533514e+06  -2.622942e+05
   4.869481e+05   4.024927e+04
  -3.606956e+05  -7.405514e+05
   4.140543e+05  -1.356133e+06
   1.924895e+06  -6.001154e+05
   2.046550e+06   8.962218e+05
   3.781180e+05   1.432951e+06
  -1.164043e+06   5.665236e+05
  -8.476551e+05  -4.454681e+05
   8.613225e+05  -4.599790e+05
   2.105085e+06   3.753803e+05
   1.637371e+06   1.329366e+06
  -2.797765e+05   1.884886e+06
  -2.255582e+06   1.602144e+06
  -2.726872e+06   2.798302e+05
  -1.222625e+06  -1.262111e+06
   9.081841e+05  -1.533781e+06
   1.585151e+06  -2.163820e+05
   2.370608e+05   1.089509e+06
  -1.500668e+06   7.548936e+05
  -1.704961e+06  -7.781004e+05
  -3.093009e+05  -1.639386e+06
   1.107906e+06  -9.376500e+05
   1.238151e+06   3.481139e+05
   2.154963e+05   7.904745e+05
  -8.104607e+05   5.722792e+04
  -7.504697e+05  -1.038103e+06
   5.412924e+05  -1.420037e+06
   1.973283e+06  -5.730533e+05
   2.031805e+06   1.008620e+06
   4.017816e+05   2.055995e+06
  -1.425857e+06   1.641570e+06
  -1.715922e+06   2.072473e+05
  -4.895911e+05  -8.668656e+05
   6.539824e+05  -7.917842e+05
   6.021257e+05  -8.480070e+04
  -1.345890e+05   3.130729e+05
  -4.478389e+05   1.631021e+05
  -4.786032e+04  -5.305895e+04
   4.824207e+05   1.349747e+05
   4.953830e+05   7.119002e+05
  -2.315520e+05   1.183666e+06
  -1.371857e+06   8.855525e+05
  -2.060413e+06  -3.977635e+05
  -1.467955e+06  -1.909241e+06
   1.909747e+05  -2.383226e+06
   1.577648e+06  -1.375755e+06
   1.636521e+06   1.377282e+05
   8.015202e+05   8.497467e+05
   2.984767e+05   5.657266e+05
   5.097146e+05   1.632461e+05
   6.691815e+05   3.190858e+05
   1.030017e+05   7.840709e+05
  -8.742396e+05   8.860683e+05
  -1.416134e+06   3.028882e+05
  -1.001661e+06  -6.970287e+05
   2.616451e+05  -1.399905e+06
   1.685076e+06  -1.040457e+06
   2.203601e+06   4.666039e+05
   1.112822e+06   2.070043e+06
  -1.012036e+06   2.347148e+06
  -2.528796e+06   1.014399e+06
  -2.308092e+06  -6.716196e+05
  -8.977507e+05  -1.316806e+06
   2.281532e+05  -8.869323e+05
   3.465686e+05  -4.597232e+05
   6.370965e+03  -7.467171e+05
   5.629955e+04  -1.328571e+06
   6.584231e+05  -1.308213e+06
   1.292909e+06  -3.381995e+05
   1.340349e+06   1.047052e+06
   5.746357e+05   1.859954e+06
  -5.919732e+05   1.424109e+06
  -1.264003e+06   2.983487e+03
  -8.033352e+05  -1.276872e+06
   4.021812e+05  -1.385177e+06
   1.179874e+06  -3.759549e+05
   8.129756e+05   7.362070e+05
  -1.490242e+05   1.094968e+06
  -5.709772e+05   7.714457e+05
  -1.006448e+05   3.920217e+05
   4.393745e+05   3.155817e+05
   6.841894e+04   3.724394e+05
  -1.148430e+06   2.119981e+05
  -2.062365e+06  -3.167980e+05
  -1.606397e+06  -1.023069e+06
   5.232163e+04  -1.439934e+06
   1.591726e+06  -1.153499e+06
   1.818117e+06  -2.705938e+05
   8.173774e+05   5.210522e+05
  -2.678090e+05   5.841239e+05
  -5.161789e+05   2.129812e+04
  -4.794414e+04  -4.404087e+05
   4.206319e+05  -2.672087e+05
   4.844811e+05   3.311123e+05
   2.907682e+05   7.001110e+05
   1.313024e+05   4.685771e+05
   1.314527e+05  -7.163422e+04
   2.467477e+05  -2.619127e+05
   2.663354e+05   2.296907e+05
  -1.123197e+05   9.612811e+05
  -8.745960e+05   1.067443e+06
  -1.378659e+06   2.130788e+05
  -8.912995e+05  -8.882562e+05
   3.937563e+05  -1.160610e+06
   1.258379e+06  -3.828287e+05
   7.363084e+05   5.443084e+05
  -6.942565e+05   6.407645e+05
  -1.551884e+06  -9.722295e+04
  -9.534666e+05  -8.506711e+05
   5.026038e+05  -9.510534e+05
   1.463175e+06  -4.366814e+05
   1.184449e+06   2.023178e+05
   1.187413e+05   4.967853e+05
  -6.417044e+05   2.553259e+05
  -3.950659e+05  -2.962297e+05
   5.506997e+05  -5.416081e+05
   1.170987e+06   3.245053e+04
   7.161935e+05   1.138274e+06
  -5.109674e+05   1.703634e+06
  -1.427596e+06   9.252507e+05
  -1.252646e+06  -7.103094e+05
  -2.343607e+05  -1.752252e+06
   7.084600e+05  -1.264039e+06
   9.059306e+05   1.861164e+05
   4.144095e+05   1.170461e+06
  -2.374335e+05   9.365614e+05
  -5.624174e+05   7.575009e+04
  -4.375358e+05  -3.581660e+05
  -1.333471e+05  -1.231098e+05
  -5.797676e+04   8.554280e+04
  -3.231829e+05  -3.064616e+05
  -5.334228e+05  -9.517469e+05
  -1.682601e+05  -1.051818e+06
   7.392411e+05  -3.934240e+05
   1.452822e+06   4.326671e+05
   1.237761e+06   8.030933e+05
   1.888317e+05   6.920465e+05
  -8.012382e+05   4.308333e+05
  -9.536347e+05   1.837482e+05
  -3.830873e+05  -6.530480e+04
   1.266072e+05  -2.285155e+05
   7.018517e+04  -1.835722e+05
  -2.209740e+05  -6.530281e+04
  -6.888140e+04  -1.271360e+05
   6.017416e+05  -2.626657e+05
   1.037384e+06  -2.513762e+04
   5.050122e+05   6.797851e+05
  -7.619091e+05   1.206980e+06
  -1.687846e+06   8.178046e+05
  -1.455962e+06  -3.671199e+05
  -3.225148e+05  -1.372770e+06
   7.350952e+05  -1.389898e+06
   1.022855e+06  -5.865630e+05
   6.457019e+05   1.880080e+05
   1.600998e+05   3.506821e+05
  -2.930201e+04   9.345175e+04
   9.399331e+04   1.163149e+04
   2.846221e+05   3.688317e+05
   2.461041e+05   7.914128e+05
  -1.498232e+05   6.846103e+05
  -6.664670e+05  -7.018528e+04
  -7.824890e+05  -8.883649e+05
  -1.932004e+05  -1.019821e+06
   7.087913e+05  -3.097055e+05
   1.056760e+06   6.406814e+05
   4.048269e+05   1.067817e+06
  -6.769649e+05   7.226811e+05
  -1.128390e+06  -2.837925e+04
  -5.678993e+05  -6.198031e+05
   2.667113e+05  -7.184641e+05
   4.006577e+05  -3.837969e+05
  -2.036401e+05   1.375548e+04
  -6.290299e+05   6.409779e+04
  -1.678276e+05  -3.078284e+05
   7.955518e+05  -6.878275e+05
   1.263234e+06  -5.378079e+05
   7.990577e+05   1.859740e+05
  -6.611944e+04   8.776369e+05
  -5.567629e+05   8.783547e+05
  -4.571143e+05   2.026529e+05
  -8.956179e+04  -4.540246e+05
   2.150146e+05  -4.598399e+05
   3.495457e+05   9.690022e+04
   2.745202e+05   5.606950e+05
  -2.848580e+04   4.582497e+05
  -3.890542e+05  -1.507377e+04
  -4.917796e+05  -2.890790e+05
  -2.428752e+05  -1.117873e+05
   5.809019e+04   1.771182e+05
   8.390839e+04   1.025911e+05
  -7.643724e+04  -3.235703e+05
  -4.459636e+04  -5.869953e+05
   2.831906e+05  -2.967337e+05
   5.162392e+05   3.131104e+05
   2.450691e+05   6.279931e+05
  -3.727662e+05   3.432960e+05
  -6.914128e+05  -2.277175e+05
  -2.897996e+05  -5.417944e+05
   5.009294e+05  -3.835471e+05
   8.975704e+05   2.722758e+04
   4.975622e+05   3.559293e+05
  -2.765439e+05   4.351280e+05
  -6.341744e+05   2.836288e+05
  -2.782937e+05   3.306844e+04
   2.952513e+05  -1.116195e+05
   3.872136e+05   3.987349e+03
  -1.198686e+05   2.662484e+05
  -6.651275e+05   2.949407e+05
