
 $NMID
 id='ANONYMOUS ', fmtdat='(2E16.6)'
 volume=1.0
 tramp=1.0
 $END
   3.055463e+07  -2.049996e+05
   1.932322e+07   1.684355e+07
  -2.211454e+06   2.010466e+07
  -1.411039e+07   1.012112e+07
  -9.835176e+06  -1.546999e+06
   6.890950e+05  -5.239741e+06
   5.674669e+06  -8.593345e+05
   2.910306e+06   5.084925e+06
  -2.457243e+06   6.523996e+06
  -5.416184e+06   2.290202e+06
  -4.342632e+06  -3.585779e+06
  -5.845732e+05  -5.431765e+06
   2.509519e+06  -1.455685e+06
   1.898637e+06   3.961459e+06
  -1.872335e+06   4.750182e+06
  -4.643692e+06  -1.125674e+05
  -3.076452e+06  -5.719545e+06
   1.699258e+06  -6.954919e+06
   5.623953e+06  -3.444190e+06
   5.934377e+06   1.356839e+06
   3.172098e+06   4.161771e+06
   3.502515e+04   4.141014e+06
  -9.603396e+05   2.648185e+06
   4.160006e+05   1.785558e+06
   1.602375e+06   2.525757e+06
  -2.100415e+05   3.566873e+06
  -4.334334e+06   2.703311e+06
  -6.598032e+06  -2.696718e+05
  -4.186749e+06  -2.934490e+06
   6.372241e+05  -3.051186e+06
   3.121998e+06  -1.033133e+06
   1.546126e+06   9.605694e+05
  -1.480575e+06   1.394045e+06
  -2.754814e+06   1.368954e+05
  -1.693513e+06  -1.947235e+06
   2.234432e+05  -3.191411e+06
   1.468424e+06  -2.063996e+06
   1.358566e+06   7.278537e+05
   2.443514e+05   2.094977e+06
  -5.170688e+05   2.335952e+05
   2.377963e+05  -2.377466e+06
   1.732633e+06  -1.829141e+06
   1.703161e+06   1.644483e+06
  -6.631491e+05   3.482216e+06
  -3.125520e+06   8.437599e+05
  -2.734280e+06  -3.463001e+06
   6.644440e+05  -4.566039e+06
   4.126900e+06  -1.438414e+06
   4.614621e+06   2.521380e+06
   1.748929e+06   3.850852e+06
  -2.085449e+06   2.188688e+06
  -3.800847e+06  -4.779823e+05
  -2.145295e+06  -2.025680e+06
   1.112350e+06  -1.543224e+06
   2.744995e+06   2.243368e+05
   1.400980e+06   1.419868e+06
  -9.170351e+05   8.642754e+05
  -1.340958e+06  -5.476834e+05
   3.215381e+05  -9.227372e+05
   1.544755e+06   2.181708e+05
   4.594567e+05   1.443905e+06
  -1.887000e+06   1.317804e+06
  -2.978281e+06  -1.454834e+05
  -1.619805e+06  -2.004432e+06
   1.215689e+06  -3.287300e+06
   3.603553e+06  -3.071713e+06
   4.125212e+06  -8.765170e+05
   2.662992e+06   2.265209e+06
   4.513797e+05   4.063800e+06
  -8.816349e+05   3.309049e+06
  -8.324077e+05   1.387304e+06
  -4.359140e+05   5.128075e+05
  -8.524149e+05   9.093664e+05
  -1.865216e+06   8.760859e+05
  -2.233463e+06  -5.149173e+05
  -1.272282e+06  -2.022804e+06
   4.188314e+05  -1.895918e+06
   1.623158e+06  -5.981454e+04
   1.450865e+06   1.875813e+06
  -1.318511e+05   2.311441e+06
  -2.114595e+06   9.638907e+05
  -2.929977e+06  -1.128800e+06
  -1.832325e+06  -2.510574e+06
   1.508351e+05  -2.449066e+06
   1.269903e+06  -1.490714e+06
   1.145047e+06  -7.753975e+05
   1.096783e+06  -7.129796e+05
   2.111861e+06  -5.975244e+05
   3.237447e+06   3.609856e+05
   2.687906e+06   1.958194e+06
   1.911715e+05   3.148903e+06
  -2.479958e+06   3.020662e+06
  -3.318676e+06   1.495729e+06
  -1.991014e+06  -5.698127e+05
   6.028392e+04  -1.812373e+06
   1.056732e+06  -1.372269e+06
   4.063979e+05   1.226829e+05
  -9.108722e+05   9.724172e+05
  -1.393802e+06   2.886841e+05
  -5.837066e+05  -8.730385e+05
   4.806890e+05  -8.763537e+05
   5.075452e+05   2.591593e+05
  -5.334406e+05   8.158890e+05
  -1.422712e+06  -3.410077e+05
  -1.074786e+06  -2.229426e+06
   4.358218e+05  -2.897832e+06
   2.118010e+06  -1.596428e+06
   2.895444e+06   6.326413e+05
   2.237480e+06   2.178475e+06
   5.231644e+05   2.231924e+06
  -1.029593e+06   1.183025e+06
  -1.284442e+06   1.336759e+05
  -3.852425e+05  -3.106028e+04
   2.950136e+05   5.734617e+05
  -2.388808e+05   9.738302e+05
  -1.340142e+06   4.616875e+05
  -1.524599e+06  -5.417408e+05
  -3.802284e+05  -9.978549e+05
   8.676877e+05  -4.989347e+05
   8.001369e+05   3.244098e+05
  -5.738916e+05   5.848952e+05
  -1.841221e+06  -4.095493e+03
  -1.640530e+06  -1.020542e+06
   2.770694e+04  -1.712909e+06
   1.801196e+06  -1.462932e+06
   2.188268e+06  -2.950650e+05
   9.506383e+05   9.085307e+05
  -6.521199e+05   1.080666e+06
  -1.095188e+06   1.402039e+05
  -1.058490e+05  -7.764328e+05
   1.147227e+06  -5.699019e+05
   1.358680e+06   5.281145e+05
   3.924008e+05   1.267415e+06
  -7.454471e+05   8.833570e+05
  -1.013964e+06  -9.203252e+04
  -3.000451e+05  -5.593166e+05
   5.549763e+05  -7.334199e+04
   5.592459e+05   7.930427e+05
  -4.594240e+05   1.097623e+06
  -1.569194e+06   4.091376e+05
  -1.579593e+06  -8.134095e+05
  -3.239866e+05  -1.594451e+06
   1.059932e+06  -1.297241e+06
   1.325212e+06  -2.294533e+05
   4.479861e+05   6.461826e+05
  -4.775416e+05   6.647461e+05
  -5.556624e+05   6.446540e+04
   3.193442e+04  -3.922461e+05
   4.665808e+05  -2.870718e+05
   2.775300e+05   7.465141e+04
  -2.542263e+05   9.953522e+04
  -4.648712e+05  -3.896159e+05
   5.457989e+04  -9.056979e+05
   1.032751e+06  -7.433319e+05
   1.630870e+06   2.770414e+05
   1.164884e+06   1.492183e+06
  -1.388391e+05   1.922977e+06
  -1.259230e+06   1.212140e+06
  -1.408714e+06  -9.105168e+03
  -8.133469e+05  -7.654481e+05
  -3.027720e+05  -6.965326e+05
  -2.806997e+05  -2.862339e+05
  -3.747356e+05  -1.958908e+05
  -6.237702e+04  -5.193813e+05
   6.345737e+05  -7.392664e+05
   1.152859e+06  -3.408353e+05
   9.231234e+05   5.711963e+05
  -1.145573e+05   1.247875e+06
  -1.345245e+06   9.391787e+05
  -1.811888e+06  -3.262189e+05
  -9.779879e+05  -1.610717e+06
   6.672930e+05  -1.860828e+06
   1.909136e+06  -9.093640e+05
   1.898326e+06   3.830511e+05
   9.088550e+05   1.029120e+06
  -6.953979e+04   8.625949e+05
  -3.799782e+05   5.184169e+05
  -2.058668e+05   5.827032e+05
  -1.426053e+05   9.340252e+05
  -4.850517e+05   9.475447e+05
  -9.630948e+05   2.418392e+05
  -1.041096e+06  -8.420293e+05
  -4.483742e+05  -1.487686e+06
   4.847272e+05  -1.137297e+06
   1.019563e+06  -3.468512e+04
   6.805488e+05   9.512819e+05
  -2.147497e+05   1.091857e+06
  -8.195490e+05   4.193685e+05
  -6.319196e+05  -4.019454e+05
  -8.861470e+03  -7.679440e+05
   2.924550e+05  -6.343915e+05
   1.209417e+04  -3.745320e+05
  -3.230658e+05  -2.850527e+05
  -3.760861e+04  -3.115376e+05
   8.577734e+05  -1.940012e+05
   1.566018e+06   2.116149e+05
   1.281257e+06   7.528419e+05
   5.957389e+04   1.070306e+06
  -1.148682e+06   8.891323e+05
  -1.402789e+06   2.937684e+05
  -6.856618e+05  -2.798374e+05
   1.603753e+05  -4.038585e+05
   3.744264e+05  -7.198200e+04
  -1.890529e+03   2.731634e+05
  -3.766485e+05   1.916498e+05
  -3.708983e+05  -2.655180e+05
  -1.367913e+05  -5.875586e+05
  -1.435832e+04  -3.820528e+05
  -1.137847e+05   1.253332e+05
  -2.693722e+05   2.953758e+05
  -2.327970e+05  -1.710061e+05
   1.339283e+05  -8.024714e+05
   6.913847e+05  -8.354568e+05
   9.873050e+05  -1.048983e+05
   5.981560e+05   7.140744e+05
  -3.151185e+05   8.350940e+05
  -9.396693e+05   2.108771e+05
  -5.734443e+05  -4.656054e+05
   5.267749e+05  -5.325589e+05
   1.282644e+06   1.671877e+04
   8.957613e+05   6.477175e+05
  -2.999920e+05   8.421376e+05
  -1.193062e+06   4.943792e+05
  -1.037265e+06  -8.291788e+04
  -1.484949e+05  -4.200074e+05
   5.005408e+05  -2.533763e+05
   2.841030e+05   2.064165e+05
  -4.886875e+05   3.864364e+05
  -9.296601e+05  -1.017513e+05
  -4.820856e+05  -9.532729e+05
   5.210172e+05  -1.327747e+06
   1.200278e+06  -6.707633e+05
   9.994682e+05   6.132696e+05
   1.692378e+05   1.435030e+06
  -5.756251e+05   1.070541e+06
  -7.485647e+05  -8.920094e+04
  -3.983119e+05  -9.363244e+05
   1.092114e+05  -8.029731e+05
   4.291711e+05  -9.583529e+04
   4.145386e+05   3.040329e+05
   1.756891e+05   1.211041e+05
   2.059979e+04  -8.975485e+04
   1.620832e+05   2.026752e+05
   3.913672e+05   7.505119e+05
   2.159477e+05   8.649099e+05
  -5.036952e+05   3.302802e+05
  -1.186955e+06  -3.563571e+05
  -1.076510e+06  -6.517900e+05
  -1.601849e+05  -5.431768e+05
   7.173473e+05  -3.377649e+05
   7.968537e+05  -1.713959e+05
   2.512335e+05   1.377796e+04
  -1.302307e+05   1.766094e+05
   2.358780e+04   1.875070e+05
   2.645335e+05   1.003016e+05
   2.096718e+04   1.089889e+05
  -5.802245e+05   1.737819e+05
  -8.251798e+05  -1.732884e+04
  -2.725221e+05  -5.393913e+05
   7.097161e+05  -9.109250e+05
   1.310456e+06  -5.736734e+05
   1.060666e+06   3.632511e+05
   2.077298e+05   1.123883e+06
  -5.868323e+05   1.080009e+06
  -8.293715e+05   3.998740e+05
  -5.296487e+05  -2.079878e+05
  -8.699481e+04  -2.832370e+05
   9.897154e+04  -2.473630e+04
  -4.767621e+04   4.706819e+04
  -2.636415e+05  -2.746335e+05
  -2.211928e+05  -6.394265e+05
   1.481406e+05  -5.300873e+05
   5.516525e+05   1.239634e+05
   5.648195e+05   7.828274e+05
   4.624675e+04   8.139059e+05
  -6.250529e+05   1.574312e+05
  -8.117092e+05  -6.072217e+05
  -2.531486e+05  -8.607533e+05
   5.699546e+05  -5.085902e+05
   8.660142e+05   6.613394e+04
   3.990462e+05   4.525960e+05
  -2.214897e+05   4.988444e+05
  -2.621931e+05   2.837211e+05
   2.370477e+05   2.053702e+04
   5.260232e+05  -2.871651e+04
   1.040216e+05   2.360444e+05
  -6.509682e+05   5.492422e+05
  -9.610385e+05   4.657390e+05
  -5.651393e+05  -1.055139e+05
   7.529176e+04  -6.744859e+05
   3.984381e+05  -6.654084e+05
   2.975919e+05  -1.011354e+05
   2.467559e+04   3.968369e+05
  -1.953056e+05   3.254708e+05
  -2.833156e+05  -1.499911e+05
  -1.993650e+05  -4.581772e+05
   4.969891e+04  -3.071760e+05
   3.093336e+05   4.878222e+04
   3.660103e+05   1.955523e+05
   1.920778e+05   5.300779e+04
  -9.582649e+03  -9.157991e+04
  -6.399038e+04   2.352141e+04
  -3.708317e+04   3.043168e+05
  -1.069961e+05   3.996305e+05
  -2.756473e+05   1.113278e+05
  -3.198805e+05  -3.414405e+05
  -6.564923e+04  -5.201434e+05
   3.405239e+05  -2.348488e+05
   5.058264e+05   2.420433e+05
   1.868819e+05   4.682842e+05
  -3.903281e+05   2.873538e+05
  -6.803811e+05  -7.142239e+04
  -3.717761e+05  -2.982430e+05
   2.316155e+05  -2.929878e+05
   4.972657e+05  -1.520443e+05
   1.714638e+05  -9.640562e+03
  -3.132231e+05   2.899145e+04
  -3.397280e+05  -8.686444e+04
   1.624690e+05  -2.559506e+05
   6.395992e+05  -2.192362e+05
