
 $NMID
 id='ANONYMOUS ', fmtdat='(2E16.6)'
 volume=1.0
 tramp=1.0
 $END
  -2.894222e+07  -2.719693e+05
  -1.778709e+07  -1.694074e+07
   2.983842e+06  -1.923400e+07
   1.382809e+07  -8.647311e+06
   9.007216e+06   2.397920e+06
  -1.130039e+06   4.900090e+06
  -5.302819e+06   1.859367e+05
  -2.194700e+06  -4.964692e+06
   2.771225e+06  -5.652196e+06
   5.120746e+06  -1.664043e+06
   3.855439e+06   3.389328e+06
   4.036644e+05   4.877450e+06
  -2.275425e+06   1.333506e+06
  -1.552775e+06  -3.445087e+06
   1.924054e+06  -4.062027e+06
   4.276802e+06   3.868103e+05
   2.604593e+06   5.398102e+06
  -1.820518e+06   6.368627e+06
  -5.307098e+06   3.101844e+06
  -5.559998e+06  -1.268802e+06
  -3.091152e+06  -3.927851e+06
  -1.106102e+05  -4.098821e+06
   1.143288e+06  -2.721180e+06
   1.234379e+05  -1.603578e+06
  -1.118073e+06  -1.957624e+06
   1.461298e+05  -2.919419e+06
   3.661741e+06  -2.368911e+06
   5.765424e+06   1.846666e+05
   3.779009e+06   2.606738e+06
  -3.949682e+05   2.760103e+06
  -2.590113e+06   1.032997e+06
  -1.363042e+06  -6.059180e+05
   1.040980e+06  -9.735598e+05
   2.080402e+06  -1.107031e+05
   1.376857e+06   1.461397e+06
  -6.603966e+04   2.627762e+06
  -1.239460e+06   1.926955e+06
  -1.391295e+06  -4.674081e+05
  -4.335014e+05  -1.929806e+06
   4.443465e+05  -4.932243e+05
  -1.284298e+05   1.878766e+06
  -1.534146e+06   1.502733e+06
  -1.458574e+06  -1.617509e+06
   9.057694e+05  -3.250314e+06
   3.201779e+06  -6.702272e+05
   2.567972e+06   3.419931e+06
  -8.141019e+05   4.349879e+06
  -3.897222e+06   1.267009e+06
  -4.047882e+06  -2.426531e+06
  -1.337944e+06  -3.483835e+06
   1.950717e+06  -1.790677e+06
   3.271752e+06   6.448098e+05
   1.707348e+06   1.914434e+06
  -1.158336e+06   1.321578e+06
  -2.501474e+06  -3.574896e+05
  -1.180820e+06  -1.391085e+06
   8.940566e+05  -7.613572e+05
   1.122242e+06   5.507091e+05
  -4.685593e+05   7.292273e+05
  -1.405253e+06  -4.892452e+05
  -1.449813e+05  -1.539356e+06
   2.027568e+06  -1.138880e+06
   2.792547e+06   3.806524e+05
   1.385992e+06   1.976357e+06
  -1.112781e+06   2.941910e+06
  -3.145174e+06   2.693033e+06
  -3.647353e+06   7.905892e+05
  -2.420194e+06  -1.987685e+06
  -3.821313e+05  -3.601394e+06
   9.351570e+05  -2.870039e+06
   8.580498e+05  -1.050022e+06
   3.042807e+05  -2.484717e+05
   5.223408e+05  -7.081684e+05
   1.435112e+06  -8.251704e+05
   1.857181e+06   3.064821e+05
   1.101454e+06   1.602358e+06
  -2.899458e+05   1.530970e+06
  -1.271534e+06   3.508660e+04
  -1.148666e+06  -1.552078e+06
   1.253358e+05  -1.938395e+06
   1.806615e+06  -8.500417e+05
   2.577264e+06   9.493343e+05
   1.665160e+06   2.237569e+06
  -1.297381e+05   2.259407e+06
  -1.206113e+06   1.390006e+06
  -1.116953e+06   6.686162e+05
  -1.018576e+06   5.435864e+05
  -1.839160e+06   4.156765e+05
  -2.764403e+06  -4.152142e+05
  -2.241031e+06  -1.746758e+06
  -8.268933e+04  -2.678177e+06
   2.151506e+06  -2.509095e+06
   2.808437e+06  -1.237408e+06
   1.684246e+06   4.602567e+05
  -2.021247e+04   1.507895e+06
  -8.685454e+05   1.164980e+06
  -3.467684e+05  -9.195451e+04
   7.742276e+05  -8.147762e+05
   1.206329e+06  -2.202853e+05
   5.076966e+05   7.646969e+05
  -4.085479e+05   7.251552e+05
  -3.834414e+05  -2.468135e+05
   5.463863e+05  -6.189316e+05
   1.215119e+06   4.770033e+05
   7.337005e+05   2.030470e+06
  -6.244320e+05   2.390224e+06
  -1.909107e+06   1.133416e+06
  -2.358691e+06  -7.127275e+05
  -1.730469e+06  -1.879194e+06
  -3.548996e+05  -1.846702e+06
   8.748396e+05  -9.674682e+05
   1.070951e+06  -9.781923e+04
   3.232626e+05   3.486559e+04
  -2.347001e+05  -4.950593e+05
   2.417074e+05  -8.390807e+05
   1.180207e+06  -3.633385e+05
   1.295662e+06   5.271772e+05
   2.805055e+05   8.818822e+05
  -7.602038e+05   3.922592e+05
  -6.465822e+05  -3.025870e+05
   5.216037e+05  -4.441557e+05
   1.526358e+06   9.994779e+04
   1.298281e+06   9.071993e+05
  -1.003551e+05   1.405815e+06
  -1.551978e+06   1.158191e+06
  -1.848294e+06   1.856204e+05
  -7.846953e+05  -8.063444e+05
   5.883414e+05  -9.237514e+05
   9.588200e+05  -9.919038e+04
   8.696299e+04   6.758657e+05
  -9.912069e+05   4.612317e+05
  -1.134818e+06  -4.950781e+05
  -2.725511e+05  -1.087187e+06
   6.788524e+05  -7.016824e+05
   8.501862e+05   1.398190e+05
   2.139058e+05   4.968300e+05
  -4.922902e+05   4.647144e+04
  -4.662699e+05  -6.893109e+05
   4.043218e+05  -9.257841e+05
   1.333551e+06  -3.229163e+05
   1.323115e+06   7.174961e+05
   2.379433e+05   1.360312e+06
  -9.372648e+05   1.072440e+06
  -1.129977e+06   1.499542e+05
  -3.495205e+05  -5.657226e+05
   4.293920e+05  -5.432617e+05
   4.566311e+05  -3.886242e+04
  -5.258491e+04   3.069956e+05
  -3.826160e+05   2.024813e+05
  -1.882015e+05  -6.607060e+04
   2.431249e+05  -4.269610e+04
   3.734723e+05   3.712120e+05
  -8.763441e+04   7.711350e+05
  -8.974565e+05   5.997183e+05
  -1.372196e+06  -2.746065e+05
  -9.523090e+05  -1.287874e+06
   1.611402e+05  -1.612689e+06
   1.088547e+06  -9.707293e+05
   1.166766e+06   5.946566e+04
   6.315789e+05   6.465497e+05
   2.226472e+05   5.444608e+05
   2.526824e+05   2.131764e+05
   3.446486e+05   1.804635e+05
   4.928404e+04   4.578858e+05
  -5.601145e+05   6.045038e+05
  -9.737857e+05   2.462363e+05
  -7.422787e+05  -4.962943e+05
   1.406336e+05  -1.024362e+06
   1.153299e+06  -7.436994e+05
   1.510479e+06   3.215362e+05
   7.737426e+05   1.388070e+06
  -6.293914e+05   1.559678e+06
  -1.651673e+06   7.078184e+05
  -1.582644e+06  -3.950427e+05
  -7.056037e+05  -8.945543e+05
   1.021159e+05  -6.968233e+05
   3.132716e+05  -3.970320e+05
   1.460163e+05  -4.854595e+05
   1.188182e+05  -8.065310e+05
   4.353078e+05  -8.072239e+05
   8.296616e+05  -1.897969e+05
   8.646958e+05   7.300182e+05
   3.477931e+05   1.262464e+06
  -4.308277e+05   9.475565e+05
  -8.589463e+05   4.566869e+02
  -5.469625e+05  -8.306289e+05
   2.250565e+05  -9.202816e+05
   7.262912e+05  -3.148297e+05
   5.313572e+05   3.882541e+05
  -3.169154e+04   6.709369e+05
  -2.927416e+05   5.284895e+05
  -3.349715e+04   3.043978e+05
   2.707343e+05   2.386643e+05
   2.886641e+04   2.591988e+05
  -7.380228e+05   1.424366e+05
  -1.331434e+06  -2.163119e+05
  -1.065513e+06  -6.736700e+05
  -9.404065e+03  -9.218563e+05
   1.010220e+06  -7.342481e+05
   1.199543e+06  -2.028212e+05
   5.682867e+05   2.786215e+05
  -1.524795e+05   3.503809e+05
  -3.253825e+05   4.297494e+04
  -2.987620e+03  -2.434737e+05
   3.114100e+05  -1.559477e+05
   3.090334e+05   2.302598e+05
   1.209710e+05   4.886113e+05
   2.163559e+04   3.178705e+05
   9.767586e+04  -8.958065e+04
   2.206796e+05  -2.252662e+05
   1.901203e+05   1.504041e+05
  -1.198065e+05   6.648451e+05
  -5.999270e+05   6.941228e+05
  -8.550495e+05   8.503051e+04
  -5.119171e+05  -6.096143e+05
   2.799469e+05  -7.151371e+05
   8.057677e+05  -1.787337e+05
   4.748597e+05   3.971715e+05
  -4.604165e+05   4.335011e+05
  -1.071799e+06  -5.420692e+04
  -7.144707e+05  -5.733283e+05
   2.920496e+05  -6.884436e+05
   1.013333e+06  -3.616436e+05
   8.555254e+05   1.094209e+05
   1.049008e+05   3.535707e+05
  -4.309405e+05   1.932212e+05
  -2.423187e+05  -1.854764e+05
   4.088979e+05  -3.235195e+05
   7.801922e+05   8.996412e+04
   4.026663e+05   8.017245e+05
  -4.432969e+05   1.110195e+06
  -1.010517e+06   5.510357e+05
  -8.269591e+05  -5.280540e+05
  -1.147339e+05  -1.203620e+06
   5.066636e+05  -8.765385e+05
   6.250118e+05   1.032022e+05
   3.024869e+05   7.983260e+05
  -1.263396e+05   6.656083e+05
  -3.687029e+05   6.565997e+04
  -3.295510e+05  -2.630260e+05
  -1.311434e+05  -1.034218e+05
  -2.515668e+04   7.138834e+04
  -1.527369e+05  -1.798494e+05
  -3.207771e+05  -6.413018e+05
  -1.462176e+05  -7.302855e+05
   4.489827e+05  -2.666462e+05
   9.859839e+05   3.237591e+05
   8.745935e+05   5.717552e+05
   1.220560e+05   4.626152e+05
  -5.950831e+05   2.682254e+05
  -6.680572e+05   1.216878e+05
  -2.232044e+05  -2.281159e+04
   1.075628e+05  -1.460047e+05
   1.186421e+03  -1.521135e+05
  -2.020572e+05  -8.277480e+04
  -2.243507e+04  -8.997105e+04
   4.711864e+05  -1.387618e+05
   6.942450e+05   2.428669e+04
   2.444300e+05   4.568257e+05
  -5.950318e+05   7.595832e+05
  -1.120505e+06   4.723074e+05
  -9.035579e+05  -3.110012e+05
  -1.605322e+05  -9.434282e+05
   5.156093e+05  -9.031445e+05
   7.021612e+05  -3.330524e+05
   4.375046e+05   1.749063e+05
   7.571905e+04   2.387268e+05
  -6.731529e+04   2.672906e+04
   4.820209e+04  -2.824086e+04
   2.097383e+05   2.418274e+05
   1.677821e+05   5.426405e+05
  -1.299991e+05   4.460314e+05
  -4.564106e+05  -1.031046e+05
  -4.689612e+05  -6.549216e+05
  -4.316608e+04  -6.832454e+05
   5.151891e+05  -1.354411e+05
   6.740919e+05   5.083108e+05
   2.087972e+05   7.262157e+05
  -4.825129e+05   4.290631e+05
  -7.335146e+05  -6.395773e+04
  -3.389207e+05  -3.962993e+05
   1.928845e+05  -4.304086e+05
   2.378408e+05  -2.399614e+05
  -1.829664e+05  -1.817073e+04
  -4.379587e+05   1.712544e+04
  -8.896083e+04  -2.018369e+05
   5.564877e+05  -4.482167e+05
   8.295640e+05  -3.660049e+05
   4.893579e+05   1.071777e+05
  -7.240467e+04   5.708026e+05
  -3.575593e+05   5.603493e+05
  -2.642309e+05   9.311750e+04
  -2.079715e+04  -3.262397e+05
   1.651562e+05  -2.775488e+05
   2.322803e+05   1.177424e+05
   1.619022e+05   3.871957e+05
  -4.112140e+04   2.684948e+05
  -2.585746e+05  -4.024959e+04
  -3.103879e+05  -1.786629e+05
  -1.619745e+05  -5.583870e+04
   1.503160e+04   8.625048e+04
   5.812635e+04   2.558494e+03
   1.940638e+04  -2.433185e+05
   6.793475e+04  -3.436960e+05
   2.207003e+05  -1.114860e+05
   2.777765e+05   2.731248e+05
   6.979450e+04   4.315837e+05
  -2.817940e+05   1.971564e+05
  -4.282325e+05  -2.008615e+05
  -1.554542e+05  -3.896755e+05
   3.359594e+05  -2.378826e+05
   5.771418e+05   6.334891e+04
   3.114278e+05   2.553719e+05
  -1.974595e+05   2.523431e+05
  -4.214642e+05   1.325581e+05
  -1.540402e+05   9.296844e+03
   2.471989e+05  -2.739342e+04
   2.755494e+05   6.465232e+04
  -1.302792e+05   2.014235e+05
  -5.209855e+05   1.710192e+05
