
 $NMID
 id='ANONYMOUS ', fmtdat='(2E16.6)'
 volume=1.0
 tramp=1.0
 $END
   5.138680e+07   7.829423e+04
   3.111270e+07   3.155820e+07
  -6.503957e+06   3.474771e+07
  -2.515547e+07   1.374856e+07
  -1.530274e+07  -6.062435e+06
   2.843636e+06  -8.596028e+06
   9.108274e+06   8.728783e+05
   2.784561e+06   8.952610e+06
  -5.585275e+06   8.822601e+06
  -8.903869e+06   2.014627e+06
  -6.455727e+06  -5.739355e+06
  -7.135015e+05  -7.994883e+06
   3.706890e+06  -2.471500e+06
   2.422474e+06   5.177372e+06
  -3.480533e+06   6.193611e+06
  -7.279522e+06  -1.142566e+06
  -4.145048e+06  -9.386011e+06
   3.436323e+06  -1.087338e+07
   9.265211e+06  -5.405842e+06
   9.855280e+06   1.936678e+06
   5.947721e+06   6.834757e+06
   5.878051e+05   7.772204e+06
  -2.518371e+06   5.437088e+06
  -1.455129e+06   2.592337e+06
   1.115601e+06   2.270541e+06
   9.352265e+04   4.027872e+06
  -5.207476e+06   3.985757e+06
  -9.033516e+06   2.693400e+05
  -6.451299e+06  -3.922287e+06
  -6.575153e+04  -4.633320e+06
   3.579189e+06  -2.216993e+06
   2.243898e+06   1.782851e+05
  -8.135964e+05   9.581813e+05
  -2.354244e+06   3.408835e+05
  -2.032536e+06  -1.551937e+06
  -4.617308e+05  -3.751021e+06
   1.737509e+06  -3.482694e+06
   2.839691e+06   2.012718e+05
   1.423526e+06   3.304510e+06
  -6.843115e+05   1.599305e+06
  -1.754425e+05  -2.414017e+06
   2.352682e+06  -2.185599e+06
   2.303014e+06   2.921354e+06
  -2.109810e+06   5.655443e+06
  -6.234906e+06   1.004889e+06
  -4.665856e+06  -6.268038e+06
   1.684221e+06  -7.783781e+06
   6.803090e+06  -2.211726e+06
   6.486354e+06   4.137538e+06
   1.782493e+06   5.657103e+06
  -3.254545e+06   2.592769e+06
  -4.995597e+06  -1.389384e+06
  -2.356072e+06  -3.259319e+06
   2.191158e+06  -2.078175e+06
   4.199341e+06   8.144291e+05
   1.842435e+06   2.494578e+06
  -1.573746e+06   1.271073e+06
  -1.662240e+06  -9.611191e+05
   1.156271e+06  -9.398738e+05
   2.337407e+06   1.474501e+06
  -3.905128e+05   3.101427e+06
  -4.119714e+06   1.818404e+06
  -4.886299e+06  -1.137061e+06
  -2.185846e+06  -3.621721e+06
   1.722748e+06  -4.869554e+06
   4.771535e+06  -4.446982e+06
   5.796822e+06  -1.528499e+06
   4.180006e+06   3.003687e+06
   8.010818e+05   5.768217e+06
  -1.722805e+06   4.497077e+06
  -1.629299e+06   1.258632e+06
  -2.533363e+05  -1.251703e+05
  -1.630388e+05   9.191472e+05
  -1.653658e+06   1.560352e+06
  -2.673127e+06   5.334703e+04
  -1.832773e+06  -1.965694e+06
   1.022985e+05  -2.081092e+06
   1.570300e+06  -1.337847e+05
   1.597015e+06   2.077270e+06
  -6.599021e+04   2.817924e+06
  -2.654870e+06   1.489660e+06
  -4.158243e+06  -1.214640e+06
  -2.931680e+06  -3.536295e+06
   7.206796e+04  -3.888441e+06
   2.092451e+06  -2.484323e+06
   2.040416e+06  -1.072351e+06
   1.718932e+06  -6.824874e+05
   2.815187e+06  -4.695328e+05
   4.156379e+06   7.458505e+05
   3.317827e+06   2.676571e+06
   8.237820e+04   3.968017e+06
  -3.142917e+06   3.704230e+06
  -4.055164e+06   1.946156e+06
  -2.524139e+06  -4.857118e+05
  -1.773867e+05  -2.154826e+06
   1.118384e+06  -1.811044e+06
   5.314175e+05   5.853847e+04
  -1.077853e+06   1.233754e+06
  -1.827179e+06   3.565214e+05
  -8.499585e+05  -1.156655e+06
   5.309015e+05  -1.063692e+06
   4.408446e+05   3.849913e+05
  -1.002443e+06   7.217823e+05
  -1.804449e+06  -1.151205e+06
  -6.970563e+05  -3.317426e+06
   1.460267e+06  -3.351311e+06
   3.029106e+06  -1.169321e+06
   3.249390e+06   1.378011e+06
   2.226800e+06   2.729512e+06
   4.126180e+05   2.567958e+06
  -1.233350e+06   1.396204e+06
  -1.533002e+06   1.844763e+05
  -4.756149e+05  -5.148652e+04
   3.372964e+05   7.314095e+05
  -4.037461e+05   1.282842e+06
  -1.830094e+06   5.387853e+05
  -1.950529e+06  -8.639511e+05
  -3.677555e+05  -1.364186e+06
   1.138897e+06  -5.439231e+05
   8.700307e+05   4.571596e+05
  -8.272385e+05   5.209653e+05
  -2.138151e+06  -3.178264e+05
  -1.706784e+06  -1.351677e+06
   2.594459e+05  -1.936554e+06
   2.269144e+06  -1.585850e+06
   2.694453e+06  -2.291011e+05
   1.161095e+06   1.232405e+06
  -8.985200e+05   1.428476e+06
  -1.493981e+06   1.643622e+05
  -1.737766e+05  -1.036082e+06
   1.474059e+06  -6.897406e+05
   1.657113e+06   7.747248e+05
   3.175131e+05   1.609438e+06
  -1.066319e+06   9.493103e+05
  -1.225004e+06  -3.054350e+05
  -2.416211e+05  -7.608207e+05
   7.654835e+05  -4.800355e+04
   6.961365e+05   1.027089e+06
  -5.805326e+05   1.367453e+06
  -1.951742e+06   4.917640e+05
  -1.953316e+06  -1.047582e+06
  -3.428394e+05  -2.013199e+06
   1.413844e+06  -1.572848e+06
   1.675990e+06  -1.843870e+05
   4.804656e+05   8.490823e+05
  -6.490348e+05   7.737379e+05
  -6.223724e+05   6.047156e+04
   1.200694e+05  -3.644130e+05
   4.967777e+05  -2.040515e+05
   1.383836e+05   7.917368e+04
  -4.303311e+05  -5.657010e+04
  -5.053368e+05  -6.461545e+05
   2.054607e+05  -1.149299e+06
   1.349753e+06  -8.521179e+05
   2.011851e+06   4.293566e+05
   1.391110e+06   1.903170e+06
  -2.467663e+05   2.345588e+06
  -1.592223e+06   1.353938e+06
  -1.648872e+06  -1.443329e+05
  -8.282326e+05  -8.976381e+05
  -2.917599e+05  -6.613229e+05
  -4.404941e+05  -2.280221e+05
  -5.910644e+05  -3.006133e+05
  -7.929690e+04  -7.313920e+05
   8.589288e+05  -8.646407e+05
   1.414339e+06  -2.993734e+05
   1.015224e+06   7.228602e+05
  -2.629758e+05   1.425425e+06
  -1.689742e+06   1.021513e+06
  -2.177155e+06  -5.015940e+05
  -1.075527e+06  -2.053046e+06
   1.002658e+06  -2.282207e+06
   2.475110e+06  -9.733637e+05
   2.279393e+06   6.651984e+05
   9.224322e+05   1.318930e+06
  -2.119550e+05   9.310452e+05
  -4.003595e+05   4.963333e+05
  -1.032965e+05   7.186098e+05
  -1.222514e+05   1.250091e+06
  -6.613578e+05   1.232421e+06
  -1.251523e+06   2.903330e+05
  -1.277837e+06  -1.065852e+06
  -5.107940e+05  -1.844001e+06
   6.247669e+05  -1.383215e+06
   1.248121e+06   1.926796e+04
   7.739633e+05   1.252338e+06
  -3.905344e+05   1.350593e+06
  -1.128482e+06   3.901222e+05
  -7.823083e+05  -6.727274e+05
   1.209491e+05  -1.037781e+06
   5.198894e+05  -7.584491e+05
   8.623650e+04  -4.095310e+05
  -4.115681e+05  -3.327993e+05
  -5.068666e+04  -3.725392e+05
   1.112928e+06  -1.909947e+05
   1.990341e+06   3.457109e+05
   1.554743e+06   1.023731e+06
  -4.707282e+04   1.388904e+06
  -1.546896e+06   1.085391e+06
  -1.779177e+06   2.496781e+05
  -8.089077e+05  -4.833743e+05
   2.549103e+05  -5.457785e+05
   4.962261e+05  -3.050130e+04
   2.464426e+04   4.017624e+05
  -4.343323e+05   2.413231e+05
  -4.611889e+05  -3.373634e+05
  -2.295874e+05  -7.015831e+05
  -8.157665e+04  -4.622908e+05
  -1.377903e+05   9.303117e+04
  -2.820893e+05   2.808060e+05
  -2.651823e+05  -2.291861e+05
   1.539362e+05  -9.538849e+05
   8.848288e+05  -1.020844e+06
   1.314764e+06  -1.539933e+05
   8.092082e+05   8.929592e+05
  -4.133533e+05   1.095507e+06
  -1.217229e+06   3.102603e+05
  -7.022681e+05  -5.653712e+05
   6.895350e+05  -6.208993e+05
   1.542345e+06   1.151020e+05
   9.680389e+05   8.557994e+05
  -4.841208e+05   9.584726e+05
  -1.466508e+06   4.453667e+05
  -1.198068e+06  -2.046504e+05
  -1.229393e+05  -5.031306e+05
   6.356227e+05  -2.533298e+05
   3.699091e+05   2.888339e+05
  -5.723526e+05   4.977160e+05
  -1.144364e+06  -9.186911e+04
  -6.371410e+05  -1.150268e+06
   5.888163e+05  -1.642612e+06
   1.446981e+06  -8.425400e+05
   1.209648e+06   7.486033e+05
   1.755176e+05   1.741034e+06
  -7.365297e+05   1.246617e+06
  -8.982890e+05  -1.853885e+05
  -4.021463e+05  -1.165684e+06
   2.304671e+05  -9.397201e+05
   5.493529e+05  -7.412827e+04
   4.446776e+05   3.740809e+05
   1.530119e+05   1.370319e+05
   5.051127e+04  -9.191840e+04
   2.750475e+05   2.888805e+05
   4.862570e+05   9.442172e+05
   1.672317e+05   1.051942e+06
  -7.047788e+05   3.776622e+05
  -1.426106e+06  -4.691819e+05
  -1.228480e+06  -8.305471e+05
  -1.715639e+05  -6.821062e+05
   8.280767e+05  -3.960035e+05
   9.569716e+05  -1.630685e+05
   3.559662e+05   5.676010e+04
  -1.412477e+05   2.173378e+05
  -4.537977e+04   1.981813e+05
   2.468391e+05   9.309974e+04
   5.102210e+04   1.281777e+05
  -6.347677e+05   2.235168e+05
  -1.017310e+06  -1.693238e+04
  -4.286768e+05  -6.735197e+05
   8.167547e+05  -1.140716e+06
   1.662218e+06  -7.308294e+05
   1.378848e+06   4.206992e+05
   2.603995e+05   1.365816e+06
  -7.576436e+05   1.335544e+06
  -1.022361e+06   5.228736e+05
  -6.323000e+05  -2.248025e+05
  -1.323439e+05  -3.482827e+05
   5.764524e+04  -6.819450e+04
  -8.456083e+04   9.056657e+03
  -2.849856e+05  -3.644493e+05
  -2.298827e+05  -7.887193e+05
   1.756466e+05  -6.611317e+05
   6.572253e+05   1.137725e+05
   7.187680e+05   9.189419e+05
   1.216049e+05   1.001656e+06
  -7.226922e+05   2.482251e+05
  -1.004469e+06  -6.924401e+05
  -3.425603e+05  -1.059667e+06
   6.921184e+05  -6.648570e+05
   1.092847e+06   7.244610e+04
   5.233494e+05   6.053960e+05
  -2.806121e+05   6.703270e+05
  -3.809854e+05   3.609645e+05
   2.271643e+05   7.580643e+03
   6.279182e+05  -3.670073e+04
   1.459719e+05   3.016992e+05
  -8.061007e+05   6.542057e+05
  -1.239527e+06   5.115026e+05
  -7.548498e+05  -1.837066e+05
   9.540407e+04  -8.496020e+05
   5.509472e+05  -8.372918e+05
   4.257882e+05  -1.675385e+05
   5.645479e+04   4.592417e+05
  -2.302776e+05   4.292257e+05
  -3.388563e+05  -1.323180e+05
  -2.469371e+05  -5.613110e+05
   4.731890e+04  -4.258690e+05
   3.795605e+05   3.906159e+04
   4.673403e+05   2.822976e+05
   2.369210e+05   1.023273e+05
  -4.094721e+04  -1.547482e+05
  -8.407587e+04  -6.269572e+04
   2.676303e+04   3.324740e+05
  -2.245939e+04   5.443519e+05
  -2.984973e+05   2.336974e+05
  -4.591588e+05  -3.514203e+05
  -1.737678e+05  -6.240822e+05
   3.897491e+05  -3.104197e+05
   6.528595e+05   2.626093e+05
   2.517612e+05   5.515103e+05
  -4.978423e+05   3.571041e+05
  -8.651074e+05  -6.753308e+04
  -4.691731e+05  -3.670279e+05
   2.846189e+05  -3.990013e+05
   6.234158e+05  -2.340506e+05
   2.540866e+05  -2.143468e+04
  -3.195683e+05   7.483428e+04
  -3.876882e+05  -4.769692e+04
   1.526217e+05  -2.715278e+05
   7.020417e+05  -2.604139e+05
