
 $NMID
 id='ANONYMOUS ', fmtdat='(2E16.6)'
 volume=1.0
 tramp=1.0
 $END
   5.678651e+07  -3.131953e+06
   3.603441e+07   3.376497e+07
  -5.719432e+06   3.908157e+07
  -2.730480e+07   1.589735e+07
  -1.694977e+07  -6.684908e+06
   3.061158e+06  -9.620768e+06
   9.996172e+06   1.029616e+06
   3.060099e+06   9.823738e+06
  -6.008774e+06   9.501361e+06
  -9.648346e+06   2.283970e+06
  -7.266250e+06  -5.839358e+06
  -1.232172e+06  -8.464455e+06
   3.789916e+06  -2.978771e+06
   2.795735e+06   5.142037e+06
  -3.536316e+06   6.560826e+06
  -7.967018e+06  -1.059451e+06
  -4.898478e+06  -1.003532e+07
   3.254105e+06  -1.200436e+07
   9.831708e+06  -6.465849e+06
   1.098053e+07   1.401784e+06
   7.190032e+06   7.119710e+06
   1.303809e+06   8.779371e+06
  -2.686289e+06   6.449644e+06
  -2.050021e+06   2.841114e+06
   9.339347e+05   1.874815e+06
   4.930527e+05   3.886276e+06
  -4.904653e+06   4.585043e+06
  -9.380092e+06   1.090859e+06
  -7.216879e+06  -3.627397e+06
  -6.964513e+05  -4.975065e+06
   3.337461e+06  -2.819367e+06
   2.391046e+06  -3.564402e+05
  -3.605553e+05   7.198207e+05
  -1.933348e+06   5.625888e+05
  -2.116752e+06  -1.093838e+06
  -9.924505e+05  -3.657235e+06
   1.486145e+06  -3.964973e+06
   3.308904e+06  -2.516410e+05
   2.074855e+06   3.497638e+06
  -6.005763e+05   2.153798e+06
  -5.149099e+05  -2.207318e+06
   2.297960e+06  -2.315817e+06
   2.575344e+06   3.122170e+06
  -2.245684e+06   6.328589e+06
  -7.101268e+06   1.397355e+06
  -5.581695e+06  -6.748875e+06
   1.516098e+06  -8.739646e+06
   7.334501e+06  -2.827201e+06
   7.074907e+06   4.120458e+06
   2.009216e+06   5.902162e+06
  -3.355367e+06   2.768116e+06
  -5.213992e+06  -1.375703e+06
  -2.460395e+06  -3.405753e+06
   2.376654e+06  -2.291860e+06
   4.574552e+06   7.507443e+05
   2.052221e+06   2.666649e+06
  -1.665185e+06   1.455011e+06
  -1.731067e+06  -9.649632e+05
   1.390656e+06  -9.397483e+05
   2.603952e+06   1.791244e+06
  -5.602469e+05   3.642386e+06
  -4.702028e+06   2.163497e+06
  -5.437788e+06  -1.191880e+06
  -2.497833e+06  -3.930626e+06
   1.495571e+06  -5.306117e+06
   4.617691e+06  -5.020921e+06
   5.982709e+06  -2.081783e+06
   4.729903e+06   2.818798e+06
   1.272565e+06   6.019520e+06
  -1.678822e+06   4.778186e+06
  -1.782846e+06   1.191852e+06
  -1.513617e+05  -4.014814e+05
   2.401610e+05   8.541457e+05
  -1.305489e+06   1.857291e+06
  -2.643911e+06   4.939837e+05
  -2.066889e+06  -1.645633e+06
  -1.936211e+05  -1.992707e+06
   1.397791e+06  -2.600707e+05
   1.661404e+06   1.885570e+06
   1.550573e+05   2.814996e+06
  -2.581182e+06   1.781912e+06
  -4.456087e+06  -8.776388e+05
  -3.427187e+06  -3.522529e+06
  -2.246260e+05  -4.236171e+06
   2.138450e+06  -2.874660e+06
   2.217310e+06  -1.251725e+06
   1.819079e+06  -7.194546e+05
   2.871068e+06  -5.504676e+05
   4.275877e+06   5.925556e+05
   3.499536e+06   2.566355e+06
   2.819582e+05   4.002679e+06
  -2.939883e+06   3.907987e+06
  -3.921425e+06   2.253596e+06
  -2.587341e+06  -2.381699e+05
  -4.156548e+05  -2.116516e+06
   9.310297e+05  -1.933456e+06
   5.480097e+05  -1.184201e+04
  -9.818645e+05   1.319764e+06
  -1.849220e+06   4.764545e+05
  -9.772155e+05  -1.134438e+06
   4.385751e+05  -1.093780e+06
   3.951702e+05   3.820612e+05
  -1.090187e+06   6.782418e+05
  -1.901513e+06  -1.318188e+06
  -6.712537e+05  -3.497174e+06
   1.600957e+06  -3.365980e+06
   3.119005e+06  -1.059623e+06
   3.220552e+06   1.399465e+06
   2.203089e+06   2.605487e+06
   4.911494e+05   2.474305e+06
  -1.130477e+06   1.455044e+06
  -1.504143e+06   2.924427e+05
  -4.800540e+05  -2.565905e+04
   3.753560e+05   7.201116e+05
  -3.631088e+05   1.343132e+06
  -1.866932e+06   6.471652e+05
  -2.037543e+06  -8.141386e+05
  -4.181869e+05  -1.394310e+06
   1.132100e+06  -5.915641e+05
   8.563007e+05   4.232292e+05
  -8.408157e+05   4.983305e+05
  -2.111368e+06  -2.997564e+05
  -1.675750e+06  -1.278584e+06
   2.205472e+05  -1.888907e+06
   2.188257e+06  -1.652390e+06
   2.682816e+06  -3.531671e+05
   1.239191e+06   1.202266e+06
  -8.435864e+05   1.526690e+06
  -1.541476e+06   2.586711e+05
  -2.583187e+05  -1.057103e+06
   1.454735e+06  -7.820617e+05
   1.703498e+06   7.157994e+05
   3.587034e+05   1.609535e+06
  -1.063101e+06   9.663463e+05
  -1.237201e+06  -3.002871e+05
  -2.419888e+05  -7.738341e+05
   7.950881e+05  -8.153373e+04
   7.668800e+05   1.002594e+06
  -4.978420e+05   1.413215e+06
  -1.929719e+06   6.150197e+05
  -2.027316e+06  -9.393408e+05
  -4.528184e+05  -2.012680e+06
   1.355136e+06  -1.657491e+06
   1.683133e+06  -2.558936e+05
   5.088593e+05   8.394447e+05
  -6.229831e+05   7.996611e+05
  -5.952657e+05   9.388124e+04
   1.276049e+05  -3.267235e+05
   4.538616e+05  -1.789322e+05
   6.500353e+04   6.511820e+04
  -4.798136e+05  -9.804438e+04
  -5.219977e+05  -6.783875e+05
   1.843251e+05  -1.177234e+06
   1.326077e+06  -9.167098e+05
   2.043780e+06   3.328495e+05
   1.500212e+06   1.840307e+06
  -1.234254e+05   2.356001e+06
  -1.521961e+06   1.405813e+06
  -1.627077e+06  -8.843254e+04
  -8.207958e+05  -8.272218e+05
  -3.040731e+05  -5.670415e+05
  -4.927779e+05  -1.514982e+05
  -6.615653e+05  -2.855725e+05
  -1.279781e+05  -7.627252e+05
   8.336180e+05  -9.040227e+05
   1.394488e+06  -3.454280e+05
   1.016629e+06   6.650126e+05
  -2.174389e+05   1.401258e+06
  -1.638039e+06   1.080756e+06
  -2.191699e+06  -3.988659e+05
  -1.160911e+06  -2.012393e+06
   9.251579e+05  -2.346830e+06
   2.462788e+06  -1.079254e+06
   2.303023e+06   5.922575e+05
   9.334399e+05   1.280298e+06
  -2.002866e+05   8.951811e+05
  -3.422199e+05   4.681619e+05
   1.593321e+03   7.268400e+05
  -2.031494e+04   1.298432e+06
  -6.067021e+05   1.302502e+06
  -1.259593e+06   3.693850e+05
  -1.347375e+06  -9.951077e+05
  -6.157158e+05  -1.817715e+06
   5.461365e+05  -1.419057e+06
   1.248088e+06  -3.812469e+04
   8.317705e+05   1.234758e+06
  -3.517760e+05   1.380055e+06
  -1.150567e+06   4.152242e+05
  -8.286441e+05  -6.914084e+05
   1.045592e+05  -1.082564e+06
   5.329285e+05  -7.843866e+05
   8.720969e+04  -3.956158e+05
  -4.391488e+05  -2.993495e+05
  -7.675554e+04  -3.654291e+05
   1.123811e+06  -2.452331e+05
   2.039380e+06   2.493618e+05
   1.614540e+06   9.610656e+05
  -3.240074e+03   1.421126e+06
  -1.529369e+06   1.183896e+06
  -1.785147e+06   3.226083e+05
  -8.276418e+05  -4.849408e+05
   2.419234e+05  -5.818240e+05
   5.084379e+05  -4.036407e+04
   6.126046e+04   4.260197e+05
  -4.077517e+05   2.720558e+05
  -4.855114e+05  -3.117544e+05
  -2.993390e+05  -6.790868e+05
  -1.365809e+05  -4.544701e+05
  -1.309429e+05   7.840683e+04
  -2.448520e+05   2.675143e+05
  -2.721399e+05  -2.193722e+05
   8.763552e+04  -9.519050e+05
   8.323427e+05  -1.076778e+06
   1.344781e+06  -2.494618e+05
   8.966125e+05   8.466951e+05
  -3.523043e+05   1.149874e+06
  -1.221900e+06   4.095831e+05
  -7.385659e+05  -5.172108e+05
   6.657224e+05  -6.531318e+05
   1.537403e+06   5.121159e+04
   9.727925e+05   8.161769e+05
  -4.665719e+05   9.607789e+05
  -1.438193e+06   4.783321e+05
  -1.182204e+06  -1.664002e+05
  -1.327309e+05  -4.902629e+05
   6.273255e+05  -2.723804e+05
   3.969639e+05   2.785184e+05
  -5.292660e+05   5.441852e+05
  -1.151714e+06  -4.406927e+03
  -7.298586e+05  -1.101115e+06
   4.620243e+05  -1.686156e+06
   1.381907e+06  -9.444549e+05
   1.251886e+06   6.681130e+05
   2.765965e+05   1.721728e+06
  -6.668364e+05   1.268512e+06
  -9.023805e+05  -1.562664e+05
  -4.444870e+05  -1.145801e+06
   2.065896e+05  -9.368873e+05
   5.532710e+05  -9.304528e+04
   4.441854e+05   3.453827e+05
   1.376405e+05   1.224863e+05
   5.429896e+04  -8.810485e+04
   3.234240e+05   2.866071e+05
   5.501307e+05   9.214916e+05
   1.978653e+05   1.037233e+06
  -7.137615e+05   4.127951e+05
  -1.444785e+06  -3.884982e+05
  -1.246616e+06  -7.622229e+05
  -2.063183e+05  -6.769040e+05
   7.819093e+05  -4.428693e+05
   9.381362e+05  -2.071416e+05
   3.781337e+05   4.906814e+04
  -1.198538e+05   2.267977e+05
  -6.129625e+04   1.886614e+05
   2.227116e+05   6.527098e+04
   6.921217e+04   1.227057e+05
  -5.901589e+05   2.689724e+05
  -1.020200e+06   5.110288e+04
  -5.091969e+05  -6.501312e+05
   7.212921e+05  -1.202883e+06
   1.635522e+06  -8.495988e+05
   1.436270e+06   3.210813e+05
   3.516202e+05   1.343593e+06
  -6.850835e+05   1.388840e+06
  -9.900312e+05   6.020309e+05
  -6.401067e+05  -1.717114e+05
  -1.649964e+05  -3.399362e+05
   2.844173e+04  -8.671406e+04
  -9.404219e+04  -4.374576e+03
  -2.937457e+05  -3.564665e+05
  -2.651712e+05  -7.752252e+05
   1.301392e+05  -6.766996e+05
   6.569897e+05   5.598142e+04
   7.886839e+05   8.558442e+05
   2.121278e+05   9.948616e+05
  -6.892985e+05   3.167775e+05
  -1.052900e+06  -6.064232e+05
  -4.240587e+05  -1.038629e+06
   6.459268e+05  -7.258099e+05
   1.109238e+06  -2.194571e+03
   5.758452e+05   5.906901e+05
  -2.403569e+05   7.111943e+05
  -3.804509e+05   3.907147e+05
   2.029077e+05  -1.414430e+04
   6.186662e+05  -7.824099e+04
   1.727514e+05   2.968599e+05
  -7.661999e+05   6.990604e+05
  -1.229440e+06   5.689527e+05
  -7.905802e+05  -1.555887e+05
   4.117389e+04  -8.642986e+05
   5.204200e+05  -8.811907e+05
   4.384277e+05  -2.121189e+05
   9.660289e+04   4.447903e+05
  -1.986514e+05   4.558246e+05
  -3.440987e+05  -9.009901e+04
  -2.844288e+05  -5.448180e+05
   1.427560e+04  -4.479564e+05
   3.820983e+05   6.220998e+03
   4.927612e+05   2.682644e+05
   2.440211e+05   1.013537e+05
  -6.233805e+04  -1.685586e+05
  -9.022984e+04  -9.278604e+04
   7.656476e+04   3.148683e+05
   5.528095e+04   5.668579e+05
  -2.678874e+05   2.909129e+05
  -5.080087e+05  -2.952665e+05
  -2.506925e+05  -6.072913e+05
   3.585806e+05  -3.444908e+05
   6.824799e+05   2.066757e+05
   2.964604e+05   5.260964e+05
  -4.818576e+05   3.912838e+05
  -8.812211e+05  -3.317361e+03
  -4.981236e+05  -3.368266e+05
   2.587722e+05  -4.328806e+05
   6.132969e+05  -2.931340e+05
   2.696553e+05  -4.169624e+04
  -2.895356e+05   1.109899e+05
  -3.794926e+05   5.032633e+02
   1.167002e+05  -2.649815e+05
   6.528345e+05  -3.029256e+05
