
 $NMID
 id='ANONYMOUS ', fmtdat='(2E16.6)'
 volume=1.0
 tramp=1.0
 $END
  -2.294308e+07   1.614694e+06
  -1.665467e+07  -1.010302e+07
  -1.074642e+06  -1.511654e+07
   9.941930e+06  -1.047624e+07
   8.911325e+06  -1.146970e+06
   7.035837e+05   4.430843e+06
  -4.964001e+06   2.232175e+06
  -3.785344e+06  -3.874073e+06
   1.113462e+06  -6.628205e+06
   4.470724e+06  -3.037900e+06
   3.862615e+06   2.871017e+06
   5.844415e+05   4.813870e+06
  -2.138895e+06   1.066971e+06
  -1.754061e+06  -3.982133e+06
   1.376718e+06  -4.824375e+06
   4.008923e+06  -5.872648e+05
   3.124475e+06   4.518080e+06
  -8.055440e+05   5.907507e+06
  -4.274688e+06   3.000467e+06
  -4.501275e+06  -1.025911e+06
  -2.117423e+06  -2.967235e+06
  -2.229069e+04  -2.480656e+06
  -1.552869e+05  -1.587317e+06
  -1.650719e+06  -2.021908e+06
  -1.882948e+06  -3.395384e+06
   7.045171e+05  -3.823868e+06
   4.561593e+06  -2.115804e+06
   6.095433e+06   8.230580e+05
   3.409794e+06   2.790229e+06
  -1.174942e+06   2.386825e+06
  -3.247364e+06   2.495077e+05
  -1.122366e+06  -1.634958e+06
   2.392603e+06  -1.626894e+06
   3.465399e+06   3.288856e+05
   1.500995e+06   2.641704e+06
  -9.017359e+05   3.240065e+06
  -1.475790e+06   1.443876e+06
  -4.856219e+05  -1.019977e+06
   4.166426e+05  -1.486979e+06
   2.456368e+05   6.013549e+05
  -7.729999e+05   2.665532e+06
  -1.761215e+06   1.880614e+06
  -1.723678e+06  -1.181773e+06
  -2.236172e+05  -2.962893e+06
   1.776255e+06  -1.215547e+06
   2.230697e+06   2.191489e+06
   5.918108e+04   3.493787e+06
  -3.161040e+06   1.339823e+06
  -4.331527e+06  -2.033503e+06
  -2.018859e+06  -3.566818e+06
   1.857981e+06  -2.351164e+06
   3.861262e+06   1.287904e+05
   2.440942e+06   1.782516e+06
  -6.772036e+05   1.589382e+06
  -2.415112e+06   1.282833e+05
  -1.448735e+06  -1.046508e+06
   6.702178e+05  -8.037707e+05
   1.405777e+06   4.544006e+05
   5.621336e+04   1.214499e+06
  -1.556448e+06   5.395602e+05
  -1.270032e+06  -8.791894e+05
   8.478429e+05  -1.504948e+06
   2.495246e+06  -5.432287e+05
   1.680494e+06   1.389933e+06
  -1.119118e+06   2.855304e+06
  -3.534546e+06   2.625826e+06
  -3.758436e+06   5.480156e+05
  -2.102930e+06  -2.158897e+06
  -2.506781e+05  -3.684741e+06
   5.994725e+05  -3.231359e+06
   6.458858e+05  -1.793246e+06
   8.111585e+05  -9.225976e+05
   1.526514e+06  -8.355225e+05
   2.275714e+06  -3.682664e+05
   2.182697e+06   1.098877e+06
   9.281402e+05   2.429762e+06
  -8.458254e+05   2.007027e+06
  -1.934142e+06  -1.515227e+05
  -1.466869e+06  -2.197766e+06
   3.264872e+05  -2.374819e+06
   2.138242e+06  -7.008432e+05
   2.579292e+06   1.318310e+06
   1.422216e+06   2.268977e+06
  -1.786603e+05   1.945905e+06
  -9.238274e+05   1.170567e+06
  -8.021751e+05   7.942778e+05
  -9.782322e+05   8.752059e+05
  -2.130129e+06   7.144475e+05
  -3.274967e+06  -3.217427e+05
  -2.716729e+06  -1.995556e+06
  -1.429327e+05  -3.232585e+06
   2.667061e+06  -3.010287e+06
   3.501305e+06  -1.292429e+06
   1.932851e+06   8.153653e+05
  -3.334550e+05   1.862465e+06
  -1.253485e+06   1.244696e+06
  -3.740184e+05  -2.001167e+05
   1.011676e+06  -9.221586e+05
   1.383124e+06  -2.451015e+05
   4.895112e+05   8.534387e+05
  -5.843390e+05   8.751628e+05
  -6.388469e+05  -2.910851e+05
   4.350882e+05  -1.061833e+06
   1.566694e+06  -4.233016e+04
   1.500379e+06   2.126562e+06
  -6.934220e+04   3.292037e+06
  -2.169678e+06   2.120109e+06
  -3.274323e+06  -4.966109e+05
  -2.532458e+06  -2.446288e+06
  -5.281256e+05  -2.491112e+06
   1.159543e+06  -1.195808e+06
   1.358379e+06  -4.640051e+04
   3.976112e+05   4.414259e+04
  -2.950104e+05  -5.967665e+05
   2.125381e+05  -9.615403e+05
   1.300052e+06  -4.599656e+05
   1.537919e+06   5.017902e+05
   4.296212e+05   9.851443e+05
  -8.919391e+05   5.267941e+05
  -8.921305e+05  -3.650356e+05
   5.885877e+05  -7.225018e+05
   2.044336e+06  -6.689588e+04
   1.853691e+06   1.145491e+06
  -1.451293e+04   1.920110e+06
  -1.948490e+06   1.558147e+06
  -2.300497e+06   2.711703e+05
  -9.610723e+05  -9.185955e+05
   6.504236e+05  -1.037793e+06
   1.047405e+06  -1.209664e+05
   5.667013e+04   7.472447e+05
  -1.177710e+06   5.463924e+05
  -1.408598e+06  -5.427195e+05
  -4.508378e+05  -1.331728e+06
   7.515250e+05  -9.886238e+05
   1.095227e+06   3.348204e+04
   3.746302e+05   5.740089e+05
  -5.334458e+05   8.935253e+04
  -5.399193e+05  -8.146299e+05
   5.201906e+05  -1.100470e+06
   1.630629e+06  -3.493022e+05
   1.589767e+06   8.931450e+05
   2.940764e+05   1.642110e+06
  -1.099592e+06   1.318846e+06
  -1.371579e+06   2.362879e+05
  -4.830775e+05  -6.716189e+05
   4.991092e+05  -7.006947e+05
   6.193259e+05  -3.579263e+04
  -2.768597e+04   4.940034e+05
  -5.762920e+05   3.489225e+05
  -4.074047e+05  -1.418103e+05
   2.307499e+05  -2.257548e+05
   5.349884e+05   3.360521e+05
  -1.101715e+04   9.382722e+05
  -1.069031e+06   7.670062e+05
  -1.683048e+06  -3.171035e+05
  -1.162071e+06  -1.569147e+06
   2.033973e+05  -2.005495e+06
   1.366216e+06  -1.278282e+06
   1.533760e+06   1.903860e+04
   8.974246e+05   8.970666e+05
   2.853574e+05   8.747540e+05
   1.888885e+05   3.689451e+05
   3.067499e+05   1.581160e+05
   5.380941e+04   4.807943e+05
  -6.548582e+05   7.730679e+05
  -1.235425e+06   3.641652e+05
  -1.001784e+06  -6.514533e+05
   1.314399e+05  -1.375862e+06
   1.444791e+06  -9.880885e+05
   1.905709e+06   3.820693e+05
   1.017452e+06   1.696510e+06
  -6.762905e+05   1.926430e+06
  -1.969934e+06   9.530030e+05
  -2.013739e+06  -3.873527e+05
  -1.016391e+06  -1.118243e+06
   6.566365e+04  -9.943637e+05
   4.914424e+05  -5.896247e+05
   3.377831e+05  -5.582992e+05
   2.101574e+05  -8.818590e+05
   4.973461e+05  -9.231810e+05
   9.666078e+05  -2.159233e+05
   1.037127e+06   9.069700e+05
   4.110307e+05   1.559339e+06
  -5.470183e+05   1.163522e+06
  -1.070796e+06   1.847144e+04
  -7.077570e+05  -9.799842e+05
   1.996021e+05  -1.136724e+06
   8.188138e+05  -4.924686e+05
   6.641707e+05   3.358925e+05
   6.976733e+04   7.617668e+05
  -2.399647e+05   6.857942e+05
   1.610407e+03   4.327983e+05
   3.055015e+05   3.199490e+05
   1.702866e+04   3.293918e+05
  -8.693417e+05   1.958139e+05
  -1.582370e+06  -2.360560e+05
  -1.315390e+06  -7.892092e+05
  -9.428574e+04  -1.087303e+06
   1.151173e+06  -8.885910e+05
   1.453093e+06  -3.087729e+05
   7.429930e+05   2.454995e+05
  -1.410090e+05   3.892849e+05
  -3.799155e+05   9.791969e+04
   2.009151e+04  -2.349749e+05
   4.161721e+05  -1.680192e+05
   3.676119e+05   2.862959e+05
   6.659202e+04   6.145127e+05
  -4.754086e+04   3.867708e+05
   1.381736e+05  -1.612029e+05
   3.419431e+05  -3.320645e+05
   2.482524e+05   1.815973e+05
  -1.951734e+05   8.397228e+05
  -7.385229e+05   8.364191e+05
  -9.565640e+05   5.998428e+04
  -5.357386e+05  -7.450311e+05
   3.400790e+05  -8.073637e+05
   9.322473e+05  -1.476405e+05
   5.672187e+05   5.167992e+05
  -5.533905e+05   5.513279e+05
  -1.364756e+06  -3.434707e+04
  -9.859117e+05  -7.073566e+05
   2.986995e+05  -9.254317e+05
   1.292336e+06  -5.479883e+05
   1.136254e+06   9.308060e+04
   1.653604e+05   4.623353e+05
  -5.298266e+05   2.752946e+05
  -2.764604e+05  -2.022283e+05
   5.387395e+05  -3.525199e+05
   9.467232e+05   1.759440e+05
   4.138262e+05   1.014907e+06
  -6.402217e+05   1.325744e+06
  -1.290018e+06   6.105547e+05
  -1.009788e+06  -6.946351e+05
  -1.128007e+05  -1.512265e+06
   6.484969e+05  -1.123942e+06
   7.975792e+05   8.954700e+04
   4.186660e+05   9.972904e+05
  -1.055298e+05   8.728988e+05
  -4.436983e+05   1.076802e+05
  -4.524954e+05  -3.495673e+05
  -2.120055e+05  -1.549846e+05
  -1.409552e+04   1.083374e+05
  -1.169617e+05  -1.774804e+05
  -3.647572e+05  -7.815706e+05
  -2.356063e+05  -9.321952e+05
   4.900816e+05  -3.492670e+05
   1.233615e+06   4.194861e+05
   1.142075e+06   7.324790e+05
   1.549192e+05   5.657811e+05
  -7.968090e+05   3.109768e+05
  -8.561842e+05   1.591486e+05
  -2.372867e+05   6.913317e+03
   1.558390e+05  -1.713037e+05
  -5.429378e+04  -2.305485e+05
  -3.107670e+05  -1.530198e+05
   1.308292e+03  -1.121291e+05
   6.558862e+05  -1.256711e+05
   8.484717e+05   6.469658e+04
   1.955243e+05   5.458988e+05
  -8.128975e+05   8.776603e+05
  -1.346820e+06   5.159692e+05
  -1.023224e+06  -4.333148e+05
  -1.472806e+05  -1.180723e+06
   6.400461e+05  -1.086053e+06
   8.698913e+05  -3.489608e+05
   5.411502e+05   2.667249e+05
   5.856637e+04   2.919032e+05
  -1.359923e+05  -1.675036e+04
   4.552756e+04  -8.204526e+04
   2.875031e+05   2.890640e+05
   2.207811e+05   6.792712e+05
  -1.837727e+05   5.320920e+05
  -5.681605e+05  -1.864469e+05
  -5.166140e+05  -8.612052e+05
   3.675224e+04  -8.289556e+05
   6.714374e+05  -8.496215e+04
   7.900708e+05   7.035707e+05
   1.954455e+05   8.951455e+05
  -6.132904e+05   4.676907e+05
  -8.711507e+05  -1.149019e+05
  -3.770781e+05  -4.514137e+05
   2.387193e+05  -4.689919e+05
   2.467308e+05  -2.832337e+05
  -2.804130e+05  -5.837514e+04
  -5.562428e+05  -3.549209e+03
  -8.564838e+04  -2.384113e+05
   7.025983e+05  -5.463528e+05
   9.936928e+05  -4.792806e+05
   5.512364e+05   9.322044e+04
  -1.082480e+05   6.801811e+05
  -4.050604e+05   6.660558e+05
  -2.662031e+05   7.353259e+04
   1.830087e+04  -4.237242e+05
   2.194656e+05  -3.052111e+05
   2.796498e+05   2.048875e+05
   1.795197e+05   4.847651e+05
  -6.666008e+04   2.813569e+05
  -3.129353e+05  -8.040008e+04
  -3.650842e+05  -1.918275e+05
  -2.026408e+05  -4.161308e+04
  -4.701513e+03   6.257927e+04
   8.282959e+04  -7.951588e+04
   1.088088e+05  -3.235036e+05
   1.897268e+05  -3.510609e+05
   2.960860e+05  -3.087139e+04
   2.563446e+05   3.992544e+05
  -2.200080e+04   5.311495e+05
  -3.780197e+05   2.044982e+05
  -4.825455e+05  -2.928833e+05
  -1.488264e+05  -5.043383e+05
   4.065177e+05  -2.769054e+05
   6.765253e+05   1.173960e+05
   3.602310e+05   3.253542e+05
  -2.471044e+05   2.656011e+05
  -5.044067e+05   1.029737e+05
  -1.483973e+05   3.577121e+03
   3.580999e+05   2.513636e+04
   3.527686e+05   1.513898e+05
  -2.201139e+05   2.729102e+05
  -7.271637e+05   1.801479e+05
