
 $NMID
 id='ANONYMOUS ', fmtdat='(2E16.6)'
 volume=1.0
 tramp=1.0
 $END
   6.241517e+06   2.759263e+06
   2.187854e+06   4.633546e+06
  -2.054086e+06   3.441312e+06
  -3.234605e+06   1.049219e+06
  -1.622297e+06  -5.885667e+05
   3.638601e+05  -8.328122e+05
   1.020141e+06  -3.124045e+04
   3.739729e+05   9.971771e+05
  -6.404178e+05   1.237180e+06
  -1.127862e+06   2.518263e+05
  -7.135159e+05  -1.079448e+06
   2.084095e+05  -1.299996e+06
   7.280600e+05  -1.241799e+05
   3.136259e+05   1.108597e+06
  -5.589366e+05   1.016344e+06
  -9.007174e+05  -2.554720e+05
  -2.726830e+05  -1.368310e+06
   8.149349e+05  -1.315423e+06
   1.457076e+06  -2.601937e+05
   1.152458e+06   8.682419e+05
   1.942412e+05   1.251400e+06
  -5.568056e+05   8.034737e+05
  -4.377568e+05   2.005904e+05
   2.784166e+05   1.968633e+05
   5.647591e+05   7.562705e+05
  -1.964942e+05   1.051092e+06
  -1.372373e+06   4.882051e+05
  -1.715391e+06  -5.208865e+05
  -7.952069e+05  -1.066773e+06
   5.180594e+05  -7.794655e+05
   1.037182e+06  -5.836596e+04
   4.570934e+05   5.040456e+05
  -5.029143e+05   5.546805e+05
  -9.191600e+05   3.732327e+04
  -4.964765e+05  -7.041771e+05
   2.640002e+05  -9.702112e+05
   6.011505e+05  -3.756348e+05
   2.581980e+05   4.922543e+05
  -2.641453e+05   6.102112e+05
  -3.045284e+05  -1.505026e+05
   1.572248e+05  -7.647158e+05
   4.969925e+05  -4.108721e+05
   2.568570e+05   4.051235e+05
  -2.948167e+05   5.582425e+05
  -5.291436e+05  -1.816710e+05
  -1.722934e+05  -9.120604e+05
   4.959328e+05  -7.901257e+05
   9.762835e+05   4.433092e+04
   9.071322e+05   8.065345e+05
   2.664706e+05   9.282037e+05
  -5.343364e+05   4.415567e+05
  -8.633214e+05  -1.967039e+05
  -4.486537e+05  -4.824426e+05
   2.627534e+05  -2.469142e+05
   5.481245e+05   1.887271e+05
   2.150306e+05   3.435850e+05
  -2.421106e+05   1.137279e+05
  -3.040847e+05  -1.586540e+05
  -1.181089e+04  -1.705800e+05
   1.964971e+05  -1.684245e+03
   4.221790e+04   9.846752e+04
  -3.258651e+05   3.336886e+04
  -5.047114e+05  -1.655885e+05
  -1.910008e+05  -4.605079e+05
   5.217709e+05  -6.958009e+05
   1.123242e+06  -5.566711e+05
   1.099684e+06   7.235350e+04
   4.777092e+05   7.930829e+05
  -1.614417e+05   1.034940e+06
  -3.237918e+05   7.203048e+05
  -1.343770e+05   3.325859e+05
  -8.359502e+04   2.658506e+05
  -3.666937e+05   3.523843e+05
  -6.887570e+05   1.770195e+05
  -6.800524e+05  -3.123062e+05
  -2.942242e+05  -7.024782e+05
   2.124228e+05  -5.837158e+05
   5.093544e+05   5.332517e+02
   3.769662e+05   5.709475e+05
  -1.330924e+05   6.350392e+05
  -6.375013e+05   1.306872e+05
  -6.912726e+05  -5.087259e+05
  -2.478960e+05  -7.669292e+05
   2.577381e+05  -5.444213e+05
   4.037534e+05  -1.958827e+05
   2.625241e+05  -7.104425e+04
   2.458733e+05  -1.334400e+05
   5.288461e+05  -9.321778e+04
   7.986681e+05   1.973955e+05
   6.177564e+05   5.929470e+05
  -5.642597e+04   8.253529e+05
  -7.687503e+05   7.131448e+05
  -9.698117e+05   2.676086e+05
  -5.324282e+05  -2.688969e+05
   1.111828e+05  -5.292913e+05
   3.782982e+05  -3.358957e+05
   1.120763e+05   6.559959e+04
  -2.934056e+05   2.283608e+05
  -3.713666e+05   1.138768e+04
  -9.564869e+04  -2.622897e+05
   1.696668e+05  -2.281660e+05
   1.454282e+05   5.685161e+04
  -9.014288e+04   1.977706e+05
  -2.728899e+05  -4.742216e+04
  -2.248648e+05  -4.825616e+05
   6.751328e+04  -6.822769e+05
   4.726788e+05  -4.130627e+05
   7.287526e+05   1.547700e+05
   5.918664e+05   6.000853e+05
   1.127146e+05   6.193871e+05
  -3.199727e+05   2.935442e+05
  -3.612200e+05  -9.140321e+03
  -1.009982e+05  -2.115237e+04
   5.858701e+04   1.591108e+05
  -9.593293e+04   2.282766e+05
  -3.497340e+05   5.598312e+04
  -3.561753e+05  -1.846461e+05
  -6.252425e+04  -2.518178e+05
   2.342600e+05  -1.032628e+05
   2.131229e+05   9.524459e+04
  -1.350181e+05   1.499025e+05
  -4.766495e+05  -9.656954e+03
  -4.375711e+05  -2.848690e+05
   1.832161e+04  -4.581912e+05
   5.073333e+05  -3.515890e+05
   5.852278e+05  -1.640732e+04
   2.095993e+05   2.636289e+05
  -2.152604e+05   2.412384e+05
  -2.790483e+05  -2.034670e+04
   1.691121e+04  -2.075230e+05
   3.209291e+05  -1.046634e+05
   3.337002e+05   1.740118e+05
   7.581019e+04   3.293747e+05
  -1.960978e+05   2.117451e+05
  -2.497582e+05  -3.265084e+04
  -6.922625e+04  -1.361048e+05
   1.356278e+05   5.299299e+03
   1.137394e+05   2.289394e+05
  -1.653039e+05   2.749443e+05
  -4.348303e+05   5.060484e+04
  -3.889068e+05  -2.736078e+05
  -2.919629e+04  -4.285663e+05
   3.164341e+05  -3.002602e+05
   3.478636e+05  -2.055572e+04
   1.001011e+05   1.748312e+05
  -1.397028e+05   1.602624e+05
  -1.589458e+05   6.797659e+03
  -2.841008e+03  -1.116958e+05
   1.294312e+05  -9.098705e+04
   1.028715e+05   7.229371e+03
  -3.335009e+04   2.844682e+04
  -9.981503e+04  -9.051796e+04
   3.326280e+04  -2.204397e+05
   2.878143e+05  -1.611471e+05
   4.184007e+05   1.240798e+05
   2.562956e+05   4.319783e+05
  -9.633391e+04   5.077038e+05
  -3.624579e+05   2.944689e+05
  -3.757232e+05  -2.582235e+04
  -2.211375e+05  -2.221974e+05
  -9.149373e+04  -2.175059e+05
  -6.686775e+04  -1.174537e+05
  -6.786185e+04  -7.459070e+04
   1.445906e+04  -1.297307e+05
   1.823819e+05  -1.726223e+05
   3.099281e+05  -6.650881e+04
   2.427297e+05   1.711075e+05
  -4.666024e+04   3.334029e+05
  -3.770775e+05   2.181021e+05
  -4.722251e+05  -1.353476e+05
  -2.131197e+05  -4.457747e+05
   2.232470e+05  -4.560817e+05
   5.137297e+05  -1.790846e+05
   4.823597e+05   1.400324e+05
   2.283280e+05   2.802649e+05
  -1.691374e+04   2.333593e+05
  -1.141664e+05   1.543730e+05
  -9.919512e+04   1.680487e+05
  -9.375799e+04   2.390854e+05
  -1.656361e+05   2.201648e+05
  -2.588041e+05   2.191016e+04
  -2.463221e+05  -2.619051e+05
  -6.938373e+04  -4.116784e+05
   1.676084e+05  -2.877709e+05
   2.699243e+05   1.929053e+04
   1.469956e+05   2.629381e+05
  -8.183427e+04   2.701516e+05
  -2.043065e+05   8.559967e+04
  -1.327908e+05  -1.073942e+05
   1.910802e+04  -1.780988e+05
   7.717399e+04  -1.436723e+05
   7.565440e+02  -9.919345e+04
  -7.677839e+04  -9.343606e+04
   8.236098e+02  -8.765524e+04
   2.248288e+05  -1.988500e+04
   3.953846e+05   1.116430e+05
   3.088276e+05   2.348467e+05
  -1.582939e+04   2.661063e+05
  -3.234997e+05   1.816694e+05
  -3.684585e+05   3.604406e+04
  -1.624012e+05  -7.713349e+04
   5.630982e+04  -8.892225e+04
   9.154924e+04  -9.286197e+03
  -2.276511e+04   6.765596e+04
  -1.137670e+05   4.044528e+04
  -8.819238e+04  -8.471096e+04
  -8.766082e+03  -1.744968e+05
   1.865331e+04  -1.127780e+05
  -2.816220e+04   3.862181e+04
  -8.067806e+04   8.763027e+04
  -5.719882e+04  -4.961187e+04
   6.369961e+04  -2.178876e+05
   2.123765e+05  -1.965009e+05
   2.594303e+05   2.471850e+04
   1.224943e+05   2.223880e+05
  -1.212568e+05   2.008275e+05
  -2.593032e+05   6.824725e+03
  -1.388115e+05  -1.479650e+05
   1.520970e+05  -1.238465e+05
   3.392210e+05   3.471032e+04
   2.295245e+05   1.835309e+05
  -8.655087e+04   2.130540e+05
  -3.208170e+05   1.122271e+05
  -2.755224e+05  -3.696652e+04
  -3.458147e+04  -1.135640e+05
   1.346464e+05  -5.554317e+04
   6.174646e+04   6.397284e+04
  -1.534255e+05   8.643383e+04
  -2.513588e+05  -6.724252e+04
  -9.092470e+04  -2.843001e+05
   1.991914e+05  -3.442696e+05
   3.558065e+05  -1.373341e+05
   2.505461e+05   2.015454e+05
  -4.462914e+02   3.934347e+05
  -1.828853e+05   2.741362e+05
  -1.927183e+05  -3.856349e+04
  -8.331446e+04  -2.550162e+05
   3.992696e+04  -2.077797e+05
   1.110520e+05  -1.338959e+04
   1.099097e+05   8.958816e+04
   5.342805e+04   3.319384e+04
   3.036786e+03  -2.299326e+04
   2.044573e+04   6.456559e+04
   7.426500e+04   2.150346e+05
   4.144667e+04   2.312653e+05
  -1.327308e+05   6.384898e+04
  -3.083220e+05  -1.321838e+05
  -2.764945e+05  -2.004795e+05
  -2.481341e+04  -1.475963e+05
   2.118220e+05  -7.386328e+04
   2.191039e+05  -2.612281e+04
   5.570274e+04   1.327267e+04
  -4.453052e+04   4.515863e+04
   1.401400e+04   4.695295e+04
   8.270537e+04   3.161144e+04
  -1.302528e+03   3.421151e+04
  -1.757831e+05   3.358281e+04
  -2.225012e+05  -3.655419e+04
  -3.877114e+04  -1.661082e+05
   2.364695e+05  -2.235515e+05
   3.714857e+05  -9.597805e+04
   2.655521e+05   1.508658e+05
   1.532314e+04   3.144066e+05
  -1.948118e+05   2.643116e+05
  -2.426057e+05   7.221202e+04
  -1.418909e+05  -7.812271e+04
  -9.266182e+03  -8.294977e+04
   4.152537e+04  -5.520146e+03
  -4.878965e+03   1.470093e+04
  -6.324368e+04  -7.540144e+04
  -4.153095e+04  -1.755037e+05
   6.198521e+04  -1.371658e+05
   1.522426e+05   5.708365e+04
   1.252405e+05   2.419552e+05
  -2.736717e+04   2.295761e+05
  -1.881451e+05   1.699748e+04
  -2.024065e+05  -2.030406e+05
  -3.152856e+04  -2.457781e+05
   1.792120e+05  -1.115143e+05
   2.286407e+05   5.505379e+04
   8.014077e+04   1.343164e+05
  -8.442403e+04   1.173357e+05
  -7.460450e+04   5.784674e+04
   7.467709e+04   8.974982e+03
   1.460962e+05   9.798333e+03
   1.526278e+04   6.828346e+04
  -1.930487e+05   1.263551e+05
  -2.612807e+05   9.142945e+04
  -1.334887e+05  -4.939958e+04
   4.772100e+04  -1.761932e+05
   1.262329e+05  -1.545803e+05
   8.099762e+04  -2.578020e+03
  -8.370083e+03   1.155062e+05
  -6.998066e+04   7.770804e+04
  -7.876646e+04  -5.741826e+04
  -3.671011e+04  -1.317978e+05
   3.288485e+04  -7.596560e+04
   8.447139e+04   2.766475e+04
   8.391313e+04   6.271307e+04
   4.520322e+04   1.629554e+04
   1.024229e+04  -2.269669e+04
  -6.034676e+03   1.639702e+04
  -2.659805e+04   9.579011e+04
  -6.606300e+04   1.099397e+05
  -9.645185e+04   1.092476e+04
  -7.271846e+04  -1.222031e+05
   1.313362e+04  -1.567740e+05
   1.076442e+05  -5.120296e+04
   1.275452e+05   9.319479e+04
   3.283063e+04   1.397453e+05
  -1.141495e+05   6.027049e+04
  -1.796205e+05  -5.122670e+04
  -8.753086e+04  -9.596941e+04
   7.839618e+04  -6.497437e+04
   1.441976e+05  -1.423327e+04
   4.169297e+04   1.055383e+04
  -9.996972e+04  -1.373477e+03
  -1.001784e+05  -4.093042e+04
   5.488033e+04  -7.510528e+04
   1.919881e+05  -4.706466e+04
