
 $NMID
 id='ANONYMOUS ', fmtdat='(2E16.6)'
 volume=1.0
 tramp=1.0
 $END
  -8.090331e+06  -1.123791e+06
  -3.640529e+06  -6.535103e+06
   2.810991e+06  -5.567494e+06
   4.741483e+06  -5.663788e+05
   1.817238e+06   2.553366e+06
  -1.294394e+06   1.618566e+06
  -1.506132e+06  -7.357904e+05
   1.226807e+05  -1.658968e+06
   1.367515e+06  -9.374362e+05
   1.498353e+06   2.933910e+05
   8.257759e+05   1.212040e+06
  -2.111972e+05   1.305530e+06
  -8.698398e+05   4.279324e+05
  -4.552150e+05  -5.858549e+05
   5.808029e+05  -5.262048e+05
   9.089167e+05   5.859258e+05
   4.673493e+04   1.434590e+06
  -1.090230e+06   1.154802e+06
  -1.565578e+06   1.985887e+05
  -1.371740e+06  -6.935335e+05
  -7.828740e+05  -1.321583e+06
   1.504697e+05  -1.530791e+06
   1.028845e+06  -9.839137e+05
   1.063595e+06   2.816704e+04
   2.442982e+05   4.768046e+05
  -3.001914e+05  -5.044142e+04
   2.047506e+05  -6.349483e+05
   1.043729e+06  -3.175840e+05
   1.081303e+06   5.671931e+05
   3.240787e+05   1.035750e+06
  -3.645890e+05   8.311255e+05
  -5.677694e+05   4.064799e+05
  -4.936439e+05   4.412797e+04
  -2.722736e+05  -2.104212e+05
   5.103648e+04  -1.413821e+05
   1.076300e+05   2.844085e+05
  -3.440159e+05   4.726618e+05
  -7.595939e+05  -5.161912e+04
  -4.622906e+05  -7.164720e+05
   2.004788e+05  -6.275709e+05
   2.924331e+05  -2.626412e+04
  -1.687593e+05   1.974543e+04
  -1.589229e+05  -6.152855e+05
   6.607699e+05  -7.937774e+05
   1.250244e+06   1.109509e+05
   6.934117e+05   1.154749e+06
  -4.549016e+05   1.139601e+06
  -9.849277e+05   2.105720e+05
  -5.836443e+05  -5.528111e+05
   9.842683e+04  -5.731804e+05
   4.651462e+05  -1.142835e+05
   3.863432e+05   3.830203e+05
  -6.028284e+04   6.093726e+05
  -5.884236e+05   3.336776e+05
  -6.761413e+05  -2.993751e+05
  -1.597893e+05  -6.343970e+05
   3.341715e+05  -2.758984e+05
   1.567117e+05   2.178979e+05
  -3.508792e+05   5.454168e+04
  -2.974507e+05  -5.680500e+05
   4.055551e+05  -7.053139e+05
   8.963302e+05  -7.609641e+04
   6.326039e+05   5.772318e+05
   4.789451e+04   6.556968e+05
  -2.846632e+05   4.308414e+05
  -4.173659e+05   3.089255e+05
  -5.621128e+05   1.222690e+05
  -4.959276e+05  -3.345996e+05
  -7.474456e+03  -6.523119e+05
   4.856945e+05  -3.493517e+05
   3.969458e+05   2.706586e+05
  -1.534275e+05   4.524415e+05
  -4.778486e+05   3.360777e+04
  -2.523951e+05  -4.076964e+05
   1.699586e+05  -4.022789e+05
   3.496606e+05  -9.040120e+04
   2.331530e+05   1.535852e+05
   6.854429e+03   1.681316e+05
  -1.454269e+05  -3.890773e+03
  -7.491855e+04  -2.203929e+05
   2.240246e+05  -2.459388e+05
   4.685386e+05   5.497666e+04
   3.319233e+05   4.513057e+05
  -1.022178e+05   5.369855e+05
  -3.989952e+05   2.525111e+05
  -3.431592e+05  -4.983640e+04
  -1.668774e+05  -1.180195e+05
  -1.271268e+05  -8.094244e+04
  -1.605455e+05  -1.233252e+05
  -1.042582e+05  -1.914686e+05
   1.550746e+04  -1.843279e+05
   1.038432e+05  -1.606791e+05
   1.783410e+05  -1.606747e+05
   2.383052e+05  -6.756980e+04
   1.641495e+05   1.376931e+05
  -4.677961e+04   2.188809e+05
  -1.480440e+05   3.477251e+04
   1.404194e+04  -1.638165e+05
   2.115223e+05  -8.292272e+04
   1.603085e+05   1.445622e+05
  -2.907751e+04   1.786426e+05
  -4.937163e+04   3.472380e+04
   7.322762e+04   3.225467e+04
   2.717248e+04   2.188764e+05
  -2.310736e+05   2.636239e+05
  -3.666957e+05   4.837625e+03
  -1.913560e+05  -2.730703e+05
   5.600785e+04  -2.763002e+05
   1.066134e+05  -1.060162e+05
   3.656638e+04  -1.723428e+04
   4.027412e+04  -2.607826e+04
   8.248067e+04  -3.429376e+03
   3.010355e+04   2.919919e+04
  -4.804032e+04  -3.144151e+04
   1.175597e+04  -1.186149e+05
   1.605003e+05  -7.308231e+04
   1.930584e+05   8.052620e+04
   6.846948e+04   1.627306e+05
  -5.226510e+04   1.187546e+05
  -7.150698e+04   6.284134e+04
  -5.222453e+04   5.510196e+04
  -4.862272e+04   3.538710e+04
  -3.431531e+04  -9.864312e+03
  -2.169809e+04  -1.037138e+04
  -6.998696e+04   2.329055e+04
  -1.340216e+05  -1.665320e+04
  -7.971197e+04  -1.281924e+05
   8.801197e+04  -1.517918e+05
   1.766565e+05  -1.705427e+04
   7.246363e+04   1.180245e+05
  -8.684949e+04   8.703196e+04
  -1.094772e+05  -4.974895e+04
  -1.476718e+03  -1.137257e+05
   9.164066e+04  -5.581728e+04
   9.768017e+04   3.089710e+04
   5.112509e+04   7.469079e+04
  -1.117688e+04   7.431653e+04
  -6.377767e+04   3.350964e+04
  -5.474541e+04  -3.195285e+04
   2.684254e+04  -5.252019e+04
   8.300288e+04   1.740177e+04
   1.985766e+04   1.008194e+05
  -1.004688e+05   8.259798e+04
  -1.330508e+05  -2.391898e+04
  -5.265406e+04  -9.885133e+04
   3.337074e+04  -9.048655e+04
   6.075274e+04  -5.604387e+04
   6.959352e+04  -3.125698e+04
   8.267726e+04   1.730443e+04
   5.391527e+04   8.698492e+04
  -2.391205e+04   1.053081e+05
  -7.554102e+04   4.801759e+04
  -6.057911e+04  -1.077371e+04
  -3.545765e+04  -1.958126e+04
  -4.191009e+04  -2.552540e+04
  -3.072878e+04  -6.723641e+04
   3.310221e+04  -8.591182e+04
   8.110604e+04  -2.694298e+04
   4.682379e+04   4.838479e+04
  -1.466080e+04   5.125241e+04
  -1.429750e+04   6.406798e+03
   2.264221e+04  -4.585807e+02
   8.337187e+03   2.665820e+04
  -4.711909e+04   1.132564e+04
  -4.962438e+04  -4.761796e+04
   1.687758e+04  -6.493019e+04
   6.373078e+04  -1.256187e+04
   4.524819e+04   3.679551e+04
   1.890308e+04   3.597915e+04
   2.562473e+04   3.066441e+04
   1.655457e+04   5.702429e+04
  -4.516955e+04   6.554487e+04
  -9.888045e+04   1.129679e+04
  -7.587403e+04  -5.335089e+04
  -1.059524e+04  -5.319593e+04
   1.461755e+04  -8.131152e+03
  -7.266312e+03   1.479971e+03
  -1.525972e+04  -4.160584e+04
   1.616098e+04  -7.610137e+04
   5.194977e+04  -5.742993e+04
   6.184775e+04  -4.073678e+03
   4.862992e+04   4.674168e+04
   1.778263e+04   7.316078e+04
  -2.471541e+04   5.938320e+04
  -4.753287e+04   5.936588e+03
  -2.100717e+04  -4.505285e+04
   2.859202e+04  -4.282566e+04
   4.162387e+04   4.578781e+03
   7.057031e+03   3.797961e+04
  -2.541509e+04   2.944139e+04
  -2.206068e+04   1.220431e+04
  -5.507002e+03   1.639156e+04
  -5.919481e+03   2.254297e+04
  -1.880332e+04   3.514543e+03
  -2.983844e+04  -2.765334e+04
  -3.824142e+04  -4.277287e+04
  -3.439602e+04  -4.099748e+04
   2.157055e+03  -3.535171e+04
   5.599488e+04  -2.229228e+04
   7.071962e+04   2.761479e+03
   2.582053e+04   1.984695e+04
  -2.078175e+04   8.843711e+03
  -9.962719e+03  -1.346498e+04
   3.284362e+04  -1.296924e+04
   4.025388e+04   1.320431e+04
   5.303698e+03   3.659207e+04
  -1.869521e+04   3.920959e+04
  -8.707088e+03   2.781737e+04
   9.113313e+02   1.203389e+04
  -1.358492e+04  -3.837129e+03
  -2.904939e+04  -1.069298e+04
  -2.438573e+04  -3.952017e+03
  -1.500013e+04  -2.379848e+02
  -1.380899e+04  -1.623438e+04
  -2.215440e+03  -3.355346e+04
   2.835665e+04  -1.831280e+04
   4.315672e+04   2.174699e+04
   1.139010e+04   3.714790e+04
  -3.827803e+04   5.571296e+03
  -4.957924e+04  -3.458470e+04
  -1.207616e+04  -3.887482e+04
   3.240058e+04  -1.346566e+04
   4.696110e+04   7.674049e+03
   3.088244e+04   1.409994e+04
   1.838741e+03   1.588131e+04
  -1.982657e+04   1.126694e+04
  -1.382104e+04  -4.949473e+03
   1.901935e+04  -1.291820e+04
   3.921077e+04   1.219496e+04
   7.529318e+03   5.220758e+04
  -5.416118e+04   5.548919e+04
  -7.735813e+04   4.405980e+03
  -3.388472e+04  -5.591599e+04
   2.653344e+04  -7.023423e+04
   4.424874e+04  -3.362086e+04
   2.212450e+04   1.371415e+04
   2.453194e+03   3.450520e+04
  -2.223818e+02   2.353838e+04
  -4.601865e+03   1.508372e+03
  -1.589983e+04  -7.304415e+03
  -1.620764e+04   1.723432e+03
  -2.443866e+03   7.135449e+03
   3.595953e+03  -1.188872e+04
  -5.683131e+03  -4.111627e+04
  -5.475504e+03  -4.195673e+04
   2.139737e+04  -3.381561e+03
   4.885716e+04   3.808441e+04
   3.762765e+04   4.413409e+04
  -8.912502e+03   2.082884e+04
  -4.414118e+04   2.866675e+02
  -3.516057e+04  -5.701754e+03
  -9.678705e+02  -8.482375e+03
   1.548878e+04  -1.160614e+04
   1.587760e+03  -7.024349e+03
  -1.318016e+04   1.913585e+03
   3.291590e+02   2.802603e+03
   2.953347e+04   6.036690e+02
   3.297735e+04   1.307208e+04
  -6.916582e+03   3.406628e+04
  -5.719948e+04   3.073805e+04
  -6.920476e+04  -8.856477e+03
  -3.246813e+04  -5.029074e+04
   1.788190e+04  -5.405873e+04
   4.348832e+04  -2.400829e+04
   3.763541e+04   5.185783e+03
   1.742981e+04   1.367869e+04
  -8.376322e+02   8.219178e+03
  -9.124813e+03   6.084124e+02
  -4.508435e+03  -1.878935e+03
   6.369221e+03   7.513143e+03
   6.834126e+03   2.443190e+04
  -1.060326e+04   2.427427e+04
  -2.745103e+04  -9.623981e+03
  -1.718905e+04  -4.979867e+04
   1.803575e+04  -4.672727e+04
   4.293279e+04   5.233649e+03
   2.859822e+04   5.225379e+04
  -1.257184e+04   4.663389e+04
  -4.026697e+04   4.197336e+03
  -3.052190e+04  -2.440009e+04
   8.165056e+02  -2.011075e+04
   1.824607e+04  -6.250177e+03
   5.247140e+03  -4.229137e+03
  -1.913559e+04  -9.437340e+03
  -2.194291e+04  -1.176211e+04
   6.310732e+03  -1.254238e+04
   3.921335e+04  -1.211864e+04
   4.279332e+04  -1.833002e+03
   1.320521e+04   1.816772e+04
  -2.035839e+04   2.836752e+04
  -2.900327e+04   1.308769e+04
  -1.185460e+04  -1.403681e+04
   1.047990e+04  -2.325997e+04
   1.991652e+04  -5.008502e+03
   1.297310e+04   1.948516e+04
  -2.624575e+03   2.462500e+04
  -1.491466e+04   8.092847e+03
  -1.561839e+04  -1.078685e+04
  -8.109354e+03  -1.433780e+04
  -4.042663e+03  -4.492404e+03
  -6.785583e+03   1.255650e+03
  -4.484632e+03  -8.714547e+03
   1.195241e+04  -2.356111e+04
   3.023533e+04  -1.988718e+04
   2.878921e+04   8.402916e+03
   5.486002e+03   3.649825e+04
  -1.864570e+04   3.390199e+04
  -2.499946e+04   1.196695e+03
  -1.417145e+04  -2.852513e+04
   3.823577e+03  -2.694426e+04
   2.062594e+04  -3.204374e+02
   2.573379e+04   2.221351e+04
   9.060005e+03   2.206708e+04
  -2.009855e+04   5.611685e+03
  -3.092485e+04  -9.213043e+03
  -6.539723e+03  -1.086756e+04
   2.639548e+04   2.624402e+02
   2.509545e+04   1.475825e+04
  -1.301907e+04   1.920375e+04
  -4.302194e+04   5.406934e+03
