
 $NMID
 id='ANONYMOUS ', fmtdat='(2E16.6)'
 volume=1.0
 tramp=1.0
 $END
   2.463508e+07  -1.603643e+06
   1.629053e+07   1.328929e+07
  -1.270550e+06   1.661397e+07
  -1.128392e+07   8.300197e+06
  -7.920972e+06  -1.469235e+06
   6.242187e+05  -4.290401e+06
   4.550200e+06  -5.155681e+05
   2.215547e+06   4.122493e+06
  -2.026379e+06   5.036249e+06
  -4.293324e+06   1.757409e+06
  -3.504654e+06  -2.656214e+06
  -6.398778e+05  -4.144307e+06
   1.851779e+06  -1.279866e+06
   1.515679e+06   2.850517e+06
  -1.414781e+06   3.595486e+06
  -3.689593e+06  -6.413427e+04
  -2.558342e+06  -4.457926e+06
   1.169862e+06  -5.559178e+06
   4.341971e+06  -2.973654e+06
   4.811561e+06   7.385980e+05
   2.872634e+06   3.138524e+06
   3.699311e+05   3.465965e+06
  -7.706390e+05   2.408464e+06
  -2.969633e+03   1.435182e+06
   1.030432e+06   1.650172e+06
   6.218856e+03   2.491596e+06
  -2.988519e+06   2.196400e+06
  -4.908019e+06   1.571769e+05
  -3.363856e+06  -1.990724e+06
   1.679344e+05  -2.346377e+06
   2.126650e+06  -1.005454e+06
   1.163130e+06   4.402315e+05
  -8.667465e+05   8.604080e+05
  -1.776165e+06   1.681616e+05
  -1.231250e+06  -1.194090e+06
  -6.649608e+04  -2.239782e+06
   9.414881e+05  -1.706562e+06
   1.191547e+06   3.006064e+05
   4.836500e+05   1.590369e+06
  -3.169746e+05   4.348201e+05
   3.388464e+04  -1.602034e+06
   1.238163e+06  -1.366686e+06
   1.354758e+06   1.294984e+06
  -5.589967e+05   2.845136e+06
  -2.681090e+06   7.997886e+05
  -2.408211e+06  -2.736538e+06
   4.115560e+05  -3.757955e+06
   3.237746e+06  -1.319066e+06
   3.598232e+06   1.839288e+06
   1.345082e+06   2.912223e+06
  -1.571886e+06   1.650076e+06
  -2.847830e+06  -3.688120e+05
  -1.585682e+06  -1.553047e+06
   9.033698e+05  -1.215016e+06
   2.163605e+06   1.456694e+05
   1.106926e+06   1.117571e+06
  -7.101508e+05   7.089278e+05
  -9.972293e+05  -4.084201e+05
   3.569990e+05  -6.705806e+05
   1.255098e+06   3.207273e+05
   2.508713e+05   1.319781e+06
  -1.652459e+06   1.121974e+06
  -2.423628e+06  -1.439833e+05
  -1.314008e+06  -1.606263e+06
   7.843093e+05  -2.570732e+06
   2.538691e+06  -2.461788e+06
   3.062364e+06  -8.717050e+05
   2.166852e+06   1.553519e+06
   5.269197e+05   3.048717e+06
  -6.385967e+05   2.518700e+06
  -6.926900e+05   9.656537e+05
  -2.781735e+05   2.264589e+05
  -4.274912e+05   6.036737e+05
  -1.174453e+06   7.501715e+05
  -1.579780e+06  -1.770925e+05
  -1.004636e+06  -1.308000e+06
   1.777086e+05  -1.312260e+06
   1.083737e+06  -8.425172e+04
   1.055274e+06   1.272298e+06
  -8.797474e+03   1.659723e+06
  -1.491105e+06   8.174490e+05
  -2.241566e+06  -6.681828e+05
  -1.543031e+06  -1.808803e+06
  -2.450701e+04  -1.929709e+06
   9.422186e+05  -1.258398e+06
   9.162980e+05  -6.429343e+05
   8.474035e+05  -5.255985e+05
   1.556159e+06  -4.525963e+05
   2.388851e+06   2.129630e+05
   2.008390e+06   1.380458e+06
   2.068815e+05   2.286964e+06
  -1.714027e+06   2.251582e+06
  -2.335810e+06   1.195387e+06
  -1.455835e+06  -3.068122e+05
  -5.516885e+04  -1.281968e+06
   6.802847e+05  -1.035317e+06
   2.982963e+05   5.731037e+04
  -6.172836e+05   7.328514e+05
  -1.016595e+06   2.547655e+05
  -4.751657e+05  -6.212863e+05
   3.092148e+05  -6.401841e+05
   3.413835e+05   1.921294e+05
  -4.379500e+05   5.652950e+05
  -1.077363e+06  -3.396218e+05
  -7.473234e+05  -1.710255e+06
   4.121442e+05  -2.100305e+06
   1.593161e+06  -1.080913e+06
   2.071426e+06   4.967595e+05
   1.579054e+06   1.534774e+06
   3.918340e+05   1.568381e+06
  -7.025431e+05   8.701655e+05
  -9.113354e+05   1.363770e+05
  -2.793119e+05  -1.331159e+04
   2.258932e+05   4.102875e+05
  -1.601022e+05   7.294884e+05
  -9.872029e+05   3.749994e+05
  -1.137215e+06  -3.788600e+05
  -2.906930e+05  -7.376978e+05
   6.267055e+05  -3.751638e+05
   5.668646e+05   2.258094e+05
  -4.276245e+05   4.060619e+05
  -1.315958e+06  -1.290127e+04
  -1.157235e+06  -7.180124e+05
   1.906827e+04  -1.212100e+06
   1.273176e+06  -1.069262e+06
   1.573687e+06  -2.525798e+05
   7.153049e+05   6.481432e+05
  -4.513531e+05   8.208808e+05
  -8.128452e+05   1.385979e+05
  -1.112522e+05  -5.695275e+05
   8.217043e+05  -4.453512e+05
   9.971676e+05   3.641701e+05
   2.913394e+05   9.179649e+05
  -5.449106e+05   6.390031e+05
  -7.372784e+05  -7.347055e+04
  -2.118171e+05  -4.133087e+05
   4.151059e+05  -6.502315e+04
   4.303053e+05   5.639200e+05
  -3.002886e+05   8.082423e+05
  -1.122585e+06   3.403012e+05
  -1.166013e+06  -5.471638e+05
  -2.726744e+05  -1.151028e+06
   7.465707e+05  -9.664862e+05
   9.606401e+05  -1.882784e+05
   3.309422e+05   4.654299e+05
  -3.377263e+05   4.874093e+05
  -3.875150e+05   5.676540e+04
   3.180839e+04  -2.646065e+05
   3.193878e+05  -1.890140e+05
   1.630352e+05   5.199618e+04
  -2.103211e+05   5.047299e+04
  -3.411701e+05  -3.013377e+05
   3.697252e+04  -6.667211e+05
   7.394454e+05  -5.578998e+05
   1.187892e+06   1.673981e+05
   8.786093e+05   1.054641e+06
  -5.786877e+04   1.388748e+06
  -8.850011e+05   8.865293e+05
  -1.004814e+06   6.551432e+03
  -5.740495e+05  -5.262574e+05
  -2.149730e+05  -4.590816e+05
  -2.233428e+05  -1.700477e+05
  -3.030689e+05  -1.355070e+05
  -6.498798e+04  -3.896686e+05
   4.518129e+05  -5.463621e+05
   8.247217e+05  -2.569942e+05
   6.599959e+05   3.929657e+05
  -7.322679e+04   8.867722e+05
  -9.533851e+05   6.927667e+05
  -1.309368e+06  -2.021618e+05
  -7.314521e+05  -1.150133e+06
   4.598611e+05  -1.366896e+06
   1.378335e+06  -6.899832e+05
   1.376662e+06   2.584774e+05
   6.505529e+05   7.327402e+05
  -5.403289e+04   6.042383e+05
  -2.516840e+05   3.549619e+05
  -1.023368e+05   4.196030e+05
  -6.028566e+04   6.938577e+05
  -3.304081e+05   7.124886e+05
  -6.994494e+05   2.045240e+05
  -7.757868e+05  -5.812180e+05
  -3.602502e+05  -1.062572e+06
   3.212681e+05  -8.318781e+05
   7.348837e+05  -4.340811e+04
   5.101945e+05   6.832139e+05
  -1.457250e+05   7.998037e+05
  -6.061285e+05   3.079471e+05
  -4.759249e+05  -3.042543e+05
  -8.381185e+03  -5.763200e+05
   2.230555e+05  -4.685325e+05
   1.331884e+04  -2.635405e+05
  -2.431070e+05  -1.916542e+05
  -3.676151e+04  -2.210416e+05
   6.250827e+05  -1.588406e+05
   1.150148e+06   1.190508e+05
   9.455555e+05   5.234502e+05
   5.520385e+04   7.881282e+05
  -8.265738e+05   6.790058e+05
  -1.016675e+06   2.346357e+05
  -5.017680e+05  -2.090057e+05
   1.122376e+05  -3.075010e+05
   2.768482e+05  -5.357575e+04
   1.480256e+04   2.080975e+05
  -2.598142e+05   1.490694e+05
  -2.764818e+05  -1.819879e+05
  -1.267792e+05  -4.123952e+05
  -3.354464e+04  -2.704831e+05
  -8.048408e+04   8.196959e+04
  -1.794713e+05   2.029607e+05
  -1.695870e+05  -1.207209e+05
   7.190733e+04  -5.752011e+05
   4.798469e+05  -6.225977e+05
   7.259163e+05  -1.141790e+05
   4.667240e+05   4.959953e+05
  -2.039124e+05   6.249768e+05
  -6.799132e+05   1.922941e+05
  -4.260136e+05  -3.169690e+05
   3.728976e+05  -3.946431e+05
   9.217579e+05  -6.761375e+03
   6.417108e+05   4.568581e+05
  -2.161707e+05   6.058707e+05
  -8.514922e+05   3.607660e+05
  -7.393014e+05  -5.165128e+04
  -1.075671e+05  -2.981357e+05
   3.592925e+05  -1.872430e+05
   2.162033e+05   1.459190e+05
  -3.339949e+05   2.959061e+05
  -6.713186e+05  -3.917100e+04
  -3.830854e+05  -6.660228e+05
   3.253190e+05  -9.713626e+05
   8.381151e+05  -5.209782e+05
   7.341747e+05   4.116371e+05
   1.574857e+05   1.025377e+06
  -3.911150e+05   7.761680e+05
  -5.408710e+05  -5.724362e+04
  -2.987906e+05  -6.689964e+05
   7.503558e+04  -5.767162e+05
   3.122406e+05  -7.447790e+04
   2.952731e+05   2.094855e+05
   1.176560e+05   8.248555e+04
   1.774658e+04  -6.285810e+04
   1.388940e+05   1.453241e+05
   3.061375e+05   5.326490e+05
   1.621620e+05   6.185558e+05
  -3.703512e+05   2.512384e+05
  -8.604596e+05  -2.285660e+05
  -7.779204e+05  -4.469762e+05
  -1.273712e+05  -3.902086e+05
   4.971305e+05  -2.586145e+05
   5.665077e+05  -1.371580e+05
   1.920188e+05   7.916251e+03
  -8.492488e+04   1.302777e+05
   7.042008e+03   1.314536e+05
   1.772854e+05   6.204697e+04
   2.288642e+04   7.564757e+04
  -3.973043e+05   1.408756e+05
  -5.950936e+05   1.309180e+04
  -2.305694e+05  -3.781572e+05
   4.724083e+05  -6.786525e+05
   9.351603e+05  -4.593053e+05
   7.877188e+05   2.217429e+05
   1.833726e+05   7.999015e+05
  -3.969003e+05   7.983118e+05
  -5.844652e+05   3.187547e+05
  -3.826816e+05  -1.289401e+05
  -7.591899e+04  -2.002683e+05
   5.672095e+04  -2.512428e+04
  -3.999759e+04   2.719300e+04
  -1.917970e+05  -1.967136e+05
  -1.704942e+05  -4.562094e+05
   8.922183e+04  -3.876548e+05
   3.952774e+05   6.640200e+04
   4.328102e+05   5.375616e+05
   6.991859e+04   5.820856e+05
  -4.343335e+05   1.403847e+05
  -6.015129e+05  -4.025076e+05
  -2.139880e+05  -6.111960e+05
   3.918966e+05  -3.903884e+05
   6.305668e+05   1.887108e+04
   3.092335e+05   3.218767e+05
  -1.436902e+05   3.770295e+05
  -1.909442e+05   2.170194e+05
   1.583430e+05   7.187269e+03
   3.743198e+05  -3.581189e+04
   8.588843e+04   1.682671e+05
  -4.544171e+05   4.112041e+05
  -6.918685e+05   3.550152e+05
  -4.238898e+05  -6.673222e+04
   3.374175e+04  -4.919534e+05
   2.778273e+05  -4.973977e+05
   2.207624e+05  -9.254000e+04
   3.330742e+04   2.784539e+05
  -1.277908e+05   2.452950e+05
  -2.044147e+05  -9.009043e+04
  -1.574976e+05  -3.235414e+05
   2.189160e+04  -2.312351e+05
   2.231555e+05   2.196454e+04
   2.745423e+05   1.370900e+05
   1.416814e+05   3.946074e+04
  -1.702046e+04  -7.238366e+04
  -5.042973e+04   1.696525e+03
  -5.723254e+03   2.091676e+05
  -4.209469e+04   2.962513e+05
  -1.832604e+05   1.049973e+05
  -2.500440e+05  -2.204695e+05
  -7.977912e+04  -3.656012e+05
   2.317765e+05  -1.821272e+05
   3.758251e+05   1.512144e+05
   1.516619e+05   3.260875e+05
  -2.757549e+05   2.200909e+05
  -4.966352e+05  -2.602967e+04
  -2.789364e+05  -2.032187e+05
   1.563223e+05  -2.252557e+05
   3.537787e+05  -1.338002e+05
   1.309827e+05  -1.577782e+04
  -2.105391e+05   3.478240e+04
  -2.389523e+05  -4.251898e+04
   1.023142e+05  -1.789052e+05
   4.384535e+05  -1.715249e+05
