
 $NMID
 id='ANONYMOUS ', fmtdat='(2E16.6)'
 volume=1.0
 tramp=1.0
 $END
   2.464370e+07   8.914620e+05
   1.631873e+07   1.156255e+07
  -4.841351e+04   1.542963e+07
  -1.077202e+07   1.066222e+07
  -9.286625e+06   1.431563e+06
  -7.563873e+05  -4.523901e+06
   5.207601e+06  -2.557946e+06
   4.111116e+06   4.029659e+06
  -1.103798e+06   7.269085e+06
  -4.811826e+06   3.290921e+06
  -4.094882e+06  -3.435760e+06
  -3.704292e+05  -5.490492e+06
   2.568760e+06  -9.865868e+05
   1.939653e+06   4.736381e+06
  -1.570112e+06   5.446011e+06
  -4.308395e+06   5.392212e+05
  -3.151058e+06  -5.053133e+06
   1.221936e+06  -6.337531e+06
   4.902272e+06  -2.852776e+06
   4.801142e+06   1.707182e+06
   1.767524e+06   3.604213e+06
  -5.983213e+05   2.533634e+06
   2.923291e+04   1.237108e+06
   2.238501e+06   2.018102e+06
   2.490382e+06   4.093468e+06
  -9.189931e+05   4.674197e+06
  -5.617405e+06   2.325744e+06
  -7.175032e+06  -1.378708e+06
  -3.700192e+06  -3.560734e+06
   1.767634e+06  -2.799587e+06
   4.091916e+06  -9.505273e+04
   1.415371e+06   2.225160e+06
  -2.944673e+06   2.215000e+06
  -4.352619e+06  -3.110302e+05
  -1.894497e+06  -3.329877e+06
   1.249194e+06  -4.004621e+06
   1.964989e+06  -1.520409e+06
   4.537575e+05   1.564339e+06
  -8.712736e+05   1.820218e+06
  -5.025459e+05  -9.833982e+05
   9.738800e+05  -3.341832e+06
   2.080919e+06  -2.179892e+06
   1.831617e+06   1.304753e+06
   2.162813e+05   3.041888e+06
  -1.672949e+06   9.990379e+05
  -2.009864e+06  -2.496811e+06
   2.121145e+05  -3.593538e+06
   3.537336e+06  -1.145320e+06
   4.782738e+06   2.450499e+06
   2.244906e+06   4.046772e+06
  -2.109351e+06   2.662368e+06
  -4.394938e+06  -1.310751e+05
  -2.791997e+06  -1.973049e+06
   7.114854e+05  -1.699508e+06
   2.625905e+06  -6.374840e+04
   1.549668e+06   1.151585e+06
  -7.654572e+05   8.251583e+05
  -1.612411e+06  -5.159582e+05
  -2.237341e+05  -1.351443e+06
   1.568044e+06  -7.677448e+05
   1.446424e+06   6.484535e+05
  -7.274116e+05   1.421811e+06
  -2.578615e+06   5.683747e+05
  -1.734271e+06  -1.499452e+06
   1.489962e+06  -3.180595e+06
   4.314022e+06  -2.871022e+06
   4.428129e+06  -3.657077e+05
   2.250388e+06   2.730187e+06
   4.364152e+04   4.289252e+06
  -7.290422e+05   3.642859e+06
  -6.080503e+05   2.103520e+06
  -9.051682e+05   1.279507e+06
  -1.970904e+06   1.160760e+06
  -2.927985e+06   4.141811e+05
  -2.714813e+06  -1.471855e+06
  -1.098258e+06  -3.061632e+06
   1.083284e+06  -2.495793e+06
   2.394653e+06   1.556352e+05
   1.781050e+06   2.659181e+06
  -4.500869e+05   2.844832e+06
  -2.604560e+06   7.246242e+05
  -2.970676e+06  -1.752337e+06
  -1.440231e+06  -2.763570e+06
   4.267563e+05  -2.165412e+06
   1.135161e+06  -1.157649e+06
   8.696658e+05  -7.968660e+05
   1.076871e+06  -9.964464e+05
   2.463459e+06  -8.228687e+05
   3.809334e+06   4.194346e+05
   3.148739e+06   2.380924e+06
   1.199573e+05   3.809369e+06
  -3.216832e+06   3.520776e+06
  -4.220924e+06   1.455624e+06
  -2.310176e+06  -1.064393e+06
   4.695121e+05  -2.271278e+06
   1.574679e+06  -1.466179e+06
   4.516227e+05   2.696518e+05
  -1.238718e+06   1.079034e+06
  -1.631350e+06   2.442691e+05
  -5.260614e+05  -1.033887e+06
   7.230338e+05  -1.044171e+06
   7.792716e+05   3.149367e+05
  -4.232883e+05   1.250328e+06
  -1.728869e+06   1.512739e+05
  -1.765777e+06  -2.342300e+06
  -6.882637e+04  -3.799660e+06
   2.405093e+06  -2.562578e+06
   3.846257e+06   4.847453e+05
   3.062120e+06   2.862005e+06
   6.563655e+05   2.972094e+06
  -1.400811e+06   1.419331e+06
  -1.631762e+06   3.302866e+04
  -4.700620e+05  -5.809223e+04
   3.401233e+05   7.075048e+05
  -2.660759e+05   1.105916e+06
  -1.518090e+06   4.960456e+05
  -1.773234e+06  -6.035571e+05
  -4.873042e+05  -1.138518e+06
   1.047587e+06  -6.108733e+05
   1.067887e+06   4.217066e+05
  -6.574020e+05   8.668865e+05
  -2.407081e+06   1.225546e+05
  -2.229685e+06  -1.327961e+06
  -1.858942e+04  -2.281027e+06
   2.304317e+06  -1.850279e+06
   2.722197e+06  -3.033206e+05
   1.108253e+06   1.089730e+06
  -7.943435e+05   1.187502e+06
  -1.220501e+06   9.906103e+04
  -2.992835e+04  -8.836113e+05
   1.400061e+06  -6.189434e+05
   1.648414e+06   6.478360e+05
   5.338192e+05   1.556879e+06
  -8.621316e+05   1.163238e+06
  -1.274826e+06  -2.075165e+04
  -4.465625e+05  -6.551614e+05
   6.145209e+05  -8.962771e+04
   6.171260e+05   9.730535e+05
  -6.413980e+05   1.295474e+06
  -1.943810e+06   3.830038e+05
  -1.866663e+06  -1.088023e+06
  -3.198608e+05  -1.942571e+06
   1.310759e+06  -1.534838e+06
   1.612619e+06  -2.652795e+05
   5.661277e+05   7.869429e+05
  -5.891570e+05   8.226052e+05
  -7.472083e+05   4.449353e+04
   6.547211e+03  -5.970955e+05
   6.825718e+05  -4.469745e+05
   5.243469e+05   1.439186e+05
  -2.252136e+05   2.787706e+05
  -6.146759e+05  -3.667285e+05
   1.063402e+04  -1.086743e+06
   1.262391e+06  -8.913360e+05
   1.982622e+06   3.944576e+05
   1.350280e+06   1.871888e+06
  -2.633459e+05   2.375957e+06
  -1.620370e+06   1.515078e+06
  -1.819769e+06  -1.226550e+04
  -1.092438e+06  -1.064456e+06
  -3.725902e+05  -1.071116e+06
  -2.212542e+05  -4.836643e+05
  -3.270465e+05  -2.054828e+05
  -3.835601e+04  -5.564092e+05
   7.720570e+05  -9.033636e+05
   1.458706e+06  -4.339876e+05
   1.200751e+06   7.704052e+05
  -1.404109e+05   1.636518e+06
  -1.710421e+06   1.169063e+06
  -2.255639e+06  -4.638435e+05
  -1.191283e+06  -2.005150e+06
   8.071879e+05  -2.251735e+06
   2.315968e+06  -1.102864e+06
   2.368512e+06   4.537752e+05
   1.217463e+06   1.307817e+06
  -5.060844e+04   1.186398e+06
  -5.852140e+05   7.318554e+05
  -4.425043e+05   6.844196e+05
  -2.954982e+05   1.036345e+06
  -6.097930e+05   1.065998e+06
  -1.141760e+06   2.280990e+05
  -1.213279e+06  -1.094568e+06
  -4.646806e+05  -1.856103e+06
   6.662580e+05  -1.373655e+06
   1.266573e+06  -1.402966e+04
   8.219864e+05   1.154629e+06
  -2.369969e+05   1.326977e+06
  -9.401362e+05   5.739810e+05
  -7.527792e+05  -3.797138e+05
  -7.742115e+04  -8.680933e+05
   2.646933e+05  -7.887624e+05
  -1.606402e+04  -5.130578e+05
  -3.581534e+05  -3.929104e+05
  -1.498813e+04  -3.955274e+05
   1.020090e+06  -2.155768e+05
   1.853542e+06   3.066128e+05
   1.538979e+06   9.433997e+05
   1.016921e+05   1.262545e+06
  -1.361705e+06   1.014618e+06
  -1.707530e+06   3.516372e+05
  -8.628486e+05  -2.742911e+05
   1.729955e+05  -4.416213e+05
   4.375759e+05  -1.142569e+05
  -4.503223e+04   2.715060e+05
  -5.054730e+05   1.959902e+05
  -4.295035e+05  -3.469532e+05
  -5.930825e+04  -7.480234e+05
   7.511287e+04  -4.724045e+05
  -1.574742e+05   2.015271e+05
  -4.089808e+05   4.135042e+05
  -2.932218e+05  -2.137621e+05
   2.449431e+05  -1.004948e+06
   8.883009e+05  -9.776856e+05
   1.125991e+06  -3.081915e+04
   6.072578e+05   9.079632e+05
  -4.277345e+05   9.377493e+05
  -1.110552e+06   1.374117e+05
  -6.675827e+05  -6.275508e+05
   6.560512e+05  -6.453972e+05
   1.615575e+06   4.312563e+04
   1.176271e+06   8.272499e+05
  -3.382429e+05   1.091571e+06
  -1.522208e+06   6.591862e+05
  -1.349033e+06  -9.973958e+04
  -2.018250e+05  -5.462613e+05
   6.226789e+05  -3.254007e+05
   3.154839e+05   2.432189e+05
  -6.581410e+05   4.102654e+05
  -1.130161e+06  -2.345587e+05
  -4.687073e+05  -1.229143e+06
   8.001309e+05  -1.574217e+06
   1.557387e+06  -7.040499e+05
   1.194265e+06   8.448406e+05
   1.154497e+05   1.802765e+06
  -7.767724e+05   1.334941e+06
  -9.396724e+05  -1.037470e+05
  -4.938626e+05  -1.178395e+06
   1.159379e+05  -1.030500e+06
   5.190582e+05  -1.243833e+05
   5.448340e+05   4.139517e+05
   2.637485e+05   1.801616e+05
   1.088218e+04  -1.279514e+05
   1.145411e+05   2.192613e+05
   4.147759e+05   9.350560e+05
   2.834701e+05   1.100415e+06
  -5.693773e+05   3.972875e+05
  -1.462669e+06  -5.119502e+05
  -1.359739e+06  -8.727214e+05
  -1.760682e+05  -6.699508e+05
   9.623336e+05  -3.681465e+05
   1.019286e+06  -1.861598e+05
   2.669312e+05  -3.147745e+03
  -1.926513e+05   2.042840e+05
   8.010158e+04   2.690161e+05
   3.876223e+05   1.805309e+05
  -7.507914e+03   1.391013e+05
  -8.006739e+05   1.488222e+05
  -1.009938e+06  -9.479660e+04
  -2.026879e+05  -6.684380e+05
   9.998037e+05  -1.035674e+06
   1.609292e+06  -5.749979e+05
   1.200907e+06   5.539458e+05
   1.544901e+05   1.413545e+06
  -7.779548e+05   1.273924e+06
  -1.048100e+06   3.925725e+05
  -6.486347e+05  -3.308949e+05
  -5.929833e+04  -3.533499e+05
   1.805292e+05   1.871297e+04
  -4.240330e+04   1.017455e+05
  -3.398525e+05  -3.380601e+05
  -2.575498e+05  -8.058682e+05
   2.321566e+05  -6.297714e+05
   6.841026e+05   2.369163e+05
   6.017519e+05   1.048677e+06
  -7.241465e+04   9.979872e+05
  -8.198781e+05   8.568553e+04
  -9.358536e+05  -8.650433e+05
  -2.093287e+05  -1.075452e+06
   7.482359e+05  -5.393068e+05
   1.031886e+06   1.602772e+05
   4.258452e+05   5.414280e+05
  -3.017589e+05   5.418587e+05
  -2.903498e+05   3.202518e+05
   3.483086e+05   6.721721e+04
   6.665145e+05   1.195986e+04
   9.199801e+04   2.866273e+05
  -8.429265e+05   6.404190e+05
  -1.171529e+06   5.535128e+05
  -6.341214e+05  -1.217686e+05
   1.451038e+05  -8.039195e+05
   4.870966e+05  -7.714993e+05
   3.145797e+05  -6.383545e+04
  -3.002920e+04   5.144947e+05
  -2.742824e+05   3.555456e+05
  -3.400571e+05  -2.578461e+05
  -2.045272e+05  -5.817413e+05
   9.583865e+04  -3.270870e+05
   3.750596e+05   1.057229e+05
   4.207016e+05   2.305947e+05
   2.340488e+05   4.650508e+04
   1.969188e+04  -7.145136e+04
  -8.333359e+04   1.097545e+05
  -1.425457e+05   4.038466e+05
  -2.629127e+05   4.233244e+05
  -3.778607e+05   1.949598e+04
  -2.969135e+05  -5.051437e+05
   5.163076e+04  -6.514683e+05
   4.636294e+05  -2.372034e+05
   5.694011e+05   3.703274e+05
   1.675712e+05   6.122223e+05
  -4.869160e+05   3.182437e+05
  -8.018220e+05  -1.617724e+05
  -4.205396e+05  -3.966355e+05
   3.062954e+05  -3.042689e+05
   6.088147e+05  -1.018151e+05
   1.702247e+05   7.935449e+03
  -4.455286e+05  -3.305495e+04
  -4.333507e+05  -1.933428e+05
   2.691089e+05  -3.373308e+05
   8.844475e+05  -2.169179e+05
