
 $NMID
 id='ANONYMOUS ', fmtdat='(2E16.6)'
 volume=1.0
 tramp=1.0
 $END
  -3.011346e+07   3.598618e+05
  -1.822669e+07  -1.876632e+07
   4.005952e+06  -2.054971e+07
   1.481726e+07  -7.678161e+06
   8.743213e+06   4.014677e+06
  -1.887108e+06   4.997231e+06
  -5.228391e+06  -8.379930e+05
  -1.327614e+06  -5.257658e+06
   3.416853e+06  -4.809957e+06
   5.131416e+06  -9.356356e+05
   3.689527e+06   3.236254e+06
   4.640777e+05   4.468566e+06
  -2.057049e+06   1.496533e+06
  -1.354592e+06  -2.730024e+06
   2.011141e+06  -3.332525e+06
   4.165287e+06   7.647485e+05
   2.335526e+06   5.402836e+06
  -2.002703e+06   6.246742e+06
  -5.338482e+06   3.188923e+06
  -5.778094e+06  -9.780948e+05
  -3.664073e+06  -3.931104e+06
  -4.993125e+05  -4.705352e+06
   1.605387e+06  -3.372987e+06
   1.211396e+06  -1.421921e+06
  -4.233775e+05  -9.355905e+05
  -2.072440e+05  -2.011108e+06
   2.628611e+06  -2.319362e+06
   4.931546e+06  -4.088427e+05
   3.728859e+06   2.045063e+06
   2.964071e+05   2.644553e+06
  -1.782910e+06   1.448514e+06
  -1.277091e+06   1.827181e+05
   1.408049e+05  -3.472040e+05
   9.663488e+05  -2.810017e+05
   1.087928e+06   5.649131e+05
   4.850901e+05   1.916291e+06
  -8.535140e+05   2.072321e+06
  -1.784312e+06   8.421433e+04
  -1.052371e+06  -1.901335e+06
   3.732578e+05  -1.165290e+06
   2.567578e+05   1.136530e+06
  -1.241688e+06   1.151641e+06
  -1.273101e+06  -1.709248e+06
   1.360035e+06  -3.281278e+06
   3.815010e+06  -5.558207e+05
   2.798247e+06   3.711628e+06
  -1.018471e+06   4.587394e+06
  -3.938372e+06   1.325063e+06
  -3.611928e+06  -2.323827e+06
  -9.022791e+05  -3.131044e+06
   1.818893e+06  -1.357756e+06
   2.678452e+06   8.494549e+05
   1.187656e+06   1.840171e+06
  -1.313892e+06   1.139634e+06
  -2.386086e+06  -5.098601e+05
  -1.008606e+06  -1.455363e+06
   9.130511e+05  -7.262645e+05
   8.753764e+05   5.448114e+05
  -7.697543e+05   4.404858e+05
  -1.317759e+06  -1.038222e+06
   4.217551e+05  -1.923349e+06
   2.562013e+06  -1.016296e+06
   2.837266e+06   7.799678e+05
   1.213514e+06   2.138454e+06
  -8.945756e+05   2.756716e+06
  -2.509574e+06   2.543363e+06
  -3.177946e+06   9.797153e+05
  -2.438070e+06  -1.570441e+06
  -5.495634e+05  -3.181306e+06
   9.927208e+05  -2.454768e+06
   9.662756e+05  -5.547123e+05
   4.595687e+04   2.414380e+05
  -1.533793e+05  -4.516515e+05
   6.877674e+05  -9.712593e+05
   1.386130e+06  -2.412565e+05
   1.061816e+06   8.698565e+05
   8.750831e+04   1.030743e+06
  -7.099456e+05   1.190593e+05
  -8.215378e+05  -9.931827e+05
  -3.429994e+04  -1.461513e+06
   1.376805e+06  -8.897635e+05
   2.321259e+06   5.360239e+05
   1.736217e+06   1.918591e+06
   3.105341e+04   2.241300e+06
  -1.194954e+06   1.472432e+06
  -1.202698e+06   6.038080e+05
  -9.695508e+05   3.248526e+05
  -1.503257e+06   2.173956e+05
  -2.207759e+06  -4.011857e+05
  -1.762823e+06  -1.405521e+06
  -6.502961e+04  -2.080722e+06
   1.597880e+06  -1.969395e+06
   2.072764e+06  -1.101948e+06
   1.343033e+06   1.613598e+05
   1.899567e+05   1.104549e+06
  -5.108158e+05   9.934499e+05
  -2.870627e+05   3.650116e+01
   5.311505e+05  -6.683918e+05
   9.719027e+05  -2.116641e+05
   4.905755e+05   6.113420e+05
  -2.439408e+05   5.590222e+05
  -1.882052e+05  -2.052237e+05
   5.886831e+05  -3.129951e+05
   9.521146e+05   7.522595e+05
   2.461985e+05   1.840732e+06
  -9.299438e+05   1.690171e+06
  -1.642098e+06   4.487649e+05
  -1.619041e+06  -8.062503e+05
  -1.068942e+06  -1.383622e+06
  -2.017547e+05  -1.278793e+06
   6.095078e+05  -7.311370e+05
   7.826741e+05  -1.259774e+05
   2.481089e+05   2.262394e+04
  -1.798244e+05  -3.806534e+05
   2.188806e+05  -6.914608e+05
   9.868883e+05  -2.972504e+05
   1.041202e+06   4.690265e+05
   1.845996e+05   7.346742e+05
  -5.994071e+05   2.815961e+05
  -4.297063e+05  -2.356244e+05
   4.470963e+05  -2.317590e+05
   1.077505e+06   2.060511e+05
   8.289766e+05   6.922328e+05
  -1.562131e+05   9.630491e+05
  -1.162641e+06   8.056485e+05
  -1.394259e+06   1.281523e+05
  -6.180229e+05  -6.504863e+05
   4.707159e+05  -7.787506e+05
   8.099749e+05  -1.034119e+05
   1.154465e+05   5.567843e+05
  -7.705382e+05   3.773145e+05
  -8.669186e+05  -4.072447e+05
  -1.482228e+05  -8.400452e+05
   5.729971e+05  -4.726255e+05
   6.314137e+05   1.865391e+05
   1.042755e+05   4.066220e+05
  -4.165521e+05   2.456358e+04
  -3.787019e+05  -5.358109e+05
   2.844801e+05  -7.236777e+05
   1.011662e+06  -2.828196e+05
   1.033013e+06   5.256745e+05
   1.947551e+05   1.052421e+06
  -7.367960e+05   8.313558e+05
  -8.771828e+05   9.683683e+04
  -2.442926e+05  -4.454874e+05
   3.393718e+05  -3.999776e+05
   3.069318e+05  -3.797530e+04
  -7.389621e+04   1.601538e+05
  -2.323876e+05   7.876606e+04
  -2.323468e+04  -3.108215e+04
   2.494282e+05   6.969869e+04
   2.523912e+05   3.676161e+05
  -1.238057e+05   6.059842e+05
  -7.062912e+05   4.467523e+05
  -1.051644e+06  -2.136386e+05
  -7.408833e+05  -9.830311e+05
   1.097924e+05  -1.216199e+06
   8.137401e+05  -6.936959e+05
   8.353032e+05   8.011195e+04
   4.029454e+05   4.386154e+05
   1.466379e+05   2.888812e+05
   2.589662e+05   8.314871e+04
   3.426725e+05   1.647765e+05
   5.113637e+04   4.018132e+05
  -4.511723e+05   4.499265e+05
  -7.266051e+05   1.481898e+05
  -5.087205e+05  -3.619494e+05
   1.419467e+05  -7.149617e+05
   8.676684e+05  -5.234706e+05
   1.124223e+06   2.501487e+05
   5.579327e+05   1.064863e+06
  -5.301163e+05   1.195853e+06
  -1.298997e+06   5.057778e+05
  -1.176712e+06  -3.566422e+05
  -4.504686e+05  -6.795144e+05
   1.237684e+05  -4.520657e+05
   1.803840e+05  -2.308351e+05
   5.372779e+03  -3.790619e+05
   3.315713e+04  -6.778698e+05
   3.419601e+05  -6.658877e+05
   6.622357e+05  -1.671756e+05
   6.794152e+05   5.412675e+05
   2.839724e+05   9.528401e+05
  -3.096856e+05   7.240962e+05
  -6.460111e+05  -5.617783e+03
  -4.043159e+05  -6.575537e+05
   2.132186e+05  -7.069265e+05
   6.071790e+05  -1.865168e+05
   4.141649e+05   3.815729e+05
  -8.138600e+04   5.611788e+05
  -2.973922e+05   3.931408e+05
  -5.484179e+04   1.998544e+05
   2.230381e+05   1.624289e+05
   3.352701e+04   1.902822e+05
  -5.885800e+05   1.035680e+05
  -1.053641e+06  -1.710925e+05
  -8.164958e+05  -5.313192e+05
   3.415432e+04  -7.376220e+05
   8.198409e+05  -5.831355e+05
   9.313752e+05  -1.287763e+05
   4.161673e+05   2.721332e+05
  -1.393288e+05   2.984069e+05
  -2.648684e+05   8.437800e+03
  -2.423110e+04  -2.253124e+05
   2.149098e+05  -1.342916e+05
   2.459486e+05   1.708769e+05
   1.459847e+05   3.572291e+05
   6.563413e+04   2.385849e+05
   6.817905e+04  -3.543835e+04
   1.280772e+05  -1.311022e+05
   1.357261e+05   1.191171e+05
  -6.159703e+04   4.901931e+05
  -4.521883e+05   5.419110e+05
  -7.062710e+05   1.044571e+05
  -4.523693e+05  -4.567260e+05
   2.056166e+05  -5.921050e+05
   6.441121e+05  -1.914675e+05
   3.732431e+05   2.809236e+05
  -3.580972e+05   3.240656e+05
  -7.923953e+05  -5.818494e+04
  -4.820304e+05  -4.410483e+05
   2.632233e+05  -4.838620e+05
   7.510860e+05  -2.142242e+05
   6.041849e+05   1.111327e+05
   5.732834e+04   2.548067e+05
  -3.299185e+05   1.267256e+05
  -2.010064e+05  -1.534263e+05
   2.830609e+05  -2.738489e+05
   5.971567e+05   2.158587e+04
   3.606051e+05   5.833262e+05
  -2.675962e+05   8.664566e+05
  -7.319221e+05   4.655732e+05
  -6.356476e+05  -3.681964e+05
  -1.110091e+05  -8.953333e+05
   3.686222e+05  -6.413862e+05
   4.624089e+05   1.004481e+05
   2.052300e+05   6.008894e+05
  -1.276876e+05   4.778586e+05
  -2.886127e+05   3.581060e+04
  -2.208291e+05  -1.859292e+05
  -6.634366e+04  -6.437976e+04
  -3.060012e+04   4.339872e+04
  -1.652588e+05  -1.573884e+05
  -2.682210e+05  -4.884068e+05
  -7.935126e+04  -5.388055e+05
   3.807550e+05  -1.982453e+05
   7.393956e+05   2.283034e+05
   6.271246e+05   4.172495e+05
   9.322859e+04   3.546591e+05
  -4.102573e+05   2.152522e+05
  -4.879222e+05   8.848646e+04
  -1.965591e+05  -3.486848e+04
   6.531523e+04  -1.156370e+05
   3.811295e+04  -9.392879e+04
  -1.110253e+05  -3.517756e+04
  -3.490374e+04  -6.495169e+04
   3.070908e+05  -1.303850e+05
   5.296342e+05  -8.181985e+03
   2.562253e+05   3.479902e+05
  -3.931496e+05   6.119673e+05
  -8.654300e+05   4.109239e+05
  -7.421486e+05  -1.923029e+05
  -1.583450e+05  -7.017404e+05
   3.818319e+05  -7.068733e+05
   5.243960e+05  -2.953863e+05
   3.281141e+05   9.878894e+04
   8.050871e+04   1.794954e+05
  -1.392458e+04   4.719343e+04
   4.906564e+04   6.657133e+03
   1.434730e+05   1.905996e+05
   1.213496e+05   4.058428e+05
  -7.950412e+04   3.487496e+05
  -3.389780e+05  -3.874566e+04
  -3.949285e+05  -4.559925e+05
  -9.490121e+04  -5.203048e+05
   3.615608e+05  -1.549209e+05
   5.356552e+05   3.307804e+05
   2.023353e+05   5.462957e+05
  -3.479799e+05   3.663031e+05
  -5.761285e+05  -1.896232e+04
  -2.883716e+05  -3.192245e+05
   1.386793e+05  -3.666071e+05
   2.070827e+05  -1.951526e+05
  -1.026614e+05   5.511278e+03
  -3.210596e+05   2.970956e+04
  -8.478253e+04  -1.577373e+05
   4.095007e+05  -3.472156e+05
   6.489179e+05  -2.687337e+05
   4.086755e+05   9.837710e+04
  -3.741892e+04   4.479052e+05
  -2.886920e+05   4.470016e+05
  -2.344462e+05   1.030103e+05
  -4.367671e+04  -2.312535e+05
   1.111624e+05  -2.340580e+05
   1.770240e+05   5.032037e+04
   1.376113e+05   2.873215e+05
  -1.562756e+04   2.342712e+05
  -1.981325e+05  -9.146477e+03
  -2.505587e+05  -1.501138e+05
  -1.240218e+05  -5.866255e+04
   2.992847e+04   9.087980e+04
   4.384826e+04   5.405394e+04
  -3.800865e+04  -1.637197e+05
  -2.261865e+04  -2.988778e+05
   1.437096e+05  -1.510204e+05
   2.619977e+05   1.600204e+05
   1.234697e+05   3.199131e+05
  -1.909927e+05   1.734509e+05
  -3.518221e+05  -1.182780e+05
  -1.454786e+05  -2.771283e+05
   2.575989e+05  -1.938785e+05
   4.581114e+05   1.716969e+04
   2.525173e+05   1.837106e+05
  -1.424997e+05   2.213817e+05
  -3.243344e+05   1.427680e+05
  -1.426185e+05   1.647674e+04
   1.495753e+05  -5.513829e+04
   1.961542e+05   3.367738e+03
  -6.236059e+04   1.339073e+05
  -3.396025e+05   1.460498e+05
