
 $NMID
 id='ANONYMOUS ', fmtdat='(2E16.6)'
 volume=1.0
 tramp=1.0
 $END
   3.934640e+03   1.283043e+02
   2.359728e+03   2.243775e+03
  -3.979300e+02   2.446352e+03
  -1.727412e+03   1.118522e+03
  -9.811411e+02  -2.667853e+02
   3.145913e+02  -4.417466e+02
   6.708026e+02   2.476343e+02
   6.334322e+01   8.376135e+02
  -6.670323e+02   7.193002e+02
  -8.485345e+02   4.472166e+00
  -4.785898e+02  -7.236974e+02
   1.173893e+02  -8.186911e+02
   5.118294e+02  -1.651704e+02
   3.318612e+02   5.842149e+02
  -2.117660e+02   6.715654e+02
  -5.463343e+02   3.423222e+01
  -3.079446e+02  -6.228407e+02
   2.428363e+02  -6.783513e+02
   5.647884e+02  -1.906086e+02
   4.571136e+02   2.848933e+02
   7.854155e+01   4.319372e+02
  -1.903518e+02   2.717280e+02
  -1.493651e+02   4.743610e+01
   1.460076e+02   4.419664e+00
   3.433219e+02   1.989056e+02
   9.541496e+01   4.091133e+02
  -4.753365e+02   2.992874e+02
  -7.346276e+02  -1.125805e+02
  -3.380383e+02  -4.639396e+02
   3.481895e+02  -3.583853e+02
   6.230256e+02   6.523145e+01
   2.741238e+02   4.250010e+02
  -2.715868e+02   4.480355e+02
  -5.152111e+02   1.721428e+02
  -3.728469e+02  -2.017499e+02
  -7.869392e+01  -4.050397e+02
   1.266061e+02  -2.349247e+02
   8.380378e+01   1.617053e+02
  -1.612187e+02   3.183309e+02
  -3.337311e+02  -5.790593e+01
  -1.493580e+02  -5.780526e+02
   2.806895e+02  -5.815572e+02
   4.842121e+02  -1.767125e+01
   2.050905e+02   4.429142e+02
  -2.259343e+02   2.485680e+02
  -2.937409e+02  -2.946220e+02
   8.469184e+01  -4.859859e+02
   5.178156e+02  -1.081397e+02
   5.651025e+02   3.916258e+02
   1.698380e+02   5.667451e+02
  -3.511931e+02   3.312077e+02
  -5.949882e+02  -6.445358e+01
  -3.791325e+02  -3.330040e+02
   1.010225e+02  -3.133670e+02
   3.850208e+02  -7.684376e+01
   2.423436e+02   1.235421e+02
  -6.392788e+01   7.926961e+01
  -1.125798e+02  -1.071470e+02
   1.282383e+02  -1.443620e+02
   2.986056e+02   5.282879e+01
   1.416289e+02   2.554910e+02
  -1.808380e+02   2.615325e+02
  -3.439305e+02   9.725492e+01
  -2.336697e+02  -1.094132e+02
   3.221379e+01  -2.871230e+02
   2.714079e+02  -3.504347e+02
   3.690291e+02  -1.825883e+02
   2.713704e+02   1.666716e+02
   7.123625e+01   4.137571e+02
  -7.587221e+01   3.679120e+02
  -8.784482e+01   1.468424e+02
  -4.435613e+01   3.903437e+01
  -9.479958e+01   9.206014e+01
  -2.188483e+02   8.777522e+01
  -2.608796e+02  -9.070444e+01
  -1.274491e+02  -2.710331e+02
   8.699211e+01  -2.354496e+02
   2.185299e+02   9.643096e+00
   1.780986e+02   2.467325e+02
  -2.369475e+01   2.787808e+02
  -2.559034e+02   9.468872e+01
  -3.361950e+02  -1.633527e+02
  -1.863589e+02  -3.235099e+02
   6.779584e+01  -2.900253e+02
   2.046693e+02  -1.435106e+02
   1.607207e+02  -4.176518e+01
   1.296885e+02  -4.774831e+01
   2.548881e+02  -4.751264e+01
   4.022081e+02   8.003500e+01
   3.228224e+02   2.949195e+02
  -1.090463e+01   4.394118e+02
  -3.678925e+02   4.047594e+02
  -4.893159e+02   1.831333e+02
  -3.151683e+02  -1.022546e+02
  -3.804718e+01  -2.774020e+02
   1.175708e+02  -2.264291e+02
   5.655133e+01  -3.096324e+01
  -1.111377e+02   8.047684e+01
  -1.671029e+02  -2.029181e+01
  -3.525403e+01  -1.728958e+02
   1.383116e+02  -1.470340e+02
   1.470583e+02   5.384514e+01
  -1.771433e+01   1.628228e+02
  -1.782373e+02   1.879150e+01
  -1.569552e+02  -2.436276e+02
   2.876689e+01  -3.523711e+02
   2.436701e+02  -2.036365e+02
   3.494733e+02   6.575144e+01
   2.810947e+02   2.620465e+02
   7.289941e+01   2.811261e+02
  -1.307964e+02   1.538889e+02
  -1.711173e+02   8.686087e+00
  -4.821444e+01  -2.856748e+01
   6.107130e+01   4.929602e+01
   1.140233e+01   1.209736e+02
  -1.267309e+02   8.267855e+01
  -1.647939e+02  -2.219258e+01
  -4.532684e+01  -7.015978e+01
   8.186358e+01  -6.836248e+00
   4.848961e+01   8.137165e+01
  -1.317218e+02   8.617851e+01
  -2.841633e+02  -1.428770e+01
  -2.502254e+02  -1.549787e+02
  -4.146634e+01  -2.596032e+02
   1.953111e+02  -2.438940e+02
   2.767182e+02  -1.048705e+02
   1.573267e+02   5.299366e+01
  -2.631029e+01   9.815062e+01
  -7.988468e+01   1.962160e+00
   4.018068e+01  -9.451038e+01
   1.912079e+02  -4.768801e+01
   2.048430e+02   1.060328e+02
   6.338556e+01   2.041647e+02
  -9.292158e+01   1.504852e+02
  -1.344773e+02   2.545205e+01
  -5.774116e+01  -3.993447e+01
   3.338692e+01   8.494318e+00
   2.888438e+01   9.783843e+01
  -8.796742e+01   1.170316e+02
  -2.061106e+02   2.010123e+01
  -1.873914e+02  -1.344639e+02
  -1.624832e+01  -2.211562e+02
   1.631814e+02  -1.629889e+02
   1.900623e+02  -7.579853e+00
   6.553251e+01   1.095876e+02
  -6.352298e+01   1.070896e+02
  -7.891732e+01   2.874927e+01
  -1.162373e+01  -2.486068e+01
   2.989794e+01  -1.295724e+01
  -8.463298e+00   1.765283e+01
  -8.086533e+01  -3.022579e+00
  -1.000693e+02  -8.907129e+01
  -1.337022e+01  -1.706376e+02
   1.397994e+02  -1.549766e+02
   2.414652e+02  -1.509484e+01
   1.977998e+02   1.594354e+02
   3.476371e+01   2.384936e+02
  -1.108350e+02   1.663200e+02
  -1.366064e+02   2.702979e+01
  -7.263473e+01  -5.281356e+01
  -3.072394e+01  -3.289254e+01
  -5.614686e+01   1.456259e+01
  -8.646202e+01   6.752382e+00
  -5.119459e+01  -5.642534e+01
   4.165540e+01  -9.934324e+01
   1.143702e+02  -6.102695e+01
   9.786882e+01   4.350378e+01
  -1.736219e+01   1.217890e+02
  -1.571635e+02   8.719266e+01
  -2.049328e+02  -6.189594e+01
  -9.121713e+01  -2.128564e+02
   1.202819e+02  -2.305773e+02
   2.737808e+02  -8.977939e+01
   2.563799e+02   9.283582e+01
   1.064113e+02   1.793876e+02
  -4.063989e+01   1.484333e+02
  -9.483710e+01   8.513924e+01
  -7.899008e+01   6.997534e+01
  -6.685421e+01   9.196267e+01
  -9.572997e+01   7.531199e+01
  -1.341366e+02  -2.250411e+01
  -1.205405e+02  -1.586040e+02
  -2.574826e+01  -2.301900e+02
   1.064728e+02  -1.733469e+02
   1.786236e+02  -1.662277e+01
   1.327986e+02   1.263079e+02
   1.251080e+01   1.599830e+02
  -7.268478e+01   8.594140e+01
  -6.158650e+01  -8.599177e+00
   7.784203e-02  -4.901174e+01
   1.948924e+01  -3.389102e+01
  -3.124620e+01  -1.415850e+01
  -8.097453e+01  -2.215929e+01
  -4.644230e+01  -4.206933e+01
   7.070511e+01  -4.057947e+01
   1.675950e+02   2.157680e+00
   1.431658e+02   6.285947e+01
   4.557393e+00   9.668985e+01
  -1.306750e+02   7.152743e+01
  -1.471918e+02   6.340379e+00
  -4.649820e+01  -5.015458e+01
   6.165093e+01  -4.234309e+01
   7.823762e+01   2.075683e+01
   1.381360e+01   7.509570e+01
  -5.261075e+01   6.326738e+01
  -6.848551e+01  -1.952728e+00
  -5.148903e+01  -5.345845e+01
  -4.454128e+01  -4.348710e+01
  -5.760870e+01  -8.531948e-01
  -6.661757e+01  -5.204987e-01
  -4.055565e+01  -7.172882e+01
   3.211493e+01  -1.533368e+02
   1.245171e+02  -1.433443e+02
   1.753311e+02  -3.013847e+01
   1.287941e+02   9.674120e+01
   3.632891e+00   1.327065e+02
  -9.155760e+01   6.576854e+01
  -6.321998e+01  -1.476543e+01
   5.726105e+01  -2.071982e+01
   1.360145e+02   4.451485e+01
   7.404290e+01   1.085042e+02
  -8.256677e+01   1.117688e+02
  -1.904161e+02   4.768709e+01
  -1.603646e+02  -3.888815e+01
  -3.446853e+01  -8.788562e+01
   6.366701e+01  -6.535353e+01
   4.991697e+01  -1.900339e+00
  -4.039887e+01   3.001534e+01
  -9.463228e+01  -2.207271e+01
  -3.857750e+01  -1.198904e+02
   8.665173e+01  -1.586014e+02
   1.688211e+02  -6.682118e+01
   1.322335e+02   9.874518e+01
   1.193539e+01   2.000860e+02
  -9.028827e+01   1.459164e+02
  -1.086179e+02  -1.075046e+01
  -5.659974e+01  -1.233307e+02
   1.009908e+01  -1.052217e+02
   5.000520e+01  -1.611069e+01
   4.859124e+01   3.402718e+01
   2.058355e+01   8.509539e+00
   5.026146e+00  -2.016936e+01
   2.542346e+01   1.624737e+01
   5.454550e+01   8.957567e+01
   3.461830e+01   1.090875e+02
  -5.256490e+01   4.569322e+01
  -1.388186e+02  -3.889272e+01
  -1.261663e+02  -7.477133e+01
  -1.585619e+01  -5.597991e+01
   8.671618e+01  -2.462513e+01
   8.863276e+01  -4.315213e+00
   1.376636e+01   1.153462e+01
  -3.706731e+01   2.225570e+01
  -1.913819e+01   1.530756e+01
   1.736122e+01  -2.741617e+00
  -3.965014e+00  -6.103954e+00
  -6.949154e+01  -1.536231e+00
  -9.349019e+01  -2.304865e+01
  -1.767958e+01  -8.318174e+01
   1.107011e+02  -1.197462e+02
   1.865925e+02  -6.333406e+01
   1.490623e+02   6.420641e+01
   2.947123e+01   1.625394e+02
  -8.064646e+01   1.549707e+02
  -1.160098e+02   6.258158e+01
  -8.144710e+01  -2.220623e+01
  -2.609828e+01  -3.983651e+01
   4.012297e-02  -1.150405e+01
  -1.233418e+01  -5.263339e+00
  -3.138953e+01  -4.643620e+01
  -1.979392e+01  -9.181815e+01
   2.945149e+01  -7.324363e+01
   8.079314e+01   1.606083e+01
   7.993546e+01   1.054923e+02
   7.938194e+00   1.124298e+02
  -8.194441e+01   2.790722e+01
  -1.065193e+02  -7.285904e+01
  -3.578819e+01  -1.064209e+02
   6.830483e+01  -6.111546e+01
   1.037137e+02   1.135468e+01
   4.403517e+01   5.629537e+01
  -3.391981e+01   5.675989e+01
  -3.739227e+01   2.723894e+01
   2.843267e+01  -2.481425e+00
   6.869032e+01  -4.912555e+00
   1.752329e+01   2.878066e+01
  -7.802983e+01   6.538877e+01
  -1.202408e+02   5.250425e+01
  -6.989090e+01  -1.839283e+01
   1.442501e+01  -8.607873e+01
   5.943151e+01  -8.051698e+01
   4.382255e+01  -7.409851e+00
   5.068822e+00   5.592698e+01
  -2.665832e+01   4.647211e+01
  -3.849117e+01  -1.545327e+01
  -2.678085e+01  -5.655772e+01
   3.778455e+00  -3.831361e+01
   3.502315e+01   7.725516e+00
   4.049744e+01   2.629252e+01
   1.969226e+01   4.376308e+00
  -2.665763e+00  -1.816490e+01
  -6.061029e+00  -3.336828e+00
  -7.116429e-01   3.516073e+01
  -9.327089e+00   5.111282e+01
  -3.105178e+01   1.684152e+01
  -3.829748e+01  -4.039843e+01
  -5.668729e+00  -6.238140e+01
   4.503868e+01  -2.492422e+01
   6.297748e+01   3.765405e+01
   1.821481e+01   6.476737e+01
  -5.794329e+01   3.776738e+01
  -9.353764e+01  -1.286314e+01
  -5.061831e+01  -4.513015e+01
   2.916496e+01  -4.438287e+01
   6.554455e+01  -2.524378e+01
   2.544285e+01  -4.508941e+00
  -3.386671e+01   1.388230e+00
  -3.530336e+01  -1.179001e+01
   2.673323e+01  -3.063804e+01
   8.435555e+01  -2.210557e+01
