
 $NMID
 id='ANONYMOUS ', fmtdat='(2E16.6)'
 volume=1.0
 tramp=1.0
 $END
  -3.213397e+03  -1.262571e+02
  -1.972644e+03  -1.647921e+03
   1.495924e+01  -2.016725e+03
   1.201319e+03  -1.241493e+03
   8.955795e+02  -2.020616e+02
   4.154232e+01   1.848923e+02
  -3.410434e+02  -7.574127e+01
  -6.007835e+01  -5.240420e+02
   4.222093e+02  -5.726029e+02
   6.170098e+02  -1.049648e+02
   4.188953e+02   4.836341e+02
   6.982703e+00   6.331202e+02
  -2.939260e+02   1.859183e+02
  -2.466259e+02  -4.015058e+02
   1.019485e+02  -5.320156e+02
   3.917745e+02  -9.554712e+01
   3.111539e+02   4.567918e+02
  -9.710190e+01   6.052227e+02
  -4.386636e+02   2.858259e+02
  -4.415124e+02  -1.564642e+02
  -1.286099e+02  -3.406764e+02
   1.125045e+02  -2.300478e+02
   6.537739e+01  -7.135577e+01
  -1.785489e+02  -8.473953e+01
  -2.644227e+02  -2.586643e+02
   9.199279e+00  -3.401190e+02
   4.408883e+02  -1.536598e+02
   5.661356e+02   1.679110e+02
   2.057763e+02   3.414146e+02
  -2.980784e+02   1.908621e+02
  -4.732026e+02  -1.167916e+02
  -1.835435e+02  -3.444963e+02
   2.385097e+02  -3.378487e+02
   4.216539e+02  -1.299129e+02
   3.026204e+02   1.483011e+02
   8.782735e+01   2.864193e+02
  -1.494310e+01   1.650448e+02
   4.070658e+01  -8.514011e+01
   1.647462e+02  -1.450712e+02
   1.767829e+02   1.375130e+02
   1.219758e+01   4.533760e+02
  -2.290992e+02   3.970598e+02
  -2.970714e+02  -7.482511e+00
  -1.100092e+02  -3.026182e+02
   1.419726e+02  -1.365174e+02
   1.677159e+02   2.575314e+02
  -9.940750e+01   3.716688e+02
  -4.220265e+02   6.113682e+01
  -4.686298e+02  -3.409951e+02
  -1.580596e+02  -4.712505e+02
   2.799554e+02  -2.667422e+02
   4.976185e+02   5.367093e+01
   3.263738e+02   2.411698e+02
  -4.021353e+01   2.181263e+02
  -2.675448e+02   8.700356e+01
  -2.063527e+02  -2.246756e+01
  -1.075271e+01  -2.442477e+01
   4.592837e+01   3.938387e+01
  -8.779506e+01   5.498740e+01
  -2.142153e+02  -3.521811e+01
  -1.211873e+02  -1.815921e+02
   1.364702e+02  -2.438773e+02
   3.261242e+02  -1.362696e+02
   2.627800e+02   1.012173e+02
  -1.311585e+01   3.264305e+02
  -2.840576e+02   3.645578e+02
  -3.681247e+02   1.510497e+02
  -2.306371e+02  -1.593735e+02
  -5.327071e+01  -3.384357e+02
   2.772921e+01  -2.920819e+02
   1.732401e+01  -1.657107e+02
   2.942394e+01  -1.102205e+02
   1.360942e+02  -1.212892e+02
   2.461675e+02  -5.826268e+01
   2.380451e+02   1.152966e+02
   9.045241e+01   2.496506e+02
  -8.924528e+01   1.866951e+02
  -1.828914e+02  -3.716652e+01
  -1.341980e+02  -2.321601e+02
   4.206963e+01  -2.373338e+02
   2.341664e+02  -6.148588e+01
   2.990962e+02   1.550788e+02
   1.689554e+02   2.775022e+02
  -4.355854e+01   2.534879e+02
  -1.576652e+02   1.550494e+02
  -1.447970e+02   7.830204e+01
  -1.464080e+02   6.130568e+01
  -2.643390e+02   2.799663e+01
  -3.902941e+02  -9.307528e+01
  -3.028193e+02  -2.789819e+02
   2.420722e+01  -4.151830e+02
   3.547254e+02  -3.890006e+02
   4.562884e+02  -1.733364e+02
   2.757049e+02   9.738956e+01
   2.306758e+01   2.436427e+02
  -8.627967e+01   1.898100e+02
  -8.829051e+00   3.338517e+01
   1.077970e+02  -3.942397e+01
   1.186824e+02   3.840032e+01
   3.101089e+00   1.295421e+02
  -1.067886e+02   9.087270e+01
  -9.615798e+01  -5.533777e+01
   3.156365e+01  -1.242553e+02
   1.573966e+02   2.612324e-01
   1.531695e+02   2.233882e+02
  -1.236430e+01   3.340475e+02
  -2.311626e+02   2.127536e+02
  -3.505568e+02  -4.766185e+01
  -2.744355e+02  -2.500000e+02
  -5.753921e+01  -2.666832e+02
   1.249188e+02  -1.356211e+02
   1.427958e+02  -4.948054e+00
   2.811625e+01   1.259680e+01
  -4.928126e+01  -6.457550e+01
   7.619051e+00  -1.144618e+02
   1.241560e+02  -6.648045e+01
   1.426799e+02   2.676587e+01
   2.843743e+01   5.588829e+01
  -7.972216e+01  -1.056970e+01
  -3.678161e+01  -9.086123e+01
   1.460039e+02  -8.579849e+01
   2.897155e+02   2.328996e+01
   2.411576e+02   1.666894e+02
   2.398812e+01   2.543138e+02
  -2.012398e+02   2.219463e+02
  -2.575127e+02   9.304278e+01
  -1.311598e+02  -4.396616e+01
   2.808956e+01  -7.510871e+01
   5.853996e+01   5.547335e+00
  -5.304186e+01   7.504553e+01
  -1.781915e+02   2.851645e+01
  -1.793084e+02  -1.033933e+02
  -4.939930e+01  -1.785080e+02
   8.583315e+01  -1.265276e+02
   1.156673e+02  -1.199411e+01
   3.797392e+01   3.515483e+01
  -4.368245e+01  -2.234209e+01
  -2.680636e+01  -1.104498e+02
   9.483544e+01  -1.196950e+02
   2.029282e+02  -1.563432e+01
   1.751580e+02   1.287471e+02
   1.381595e+01   2.022882e+02
  -1.448529e+02   1.478064e+02
  -1.638062e+02   1.233089e+01
  -5.329511e+01  -8.931214e+01
   5.830420e+01  -9.005260e+01
   6.610021e+01  -2.133710e+01
  -2.251305e-01   2.586633e+01
  -3.923986e+01   9.174755e+00
   5.649935e+00  -2.644298e+01
   8.584447e+01  -3.481977e+00
   1.031643e+02   8.748088e+01
   9.505383e+00   1.687029e+02
  -1.414075e+02   1.443456e+02
  -2.299633e+02   5.380108e+00
  -1.793838e+02  -1.575628e+02
  -3.136688e+01  -2.199581e+02
   1.007463e+02  -1.525392e+02
   1.261250e+02  -2.751367e+01
   7.240895e+01   4.395395e+01
   3.254030e+01   2.893414e+01
   5.346819e+01  -1.545841e+01
   8.623344e+01  -6.366472e+00
   5.678940e+01   5.866204e+01
  -4.015447e+01   1.080847e+02
  -1.248388e+02   6.716539e+01
  -1.083715e+02  -4.781880e+01
   1.686285e+01  -1.319862e+02
   1.621619e+02  -9.133681e+01
   2.025983e+02   6.285597e+01
   8.242823e+01   2.065224e+02
  -1.203000e+02   2.141212e+02
  -2.569083e+02   7.803161e+01
  -2.346320e+02  -8.522261e+01
  -9.416537e+01  -1.601724e+02
   3.824652e+01  -1.314529e+02
   8.261295e+01  -7.583870e+01
   6.307104e+01  -6.737502e+01
   5.396441e+01  -9.175128e+01
   8.719405e+01  -7.930295e+01
   1.282735e+02   1.507146e+01
   1.173842e+02   1.494604e+02
   2.780278e+01   2.177882e+02
  -9.683087e+01   1.620296e+02
  -1.644154e+02   1.186077e+01
  -1.239244e+02  -1.232441e+02
  -9.839309e+00  -1.532516e+02
   7.432596e+01  -7.845745e+01
   6.310782e+01   1.683737e+01
  -4.691948e+00   5.677198e+01
  -2.942263e+01   3.571621e+01
   2.495730e+01   7.868593e+00
   8.222192e+01   1.306329e+01
   4.785703e+01   4.032850e+01
  -7.254794e+01   4.351152e+01
  -1.701823e+02  -9.218431e-01
  -1.420292e+02  -6.512831e+01
   2.189997e+00  -9.858560e+01
   1.315910e+02  -7.259468e+01
   1.412781e+02  -4.296165e+00
   4.389947e+01   5.190062e+01
  -5.698889e+01   4.547814e+01
  -7.715433e+01  -1.571483e+01
  -2.219729e+01  -7.169025e+01
   4.150151e+01  -6.505649e+01
   6.629208e+01  -3.882864e+00
   5.786230e+01   4.590232e+01
   4.694424e+01   3.768931e+01
   5.296833e+01  -1.637443e+00
   6.379872e+01  -3.988486e-01
   4.705144e+01   7.019606e+01
  -2.073252e+01   1.495351e+02
  -1.189129e+02   1.408295e+02
  -1.740274e+02   3.359387e+01
  -1.284932e+02  -8.891102e+01
  -4.111351e+00  -1.285554e+02
   8.982549e+01  -6.887809e+01
   6.107030e+01   1.132294e+01
  -5.488124e+01   2.281858e+01
  -1.300956e+02  -3.973901e+01
  -6.924778e+01  -1.031430e+02
   7.908065e+01  -1.066835e+02
   1.794711e+02  -4.196840e+01
   1.484679e+02   4.035180e+01
   2.942383e+01   8.110072e+01
  -6.091908e+01   5.654340e+01
  -4.775595e+01  -4.281655e+00
   3.845211e+01  -3.347708e+01
   9.079021e+01   1.581282e+01
   4.368668e+01   1.100005e+02
  -6.958600e+01   1.513289e+02
  -1.470823e+02   7.053439e+01
  -1.224563e+02  -8.324406e+01
  -1.938863e+01  -1.810347e+02
   7.752100e+01  -1.343439e+02
   1.000038e+02   1.064171e+01
   5.288809e+01   1.157161e+02
  -1.223428e+01   9.819847e+01
  -4.939474e+01   1.471056e+01
  -4.287696e+01  -2.964039e+01
  -1.513853e+01  -7.366584e+00
  -6.319425e+00   1.772048e+01
  -3.176106e+01  -1.806171e+01
  -5.793073e+01  -8.484071e+01
  -3.078019e+01  -1.019549e+02
   5.554706e+01  -4.584926e+01
   1.295611e+02   3.161448e+01
   1.183417e+02   6.759056e+01
   1.857793e+01   5.542853e+01
  -7.549945e+01   2.633590e+01
  -8.249923e+01   5.389937e+00
  -1.828915e+01  -1.291917e+01
   3.199857e+01  -2.105412e+01
   2.017064e+01  -1.112518e+01
  -1.316862e+01   4.600933e+00
   2.906135e+00   3.514912e+00
   6.364324e+01  -3.813235e+00
   9.099157e+01   1.845232e+01
   2.615391e+01   7.889031e+01
  -9.903599e+01   1.200023e+02
  -1.823969e+02   7.015001e+01
  -1.517311e+02  -5.379310e+01
  -3.499750e+01  -1.557433e+02
   7.537464e+01  -1.528418e+02
   1.114766e+02  -6.448040e+01
   7.755011e+01   1.848448e+01
   2.669984e+01   3.728668e+01
   3.220102e+00   1.235689e+01
   1.352481e+01   7.688108e+00
   2.951877e+01   4.745031e+01
   1.865931e+01   8.814657e+01
  -2.698036e+01   6.982135e+01
  -7.747947e+01  -1.060386e+01
  -8.110952e+01  -9.368241e+01
  -1.851429e+01  -1.052834e+02
   7.122169e+01  -3.411328e+01
   1.052774e+02   5.813396e+01
   4.282926e+01   9.863314e+01
  -5.949963e+01   6.641239e+01
  -1.017840e+02  -3.178663e+00
  -4.760706e+01  -5.544500e+01
   3.119996e+01  -6.134785e+01
   3.951776e+01  -2.832689e+01
  -2.368818e+01   6.961926e+00
  -6.618565e+01   9.415299e+00
  -1.994976e+01  -2.744298e+01
   7.279449e+01  -6.539607e+01
   1.163564e+02  -5.172221e+01
   7.096282e+01   1.592521e+01
  -9.832101e+00   8.289691e+01
  -5.649887e+01   8.247005e+01
  -4.515989e+01   1.397690e+01
  -9.497100e+00  -5.064724e+01
   2.196969e+01  -4.828723e+01
   3.623388e+01   8.989734e+00
   2.816411e+01   5.293740e+01
  -6.975027e-01   3.976775e+01
  -3.298677e+01  -4.686848e+00
  -4.103729e+01  -2.552519e+01
  -1.939752e+01  -4.552476e+00
   4.701996e+00   2.063684e+01
   6.052774e+00   9.871995e+00
  -6.224891e+00  -2.991936e+01
  -1.905285e+00  -5.231203e+01
   2.554689e+01  -2.397186e+01
   4.294788e+01   3.110982e+01
   1.723352e+01   5.763197e+01
  -3.710828e+01   2.720605e+01
  -6.165287e+01  -2.905422e+01
  -2.115747e+01  -5.675739e+01
   5.341594e+01  -3.654405e+01
   8.965373e+01   7.692262e+00
   5.006342e+01   3.968720e+01
  -2.629052e+01   4.444979e+01
  -6.119484e+01   3.059081e+01
  -2.703394e+01   8.415318e+00
   2.598514e+01  -4.114426e+00
   3.172065e+01   3.909095e+00
  -2.035653e+01   2.480307e+01
  -7.314412e+01   2.280888e+01
