
 $NMID
 id='ANONYMOUS ', fmtdat='(2E16.6)'
 volume=1.0
 tramp=1.0
 $END
  -3.821931e+03   9.147529e+01
  -2.402529e+03  -1.990724e+03
   9.364616e+01  -2.374111e+03
   1.495208e+03  -1.250728e+03
   9.974189e+02   1.820643e+01
  -1.364135e+02   3.423337e+02
  -5.469080e+02  -1.601410e+02
  -8.877538e+01  -7.322209e+02
   5.533290e+02  -6.864396e+02
   7.628085e+02  -6.984092e+01
   4.832708e+02   6.240428e+02
  -6.805806e+01   7.637671e+02
  -4.268647e+02   1.966368e+02
  -3.267086e+02  -5.101297e+02
   1.493722e+02  -6.429827e+02
   5.021529e+02  -8.765059e+01
   3.510012e+02   5.628288e+02
  -1.695517e+02   6.823237e+02
  -5.369547e+02   2.637387e+02
  -4.622193e+02  -2.308549e+02
  -1.162796e+02  -3.954531e+02
   1.536332e+02  -2.588030e+02
   1.104498e+02  -6.010435e+01
  -1.706876e+02  -4.316742e+01
  -3.277402e+02  -2.301235e+02
  -6.233362e+01  -3.940639e+02
   4.644159e+02  -2.519262e+02
   6.953813e+02   1.227253e+02
   3.049413e+02   3.989693e+02
  -3.290902e+02   3.107870e+02
  -5.913148e+02  -7.269747e+01
  -2.611706e+02  -4.026196e+02
   2.594931e+02  -4.305856e+02
   4.988081e+02  -1.725667e+02
   3.678710e+02   1.824455e+02
   8.710761e+01   3.743346e+02
  -7.328511e+01   2.168284e+02
  -3.041991e+01  -1.343626e+02
   1.672759e+02  -2.557520e+02
   2.829184e+02   9.506908e+01
   1.134133e+02   5.501558e+02
  -2.483852e+02   5.293443e+02
  -4.250563e+02   1.973187e+01
  -1.937882e+02  -3.944955e+02
   1.877267e+02  -2.133375e+02
   2.579963e+02   2.805364e+02
  -8.224641e+01   4.567940e+02
  -4.950718e+02   1.102135e+02
  -5.596464e+02  -3.692796e+02
  -1.831200e+02  -5.465695e+02
   3.267029e+02  -3.258183e+02
   5.760894e+02   4.701765e+01
   3.737701e+02   2.921035e+02
  -6.818666e+01   2.811669e+02
  -3.374140e+02   9.352586e+01
  -2.341907e+02  -7.448659e+01
   3.257540e+01  -5.764113e+01
   9.082454e+01   7.592115e+01
  -1.087870e+02   1.137132e+02
  -2.729136e+02  -2.959570e+01
  -1.526914e+02  -2.217602e+02
   1.555644e+02  -2.777000e+02
   3.572567e+02  -1.399698e+02
   2.752901e+02   1.089493e+02
  -1.072649e+01   3.343125e+02
  -2.848261e+02   3.857655e+02
  -3.867802e+02   1.824915e+02
  -2.745620e+02  -1.652339e+02
  -8.025425e+01  -3.879394e+02
   4.354441e+01  -3.503869e+02
   4.883776e+01  -1.692499e+02
   3.558526e+01  -8.423960e+01
   1.193437e+02  -1.197130e+02
   2.433611e+02  -8.595978e+01
   2.647503e+02   1.003076e+02
   1.243163e+02   2.700544e+02
  -8.778990e+01   2.249804e+02
  -2.127037e+02  -1.681868e+01
  -1.740763e+02  -2.449819e+02
   2.552780e+01  -2.725186e+02
   2.547709e+02  -9.269723e+01
   3.380031e+02   1.546313e+02
   1.933540e+02   3.052528e+02
  -5.125410e+01   2.829700e+02
  -1.842029e+02   1.600911e+02
  -1.576308e+02   6.809133e+01
  -1.427154e+02   6.099138e+01
  -2.705831e+02   4.609654e+01
  -4.180553e+02  -7.963987e+01
  -3.402870e+02  -2.909805e+02
   4.966276e+00  -4.481589e+02
   3.635875e+02  -4.272098e+02
   4.901794e+02  -1.999638e+02
   3.112051e+02   9.524374e+01
   3.829519e+01   2.694957e+02
  -1.013317e+02   2.181632e+02
  -3.084225e+01   3.496099e+01
   1.119476e+02  -6.805455e+01
   1.510510e+02   2.171941e+01
   2.736239e+01   1.526823e+02
  -1.217176e+02   1.267888e+02
  -1.271469e+02  -5.085907e+01
   2.223837e+01  -1.511973e+02
   1.781127e+02  -1.554939e+01
   1.731804e+02   2.424001e+02
  -8.066582e+00   3.635590e+02
  -2.454776e+02   2.299243e+02
  -3.758879e+02  -4.923506e+01
  -3.025154e+02  -2.632485e+02
  -7.423064e+01  -2.872343e+02
   1.313733e+02  -1.545320e+02
   1.636334e+02  -1.267487e+01
   3.947083e+01   1.822715e+01
  -5.889153e+01  -6.019240e+01
  -5.170774e+00  -1.248661e+02
   1.292119e+02  -8.383483e+01
   1.641607e+02   1.944018e+01
   4.266149e+01   6.589805e+01
  -8.371329e+01   2.777494e+00
  -4.829028e+01  -8.784127e+01
   1.417514e+02  -9.589741e+01
   3.043218e+02   1.030873e+01
   2.640074e+02   1.622163e+02
   4.116537e+01   2.702411e+02
  -2.035104e+02   2.502045e+02
  -2.779889e+02   1.106376e+02
  -1.520632e+02  -4.794290e+01
   2.767237e+01  -9.258970e+01
   7.352358e+01   8.593064e-01
  -4.589707e+01   9.209693e+01
  -1.936175e+02   4.771920e+01
  -2.056169e+02  -1.035797e+02
  -6.655054e+01  -2.003868e+02
   8.937355e+01  -1.500279e+02
   1.310884e+02  -2.339549e+01
   5.215895e+01   3.971146e+01
  -4.197294e+01  -1.449112e+01
  -3.352455e+01  -1.099661e+02
   9.200632e+01  -1.302859e+02
   2.160566e+02  -2.686038e+01
   1.974067e+02   1.327040e+02
   2.539672e+01   2.228478e+02
  -1.554981e+02   1.699307e+02
  -1.849530e+02   1.774802e+01
  -6.579004e+01  -1.024491e+02
   6.110057e+01  -1.038915e+02
   7.556043e+01  -2.585682e+01
   5.569620e+00   2.820689e+01
  -3.809955e+01   1.183761e+01
   6.020402e+00  -2.554355e+01
   8.763383e+01  -4.621543e+00
   1.093438e+02   8.893751e+01
   1.641060e+01   1.772644e+02
  -1.435394e+02   1.600872e+02
  -2.468271e+02   1.748884e+01
  -2.003322e+02  -1.597699e+02
  -4.211773e+01  -2.394591e+02
   1.062573e+02  -1.716823e+02
   1.376368e+02  -3.298926e+01
   7.950823e+01   4.905673e+01
   3.502026e+01   3.304151e+01
   5.570520e+01  -1.678319e+01
   8.836893e+01  -9.739644e+00
   5.711340e+01   5.791952e+01
  -3.995180e+01   1.094961e+02
  -1.235157e+02   7.056112e+01
  -1.110332e+02  -4.514808e+01
   1.288326e+01  -1.355558e+02
   1.652912e+02  -1.006464e+02
   2.176630e+02   5.972159e+01
   9.850723e+01   2.193998e+02
  -1.205907e+02   2.385543e+02
  -2.780699e+02   9.587092e+01
  -2.610132e+02  -8.635389e+01
  -1.102130e+02  -1.747565e+02
   3.824054e+01  -1.485106e+02
   9.119618e+01  -8.685758e+01
   6.942187e+01  -7.362330e+01
   5.780801e+01  -9.869851e+01
   9.390964e+01  -8.492718e+01
   1.414350e+02   1.563806e+01
   1.309449e+02   1.593543e+02
   3.411737e+01   2.359762e+02
  -1.032215e+02   1.791627e+02
  -1.802295e+02   1.902451e+01
  -1.369483e+02  -1.278358e+02
  -1.447525e+01  -1.640046e+02
   7.651733e+01  -8.736998e+01
   6.676565e+01   1.339269e+01
  -8.644473e-01   5.758534e+01
  -2.539820e+01   3.822767e+01
   2.867298e+01   9.379880e+00
   8.588052e+01   1.499881e+01
   5.082993e+01   4.194810e+01
  -7.396849e+01   4.689391e+01
  -1.773431e+02   3.415396e+00
  -1.506499e+02  -6.419017e+01
  -4.372493e+00  -1.045388e+02
   1.358529e+02  -7.929307e+01
   1.517180e+02  -8.255311e+00
   4.909486e+01   5.367713e+01
  -6.167704e+01   4.887002e+01
  -8.314371e+01  -1.699933e+01
  -2.133097e+01  -7.855688e+01
   4.775222e+01  -7.032480e+01
   7.154070e+01  -2.969783e+00
   6.016040e+01   5.060942e+01
   4.984570e+01   3.974897e+01
   5.858621e+01  -3.340366e+00
   6.933179e+01  -7.310134e-01
   4.959824e+01   7.592514e+01
  -2.276313e+01   1.620726e+02
  -1.247870e+02   1.539434e+02
  -1.847346e+02   3.847272e+01
  -1.396591e+02  -9.412718e+01
  -8.470424e+00  -1.376056e+02
   9.330421e+01  -7.379353e+01
   6.566350e+01   1.173725e+01
  -5.869698e+01   2.572938e+01
  -1.420940e+02  -3.838445e+01
  -7.920953e+01  -1.088265e+02
   8.066134e+01  -1.177231e+02
   1.917494e+02  -5.476602e+01
   1.633234e+02   3.616484e+01
   3.634129e+01   8.824180e+01
  -6.377910e+01   6.556319e+01
  -5.185666e+01  -5.861884e-01
   4.033778e+01  -3.511177e+01
   9.926326e+01   1.739813e+01
   4.733262e+01   1.207870e+02
  -7.874339e+01   1.660273e+02
  -1.660901e+02   7.543493e+01
  -1.370758e+02  -9.360979e+01
  -2.120745e+01  -2.002331e+02
   8.509453e+01  -1.486838e+02
   1.088344e+02   8.752566e+00
   6.121557e+01   1.234705e+02
  -8.600237e+00   1.071031e+02
  -5.189354e+01   1.792008e+01
  -4.868272e+01  -3.131236e+01
  -1.873941e+01  -7.866648e+00
  -5.288316e+00   1.988536e+01
  -3.150127e+01  -1.743537e+01
  -6.358682e+01  -8.915295e+01
  -3.814652e+01  -1.115241e+02
   5.689231e+01  -5.087304e+01
   1.432729e+02   3.250377e+01
   1.310127e+02   7.155757e+01
   1.998745e+01   5.841649e+01
  -8.429148e+01   3.036694e+01
  -8.995417e+01   8.008650e+00
  -1.823347e+01  -1.391420e+01
   3.514310e+01  -2.502704e+01
   2.062063e+01  -1.439220e+01
  -1.459159e+01   4.877307e+00
   4.215034e+00   4.436706e+00
   6.892384e+01  -4.600956e+00
   9.701924e+01   1.880876e+01
   2.532092e+01   8.518347e+01
  -1.063236e+02   1.300921e+02
  -1.923989e+02   7.619504e+01
  -1.606666e+02  -5.810227e+01
  -3.845505e+01  -1.674784e+02
   7.873422e+01  -1.637467e+02
   1.193895e+02  -6.945720e+01
   8.473672e+01   1.993546e+01
   2.886166e+01   4.048469e+01
   2.251349e+00   1.354758e+01
   1.370494e+01   7.151551e+00
   3.239833e+01   4.831865e+01
   2.207819e+01   9.403094e+01
  -2.819183e+01   7.581798e+01
  -8.347898e+01  -1.222756e+01
  -8.746715e+01  -1.029111e+02
  -1.739537e+01  -1.142785e+02
   8.025902e+01  -3.543010e+01
   1.131680e+02   6.509775e+01
   4.444282e+01   1.070399e+02
  -6.531819e+01   6.968323e+01
  -1.082235e+02  -4.115017e+00
  -4.980066e+01  -5.724871e+01
   3.205337e+01  -6.270973e+01
   3.912912e+01  -3.036363e+01
  -2.667061e+01   5.637787e+00
  -6.953404e+01   9.051196e+00
  -2.053191e+01  -2.911119e+01
   7.692064e+01  -7.044590e+01
   1.225581e+02  -5.714902e+01
   7.506910e+01   1.655604e+01
  -1.010262e+01   8.932845e+01
  -5.845191e+01   8.734464e+01
  -4.713654e+01   1.258887e+01
  -9.594749e+00  -5.562177e+01
   2.430195e+01  -5.020392e+01
   3.938350e+01   1.191647e+01
   2.990749e+01   5.661188e+01
  -1.890269e+00   4.079659e+01
  -3.625722e+01  -5.760298e+00
  -4.343403e+01  -2.627186e+01
  -1.982875e+01  -4.665677e+00
   5.057039e+00   1.975057e+01
   6.847317e+00   7.425515e+00
  -4.377500e+00  -3.329377e+01
   1.663669e+00  -5.477254e+01
   2.927241e+01  -2.264967e+01
   4.406313e+01   3.650811e+01
   1.381105e+01   6.302069e+01
  -4.263641e+01   2.840966e+01
  -6.658161e+01  -3.337834e+01
  -2.206034e+01  -6.322833e+01
   5.704736e+01  -4.050389e+01
   9.552414e+01   8.059140e+00
   5.376837e+01   4.261186e+01
  -2.750953e+01   4.682140e+01
  -6.510616e+01   3.085952e+01
  -2.676399e+01   8.057749e+00
   3.164070e+01  -2.388555e+00
   3.535342e+01   8.352547e+00
  -2.427360e+01   3.074610e+01
  -8.347657e+01   2.595761e+01
