
 $NMID
 id='ANONYMOUS ', fmtdat='(2E16.6)'
 volume=1.0
 tramp=1.0
 $END
   3.843877e+03   1.280229e+02
   2.325828e+03   2.190030e+03
  -3.868102e+02   2.431776e+03
  -1.714091e+03   1.087457e+03
  -9.534833e+02  -2.767157e+02
   3.485611e+02  -4.300932e+02
   6.640623e+02   2.766923e+02
   3.194361e+01   8.449327e+02
  -6.928126e+02   7.139610e+02
  -8.526688e+02  -1.297409e+01
  -4.650054e+02  -7.309328e+02
   1.509363e+02  -8.196025e+02
   5.199522e+02  -1.516666e+02
   3.305075e+02   5.953519e+02
  -2.277593e+02   6.707267e+02
  -5.519200e+02   2.695034e+01
  -3.034043e+02  -6.276768e+02
   2.524780e+02  -6.647985e+02
   5.649084e+02  -1.956123e+02
   4.379646e+02   3.045363e+02
   7.293774e+01   4.245167e+02
  -1.934179e+02   2.600317e+02
  -1.511929e+02   3.460083e+01
   1.460788e+02  -8.826462e+00
   3.420818e+02   1.903605e+02
   1.019420e+02   4.068030e+02
  -4.667529e+02   3.013805e+02
  -7.398480e+02  -1.161123e+02
  -3.362341e+02  -4.654623e+02
   3.532997e+02  -3.718741e+02
   6.329553e+02   6.629339e+01
   2.758756e+02   4.303553e+02
  -2.725120e+02   4.479734e+02
  -5.164169e+02   1.646757e+02
  -3.688867e+02  -2.069311e+02
  -6.179108e+01  -4.133092e+02
   1.415072e+02  -2.289017e+02
   9.277325e+01   1.733513e+02
  -1.703733e+02   3.224155e+02
  -3.449931e+02  -6.224414e+01
  -1.528627e+02  -5.872557e+02
   2.861590e+02  -5.901281e+02
   4.912423e+02  -1.452424e+01
   2.075701e+02   4.517968e+02
  -2.293552e+02   2.508570e+02
  -2.995257e+02  -2.906569e+02
   8.106251e+01  -4.865722e+02
   5.124107e+02  -1.125005e+02
   5.570647e+02   3.930724e+02
   1.621798e+02   5.676558e+02
  -3.555954e+02   3.235707e+02
  -5.918973e+02  -6.987498e+01
  -3.705922e+02  -3.330746e+02
   1.026169e+02  -3.133334e+02
   3.811342e+02  -7.615711e+01
   2.401331e+02   1.202007e+02
  -6.198832e+01   7.868161e+01
  -1.127716e+02  -1.047103e+02
   1.234114e+02  -1.447338e+02
   2.932973e+02   4.787310e+01
   1.446368e+02   2.486733e+02
  -1.738289e+02   2.621248e+02
  -3.390242e+02   1.027197e+02
  -2.346058e+02  -1.054357e+02
   2.880136e+01  -2.823345e+02
   2.659498e+02  -3.392351e+02
   3.561209e+02  -1.733772e+02
   2.613730e+02   1.610905e+02
   6.395401e+01   4.013612e+02
  -8.011438e+01   3.493532e+02
  -8.436627e+01   1.348238e+02
  -3.723821e+01   3.419205e+01
  -8.914455e+01   9.179286e+01
  -2.151487e+02   8.617048e+01
  -2.572514e+02  -8.878755e+01
  -1.250885e+02  -2.660947e+02
   8.646443e+01  -2.309768e+02
   2.147932e+02   9.384695e+00
   1.736620e+02   2.399898e+02
  -2.202901e+01   2.760481e+02
  -2.554569e+02   9.644027e+01
  -3.360997e+02  -1.631593e+02
  -1.833580e+02  -3.241489e+02
   7.082320e+01  -2.934262e+02
   2.068133e+02  -1.367921e+02
   1.590492e+02  -3.748980e+01
   1.244719e+02  -5.045295e+01
   2.468020e+02  -4.989558e+01
   3.964648e+02   8.085301e+01
   3.193915e+02   2.960869e+02
  -9.527477e+00   4.385992e+02
  -3.685718e+02   3.998777e+02
  -4.924804e+02   1.796515e+02
  -3.178706e+02  -1.029580e+02
  -3.730030e+01  -2.768393e+02
   1.188467e+02  -2.274767e+02
   5.619948e+01  -3.258829e+01
  -1.139530e+02   7.759583e+01
  -1.679898e+02  -2.331827e+01
  -3.290770e+01  -1.748448e+02
   1.400218e+02  -1.478153e+02
   1.487740e+02   5.403996e+01
  -1.826995e+01   1.628087e+02
  -1.767174e+02   1.908012e+01
  -1.542132e+02  -2.400717e+02
   2.988792e+01  -3.449423e+02
   2.402213e+02  -1.989760e+02
   3.433172e+02   6.628934e+01
   2.783771e+02   2.590008e+02
   7.306361e+01   2.767351e+02
  -1.289556e+02   1.525027e+02
  -1.724574e+02   8.436875e+00
  -5.107331e+01  -3.047697e+01
   5.962248e+01   4.637863e+01
   1.286071e+01   1.197423e+02
  -1.226486e+02   8.291488e+01
  -1.642920e+02  -2.197694e+01
  -4.731507e+01  -6.902631e+01
   8.042260e+01  -6.111251e+00
   4.871317e+01   8.150563e+01
  -1.300047e+02   8.456169e+01
  -2.818446e+02  -1.433147e+01
  -2.541334e+02  -1.543469e+02
  -4.305367e+01  -2.587246e+02
   1.964503e+02  -2.450020e+02
   2.805511e+02  -1.065633e+02
   1.573150e+02   5.335989e+01
  -2.660353e+01   9.754774e+01
  -7.908368e+01   3.220314e+00
   4.181200e+01  -9.318205e+01
   1.907305e+02  -4.708357e+01
   2.029817e+02   1.063542e+02
   6.431468e+01   2.013957e+02
  -9.206301e+01   1.494474e+02
  -1.336432e+02   2.651729e+01
  -5.798263e+01  -3.980420e+01
   3.262046e+01   7.298530e+00
   2.836721e+01   9.533801e+01
  -8.564474e+01   1.159595e+02
  -2.019638e+02   1.973114e+01
  -1.832775e+02  -1.341072e+02
  -1.482121e+01  -2.200065e+02
   1.617635e+02  -1.610357e+02
   1.888176e+02  -5.987879e+00
   6.581718e+01   1.105327e+02
  -6.346621e+01   1.069589e+02
  -8.090644e+01   2.798021e+01
  -1.334616e+01  -2.512982e+01
   2.807577e+01  -1.213193e+01
  -8.933572e+00   1.763433e+01
  -7.876379e+01  -4.311007e+00
  -9.779998e+01  -8.881377e+01
  -1.306613e+01  -1.684225e+02
   1.371540e+02  -1.522132e+02
   2.379326e+02  -1.495366e+01
   1.981016e+02   1.574617e+02
   3.640020e+01   2.355414e+02
  -1.089037e+02   1.662587e+02
  -1.376358e+02   2.819437e+01
  -7.368119e+01  -5.229195e+01
  -3.007228e+01  -3.532772e+01
  -5.296803e+01   1.223200e+01
  -8.315908e+01   6.535412e+00
  -4.964327e+01  -5.400845e+01
   3.958427e+01  -9.534119e+01
   1.103472e+02  -5.818445e+01
   9.461765e+01   4.211344e+01
  -1.634363e+01   1.179275e+02
  -1.536870e+02   8.493379e+01
  -2.009505e+02  -6.160922e+01
  -9.075519e+01  -2.090984e+02
   1.181932e+02  -2.267427e+02
   2.706063e+02  -8.780757e+01
   2.533095e+02   9.200126e+01
   1.044707e+02   1.770797e+02
  -4.150344e+01   1.457896e+02
  -9.292975e+01   8.314752e+01
  -7.736600e+01   6.741716e+01
  -6.678834e+01   8.986103e+01
  -9.453982e+01   7.334976e+01
  -1.326030e+02  -2.283743e+01
  -1.171179e+02  -1.567753e+02
  -2.321917e+01  -2.265013e+02
   1.065992e+02  -1.697690e+02
   1.763531e+02  -1.539221e+01
   1.305266e+02   1.268338e+02
   1.184287e+01   1.588541e+02
  -7.195298e+01   8.441557e+01
  -6.073319e+01  -8.917818e+00
  -1.313832e-01  -4.631037e+01
   1.845102e+01  -3.182245e+01
  -3.220043e+01  -1.439575e+01
  -8.082160e+01  -2.283994e+01
  -4.591022e+01  -4.154350e+01
   6.816633e+01  -3.800732e+01
   1.632251e+02   2.399997e+00
   1.397178e+02   6.016257e+01
   5.034680e+00   9.413685e+01
  -1.267928e+02   7.159720e+01
  -1.440358e+02   6.514608e+00
  -4.617355e+01  -4.975702e+01
   6.067955e+01  -4.248710e+01
   7.742715e+01   2.029791e+01
   1.393673e+01   7.415038e+01
  -5.253900e+01   6.323859e+01
  -6.829924e+01  -1.866595e+00
  -5.194356e+01  -5.302773e+01
  -4.351378e+01  -4.472194e+01
  -5.461373e+01  -2.863207e+00
  -6.349860e+01  -1.436130e+00
  -3.892886e+01  -6.915504e+01
   3.123930e+01  -1.485470e+02
   1.210616e+02  -1.418129e+02
   1.718185e+02  -3.099909e+01
   1.265683e+02   9.418403e+01
   4.484854e+00   1.303716e+02
  -8.851497e+01   6.484142e+01
  -6.096456e+01  -1.410710e+01
   5.626116e+01  -1.995783e+01
   1.337332e+02   4.522331e+01
   7.097194e+01   1.082789e+02
  -8.423352e+01   1.096018e+02
  -1.887678e+02   4.558593e+01
  -1.564890e+02  -4.128582e+01
  -3.279848e+01  -8.705303e+01
   6.272249e+01  -6.394532e+01
   4.867013e+01  -2.283937e+00
  -3.916823e+01   2.800695e+01
  -9.162050e+01  -2.211392e+01
  -3.659412e+01  -1.174392e+02
   8.451694e+01  -1.546575e+02
   1.638352e+02  -6.548357e+01
   1.287751e+02   9.638242e+01
   1.238552e+01   1.951546e+02
  -8.704715e+01   1.427203e+02
  -1.060556e+02  -1.082641e+01
  -5.571489e+01  -1.213496e+02
   1.036199e+01  -1.051231e+02
   5.027722e+01  -1.664249e+01
   4.824520e+01   3.396904e+01
   2.057629e+01   9.061504e+00
   5.424043e+00  -1.934136e+01
   2.551343e+01   1.621112e+01
   5.421803e+01   8.792205e+01
   3.411864e+01   1.081669e+02
  -5.266386e+01   4.570358e+01
  -1.365931e+02  -3.845197e+01
  -1.233392e+02  -7.487855e+01
  -1.509482e+01  -5.665798e+01
   8.626057e+01  -2.398998e+01
   8.846910e+01  -2.266163e+00
   1.434397e+01   1.388442e+01
  -3.661642e+01   2.273118e+01
  -1.908336e+01   1.537301e+01
   1.590068e+01  -2.187175e+00
  -5.221722e+00  -6.746321e+00
  -6.879452e+01  -3.511916e+00
  -9.053695e+01  -2.517973e+01
  -1.473766e+01  -8.193268e+01
   1.117439e+02  -1.153438e+02
   1.847955e+02  -5.862777e+01
   1.450210e+02   6.579447e+01
   2.677550e+01   1.612485e+02
  -8.091012e+01   1.514079e+02
  -1.134357e+02   5.971856e+01
  -7.879499e+01  -2.308568e+01
  -2.549796e+01  -3.938368e+01
  -6.627220e-01  -1.056619e+01
  -1.292032e+01  -4.022487e+00
  -3.073616e+01  -4.565922e+01
  -1.826135e+01  -9.146228e+01
   2.978717e+01  -7.330370e+01
   7.955300e+01   1.595890e+01
   7.804298e+01   1.057743e+02
   7.429824e+00   1.123728e+02
  -8.130965e+01   2.762730e+01
  -1.048730e+02  -7.278590e+01
  -3.431797e+01  -1.045238e+02
   6.803197e+01  -5.888897e+01
   1.016939e+02   1.197927e+01
   4.205074e+01   5.571766e+01
  -3.444694e+01   5.564667e+01
  -3.714130e+01   2.681110e+01
   2.762934e+01  -2.759721e+00
   6.701580e+01  -5.353232e+00
   1.676647e+01   2.789965e+01
  -7.758166e+01   6.315228e+01
  -1.177719e+02   5.274214e+01
  -6.842027e+01  -1.731381e+01
   1.516537e+01  -8.421337e+01
   5.930144e+01  -7.924671e+01
   4.337633e+01  -6.467511e+00
   3.436217e+00   5.634670e+01
  -2.756416e+01   4.543202e+01
  -3.741729e+01  -1.593943e+01
  -2.573698e+01  -5.550159e+01
   3.736636e+00  -3.688886e+01
   3.344618e+01   8.090716e+00
   3.885659e+01   2.628828e+01
   1.912636e+01   4.060597e+00
  -2.307556e+00  -1.825883e+01
  -5.321946e+00  -4.257472e+00
  -9.900589e-02   3.442881e+01
  -9.036418e+00   5.135864e+01
  -3.021068e+01   1.684227e+01
  -3.654285e+01  -3.954201e+01
  -5.399584e+00  -6.099345e+01
   4.366814e+01  -2.414765e+01
   6.090303e+01   3.684868e+01
   1.722915e+01   6.361294e+01
  -5.671687e+01   3.676959e+01
  -9.193340e+01  -1.335498e+01
  -5.011470e+01  -4.526619e+01
   2.845367e+01  -4.494091e+01
   6.501470e+01  -2.512916e+01
   2.639771e+01  -4.745697e+00
  -3.223917e+01   4.081692e-01
  -3.506715e+01  -1.263734e+01
   2.707653e+01  -2.977255e+01
   8.507003e+01  -1.980228e+01
