
 $NMID
 id='ANONYMOUS ', fmtdat='(2E16.6)'
 volume=1.0
 tramp=1.0
 $END
  -3.908167e+03   7.584807e+01
  -2.259881e+03  -2.208127e+03
   6.982824e+02  -2.474546e+03
   1.947498e+03  -7.715663e+02
   8.527418e+02   6.488170e+02
  -6.276280e+02   5.911478e+02
  -8.550680e+02  -3.856865e+02
  -2.061324e+00  -1.003225e+03
   7.567949e+02  -7.361425e+02
   8.725133e+02   8.635596e+01
   4.252044e+02   7.988423e+02
  -2.133303e+02   8.205581e+02
  -5.800045e+02   1.084553e+02
  -3.515802e+02  -6.418261e+02
   2.557923e+02  -6.786845e+02
   5.649650e+02   1.241952e+01
   2.491912e+02   6.297423e+02
  -3.041776e+02   5.842332e+02
  -5.306572e+02   8.512248e+01
  -3.536537e+02  -3.370765e+02
  -9.098439e+00  -4.021929e+02
   2.282869e+02  -2.378651e+02
   1.962859e+02  -1.342878e+01
  -9.457119e+01   8.338827e+01
  -3.578736e+02  -9.388302e+01
  -1.804700e+02  -3.828011e+02
   3.997589e+02  -3.776355e+02
   7.590004e+02   4.582173e+01
   3.901594e+02   4.813970e+02
  -3.390600e+02   4.483096e+02
  -6.674110e+02  -1.828198e+01
  -3.143447e+02  -4.309713e+02
   2.577007e+02  -4.727512e+02
   5.197131e+02  -1.756174e+02
   3.795408e+02   2.192020e+02
   5.388389e+01   4.488373e+02
  -2.083398e+02   2.700402e+02
  -1.853509e+02  -1.985736e+02
   1.402836e+02  -4.072084e+02
   4.056121e+02  -3.336050e+00
   2.290472e+02   6.052372e+02
  -2.891186e+02   6.269569e+02
  -5.496151e+02   6.275433e+00
  -2.411632e+02  -5.041428e+02
   2.728523e+02  -2.988678e+02
   3.632166e+02   2.866790e+02
  -5.302465e+01   4.972590e+02
  -4.941041e+02   1.382989e+02
  -5.333592e+02  -3.580323e+02
  -1.511593e+02  -5.317390e+02
   3.413591e+02  -3.193501e+02
   5.733252e+02   6.089463e+01
   3.449227e+02   3.510302e+02
  -1.372105e+02   3.362402e+02
  -3.995476e+02   4.909100e+01
  -2.150174e+02  -1.858545e+02
   1.179639e+02  -1.034871e+02
   1.436326e+02   1.436793e+02
  -1.440009e+02   1.802982e+02
  -3.160979e+02  -5.761390e+01
  -1.320032e+02  -2.725224e+02
   1.865537e+02  -2.340107e+02
   2.989368e+02  -6.003228e+01
   1.706630e+02   7.649100e+01
  -2.748243e+01   1.933680e+02
  -1.939820e+02   2.798638e+02
  -2.881796e+02   1.899677e+02
  -2.538862e+02  -1.194547e+02
  -6.468807e+01  -3.841228e+02
   1.119537e+02  -3.393053e+02
   1.194992e+02  -1.027581e+02
   2.956598e+01   1.564129e+01
   3.500279e+01  -6.918263e+01
   1.685384e+02  -1.112611e+02
   2.485506e+02   4.574044e+01
   1.467566e+02   2.401240e+02
  -6.150520e+01   2.352099e+02
  -2.055041e+02   1.719643e+01
  -1.852494e+02  -2.123836e+02
   1.783992e+00  -2.685604e+02
   2.333605e+02  -1.152853e+02
   3.212292e+02   1.466830e+02
   1.646249e+02   3.175147e+02
  -9.104607e+01   2.739960e+02
  -2.066783e+02   1.021344e+02
  -1.318824e+02  -3.459776e+00
  -7.339424e+01   2.610944e+01
  -1.950056e+02   6.203791e+01
  -3.491949e+02  -4.215648e+01
  -2.903133e+02  -2.442246e+02
  -2.666795e+00  -3.834863e+02
   3.170564e+02  -3.585003e+02
   4.323994e+02  -1.744150e+02
   2.987943e+02   8.439035e+01
   4.869980e+01   2.624772e+02
  -1.178910e+02   2.248217e+02
  -7.963287e+01   2.751311e+01
   9.310872e+01  -9.896689e+01
   1.765737e+02  -2.172748e+00
   5.503302e+01   1.756901e+02
  -1.362166e+02   1.635857e+02
  -1.609455e+02  -4.327417e+01
   1.114636e+01  -1.695374e+02
   1.734325e+02  -3.114418e+01
   1.447945e+02   2.213598e+02
  -3.486771e+01   3.096234e+02
  -2.089745e+02   1.652711e+02
  -2.845288e+02  -6.232992e+01
  -2.334585e+02  -2.109225e+02
  -7.961569e+01  -2.264670e+02
   9.828178e+01  -1.406386e+02
   1.576667e+02  -2.034746e+01
   5.476272e+01   3.121860e+01
  -5.930587e+01  -2.972981e+01
  -2.661510e+01  -1.072775e+02
   1.097221e+02  -8.859551e+01
   1.577256e+02   1.165418e+01
   5.310471e+01   6.957379e+01
  -7.138258e+01   2.185530e+01
  -5.343890e+01  -6.056163e+01
   1.014838e+02  -7.756740e+01
   2.428361e+02  -4.155616e+00
   2.272052e+02   1.152283e+02
   5.662050e+01   2.211202e+02
  -1.565211e+02   2.302563e+02
  -2.497444e+02   1.124898e+02
  -1.540193e+02  -4.596118e+01
   2.149486e+01  -1.004152e+02
   8.370941e+01  -8.810163e+00
  -2.334495e+01   9.301505e+01
  -1.712075e+02   5.699050e+01
  -1.927143e+02  -8.650753e+01
  -6.772821e+01  -1.840649e+02
   7.964878e+01  -1.428202e+02
   1.255405e+02  -2.916108e+01
   6.482340e+01   3.581896e+01
  -2.114065e+01   3.316695e+00
  -3.114196e+01  -7.003362e+01
   6.088240e+01  -9.852009e+01
   1.713840e+02  -2.842643e+01
   1.685614e+02   1.047367e+02
   2.091162e+01   1.924489e+02
  -1.449225e+02   1.480243e+02
  -1.745475e+02   6.988071e+00
  -6.124083e+01  -1.031029e+02
   5.869864e+01  -1.009545e+02
   7.488086e+01  -2.785499e+01
   1.707873e+01   2.329789e+01
  -1.930734e+01   1.420046e+01
   8.719320e+00  -8.496363e+00
   6.036234e+01   7.154724e+00
   7.489660e+01   6.985012e+01
   1.379917e+01   1.346458e+02
  -1.023954e+02   1.323084e+02
  -1.973295e+02   2.671559e+01
  -1.744044e+02  -1.231419e+02
  -3.884388e+01  -2.055830e+02
   9.313529e+01  -1.499897e+02
   1.177597e+02  -2.490912e+01
   6.074272e+01   5.131074e+01
   2.400207e+01   3.307680e+01
   4.627102e+01  -9.867741e+00
   6.854585e+01  -5.964922e+00
   3.461490e+01   4.186273e+01
  -3.856368e+01   7.343469e+01
  -8.719569e+01   4.544854e+01
  -7.076914e+01  -3.097844e+01
   1.361747e+01  -9.294508e+01
   1.236098e+02  -7.082499e+01
   1.712440e+02   4.574852e+01
   8.877282e+01   1.768923e+02
  -9.169130e+01   2.026857e+02
  -2.357074e+02   8.929734e+01
  -2.272432e+02  -7.286706e+01
  -9.967424e+01  -1.569598e+02
   2.948258e+01  -1.326247e+02
   7.938173e+01  -7.650431e+01
   6.978184e+01  -6.197289e+01
   5.991245e+01  -8.075309e+01
   8.294966e+01  -6.593255e+01
   1.147991e+02   1.855015e+01
   1.052909e+02   1.346734e+02
   2.630730e+01   1.976236e+02
  -8.538922e+01   1.528400e+02
  -1.534992e+02   2.021402e+01
  -1.202124e+02  -1.048588e+02
  -1.960564e+01  -1.400429e+02
   5.708407e+01  -8.276704e+01
   5.243575e+01  -3.031605e+00
   6.063624e+00   3.526750e+01
  -6.278423e+00   2.833329e+01
   3.265286e+01   1.644784e+01
   6.685062e+01   2.091705e+01
   3.794421e+01   3.516948e+01
  -5.401614e+01   3.218851e+01
  -1.361571e+02   4.774721e+00
  -1.271103e+02  -4.349388e+01
  -1.555896e+01  -7.849882e+01
   1.047399e+02  -6.578075e+01
   1.267572e+02  -1.005305e+01
   4.161495e+01   3.715283e+01
  -5.419868e+01   3.325312e+01
  -6.753139e+01  -1.723626e+01
  -6.903920e+00  -6.111361e+01
   4.910668e+01  -5.111972e+01
   5.520061e+01   2.006224e+00
   3.697813e+01   4.367031e+01
   3.626780e+01   3.682669e+01
   5.461644e+01   1.837996e+00
   5.802493e+01  -1.942066e-02
   3.111466e+01   5.867480e+01
  -2.824461e+01   1.280637e+02
  -9.942709e+01   1.227278e+02
  -1.412405e+02   2.811165e+01
  -1.059444e+02  -8.091277e+01
  -5.829099e+00  -1.094780e+02
   7.384285e+01  -5.179091e+01
   5.253634e+01   1.369075e+01
  -4.946734e+01   1.768065e+01
  -1.186879e+02  -3.736419e+01
  -6.541761e+01  -9.363905e+01
   6.875092e+01  -9.749192e+01
   1.647072e+02  -4.558709e+01
   1.421812e+02   2.821595e+01
   3.330538e+01   7.447483e+01
  -5.088604e+01   6.028119e+01
  -4.061021e+01   8.229970e+00
   3.383446e+01  -2.163092e+01
   7.683879e+01   2.044510e+01
   2.598187e+01   1.032986e+02
  -8.082339e+01   1.327761e+02
  -1.446535e+02   5.177080e+01
  -1.084517e+02  -8.846400e+01
  -8.303702e+00  -1.706983e+02
   7.312345e+01  -1.252633e+02
   9.036359e+01   4.728044e+00
   5.390363e+01   9.976348e+01
  -1.298484e+00   9.221118e+01
  -4.047690e+01   1.864151e+01
  -4.645287e+01  -2.725906e+01
  -2.291730e+01  -9.723845e+00
  -3.077907e+00   1.556200e+01
  -1.750906e+01  -1.415820e+01
  -4.873375e+01  -7.480548e+01
  -3.506314e+01  -9.502122e+01
   4.196766e+01  -4.132387e+01
   1.200505e+02   3.230689e+01
   1.128323e+02   6.154604e+01
   1.320436e+01   4.519816e+01
  -7.758285e+01   1.876531e+01
  -7.669663e+01   3.170589e+00
  -7.273097e+00  -9.144244e+00
   3.454155e+01  -1.903215e+01
   1.237489e+01  -1.346870e+01
  -1.872821e+01   1.768713e+00
   5.338605e+00   8.110859e+00
   6.495177e+01   3.441147e+00
   7.958834e+01   2.245097e+01
   5.181891e+00   7.171325e+01
  -1.056581e+02   9.786457e+01
  -1.627736e+02   4.983084e+01
  -1.236295e+02  -5.988197e+01
  -2.063919e+01  -1.424294e+02
   7.039562e+01  -1.317465e+02
   1.008903e+02  -5.024907e+01
   7.016960e+01   1.961044e+01
   2.055422e+01   3.182144e+01
  -3.388533e+00   8.389396e+00
   8.152088e+00   2.757214e+00
   2.924496e+01   3.764032e+01
   2.000582e+01   7.765561e+01
  -2.512298e+01   6.173032e+01
  -6.962686e+01  -1.641836e+01
  -6.603000e+01  -9.505679e+01
  -1.847227e+00  -9.864170e+01
   7.267632e+01  -2.056965e+01
   9.012841e+01   6.727883e+01
   2.630369e+01   9.207572e+01
  -6.008909e+01   4.850717e+01
  -8.594103e+01  -1.229460e+01
  -3.282874e+01  -4.520268e+01
   2.928655e+01  -4.482536e+01
   2.730959e+01  -2.267732e+01
  -3.013999e+01   2.217691e+00
  -6.019279e+01   7.039290e+00
  -1.344399e+01  -2.181909e+01
   6.552660e+01  -5.662640e+01
   9.625346e+01  -5.067957e+01
   5.403973e+01   1.095438e+01
  -1.359457e+01   7.067834e+01
  -4.539788e+01   6.677763e+01
  -3.276144e+01   3.457430e+00
  -1.893923e-01  -4.826009e+01
   2.350754e+01  -3.576901e+01
   3.103177e+01   1.630221e+01
   2.068098e+01   4.631367e+01
  -3.879283e+00   2.784468e+01
  -2.832248e+01  -8.057514e+00
  -3.317381e+01  -1.924925e+01
  -1.751591e+01  -2.404055e+00
  -1.112308e+00   1.218661e+01
   4.441015e+00  -3.389867e+00
   5.918985e+00  -3.351650e+01
   1.642413e+01  -3.994390e+01
   2.964373e+01  -5.246179e+00
   2.549910e+01   4.223844e+01
  -3.752758e+00   5.459385e+01
  -4.033373e+01   1.704914e+01
  -5.085223e+01  -3.606207e+01
  -1.262649e+01  -5.599226e+01
   4.751392e+01  -2.953782e+01
   7.738199e+01   1.378708e+01
   4.311003e+01   3.808875e+01
  -2.509343e+01   3.403541e+01
  -5.654324e+01   1.620845e+01
  -2.026780e+01   2.967074e+00
   3.452252e+01   2.983786e+00
   3.351292e+01   1.623630e+01
  -2.721715e+01   2.860960e+01
  -8.097997e+01   1.701099e+01
