
 $NMID
 id='ANONYMOUS ', fmtdat='(2E16.6)'
 volume=1.0
 tramp=1.0
 $END
  -3.677485e+03  -4.722506e+01
  -2.187553e+03  -1.977326e+03
   3.494312e+02  -2.213221e+03
   1.559765e+03  -1.013644e+03
   9.224572e+02   1.279099e+02
  -1.935287e+02   3.502545e+02
  -5.306265e+02  -2.020453e+02
  -2.968104e+01  -7.035607e+02
   5.664378e+02  -6.473319e+02
   7.430475e+02  -2.852010e+01
   4.491215e+02   6.313238e+02
  -6.722516e+01   7.345247e+02
  -4.229241e+02   1.740528e+02
  -3.004044e+02  -4.979542e+02
   1.539483e+02  -5.968052e+02
   4.661520e+02  -5.108799e+01
   2.801166e+02   5.397024e+02
  -1.992620e+02   6.154731e+02
  -5.030845e+02   1.986929e+02
  -4.199669e+02  -2.376947e+02
  -7.911501e+01  -4.013038e+02
   1.793343e+02  -2.580348e+02
   1.375896e+02  -5.046584e+01
  -1.410242e+02  -1.882184e+01
  -3.073375e+02  -2.003670e+02
  -6.301737e+01  -3.675806e+02
   4.361006e+02  -2.565135e+02
   6.532542e+02   1.330750e+02
   2.941975e+02   4.151438e+02
  -3.273668e+02   3.004193e+02
  -5.679835e+02  -9.292153e+01
  -2.433573e+02  -3.977609e+02
   2.620918e+02  -4.077232e+02
   4.918325e+02  -1.462392e+02
   3.558572e+02   1.917380e+02
   6.832757e+01   3.638619e+02
  -1.071960e+02   2.136872e+02
  -4.850562e+01  -1.383666e+02
   1.684830e+02  -2.555177e+02
   2.849936e+02   9.071791e+01
   9.052347e+01   5.446165e+02
  -2.794603e+02   5.201161e+02
  -4.321215e+02   1.885862e+00
  -1.832172e+02  -3.917430e+02
   1.893204e+02  -2.135002e+02
   2.445108e+02   2.680193e+02
  -9.682816e+01   4.288170e+02
  -4.707188e+02   9.101194e+01
  -5.084189e+02  -3.745021e+02
  -1.567813e+02  -5.171037e+02
   3.218163e+02  -2.951585e+02
   5.494100e+02   6.312096e+01
   3.552865e+02   2.975842e+02
  -7.571159e+01   2.782969e+02
  -3.331059e+02   7.486141e+01
  -2.224136e+02  -9.113968e+01
   4.149762e+01  -5.814303e+01
   8.630208e+01   8.100694e+01
  -1.181498e+02   1.087368e+02
  -2.693131e+02  -4.650242e+01
  -1.411098e+02  -2.220557e+02
   1.560177e+02  -2.518633e+02
   3.319543e+02  -1.148793e+02
   2.408727e+02   9.027976e+01
  -1.504814e+01   2.766481e+02
  -2.602209e+02   3.342125e+02
  -3.450014e+02   1.652635e+02
  -2.411645e+02  -1.527740e+02
  -5.180224e+01  -3.748079e+02
   7.588865e+01  -3.270354e+02
   6.379707e+01  -1.411903e+02
   3.128697e+01  -5.946126e+01
   9.643557e+01  -9.952515e+01
   2.186375e+02  -8.298346e+01
   2.452858e+02   8.918524e+01
   1.124399e+02   2.521665e+02
  -8.063095e+01   2.085393e+02
  -1.966236e+02  -2.253187e+01
  -1.487963e+02  -2.354736e+02
   3.801410e+01  -2.549175e+02
   2.448025e+02  -7.546708e+01
   3.100612e+02   1.687655e+02
   1.617377e+02   3.086990e+02
  -7.394049e+01   2.730763e+02
  -1.875413e+02   1.353738e+02
  -1.489076e+02   4.494206e+01
  -1.259833e+02   4.705683e+01
  -2.469940e+02   3.897529e+01
  -3.897237e+02  -8.259161e+01
  -3.137132e+02  -2.840820e+02
   1.558507e+01  -4.273762e+02
   3.616763e+02  -3.869990e+02
   4.670704e+02  -1.721749e+02
   2.952922e+02   9.492815e+01
   3.261684e+01   2.576999e+02
  -1.001756e+02   2.096961e+02
  -3.643274e+01   3.610298e+01
   1.090149e+02  -5.881297e+01
   1.486462e+02   2.446214e+01
   2.280139e+01   1.557254e+02
  -1.325325e+02   1.253423e+02
  -1.340287e+02  -4.952115e+01
   2.187660e+01  -1.488615e+02
   1.678971e+02  -1.682792e+01
   1.491606e+02   2.247924e+02
  -2.344475e+01   3.299210e+02
  -2.267060e+02   1.966893e+02
  -3.305051e+02  -6.112023e+01
  -2.631000e+02  -2.478820e+02
  -6.644497e+01  -2.600090e+02
   1.207685e+02  -1.380181e+02
   1.539133e+02  -7.066251e+00
   3.894621e+01   1.953748e+01
  -5.776763e+01  -5.437882e+01
  -7.904395e+00  -1.157946e+02
   1.197221e+02  -7.747263e+01
   1.514042e+02   2.557946e+01
   3.827016e+01   6.117746e+01
  -8.019491e+01  -3.242042e+00
  -4.290831e+01  -8.772389e+01
   1.394974e+02  -9.013206e+01
   2.881641e+02   9.791983e+00
   2.537527e+02   1.591831e+02
   3.949144e+01   2.558940e+02
  -1.924942e+02   2.382574e+02
  -2.673875e+02   1.031745e+02
  -1.473192e+02  -4.815831e+01
   2.540270e+01  -8.613562e+01
   7.044890e+01   1.816619e+00
  -4.595629e+01   8.412663e+01
  -1.819446e+02   3.791902e+01
  -1.885931e+02  -1.024788e+02
  -5.595564e+01  -1.919295e+02
   8.986017e+01  -1.390316e+02
   1.306890e+02  -1.692604e+01
   5.514769e+01   4.116243e+01
  -3.617345e+01  -9.940809e+00
  -3.216700e+01  -9.599178e+01
   8.232874e+01  -1.122665e+02
   1.963690e+02  -1.747310e+01
   1.757015e+02   1.258565e+02
   1.080065e+01   2.026916e+02
  -1.554730e+02   1.461502e+02
  -1.752639e+02   3.970101e+00
  -5.612732e+01  -1.026546e+02
   6.372807e+01  -9.895831e+01
   7.397679e+01  -2.465477e+01
   7.394148e+00   2.618090e+01
  -3.089925e+01   1.239263e+01
   8.926798e+00  -1.984254e+01
   8.120362e+01   1.030787e+00
   9.695253e+01   8.664033e+01
   1.027430e+01   1.675300e+02
  -1.350307e+02   1.498449e+02
  -2.319235e+02   1.378586e+01
  -1.913832e+02  -1.551607e+02
  -3.517833e+01  -2.250316e+02
   1.053374e+02  -1.566637e+02
   1.297469e+02  -2.605767e+01
   7.010544e+01   4.738158e+01
   2.973765e+01   3.102819e+01
   5.460011e+01  -1.139580e+01
   8.371617e+01  -3.399945e+00
   4.950901e+01   5.423288e+01
  -4.145662e+01   9.608845e+01
  -1.133000e+02   5.871512e+01
  -9.561631e+01  -4.146388e+01
   1.694579e+01  -1.196667e+02
   1.523237e+02  -8.529715e+01
   1.976158e+02   6.078936e+01
   8.767474e+01   2.046601e+02
  -1.156977e+02   2.176962e+02
  -2.609383e+02   8.293326e+01
  -2.400434e+02  -8.840266e+01
  -9.750062e+01  -1.670138e+02
   3.905335e+01  -1.365868e+02
   8.655772e+01  -7.618321e+01
   6.863836e+01  -6.555106e+01
   5.909795e+01  -8.945489e+01
   8.816143e+01  -7.556546e+01
   1.264870e+02   1.861795e+01
   1.125437e+02   1.502704e+02
   2.305563e+01   2.194923e+02
  -9.985681e+01   1.616615e+02
  -1.684010e+02   1.090153e+01
  -1.241164e+02  -1.250087e+02
  -8.574665e+00  -1.543210e+02
   7.500561e+01  -7.950859e+01
   5.997780e+01   1.219452e+01
  -3.247625e+00   4.927490e+01
  -2.270603e+01   3.271116e+01
   2.973445e+01   1.176225e+01
   8.000380e+01   1.919944e+01
   4.699008e+01   4.148167e+01
  -6.747049e+01   3.907827e+01
  -1.605257e+02  -2.441016e-01
  -1.376100e+02  -5.987597e+01
  -4.021612e+00  -9.209279e+01
   1.245446e+02  -6.987101e+01
   1.375749e+02  -3.620611e+00
   4.160846e+01   4.685979e+01
  -5.871727e+01   3.944444e+01
  -7.446320e+01  -1.969717e+01
  -1.411879e+01  -7.088209e+01
   4.838139e+01  -6.259229e+01
   6.543291e+01  -1.261977e+00
   5.017878e+01   4.976254e+01
   4.287481e+01   4.287117e+01
   5.469385e+01   2.826221e+00
   6.267321e+01   3.200555e-01
   3.966936e+01   6.879567e+01
  -2.877804e+01   1.465885e+02
  -1.191908e+02   1.367996e+02
  -1.693555e+02   2.816480e+01
  -1.224510e+02  -9.382495e+01
  -1.414412e+00  -1.259398e+02
   8.798424e+01  -6.020156e+01
   5.992484e+01   1.572365e+01
  -5.564411e+01   2.166903e+01
  -1.293702e+02  -4.076502e+01
  -6.885098e+01  -1.021278e+02
   7.726744e+01  -1.058367e+02
   1.786867e+02  -4.273153e+01
   1.487473e+02   3.741571e+01
   2.959413e+01   8.196870e+01
  -6.029923e+01   6.120669e+01
  -4.495927e+01   1.880636e+00
   3.901845e+01  -2.823965e+01
   8.736231e+01   2.049267e+01
   3.310056e+01   1.134401e+02
  -8.172544e+01   1.491019e+02
  -1.556669e+02   6.348458e+01
  -1.223783e+02  -9.231538e+01
  -1.351852e+01  -1.865912e+02
   8.203730e+01  -1.357792e+02
   1.030655e+02   9.853722e+00
   5.386943e+01   1.143405e+02
  -1.160328e+01   9.795054e+01
  -4.871663e+01   1.489998e+01
  -4.322848e+01  -3.115501e+01
  -1.634948e+01  -6.569299e+00
  -5.754008e+00   1.951105e+01
  -2.893985e+01  -1.660099e+01
  -5.777459e+01  -8.340513e+01
  -3.430879e+01  -1.029073e+02
   5.082163e+01  -4.555511e+01
   1.298362e+02   3.166398e+01
   1.196078e+02   6.503973e+01
   1.742063e+01   5.166299e+01
  -7.882473e+01   2.487643e+01
  -8.230890e+01   4.970207e+00
  -1.357594e+01  -1.144302e+01
   3.545436e+01  -2.044699e+01
   1.763159e+01  -1.185776e+01
  -1.697580e+01   2.974340e+00
   2.045246e+00   5.483011e+00
   6.514014e+01  -5.592515e-01
   8.870570e+01   2.175723e+01
   1.743901e+01   7.822105e+01
  -1.066944e+02   1.108894e+02
  -1.784350e+02   5.909823e+01
  -1.425302e+02  -5.997780e+01
  -2.793997e+01  -1.546039e+02
   7.643876e+01  -1.477853e+02
   1.110308e+02  -5.842966e+01
   7.772422e+01   2.301947e+01
   2.446817e+01   3.717896e+01
   2.532326e-01   9.673914e+00
   1.210907e+01   4.523390e+00
   3.089427e+01   4.541112e+01
   1.997023e+01   8.914629e+01
  -2.903112e+01   7.164063e+01
  -7.622008e+01  -1.413381e+01
  -7.595306e+01  -9.898281e+01
  -9.256936e+00  -1.074389e+02
   7.547496e+01  -2.888790e+01
   1.010697e+02   6.567652e+01
   3.534665e+01   9.993994e+01
  -6.262526e+01   6.017808e+01
  -9.733691e+01  -8.404645e+00
  -4.137492e+01  -5.398307e+01
   3.259563e+01  -5.637521e+01
   3.666119e+01  -2.637604e+01
  -2.626319e+01   6.595226e+00
  -6.483301e+01   8.464548e+00
  -1.766069e+01  -2.678864e+01
   7.341593e+01  -6.343900e+01
   1.149306e+02  -4.962682e+01
   6.802936e+01   1.783125e+01
  -1.293974e+01   8.185843e+01
  -5.511470e+01   7.728485e+01
  -4.204813e+01   8.906187e+00
  -5.072943e+00  -5.175040e+01
   2.474287e+01  -4.432561e+01
   3.606402e+01   1.299057e+01
   2.607761e+01   5.227630e+01
  -2.283553e+00   3.655384e+01
  -3.203657e+01  -6.218112e+00
  -3.896174e+01  -2.273325e+01
  -1.946991e+01  -3.729617e+00
   2.514729e+00   1.733414e+01
   6.005709e+00   4.173229e+00
  -6.252648e-03  -3.290570e+01
   6.849863e+00  -4.838506e+01
   2.792391e+01  -1.663822e+01
   3.578936e+01   3.651263e+01
   7.842770e+00   5.781953e+01
  -4.002751e+01   2.344257e+01
  -5.768573e+01  -3.370420e+01
  -1.699484e+01  -5.875421e+01
   5.283686e+01  -3.377188e+01
   8.673679e+01   1.220660e+01
   4.816010e+01   4.211591e+01
  -2.794775e+01   4.307959e+01
  -6.229641e+01   2.395026e+01
  -2.660698e+01   4.637463e+00
   2.915393e+01  -2.893718e+00
   3.403793e+01   9.525450e+00
  -2.401923e+01   2.730639e+01
  -7.818844e+01   2.016621e+01
