
 $NMID
 id='ANONYMOUS ', fmtdat='(2E16.6)'
 volume=1.0
 tramp=1.0
 $END
   4.367391e+03   1.641811e+00
   2.403468e+03   2.533785e+03
  -7.364971e+02   2.693518e+03
  -2.079319e+03   9.174380e+02
  -9.667781e+02  -5.479352e+02
   5.451212e+02  -5.288891e+02
   8.227655e+02   3.811684e+02
  -1.536181e+00   1.001220e+03
  -7.931586e+02   7.759951e+02
  -9.307823e+02  -7.173250e+01
  -4.564643e+02  -8.322057e+02
   2.047659e+02  -8.837635e+02
   5.908823e+02  -1.264198e+02
   3.579129e+02   6.661204e+02
  -2.593680e+02   7.176226e+02
  -5.846938e+02  -6.817078e+00
  -2.691891e+02  -6.756789e+02
   3.075743e+02  -6.506369e+02
   5.847492e+02  -1.164033e+02
   4.096524e+02   3.448495e+02
   3.445111e+01   4.415642e+02
  -2.325810e+02   2.610643e+02
  -1.917446e+02   1.306345e+01
   1.256666e+02  -6.484568e+01
   3.820136e+02   1.454162e+02
   1.566580e+02   4.268810e+02
  -4.590789e+02   3.773321e+02
  -8.046186e+02  -9.370226e+01
  -3.798411e+02  -5.235136e+02
   3.816263e+02  -4.411934e+02
   7.042091e+02   6.040620e+01
   3.130229e+02   4.751944e+02
  -2.973850e+02   4.981799e+02
  -5.713652e+02   1.692029e+02
  -4.058248e+02  -2.419458e+02
  -5.480682e+01  -4.734076e+02
   1.995306e+02  -2.660004e+02
   1.472523e+02   2.080639e+02
  -1.825663e+02   3.977041e+02
  -4.197207e+02  -3.870598e+01
  -2.072507e+02  -6.526337e+02
   3.117456e+02  -6.630818e+02
   5.661084e+02  -1.955347e+00
   2.450981e+02   5.148036e+02
  -2.729585e+02   2.929260e+02
  -3.457330e+02  -3.147595e+02
   9.211961e+01  -5.244952e+02
   5.465833e+02  -1.240186e+02
   5.784130e+02   4.216538e+02
   1.569365e+02   5.920863e+02
  -3.809669e+02   3.408763e+02
  -6.228021e+02  -7.841297e+01
  -3.778650e+02  -3.767403e+02
   1.328243e+02  -3.473782e+02
   4.141806e+02  -5.574039e+01
   2.351730e+02   1.692957e+02
  -1.085380e+02   8.824507e+01
  -1.375361e+02  -1.431004e+02
   1.574022e+02  -1.687735e+02
   3.365431e+02   7.071410e+01
   1.466805e+02   2.883565e+02
  -2.032283e+02   2.611709e+02
  -3.468882e+02   8.371715e+01
  -2.103201e+02  -9.580286e+01
   3.350954e+01  -2.509367e+02
   2.416952e+02  -3.294357e+02
   3.366295e+02  -1.977497e+02
   2.793524e+02   1.419086e+02
   6.979976e+01   4.216100e+02
  -1.070296e+02   3.659833e+02
  -1.104827e+02   1.174121e+02
  -3.057024e+01   8.507186e-01
  -5.546489e+01   8.907694e+01
  -1.996505e+02   1.211510e+02
  -2.738028e+02  -5.948025e+01
  -1.480383e+02  -2.682079e+02
   7.768414e+01  -2.480104e+02
   2.250026e+02  -3.448206e-02
   1.878657e+02   2.484337e+02
  -1.970084e+01   2.913882e+02
  -2.677513e+02   1.078856e+02
  -3.549598e+02  -1.745254e+02
  -1.811851e+02  -3.503672e+02
   9.663398e+01  -3.060801e+02
   2.267924e+02  -1.239104e+02
   1.530813e+02  -1.272933e+01
   9.941198e+01  -3.834803e+01
   2.317959e+02  -6.447465e+01
   4.036930e+02   5.756531e+01
   3.353788e+02   2.859705e+02
   1.818938e+00   4.510123e+02
  -3.691101e+02   4.141038e+02
  -4.967349e+02   1.946789e+02
  -3.329542e+02  -9.635782e+01
  -5.229550e+01  -2.916031e+02
   1.258393e+02  -2.469705e+02
   7.357034e+01  -3.168558e+01
  -1.084828e+02   9.468367e+01
  -1.854780e+02  -8.032202e+00
  -4.694682e+01  -1.891920e+02
   1.554769e+02  -1.627695e+02
   1.711135e+02   5.657122e+01
  -1.730562e+01   1.843813e+02
  -1.918142e+02   2.985879e+01
  -1.596504e+02  -2.453258e+02
   3.592449e+01  -3.477728e+02
   2.380949e+02  -1.930708e+02
   3.308174e+02   6.800408e+01
   2.685197e+02   2.479837e+02
   7.819547e+01   2.649243e+02
  -1.214454e+02   1.516835e+02
  -1.732452e+02   1.297662e+01
  -4.996320e+01  -3.288869e+01
   6.874099e+01   4.180773e+01
   2.442546e+01   1.224694e+02
  -1.221779e+02   9.272184e+01
  -1.699625e+02  -1.966489e+01
  -4.983230e+01  -7.173389e+01
   8.467027e+01  -9.598640e+00
   5.415494e+01   8.283534e+01
  -1.278325e+02   9.425491e+01
  -2.840369e+02   3.214402e+00
  -2.657803e+02  -1.438357e+02
  -5.873101e+01  -2.609689e+02
   1.850267e+02  -2.607227e+02
   2.834095e+02  -1.211794e+02
   1.684133e+02   5.630065e+01
  -2.478534e+01   1.066251e+02
  -8.843524e+01   4.472220e+00
   3.744039e+01  -1.026117e+02
   1.949210e+02  -5.605902e+01
   2.095817e+02   1.045692e+02
   6.442678e+01   2.082445e+02
  -9.578387e+01   1.562812e+02
  -1.417658e+02   2.495013e+01
  -6.665399e+01  -4.358134e+01
   2.883686e+01   5.961843e-01
   3.370087e+01   8.812502e+01
  -7.664431e+01   1.131551e+02
  -1.983747e+02   2.466201e+01
  -1.870307e+02  -1.263544e+02
  -1.705599e+01  -2.164478e+02
   1.641908e+02  -1.592044e+02
   1.924090e+02  -3.802258e+00
   6.435451e+01   1.147054e+02
  -6.744096e+01   1.104849e+02
  -8.382309e+01   3.027823e+01
  -1.686955e+01  -2.607280e+01
   2.367459e+01  -1.568375e+01
  -1.029864e+01   1.251112e+01
  -7.633733e+01  -7.511589e+00
  -9.172175e+01  -8.465437e+01
  -1.368586e+01  -1.624709e+02
   1.293512e+02  -1.527331e+02
   2.341757e+02  -2.517925e+01
   2.028967e+02   1.496885e+02
   4.095911e+01   2.349230e+02
  -1.081793e+02   1.675866e+02
  -1.362226e+02   2.811479e+01
  -7.241535e+01  -5.434843e+01
  -2.937332e+01  -3.529080e+01
  -5.299820e+01   1.003075e+01
  -8.072083e+01   3.651234e+00
  -4.434131e+01  -5.329543e+01
   4.272875e+01  -9.278864e+01
   1.067900e+02  -5.706581e+01
   8.962493e+01   3.795797e+01
  -1.418398e+01   1.145754e+02
  -1.452533e+02   8.784325e+01
  -1.958992e+02  -5.432132e+01
  -9.472753e+01  -2.034675e+02
   1.098856e+02  -2.256917e+02
   2.656643e+02  -8.993828e+01
   2.504212e+02   9.115156e+01
   1.045815e+02   1.781656e+02
  -4.079581e+01   1.453792e+02
  -9.225948e+01   8.072377e+01
  -7.698897e+01   6.824218e+01
  -6.577902e+01   9.211656e+01
  -9.423898e+01   7.499190e+01
  -1.305022e+02  -2.257595e+01
  -1.162434e+02  -1.558350e+02
  -2.567073e+01  -2.250466e+02
   1.018599e+02  -1.675797e+02
   1.746726e+02  -1.505972e+01
   1.321038e+02   1.243772e+02
   1.403134e+01   1.570659e+02
  -7.046219e+01   8.681340e+01
  -6.074869e+01  -3.512787e+00
  -2.797603e+00  -4.437181e+01
   1.372540e+01  -3.300664e+01
  -3.468917e+01  -1.708155e+01
  -7.705975e+01  -2.288912e+01
  -4.341837e+01  -4.084923e+01
   6.583436e+01  -3.780044e+01
   1.578141e+02  -2.662558e+00
   1.406696e+02   5.436779e+01
   1.085319e+01   9.102862e+01
  -1.225638e+02   7.286344e+01
  -1.414430e+02   9.088172e+00
  -4.425737e+01  -4.496147e+01
   5.978302e+01  -3.949491e+01
   7.497890e+01   1.959751e+01
   9.275807e+00   7.073132e+01
  -5.420797e+01   6.048358e+01
  -6.462913e+01  -1.789653e+00
  -4.552404e+01  -5.159737e+01
  -4.198371e+01  -4.416178e+01
  -5.729912e+01  -4.305502e+00
  -6.317549e+01  -2.483896e+00
  -3.460201e+01  -6.918637e+01
   3.435547e+01  -1.447123e+02
   1.181154e+02  -1.354922e+02
   1.655794e+02  -2.727565e+01
   1.210965e+02   9.437099e+01
   3.780017e+00   1.256524e+02
  -8.554796e+01   5.974716e+01
  -5.886782e+01  -1.646545e+01
   5.707760e+01  -2.015621e+01
   1.340372e+02   4.228491e+01
   7.293851e+01   1.071071e+02
  -8.064139e+01   1.118644e+02
  -1.871732e+02   5.050754e+01
  -1.587156e+02  -3.642843e+01
  -3.317169e+01  -8.714920e+01
   6.164615e+01  -6.737823e+01
   4.688775e+01  -5.841344e+00
  -4.019766e+01   2.727961e+01
  -8.928026e+01  -2.344911e+01
  -2.978687e+01  -1.175319e+02
   9.178980e+01  -1.514157e+02
   1.648515e+02  -5.858527e+01
   1.232176e+02   9.990254e+01
   9.679645e+00   1.933914e+02
  -8.270313e+01   1.403106e+02
  -1.034305e+02  -8.715944e+00
  -5.874915e+01  -1.150380e+02
   5.147150e+00  -1.024822e+02
   4.677372e+01  -1.805331e+01
   4.932441e+01   3.165087e+01
   2.258608e+01   8.917328e+00
   4.156237e+00  -2.016002e+01
   2.391236e+01   1.399543e+01
   5.750535e+01   8.629905e+01
   3.916167e+01   1.086749e+02
  -5.030591e+01   4.810727e+01
  -1.381735e+02  -3.618893e+01
  -1.269079e+02  -7.118512e+01
  -1.436130e+01  -5.441565e+01
   8.753772e+01  -2.437749e+01
   8.738055e+01  -5.252727e+00
   1.123392e+01   1.060771e+01
  -3.835895e+01   2.152521e+01
  -1.597184e+01   1.579234e+01
   1.975871e+01  -1.674713e+00
  -4.720331e+00  -8.015540e+00
  -7.236030e+01  -3.566439e+00
  -9.130859e+01  -2.581983e+01
  -9.206370e+00  -8.257359e+01
   1.188588e+02  -1.132857e+02
   1.856997e+02  -5.732755e+01
   1.421198e+02   6.668733e+01
   2.483551e+01   1.620765e+02
  -8.012832e+01   1.507568e+02
  -1.142786e+02   5.777344e+01
  -7.875587e+01  -2.428811e+01
  -2.380162e+01  -3.817919e+01
   2.462161e+00  -9.250792e+00
  -1.092106e+01  -2.866962e+00
  -3.217793e+01  -4.474774e+01
  -2.126807e+01  -8.948365e+01
   2.939486e+01  -7.258593e+01
   8.052498e+01   1.763178e+01
   7.585858e+01   1.051433e+02
   4.614698e+00   1.113790e+02
  -8.126596e+01   2.505704e+01
  -1.031910e+02  -7.376505e+01
  -3.204632e+01  -1.041139e+02
   6.732680e+01  -5.711402e+01
   9.861428e+01   1.212698e+01
   3.899814e+01   5.284530e+01
  -3.391425e+01   5.335669e+01
  -3.349293e+01   2.611073e+01
   3.120569e+01  -4.264033e+00
   6.798964e+01  -6.991162e+00
   1.524567e+01   2.731687e+01
  -7.658834e+01   6.396106e+01
  -1.140543e+02   5.126204e+01
  -6.353866e+01  -1.712722e+01
   1.633019e+01  -8.207843e+01
   5.372737e+01  -7.599896e+01
   3.800517e+01  -4.752626e+00
   6.385702e-01   5.407971e+01
  -2.642200e+01   4.157928e+01
  -3.596347e+01  -1.769989e+01
  -2.424804e+01  -5.384368e+01
   4.117301e+00  -3.388660e+01
   3.243288e+01   8.785296e+00
   3.848664e+01   2.233525e+01
   1.997987e+01   1.695865e+00
   3.648146e-01  -1.619883e+01
  -5.165223e+00  -1.266282e-01
  -4.446868e+00   3.540865e+01
  -1.347153e+01   4.563507e+01
  -3.059924e+01   9.943895e+00
  -3.129858e+01  -4.272574e+01
  -2.522867e-01  -5.895158e+01
   4.347699e+01  -2.011057e+01
   5.693019e+01   3.882064e+01
   1.456890e+01   6.268780e+01
  -5.553949e+01   3.416833e+01
  -8.933821e+01  -1.499839e+01
  -4.908916e+01  -4.425828e+01
   2.937177e+01  -4.214642e+01
   6.424789e+01  -2.148727e+01
   2.471040e+01  -3.904082e+00
  -3.554143e+01  -1.062585e+00
  -3.657071e+01  -1.460944e+01
   2.911842e+01  -3.067732e+01
   8.775073e+01  -2.044437e+01
