
 $NMID
 id='ANONYMOUS ', fmtdat='(2E16.6)'
 volume=1.0
 tramp=1.0
 $END
   4.488170e+03   1.650326e+02
   2.562751e+03   2.861260e+03
  -9.591109e+02   2.853163e+03
  -2.300298e+03   7.773283e+02
  -9.331706e+02  -8.180033e+02
   7.970874e+02  -6.243674e+02
   9.882470e+02   5.363613e+02
  -5.754499e+01   1.187639e+03
  -9.344932e+02   8.140533e+02
  -1.023915e+03  -1.616586e+02
  -4.512307e+02  -9.672632e+02
   3.043090e+02  -9.727073e+02
   7.265100e+02  -9.530533e+01
   4.207837e+02   8.082552e+02
  -3.112436e+02   8.159290e+02
  -6.619836e+02  -3.003808e+01
  -2.702112e+02  -7.441230e+02
   3.744563e+02  -6.506849e+02
   6.064384e+02  -5.979313e+01
   3.883495e+02   3.978559e+02
  -3.835678e+00   4.578817e+02
  -2.720839e+02   2.702546e+02
  -2.515340e+02   9.414841e+00
   9.661097e+01  -1.183983e+02
   4.455640e+02   8.696678e+01
   2.403581e+02   4.524285e+02
  -4.804550e+02   4.627983e+02
  -9.287467e+02  -7.469923e+01
  -4.684488e+02  -6.253127e+02
   4.377614e+02  -5.624565e+02
   8.362426e+02   2.911308e+01
   3.966885e+02   5.417857e+02
  -2.988142e+02   5.810887e+02
  -6.143946e+02   2.298845e+02
  -4.623002e+02  -2.401471e+02
  -8.854115e+01  -5.180674e+02
   2.307400e+02  -3.136408e+02
   2.094067e+02   2.401975e+02
  -1.806448e+02   4.975854e+02
  -5.204468e+02  -4.827917e+00
  -2.939304e+02  -7.539259e+02
   3.554943e+02  -7.933816e+02
   6.877278e+02  -1.072252e+01
   2.901810e+02   6.214730e+02
  -3.358189e+02   3.727518e+02
  -4.315311e+02  -3.348369e+02
   6.093201e+01  -5.916661e+02
   5.721820e+02  -1.549540e+02
   6.102239e+02   4.267134e+02
   1.607200e+02   6.173087e+02
  -4.102956e+02   3.666784e+02
  -6.623316e+02  -8.196885e+01
  -3.878359e+02  -4.243607e+02
   1.784349e+02  -4.016571e+02
   4.893898e+02  -5.298724e+01
   2.523171e+02   2.319111e+02
  -1.446658e+02   1.227743e+02
  -1.658091e+02  -1.804587e+02
   1.815825e+02  -2.175929e+02
   3.801326e+02   8.594456e+01
   1.480161e+02   3.314665e+02
  -2.227434e+02   2.681222e+02
  -3.385811e+02   6.422461e+01
  -1.904315e+02  -8.475700e+01
   1.994476e+01  -2.104492e+02
   2.078737e+02  -3.291215e+02
   3.378955e+02  -2.347603e+02
   3.113276e+02   1.355033e+02
   9.101805e+01   4.724268e+02
  -1.311975e+02   4.101781e+02
  -1.479157e+02   9.763296e+01
  -2.469586e+01  -4.077516e+01
  -2.051587e+01   8.006207e+01
  -1.845674e+02   1.473757e+02
  -2.899568e+02  -4.027860e+01
  -1.754147e+02  -2.804814e+02
   6.789771e+01  -2.772435e+02
   2.409682e+02  -2.593195e+01
   2.139218e+02   2.425863e+02
  -1.401920e+00   3.107306e+02
  -2.765047e+02   1.336212e+02
  -3.832898e+02  -1.706505e+02
  -1.975546e+02  -3.733087e+02
   1.140518e+02  -3.274079e+02
   2.516956e+02  -1.184791e+02
   1.568466e+02   9.485924e+00
   8.977027e+01  -3.394939e+01
   2.306404e+02  -8.106774e+01
   4.076116e+02   4.641908e+01
   3.442093e+02   2.950387e+02
   4.560525e-01   4.627960e+02
  -3.682693e+02   4.192504e+02
  -5.010180e+02   2.029967e+02
  -3.545145e+02  -9.937994e+01
  -6.419127e+01  -3.077963e+02
   1.370323e+02  -2.673042e+02
   9.840611e+01  -2.909253e+01
  -1.083250e+02   1.218230e+02
  -2.137793e+02  -2.554273e+00
  -6.245463e+01  -2.148770e+02
   1.740037e+02  -1.951352e+02
   2.023523e+02   5.996592e+01
  -1.135021e+01   2.115127e+02
  -2.031521e+02   4.198867e+01
  -1.693103e+02  -2.537488e+02
   3.778152e+01  -3.544884e+02
   2.341118e+02  -1.904371e+02
   3.234592e+02   6.679609e+01
   2.772291e+02   2.388765e+02
   1.023431e+02   2.676335e+02
  -1.122035e+02   1.668088e+02
  -1.839626e+02   2.114980e+01
  -6.381228e+01  -3.965153e+01
   7.668535e+01   3.112523e+01
   3.942037e+01   1.298195e+02
  -1.231181e+02   1.100372e+02
  -1.855047e+02  -8.057611e+00
  -6.329783e+01  -7.613544e+01
   8.065852e+01  -2.244468e+01
   5.919741e+01   7.193284e+01
  -1.194903e+02   9.055832e+01
  -2.831860e+02   5.506836e+00
  -2.748833e+02  -1.380939e+02
  -6.913343e+01  -2.605249e+02
   1.817251e+02  -2.755014e+02
   2.940828e+02  -1.366267e+02
   1.853139e+02   5.857525e+01
  -2.169231e+01   1.235445e+02
  -1.001921e+02   1.321477e+01
   2.790652e+01  -1.093111e+02
   2.024550e+02  -6.847376e+01
   2.225044e+02   1.060580e+02
   7.272454e+01   2.215830e+02
  -9.966539e+01   1.707847e+02
  -1.550563e+02   3.269847e+01
  -7.920738e+01  -4.665812e+01
   2.451675e+01  -1.295808e+01
   4.094028e+01   7.624225e+01
  -6.479168e+01   1.135797e+02
  -1.964230e+02   3.232255e+01
  -1.970149e+02  -1.247882e+02
  -2.383586e+01  -2.261426e+02
   1.716453e+02  -1.691215e+02
   2.071194e+02  -3.324480e+00
   7.175432e+01   1.245801e+02
  -6.985746e+01   1.193203e+02
  -9.070109e+01   3.367558e+01
  -2.509461e+01  -2.635923e+01
   1.725663e+01  -2.215606e+01
  -9.411251e+00   3.461544e+00
  -6.665579e+01  -1.245030e+01
  -8.487579e+01  -8.060983e+01
  -1.743551e+01  -1.562687e+02
   1.235237e+02  -1.564621e+02
   2.377166e+02  -3.255558e+01
   2.133681e+02   1.508793e+02
   4.807995e+01   2.482468e+02
  -1.131727e+02   1.816226e+02
  -1.451458e+02   2.938300e+01
  -7.514824e+01  -5.994200e+01
  -2.900304e+01  -3.922857e+01
  -5.156458e+01   1.108803e+01
  -7.591638e+01   5.194111e+00
  -3.782625e+01  -4.676828e+01
   4.013206e+01  -8.048562e+01
   9.423960e+01  -5.096517e+01
   8.056426e+01   3.122763e+01
  -9.022811e+00   1.041424e+02
  -1.329919e+02   8.623046e+01
  -1.949712e+02  -4.326658e+01
  -1.075017e+02  -1.961866e+02
   9.926836e+01  -2.330145e+02
   2.667381e+02  -1.057336e+02
   2.623885e+02   8.259310e+01
   1.140964e+02   1.801660e+02
  -3.800789e+01   1.510204e+02
  -9.694761e+01   8.507571e+01
  -8.394059e+01   6.842732e+01
  -6.761703e+01   8.842948e+01
  -9.168469e+01   7.213426e+01
  -1.271505e+02  -2.252500e+01
  -1.177814e+02  -1.542686e+02
  -3.097390e+01  -2.270777e+02
   9.913755e+01  -1.731702e+02
   1.782069e+02  -2.319384e+01
   1.399708e+02   1.210743e+02
   1.978480e+01   1.610504e+02
  -6.835431e+01   9.609639e+01
  -6.226647e+01   2.932074e+00
  -7.631152e+00  -4.182156e+01
   8.148075e+00  -3.555306e+01
  -3.551275e+01  -1.879541e+01
  -7.781501e+01  -2.279593e+01
  -4.353832e+01  -3.705082e+01
   6.207254e+01  -3.642780e+01
   1.537327e+02  -3.864696e+00
   1.404531e+02   4.970431e+01
   1.972932e+01   8.747034e+01
  -1.151347e+02   7.634740e+01
  -1.439235e+02   1.583589e+01
  -5.014638e+01  -4.098753e+01
   5.912608e+01  -3.756637e+01
   7.591583e+01   2.039887e+01
   5.983983e+00   6.851147e+01
  -5.741839e+01   5.724889e+01
  -6.269280e+01  -2.385751e+00
  -4.236735e+01  -5.043778e+01
  -4.262844e+01  -4.228580e+01
  -6.096825e+01  -2.262455e+00
  -6.595502e+01   1.384321e+00
  -3.429484e+01  -6.468991e+01
   3.063807e+01  -1.414296e+02
   1.119498e+02  -1.425887e+02
   1.604836e+02  -3.595152e+01
   1.231283e+02   9.049186e+01
   9.246536e+00   1.274355e+02
  -8.521292e+01   6.244381e+01
  -6.197383e+01  -1.557714e+01
   5.655463e+01  -2.078186e+01
   1.348033e+02   4.351455e+01
   7.729286e+01   1.080947e+02
  -7.930591e+01   1.129670e+02
  -1.925916e+02   5.165595e+01
  -1.669153e+02  -3.434379e+01
  -4.013093e+01  -8.889763e+01
   6.112110e+01  -7.368558e+01
   5.014507e+01  -9.762989e+00
  -3.779130e+01   2.646571e+01
  -9.129584e+01  -2.306993e+01
  -3.231575e+01  -1.206769e+02
   9.623528e+01  -1.560957e+02
   1.725677e+02  -6.215940e+01
   1.279708e+02   1.039334e+02
   8.547751e+00   1.986308e+02
  -8.480340e+01   1.416142e+02
  -1.037448e+02  -6.656336e+00
  -6.224277e+01  -1.152869e+02
  -2.143829e+00  -1.080329e+02
   4.468778e+01  -2.198183e+01
   5.401113e+01   3.111661e+01
   2.709428e+01   1.014302e+01
   3.062658e+00  -2.093289e+01
   2.015772e+01   1.206183e+01
   5.762505e+01   8.803808e+01
   4.413999e+01   1.114391e+02
  -4.764643e+01   4.654497e+01
  -1.408218e+02  -4.056963e+01
  -1.300756e+02  -7.372422e+01
  -1.607857e+01  -5.073383e+01
   8.953077e+01  -2.256413e+01
   8.974579e+01  -7.667881e+00
   1.127149e+01   7.274245e+00
  -3.908295e+01   2.260353e+01
  -1.362452e+01   1.887931e+01
   2.155901e+01  -1.103984e+00
  -5.808615e+00  -9.472078e+00
  -7.363980e+01  -4.575759e+00
  -9.007372e+01  -2.429852e+01
  -6.975467e+00  -7.908819e+01
   1.189375e+02  -1.114309e+02
   1.837353e+02  -5.545478e+01
   1.383190e+02   6.803328e+01
   2.474598e+01   1.607659e+02
  -7.729874e+01   1.483465e+02
  -1.124875e+02   5.869170e+01
  -8.090480e+01  -2.217605e+01
  -2.579569e+01  -3.508174e+01
   2.482912e+00  -8.016708e+00
  -1.007708e+01  -3.237729e+00
  -3.348868e+01  -4.609851e+01
  -2.240437e+01  -9.050375e+01
   3.062776e+01  -7.216070e+01
   8.226969e+01   2.010504e+01
   7.570254e+01   1.114437e+02
   4.883503e-01   1.128581e+02
  -8.466422e+01   2.208469e+01
  -1.008018e+02  -7.641914e+01
  -2.883175e+01  -1.024447e+02
   6.625603e+01  -5.285369e+01
   9.430695e+01   1.227032e+01
   3.680827e+01   4.839236e+01
  -3.208290e+01   4.853370e+01
  -2.795292e+01   2.677510e+01
   3.529154e+01   2.723807e-01
   6.809393e+01  -5.753702e+00
   1.429388e+01   2.531864e+01
  -7.876540e+01   6.649387e+01
  -1.134316e+02   5.914129e+01
  -6.179838e+01  -1.209635e+01
   1.700269e+01  -8.269101e+01
   5.171579e+01  -7.649606e+01
   3.495184e+01  -3.179465e+00
  -3.318353e-01   5.578431e+01
  -2.672614e+01   4.098205e+01
  -3.595935e+01  -1.999816e+01
  -2.605154e+01  -5.337828e+01
   3.592636e+00  -3.111274e+01
   3.243928e+01   9.014707e+00
   3.816638e+01   1.977517e+01
   1.989186e+01   7.299436e-02
   3.111379e-01  -1.295414e+01
  -6.634616e+00   5.718766e+00
  -8.889526e+00   3.828797e+01
  -1.960104e+01   4.324032e+01
  -3.298568e+01   4.805347e+00
  -2.761758e+01  -4.699723e+01
   5.135380e+00  -6.149665e+01
   4.598987e+01  -1.928110e+01
   5.513709e+01   4.014217e+01
   1.312729e+01   6.334199e+01
  -5.399122e+01   3.344211e+01
  -8.693011e+01  -1.568568e+01
  -4.801023e+01  -4.394632e+01
   2.823057e+01  -4.088887e+01
   6.470098e+01  -1.969909e+01
   2.427029e+01  -3.675188e+00
  -3.781088e+01  -2.310023e+00
  -3.805788e+01  -1.800416e+01
   3.253980e+01  -3.217262e+01
   9.408386e+01  -1.771709e+01
