
 $NMID
 id='ANONYMOUS ', fmtdat='(2E16.6)'
 volume=1.0
 tramp=1.0
 $END
   3.659899e+03   1.395615e+02
   2.049702e+03   2.457314e+03
  -7.998494e+02   2.353325e+03
  -1.803053e+03   6.517262e+02
  -7.159517e+02  -6.006142e+02
   6.198561e+02  -4.292055e+02
   7.318714e+02   4.625819e+02
  -7.389824e+01   9.138597e+02
  -7.229483e+02   6.103882e+02
  -7.707596e+02  -1.412054e+02
  -3.168442e+02  -7.467398e+02
   2.343603e+02  -7.103122e+02
   5.431716e+02  -4.936378e+01
   2.929662e+02   6.366262e+02
  -2.598280e+02   6.142087e+02
  -5.073420e+02  -4.863678e+01
  -1.941675e+02  -5.913089e+02
   2.988556e+02  -5.087441e+02
   4.882351e+02  -4.880033e+01
   3.085082e+02   3.060603e+02
  -5.948253e+00   3.637019e+02
  -2.156603e+02   2.178772e+02
  -1.849907e+02   9.538310e+00
   9.770455e+01  -8.133654e+01
   3.576867e+02   9.430086e+01
   1.649789e+02   3.745318e+02
  -4.163572e+02   3.578490e+02
  -7.425385e+02  -8.729398e+01
  -3.526714e+02  -4.994701e+02
   3.653937e+02  -4.239201e+02
   6.581954e+02   4.175530e+01
   2.967607e+02   4.275434e+02
  -2.535032e+02   4.408369e+02
  -4.832685e+02   1.602807e+02
  -3.451226e+02  -2.054361e+02
  -5.441713e+01  -3.980006e+02
   1.799185e+02  -2.237948e+02
   1.429677e+02   2.063290e+02
  -1.591309e+02   3.814631e+02
  -4.022915e+02  -2.643071e+01
  -2.080450e+02  -6.015594e+02
   2.813468e+02  -6.001928e+02
   5.249063e+02   1.648813e+01
   2.051984e+02   4.845325e+02
  -2.762307e+02   2.687933e+02
  -3.387697e+02  -2.930566e+02
   7.435879e+01  -4.731753e+02
   4.857674e+02  -1.144471e+02
   4.937985e+02   3.519384e+02
   1.203792e+02   4.914878e+02
  -3.341735e+02   2.839309e+02
  -5.196101e+02  -8.097442e+01
  -2.913429e+02  -3.403990e+02
   1.535916e+02  -3.025402e+02
   3.839119e+02  -2.240501e+01
   1.891211e+02   1.865709e+02
  -1.209211e+02   9.033122e+01
  -1.261247e+02  -1.444493e+02
   1.480936e+02  -1.585931e+02
   3.025972e+02   7.538384e+01
   1.148524e+02   2.574092e+02
  -1.795434e+02   2.101939e+02
  -2.741960e+02   5.341888e+01
  -1.556103e+02  -7.212159e+01
   2.581452e+01  -1.824677e+02
   1.806325e+02  -2.720597e+02
   2.842343e+02  -1.816036e+02
   2.480442e+02   1.261288e+02
   4.822165e+01   3.809984e+02
  -1.228404e+02   3.149696e+02
  -1.065331e+02   6.835679e+01
  -7.762911e+00  -3.025318e+01
  -1.995165e+01   7.771602e+01
  -1.617641e+02   1.209711e+02
  -2.391725e+02  -4.161210e+01
  -1.338558e+02  -2.346231e+02
   6.580292e+01  -2.236817e+02
   1.974343e+02  -1.168548e+01
   1.733627e+02   2.006979e+02
  -4.295114e+00   2.531730e+02
  -2.264106e+02   1.057362e+02
  -3.089911e+02  -1.384202e+02
  -1.561058e+02  -2.961412e+02
   8.968847e+01  -2.494132e+02
   1.913552e+02  -8.641970e+01
   1.135527e+02   6.426309e+00
   6.446762e+01  -3.368032e+01
   1.851916e+02  -6.906902e+01
   3.272988e+02   3.255775e+01
   2.785418e+02   2.322199e+02
   6.651927e+00   3.658482e+02
  -2.924205e+02   3.332503e+02
  -3.924498e+02   1.677839e+02
  -2.776429e+02  -7.890815e+01
  -4.674473e+01  -2.429118e+02
   1.110514e+02  -2.050714e+02
   7.271719e+01  -1.650060e+01
  -9.569085e+01   9.895790e+01
  -1.704711e+02  -6.867538e+00
  -4.101088e+01  -1.709815e+02
   1.451915e+02  -1.450451e+02
   1.534104e+02   5.697239e+01
  -2.115721e+01   1.674958e+02
  -1.673192e+02   2.441810e+01
  -1.327397e+02  -2.123124e+02
   3.320666e+01  -2.894297e+02
   1.948848e+02  -1.559756e+02
   2.713775e+02   5.406096e+01
   2.304412e+02   1.996587e+02
   7.880493e+01   2.244348e+02
  -9.726774e+01   1.375834e+02
  -1.513945e+02   1.595257e+01
  -5.042095e+01  -3.180338e+01
   6.074060e+01   2.965859e+01
   2.745471e+01   1.075353e+02
  -1.042537e+02   8.437977e+01
  -1.493947e+02  -1.228527e+01
  -4.556328e+01  -6.695829e+01
   7.101813e+01  -1.788384e+01
   4.883592e+01   6.055264e+01
  -9.873659e+01   7.533552e+01
  -2.308334e+02   6.855345e+00
  -2.185933e+02  -1.067255e+02
  -5.235243e+01  -2.097534e+02
   1.503231e+02  -2.202198e+02
   2.328726e+02  -1.056130e+02
   1.395880e+02   4.573104e+01
  -2.230921e+01   9.489287e+01
  -7.855815e+01   6.213219e+00
   2.800845e+01  -8.896574e+01
   1.646212e+02  -5.364786e+01
   1.754469e+02   8.443388e+01
   5.442093e+01   1.769780e+02
  -8.133877e+01   1.340731e+02
  -1.202839e+02   2.489103e+01
  -6.032944e+01  -3.678431e+01
   2.360083e+01  -5.402154e+00
   3.266648e+01   6.800342e+01
  -5.855899e+01   9.519199e+01
  -1.656009e+02   2.693256e+01
  -1.622081e+02  -1.020058e+02
  -1.862778e+01  -1.832602e+02
   1.384635e+02  -1.364690e+02
   1.628688e+02  -3.278099e+00
   5.356638e+01   9.754492e+01
  -5.566313e+01   9.233873e+01
  -6.998207e+01   2.441385e+01
  -1.676760e+01  -2.296886e+01
   1.691696e+01  -1.619692e+01
  -6.520597e+00   4.307067e+00
  -5.592446e+01  -6.920334e+00
  -7.120175e+01  -6.471342e+01
  -1.394648e+01  -1.266682e+02
   1.014235e+02  -1.246091e+02
   1.917842e+02  -2.293616e+01
   1.663445e+02   1.200224e+02
   3.452679e+01   1.959140e+02
  -9.111505e+01   1.386574e+02
  -1.094365e+02   2.104700e+01
  -5.460266e+01  -4.545091e+01
  -2.156374e+01  -2.629596e+01
  -4.291350e+01   1.164271e+01
  -6.478759e+01   7.564301e+00
  -3.366331e+01  -3.924215e+01
   3.260940e+01  -6.897753e+01
   8.012280e+01  -4.448900e+01
   6.684823e+01   2.605595e+01
  -1.077084e+01   8.756866e+01
  -1.122529e+02   7.035031e+01
  -1.586808e+02  -3.801840e+01
  -8.270578e+01  -1.623542e+02
   8.622838e+01  -1.873099e+02
   2.167697e+02  -7.880803e+01
   2.108967e+02   7.045811e+01
   8.818743e+01   1.476783e+02
  -3.405679e+01   1.227788e+02
  -8.229816e+01   6.899673e+01
  -6.832292e+01   5.402622e+01
  -5.652575e+01   7.001476e+01
  -7.510505e+01   5.681989e+01
  -1.025138e+02  -2.000877e+01
  -9.407655e+01  -1.268357e+02
  -2.405822e+01  -1.845122e+02
   8.157054e+01  -1.394129e+02
   1.460632e+02  -1.548740e+01
   1.137748e+02   9.894632e+01
   1.661987e+01   1.293830e+02
  -5.555059e+01   7.645361e+01
  -4.984155e+01   2.345387e+00
  -6.706480e+00  -3.423923e+01
   6.357786e+00  -2.991270e+01
  -2.806390e+01  -1.584874e+01
  -6.402274e+01  -1.810532e+01
  -3.452985e+01  -3.027116e+01
   5.112068e+01  -2.973088e+01
   1.269418e+02  -4.705906e+00
   1.149729e+02   3.994756e+01
   1.395008e+01   7.182639e+01
  -9.462559e+01   6.254636e+01
  -1.156626e+02   1.353083e+01
  -3.708596e+01  -3.257011e+01
   4.912914e+01  -3.035212e+01
   5.970011e+01   1.604177e+01
   4.222874e+00   5.570852e+01
  -4.535606e+01   4.555512e+01
  -4.927850e+01  -3.014092e+00
  -3.342738e+01  -4.006309e+01
  -3.417295e+01  -3.125482e+01
  -4.864605e+01   1.657301e+00
  -5.459641e+01   1.105390e+00
  -2.965174e+01  -5.476504e+01
   2.571909e+01  -1.169400e+02
   9.359183e+01  -1.142291e+02
   1.322075e+02  -2.651259e+01
   9.821586e+01   7.433856e+01
   4.350235e+00   1.028654e+02
  -7.072002e+01   5.015147e+01
  -4.870666e+01  -1.251684e+01
   4.911429e+01  -1.766996e+01
   1.114709e+02   3.382578e+01
   6.179745e+01   8.657544e+01
  -6.605770e+01   9.243859e+01
  -1.571951e+02   4.256401e+01
  -1.353931e+02  -2.821744e+01
  -3.178437e+01  -7.208370e+01
   5.081445e+01  -5.920547e+01
   4.050456e+01  -7.069218e+00
  -3.156925e+01   2.103343e+01
  -7.287141e+01  -2.042225e+01
  -2.523854e+01  -9.863916e+01
   7.732118e+01  -1.247196e+02
   1.383756e+02  -4.636602e+01
   1.028574e+02   8.600738e+01
   7.355703e+00   1.621242e+02
  -7.044151e+01   1.141032e+02
  -8.669367e+01  -8.474135e+00
  -5.056716e+01  -9.690225e+01
   1.107022e+00  -8.763381e+01
   3.723988e+01  -1.651741e+01
   4.190966e+01   2.577103e+01
   1.986629e+01   6.076720e+00
   3.822235e+00  -1.794442e+01
   2.023402e+01   1.041524e+01
   4.796793e+01   7.134591e+01
   3.437094e+01   8.900555e+01
  -4.035225e+01   3.711463e+01
  -1.140588e+02  -3.287401e+01
  -1.024862e+02  -5.796715e+01
  -1.100281e+01  -4.010513e+01
   7.212330e+01  -1.825650e+01
   7.137557e+01  -5.832690e+00
   8.591914e+00   5.229932e+00
  -3.090231e+01   1.778615e+01
  -1.094826e+01   1.537307e+01
   1.760973e+01  -4.942267e-01
  -4.175862e+00  -6.641821e+00
  -6.057293e+01  -3.317514e+00
  -7.416138e+01  -2.061188e+01
  -6.038667e+00  -6.463688e+01
   9.681169e+01  -9.000144e+01
   1.501981e+02  -4.459669e+01
   1.123810e+02   5.562893e+01
   1.873572e+01   1.292466e+02
  -6.491191e+01   1.182996e+02
  -9.113600e+01   4.555801e+01
  -6.445087e+01  -1.875604e+01
  -1.963053e+01  -2.877416e+01
   3.208233e+00  -6.969481e+00
  -7.210873e+00  -3.672775e+00
  -2.537758e+01  -3.718862e+01
  -1.834201e+01  -7.209802e+01
   2.280112e+01  -5.644739e+01
   6.599110e+01   1.688156e+01
   6.097687e+01   8.936415e+01
   2.222049e-01   8.955139e+01
  -6.855350e+01   1.483937e+01
  -8.081810e+01  -6.370924e+01
  -2.257110e+01  -8.298072e+01
   5.492335e+01  -4.280106e+01
   7.721138e+01   1.053900e+01
   3.006208e+01   4.012832e+01
  -2.534908e+01   4.034919e+01
  -2.268282e+01   2.166325e+01
   2.990091e+01  -3.173461e-02
   5.549460e+01  -3.568328e+00
   9.438617e+00   2.124732e+01
  -6.652858e+01   5.313629e+01
  -9.394471e+01   4.576455e+01
  -4.959060e+01  -1.150314e+01
   1.467393e+01  -6.756527e+01
   4.245746e+01  -6.173357e+01
   2.822910e+01  -2.562570e+00
  -6.259624e-01   4.435379e+01
  -2.042969e+01   3.282468e+01
  -2.782142e+01  -1.637985e+01
  -1.973046e+01  -4.246915e+01
   2.446265e+00  -2.364585e+01
   2.517360e+01   7.568987e+00
   3.033452e+01   1.484657e+01
   1.665206e+01  -5.408305e-01
   1.021494e-01  -1.026402e+01
  -6.804290e+00   4.109897e+00
  -7.983986e+00   2.922758e+01
  -1.525305e+01   3.351316e+01
  -2.513326e+01   3.958552e+00
  -2.185218e+01  -3.654347e+01
   3.284563e+00  -4.780812e+01
   3.622551e+01  -1.476910e+01
   4.414905e+01   3.300242e+01
   1.024738e+01   5.121726e+01
  -4.529039e+01   2.670288e+01
  -7.134856e+01  -1.246419e+01
  -3.821504e+01  -3.496586e+01
   2.264911e+01  -3.174114e+01
   5.070229e+01  -1.603274e+01
   1.795844e+01  -3.830144e+00
  -3.133053e+01  -2.813089e+00
  -2.909755e+01  -1.536680e+01
   2.726531e+01  -2.597148e+01
   7.519070e+01  -1.534123e+01
