
 $NMID
 id='ANONYMOUS ', fmtdat='(2E16.6)'
 volume=1.0
 tramp=1.0
 $END
   4.610887e+03   8.337064e+01
   2.522189e+03   2.834577e+03
  -9.283304e+02   2.866029e+03
  -2.341234e+03   7.887812e+02
  -9.504300e+02  -8.664911e+02
   8.466143e+02  -6.361500e+02
   1.008120e+03   5.491408e+02
  -5.257621e+01   1.203925e+03
  -9.690434e+02   8.177482e+02
  -1.031959e+03  -1.808195e+02
  -4.336632e+02  -9.802705e+02
   3.376885e+02  -9.810215e+02
   7.322454e+02  -8.229516e+01
   3.951306e+02   8.194525e+02
  -3.367532e+02   8.027275e+02
  -6.642858e+02  -4.839565e+01
  -2.469995e+02  -7.587285e+02
   4.047340e+02  -6.407985e+02
   6.233766e+02  -3.248532e+01
   3.813246e+02   4.242293e+02
  -2.560743e+01   4.673111e+02
  -2.841646e+02   2.597497e+02
  -2.512704e+02  -1.499249e+01
   1.148051e+02  -1.282278e+02
   4.436152e+02   9.948399e+01
   2.341901e+02   4.651884e+02
  -4.871443e+02   4.484221e+02
  -9.088423e+02  -9.468699e+01
  -4.487788e+02  -6.163608e+02
   4.371660e+02  -5.406138e+02
   8.067064e+02   4.674567e+01
   3.661671e+02   5.331634e+02
  -3.068884e+02   5.537311e+02
  -6.013081e+02   2.032781e+02
  -4.299142e+02  -2.606191e+02
  -5.406125e+01  -5.223881e+02
   2.432931e+02  -2.970334e+02
   2.054888e+02   2.591075e+02
  -1.861269e+02   4.974285e+02
  -5.093060e+02  -1.118844e+01
  -2.745807e+02  -7.446704e+02
   3.571124e+02  -7.757947e+02
   6.733485e+02   3.943848e+00
   2.811420e+02   6.244454e+02
  -3.337507e+02   3.599976e+02
  -4.288066e+02  -3.447302e+02
   6.813857e+01  -5.889435e+02
   5.930015e+02  -1.405730e+02
   6.211449e+02   4.414179e+02
   1.501289e+02   6.276484e+02
  -4.228282e+02   3.602755e+02
  -6.662567e+02  -9.572051e+01
  -3.764363e+02  -4.291965e+02
   1.904566e+02  -4.000615e+02
   4.870206e+02  -4.325146e+01
   2.423981e+02   2.370481e+02
  -1.525591e+02   1.231119e+02
  -1.657247e+02  -1.846361e+02
   1.866476e+02  -2.164689e+02
   3.778196e+02   9.255029e+01
   1.368100e+02   3.384819e+02
  -2.361248e+02   2.645769e+02
  -3.451677e+02   4.441145e+01
  -1.738535e+02  -1.016896e+02
   4.090718e+01  -2.123873e+02
   2.147163e+02  -3.066482e+02
   3.325163e+02  -2.181025e+02
   2.945070e+02   1.406971e+02
   7.508059e+01   4.481319e+02
  -1.435818e+02   3.845351e+02
  -1.456577e+02   8.766149e+01
  -1.942048e+01  -3.917157e+01
  -2.214567e+01   8.377055e+01
  -1.882874e+02   1.446075e+02
  -2.913689e+02  -4.435643e+01
  -1.734413e+02  -2.799367e+02
   7.422246e+01  -2.742189e+02
   2.393318e+02  -1.942997e+01
   2.071396e+02   2.469082e+02
  -1.006981e+01   3.117447e+02
  -2.820432e+02   1.262197e+02
  -3.820242e+02  -1.790519e+02
  -1.925169e+02  -3.749062e+02
   1.160721e+02  -3.226871e+02
   2.514037e+02  -1.093460e+02
   1.520844e+02   1.440630e+01
   8.643329e+01  -3.048868e+01
   2.245105e+02  -7.289337e+01
   4.071447e+02   5.481687e+01
   3.381968e+02   2.950954e+02
  -1.474914e+00   4.596432e+02
  -3.663168e+02   4.240214e+02
  -5.018647e+02   2.043703e+02
  -3.531970e+02  -1.054106e+02
  -5.850632e+01  -3.143651e+02
   1.496545e+02  -2.713650e+02
   1.048515e+02  -2.585254e+01
  -1.109488e+02   1.246729e+02
  -2.150831e+02  -4.424384e+00
  -5.402784e+01  -2.148697e+02
   1.814240e+02  -1.860033e+02
   1.999696e+02   7.331326e+01
  -2.009771e+01   2.137574e+02
  -2.084648e+02   3.931422e+01
  -1.673048e+02  -2.574325e+02
   4.309341e+01  -3.530937e+02
   2.348759e+02  -1.823760e+02
   3.158872e+02   7.433160e+01
   2.682319e+02   2.399390e+02
   9.249891e+01   2.616697e+02
  -1.155377e+02   1.613290e+02
  -1.884060e+02   1.886475e+01
  -6.695380e+01  -4.312675e+01
   7.507189e+01   2.959234e+01
   3.810446e+01   1.287703e+02
  -1.243857e+02   1.079473e+02
  -1.871731e+02  -9.340875e+00
  -6.495252e+01  -7.720427e+01
   7.962600e+01  -2.203076e+01
   5.840933e+01   6.807699e+01
  -1.168372e+02   8.235915e+01
  -2.721226e+02  -1.267620e+00
  -2.664447e+02  -1.331196e+02
  -6.653054e+01  -2.532124e+02
   1.826575e+02  -2.667871e+02
   2.947356e+02  -1.326136e+02
   1.825653e+02   5.688412e+01
  -2.353137e+01   1.197952e+02
  -9.849604e+01   1.124947e+01
   3.012077e+01  -1.064901e+02
   2.006192e+02  -6.198250e+01
   2.180192e+02   1.084935e+02
   6.899552e+01   2.158131e+02
  -9.880072e+01   1.648241e+02
  -1.483176e+02   3.175673e+01
  -7.706206e+01  -4.469345e+01
   1.953462e+01  -1.219356e+01
   3.458273e+01   7.331133e+01
  -6.552842e+01   1.090200e+02
  -1.915477e+02   3.028270e+01
  -1.902793e+02  -1.244682e+02
  -2.070635e+01  -2.259269e+02
   1.713034e+02  -1.697026e+02
   2.047951e+02  -5.409420e-01
   6.886730e+01   1.245456e+02
  -7.097711e+01   1.168257e+02
  -9.058958e+01   3.267516e+01
  -2.557501e+01  -2.643223e+01
   1.608358e+01  -2.031379e+01
  -8.853183e+00   3.224261e+00
  -6.405496e+01  -1.267707e+01
  -8.161614e+01  -7.917164e+01
  -1.544656e+01  -1.508877e+02
   1.220927e+02  -1.485635e+02
   2.318768e+02  -2.664726e+01
   2.050712e+02   1.515852e+02
   4.019615e+01   2.425565e+02
  -1.145736e+02   1.729400e+02
  -1.414548e+02   2.476403e+01
  -7.031477e+01  -6.104853e+01
  -2.677406e+01  -3.907649e+01
  -5.219100e+01   1.135864e+01
  -7.723154e+01   5.270882e+00
  -3.657250e+01  -4.794341e+01
   4.241635e+01  -8.065617e+01
   9.545289e+01  -4.950173e+01
   7.746746e+01   3.353455e+01
  -1.398024e+01   1.022734e+02
  -1.352706e+02   8.049494e+01
  -1.929671e+02  -4.975254e+01
  -1.016744e+02  -1.988127e+02
   1.042839e+02  -2.275132e+02
   2.676440e+02  -9.571642e+01
   2.598344e+02   8.995861e+01
   1.083192e+02   1.819927e+02
  -4.114466e+01   1.500653e+02
  -9.605718e+01   8.565823e+01
  -8.303799e+01   6.910577e+01
  -7.296056e+01   8.603082e+01
  -9.534980e+01   6.805615e+01
  -1.259096e+02  -2.535984e+01
  -1.128595e+02  -1.516094e+02
  -2.594325e+01  -2.239119e+02
   1.013234e+02  -1.725556e+02
   1.759773e+02  -2.171400e+01
   1.359122e+02   1.224540e+02
   1.864325e+01   1.609991e+02
  -6.638379e+01   9.395085e+01
  -6.009987e+01   3.580885e+00
  -8.161504e+00  -3.775508e+01
   4.324250e+00  -3.291322e+01
  -3.926705e+01  -2.256446e+01
  -7.585171e+01  -2.731675e+01
  -4.024734e+01  -3.776511e+01
   6.054946e+01  -3.381993e+01
   1.487695e+02  -2.112696e+00
   1.383759e+02   4.819430e+01
   1.914097e+01   8.418505e+01
  -1.158763e+02   7.075813e+01
  -1.430170e+02   1.209219e+01
  -4.939748e+01  -4.124765e+01
   6.084864e+01  -3.523908e+01
   7.402303e+01   2.117186e+01
   2.106437e+00   6.743562e+01
  -6.080091e+01   5.361829e+01
  -6.157382e+01  -6.155108e+00
  -3.832438e+01  -5.070117e+01
  -4.103197e+01  -4.134257e+01
  -6.303363e+01  -6.079713e+00
  -6.579535e+01  -3.942823e+00
  -2.959639e+01  -6.661152e+01
   3.824684e+01  -1.397334e+02
   1.137485e+02  -1.360411e+02
   1.583045e+02  -2.971392e+01
   1.188595e+02   9.102769e+01
   6.271478e+00   1.225414e+02
  -8.378494e+01   5.631032e+01
  -5.732396e+01  -1.879959e+01
   5.981886e+01  -1.826705e+01
   1.355207e+02   4.799311e+01
   7.308314e+01   1.088128e+02
  -8.091645e+01   1.076419e+02
  -1.872594e+02   4.685843e+01
  -1.591091e+02  -3.524694e+01
  -3.763672e+01  -8.545774e+01
   6.006793e+01  -6.903670e+01
   4.937651e+01  -7.547644e+00
  -3.785782e+01   2.396663e+01
  -8.874039e+01  -2.452725e+01
  -2.898984e+01  -1.170914e+02
   9.592524e+01  -1.484438e+02
   1.685062e+02  -5.633611e+01
   1.213222e+02   1.050319e+02
   2.798463e+00   1.971175e+02
  -8.951913e+01   1.431031e+02
  -1.031889e+02  -7.776495e+00
  -5.863670e+01  -1.192767e+02
  -3.510608e-01  -1.079157e+02
   4.453600e+01  -2.076752e+01
   5.364871e+01   3.257085e+01
   2.952800e+01   1.039467e+01
   4.093127e+00  -2.058313e+01
   1.706581e+01   1.347765e+01
   5.132915e+01   8.940174e+01
   4.216482e+01   1.110287e+02
  -4.522645e+01   4.534516e+01
  -1.368486e+02  -4.347180e+01
  -1.286467e+02  -7.461274e+01
  -1.650338e+01  -4.900960e+01
   8.980825e+01  -1.829160e+01
   8.837716e+01  -5.344081e+00
   1.031799e+01   7.745166e+00
  -3.946681e+01   2.240355e+01
  -1.342200e+01   1.973699e+01
   2.123378e+01   1.941950e-01
  -8.037723e+00  -1.033858e+01
  -7.599500e+01  -8.699788e+00
  -8.876430e+01  -2.725913e+01
  -2.496685e+00  -8.043832e+01
   1.223654e+02  -1.108222e+02
   1.847455e+02  -5.205326e+01
   1.347950e+02   7.405807e+01
   1.777358e+01   1.631301e+02
  -8.398086e+01   1.438623e+02
  -1.118160e+02   5.141015e+01
  -7.490433e+01  -2.503544e+01
  -2.211820e+01  -3.393786e+01
   3.170575e+00  -5.536103e+00
  -1.095017e+01  -1.072050e+00
  -3.331510e+01  -4.422254e+01
  -2.085727e+01  -9.022141e+01
   3.057966e+01  -7.175751e+01
   7.998636e+01   2.049790e+01
   7.255383e+01   1.096999e+02
  -5.238514e-01   1.091481e+02
  -8.307122e+01   1.749537e+01
  -9.777523e+01  -8.116378e+01
  -2.518844e+01  -1.015516e+02
   6.911696e+01  -4.823596e+01
   9.508955e+01   1.674960e+01
   3.494804e+01   4.843918e+01
  -3.363660e+01   4.615293e+01
  -2.926873e+01   2.734997e+01
   3.529280e+01   4.173538e+00
   6.849707e+01  -2.426008e+00
   1.268790e+01   2.406820e+01
  -8.040436e+01   6.220392e+01
  -1.130557e+02   5.659933e+01
  -5.932380e+01  -1.100754e+01
   2.106357e+01  -7.882874e+01
   5.507498e+01  -7.441077e+01
   3.332593e+01  -1.834448e+00
  -2.501489e+00   5.684438e+01
  -2.758510e+01   4.013161e+01
  -3.505102e+01  -2.169217e+01
  -2.475812e+01  -5.431763e+01
   3.700993e+00  -3.092354e+01
   3.233521e+01   1.028038e+01
   3.890008e+01   2.180532e+01
   2.079878e+01   4.871659e-01
   8.192293e-01  -1.293044e+01
  -7.048100e+00   4.692772e+00
  -9.470271e+00   3.654873e+01
  -2.080066e+01   4.131048e+01
  -3.260843e+01   2.729827e+00
  -2.539085e+01  -4.790405e+01
   8.849299e+00  -5.988340e+01
   4.650701e+01  -1.687853e+01
   5.350148e+01   4.214265e+01
   1.108025e+01   6.345322e+01
  -5.496291e+01   3.180313e+01
  -8.681823e+01  -1.878934e+01
  -4.740965e+01  -4.534922e+01
   2.904938e+01  -3.920087e+01
   6.366552e+01  -1.851301e+01
   2.267948e+01  -4.311706e+00
  -3.957482e+01  -5.922372e+00
  -3.736360e+01  -1.955771e+01
   3.473797e+01  -3.185490e+01
   9.598918e+01  -1.593672e+01
