
 $NMID
 id='ANONYMOUS ', fmtdat='(2E16.6)'
 volume=1.0
 tramp=1.0
 $END
  -4.485937e+03   3.661610e+01
  -2.583651e+03  -2.705474e+03
   8.212771e+02  -2.870472e+03
   2.283771e+03  -8.727675e+02
   9.713524e+02   8.005342e+02
  -7.950176e+02   6.283234e+02
  -9.814131e+02  -5.174382e+02
   3.173622e+01  -1.174917e+03
   9.370985e+02  -8.260032e+02
   1.025226e+03   1.502363e+02
   4.578920e+02   9.497945e+02
  -3.105775e+02   9.734431e+02
  -7.165242e+02   1.099725e+02
  -4.104889e+02  -7.952586e+02
   3.088731e+02  -8.003028e+02
   6.540930e+02   2.480175e+01
   2.668131e+02   7.378000e+02
  -3.794880e+02   6.454522e+02
  -6.159914e+02   5.575880e+01
  -3.838706e+02  -4.108647e+02
   1.473318e+01  -4.621413e+02
   2.740419e+02  -2.612822e+02
   2.454680e+02   2.955147e+00
  -1.118455e+02   1.187553e+02
  -4.352340e+02  -9.622486e+01
  -2.355271e+02  -4.503136e+02
   4.709631e+02  -4.470960e+02
   9.007565e+02   7.465432e+01
   4.645131e+02   5.877417e+02
  -4.147688e+02   5.371975e+02
  -7.945565e+02  -2.645558e+01
  -3.772295e+02  -5.170507e+02
   2.945220e+02  -5.549616e+02
   5.983238e+02  -2.165653e+02
   4.334160e+02   2.500157e+02
   5.671980e+01   5.160652e+02
  -2.295614e+02   2.972619e+02
  -2.026828e+02  -2.505768e+02
   1.738872e+02  -4.926759e+02
   4.961269e+02   5.710908e+00
   2.820891e+02   7.273414e+02
  -3.384833e+02   7.657851e+02
  -6.602350e+02   6.432405e+00
  -2.864884e+02  -6.130539e+02
   3.199964e+02  -3.596473e+02
   4.295517e+02   3.313314e+02
  -5.480629e+01   5.816609e+02
  -5.842594e+02   1.462528e+02
  -6.224827e+02  -4.309463e+02
  -1.568246e+02  -6.192516e+02
   4.147415e+02  -3.622663e+02
   6.621409e+02   8.228263e+01
   3.810781e+02   4.145982e+02
  -1.746547e+02   3.977714e+02
  -4.760171e+02   5.770892e+01
  -2.476015e+02  -2.223773e+02
   1.418032e+02  -1.233615e+02
   1.640882e+02   1.758890e+02
  -1.829377e+02   2.141474e+02
  -3.772757e+02  -8.307229e+01
  -1.418070e+02  -3.327194e+02
   2.268735e+02  -2.699846e+02
   3.440664e+02  -5.459956e+01
   1.801041e+02   1.002298e+02
  -3.670331e+01   2.135290e+02
  -2.104215e+02   3.075192e+02
  -3.332656e+02   2.193653e+02
  -2.967639e+02  -1.339356e+02
  -8.254775e+01  -4.426482e+02
   1.353066e+02  -3.877721e+02
   1.454349e+02  -9.566837e+01
   2.237598e+01   3.161555e+01
   2.540438e+01  -8.437616e+01
   1.887569e+02  -1.453088e+02
   2.935751e+02   4.098490e+01
   1.780526e+02   2.778770e+02
  -6.954722e+01   2.731296e+02
  -2.368930e+02   2.294002e+01
  -2.084786e+02  -2.416674e+02
   5.903595e+00  -3.082523e+02
   2.777658e+02  -1.282947e+02
   3.824327e+02   1.706724e+02
   1.995706e+02   3.701055e+02
  -1.069791e+02   3.262184e+02
  -2.457233e+02   1.178699e+02
  -1.554106e+02  -6.921960e+00
  -9.468560e+01   3.224884e+01
  -2.312420e+02   7.031625e+01
  -4.106363e+02  -5.540261e+01
  -3.434484e+02  -2.944030e+02
  -2.937271e+00  -4.642780e+02
   3.634987e+02  -4.316874e+02
   5.009842e+02  -2.107604e+02
   3.540388e+02   9.861377e+01
   6.259574e+01   3.112159e+02
  -1.419585e+02   2.696277e+02
  -9.982291e+01   2.820176e+01
   1.080802e+02  -1.231854e+02
   2.108545e+02   1.950195e+00
   5.511421e+01   2.092195e+02
  -1.771281e+02   1.839408e+02
  -1.959604e+02  -7.258648e+01
   2.074180e+01  -2.121618e+02
   2.091159e+02  -3.949134e+01
   1.715499e+02   2.563768e+02
  -3.561219e+01   3.546017e+02
  -2.318000e+02   1.899786e+02
  -3.213621e+02  -6.558608e+01
  -2.760828e+02  -2.347319e+02
  -9.776306e+01  -2.595639e+02
   1.127729e+02  -1.626062e+02
   1.848900e+02  -2.219550e+01
   6.406920e+01   3.831298e+01
  -7.644395e+01  -3.085984e+01
  -3.870700e+01  -1.286782e+02
   1.236087e+02  -1.093480e+02
   1.880926e+02   6.862064e+00
   6.559588e+01   7.511579e+01
  -8.033108e+01   2.159503e+01
  -5.883430e+01  -6.993952e+01
   1.200603e+02  -8.802018e+01
   2.781188e+02  -4.542794e+00
   2.710026e+02   1.351040e+02
   6.884189e+01   2.571493e+02
  -1.807186e+02   2.724495e+02
  -2.918369e+02   1.374335e+02
  -1.833961e+02  -5.264673e+01
   1.935889e+01  -1.188343e+02
   9.539597e+01  -1.250029e+01
  -2.949466e+01   1.054918e+02
  -1.989887e+02   6.283381e+01
  -2.178234e+02  -1.058859e+02
  -7.170838e+01  -2.142374e+02
   9.573636e+01  -1.651431e+02
   1.481215e+02  -3.349363e+01
   7.658240e+01   4.249980e+01
  -2.119243e+01   1.125145e+01
  -3.637578e+01  -7.500850e+01
   6.492343e+01  -1.121730e+02
   1.927836e+02  -3.403828e+01
   1.943969e+02   1.215334e+02
   2.554186e+01   2.256380e+02
  -1.677591e+02   1.724610e+02
  -2.035924e+02   4.442069e+00
  -7.022489e+01  -1.215030e+02
   6.875870e+01  -1.165319e+02
   8.974347e+01  -3.242019e+01
   2.452835e+01   2.614852e+01
  -1.624327e+01   2.044626e+01
   8.490284e+00  -3.913842e+00
   6.540115e+01   1.199382e+01
   8.304922e+01   7.923576e+01
   1.669902e+01   1.521826e+02
  -1.212991e+02   1.507986e+02
  -2.328688e+02   2.868789e+01
  -2.078485e+02  -1.507745e+02
  -4.373685e+01  -2.425558e+02
   1.124647e+02  -1.740748e+02
   1.421228e+02  -2.598793e+01
   7.215933e+01   5.961975e+01
   2.837480e+01   3.858849e+01
   5.181909e+01  -1.212949e+01
   7.742395e+01  -5.000571e+00
   3.748069e+01   4.977463e+01
  -4.255761e+01   8.352286e+01
  -9.784811e+01   5.125661e+01
  -8.050356e+01  -3.474564e+01
   1.252085e+01  -1.060892e+02
   1.354579e+02  -8.378406e+01
   1.947451e+02   4.729482e+01
   1.045224e+02   1.973690e+02
  -1.007616e+02   2.279152e+02
  -2.654037e+02   9.807074e+01
  -2.612334e+02  -8.566210e+01
  -1.115356e+02  -1.799009e+02
   3.866040e+01  -1.510006e+02
   9.508077e+01  -8.697581e+01
   8.201426e+01  -6.971493e+01
   7.065515e+01  -8.742522e+01
   9.477401e+01  -7.025657e+01
   1.273404e+02   2.349864e+01
   1.162194e+02   1.507470e+02
   2.948373e+01   2.244835e+02
  -9.949276e+01   1.749908e+02
  -1.765675e+02   2.361989e+01
  -1.382562e+02  -1.210267e+02
  -2.004997e+01  -1.615277e+02
   6.629321e+01  -9.486195e+01
   6.079852e+01  -3.356388e+00
   7.859322e+00   3.898774e+01
  -6.021437e+00   3.369603e+01
   3.833683e+01   2.132835e+01
   7.654093e+01   2.541030e+01
   4.118928e+01   3.765832e+01
  -6.088274e+01   3.537862e+01
  -1.504216e+02   3.675108e+00
  -1.396852e+02  -4.775837e+01
  -1.974429e+01  -8.520358e+01
   1.152011e+02  -7.312119e+01
   1.434444e+02  -1.458404e+01
   5.031502e+01   4.004011e+01
  -5.832018e+01   3.626405e+01
  -7.388222e+01  -1.966433e+01
  -4.001850e+00  -6.721556e+01
   5.840566e+01  -5.441493e+01
   6.183094e+01   4.823022e+00
   4.048565e+01   4.984281e+01
   4.180322e+01   4.076374e+01
   6.189336e+01   4.343186e+00
   6.580212e+01   1.886692e+00
   3.245444e+01   6.634143e+01
  -3.460593e+01   1.412546e+02
  -1.119623e+02   1.380352e+02
  -1.591800e+02   3.298869e+01
  -1.210954e+02  -8.859365e+01
  -8.213765e+00  -1.225736e+02
   8.305544e+01  -5.838951e+01
   5.702869e+01   1.742678e+01
  -6.069422e+01   1.926646e+01
  -1.363414e+02  -4.539971e+01
  -7.516451e+01  -1.074954e+02
   7.834259e+01  -1.095624e+02
   1.867010e+02  -5.093089e+01
   1.605651e+02   3.151832e+01
   3.960187e+01   8.448169e+01
  -5.800233e+01   7.059457e+01
  -4.868977e+01   8.395372e+00
   3.815463e+01  -2.463675e+01
   8.939209e+01   2.321163e+01
   3.092610e+01   1.168363e+02
  -9.282810e+01   1.508279e+02
  -1.677068e+02   6.075623e+01
  -1.246239e+02  -1.022399e+02
  -7.895197e+00  -1.976585e+02
   8.717806e+01  -1.441760e+02
   1.034677e+02   6.785063e+00
   5.970780e+01   1.185064e+02
   1.878818e-01   1.072439e+02
  -4.490677e+01   2.045512e+01
  -5.334345e+01  -3.123415e+01
  -2.868343e+01  -8.825134e+00
  -4.438865e+00   2.145059e+01
  -1.856915e+01  -1.314257e+01
  -5.330676e+01  -8.931133e+01
  -4.250595e+01  -1.109675e+02
   4.562370e+01  -4.617087e+01
   1.371354e+02   4.134036e+01
   1.294337e+02   7.286623e+01
   1.657350e+01   4.960719e+01
  -8.958558e+01   1.984511e+01
  -8.797439e+01   6.230092e+00
  -9.819144e+00  -8.075622e+00
   3.900549e+01  -2.222374e+01
   1.283134e+01  -1.939414e+01
  -2.141756e+01   3.103670e-01
   7.148693e+00   9.934808e+00
   7.507069e+01   6.275836e+00
   8.918958e+01   2.464622e+01
   4.968306e+00   7.893842e+01
  -1.189322e+02   1.132421e+02
  -1.829719e+02   5.605563e+01
  -1.372454e+02  -7.054948e+01
  -2.234219e+01  -1.634560e+02
   8.087194e+01  -1.474520e+02
   1.129570e+02  -5.473858e+01
   7.749041e+01   2.450567e+01
   2.340050e+01   3.483271e+01
  -3.186231e+00   5.896285e+00
   1.053305e+01   9.846695e-01
   3.368933e+01   4.374356e+01
   2.312526e+01   8.995435e+01
  -2.930396e+01   7.257545e+01
  -8.075225e+01  -1.807327e+01
  -7.534110e+01  -1.075872e+02
  -2.027053e+00  -1.098685e+02
   8.309788e+01  -2.034380e+01
   1.005134e+02   7.805182e+01
   2.832038e+01   1.020080e+02
  -6.825444e+01   5.139532e+01
  -9.641740e+01  -1.387874e+01
  -3.666596e+01  -4.829803e+01
   3.281434e+01  -4.810717e+01
   2.881287e+01  -2.820043e+01
  -3.564689e+01  -2.956513e+00
  -6.902015e+01   4.004923e+00
  -1.357716e+01  -2.439335e+01
   8.002136e+01  -6.429680e+01
   1.141135e+02  -5.856608e+01
   6.120379e+01   1.070683e+01
  -1.884885e+01   8.077054e+01
  -5.392955e+01   7.621204e+01
  -3.408151e+01   2.631536e+00
   9.715993e-01  -5.676443e+01
   2.682790e+01  -4.055098e+01
   3.559853e+01   2.091062e+01
   2.558971e+01   5.415119e+01
  -3.130559e+00   3.138088e+01
  -3.228078e+01  -9.555210e+00
  -3.948021e+01  -2.047946e+01
  -2.131315e+01   2.582849e-01
  -7.419726e-01   1.308567e+01
   7.033619e+00  -4.829473e+00
   8.511152e+00  -3.609285e+01
   1.959062e+01  -4.146032e+01
   3.266457e+01  -4.074509e+00
   2.743213e+01   4.650683e+01
  -6.556485e+00   5.953939e+01
  -4.568599e+01   1.780839e+01
  -5.355582e+01  -4.086975e+01
  -1.148759e+01  -6.261199e+01
   5.522808e+01  -3.194352e+01
   8.721453e+01   1.769720e+01
   4.803351e+01   4.480263e+01
  -2.866392e+01   3.955967e+01
  -6.340138e+01   1.959127e+01
  -2.275891e+01   4.654162e+00
   3.864558e+01   5.248042e+00
   3.767262e+01   1.847690e+01
  -3.324265e+01   3.260339e+01
  -9.480797e+01   1.761054e+01
