
 $NMID
 id='ANONYMOUS ', fmtdat='(2E16.6)'
 volume=1.0
 tramp=1.0
 $END
   4.400991e+03  -6.159576e+00
   2.487436e+03   2.687821e+03
  -8.592003e+02   2.775008e+03
  -2.196312e+03   8.137074e+02
  -9.166641e+02  -7.548779e+02
   7.761933e+02  -5.751686e+02
   9.117833e+02   4.917435e+02
  -6.372337e+01   1.102545e+03
  -9.197633e+02   7.739968e+02
  -9.732841e+02  -1.613459e+02
  -4.042174e+02  -9.263679e+02
   3.128575e+02  -9.201484e+02
   6.957899e+02  -7.841104e+01
   3.913541e+02   7.834617e+02
  -3.163643e+02   7.675604e+02
  -6.346613e+02  -3.637576e+01
  -2.571111e+02  -7.135836e+02
   3.609052e+02  -6.082137e+02
   5.917894e+02  -3.691543e+01
   3.588766e+02   3.796913e+02
  -2.000325e+01   4.236057e+02
  -2.629590e+02   2.307996e+02
  -2.188507e+02  -2.506634e+01
   1.310919e+02  -1.360019e+02
   4.500796e+02   9.231333e+01
   2.412558e+02   4.581659e+02
  -4.642650e+02   4.583442e+02
  -8.813298e+02  -6.505682e+01
  -4.371117e+02  -5.975987e+02
   4.227389e+02  -5.243898e+02
   7.826624e+02   3.901489e+01
   3.589340e+02   5.179698e+02
  -2.940196e+02   5.415379e+02
  -5.808899e+02   2.012088e+02
  -4.165085e+02  -2.521453e+02
  -5.454504e+01  -4.874552e+02
   2.300414e+02  -2.738775e+02
   1.927474e+02   2.572426e+02
  -1.774736e+02   4.709765e+02
  -4.837355e+02  -2.237850e+01
  -2.609838e+02  -7.129042e+02
   3.460205e+02  -7.171499e+02
   6.325350e+02   1.844990e+01
   2.563870e+02   5.927039e+02
  -3.260287e+02   3.403270e+02
  -4.093600e+02  -3.344693e+02
   6.657762e+01  -5.648399e+02
   5.726504e+02  -1.445880e+02
   6.027770e+02   3.995613e+02
   1.560449e+02   5.941020e+02
  -4.024658e+02   3.548060e+02
  -6.419933e+02  -8.658378e+01
  -3.600977e+02  -4.137953e+02
   1.833323e+02  -3.837554e+02
   4.624031e+02  -4.137634e+01
   2.271764e+02   2.280679e+02
  -1.482038e+02   1.118165e+02
  -1.572299e+02  -1.778520e+02
   1.812447e+02  -2.077601e+02
   3.663537e+02   8.179306e+01
   1.359790e+02   3.186740e+02
  -2.132136e+02   2.603917e+02
  -3.238588e+02   6.132951e+01
  -1.833775e+02  -9.211987e+01
   1.867347e+01  -2.186362e+02
   1.997358e+02  -3.233495e+02
   3.382988e+02  -2.235033e+02
   3.069591e+02   1.399310e+02
   8.462304e+01   4.397729e+02
  -1.315065e+02   3.744296e+02
  -1.368328e+02   8.549184e+01
  -9.836025e+00  -3.103370e+01
  -1.502111e+01   9.198819e+01
  -1.830680e+02   1.524728e+02
  -2.928318e+02  -3.366876e+01
  -1.805011e+02  -2.709030e+02
   6.178733e+01  -2.706475e+02
   2.336454e+02  -2.454329e+01
   2.092547e+02   2.355821e+02
  -7.433631e+00   2.988191e+02
  -2.755781e+02   1.207425e+02
  -3.708934e+02  -1.677283e+02
  -1.831526e+02  -3.567696e+02
   1.111372e+02  -3.083615e+02
   2.334184e+02  -1.147632e+02
   1.475935e+02   6.540038e+00
   9.396797e+01  -3.119904e+01
   2.224206e+02  -6.271025e+01
   3.927538e+02   5.041457e+01
   3.337176e+02   2.755514e+02
   9.168927e+00   4.469570e+02
  -3.392821e+02   4.265247e+02
  -4.787394e+02   2.140281e+02
  -3.483401e+02  -9.656929e+01
  -6.440535e+01  -3.066215e+02
   1.379439e+02  -2.622685e+02
   9.633028e+01  -2.051101e+01
  -1.045712e+02   1.227376e+02
  -2.045286e+02  -5.283428e+00
  -5.200787e+01  -2.026350e+02
   1.686770e+02  -1.741379e+02
   1.875741e+02   7.260150e+01
  -1.689223e+01   2.072571e+02
  -2.026283e+02   4.108353e+01
  -1.747429e+02  -2.456332e+02
   2.319374e+01  -3.468772e+02
   2.190562e+02  -1.937002e+02
   3.138786e+02   5.282965e+01
   2.739693e+02   2.191897e+02
   9.805266e+01   2.512562e+02
  -1.075464e+02   1.606735e+02
  -1.760376e+02   2.426265e+01
  -5.702053e+01  -3.523898e+01
   7.687766e+01   3.330705e+01
   3.594172e+01   1.275863e+02
  -1.227775e+02   1.097436e+02
  -1.838763e+02  -5.339563e+00
  -6.374879e+01  -7.454120e+01
   7.914624e+01  -2.417741e+01
   5.909823e+01   6.796421e+01
  -1.159945e+02   9.022410e+01
  -2.721925e+02   8.774657e+00
  -2.610986e+02  -1.333304e+02
  -6.882170e+01  -2.527561e+02
   1.740861e+02  -2.647379e+02
   2.813888e+02  -1.292231e+02
   1.755303e+02   5.681509e+01
  -2.091583e+01   1.177404e+02
  -9.493924e+01   9.823488e+00
   2.560134e+01  -1.048213e+02
   1.908714e+02  -6.399997e+01
   2.134833e+02   1.017987e+02
   6.895281e+01   2.090700e+02
  -9.425521e+01   1.597899e+02
  -1.463044e+02   2.918952e+01
  -7.268873e+01  -4.491391e+01
   2.652586e+01  -1.335345e+01
   4.263615e+01   7.438401e+01
  -5.973172e+01   1.137955e+02
  -1.888911e+02   3.824343e+01
  -1.917059e+02  -1.147633e+02
  -2.665670e+01  -2.167636e+02
   1.607065e+02  -1.659586e+02
   1.933861e+02  -3.859801e+00
   6.430721e+01   1.178301e+02
  -6.893227e+01   1.125962e+02
  -8.651393e+01   2.924422e+01
  -2.345643e+01  -2.874298e+01
   1.721042e+01  -2.435087e+01
  -6.748281e+00   2.232845e+00
  -6.161155e+01  -9.015044e+00
  -8.226057e+01  -7.246599e+01
  -1.844308e+01  -1.468735e+02
   1.164662e+02  -1.472024e+02
   2.254930e+02  -3.004330e+01
   1.991398e+02   1.464906e+02
   4.107433e+01   2.329439e+02
  -1.111016e+02   1.666934e+02
  -1.372387e+02   2.318707e+01
  -6.801109e+01  -5.755185e+01
  -2.460216e+01  -3.733573e+01
  -4.786374e+01   1.091380e+01
  -7.445198e+01   5.043004e+00
  -3.902426e+01  -4.667568e+01
   3.855778e+01  -8.220769e+01
   9.260619e+01  -5.388175e+01
   7.987146e+01   2.932540e+01
  -6.261302e+00   1.032251e+02
  -1.258745e+02   8.802976e+01
  -1.872668e+02  -3.798050e+01
  -1.064801e+02  -1.880232e+02
   9.027603e+01  -2.239820e+02
   2.520094e+02  -9.918997e+01
   2.523232e+02   7.784543e+01
   1.089494e+02   1.695579e+02
  -3.707434e+01   1.448133e+02
  -9.132148e+01   8.217933e+01
  -7.314515e+01   6.720136e+01
  -6.256380e+01   8.598020e+01
  -8.932042e+01   7.155559e+01
  -1.247654e+02  -1.979683e+01
  -1.151289e+02  -1.469371e+02
  -3.100006e+01  -2.163638e+02
   9.534387e+01  -1.684628e+02
   1.715399e+02  -2.271395e+01
   1.355773e+02   1.157936e+02
   2.089648e+01   1.555369e+02
  -6.429406e+01   9.196054e+01
  -5.943711e+01   2.998042e+00
  -7.323765e+00  -3.974092e+01
   7.139906e+00  -3.391123e+01
  -3.648011e+01  -1.901853e+01
  -7.426250e+01  -2.286062e+01
  -3.973405e+01  -3.714765e+01
   6.144777e+01  -3.838685e+01
   1.495061e+02  -5.249031e+00
   1.373615e+02   4.793895e+01
   1.980343e+01   8.584497e+01
  -1.121525e+02   7.577571e+01
  -1.390098e+02   1.765077e+01
  -5.023863e+01  -3.825091e+01
   5.490478e+01  -3.729805e+01
   7.201505e+01   1.693200e+01
   6.719311e+00   6.421239e+01
  -5.338551e+01   5.388946e+01
  -5.962184e+01  -2.923530e+00
  -4.047919e+01  -4.625951e+01
  -3.950550e+01  -3.639564e+01
  -5.675079e+01  -3.457298e-01
  -6.329037e+01   1.640776e+00
  -3.589613e+01  -6.217208e+01
   2.608840e+01  -1.377642e+02
   1.047905e+02  -1.369291e+02
   1.536923e+02  -3.826460e+01
   1.194597e+02   8.126190e+01
   1.063678e+01   1.183878e+02
  -7.879028e+01   5.889954e+01
  -5.494800e+01  -1.600377e+01
   5.812584e+01  -2.218814e+01
   1.334610e+02   4.041077e+01
   7.548733e+01   1.037405e+02
  -7.479006e+01   1.103074e+02
  -1.794437e+02   5.346983e+01
  -1.553054e+02  -2.868050e+01
  -3.795186e+01  -8.301529e+01
   5.613040e+01  -6.940397e+01
   4.844030e+01  -6.878505e+00
  -3.656115e+01   2.734454e+01
  -8.783298e+01  -2.017486e+01
  -3.217184e+01  -1.137426e+02
   8.764188e+01  -1.474732e+02
   1.591101e+02  -5.829202e+01
   1.195924e+02   9.757326e+01
   9.482107e+00   1.900635e+02
  -8.247558e+01   1.393364e+02
  -1.012935e+02  -5.569406e+00
  -6.120173e+01  -1.140855e+02
  -1.167480e+00  -1.036652e+02
   4.377828e+01  -2.111378e+01
   5.225410e+01   2.934649e+01
   2.628992e+01   8.833719e+00
   3.042552e+00  -2.059484e+01
   1.843513e+01   1.133249e+01
   5.475416e+01   8.348976e+01
   4.338582e+01   1.065278e+02
  -4.442997e+01   4.727872e+01
  -1.353617e+02  -3.568687e+01
  -1.280759e+02  -6.959702e+01
  -1.668260e+01  -4.959928e+01
   8.594236e+01  -2.145888e+01
   8.483325e+01  -7.626385e+00
   9.245901e+00   7.668116e+00
  -3.664467e+01   2.167294e+01
  -1.062178e+01   1.799365e+01
   2.236756e+01  -1.103626e+00
  -6.351247e+00  -7.828559e+00
  -7.419478e+01  -3.555076e+00
  -8.758127e+01  -2.200236e+01
  -7.008226e+00  -7.774882e+01
   1.137276e+02  -1.121914e+02
   1.769240e+02  -5.736019e+01
   1.340760e+02   6.563801e+01
   2.450103e+01   1.569884e+02
  -7.420816e+01   1.439953e+02
  -1.077440e+02   5.457292e+01
  -7.609829e+01  -2.326325e+01
  -2.365944e+01  -3.416653e+01
   2.975320e+00  -6.177618e+00
  -9.555381e+00  -9.540447e-01
  -3.315627e+01  -4.276083e+01
  -2.350886e+01  -8.688026e+01
   2.862511e+01  -6.962102e+01
   8.003517e+01   1.732052e+01
   7.509368e+01   1.030790e+02
   3.509075e+00   1.058951e+02
  -8.051541e+01   2.101290e+01
  -9.860096e+01  -7.309977e+01
  -2.947111e+01  -9.776208e+01
   6.378708e+01  -5.169754e+01
   9.248318e+01   1.071492e+01
   3.674403e+01   4.511673e+01
  -3.005330e+01   4.638663e+01
  -2.732172e+01   2.685282e+01
   3.465034e+01   2.246969e+00
   6.689395e+01  -4.621555e+00
   1.351248e+01   2.412803e+01
  -7.646793e+01   6.321995e+01
  -1.106741e+02   5.741637e+01
  -6.032872e+01  -8.781462e+00
   1.535125e+01  -7.879980e+01
   5.085194e+01  -7.608149e+01
   3.367435e+01  -4.146428e+00
  -1.574968e-01   5.432520e+01
  -2.615405e+01   3.941788e+01
  -3.525566e+01  -1.993434e+01
  -2.441260e+01  -5.265502e+01
   4.308003e+00  -3.043129e+01
   3.244905e+01   8.917618e+00
   3.854589e+01   1.927606e+01
   2.028037e+01  -7.714422e-01
  -1.397616e-01  -1.227458e+01
  -7.342689e+00   5.539363e+00
  -8.309032e+00   3.494296e+01
  -1.773458e+01   3.984071e+01
  -3.134021e+01   4.377405e+00
  -2.826202e+01  -4.388136e+01
   3.527620e+00  -5.715252e+01
   4.347596e+01  -1.837654e+01
   5.209303e+01   3.784679e+01
   1.222250e+01   5.939095e+01
  -5.223468e+01   3.259289e+01
  -8.426126e+01  -1.425306e+01
  -4.642322e+01  -4.116430e+01
   2.759789e+01  -3.775519e+01
   6.035443e+01  -2.003394e+01
   2.104488e+01  -4.875236e+00
  -3.746961e+01  -3.041571e+00
  -3.620916e+01  -1.672991e+01
   3.136215e+01  -3.064842e+01
   9.005972e+01  -1.765616e+01
