
 $NMID
 id='ANONYMOUS ', fmtdat='(2E16.6)'
 volume=1.0
 tramp=1.0
 $END
   4.517422e+03   1.896420e+02
   2.524315e+03   2.806490e+03
  -9.134969e+02   2.769652e+03
  -2.270126e+03   8.068582e+02
  -9.353088e+02  -7.794333e+02
   7.582368e+02  -6.089649e+02
   9.394706e+02   4.830544e+02
  -4.337441e+01   1.128331e+03
  -9.274511e+02   8.019151e+02
  -9.939378e+02  -1.461262e+02
  -4.424268e+02  -9.390740e+02
   3.191080e+02  -9.369824e+02
   6.970453e+02  -9.081739e+01
   3.767357e+02   7.901323e+02
  -3.294333e+02   7.890814e+02
  -6.576429e+02  -3.611869e+01
  -2.625833e+02  -7.414595e+02
   3.804757e+02  -6.521943e+02
   6.356951e+02  -5.842383e+01
   3.785275e+02   4.011130e+02
  -1.203883e+01   4.527768e+02
  -2.682113e+02   2.536830e+02
  -2.188878e+02  -1.255781e+01
   1.334065e+02  -1.077412e+02
   4.336225e+02   1.141981e+02
   2.159716e+02   4.658208e+02
  -4.812120e+02   4.281005e+02
  -8.883001e+02  -9.236684e+01
  -4.518346e+02  -5.883844e+02
   4.213568e+02  -5.166404e+02
   7.773367e+02   4.647230e+01
   3.491835e+02   5.136936e+02
  -3.033530e+02   5.355842e+02
  -5.888745e+02   1.947167e+02
  -4.214529e+02  -2.590837e+02
  -4.971788e+01  -5.123145e+02
   2.352183e+02  -2.913428e+02
   2.030141e+02   2.480942e+02
  -1.686447e+02   4.811357e+02
  -4.804791e+02  -9.285259e+00
  -2.576646e+02  -7.093515e+02
   3.474973e+02  -7.334929e+02
   6.423062e+02   2.780276e+00
   2.520182e+02   5.996793e+02
  -3.251646e+02   3.344080e+02
  -4.040955e+02  -3.465275e+02
   7.756658e+01  -5.794496e+02
   5.881605e+02  -1.374811e+02
   6.167096e+02   4.348833e+02
   1.532256e+02   6.203215e+02
  -4.127822e+02   3.595334e+02
  -6.580138e+02  -8.745953e+01
  -3.782283e+02  -4.181422e+02
   1.808303e+02  -3.910434e+02
   4.758690e+02  -5.098060e+01
   2.445003e+02   2.236220e+02
  -1.372429e+02   1.194662e+02
  -1.568588e+02  -1.747691e+02
   1.778375e+02  -2.091367e+02
   3.597576e+02   7.796987e+01
   1.329504e+02   3.169539e+02
  -2.196542e+02   2.588075e+02
  -3.313765e+02   4.997192e+01
  -1.838310e+02  -1.022686e+02
   3.647410e+01  -2.196515e+02
   2.247569e+02  -3.121171e+02
   3.495219e+02  -2.086469e+02
   3.045250e+02   1.522745e+02
   7.348882e+01   4.553645e+02
  -1.349181e+02   3.916117e+02
  -1.394929e+02   9.903936e+01
  -2.571549e+01  -2.699036e+01
  -3.470541e+01   8.324106e+01
  -1.947032e+02   1.320181e+02
  -2.891429e+02  -5.528153e+01
  -1.661261e+02  -2.802487e+02
   7.812161e+01  -2.694507e+02
   2.407373e+02  -1.604785e+01
   2.081575e+02   2.443872e+02
  -8.604050e+00   3.053565e+02
  -2.770973e+02   1.240651e+02
  -3.696803e+02  -1.711232e+02
  -1.882729e+02  -3.650605e+02
   1.073790e+02  -3.152053e+02
   2.391165e+02  -1.113372e+02
   1.512803e+02   5.908270e+00
   9.544283e+01  -3.543040e+01
   2.318481e+02  -6.980868e+01
   4.031895e+02   6.045859e+01
   3.315695e+02   2.932714e+02
  -1.674660e+00   4.421293e+02
  -3.600015e+02   4.112358e+02
  -4.886099e+02   1.959730e+02
  -3.456118e+02  -1.024298e+02
  -5.256837e+01  -3.058787e+02
   1.472558e+02  -2.634524e+02
   9.979112e+01  -2.257952e+01
  -1.141864e+02   1.215628e+02
  -2.122379e+02  -9.393929e+00
  -5.287616e+01  -2.119823e+02
   1.745448e+02  -1.837766e+02
   1.946845e+02   6.846364e+01
  -1.845399e+01   2.043957e+02
  -2.037497e+02   3.282208e+01
  -1.642759e+02  -2.569971e+02
   3.909704e+01  -3.530537e+02
   2.359435e+02  -1.871092e+02
   3.234365e+02   7.042143e+01
   2.756683e+02   2.450735e+02
   9.313983e+01   2.717052e+02
  -1.218779e+02   1.658310e+02
  -1.899330e+02   1.738444e+01
  -6.512287e+01  -4.025919e+01
   7.319523e+01   3.506766e+01
   3.164380e+01   1.288480e+02
  -1.287739e+02   1.018550e+02
  -1.867935e+02  -1.513668e+01
  -6.140532e+01  -8.049073e+01
   8.121121e+01  -2.420604e+01
   5.944790e+01   6.732520e+01
  -1.150904e+02   8.155373e+01
  -2.709352e+02  -2.626840e+00
  -2.559651e+02  -1.346792e+02
  -6.045513e+01  -2.519712e+02
   1.829117e+02  -2.573355e+02
   2.871093e+02  -1.242353e+02
   1.742497e+02   5.750308e+01
  -2.760884e+01   1.147867e+02
  -9.756506e+01   7.999049e+00
   2.923548e+01  -1.065842e+02
   1.998659e+02  -6.058564e+01
   2.202592e+02   1.079404e+02
   6.975341e+01   2.147362e+02
  -9.929307e+01   1.631277e+02
  -1.469930e+02   3.119399e+01
  -7.496867e+01  -4.440000e+01
   2.362167e+01  -8.858103e+00
   3.651823e+01   7.808409e+01
  -6.802794e+01   1.116800e+02
  -1.946208e+02   3.059415e+01
  -1.904553e+02  -1.254882e+02
  -2.049396e+01  -2.246108e+02
   1.686323e+02  -1.677916e+02
   2.001005e+02  -1.400781e+00
   6.714710e+01   1.221093e+02
  -7.014765e+01   1.150618e+02
  -8.886976e+01   2.985143e+01
  -2.272010e+01  -2.700647e+01
   1.971483e+01  -1.985391e+01
  -7.577981e+00   5.354214e+00
  -6.640067e+01  -1.021488e+01
  -8.659170e+01  -7.918590e+01
  -1.713337e+01  -1.540876e+02
   1.248225e+02  -1.502143e+02
   2.326264e+02  -2.383079e+01
   1.995308e+02   1.501137e+02
   3.686854e+01   2.386032e+02
  -1.151986e+02   1.670805e+02
  -1.393694e+02   2.256507e+01
  -6.822069e+01  -6.056419e+01
  -2.463449e+01  -3.925276e+01
  -5.004972e+01   9.630433e+00
  -7.530382e+01   5.598261e+00
  -3.734762e+01  -4.656157e+01
   4.223478e+01  -8.060588e+01
   9.589047e+01  -5.063408e+01
   7.911197e+01   3.377560e+01
  -1.342138e+01   1.040348e+02
  -1.381793e+02   8.198274e+01
  -1.948150e+02  -5.096350e+01
  -9.878999e+01  -2.012898e+02
   1.087849e+02  -2.302684e+02
   2.698218e+02  -9.553997e+01
   2.592822e+02   8.913991e+01
   1.097029e+02   1.822943e+02
  -4.104990e+01   1.513937e+02
  -9.801205e+01   8.682448e+01
  -8.418518e+01   6.652659e+01
  -7.178723e+01   8.601326e+01
  -9.577555e+01   6.923940e+01
  -1.300872e+02  -2.602398e+01
  -1.171459e+02  -1.572869e+02
  -2.557553e+01  -2.296283e+02
   1.048297e+02  -1.731782e+02
   1.801264e+02  -2.001650e+01
   1.372276e+02   1.232726e+02
   1.772233e+01   1.592268e+02
  -6.580067e+01   9.078225e+01
  -5.880377e+01   1.170385e+00
  -6.083984e+00  -3.852644e+01
   8.090759e+00  -3.134807e+01
  -3.472780e+01  -1.889506e+01
  -7.495861e+01  -2.474684e+01
  -4.129448e+01  -3.791050e+01
   6.134808e+01  -3.515291e+01
   1.529986e+02  -4.566123e-01
   1.389746e+02   5.259667e+01
   1.538057e+01   8.907044e+01
  -1.196658e+02   7.207018e+01
  -1.448036e+02   1.227343e+01
  -4.907321e+01  -4.316186e+01
   6.017599e+01  -3.677697e+01
   7.522830e+01   2.039296e+01
   5.355574e+00   6.797008e+01
  -5.925892e+01   5.413290e+01
  -6.389896e+01  -6.063919e+00
  -4.134451e+01  -5.154499e+01
  -3.863120e+01  -4.227580e+01
  -5.635876e+01  -3.030715e+00
  -6.357432e+01  -1.018486e+00
  -3.356681e+01  -6.602594e+01
   3.387309e+01  -1.431883e+02
   1.146272e+02  -1.393558e+02
   1.609632e+02  -3.054179e+01
   1.213536e+02   9.189315e+01
   7.159131e+00   1.248436e+02
  -8.408629e+01   5.925987e+01
  -5.879258e+01  -1.689963e+01
   5.702482e+01  -1.964730e+01
   1.329932e+02   4.505035e+01
   7.343035e+01   1.075559e+02
  -8.213641e+01   1.091003e+02
  -1.896839e+02   4.858223e+01
  -1.621412e+02  -3.605730e+01
  -3.721482e+01  -8.818558e+01
   6.192684e+01  -7.047004e+01
   5.033056e+01  -7.938973e+00
  -3.809074e+01   2.512814e+01
  -9.057851e+01  -2.408590e+01
  -3.096190e+01  -1.181620e+02
   9.457209e+01  -1.517941e+02
   1.707104e+02  -5.864050e+01
   1.260759e+02   1.039784e+02
   5.702118e+00   1.998119e+02
  -9.218784e+01   1.445443e+02
  -1.068406e+02  -9.163514e+00
  -5.918590e+01  -1.214942e+02
   2.663536e+00  -1.084070e+02
   4.627625e+01  -1.994522e+01
   5.156427e+01   3.359467e+01
   2.557755e+01   1.046477e+01
   3.849183e+00  -2.106467e+01
   1.993933e+01   1.291409e+01
   5.295488e+01   8.823293e+01
   3.963550e+01   1.121611e+02
  -4.899700e+01   4.595723e+01
  -1.393663e+02  -4.243438e+01
  -1.298079e+02  -7.679022e+01
  -1.535994e+01  -5.217205e+01
   9.092684e+01  -1.967660e+01
   8.995346e+01  -4.006227e+00
   1.009324e+01   8.620186e+00
  -4.010929e+01   2.149902e+01
  -1.487557e+01   1.822378e+01
   2.159455e+01  -1.276336e+00
  -6.066441e+00  -9.524302e+00
  -7.436104e+01  -8.095005e+00
  -8.934662e+01  -2.659452e+01
  -3.290968e+00  -8.039054e+01
   1.223646e+02  -1.103070e+02
   1.834917e+02  -5.175390e+01
   1.348762e+02   7.215656e+01
   1.952358e+01   1.608209e+02
  -8.151974e+01   1.452978e+02
  -1.116547e+02   5.400007e+01
  -7.701336e+01  -2.401781e+01
  -2.266928e+01  -3.539456e+01
   3.109713e+00  -6.621903e+00
  -1.073384e+01  -1.050447e+00
  -3.372688e+01  -4.445780e+01
  -2.136907e+01  -9.003684e+01
   3.034211e+01  -7.094029e+01
   8.159499e+01   2.026823e+01
   7.314072e+01   1.096262e+02
  -1.320030e+00   1.108935e+02
  -8.521530e+01   1.883531e+01
  -9.986870e+01  -8.132553e+01
  -2.692114e+01  -1.037813e+02
   6.935719e+01  -5.144538e+01
   9.692680e+01   1.511059e+01
   3.795397e+01   4.947386e+01
  -3.258278e+01   4.802216e+01
  -3.010603e+01   2.777854e+01
   3.413603e+01   3.206996e+00
   6.859860e+01  -2.468976e+00
   1.339038e+01   2.598705e+01
  -7.992717e+01   6.404623e+01
  -1.141997e+02   5.675477e+01
  -6.202074e+01  -1.234762e+01
   1.769622e+01  -8.100269e+01
   5.480817e+01  -7.617275e+01
   3.536223e+01  -3.213746e+00
  -7.567408e-01   5.630355e+01
  -2.732433e+01   4.111807e+01
  -3.636151e+01  -2.087845e+01
  -2.488647e+01  -5.554677e+01
   5.133153e+00  -3.232044e+01
   3.374177e+01   9.914869e+00
   3.852171e+01   2.257817e+01
   1.943994e+01   1.299468e+00
  -2.140345e-01  -1.316275e+01
  -6.585906e+00   4.437406e+00
  -9.317865e+00   3.689611e+01
  -2.086042e+01   4.251028e+01
  -3.345692e+01   4.015651e+00
  -2.709819e+01  -4.758960e+01
   6.787195e+00  -6.071901e+01
   4.636492e+01  -1.897011e+01
   5.529834e+01   4.126611e+01
   1.315400e+01   6.431142e+01
  -5.489474e+01   3.345475e+01
  -8.769964e+01  -1.698688e+01
  -4.773828e+01  -4.617536e+01
   2.906285e+01  -4.013648e+01
   6.423481e+01  -1.927414e+01
   2.312260e+01  -3.523415e+00
  -3.778974e+01  -4.251841e+00
  -3.684787e+01  -1.855372e+01
   3.254275e+01  -3.164999e+01
   9.317897e+01  -1.717392e+01
