
 $NMID
 id='ANONYMOUS ', fmtdat='(2E16.6)'
 volume=1.0
 tramp=1.0
 $END
   3.699647e+03   2.699995e+02
   1.965852e+03   2.371694e+03
  -8.183353e+02   2.161461e+03
  -1.826926e+03   6.070230e+02
  -6.949900e+02  -6.127456e+02
   6.415017e+02  -4.253711e+02
   7.173395e+02   4.281659e+02
  -9.122140e+01   8.992353e+02
  -7.645829e+02   5.976272e+02
  -7.626812e+02  -1.583646e+02
  -2.911343e+02  -7.542146e+02
   2.704434e+02  -7.227684e+02
   5.461485e+02  -3.035679e+01
   2.734114e+02   6.478953e+02
  -2.795272e+02   6.112718e+02
  -5.028889e+02  -4.803643e+01
  -1.804521e+02  -5.787912e+02
   3.076395e+02  -4.837152e+02
   4.666507e+02  -3.083485e+01
   2.785901e+02   3.135734e+02
  -2.306583e+01   3.439925e+02
  -2.128557e+02   1.891374e+02
  -1.636210e+02  -1.484560e+01
   1.193378e+02  -8.141519e+01
   3.576388e+02   1.071414e+02
   1.703409e+02   3.888457e+02
  -4.038026e+02   3.458230e+02
  -7.188824e+02  -8.249074e+01
  -3.383889e+02  -4.849035e+02
   3.581300e+02  -4.055114e+02
   6.295543e+02   4.562873e+01
   2.728001e+02   4.096294e+02
  -2.482999e+02   4.196132e+02
  -4.680124e+02   1.517497e+02
  -3.269206e+02  -2.028368e+02
  -3.719440e+01  -3.918069e+02
   1.814052e+02  -2.100734e+02
   1.396253e+02   2.146155e+02
  -1.562584e+02   3.786581e+02
  -3.863912e+02  -3.002608e+01
  -1.927388e+02  -5.774549e+02
   2.890724e+02  -5.747955e+02
   5.133550e+02   2.235424e+01
   1.874570e+02   4.813092e+02
  -2.737639e+02   2.535059e+02
  -3.168876e+02  -2.953346e+02
   7.394152e+01  -4.630457e+02
   4.739307e+02  -9.683142e+01
   4.851728e+02   3.456601e+02
   1.158270e+02   4.854767e+02
  -3.342361e+02   2.721812e+02
  -5.165989e+02  -8.335434e+01
  -2.815935e+02  -3.399230e+02
   1.614871e+02  -3.016021e+02
   3.858120e+02  -2.507943e+01
   1.928637e+02   1.881459e+02
  -1.158356e+02   9.044559e+01
  -1.191583e+02  -1.442367e+02
   1.507242e+02  -1.610503e+02
   2.833456e+02   7.428163e+01
   9.739703e+01   2.523573e+02
  -1.744458e+02   1.990232e+02
  -2.570911e+02   4.196522e+01
  -1.436147e+02  -6.828837e+01
   2.257483e+01  -1.707913e+02
   1.679937e+02  -2.537163e+02
   2.751011e+02  -1.807287e+02
   2.395105e+02   1.097895e+02
   6.234054e+01   3.613069e+02
  -1.023681e+02   3.161065e+02
  -1.067864e+02   7.771879e+01
  -9.797837e+00  -2.233565e+01
  -2.142867e+01   7.268649e+01
  -1.553947e+02   1.123733e+02
  -2.332020e+02  -4.049286e+01
  -1.333364e+02  -2.239000e+02
   6.026779e+01  -2.155559e+02
   1.928268e+02  -9.186860e+00
   1.673893e+02   2.001165e+02
  -1.008086e+01   2.457076e+02
  -2.218303e+02   9.539666e+01
  -2.900767e+02  -1.384431e+02
  -1.439386e+02  -2.858341e+02
   8.750875e+01  -2.365646e+02
   1.823318e+02  -8.276014e+01
   1.114131e+02   4.916311e+00
   7.349951e+01  -3.010507e+01
   1.840857e+02  -5.511919e+01
   3.192523e+02   4.700197e+01
   2.624523e+02   2.272676e+02
  -4.295818e+00   3.441343e+02
  -2.812637e+02   3.245322e+02
  -3.814152e+02   1.582942e+02
  -2.663866e+02  -8.142281e+01
  -3.499232e+01  -2.405241e+02
   1.201628e+02  -2.043661e+02
   7.394087e+01  -1.373341e+01
  -9.496183e+01   1.020599e+02
  -1.708585e+02  -5.665832e+00
  -3.860685e+01  -1.685463e+02
   1.410417e+02  -1.440165e+02
   1.518546e+02   5.836280e+01
  -1.734691e+01   1.637250e+02
  -1.595101e+02   2.664320e+01
  -1.284598e+02  -2.018749e+02
   2.804091e+01  -2.776246e+02
   1.778237e+02  -1.470352e+02
   2.509551e+02   5.373113e+01
   2.216817e+02   1.864040e+02
   7.999147e+01   2.115979e+02
  -9.356769e+01   1.305249e+02
  -1.490043e+02   1.518783e+01
  -4.933794e+01  -2.795160e+01
   5.938921e+01   3.136600e+01
   2.516231e+01   1.033249e+02
  -1.023385e+02   8.109882e+01
  -1.473688e+02  -1.077275e+01
  -4.815064e+01  -6.211083e+01
   6.499120e+01  -1.976697e+01
   4.780301e+01   5.087691e+01
  -8.913767e+01   6.475575e+01
  -2.151457e+02   4.003575e+00
  -2.017161e+02  -1.001709e+02
  -5.087084e+01  -1.962385e+02
   1.414981e+02  -2.044947e+02
   2.250816e+02  -9.822466e+01
   1.351735e+02   4.415866e+01
  -2.512821e+01   9.019118e+01
  -7.893941e+01   5.110102e+00
   2.280425e+01  -8.502168e+01
   1.595542e+02  -4.964408e+01
   1.738992e+02   8.281727e+01
   5.394451e+01   1.661503e+02
  -7.840302e+01   1.256286e+02
  -1.160543e+02   2.297330e+01
  -5.926705e+01  -3.563129e+01
   1.990562e+01  -7.994815e+00
   3.309111e+01   5.963275e+01
  -4.989803e+01   8.812272e+01
  -1.525057e+02   2.672777e+01
  -1.509241e+02  -9.441006e+01
  -1.766164e+01  -1.732120e+02
   1.306322e+02  -1.323534e+02
   1.542815e+02  -2.716830e+00
   5.022738e+01   9.479850e+01
  -5.569345e+01   8.977806e+01
  -6.884264e+01   2.319037e+01
  -1.798233e+01  -2.240049e+01
   1.513279e+01  -1.800821e+01
  -5.490552e+00   1.879821e+00
  -4.874705e+01  -8.404297e+00
  -6.559736e+01  -5.924836e+01
  -1.413447e+01  -1.171288e+02
   9.533602e+01  -1.170205e+02
   1.802756e+02  -2.068302e+01
   1.540640e+02   1.155211e+02
   3.028199e+01   1.860308e+02
  -8.698040e+01   1.314754e+02
  -1.056979e+02   1.848337e+01
  -5.224804e+01  -4.612396e+01
  -2.004529e+01  -2.946229e+01
  -4.039627e+01   8.584130e+00
  -5.953789e+01   6.437694e+00
  -2.919427e+01  -3.365489e+01
   3.205586e+01  -6.252613e+01
   7.309225e+01  -4.146497e+01
   6.176901e+01   2.405269e+01
  -8.513552e+00   8.213467e+01
  -1.072069e+02   6.919689e+01
  -1.557901e+02  -3.653480e+01
  -8.328799e+01  -1.598199e+02
   8.210267e+01  -1.854741e+02
   2.154720e+02  -7.848868e+01
   2.077226e+02   6.814258e+01
   8.648312e+01   1.420335e+02
  -3.271132e+01   1.189738e+02
  -7.742521e+01   6.977316e+01
  -6.598431e+01   5.574715e+01
  -5.494341e+01   6.894664e+01
  -7.282000e+01   5.446220e+01
  -1.008558e+02  -1.959881e+01
  -9.168085e+01  -1.246990e+02
  -2.140511e+01  -1.807360e+02
   7.944507e+01  -1.365171e+02
   1.403398e+02  -1.666801e+01
   1.083945e+02   9.497137e+01
   1.643632e+01   1.243701e+02
  -4.931420e+01   7.227050e+01
  -4.467908e+01   2.318550e+00
  -5.056845e+00  -3.065267e+01
   5.475379e+00  -2.650957e+01
  -2.819023e+01  -1.580370e+01
  -5.915647e+01  -1.836324e+01
  -3.354699e+01  -2.750437e+01
   4.744376e+01  -2.705325e+01
   1.222148e+02  -2.548097e+00
   1.136105e+02   3.783783e+01
   1.564556e+01   6.767392e+01
  -9.444944e+01   5.718593e+01
  -1.163099e+02   1.344438e+01
  -4.069462e+01  -2.855130e+01
   4.629023e+01  -2.647936e+01
   5.867424e+01   1.390369e+01
   3.649170e+00   5.043190e+01
  -4.570568e+01   4.073582e+01
  -4.874450e+01  -3.512733e+00
  -3.148611e+01  -3.811319e+01
  -3.131872e+01  -3.061669e+01
  -4.766409e+01  -1.020551e+00
  -5.230722e+01  -1.443234e+00
  -2.596133e+01  -5.214052e+01
   2.849450e+01  -1.115754e+02
   9.173094e+01  -1.086419e+02
   1.259261e+02  -2.533555e+01
   9.443042e+01   6.935518e+01
   5.986247e+00   9.650127e+01
  -6.516449e+01   4.696357e+01
  -4.473792e+01  -1.128621e+01
   4.651731e+01  -1.433649e+01
   1.073458e+02   3.406574e+01
   5.982193e+01   8.279236e+01
  -6.394986e+01   8.597582e+01
  -1.488298e+02   4.104895e+01
  -1.279900e+02  -2.567339e+01
  -2.932739e+01  -6.847007e+01
   4.888177e+01  -5.599624e+01
   4.064942e+01  -6.804528e+00
  -2.901688e+01   1.962898e+01
  -7.048401e+01  -1.838046e+01
  -2.389331e+01  -9.144929e+01
   7.467366e+01  -1.176385e+02
   1.329381e+02  -4.573457e+01
   9.820658e+01   7.941940e+01
   5.816565e+00   1.562887e+02
  -6.947074e+01   1.173511e+02
  -8.275614e+01  -3.441373e+00
  -4.877245e+01  -9.433755e+01
  -1.154456e+00  -8.616217e+01
   3.526098e+01  -1.731740e+01
   4.220949e+01   2.524677e+01
   2.182882e+01   7.780899e+00
   2.832397e+00  -1.753898e+01
   1.478444e+01   1.052656e+01
   4.190749e+01   7.062822e+01
   3.367590e+01   8.927582e+01
  -3.726441e+01   3.508725e+01
  -1.090715e+02  -3.465861e+01
  -1.030839e+02  -5.803628e+01
  -1.225668e+01  -3.648738e+01
   7.074901e+01  -1.346500e+01
   6.871613e+01  -5.057760e+00
   6.659870e+00   3.983754e+00
  -3.086202e+01   1.625374e+01
  -9.905321e+00   1.561987e+01
   1.757081e+01  -2.023367e-01
  -5.024183e+00  -8.288978e+00
  -5.829883e+01  -7.051101e+00
  -6.882975e+01  -1.985664e+01
  -2.080341e+00  -5.928676e+01
   9.404677e+01  -8.359328e+01
   1.408565e+02  -4.125992e+01
   1.034387e+02   5.377738e+01
   1.490438e+01   1.231172e+02
  -6.317641e+01   1.121658e+02
  -8.577132e+01   4.273204e+01
  -5.975771e+01  -1.685199e+01
  -1.755990e+01  -2.645737e+01
   2.600587e+00  -5.495233e+00
  -8.340679e+00  -2.120984e+00
  -2.634027e+01  -3.540092e+01
  -1.766756e+01  -6.975049e+01
   2.235581e+01  -5.393087e+01
   6.144551e+01   1.569893e+01
   5.691924e+01   8.505635e+01
  -9.252707e-02   8.525849e+01
  -6.516162e+01   1.346480e+01
  -7.691788e+01  -6.326795e+01
  -2.180680e+01  -7.990273e+01
   5.251672e+01  -3.956772e+01
   7.432327e+01   1.094317e+01
   2.950838e+01   3.641805e+01
  -2.441436e+01   3.618729e+01
  -2.161873e+01   2.252500e+01
   2.903283e+01   4.756918e+00
   5.435834e+01  -1.805125e+00
   9.746442e+00   1.880198e+01
  -6.427889e+01   5.110449e+01
  -9.064004e+01   4.818720e+01
  -4.895937e+01  -6.193617e+00
   1.270620e+01  -6.317003e+01
   4.063528e+01  -6.175181e+01
   2.629437e+01  -4.705078e+00
  -3.838317e-01   4.272217e+01
  -1.972857e+01   3.194690e+01
  -2.732930e+01  -1.611092e+01
  -2.003171e+01  -4.265762e+01
   2.792175e+00  -2.469317e+01
   2.607766e+01   7.481370e+00
   3.179097e+01   1.695731e+01
   1.656496e+01   1.246023e+00
  -7.304452e-01  -8.577352e+00
  -7.900188e+00   4.970449e+00
  -1.069888e+01   2.796756e+01
  -1.729777e+01   3.064430e+01
  -2.450694e+01   7.987544e-01
  -1.868757e+01  -3.773709e+01
   7.016035e+00  -4.680006e+01
   3.609980e+01  -1.366252e+01
   4.259589e+01   3.311986e+01
   9.890187e+00   4.907301e+01
  -4.253450e+01   2.487148e+01
  -6.792851e+01  -1.396114e+01
  -3.652065e+01  -3.452502e+01
   2.301761e+01  -2.930881e+01
   4.925818e+01  -1.528485e+01
   1.630125e+01  -4.647581e+00
  -3.106821e+01  -4.317781e+00
  -2.842374e+01  -1.442998e+01
   2.639563e+01  -2.272070e+01
   7.255165e+01  -1.235344e+01
