
 $NMID
 id='ANONYMOUS ', fmtdat='(2E16.6)'
 volume=1.0
 tramp=1.0
 $END
  -3.619668e+03  -1.378934e+02
  -2.033751e+03  -2.296855e+03
   7.557804e+02  -2.209650e+03
   1.845345e+03  -6.558880e+02
   7.473989e+02   6.117255e+02
  -6.103641e+02   4.809747e+02
  -7.477455e+02  -3.752831e+02
   3.526039e+01  -8.903872e+02
   7.280008e+02  -6.251556e+02
   7.729921e+02   1.259089e+02
   3.313470e+02   7.459418e+02
  -2.442891e+02   7.280501e+02
  -5.556623e+02   5.973440e+01
  -3.109852e+02  -6.314244e+02
   2.516024e+02  -6.225483e+02
   5.095214e+02   2.517600e+01
   2.052723e+02   5.699762e+02
  -2.925995e+02   4.968199e+02
  -4.629742e+02   3.738700e+01
  -2.844127e+02  -3.022473e+02
   1.598996e+01  -3.453419e+02
   2.057692e+02  -1.943907e+02
   1.718748e+02   5.994029e+00
  -9.900776e+01   8.624713e+01
  -3.471625e+02  -8.357315e+01
  -1.874247e+02  -3.637193e+02
   3.689883e+02  -3.505379e+02
   7.017125e+02   5.228282e+01
   3.575535e+02   4.633608e+02
  -3.241494e+02   4.032136e+02
  -6.130030e+02  -2.329498e+01
  -2.818005e+02  -3.941771e+02
   2.327536e+02  -4.211743e+02
   4.613686e+02  -1.609171e+02
   3.318544e+02   1.948032e+02
   5.025623e+01   3.876787e+02
  -1.798164e+02   2.238630e+02
  -1.567337e+02  -2.005855e+02
   1.337479e+02  -3.872319e+02
   3.848182e+02   3.302227e+00
   2.209382e+02   5.590376e+02
  -2.639039e+02   5.815035e+02
  -5.147901e+02   9.793231e-01
  -2.084870e+02  -4.712920e+02
   2.618651e+02  -2.720383e+02
   3.307849e+02   2.767525e+02
  -5.760428e+01   4.616863e+02
  -4.669090e+02   1.137310e+02
  -4.873510e+02  -3.246818e+02
  -1.237425e+02  -4.760717e+02
   3.221972e+02  -2.776665e+02
   5.089630e+02   7.128244e+01
   2.866278e+02   3.277650e+02
  -1.493195e+02   3.019977e+02
  -3.787234e+02   3.156593e+01
  -1.940706e+02  -1.862678e+02
   1.128342e+02  -9.328486e+01
   1.247234e+02   1.402424e+02
  -1.406944e+02   1.661492e+02
  -2.871062e+02  -6.521240e+01
  -1.070260e+02  -2.480615e+02
   1.688085e+02  -2.023850e+02
   2.565941e+02  -4.452259e+01
   1.438723e+02   7.232139e+01
  -2.650163e+01   1.711527e+02
  -1.683119e+02   2.482465e+02
  -2.688326e+02   1.742401e+02
  -2.326816e+02  -1.135830e+02
  -6.356316e+01  -3.540425e+02
   9.768118e+01  -3.053994e+02
   1.040300e+02  -7.600029e+01
   1.299807e+01   2.135933e+01
   2.114283e+01  -7.132304e+01
   1.491185e+02  -1.130146e+02
   2.258187e+02   3.417119e+01
   1.364470e+02   2.169003e+02
  -5.243616e+01   2.107043e+02
  -1.875927e+02   1.342531e+01
  -1.676562e+02  -1.876967e+02
   3.665591e+00  -2.382957e+02
   2.160261e+02  -9.835252e+01
   2.894715e+02   1.295954e+02
   1.456126e+02   2.788497e+02
  -8.515426e+01   2.363860e+02
  -1.808443e+02   8.793592e+01
  -1.146422e+02  -5.138890e+00
  -7.499890e+01   2.568163e+01
  -1.795833e+02   5.043256e+01
  -3.070348e+02  -4.436934e+01
  -2.554388e+02  -2.184030e+02
   1.708761e+00  -3.352003e+02
   2.682703e+02  -3.227117e+02
   3.689160e+02  -1.626635e+02
   2.642494e+02   7.449656e+01
   4.349201e+01   2.378182e+02
  -1.130779e+02   2.070844e+02
  -7.555886e+01   1.673779e+01
   8.576630e+01  -1.019441e+02
   1.647643e+02  -5.081200e-01
   4.423491e+01   1.631674e+02
  -1.338011e+02   1.439666e+02
  -1.512729e+02  -5.249667e+01
   1.035986e+01  -1.609041e+02
   1.546600e+02  -3.154332e+01
   1.314103e+02   1.930652e+02
  -2.127089e+01   2.736690e+02
  -1.736132e+02   1.486750e+02
  -2.492433e+02  -4.926502e+01
  -2.180291e+02  -1.794642e+02
  -7.969241e+01  -2.030015e+02
   8.781309e+01  -1.279944e+02
   1.442096e+02  -2.073824e+01
   4.960403e+01   2.549397e+01
  -5.748965e+01  -2.801645e+01
  -2.626963e+01  -9.999142e+01
   9.804515e+01  -8.272498e+01
   1.443231e+02   5.633339e+00
   4.968373e+01   5.934550e+01
  -6.142902e+01   2.067627e+01
  -4.575871e+01  -4.905626e+01
   8.794589e+01  -6.367997e+01
   2.093565e+02  -3.976719e+00
   1.944127e+02   9.706745e+01
   5.064982e+01   1.894495e+02
  -1.342010e+02   2.008306e+02
  -2.177111e+02   9.967801e+01
  -1.350451e+02  -4.106308e+01
   2.125043e+01  -9.112619e+01
   7.788950e+01  -8.211167e+00
  -1.758372e+01   8.322918e+01
  -1.533879e+02   5.293367e+01
  -1.721464e+02  -7.640283e+01
  -5.772231e+01  -1.615336e+02
   7.340363e+01  -1.247695e+02
   1.126624e+02  -2.496898e+01
   5.791913e+01   3.245885e+01
  -1.924200e+01   7.278038e+00
  -3.214411e+01  -5.812633e+01
   4.837046e+01  -8.660821e+01
   1.491190e+02  -2.788032e+01
   1.495643e+02   9.033849e+01
   2.060895e+01   1.700742e+02
  -1.256701e+02   1.325840e+02
  -1.510868e+02   5.537290e+00
  -5.163904e+01  -9.206761e+01
   5.265546e+01  -8.865509e+01
   6.652669e+01  -2.225395e+01
   1.800759e+01   2.187475e+01
  -1.415936e+01   1.756941e+01
   5.609298e+00  -1.706402e+00
   4.694317e+01   7.946765e+00
   6.322937e+01   5.696656e+01
   1.378607e+01   1.133490e+02
  -9.119812e+01   1.134296e+02
  -1.756249e+02   2.193933e+01
  -1.519116e+02  -1.120938e+02
  -3.162071e+01  -1.825156e+02
   8.540220e+01  -1.296417e+02
   1.048005e+02  -1.707615e+01
   5.180711e+01   4.688329e+01
   1.895171e+01   2.931116e+01
   3.942491e+01  -9.801865e+00
   5.832562e+01  -7.139546e+00
   2.822299e+01   3.403508e+01
  -3.351671e+01   6.159833e+01
  -7.316889e+01   3.886327e+01
  -6.008919e+01  -2.625724e+01
   1.033067e+01  -8.139023e+01
   1.055684e+02  -6.626315e+01
   1.528749e+02   3.641711e+01
   8.256561e+01   1.547246e+02
  -7.922626e+01   1.793000e+02
  -2.107784e+02   7.810180e+01
  -2.061185e+02  -6.402163e+01
  -8.701874e+01  -1.382160e+02
   3.099664e+01  -1.185932e+02
   7.624835e+01  -7.005899e+01
   6.344017e+01  -5.491735e+01
   5.325029e+01  -6.774204e+01
   7.151836e+01  -5.428409e+01
   9.882260e+01   1.868067e+01
   9.124540e+01   1.217697e+02
   2.255900e+01   1.774425e+02
  -7.648989e+01   1.341057e+02
  -1.372644e+02   1.704152e+01
  -1.065297e+02  -9.275332e+01
  -1.658680e+01  -1.217229e+02
   4.740330e+01  -7.112036e+01
   4.288816e+01  -2.756340e+00
   4.656003e+00   3.005102e+01
  -4.960091e+00   2.554392e+01
   2.811259e+01   1.446835e+01
   5.796630e+01   1.755395e+01
   3.284313e+01   2.658199e+01
  -4.566325e+01   2.697016e+01
  -1.178678e+02   2.025798e+00
  -1.109328e+02  -3.680485e+01
  -1.484870e+01  -6.545524e+01
   9.228823e+01  -5.522131e+01
   1.132260e+02  -1.299558e+01
   3.848898e+01   2.772978e+01
  -4.634587e+01   2.672585e+01
  -5.775242e+01  -1.365826e+01
  -3.470558e+00  -5.004394e+01
   4.478101e+01  -4.146525e+01
   4.813199e+01   3.448032e+00
   3.211330e+01   3.791855e+01
   3.106833e+01   2.987823e+01
   4.578075e+01  -5.515950e-01
   5.094002e+01  -3.688779e-01
   2.707119e+01   5.127921e+01
  -2.486892e+01   1.112852e+02
  -8.896840e+01   1.089723e+02
  -1.243514e+02   2.672215e+01
  -9.449011e+01  -6.722684e+01
  -6.496108e+00  -9.458251e+01
   6.409270e+01  -4.615319e+01
   4.379074e+01   1.116315e+01
  -4.690268e+01   1.381116e+01
  -1.072704e+02  -3.420782e+01
  -5.930462e+01  -8.158510e+01
   6.286156e+01  -8.523698e+01
   1.473255e+02  -4.233472e+01
   1.266309e+02   2.223560e+01
   3.020222e+01   6.648283e+01
  -4.631684e+01   5.585554e+01
  -3.893324e+01   7.265362e+00
   2.860382e+01  -1.994914e+01
   6.977016e+01   1.721179e+01
   2.506510e+01   9.079010e+01
  -7.197861e+01   1.181215e+02
  -1.312610e+02   4.646104e+01
  -9.782715e+01  -7.880746e+01
  -6.545907e+00  -1.543460e+02
   6.657113e+01  -1.137134e+02
   7.986819e+01   4.414706e+00
   4.723314e+01   9.135374e+01
   6.907953e-01   8.135954e+01
  -3.335355e+01   1.562193e+01
  -3.993057e+01  -2.328858e+01
  -2.125010e+01  -5.682087e+00
  -2.531317e+00   1.657559e+01
  -1.438941e+01  -1.034719e+01
  -4.147981e+01  -6.754840e+01
  -3.486199e+01  -8.513042e+01
   3.478253e+01  -3.524521e+01
   1.066415e+02   3.020909e+01
   1.029573e+02   5.471141e+01
   1.249617e+01   3.600921e+01
  -6.958970e+01   1.475764e+01
  -6.733158e+01   5.397484e+00
  -5.636756e+00  -4.538735e+00
   3.015386e+01  -1.632209e+01
   8.895256e+00  -1.497499e+01
  -1.790347e+01   8.929276e-01
   4.712436e+00   6.884645e+00
   5.708056e+01   4.436596e+00
   6.795621e+01   1.770519e+01
   3.127605e+00   5.861407e+01
  -9.107856e+01   8.436770e+01
  -1.376953e+02   4.329617e+01
  -1.019517e+02  -5.156077e+01
  -1.585872e+01  -1.213256e+02
   6.084246e+01  -1.110271e+02
   8.500628e+01  -4.172484e+01
   5.957206e+01   1.726246e+01
   1.740397e+01   2.695088e+01
  -3.566843e+00   5.911356e+00
   7.333096e+00   2.137868e+00
   2.561314e+01   3.408300e+01
   1.809763e+01   6.809502e+01
  -2.225435e+01   5.310813e+01
  -6.117298e+01  -1.514608e+01
  -5.707074e+01  -8.373427e+01
  -2.879592e-03  -8.425051e+01
   6.545823e+01  -1.446701e+01
   7.804613e+01   6.102898e+01
   2.274820e+01   7.916833e+01
  -5.162425e+01   4.062904e+01
  -7.365037e+01  -9.407532e+00
  -2.909925e+01  -3.556493e+01
   2.399349e+01  -3.608831e+01
   2.100125e+01  -2.180462e+01
  -2.917850e+01  -3.643442e+00
  -5.405689e+01   1.838157e+00
  -9.908092e+00  -1.915898e+01
   6.275595e+01  -5.091367e+01
   8.874072e+01  -4.681571e+01
   4.741614e+01   6.509736e+00
  -1.146944e+01   6.198795e+01
  -3.889428e+01   6.042665e+01
  -2.547321e+01   4.141432e+00
  -3.506817e-01  -4.241121e+01
   1.991203e+01  -3.141856e+01
   2.774260e+01   1.646045e+01
   1.974148e+01   4.243147e+01
  -3.657781e+00   2.435496e+01
  -2.619598e+01  -7.256145e+00
  -3.059426e+01  -1.624513e+01
  -1.534284e+01  -5.253873e-01
   7.078376e-01   9.559644e+00
   5.780584e+00  -4.284242e+00
   8.591762e+00  -2.818106e+01
   1.640581e+01  -3.194215e+01
   2.577139e+01  -2.565072e+00
   2.050517e+01   3.695732e+01
  -5.885332e+00   4.629371e+01
  -3.568912e+01   1.387932e+01
  -4.157900e+01  -3.228611e+01
  -9.276676e+00  -4.850153e+01
   4.228984e+01  -2.424872e+01
   6.708218e+01   1.336479e+01
   3.572370e+01   3.358681e+01
  -2.297090e+01   2.842428e+01
  -4.855041e+01   1.489875e+01
  -1.546459e+01   3.710509e+00
   3.124881e+01   3.094890e+00
   2.905968e+01   1.393079e+01
  -2.532953e+01   2.359751e+01
  -7.105667e+01   1.401598e+01
