
 $NMID
 id='ANONYMOUS ', fmtdat='(2E16.6)'
 volume=1.0
 tramp=1.0
 $END
   3.456078e+03   1.017673e+02
   1.970631e+03   2.133929e+03
  -6.055489e+02   2.128089e+03
  -1.705468e+03   6.857873e+02
  -7.358607e+02  -5.143563e+02
   5.354246e+02  -4.500421e+02
   7.042438e+02   3.255038e+02
  -5.919441e+00   8.457718e+02
  -6.717686e+02   6.211571e+02
  -7.416568e+02  -8.573862e+01
  -3.568254e+02  -6.993760e+02
   2.195613e+02  -7.039272e+02
   5.351928e+02  -8.331014e+01
   3.282482e+02   5.935361e+02
  -2.152457e+02   6.066911e+02
  -4.872827e+02  -3.093955e+00
  -2.155494e+02  -5.364547e+02
   2.656898e+02  -4.830667e+02
   4.462721e+02  -4.340388e+01
   2.801828e+02   2.825210e+02
  -5.341929e+00   3.353291e+02
  -1.958734e+02   1.871399e+02
  -1.656135e+02  -5.760128e+00
   9.209887e+01  -8.796345e+01
   3.345347e+02   7.122907e+01
   1.871452e+02   3.394876e+02
  -3.389214e+02   3.472253e+02
  -6.663715e+02  -3.398403e+01
  -3.562432e+02  -4.269600e+02
   2.968645e+02  -3.839342e+02
   5.788606e+02   1.073647e+01
   2.786133e+02   3.668426e+02
  -2.079100e+02   4.075622e+02
  -4.321329e+02   1.693135e+02
  -3.227178e+02  -1.758098e+02
  -5.602901e+01  -3.706296e+02
   1.602833e+02  -2.236561e+02
   1.500316e+02   1.822611e+02
  -1.137648e+02   3.657212e+02
  -3.613075e+02   3.117980e+00
  -2.194631e+02  -5.278705e+02
   2.343292e+02  -5.568330e+02
   4.872477e+02  -1.314069e+01
   2.082966e+02   4.415683e+02
  -2.325130e+02   2.639158e+02
  -3.175379e+02  -2.520911e+02
   4.373700e+01  -4.350246e+02
   4.372598e+02  -1.155685e+02
   4.684532e+02   2.987341e+02
   1.334145e+02   4.451877e+02
  -2.924492e+02   2.708913e+02
  -4.876339e+02  -5.032261e+01
  -2.901443e+02  -3.006706e+02
   1.266566e+02  -2.922524e+02
   3.587348e+02  -4.423676e+01
   1.942748e+02   1.662841e+02
  -1.028494e+02   9.278991e+01
  -1.234246e+02  -1.258862e+02
   1.264768e+02  -1.607684e+02
   2.764446e+02   4.855835e+01
   1.123900e+02   2.308650e+02
  -1.521586e+02   2.003621e+02
  -2.459147e+02   5.145182e+01
  -1.432605e+02  -6.804223e+01
   1.944229e+01  -1.687389e+02
   1.558062e+02  -2.452424e+02
   2.537317e+02  -1.717871e+02
   2.262009e+02   1.025854e+02
   7.461332e+01   3.293671e+02
  -7.584605e+01   2.981875e+02
  -9.389844e+01   8.631550e+01
  -1.561877e+01  -1.071095e+01
  -2.158245e+01   7.055111e+01
  -1.420173e+02   1.091638e+02
  -2.147226e+02  -2.622204e+01
  -1.369430e+02  -1.995834e+02
   4.240632e+01  -1.997174e+02
   1.743753e+02  -1.971570e+01
   1.605381e+02   1.729562e+02
   1.801100e+00   2.248307e+02
  -2.021481e+02   9.836960e+01
  -2.797270e+02  -1.167156e+02
  -1.466310e+02  -2.634780e+02
   7.468611e+01  -2.313214e+02
   1.689479e+02  -9.242559e+01
   1.122274e+02  -2.837174e-01
   7.467615e+01  -2.618917e+01
   1.742172e+02  -5.194195e+01
   3.001786e+02   3.548860e+01
   2.540670e+02   2.044052e+02
   5.873258e+00   3.272409e+02
  -2.493586e+02   3.193084e+02
  -3.516918e+02   1.647990e+02
  -2.558209e+02  -6.684065e+01
  -4.899422e+01  -2.269194e+02
   1.010830e+02  -2.000852e+02
   7.143500e+01  -1.974322e+01
  -7.641016e+01   9.792226e+01
  -1.547261e+02   5.434158e+00
  -4.543721e+01  -1.504608e+02
   1.225715e+02  -1.363067e+02
   1.422368e+02   4.631963e+01
  -7.254350e+00   1.528552e+02
  -1.475106e+02   3.372346e+01
  -1.310939e+02  -1.809778e+02
   1.068377e+01  -2.644828e+02
   1.620908e+02  -1.505615e+02
   2.419240e+02   3.791602e+01
   2.158405e+02   1.658550e+02
   8.263567e+01   1.922307e+02
  -7.950647e+01   1.247288e+02
  -1.357044e+02   2.543701e+01
  -4.676602e+01  -2.040223e+01
   5.508022e+01   2.683834e+01
   2.661196e+01   9.455222e+01
  -9.252062e+01   8.143099e+01
  -1.385265e+02  -1.239063e+00
  -4.848103e+01  -5.376980e+01
   5.845957e+01  -1.890685e+01
   4.279637e+01   4.721135e+01
  -8.577103e+01   6.289029e+01
  -2.034177e+02   7.204384e+00
  -1.898656e+02  -9.178731e+01
  -5.242281e+01  -1.827500e+02
   1.253874e+02  -1.981748e+02
   2.103142e+02  -1.023489e+02
   1.325897e+02   3.657665e+01
  -1.613328e+01   8.844871e+01
  -7.306746e+01   1.098036e+01
   1.620995e+01  -7.784078e+01
   1.456630e+02  -5.129116e+01
   1.652013e+02   7.185306e+01
   5.692249e+01   1.541265e+02
  -6.821880e+01   1.206131e+02
  -1.079520e+02   2.533604e+01
  -5.583421e+01  -3.077977e+01
   1.870598e+01  -7.568707e+00
   3.230326e+01   5.484417e+01
  -4.419889e+01   8.462429e+01
  -1.426703e+02   3.040980e+01
  -1.463795e+02  -8.243776e+01
  -2.446235e+01  -1.629148e+02
   1.175663e+02  -1.314679e+02
   1.449218e+02  -9.273414e+00
   5.122615e+01   8.791545e+01
  -4.852725e+01   8.718277e+01
  -6.253398e+01   2.273711e+01
  -1.627818e+01  -2.028991e+01
   1.376898e+01  -1.623968e+01
  -7.182413e+00   2.847685e+00
  -4.709637e+01  -6.968744e+00
  -6.195724e+01  -5.435039e+01
  -1.497300e+01  -1.092535e+02
   8.702094e+01  -1.103749e+02
   1.690464e+02  -2.329032e+01
   1.470761e+02   1.064543e+02
   3.271190e+01   1.751425e+02
  -8.121148e+01   1.272915e+02
  -1.014266e+02   1.846117e+01
  -5.216656e+01  -4.470059e+01
  -1.994075e+01  -2.918804e+01
  -3.781410e+01   9.747683e+00
  -5.601318e+01   7.113235e+00
  -2.806058e+01  -3.339852e+01
   3.155239e+01  -6.205177e+01
   7.153579e+01  -3.998498e+01
   5.931355e+01   2.516827e+01
  -9.245467e+00   8.034771e+01
  -1.019101e+02   6.680706e+01
  -1.488248e+02  -3.243970e+01
  -8.329125e+01  -1.472520e+02
   7.078475e+01  -1.744022e+02
   1.975750e+02  -8.060347e+01
   1.989730e+02   5.232024e+01
   8.829607e+01   1.272284e+02
  -2.564916e+01   1.135504e+02
  -7.137650e+01   6.864629e+01
  -5.790730e+01   5.361997e+01
  -4.734056e+01   6.724174e+01
  -6.615320e+01   5.525229e+01
  -9.533837e+01  -1.490822e+01
  -9.123168e+01  -1.136620e+02
  -2.636474e+01  -1.684228e+02
   7.001832e+01  -1.298236e+02
   1.310145e+02  -1.916738e+01
   1.047620e+02   8.713251e+01
   1.926418e+01   1.179734e+02
  -4.515085e+01   6.937881e+01
  -4.190471e+01   2.466272e+00
  -4.923355e+00  -2.994464e+01
   4.967881e+00  -2.494829e+01
  -2.871315e+01  -1.193894e+01
  -5.934205e+01  -1.465596e+01
  -3.369085e+01  -2.630802e+01
   4.466518e+01  -2.861867e+01
   1.148376e+02  -5.852112e+00
   1.076394e+02   3.324908e+01
   1.357867e+01   6.227416e+01
  -8.846484e+01   5.392565e+01
  -1.076747e+02   1.391213e+01
  -3.598931e+01  -2.684368e+01
   4.522519e+01  -2.723402e+01
   5.673789e+01   1.202718e+01
   4.955614e+00   4.866958e+01
  -4.185850e+01   4.115872e+01
  -4.588614e+01  -1.806285e+00
  -3.189467e+01  -3.451966e+01
  -3.201224e+01  -2.695803e+01
  -4.553019e+01   1.675895e+00
  -4.947500e+01   1.828579e+00
  -2.747596e+01  -4.837486e+01
   2.050752e+01  -1.076439e+02
   8.246220e+01  -1.070932e+02
   1.188942e+02  -2.948299e+01
   9.255640e+01   6.171612e+01
   8.334451e+00   9.051247e+01
  -6.123850e+01   4.573880e+01
  -4.318070e+01  -1.013757e+01
   4.396127e+01  -1.629843e+01
   1.056243e+02   2.871053e+01
   6.076692e+01   7.720837e+01
  -5.673141e+01   8.482974e+01
  -1.401728e+02   4.449260e+01
  -1.216895e+02  -1.939156e+01
  -3.036681e+01  -6.344841e+01
   4.334412e+01  -5.451795e+01
   3.760030e+01  -6.832848e+00
  -2.741155e+01   2.091538e+01
  -6.823439e+01  -1.453453e+01
  -2.785967e+01  -8.775735e+01
   6.501747e+01  -1.173023e+02
   1.247343e+02  -4.885016e+01
   9.598819e+01   7.352379e+01
   1.198483e+01   1.484846e+02
  -6.096873e+01   1.106438e+02
  -7.714794e+01  -1.961618e+00
  -4.810079e+01  -8.704244e+01
  -2.372036e+00  -7.866944e+01
   3.182458e+01  -1.574178e+01
   3.885508e+01   2.164927e+01
   1.998391e+01   4.910195e+00
   2.322815e+00  -1.608728e+01
   1.498480e+01   1.091098e+01
   4.271183e+01   6.500563e+01
   3.474248e+01   8.007851e+01
  -3.303961e+01   3.212193e+01
  -1.025119e+02  -2.675998e+01
  -9.951462e+01  -4.777946e+01
  -1.355354e+01  -3.245722e+01
   6.649608e+01  -1.630088e+01
   6.449688e+01  -7.963862e+00
   6.195484e+00   4.107940e+00
  -2.816749e+01   1.725386e+01
  -8.652741e+00   1.454257e+01
   1.674412e+01  -1.559946e+00
  -5.196064e+00  -6.207613e+00
  -5.540650e+01  -2.193147e+00
  -6.624788e+01  -1.518168e+01
  -4.620075e+00  -5.815445e+01
   8.656712e+01  -8.527082e+01
   1.326917e+02  -4.534191e+01
   9.944424e+01   4.688863e+01
   1.884755e+01   1.170250e+02
  -5.487683e+01   1.086418e+02
  -8.084411e+01   4.273094e+01
  -5.861813e+01  -1.489654e+01
  -1.785383e+01  -2.542953e+01
   3.524491e+00  -5.876778e+00
  -6.472492e+00  -2.454990e+00
  -2.550707e+01  -3.264148e+01
  -1.948115e+01  -6.501294e+01
   2.014306e+01  -5.153562e+01
   5.934878e+01   1.347261e+01
   5.738718e+01   7.885697e+01
   2.082952e+00   8.025086e+01
  -6.209846e+01   1.510615e+01
  -7.555692e+01  -5.669558e+01
  -2.382605e+01  -7.586354e+01
   4.840908e+01  -4.083012e+01
   7.172181e+01   7.161049e+00
   2.959192e+01   3.409538e+01
  -2.203062e+01   3.610670e+01
  -2.003883e+01   2.188250e+01
   2.758640e+01   2.588995e+00
   5.136598e+01  -3.510442e+00
   9.907712e+00   1.862044e+01
  -5.957668e+01   5.064835e+01
  -8.478947e+01   4.693814e+01
  -4.627374e+01  -5.399535e+00
   1.015564e+01  -5.990345e+01
   3.655677e+01  -5.912473e+01
   2.487826e+01  -4.654735e+00
   1.626977e+00   4.080325e+01
  -1.824150e+01   3.130715e+01
  -2.728453e+01  -1.436393e+01
  -2.061951e+01  -4.012386e+01
   2.690134e+00  -2.380998e+01
   2.566056e+01   6.431794e+00
   2.984418e+01   1.503747e+01
   1.440530e+01  -5.831431e-01
  -1.222445e+00  -9.805188e+00
  -5.169978e+00   4.084066e+00
  -6.299410e+00   2.722179e+01
  -1.394434e+01   3.160125e+01
  -2.498903e+01   3.884503e+00
  -2.146750e+01  -3.467380e+01
   3.886696e+00  -4.558273e+01
   3.448593e+01  -1.484005e+01
   4.150436e+01   2.992423e+01
   1.065533e+01   4.688226e+01
  -4.007487e+01   2.499175e+01
  -6.496488e+01  -1.087058e+01
  -3.520724e+01  -3.124604e+01
   2.189701e+01  -2.803688e+01
   4.629644e+01  -1.565672e+01
   1.429125e+01  -3.761722e+00
  -3.042476e+01  -2.214873e+00
  -2.849047e+01  -1.274467e+01
   2.388855e+01  -2.407055e+01
   6.851573e+01  -1.539048e+01
