
 $NMID
 id='ANONYMOUS ', fmtdat='(2E16.6)'
 volume=1.0
 tramp=1.0
 $END
  -3.672705e+03  -1.989303e+00
  -2.182127e+03  -2.224843e+03
   6.009563e+02  -2.361008e+03
   1.827376e+03  -7.830647e+02
   8.324238e+02   5.555508e+02
  -5.601185e+02   5.144731e+02
  -7.580014e+02  -3.246919e+02
  -1.317931e+01  -8.905950e+02
   7.013517e+02  -6.806352e+02
   8.008041e+02   7.014887e+01
   4.004310e+02   7.409433e+02
  -2.345062e+02   7.745229e+02
  -5.703739e+02   1.084675e+02
  -3.653904e+02  -6.269560e+02
   2.193066e+02  -6.543421e+02
   5.278584e+02  -1.187269e+01
   2.486182e+02   5.733031e+02
  -2.719879e+02   5.316455e+02
  -4.856284e+02   5.886668e+01
  -3.131081e+02  -3.025191e+02
  -6.872554e+00  -3.611604e+02
   2.078593e+02  -2.073149e+02
   1.772676e+02   6.639354e+00
  -9.596427e+01   9.949709e+01
  -3.578127e+02  -7.104800e+01
  -1.982214e+02  -3.631430e+02
   3.565548e+02  -3.676117e+02
   7.116932e+02   3.893757e+01
   3.863311e+02   4.489824e+02
  -3.144882e+02   4.207339e+02
  -6.297051e+02  -5.644698e+00
  -3.079664e+02  -3.959031e+02
   2.197119e+02  -4.442938e+02
   4.685145e+02  -1.883783e+02
   3.576560e+02   1.863161e+02
   6.213354e+01   4.071979e+02
  -1.732058e+02   2.457561e+02
  -1.676840e+02  -1.851497e+02
   1.128081e+02  -3.886663e+02
   3.817316e+02  -5.421986e+00
   2.311940e+02   5.610544e+02
  -2.554860e+02   5.969612e+02
  -5.258047e+02   1.712693e+01
  -2.354933e+02  -4.785654e+02
   2.436167e+02  -2.900587e+02
   3.443833e+02   2.585107e+02
  -3.702427e+01   4.630150e+02
  -4.648369e+02   1.309984e+02
  -5.077359e+02  -3.153430e+02
  -1.493409e+02  -4.825624e+02
   3.151720e+02  -3.022167e+02
   5.345638e+02   4.924991e+01
   3.232527e+02   3.238129e+02
  -1.263281e+02   3.234767e+02
  -3.828697e+02   5.951534e+01
  -2.153210e+02  -1.706472e+02
   1.020387e+02  -1.042818e+02
   1.354291e+02   1.318011e+02
  -1.300766e+02   1.781459e+02
  -2.977832e+02  -3.916135e+01
  -1.302638e+02  -2.486416e+02
   1.585925e+02  -2.247155e+02
   2.701928e+02  -6.392540e+01
   1.615401e+02   7.362735e+01
  -1.681919e+01   1.860201e+02
  -1.687415e+02   2.707354e+02
  -2.768113e+02   1.889615e+02
  -2.483643e+02  -1.113559e+02
  -7.979286e+01  -3.546117e+02
   8.508000e+01  -3.189559e+02
   1.003731e+02  -9.004062e+01
   1.606875e+01   1.086631e+01
   2.574321e+01  -7.839438e+01
   1.566267e+02  -1.223735e+02
   2.371517e+02   2.702027e+01
   1.502124e+02   2.178018e+02
  -4.612629e+01   2.203532e+02
  -1.875227e+02   2.478771e+01
  -1.759972e+02  -1.876266e+02
  -2.165703e+00  -2.443069e+02
   2.185856e+02  -1.053604e+02
   3.039326e+02   1.253676e+02
   1.623284e+02   2.846367e+02
  -7.651714e+01   2.537335e+02
  -1.836765e+02   1.038608e+02
  -1.231647e+02   2.530407e+00
  -8.454702e+01   2.907154e+01
  -1.926694e+02   5.591621e+01
  -3.286051e+02  -3.802529e+01
  -2.808013e+02  -2.225211e+02
  -1.190798e+01  -3.633559e+02
   2.702204e+02  -3.558081e+02
   3.876567e+02  -1.836554e+02
   2.833631e+02   7.028342e+01
   5.735542e+01   2.456080e+02
  -1.060582e+02   2.164356e+02
  -7.773175e+01   2.357318e+01
   8.242569e+01  -1.030632e+02
   1.674926e+02  -4.948581e+00
   5.008264e+01   1.617181e+02
  -1.318584e+02   1.482094e+02
  -1.551047e+02  -4.875556e+01
   6.898967e+00  -1.677281e+02
   1.629866e+02  -3.915773e+01
   1.498651e+02   1.968278e+02
  -8.574703e+00   2.931525e+02
  -1.787534e+02   1.709685e+02
  -2.663083e+02  -3.698937e+01
  -2.379148e+02  -1.792048e+02
  -9.024392e+01  -2.109657e+02
   8.528888e+01  -1.374345e+02
   1.472124e+02  -2.872705e+01
   4.949317e+01   2.233468e+01
  -6.242971e+01  -2.925213e+01
  -3.033878e+01  -1.046056e+02
   1.017353e+02  -9.175450e+01
   1.532612e+02   3.784349e-01
   5.344508e+01   5.928322e+01
  -6.459792e+01   2.152882e+01
  -4.862735e+01  -5.342587e+01
   9.430639e+01  -7.351270e+01
   2.239057e+02  -1.164999e+01
   2.120036e+02   1.017667e+02
   6.087040e+01   2.027648e+02
  -1.354539e+02   2.198781e+02
  -2.268633e+02   1.131533e+02
  -1.450636e+02  -3.979251e+01
   1.587796e+01  -9.679644e+01
   7.911527e+01  -1.031184e+01
  -1.787313e+01   8.701756e+01
  -1.591655e+02   5.812200e+01
  -1.807807e+02  -7.729076e+01
  -6.392026e+01  -1.692138e+02
   7.403528e+01  -1.327274e+02
   1.180838e+02  -2.768825e+01
   5.963580e+01   3.347205e+01
  -2.207037e+01   7.902793e+00
  -3.593921e+01  -6.219119e+01
   4.820293e+01  -9.583629e+01
   1.562141e+02  -3.570495e+01
   1.620412e+02   8.905400e+01
   2.973441e+01   1.788347e+02
  -1.261620e+02   1.446899e+02
  -1.596784e+02   1.132243e+01
  -5.816245e+01  -9.563041e+01
   5.203333e+01  -9.593183e+01
   7.008863e+01  -2.521771e+01
   1.914284e+01   2.358537e+01
  -1.520100e+01   1.871134e+01
   7.337355e+00  -4.380438e+00
   5.328754e+01   6.176051e+00
   7.047833e+01   5.965638e+01
   1.757348e+01   1.218457e+02
  -9.516614e+01   1.241554e+02
  -1.867566e+02   2.851325e+01
  -1.651341e+02  -1.162145e+02
  -3.892589e+01  -1.935189e+02
   8.889525e+01  -1.425488e+02
   1.131011e+02  -2.189934e+01
   5.865268e+01   4.856971e+01
   2.219885e+01   3.099650e+01
   4.171284e+01  -1.158039e+01
   6.372451e+01  -7.568141e+00
   3.373075e+01   3.930737e+01
  -3.361480e+01   7.117114e+01
  -8.009762e+01   4.545683e+01
  -6.811923e+01  -2.763065e+01
   7.226440e+00  -8.971455e+01
   1.100172e+02  -7.590827e+01
   1.631036e+02   3.266292e+01
   9.314406e+01   1.598468e+02
  -7.457894e+01   1.910777e+02
  -2.141502e+02   8.780276e+01
  -2.146064e+02  -5.749249e+01
  -9.559739e+01  -1.376517e+02
   2.705007e+01  -1.222633e+02
   7.523949e+01  -7.383264e+01
   6.124321e+01  -5.865088e+01
   4.926599e+01  -7.397866e+01
   7.243097e+01  -6.225768e+01
   1.062205e+02   1.462436e+01
   1.013434e+02   1.231783e+02
   3.044823e+01   1.837524e+02
  -7.622790e+01   1.430340e+02
  -1.438253e+02   2.198640e+01
  -1.154217e+02  -9.470079e+01
  -2.059286e+01  -1.293582e+02
   5.148042e+01  -7.646812e+01
   4.812879e+01  -1.524179e+00
   6.254097e+00   3.448744e+01
  -5.533971e+00   2.795656e+01
   3.044195e+01   1.238845e+01
   6.233629e+01   1.484711e+01
   3.534153e+01   2.920017e+01
  -4.919423e+01   3.415491e+01
  -1.254393e+02   8.317954e+00
  -1.177871e+02  -3.719636e+01
  -1.659115e+01  -7.093146e+01
   9.501048e+01  -6.180447e+01
   1.173966e+02  -1.572657e+01
   4.000637e+01   3.057130e+01
  -4.832759e+01   3.149847e+01
  -6.243112e+01  -1.219753e+01
  -6.981183e+00  -5.385603e+01
   4.471645e+01  -4.743539e+01
   5.101221e+01   1.407182e-01
   3.616273e+01   3.760469e+01
   3.426613e+01   2.883135e+01
   4.814999e+01  -2.540750e+00
   5.390335e+01  -3.784319e+00
   3.300412e+01   5.225089e+01
  -1.792478e+01   1.188789e+02
  -8.635357e+01   1.186883e+02
  -1.297959e+02   3.442261e+01
  -1.033463e+02  -6.648008e+01
  -1.149481e+01  -9.994548e+01
   6.566883e+01  -5.142518e+01
   4.806497e+01   1.066479e+01
  -4.604159e+01   2.011005e+01
  -1.132758e+02  -2.927205e+01
  -6.673034e+01  -8.319682e+01
   5.844855e+01  -9.375597e+01
   1.497891e+02  -4.979959e+01
   1.329875e+02   2.072600e+01
   3.450602e+01   6.945099e+01
  -4.610341e+01   5.901447e+01
  -4.059078e+01   6.140039e+00
   3.047582e+01  -2.433828e+01
   7.552609e+01   1.447748e+01
   3.233859e+01   9.571314e+01
  -6.900287e+01   1.293132e+02
  -1.347233e+02   5.562905e+01
  -1.060217e+02  -7.812930e+01
  -1.486351e+01  -1.608247e+02
   6.551035e+01  -1.217217e+02
   8.450416e+01   5.611094e-01
   5.394297e+01   9.421251e+01
   3.261359e+00   8.689573e+01
  -3.520706e+01   1.867721e+01
  -4.305344e+01  -2.248750e+01
  -2.170853e+01  -5.353200e+00
  -2.778259e+00   1.807125e+01
  -1.817208e+01  -9.761667e+00
  -4.980617e+01  -6.935560e+01
  -3.969312e+01  -8.863188e+01
   3.646518e+01  -3.951792e+01
   1.140754e+02   2.604279e+01
   1.091786e+02   5.304348e+01
   1.514479e+01   3.890986e+01
  -7.219036e+01   1.954130e+01
  -6.980764e+01   8.091105e+00
  -7.366427e+00  -5.649004e+00
   3.002271e+01  -1.876947e+01
   9.837380e+00  -1.515068e+01
  -1.772836e+01   1.484966e+00
   5.693768e+00   5.976909e+00
   6.049556e+01   1.074936e+00
   7.283947e+01   1.612360e+01
   7.606249e+00   6.358433e+01
  -9.128908e+01   9.463630e+01
  -1.445765e+02   5.215865e+01
  -1.121378e+02  -4.955564e+01
  -2.431753e+01  -1.283953e+02
   5.790909e+01  -1.211169e+02
   8.861483e+01  -4.913221e+01
   6.498842e+01   1.549377e+01
   2.068209e+01   2.759101e+01
  -2.679192e+00   6.627896e+00
   7.453862e+00   2.247904e+00
   2.763442e+01   3.493484e+01
   2.158584e+01   7.106945e+01
  -2.153232e+01   5.800620e+01
  -6.563625e+01  -1.275887e+01
  -6.500264e+01  -8.397375e+01
  -5.449794e+00  -8.895286e+01
   6.763156e+01  -2.044599e+01
   8.511735e+01   5.917911e+01
   2.888431e+01   8.289387e+01
  -5.168287e+01   4.680876e+01
  -7.881177e+01  -5.900178e+00
  -3.336182e+01  -3.699502e+01
   2.338092e+01  -4.011254e+01
   2.214023e+01  -2.367112e+01
  -2.893724e+01  -1.896053e+00
  -5.539463e+01   4.397233e+00
  -1.221561e+01  -2.025908e+01
   6.258808e+01  -5.592754e+01
   9.188525e+01  -5.207051e+01
   5.205896e+01   5.608075e+00
  -9.055049e+00   6.646737e+01
  -3.959724e+01   6.589423e+01
  -2.913629e+01   5.603890e+00
  -3.324221e+00  -4.501743e+01
   1.993968e+01  -3.511322e+01
   3.088357e+01   1.497546e+01
   2.268790e+01   4.373388e+01
  -2.866857e+00   2.669537e+01
  -2.836679e+01  -6.263286e+00
  -3.314953e+01  -1.627306e+01
  -1.628174e+01   2.527657e-01
   1.050842e+00   1.044990e+01
   5.634584e+00  -4.461897e+00
   6.059718e+00  -2.956018e+01
   1.476386e+01  -3.524678e+01
   2.720782e+01  -5.449242e+00
   2.493120e+01   3.588475e+01
  -1.554230e+00   4.911299e+01
  -3.598495e+01   1.758770e+01
  -4.569679e+01  -3.051696e+01
  -1.316970e+01  -5.000365e+01
   4.268768e+01  -2.840263e+01
   7.144119e+01   1.032271e+01
   3.966649e+01   3.346386e+01
  -2.288656e+01   3.185998e+01
  -5.076026e+01   1.887185e+01
  -1.696157e+01   4.194908e+00
   3.189531e+01   1.509857e+00
   3.134084e+01   1.271259e+01
  -2.466043e+01   2.747451e+01
  -7.438232e+01   1.901158e+01
