
 $NMID
 id='ANONYMOUS ', fmtdat='(2E16.6)'
 volume=1.0
 tramp=1.0
 $END
  -4.663674e+03   3.715396e+01
  -2.691707e+03  -2.701425e+03
   8.474383e+02  -2.912695e+03
   2.328689e+03  -8.054638e+02
   9.691546e+02   8.553732e+02
  -8.052858e+02   6.966599e+02
  -1.052604e+03  -5.008777e+02
  -5.417213e-01  -1.218586e+03
   9.313119e+02  -8.596425e+02
   1.027595e+03   1.218531e+02
   4.771935e+02   9.608908e+02
  -2.885002e+02   9.453669e+02
  -7.248083e+02   9.875075e+01
  -4.189245e+02  -8.026740e+02
   3.265301e+02  -8.137048e+02
   6.803213e+02   2.903958e+01
   2.781029e+02   7.612607e+02
  -3.828048e+02   6.748486e+02
  -6.503763e+02   6.248352e+01
  -3.992260e+02  -3.970149e+02
  -2.958184e+00  -4.751206e+02
   2.727523e+02  -2.771859e+02
   2.384006e+02  -7.882416e+00
  -1.069720e+02   1.217282e+02
  -4.395714e+02  -8.489807e+01
  -2.497729e+02  -4.585805e+02
   4.617404e+02  -4.792885e+02
   9.039691e+02   3.720473e+01
   4.861304e+02   5.963520e+02
  -4.086042e+02   5.522483e+02
  -8.001983e+02  -1.546495e+01
  -3.762178e+02  -5.175441e+02
   3.024162e+02  -5.652715e+02
   6.116819e+02  -2.109575e+02
   4.398661e+02   2.634347e+02
   5.358391e+01   5.273919e+02
  -2.541739e+02   3.199515e+02
  -2.285269e+02  -2.477995e+02
   1.681650e+02  -5.037982e+02
   5.010936e+02  -1.316137e+01
   2.963035e+02   7.303964e+02
  -3.440630e+02   7.657460e+02
  -6.809285e+02  -1.180546e-01
  -2.972807e+02  -6.203350e+02
   3.336965e+02  -3.674269e+02
   4.464439e+02   3.503923e+02
  -6.310431e+01   5.991794e+02
  -5.996006e+02   1.571502e+02
  -6.428330e+02  -4.330721e+02
  -1.788927e+02  -6.324095e+02
   4.086679e+02  -3.761948e+02
   6.777481e+02   7.851135e+01
   4.033929e+02   4.193490e+02
  -1.704252e+02   4.031561e+02
  -4.806490e+02   4.663355e+01
  -2.510464e+02  -2.378309e+02
   1.550844e+02  -1.318989e+02
   1.779001e+02   1.800785e+02
  -1.780484e+02   2.238223e+02
  -3.895980e+02  -7.895647e+01
  -1.546673e+02  -3.306378e+02
   2.311212e+02  -2.721367e+02
   3.522678e+02  -5.651936e+01
   1.915878e+02   9.030678e+01
  -3.329675e+01   2.165173e+02
  -2.214007e+02   3.310724e+02
  -3.414302e+02   2.385165e+02
  -3.139135e+02  -1.301151e+02
  -9.374964e+01  -4.594602e+02
   1.317880e+02  -4.113002e+02
   1.470263e+02  -1.110116e+02
   3.492176e+01   3.428291e+01
   3.033171e+01  -7.970867e+01
   1.870934e+02  -1.428403e+02
   2.937129e+02   4.224639e+01
   1.819907e+02   2.827543e+02
  -6.729088e+01   2.825423e+02
  -2.449548e+02   2.540117e+01
  -2.244179e+02  -2.483639e+02
  -9.595367e-01  -3.190233e+02
   2.788236e+02  -1.361707e+02
   3.849077e+02   1.729699e+02
   1.964382e+02   3.761226e+02
  -1.101636e+02   3.258692e+02
  -2.475076e+02   1.199580e+02
  -1.602927e+02  -9.113768e+00
  -9.082378e+01   2.693808e+01
  -2.281583e+02   7.056427e+01
  -4.099199e+02  -5.404821e+01
  -3.432801e+02  -2.899785e+02
  -5.839531e+00  -4.501871e+02
   3.642734e+02  -4.274781e+02
   5.067929e+02  -2.059226e+02
   3.587359e+02   9.424185e+01
   6.285658e+01   3.128584e+02
  -1.478289e+02   2.737666e+02
  -1.053114e+02   2.782721e+01
   1.078586e+02  -1.290484e+02
   2.190106e+02  -6.637455e+00
   7.169526e+01   2.135180e+02
  -1.673443e+02   1.955249e+02
  -1.983871e+02  -5.925382e+01
   1.387427e+01  -2.109282e+02
   2.098878e+02  -4.222212e+01
   1.703272e+02   2.612901e+02
  -3.828669e+01   3.650921e+02
  -2.411355e+02   1.931562e+02
  -3.294922e+02  -6.793091e+01
  -2.793469e+02  -2.402742e+02
  -1.015327e+02  -2.646654e+02
   1.096541e+02  -1.704101e+02
   1.872479e+02  -2.857464e+01
   6.733966e+01   3.569744e+01
  -7.232414e+01  -3.436899e+01
  -3.526121e+01  -1.295779e+02
   1.299870e+02  -1.101376e+02
   1.935118e+02   9.895710e+00
   6.900411e+01   8.063176e+01
  -8.140568e+01   2.598669e+01
  -6.080025e+01  -6.980400e+01
   1.195443e+02  -8.798005e+01
   2.850134e+02  -5.226549e+00
   2.695512e+02   1.355586e+02
   7.149031e+01   2.634332e+02
  -1.848441e+02   2.802612e+02
  -3.009805e+02   1.406830e+02
  -1.862241e+02  -5.667285e+01
   2.255658e+01  -1.238365e+02
   1.004610e+02  -1.292861e+01
  -2.629715e+01   1.134481e+02
  -2.029864e+02   6.932580e+01
  -2.272409e+02  -1.025517e+02
  -7.714192e+01  -2.161339e+02
   9.661778e+01  -1.673172e+02
   1.490644e+02  -3.395835e+01
   7.631006e+01   4.303924e+01
  -2.659728e+01   6.803620e+00
  -4.014997e+01  -8.112661e+01
   6.943735e+01  -1.172724e+02
   2.014849e+02  -3.702695e+01
   2.012886e+02   1.228024e+02
   2.745139e+01   2.287793e+02
  -1.705674e+02   1.765291e+02
  -2.054870e+02   9.215214e+00
  -7.317175e+01  -1.217931e+02
   6.666852e+01  -1.186392e+02
   8.554345e+01  -3.277949e+01
   2.150714e+01   2.569162e+01
  -1.944030e+01   1.858990e+01
   1.147991e+01  -6.326592e+00
   6.847610e+01   1.108435e+01
   8.658321e+01   8.108558e+01
   1.821136e+01   1.568401e+02
  -1.202944e+02   1.559233e+02
  -2.342512e+02   3.314952e+01
  -2.084724e+02  -1.459954e+02
  -4.626805e+01  -2.419959e+02
   1.100410e+02  -1.748742e+02
   1.385241e+02  -2.840179e+01
   7.165001e+01   5.843115e+01
   2.985160e+01   3.728146e+01
   5.626927e+01  -1.088289e+01
   8.050568e+01  -5.196038e+00
   3.941659e+01   5.013843e+01
  -4.479467e+01   8.565874e+01
  -9.972308e+01   5.238655e+01
  -8.080537e+01  -3.441975e+01
   1.449250e+01  -1.064952e+02
   1.396012e+02  -8.490411e+01
   1.991192e+02   4.944991e+01
   1.078102e+02   2.022636e+02
  -9.979204e+01   2.369129e+02
  -2.702200e+02   1.075374e+02
  -2.677048e+02  -8.240254e+01
  -1.184149e+02  -1.815102e+02
   3.709730e+01  -1.542984e+02
   9.444959e+01  -8.648772e+01
   7.905620e+01  -7.061937e+01
   6.944146e+01  -9.518061e+01
   9.552426e+01  -7.592418e+01
   1.330023e+02   2.260639e+01
   1.226039e+02   1.575402e+02
   3.177963e+01   2.312182e+02
  -9.982396e+01   1.798802e+02
  -1.805863e+02   2.528378e+01
  -1.424501e+02  -1.213352e+02
  -2.550358e+01  -1.638474e+02
   6.406080e+01  -9.762568e+01
   5.934516e+01  -5.788620e+00
   7.109149e+00   3.962353e+01
  -5.277329e+00   3.439469e+01
   4.052764e+01   2.165179e+01
   7.940624e+01   2.622163e+01
   4.405617e+01   4.069594e+01
  -6.313218e+01   3.907724e+01
  -1.576202e+02   6.717219e+00
  -1.481212e+02  -4.828871e+01
  -2.102912e+01  -8.922652e+01
   1.191957e+02  -7.606446e+01
   1.469599e+02  -1.454936e+01
   4.994126e+01   3.995159e+01
  -6.167263e+01   3.618195e+01
  -7.717636e+01  -2.091591e+01
  -5.811221e+00  -6.949791e+01
   5.926857e+01  -5.762980e+01
   6.418418e+01   3.412428e+00
   4.301564e+01   5.097414e+01
   4.468663e+01   4.267302e+01
   6.575363e+01   2.740252e+00
   6.829284e+01   2.219332e+00
   3.300360e+01   6.922625e+01
  -3.450951e+01   1.480686e+02
  -1.149199e+02   1.413962e+02
  -1.626851e+02   3.348379e+01
  -1.231827e+02  -9.153775e+01
  -8.094670e+00  -1.258405e+02
   8.524001e+01  -5.970591e+01
   5.899772e+01   1.656787e+01
  -6.111349e+01   1.899033e+01
  -1.420827e+02  -4.461955e+01
  -7.888516e+01  -1.095692e+02
   8.005345e+01  -1.173497e+02
   1.929956e+02  -5.702706e+01
   1.652877e+02   3.196275e+01
   3.937308e+01   8.834681e+01
  -6.067029e+01   7.170367e+01
  -4.816309e+01   8.424135e+00
   3.992342e+01  -2.660976e+01
   9.080804e+01   2.451885e+01
   3.044943e+01   1.228397e+02
  -9.418932e+01   1.546985e+02
  -1.700006e+02   5.817904e+01
  -1.269627e+02  -1.033488e+02
  -9.019824e+00  -1.987654e+02
   8.771560e+01  -1.457772e+02
   1.073127e+02   5.540029e+00
   6.325757e+01   1.186235e+02
  -1.281306e+00   1.091088e+02
  -4.590189e+01   2.196342e+01
  -5.370899e+01  -3.133783e+01
  -2.762200e+01  -9.138874e+00
  -4.042971e+00   2.084961e+01
  -2.005451e+01  -1.552351e+01
  -5.560258e+01  -9.001578e+01
  -4.252470e+01  -1.125708e+02
   4.852546e+01  -4.740457e+01
   1.429562e+02   3.973516e+01
   1.330613e+02   7.344005e+01
   1.572244e+01   5.205626e+01
  -9.181682e+01   2.191313e+01
  -8.904427e+01   6.103305e+00
  -7.364989e+00  -8.895658e+00
   4.049787e+01  -2.230074e+01
   1.251628e+01  -1.818855e+01
  -2.397941e+01   8.448614e-01
   6.963022e+00   8.745943e+00
   7.801069e+01   4.846705e+00
   9.308567e+01   2.628088e+01
   4.444701e+00   8.495343e+01
  -1.258242e+02   1.166439e+02
  -1.895502e+02   5.663268e+01
  -1.438729e+02  -7.326450e+01
  -2.498571e+01  -1.686165e+02
   7.983141e+01  -1.532754e+02
   1.161758e+02  -5.847394e+01
   8.234915e+01   2.289057e+01
   2.526631e+01   3.617043e+01
  -4.474054e+00   8.002424e+00
   1.028258e+01   2.072313e+00
   3.440603e+01   4.419377e+01
   2.391195e+01   9.189825e+01
  -2.953412e+01   7.303623e+01
  -8.392338e+01  -1.963425e+01
  -7.772230e+01  -1.119764e+02
  -1.392771e+00  -1.155460e+02
   8.586708e+01  -2.270957e+01
   1.052841e+02   8.033224e+01
   3.077667e+01   1.064850e+02
  -6.964854e+01   5.597180e+01
  -9.993688e+01  -1.318050e+01
  -3.900485e+01  -5.067421e+01
   3.278456e+01  -5.183052e+01
   3.114560e+01  -3.003792e+01
  -3.449306e+01  -9.093483e-01
  -6.950319e+01   6.704625e+00
  -1.394674e+01  -2.494594e+01
   7.863956e+01  -6.505182e+01
   1.142211e+02  -5.774462e+01
   6.339409e+01   1.310101e+01
  -1.526447e+01   8.347361e+01
  -5.288569e+01   7.918643e+01
  -3.809142e+01   3.540537e+00
  -3.048455e-01  -5.839245e+01
   2.795141e+01  -4.155521e+01
   3.701065e+01   2.072749e+01
   2.467276e+01   5.518025e+01
  -4.392068e+00   3.111853e+01
  -3.384690e+01  -1.078178e+01
  -3.967228e+01  -2.169721e+01
  -2.109037e+01  -1.242245e+00
  -6.935762e-01   1.345779e+01
   5.424255e+00  -5.621816e+00
   8.626422e+00  -3.905768e+01
   2.069309e+01  -4.451761e+01
   3.537414e+01  -4.038126e+00
   2.917317e+01   4.976139e+01
  -6.910317e+00   6.428012e+01
  -4.759743e+01   2.003768e+01
  -5.808464e+01  -4.154899e+01
  -1.404712e+01  -6.651637e+01
   5.607986e+01  -3.562305e+01
   8.998909e+01   1.565893e+01
   5.030902e+01   4.491416e+01
  -2.882677e+01   3.994692e+01
  -6.516125e+01   1.942594e+01
  -2.235461e+01   4.213089e+00
   4.045841e+01   3.886599e+00
   3.935251e+01   1.959135e+01
  -3.345962e+01   3.449707e+01
  -9.597194e+01   1.990034e+01
