
 $NMID
 id='ANONYMOUS ', fmtdat='(2E16.6)'
 volume=1.0
 tramp=1.0
 $END
   4.745560e+03  -1.446473e+02
   2.681684e+03   2.774322e+03
  -8.402390e+02   2.934782e+03
  -2.365169e+03   8.139953e+02
  -9.811779e+02  -8.665163e+02
   7.890577e+02  -6.845297e+02
   1.033771e+03   4.953479e+02
   1.071102e+00   1.191863e+03
  -9.309551e+02   8.446814e+02
  -1.020910e+03  -1.340658e+02
  -4.657631e+02  -9.578462e+02
   3.194092e+02  -9.630052e+02
   7.243632e+02  -9.498744e+01
   4.117939e+02   7.952545e+02
  -3.260865e+02   8.048031e+02
  -6.684569e+02  -3.738617e+01
  -2.592782e+02  -7.544066e+02
   3.828854e+02  -6.597462e+02
   6.178260e+02  -5.495815e+01
   3.881955e+02   4.038671e+02
   7.156416e-01   4.663752e+02
  -2.651759e+02   2.778354e+02
  -2.458719e+02  -2.466536e+00
   9.358551e+01  -1.294657e+02
   4.359923e+02   8.452793e+01
   2.414645e+02   4.662034e+02
  -4.683009e+02   4.775783e+02
  -9.132238e+02  -5.003437e+01
  -4.840643e+02  -5.933035e+02
   4.105875e+02  -5.561545e+02
   8.004263e+02   2.062768e+01
   3.772067e+02   5.165474e+02
  -2.973464e+02   5.601708e+02
  -6.055209e+02   2.066242e+02
  -4.350137e+02  -2.626482e+02
  -5.402684e+01  -5.294245e+02
   2.481705e+02  -3.043676e+02
   2.202120e+02   2.518581e+02
  -1.768336e+02   4.977057e+02
  -5.040212e+02   5.636666e+00
  -2.979072e+02  -7.164999e+02
   3.383570e+02  -7.612380e+02
   6.701412e+02  -2.385772e+00
   2.959836e+02   6.037190e+02
  -3.275900e+02   3.529184e+02
  -4.352982e+02  -3.443055e+02
   7.323882e+01  -5.931597e+02
   6.011845e+02  -1.564614e+02
   6.405711e+02   4.281164e+02
   1.700643e+02   6.267355e+02
  -4.152281e+02   3.754880e+02
  -6.737238e+02  -8.041816e+01
  -3.930678e+02  -4.264039e+02
   1.749153e+02  -4.006512e+02
   4.788600e+02  -4.797811e+01
   2.449411e+02   2.328608e+02
  -1.556021e+02   1.253566e+02
  -1.704971e+02  -1.805504e+02
   1.834176e+02  -2.163391e+02
   3.876174e+02   7.968706e+01
   1.486918e+02   3.321373e+02
  -2.279053e+02   2.666240e+02
  -3.424921e+02   5.432966e+01
  -1.850716e+02  -8.997615e+01
   3.500229e+01  -2.107372e+02
   2.192549e+02  -3.235003e+02
   3.395206e+02  -2.287724e+02
   3.043463e+02   1.408733e+02
   8.577923e+01   4.609886e+02
  -1.445694e+02   4.045954e+02
  -1.503834e+02   1.027994e+02
  -2.951161e+01  -3.887735e+01
  -2.522179e+01   7.715013e+01
  -1.840039e+02   1.465875e+02
  -2.913652e+02  -3.951985e+01
  -1.739143e+02  -2.794379e+02
   7.146735e+01  -2.767679e+02
   2.436673e+02  -1.986115e+01
   2.201059e+02   2.507871e+02
  -1.918322e+00   3.149598e+02
  -2.797045e+02   1.343061e+02
  -3.831863e+02  -1.685330e+02
  -1.956079e+02  -3.732877e+02
   1.080028e+02  -3.294554e+02
   2.482486e+02  -1.191284e+02
   1.607369e+02   1.151256e+01
   9.145259e+01  -2.387592e+01
   2.252023e+02  -6.710661e+01
   4.045854e+02   4.991073e+01
   3.419811e+02   2.871017e+02
   1.304884e+01   4.499584e+02
  -3.568994e+02   4.247360e+02
  -5.022906e+02   2.051399e+02
  -3.575320e+02  -8.974578e+01
  -6.873123e+01  -3.080191e+02
   1.399558e+02  -2.729354e+02
   1.014239e+02  -2.900823e+01
  -1.110020e+02   1.257256e+02
  -2.181746e+02   2.905910e+00
  -6.497703e+01  -2.139821e+02
   1.724242e+02  -1.941924e+02
   1.999938e+02   6.108957e+01
  -1.437971e+01   2.106561e+02
  -2.083610e+02   4.231048e+01
  -1.670298e+02  -2.559634e+02
   3.768432e+01  -3.584047e+02
   2.362037e+02  -1.919230e+02
   3.243435e+02   6.539962e+01
   2.777992e+02   2.376808e+02
   1.004536e+02   2.639984e+02
  -1.119420e+02   1.681679e+02
  -1.893018e+02   2.626992e+01
  -6.564145e+01  -3.819270e+01
   7.617070e+01   3.285312e+01
   3.869049e+01   1.285873e+02
  -1.264299e+02   1.104820e+02
  -1.908281e+02  -9.021825e+00
  -6.464169e+01  -8.027639e+01
   8.560378e+01  -2.423250e+01
   6.312004e+01   7.335987e+01
  -1.205110e+02   9.431810e+01
  -2.837415e+02   1.020913e+01
  -2.728833e+02  -1.319732e+02
  -7.337654e+01  -2.600136e+02
   1.775815e+02  -2.753942e+02
   2.932183e+02  -1.393340e+02
   1.822033e+02   5.401015e+01
  -2.199780e+01   1.193838e+02
  -9.965053e+01   1.139969e+01
   2.747863e+01  -1.135937e+02
   2.012225e+02  -7.030375e+01
   2.253973e+02   1.031260e+02
   7.501091e+01   2.165620e+02
  -9.721678e+01   1.673345e+02
  -1.489501e+02   3.263121e+01
  -7.492898e+01  -4.385691e+01
   2.512277e+01  -7.549824e+00
   3.958592e+01   7.902769e+01
  -6.785733e+01   1.136138e+02
  -1.970168e+02   3.378110e+01
  -1.950128e+02  -1.214708e+02
  -2.456539e+01  -2.246969e+02
   1.680614e+02  -1.709170e+02
   2.028865e+02  -5.352787e+00
   7.184620e+01   1.229900e+02
  -6.671307e+01   1.202058e+02
  -8.863007e+01   3.416774e+01
  -2.491107e+01  -2.611196e+01
   1.607306e+01  -1.977348e+01
  -1.191833e+01   4.262264e+00
  -6.849093e+01  -1.255688e+01
  -8.593639e+01  -8.091177e+01
  -1.812050e+01  -1.567438e+02
   1.219688e+02  -1.560509e+02
   2.339390e+02  -3.456410e+01
   2.104758e+02   1.451845e+02
   4.439733e+01   2.422750e+02
  -1.113594e+02   1.742541e+02
  -1.390341e+02   2.771578e+01
  -7.099677e+01  -5.969546e+01
  -2.741848e+01  -3.804321e+01
  -5.327003e+01   1.186967e+01
  -7.957069e+01   7.980459e+00
  -4.032514e+01  -4.816848e+01
   4.156879e+01  -8.689914e+01
   9.800161e+01  -5.448724e+01
   8.149195e+01   3.356829e+01
  -1.252869e+01   1.073538e+02
  -1.382141e+02   8.628801e+01
  -1.967294e+02  -4.890727e+01
  -1.036072e+02  -2.011179e+02
   1.037554e+02  -2.329806e+02
   2.703252e+02  -9.920571e+01
   2.617661e+02   8.808981e+01
   1.117557e+02   1.808475e+02
  -4.065238e+01   1.516908e+02
  -9.665445e+01   8.383868e+01
  -8.033711e+01   6.824129e+01
  -6.779274e+01   9.087931e+01
  -9.415839e+01   7.429957e+01
  -1.301137e+02  -2.283850e+01
  -1.190346e+02  -1.554767e+02
  -3.033022e+01  -2.275017e+02
   1.001209e+02  -1.752287e+02
   1.806878e+02  -2.292310e+01
   1.419036e+02   1.220175e+02
   2.232352e+01   1.629104e+02
  -6.723052e+01   9.520337e+01
  -6.067391e+01   3.539894e+00
  -5.860335e+00  -4.066235e+01
   7.485852e+00  -3.322181e+01
  -3.898052e+01  -1.939119e+01
  -7.714262e+01  -2.412725e+01
  -4.303255e+01  -4.076102e+01
   6.115850e+01  -3.943843e+01
   1.540581e+02  -6.032199e+00
   1.453796e+02   4.835857e+01
   2.076269e+01   8.923397e+01
  -1.168700e+02   7.648887e+01
  -1.452833e+02   1.490139e+01
  -5.024888e+01  -4.009002e+01
   5.973216e+01  -3.628683e+01
   7.511281e+01   2.003039e+01
   4.483337e+00   6.778158e+01
  -5.928232e+01   5.610716e+01
  -6.262934e+01  -4.785762e+00
  -3.964992e+01  -5.098368e+01
  -4.117446e+01  -4.212070e+01
  -6.218402e+01  -2.436551e+00
  -6.687649e+01  -1.816348e+00
  -3.234910e+01  -6.785215e+01
   3.545932e+01  -1.448973e+02
   1.148873e+02  -1.362834e+02
   1.589662e+02  -2.993190e+01
   1.196496e+02   9.184301e+01
   6.512404e+00   1.241735e+02
  -8.347740e+01   5.820192e+01
  -5.712831e+01  -1.879756e+01
   6.055254e+01  -2.117197e+01
   1.404038e+02   4.469025e+01
   7.821263e+01   1.109339e+02
  -7.903065e+01   1.177309e+02
  -1.897777e+02   5.820525e+01
  -1.630466e+02  -3.186706e+01
  -3.853962e+01  -8.853987e+01
   5.977938e+01  -7.353439e+01
   4.794079e+01  -9.059811e+00
  -3.947316e+01   2.691545e+01
  -8.939345e+01  -2.417704e+01
  -2.920845e+01  -1.204356e+02
   9.614179e+01  -1.518649e+02
   1.694616e+02  -5.673656e+01
   1.252590e+02   1.035829e+02
   6.771882e+00   1.973950e+02
  -8.665789e+01   1.430663e+02
  -1.040740e+02  -6.116521e+00
  -6.101625e+01  -1.170863e+02
   1.306366e+00  -1.069979e+02
   4.478356e+01  -2.118787e+01
   5.300880e+01   3.121747e+01
   2.739616e+01   9.874660e+00
   4.878453e+00  -2.150305e+01
   2.114435e+01   1.405238e+01
   5.502798e+01   9.027803e+01
   4.118517e+01   1.134170e+02
  -4.932811e+01   4.846212e+01
  -1.415114e+02  -3.995781e+01
  -1.328064e+02  -7.408996e+01
  -1.552641e+01  -5.317853e+01
   9.144890e+01  -2.177590e+01
   8.934055e+01  -6.952926e+00
   8.369685e+00   8.486691e+00
  -4.055813e+01   2.265973e+01
  -1.324574e+01   1.873384e+01
   2.365289e+01  -9.661305e-01
  -6.210587e+00  -8.721406e+00
  -7.781835e+01  -4.020010e+00
  -9.310080e+01  -2.526646e+01
  -6.665577e+00  -8.283818e+01
   1.220684e+02  -1.160560e+02
   1.869294e+02  -5.764644e+01
   1.411345e+02   7.162865e+01
   2.271683e+01   1.666310e+02
  -8.105460e+01   1.500908e+02
  -1.142716e+02   5.447798e+01
  -7.975300e+01  -2.475134e+01
  -2.391925e+01  -3.604598e+01
   4.824591e+00  -7.238392e+00
  -9.824840e+00  -1.485454e+00
  -3.373271e+01  -4.376178e+01
  -2.413907e+01  -9.000884e+01
   2.847386e+01  -7.326298e+01
   8.216305e+01   1.878390e+01
   7.747039e+01   1.095349e+02
   1.522488e+00   1.138027e+02
  -8.509181e+01   2.131221e+01
  -1.034228e+02  -7.969742e+01
  -2.885164e+01  -1.045293e+02
   6.883684e+01  -5.366040e+01
   9.695009e+01   1.352453e+01
   3.721520e+01   4.990774e+01
  -3.262820e+01   4.978594e+01
  -3.063417e+01   2.781109e+01
   3.421837e+01  -7.012201e-01
   6.854804e+01  -7.525343e+00
   1.451648e+01   2.512327e+01
  -7.759190e+01   6.440968e+01
  -1.138563e+02   5.554465e+01
  -6.287738e+01  -1.438995e+01
   1.630912e+01  -8.257856e+01
   5.369327e+01  -7.793941e+01
   3.729954e+01  -2.587993e+00
  -2.151731e-01   5.765646e+01
  -2.753931e+01   4.061649e+01
  -3.656114e+01  -2.090137e+01
  -2.447157e+01  -5.477410e+01
   4.312635e+00  -3.100268e+01
   3.295002e+01   1.036239e+01
   3.897944e+01   2.089051e+01
   2.043964e+01   8.444688e-01
   3.695061e-01  -1.320397e+01
  -6.005078e+00   4.719852e+00
  -9.531530e+00   3.735449e+01
  -2.058427e+01   4.226081e+01
  -3.393735e+01   3.628331e+00
  -2.750395e+01  -4.874596e+01
   6.776087e+00  -6.193326e+01
   4.621604e+01  -1.876388e+01
   5.602105e+01   4.150181e+01
   1.352519e+01   6.525391e+01
  -5.516647e+01   3.462172e+01
  -8.853438e+01  -1.563119e+01
  -4.994906e+01  -4.474937e+01
   2.780968e+01  -4.053640e+01
   6.376641e+01  -1.940854e+01
   2.225035e+01  -3.915677e+00
  -3.932132e+01  -4.742142e+00
  -3.783031e+01  -1.959157e+01
   3.319867e+01  -3.415300e+01
   9.409939e+01  -1.895601e+01
