
 $NMID
 id='ANONYMOUS ', fmtdat='(2E16.6)'
 volume=1.0
 tramp=1.0
 $END
  -4.701596e+03  -1.170297e+02
  -2.623370e+03  -2.852145e+03
   8.896882e+02  -2.893904e+03
   2.300186e+03  -7.346202e+02
   9.512493e+02   8.909589e+02
  -8.151972e+02   7.005821e+02
  -1.026583e+03  -4.955327e+02
   1.191337e+01  -1.205700e+03
   9.598422e+02  -8.489747e+02
   1.046622e+03   1.522120e+02
   4.687284e+02   9.890036e+02
  -3.168531e+02   9.810935e+02
  -7.475681e+02   8.981588e+01
  -4.198121e+02  -8.157625e+02
   3.364980e+02  -8.108810e+02
   6.883426e+02   3.381551e+01
   2.816759e+02   7.539637e+02
  -3.736544e+02   6.661555e+02
  -6.145423e+02   6.396529e+01
  -3.942996e+02  -3.980588e+02
   1.066147e+01  -4.688198e+02
   2.890600e+02  -2.725226e+02
   2.558540e+02   1.090931e+01
  -1.139220e+02   1.428565e+02
  -4.608883e+02  -7.502357e+01
  -2.602909e+02  -4.719395e+02
   4.781248e+02  -4.882751e+02
   9.195204e+02   4.975568e+01
   4.754609e+02   6.165762e+02
  -4.227071e+02   5.677454e+02
  -8.182491e+02  -1.796365e+01
  -3.870395e+02  -5.340896e+02
   3.043664e+02  -5.817628e+02
   6.288950e+02  -2.194534e+02
   4.606838e+02   2.712141e+02
   6.473845e+01   5.462384e+02
  -2.677509e+02   3.245361e+02
  -2.419597e+02  -2.562568e+02
   1.704466e+02  -5.174324e+02
   5.191140e+02  -9.913484e+00
   3.006517e+02   7.363913e+02
  -3.624637e+02   7.664415e+02
  -6.948232e+02  -7.973402e+00
  -3.027238e+02  -6.325138e+02
   3.456862e+02  -3.785440e+02
   4.604011e+02   3.408169e+02
  -4.928976e+01   6.043683e+02
  -5.903481e+02   1.660373e+02
  -6.292297e+02  -4.186138e+02
  -1.759770e+02  -6.230344e+02
   4.127397e+02  -3.788349e+02
   6.830323e+02   7.637298e+01
   4.093673e+02   4.281260e+02
  -1.822723e+02   4.127458e+02
  -4.900441e+02   5.042038e+01
  -2.461344e+02  -2.395574e+02
   1.605614e+02  -1.279728e+02
   1.715540e+02   1.886916e+02
  -1.919112e+02   2.294026e+02
  -3.880743e+02  -8.478538e+01
  -1.549665e+02  -3.369022e+02
   2.237960e+02  -2.760418e+02
   3.409497e+02  -6.210076e+01
   1.905944e+02   8.336452e+01
  -1.676087e+01   2.055978e+02
  -1.999914e+02   3.244998e+02
  -3.368702e+02   2.483849e+02
  -3.168252e+02  -1.258309e+02
  -9.957529e+01  -4.623072e+02
   1.366507e+02  -4.169375e+02
   1.529099e+02  -1.110097e+02
   2.763668e+01   3.443076e+01
   2.094952e+01  -8.417025e+01
   1.827117e+02  -1.517669e+02
   3.006246e+02   3.586896e+01
   1.900125e+02   2.821231e+02
  -6.229979e+01   2.885386e+02
  -2.480767e+02   3.352180e+01
  -2.279182e+02  -2.422945e+02
  -5.129554e+00  -3.147441e+02
   2.742166e+02  -1.375684e+02
   3.800545e+02   1.654834e+02
   1.938318e+02   3.719669e+02
  -1.158135e+02   3.257827e+02
  -2.487792e+02   1.192184e+02
  -1.619630e+02  -1.424522e+01
  -9.319133e+01   2.480552e+01
  -2.257958e+02   7.487441e+01
  -4.026058e+02  -4.708154e+01
  -3.373652e+02  -2.831813e+02
   1.317325e-01  -4.459498e+02
   3.556092e+02  -4.247219e+02
   4.977606e+02  -2.060171e+02
   3.561031e+02   9.370101e+01
   6.569999e+01   3.129399e+02
  -1.462060e+02   2.739318e+02
  -1.071469e+02   2.608802e+01
   1.038393e+02  -1.303517e+02
   2.173281e+02  -9.192462e+00
   7.001415e+01   2.119648e+02
  -1.706003e+02   1.964780e+02
  -1.995950e+02  -5.908957e+01
   1.312653e+01  -2.109972e+02
   2.083187e+02  -4.396754e+01
   1.690987e+02   2.545450e+02
  -3.419979e+01   3.564386e+02
  -2.302562e+02   1.957949e+02
  -3.210098e+02  -5.793053e+01
  -2.813993e+02  -2.332015e+02
  -1.106880e+02  -2.672332e+02
   1.072332e+02  -1.721772e+02
   1.891584e+02  -2.663711e+01
   6.705092e+01   4.015694e+01
  -7.720718e+01  -3.432114e+01
  -3.982069e+01  -1.330314e+02
   1.286997e+02  -1.163108e+02
   1.954082e+02   6.654980e+00
   7.313912e+01   8.095053e+01
  -7.687237e+01   2.889386e+01
  -6.108286e+01  -6.407277e+01
   1.140673e+02  -8.551918e+01
   2.770815e+02  -6.501811e+00
   2.663730e+02   1.341173e+02
   7.371588e+01   2.591297e+02
  -1.798103e+02   2.779444e+02
  -2.965846e+02   1.380923e+02
  -1.875514e+02  -5.960424e+01
   1.915087e+01  -1.277173e+02
   1.017599e+02  -1.431535e+01
  -2.015529e+01   1.122841e+02
  -1.961018e+02   7.231595e+01
  -2.273316e+02  -9.970538e+01
  -8.076922e+01  -2.174947e+02
   9.426077e+01  -1.697305e+02
   1.527863e+02  -3.412832e+01
   8.096738e+01   4.750513e+01
  -2.634913e+01   1.464402e+01
  -4.529886e+01  -7.627934e+01
   6.027617e+01  -1.174951e+02
   1.950919e+02  -4.045345e+01
   1.994398e+02   1.180079e+02
   3.058578e+01   2.243204e+02
  -1.663932e+02   1.742234e+02
  -2.043105e+02   9.055643e+00
  -7.398202e+01  -1.215961e+02
   6.800629e+01  -1.209027e+02
   8.939365e+01  -3.390403e+01
   2.544955e+01   2.836839e+01
  -1.890428e+01   2.448318e+01
   8.609123e+00  -2.171690e+00
   6.459721e+01   9.777655e+00
   8.518341e+01   7.723769e+01
   1.900063e+01   1.552935e+02
  -1.188082e+02   1.578668e+02
  -2.324954e+02   3.644361e+01
  -2.097187e+02  -1.454231e+02
  -5.057554e+01  -2.422806e+02
   1.089682e+02  -1.790120e+02
   1.420633e+02  -2.879943e+01
   7.505569e+01   5.942914e+01
   2.805771e+01   3.902711e+01
   5.172923e+01  -1.250685e+01
   7.674365e+01  -6.532994e+00
   3.872192e+01   4.689794e+01
  -4.047906e+01   8.340779e+01
  -9.474478e+01   5.336985e+01
  -8.181641e+01  -2.997806e+01
   7.156282e+00  -1.042254e+02
   1.328986e+02  -8.892537e+01
   1.982795e+02   4.052696e+01
   1.126815e+02   1.973425e+02
  -9.701735e+01   2.381547e+02
  -2.692428e+02   1.125405e+02
  -2.671209e+02  -8.000667e+01
  -1.172446e+02  -1.802551e+02
   3.575948e+01  -1.538506e+02
   9.304179e+01  -8.649259e+01
   7.603804e+01  -6.947383e+01
   6.535540e+01  -9.147315e+01
   9.190761e+01  -7.667175e+01
   1.313028e+02   1.949656e+01
   1.231286e+02   1.540530e+02
   3.338051e+01   2.257833e+02
  -9.802752e+01   1.779976e+02
  -1.796165e+02   2.744501e+01
  -1.428172e+02  -1.193644e+02
  -2.650922e+01  -1.633366e+02
   6.410787e+01  -9.889492e+01
   6.246515e+01  -7.445927e+00
   1.184450e+01   3.891585e+01
  -2.484497e+00   3.444527e+01
   3.867839e+01   1.961784e+01
   7.489064e+01   2.436598e+01
   4.425895e+01   3.884081e+01
  -5.733785e+01   4.029347e+01
  -1.515578e+02   9.921599e+00
  -1.451656e+02  -4.536090e+01
  -2.350339e+01  -8.944250e+01
   1.142487e+02  -7.787847e+01
   1.478954e+02  -1.519088e+01
   5.376140e+01   4.127868e+01
  -5.880424e+01   3.987712e+01
  -7.811549e+01  -1.755349e+01
  -8.656077e+00  -6.808068e+01
   5.641359e+01  -5.747590e+01
   6.289586e+01   2.442384e+00
   4.144813e+01   4.929989e+01
   4.135609e+01   4.214865e+01
   6.201344e+01   1.571453e+00
   6.587661e+01  -8.375769e-01
   3.404062e+01   6.464873e+01
  -3.161204e+01   1.443352e+02
  -1.098613e+02   1.423981e+02
  -1.579392e+02   3.706927e+01
  -1.238810e+02  -8.768394e+01
  -1.226926e+01  -1.256370e+02
   8.155797e+01  -6.227956e+01
   6.069867e+01   1.516468e+01
  -5.623511e+01   2.147695e+01
  -1.390942e+02  -4.145269e+01
  -8.006301e+01  -1.076383e+02
   7.656286e+01  -1.158184e+02
   1.881962e+02  -5.836322e+01
   1.642692e+02   3.102263e+01
   4.149142e+01   8.804225e+01
  -5.803646e+01   7.288910e+01
  -4.950471e+01   1.010032e+01
   3.651882e+01  -2.661956e+01
   8.869549e+01   2.115171e+01
   3.232745e+01   1.187211e+02
  -9.166278e+01   1.541122e+02
  -1.685684e+02   6.057249e+01
  -1.280746e+02  -1.012793e+02
  -9.424359e+00  -1.982967e+02
   8.838820e+01  -1.459437e+02
   1.085623e+02   6.008346e+00
   6.454751e+01   1.187443e+02
  -5.658312e-02   1.100453e+02
  -4.662636e+01   2.378698e+01
  -5.497643e+01  -3.091297e+01
  -2.852372e+01  -9.592336e+00
  -3.869283e+00   2.121299e+01
  -1.992820e+01  -1.262138e+01
  -5.757813e+01  -8.677859e+01
  -4.428563e+01  -1.135352e+02
   4.624100e+01  -5.103987e+01
   1.418741e+02   3.659546e+01
   1.340611e+02   7.335320e+01
   1.834059e+01   5.349055e+01
  -9.020946e+01   2.401765e+01
  -8.824977e+01   7.004922e+00
  -9.040713e+00  -8.128467e+00
   3.922423e+01  -2.298303e+01
   1.353610e+01  -1.953129e+01
  -2.329010e+01  -3.215729e-02
   6.502358e+00   8.941282e+00
   7.583400e+01   6.247538e+00
   9.075571e+01   2.557762e+01
   4.941249e+00   8.124098e+01
  -1.192511e+02   1.130921e+02
  -1.829828e+02   5.747462e+01
  -1.396771e+02  -6.800138e+01
  -2.698733e+01  -1.634210e+02
   7.472395e+01  -1.513801e+02
   1.134060e+02  -5.978160e+01
   8.339365e+01   2.157770e+01
   2.656576e+01   3.613478e+01
  -4.325061e+00   7.899151e+00
   9.198371e+00   1.352516e+00
   3.491041e+01   4.322106e+01
   2.460304e+01   9.076799e+01
  -3.074784e+01   7.203038e+01
  -8.208182e+01  -1.855220e+01
  -7.482948e+01  -1.106289e+02
   9.303364e-01  -1.131993e+02
   8.555091e+01  -2.214683e+01
   1.020610e+02   7.755373e+01
   2.978207e+01   1.037323e+02
  -6.583794e+01   5.488688e+01
  -9.541213e+01  -1.128693e+01
  -3.831671e+01  -4.743070e+01
   3.007098e+01  -4.915840e+01
   2.927763e+01  -2.813853e+01
  -3.355810e+01  -1.718864e+00
  -6.772279e+01   6.652337e+00
  -1.615207e+01  -2.421471e+01
   7.420803e+01  -6.462040e+01
   1.113386e+02  -6.002269e+01
   6.323174e+01   9.353960e+00
  -1.386115e+01   8.111175e+01
  -4.960009e+01   7.817786e+01
  -3.551143e+01   4.359969e+00
  -2.525279e-01  -5.617197e+01
   2.746945e+01  -4.029679e+01
   3.723689e+01   2.118877e+01
   2.561890e+01   5.482065e+01
  -3.930924e+00   3.125274e+01
  -3.368502e+01  -9.638695e+00
  -3.949023e+01  -2.070494e+01
  -2.108214e+01  -9.692264e-01
  -8.825194e-02   1.211089e+01
   6.460538e+00  -7.034848e+00
   8.608081e+00  -3.883228e+01
   2.020759e+01  -4.281510e+01
   3.351700e+01  -3.749664e+00
   2.724317e+01   4.750987e+01
  -5.860564e+00   6.074098e+01
  -4.581668e+01   1.949635e+01
  -5.569776e+01  -4.033984e+01
  -1.377566e+01  -6.407233e+01
   5.353403e+01  -3.478112e+01
   8.666501e+01   1.574965e+01
   4.850861e+01   4.398347e+01
  -2.821431e+01   3.958007e+01
  -6.350135e+01   1.898383e+01
  -2.246842e+01   2.693769e+00
   4.032353e+01   3.291505e+00
   3.846308e+01   2.000176e+01
  -3.168677e+01   3.489499e+01
  -9.403927e+01   1.961783e+01
