
 $NMID
 id='ANONYMOUS ', fmtdat='(2E16.6)'
 volume=1.0
 tramp=1.0
 $END
  -4.660572e+03  -1.421600e+02
  -2.478677e+03  -2.841095e+03
   9.219646e+02  -2.814505e+03
   2.292847e+03  -7.519606e+02
   9.364793e+02   8.265370e+02
  -7.535551e+02   6.162018e+02
  -9.560098e+02  -4.989499e+02
   3.692781e+01  -1.159237e+03
   9.347266e+02  -8.123675e+02
   1.015625e+03   1.497444e+02
   4.514722e+02   9.629840e+02
  -3.206634e+02   9.733037e+02
  -7.211886e+02   8.206152e+01
  -3.923757e+02  -8.076751e+02
   3.287228e+02  -7.837700e+02
   6.592356e+02   4.732456e+01
   2.592418e+02   7.352017e+02
  -3.669344e+02   6.416347e+02
  -6.149745e+02   5.396062e+01
  -3.855755e+02  -3.907035e+02
   9.537827e+00  -4.540803e+02
   2.737889e+02  -2.641526e+02
   2.443737e+02   8.995508e+00
  -1.105185e+02   1.368775e+02
  -4.500787e+02  -8.844590e+01
  -2.420714e+02  -4.675930e+02
   4.677672e+02  -4.730886e+02
   9.034005e+02   5.987574e+01
   4.606772e+02   5.936219e+02
  -4.159600e+02   5.376669e+02
  -7.923614e+02  -3.330372e+01
  -3.741464e+02  -5.249038e+02
   3.011206e+02  -5.609909e+02
   6.118143e+02  -2.067051e+02
   4.493767e+02   2.633024e+02
   5.035002e+01   5.261446e+02
  -2.527643e+02   2.915735e+02
  -2.039696e+02  -2.636579e+02
   1.998949e+02  -4.961038e+02
   5.102135e+02   2.511604e+01
   2.621549e+02   7.485080e+02
  -3.805740e+02   7.610247e+02
  -6.812329e+02  -2.525142e+01
  -2.842763e+02  -6.311675e+02
   3.341356e+02  -3.580162e+02
   4.327954e+02   3.466923e+02
  -6.732372e+01   5.977405e+02
  -5.862312e+02   1.586966e+02
  -6.242893e+02  -4.193394e+02
  -1.769901e+02  -6.162850e+02
   4.109604e+02  -3.686715e+02
   6.704906e+02   7.968389e+01
   3.899863e+02   4.233879e+02
  -1.855511e+02   3.965071e+02
  -4.817812e+02   4.206312e+01
  -2.370282e+02  -2.339343e+02
   1.553683e+02  -1.178366e+02
   1.565281e+02   1.815955e+02
  -1.916349e+02   2.118408e+02
  -3.772587e+02  -8.166109e+01
  -1.477268e+02  -3.288913e+02
   2.154567e+02  -2.729274e+02
   3.357983e+02  -6.973254e+01
   1.982492e+02   8.249762e+01
  -7.123534e+00   2.149414e+02
  -2.059160e+02   3.292515e+02
  -3.424273e+02   2.335303e+02
  -3.119101e+02  -1.365209e+02
  -8.160142e+01  -4.585707e+02
   1.425522e+02  -3.999600e+02
   1.461212e+02  -9.743281e+01
   2.001717e+01   3.773737e+01
   1.907039e+01  -8.069407e+01
   1.805958e+02  -1.522920e+02
   2.906167e+02   3.527049e+01
   1.779509e+02   2.760628e+02
  -6.779961e+01   2.773525e+02
  -2.445330e+02   2.510300e+01
  -2.201222e+02  -2.459821e+02
   2.462968e+00  -3.107338e+02
   2.746761e+02  -1.305652e+02
   3.753332e+02   1.657895e+02
   1.891150e+02   3.632561e+02
  -1.133124e+02   3.173123e+02
  -2.432016e+02   1.170078e+02
  -1.603066e+02  -8.838961e+00
  -9.498082e+01   2.614090e+01
  -2.290414e+02   6.719784e+01
  -3.994747e+02  -5.184328e+01
  -3.357777e+02  -2.804718e+02
  -6.755146e+00  -4.474751e+02
   3.460586e+02  -4.219797e+02
   4.935774e+02  -2.063387e+02
   3.532819e+02   9.510590e+01
   6.510344e+01   3.093877e+02
  -1.408526e+02   2.640923e+02
  -1.007865e+02   2.003829e+01
   1.077292e+02  -1.236003e+02
   2.155053e+02   3.848763e-01
   6.013494e+01   2.106889e+02
  -1.742413e+02   1.880225e+02
  -1.952310e+02  -6.190703e+01
   1.674897e+01  -2.075129e+02
   2.054022e+02  -4.542546e+01
   1.695460e+02   2.408450e+02
  -2.893730e+01   3.474276e+02
  -2.229498e+02   1.954765e+02
  -3.159369e+02  -5.387394e+01
  -2.775154e+02  -2.318516e+02
  -1.034701e+02  -2.661122e+02
   1.131362e+02  -1.679668e+02
   1.897754e+02  -1.926226e+01
   6.171404e+01   4.567804e+01
  -8.165936e+01  -3.233737e+01
  -4.213944e+01  -1.325394e+02
   1.244434e+02  -1.141616e+02
   1.910221e+02   7.912290e+00
   6.763871e+01   7.846283e+01
  -7.935806e+01   2.462452e+01
  -6.089993e+01  -6.877277e+01
   1.185867e+02  -9.149200e+01
   2.801094e+02  -1.020454e+01
   2.706011e+02   1.332939e+02
   7.429374e+01   2.578589e+02
  -1.781806e+02   2.747763e+02
  -2.925803e+02   1.360593e+02
  -1.829691e+02  -5.627932e+01
   2.177610e+01  -1.219963e+02
   9.930396e+01  -1.135565e+01
  -2.741571e+01   1.091386e+02
  -2.001162e+02   6.622242e+01
  -2.229742e+02  -1.052157e+02
  -7.350150e+01  -2.184416e+02
   9.815501e+01  -1.663027e+02
   1.532793e+02  -2.979446e+01
   7.755442e+01   4.906502e+01
  -2.785287e+01   1.313173e+01
  -4.625712e+01  -7.616817e+01
   6.008405e+01  -1.168735e+02
   1.939108e+02  -3.899972e+01
   1.961085e+02   1.180761e+02
   2.619248e+01   2.218440e+02
  -1.669714e+02   1.693533e+02
  -2.009660e+02   3.092248e+00
  -7.075760e+01  -1.238950e+02
   6.885466e+01  -1.197572e+02
   9.042132e+01  -3.337570e+01
   2.588252e+01   2.865142e+01
  -1.786805e+01   2.474468e+01
   7.749877e+00  -2.925985e+00
   6.686440e+01   8.067770e+00
   8.882630e+01   7.830802e+01
   2.020746e+01   1.579753e+02
  -1.218896e+02   1.592803e+02
  -2.370318e+02   3.515094e+01
  -2.110238e+02  -1.490010e+02
  -4.598431e+01  -2.417972e+02
   1.128588e+02  -1.757612e+02
   1.421064e+02  -2.747757e+01
   7.312599e+01   5.958879e+01
   2.775826e+01   3.935323e+01
   5.247509e+01  -1.143038e+01
   7.755286e+01  -5.960626e+00
   3.890472e+01   4.678263e+01
  -4.007094e+01   8.387096e+01
  -9.542278e+01   5.442235e+01
  -8.192452e+01  -3.054067e+01
   7.219751e+00  -1.048252e+02
   1.324933e+02  -8.822405e+01
   1.956962e+02   4.162211e+01
   1.089060e+02   1.956567e+02
  -9.757175e+01   2.341916e+02
  -2.683545e+02   1.071287e+02
  -2.649270e+02  -8.306695e+01
  -1.149706e+02  -1.810037e+02
   3.920552e+01  -1.525500e+02
   9.644430e+01  -8.309535e+01
   7.865922e+01  -6.571963e+01
   6.542356e+01  -8.883192e+01
   9.059738e+01  -7.521543e+01
   1.275280e+02   1.880351e+01
   1.191141e+02   1.526032e+02
   3.392249e+01   2.254114e+02
  -9.642393e+01   1.752528e+02
  -1.785763e+02   2.456102e+01
  -1.428223e+02  -1.199232e+02
  -2.456419e+01  -1.621890e+02
   6.717878e+01  -9.618605e+01
   6.409503e+01  -4.367519e+00
   9.702398e+00   4.226924e+01
  -7.765923e+00   3.591473e+01
   3.552593e+01   1.826437e+01
   7.521945e+01   2.261828e+01
   4.524588e+01   3.978577e+01
  -5.849037e+01   4.190890e+01
  -1.522826e+02   8.880674e+00
  -1.459021e+02  -4.714053e+01
  -2.253376e+01  -9.004015e+01
   1.153243e+02  -7.825980e+01
   1.459090e+02  -1.460076e+01
   5.204735e+01   4.120597e+01
  -5.880092e+01   3.792885e+01
  -7.616932e+01  -1.895058e+01
  -7.777987e+00  -6.744499e+01
   5.635333e+01  -5.587240e+01
   6.213275e+01   2.592990e+00
   4.030846e+01   4.847219e+01
   4.126232e+01   4.091265e+01
   6.143383e+01   3.025355e+00
   6.580056e+01   9.987787e-01
   3.369177e+01   6.554343e+01
  -3.254577e+01   1.425455e+02
  -1.125174e+02   1.378475e+02
  -1.576518e+02   3.303682e+01
  -1.207803e+02  -8.844575e+01
  -9.757472e+00  -1.233850e+02
   8.134780e+01  -5.911084e+01
   5.960823e+01   1.793208e+01
  -5.779317e+01   2.320203e+01
  -1.406325e+02  -4.314678e+01
  -8.073100e+01  -1.087601e+02
   7.502991e+01  -1.162865e+02
   1.887649e+02  -5.731566e+01
   1.633364e+02   3.130061e+01
   4.024072e+01   8.743536e+01
  -5.801542e+01   7.303038e+01
  -4.830105e+01   9.882655e+00
   3.687303e+01  -2.661795e+01
   8.790178e+01   2.162296e+01
   3.078795e+01   1.182510e+02
  -9.214518e+01   1.532344e+02
  -1.701505e+02   6.104825e+01
  -1.293874e+02  -1.015743e+02
  -9.964598e+00  -1.994684e+02
   8.935776e+01  -1.457743e+02
   1.073098e+02   5.779844e+00
   6.123004e+01   1.178661e+02
  -3.334505e+00   1.059367e+02
  -4.647703e+01   2.049302e+01
  -5.018480e+01  -3.201442e+01
  -2.478149e+01  -1.047925e+01
  -2.878532e+00   2.211774e+01
  -2.053236e+01  -1.128167e+01
  -5.641489e+01  -8.537261e+01
  -4.365642e+01  -1.101797e+02
   4.412989e+01  -5.112998e+01
   1.375053e+02   3.515820e+01
   1.334228e+02   7.202437e+01
   1.950368e+01   5.302192e+01
  -8.824623e+01   2.145786e+01
  -8.823894e+01   6.813124e+00
  -1.008884e+01  -7.506003e+00
   4.025148e+01  -2.221267e+01
   1.526010e+01  -1.795637e+01
  -2.216585e+01   7.011896e-01
   4.791532e+00   8.880343e+00
   7.305475e+01   4.948231e+00
   8.904780e+01   2.318690e+01
   6.621953e+00   7.733099e+01
  -1.155398e+02   1.110502e+02
  -1.772916e+02   5.802145e+01
  -1.360186e+02  -6.458157e+01
  -2.654586e+01  -1.609984e+02
   7.320299e+01  -1.485445e+02
   1.107676e+02  -5.675477e+01
   8.174444e+01   2.415426e+01
   2.560490e+01   3.628268e+01
  -4.227645e+00   6.061115e+00
   9.496045e+00   3.090267e-01
   3.553976e+01   4.351983e+01
   2.603987e+01   9.095216e+01
  -2.961449e+01   7.339139e+01
  -8.299783e+01  -1.691540e+01
  -7.623843e+01  -1.068557e+02
  -5.190560e-01  -1.104552e+02
   8.407376e+01  -2.223210e+01
   1.006605e+02   7.610645e+01
   2.894805e+01   1.029176e+02
  -6.568513e+01   5.412056e+01
  -9.430143e+01  -1.185284e+01
  -3.827576e+01  -4.857148e+01
   3.029341e+01  -4.991213e+01
   3.014786e+01  -2.790649e+01
  -3.175568e+01  -1.770477e-01
  -6.680074e+01   7.194689e+00
  -1.670906e+01  -2.454704e+01
   7.438969e+01  -6.560908e+01
   1.136874e+02  -5.693031e+01
   6.504265e+01   1.247077e+01
  -1.415828e+01   8.163054e+01
  -5.165591e+01   7.765648e+01
  -3.576286e+01   3.672946e+00
   3.337099e-02  -5.637451e+01
   2.721582e+01  -4.105184e+01
   3.635832e+01   2.074306e+01
   2.525767e+01   5.481216e+01
  -3.694428e+00   3.138729e+01
  -3.303144e+01  -9.469985e+00
  -3.855673e+01  -1.974552e+01
  -1.979975e+01  -2.480256e-01
   5.008968e-01   1.332777e+01
   5.844149e+00  -4.886416e+00
   6.441014e+00  -3.779476e+01
   1.731682e+01  -4.289553e+01
   3.264810e+01  -4.780553e+00
   2.838479e+01   4.581218e+01
  -4.449073e+00   5.965316e+01
  -4.523296e+01   1.921284e+01
  -5.558396e+01  -3.947180e+01
  -1.375810e+01  -6.307947e+01
   5.291628e+01  -3.427648e+01
   8.544037e+01   1.538141e+01
   4.815308e+01   4.430167e+01
  -2.880936e+01   4.034872e+01
  -6.393101e+01   1.889779e+01
  -2.266507e+01   2.577054e+00
   3.810397e+01   4.112043e+00
   3.680568e+01   1.869688e+01
  -3.161843e+01   3.292947e+01
  -9.224402e+01   1.758069e+01
