
 $NMID
 id='ANONYMOUS ', fmtdat='(2E16.6)'
 volume=1.0
 tramp=1.0
 $END
   4.490416e+03  -2.923878e+02
   2.927410e+03   2.821288e+03
  -7.137499e+02   3.133993e+03
  -2.345398e+03   9.797957e+02
  -1.106625e+03  -7.877779e+02
   7.088767e+02  -7.453932e+02
   1.044789e+03   4.209378e+02
   4.774637e+01   1.178727e+03
  -8.799200e+02   8.782003e+02
  -1.027196e+03  -8.393633e+01
  -5.087568e+02  -9.385042e+02
   2.611580e+02  -9.697630e+02
   7.060005e+02  -1.517294e+02
   4.450833e+02   7.573551e+02
  -2.698449e+02   8.106774e+02
  -6.647081e+02  -1.807147e+00
  -3.020905e+02  -7.311336e+02
   3.555663e+02  -6.843512e+02
   6.392062e+02  -8.375771e+01
   4.181475e+02   3.985550e+02
   1.808697e+01   4.867751e+02
  -2.718324e+02   3.031195e+02
  -2.566934e+02   3.690710e+01
   8.354951e+01  -9.748529e+01
   4.154078e+02   8.887724e+01
   2.265848e+02   4.255339e+02
  -4.525266e+02   4.493057e+02
  -9.021712e+02  -4.310887e+01
  -5.000395e+02  -5.673596e+02
   3.797783e+02  -5.467125e+02
   7.905872e+02  -1.131283e+01
   3.974961e+02   4.919614e+02
  -2.725300e+02   5.630474e+02
  -5.948173e+02   2.273273e+02
  -4.542705e+02  -2.346003e+02
  -8.701269e+01  -5.192281e+02
   2.216016e+02  -3.248958e+02
   2.199035e+02   2.169482e+02
  -1.400218e+02   4.820748e+02
  -4.802390e+02   2.993890e+01
  -3.053549e+02  -6.948885e+02
   3.003607e+02  -7.607139e+02
   6.503825e+02  -4.204736e+01
   3.068885e+02   5.729836e+02
  -2.962917e+02   3.623273e+02
  -4.239242e+02  -3.152582e+02
   5.355884e+01  -5.783441e+02
   5.740011e+02  -1.730533e+02
   6.287843e+02   4.075285e+02
   1.815642e+02   6.138377e+02
  -3.911969e+02   3.787022e+02
  -6.554599e+02  -6.762017e+01
  -4.014742e+02  -4.092004e+02
   1.575378e+02  -4.040804e+02
   4.813888e+02  -6.604602e+01
   2.742091e+02   2.223653e+02
  -1.289504e+02   1.362807e+02
  -1.773442e+02  -1.610684e+02
   1.568302e+02  -2.178606e+02
   3.777277e+02   5.987094e+01
   1.710935e+02   3.172114e+02
  -2.065359e+02   2.819988e+02
  -3.463402e+02   7.561921e+01
  -2.007984e+02  -9.527611e+01
   2.708707e+01  -2.265134e+02
   2.180636e+02  -3.249177e+02
   3.393727e+02  -2.181345e+02
   3.086604e+02   1.430445e+02
   8.923954e+01   4.593447e+02
  -1.265053e+02   4.008843e+02
  -1.403015e+02   1.163723e+02
  -3.930158e+01  -2.140993e+01
  -3.499526e+01   8.018318e+01
  -1.835140e+02   1.371957e+02
  -2.825141e+02  -4.381246e+01
  -1.746080e+02  -2.726732e+02
   6.466927e+01  -2.734251e+02
   2.362709e+02  -2.570751e+01
   2.166369e+02   2.354095e+02
   6.030632e+00   3.049506e+02
  -2.665188e+02   1.356969e+02
  -3.810287e+02  -1.584839e+02
  -2.043549e+02  -3.614756e+02
   1.021309e+02  -3.239118e+02
   2.480522e+02  -1.254661e+02
   1.621093e+02   7.116459e+00
   8.651912e+01  -2.148794e+01
   2.139645e+02  -6.991512e+01
   3.928564e+02   4.302556e+01
   3.456737e+02   2.802237e+02
   1.655312e+01   4.470045e+02
  -3.610575e+02   4.247352e+02
  -5.021594e+02   2.099302e+02
  -3.510507e+02  -8.524993e+01
  -7.175678e+01  -3.009672e+02
   1.265380e+02  -2.655349e+02
   9.394913e+01  -3.847250e+01
  -9.998201e+01   1.193320e+02
  -2.029125e+02   7.658526e+00
  -6.858194e+01  -2.023088e+02
   1.607914e+02  -1.923897e+02
   1.929858e+02   4.995331e+01
  -5.002119e+00   2.037672e+02
  -1.955984e+02   4.317704e+01
  -1.688353e+02  -2.525382e+02
   3.203845e+01  -3.629476e+02
   2.389558e+02  -1.988500e+02
   3.366394e+02   6.695936e+01
   2.892183e+02   2.468595e+02
   1.033730e+02   2.739764e+02
  -1.144950e+02   1.712836e+02
  -1.864474e+02   2.764439e+01
  -6.707573e+01  -3.570482e+01
   7.166759e+01   3.210949e+01
   3.739709e+01   1.255560e+02
  -1.219818e+02   1.047264e+02
  -1.848846e+02  -1.048200e+01
  -6.514039e+01  -7.778339e+01
   7.907483e+01  -2.484038e+01
   6.096069e+01   6.795317e+01
  -1.136100e+02   8.670768e+01
  -2.723164e+02   6.090288e+00
  -2.605047e+02  -1.298451e+02
  -6.802628e+01  -2.511512e+02
   1.729783e+02  -2.649018e+02
   2.803527e+02  -1.336449e+02
   1.805966e+02   4.925155e+01
  -1.806151e+01   1.188300e+02
  -9.555082e+01   1.554573e+01
   2.514418e+01  -1.080131e+02
   1.959726e+02  -7.282194e+01
   2.210433e+02   9.754390e+01
   7.834503e+01   2.182764e+02
  -9.267347e+01   1.713866e+02
  -1.485078e+02   3.574385e+01
  -7.872060e+01  -4.057330e+01
   2.249495e+01  -4.097403e+00
   3.598958e+01   8.046233e+01
  -6.974398e+01   1.124278e+02
  -1.980409e+02   3.111892e+01
  -1.973594e+02  -1.236626e+02
  -2.660734e+01  -2.239731e+02
   1.673399e+02  -1.697334e+02
   2.029595e+02  -8.249625e+00
   7.349618e+01   1.195832e+02
  -6.550273e+01   1.181766e+02
  -8.790219e+01   3.419088e+01
  -2.215876e+01  -2.500911e+01
   1.907152e+01  -1.793047e+01
  -1.113872e+01   6.150939e+00
  -7.050513e+01  -9.850281e+00
  -8.590688e+01  -8.161494e+01
  -1.464045e+01  -1.549284e+02
   1.233826e+02  -1.531050e+02
   2.330238e+02  -3.151687e+01
   2.049800e+02   1.442424e+02
   4.778755e+01   2.419847e+02
  -1.088382e+02   1.782827e+02
  -1.393403e+02   3.078008e+01
  -7.395936e+01  -5.826454e+01
  -2.820805e+01  -3.786103e+01
  -5.259325e+01   1.093705e+01
  -7.737329e+01   6.233890e+00
  -3.890849e+01  -5.049587e+01
   4.459801e+01  -8.540343e+01
   1.019067e+02  -5.096925e+01
   8.166146e+01   3.806281e+01
  -1.572052e+01   1.103411e+02
  -1.409487e+02   8.665916e+01
  -1.982614e+02  -4.884440e+01
  -1.060531e+02  -2.010418e+02
   1.018570e+02  -2.341964e+02
   2.698695e+02  -1.032757e+02
   2.636015e+02   8.329982e+01
   1.177814e+02   1.798752e+02
  -3.643694e+01   1.524117e+02
  -9.622409e+01   8.768867e+01
  -8.320458e+01   7.308218e+01
  -6.986082e+01   9.390576e+01
  -9.686135e+01   7.543788e+01
  -1.333048e+02  -2.330961e+01
  -1.216937e+02  -1.577565e+02
  -3.131522e+01  -2.328026e+02
   1.005045e+02  -1.757546e+02
   1.802654e+02  -2.187358e+01
   1.402494e+02   1.220019e+02
   1.958257e+01   1.594161e+02
  -6.779807e+01   9.291838e+01
  -5.975859e+01   1.244851e+00
  -5.096583e+00  -4.062135e+01
   9.174863e+00  -3.153420e+01
  -3.759738e+01  -1.723507e+01
  -8.084391e+01  -2.415774e+01
  -4.424211e+01  -4.107173e+01
   6.268805e+01  -3.779747e+01
   1.552604e+02  -2.872481e+00
   1.426612e+02   5.005064e+01
   1.776674e+01   8.721924e+01
  -1.184945e+02   7.465239e+01
  -1.428200e+02   1.412759e+01
  -4.623724e+01  -4.200072e+01
   6.173909e+01  -3.838442e+01
   7.641584e+01   2.015445e+01
   6.455060e+00   7.175326e+01
  -5.794645e+01   6.032088e+01
  -6.365183e+01  -3.224479e+00
  -4.255508e+01  -5.331824e+01
  -4.188310e+01  -4.253089e+01
  -6.044838e+01   1.415144e+00
  -6.714104e+01   1.724372e+00
  -3.672138e+01  -7.024187e+01
   3.284991e+01  -1.509131e+02
   1.185610e+02  -1.448628e+02
   1.670807e+02  -3.209208e+01
   1.251519e+02   9.525333e+01
   7.159535e+00   1.289037e+02
  -8.776547e+01   6.140203e+01
  -6.333032e+01  -1.575245e+01
   5.690802e+01  -2.072492e+01
   1.357568e+02   4.187574e+01
   7.683797e+01   1.077904e+02
  -8.003437e+01   1.146614e+02
  -1.937342e+02   5.324143e+01
  -1.671566e+02  -3.331862e+01
  -3.903222e+01  -8.947012e+01
   6.144041e+01  -7.438273e+01
   4.914630e+01  -9.989469e+00
  -3.942688e+01   2.734246e+01
  -9.258728e+01  -2.383318e+01
  -3.349540e+01  -1.226186e+02
   9.557753e+01  -1.593635e+02
   1.755309e+02  -6.303050e+01
   1.305126e+02   1.054780e+02
   9.822385e+00   2.029831e+02
  -8.722655e+01   1.445682e+02
  -1.074370e+02  -7.266987e+00
  -6.350921e+01  -1.175136e+02
  -2.979036e-02  -1.057035e+02
   4.480711e+01  -1.997585e+01
   5.166021e+01   2.956957e+01
   2.546424e+01   5.629945e+00
   3.537411e+00  -2.226507e+01
   2.071277e+01   1.547475e+01
   5.708064e+01   8.780374e+01
   4.333651e+01   1.091364e+02
  -4.716093e+01   4.566157e+01
  -1.394285e+02  -3.839721e+01
  -1.291253e+02  -7.155649e+01
  -1.618065e+01  -5.156130e+01
   8.877115e+01  -2.479044e+01
   8.833206e+01  -9.341631e+00
   1.013608e+01   6.752327e+00
  -3.863203e+01   2.298353e+01
  -1.312665e+01   1.837518e+01
   2.217101e+01  -8.005573e-01
  -5.887431e+00  -9.044383e+00
  -7.521535e+01  -3.701260e+00
  -9.221800e+01  -2.506730e+01
  -7.413395e+00  -8.118650e+01
   1.214637e+02  -1.139763e+02
   1.865914e+02  -5.676848e+01
   1.405253e+02   6.895811e+01
   2.497644e+01   1.628427e+02
  -7.890463e+01   1.499583e+02
  -1.148385e+02   5.728335e+01
  -8.259067e+01  -2.343457e+01
  -2.588112e+01  -3.755712e+01
   4.089306e+00  -1.006975e+01
  -8.045611e+00  -3.929026e+00
  -3.172534e+01  -4.495730e+01
  -2.273765e+01  -8.921368e+01
   2.854998e+01  -7.148883e+01
   8.202693e+01   2.044804e+01
   7.686775e+01   1.112722e+02
   1.201640e+00   1.147509e+02
  -8.651755e+01   2.346050e+01
  -1.050424e+02  -7.753915e+01
  -3.099281e+01  -1.066975e+02
   6.872058e+01  -5.655364e+01
   9.824069e+01   1.302865e+01
   3.777633e+01   5.118618e+01
  -3.344941e+01   5.067870e+01
  -3.023950e+01   2.495304e+01
   3.648537e+01  -2.394291e+00
   7.168356e+01  -6.066728e+00
   1.454912e+01   2.811175e+01
  -8.085620e+01   6.833985e+01
  -1.172253e+02   5.778707e+01
  -6.362475e+01  -1.550696e+01
   1.587810e+01  -8.492204e+01
   5.347970e+01  -7.719118e+01
   3.802169e+01  -2.155056e+00
   6.961871e-01   5.772187e+01
  -2.692005e+01   4.271016e+01
  -3.812134e+01  -2.016822e+01
  -2.569568e+01  -5.558885e+01
   5.149590e+00  -3.244656e+01
   3.392360e+01   9.892547e+00
   3.727098e+01   2.163271e+01
   1.847007e+01   1.374749e+00
  -4.408548e-01  -1.404564e+01
  -5.831731e+00   3.854966e+00
  -7.642941e+00   3.891930e+01
  -1.970312e+01   4.628085e+01
  -3.519402e+01   5.997103e+00
  -2.961506e+01  -4.845938e+01
   4.735213e+00  -6.263563e+01
   4.669119e+01  -2.001355e+01
   5.646577e+01   4.150439e+01
   1.417177e+01   6.461547e+01
  -5.497009e+01   3.365480e+01
  -8.883069e+01  -1.611582e+01
  -4.886186e+01  -4.484819e+01
   2.908583e+01  -4.080775e+01
   6.596518e+01  -2.052503e+01
   2.461783e+01  -2.680192e+00
  -3.936462e+01  -1.428023e+00
  -3.973808e+01  -1.746050e+01
   3.124425e+01  -3.466632e+01
   9.318646e+01  -2.247619e+01
