
 $NMID
 id='ANONYMOUS ', fmtdat='(2E16.6)'
 volume=1.0
 tramp=1.0
 $END
   4.553346e+03  -4.477773e+01
   2.640581e+03   2.906923e+03
  -9.797668e+02   3.039993e+03
  -2.462780e+03   7.824482e+02
  -1.029270e+03  -9.865959e+02
   8.915460e+02  -7.599910e+02
   1.124033e+03   5.485675e+02
  -2.839484e+00   1.264770e+03
  -9.530400e+02   8.524032e+02
  -1.053815e+03  -1.533349e+02
  -4.701347e+02  -9.829523e+02
   3.133302e+02  -9.845027e+02
   7.478742e+02  -1.069665e+02
   4.366134e+02   8.203453e+02
  -3.151384e+02   8.296632e+02
  -6.826011e+02  -3.020984e+01
  -2.721880e+02  -7.532917e+02
   3.890246e+02  -6.508039e+02
   6.217916e+02  -3.554990e+01
   3.865603e+02   4.068434e+02
  -1.338670e+01   4.721981e+02
  -2.806825e+02   2.802212e+02
  -2.704979e+02   2.069111e+01
   7.454664e+01  -1.332398e+02
   4.437904e+02   5.690946e+01
   2.628097e+02   4.462178e+02
  -4.589825e+02   4.926734e+02
  -9.495937e+02  -4.344311e+01
  -5.049332e+02  -6.240427e+02
   4.207012e+02  -5.838973e+02
   8.466375e+02   3.627442e+00
   4.146391e+02   5.306816e+02
  -2.878555e+02   5.871261e+02
  -6.127454e+02   2.333232e+02
  -4.643963e+02  -2.427024e+02
  -8.442273e+01  -5.250514e+02
   2.515160e+02  -3.268484e+02
   2.386663e+02   2.458484e+02
  -1.660527e+02   5.269469e+02
  -5.355608e+02   2.327674e+01
  -3.308113e+02  -7.586155e+02
   3.465770e+02  -8.084096e+02
   7.064809e+02  -2.352931e+01
   3.182118e+02   6.298886e+02
  -3.344784e+02   3.940463e+02
  -4.590629e+02  -3.309115e+02
   4.710574e+01  -5.993295e+02
   5.910294e+02  -1.678080e+02
   6.383053e+02   4.279622e+02
   1.716112e+02   6.289630e+02
  -4.102506e+02   3.808042e+02
  -6.699522e+02  -7.632181e+01
  -3.908537e+02  -4.278311e+02
   1.828918e+02  -4.088256e+02
   4.885989e+02  -4.669864e+01
   2.552312e+02   2.521464e+02
  -1.576640e+02   1.360586e+02
  -1.801812e+02  -1.919785e+02
   1.826366e+02  -2.344330e+02
   3.913867e+02   8.343606e+01
   1.532104e+02   3.461727e+02
  -2.304428e+02   2.709778e+02
  -3.398835e+02   5.408875e+01
  -1.795778e+02  -8.812173e+01
   3.109004e+01  -1.946171e+02
   1.956423e+02  -3.152290e+02
   3.258942e+02  -2.349384e+02
   3.132853e+02   1.267298e+02
   9.498534e+01   4.606225e+02
  -1.383359e+02   4.102122e+02
  -1.508905e+02   1.006824e+02
  -2.509541e+01  -4.351532e+01
  -1.576326e+01   7.872024e+01
  -1.783818e+02   1.553669e+02
  -2.935544e+02  -2.917225e+01
  -1.905412e+02  -2.773573e+02
   5.424133e+01  -2.834471e+02
   2.354445e+02  -3.396290e+01
   2.201220e+02   2.344538e+02
   6.961237e+00   3.107385e+02
  -2.719115e+02   1.363310e+02
  -3.872575e+02  -1.688406e+02
  -2.003038e+02  -3.797027e+02
   1.225062e+02  -3.358133e+02
   2.597793e+02  -1.171795e+02
   1.586887e+02   2.040719e+01
   7.957777e+01  -1.804619e+01
   2.119732e+02  -7.727511e+01
   4.004156e+02   3.676671e+01
   3.457517e+02   2.827059e+02
   3.708575e+00   4.583756e+02
  -3.672131e+02   4.241743e+02
  -5.070012e+02   2.098496e+02
  -3.634689e+02  -9.311977e+01
  -7.533692e+01  -3.153907e+02
   1.374114e+02  -2.786746e+02
   1.090727e+02  -3.533502e+01
  -1.003779e+02   1.283224e+02
  -2.206288e+02   6.934071e+00
  -7.072090e+01  -2.194554e+02
   1.758073e+02  -2.075149e+02
   2.132351e+02   5.883230e+01
  -6.359740e+00   2.248248e+02
  -2.100226e+02   5.273944e+01
  -1.755721e+02  -2.548226e+02
   3.486054e+01  -3.634738e+02
   2.308165e+02  -1.917355e+02
   3.159736e+02   6.684514e+01
   2.749969e+02   2.320571e+02
   1.063374e+02   2.564620e+02
  -1.032736e+02   1.647901e+02
  -1.807996e+02   2.493539e+01
  -6.592374e+01  -3.891607e+01
   7.749209e+01   2.877040e+01
   4.539700e+01   1.294529e+02
  -1.221293e+02   1.180382e+02
  -1.907532e+02  -2.925682e+00
  -7.145150e+01  -7.684581e+01
   7.536278e+01  -2.833661e+01
   5.850358e+01   6.326901e+01
  -1.141099e+02   8.503711e+01
  -2.721490e+02   5.572863e+00
  -2.628388e+02  -1.330425e+02
  -7.126523e+01  -2.539412e+02
   1.737962e+02  -2.740520e+02
   2.887494e+02  -1.403615e+02
   1.897242e+02   5.334000e+01
  -1.555858e+01   1.254410e+02
  -1.019607e+02   1.676203e+01
   2.109030e+01  -1.095286e+02
   1.983622e+02  -7.328275e+01
   2.239990e+02   1.011753e+02
   7.824809e+01   2.195948e+02
  -9.420921e+01   1.718500e+02
  -1.533530e+02   3.591127e+01
  -8.156826e+01  -4.381404e+01
   1.905993e+01  -1.418737e+01
   3.882473e+01   7.046019e+01
  -6.086928e+01   1.098546e+02
  -1.908307e+02   3.583087e+01
  -1.964359e+02  -1.170623e+02
  -2.788983e+01  -2.222054e+02
   1.690750e+02  -1.722533e+02
   2.052770e+02  -6.001327e+00
   7.193247e+01   1.227668e+02
  -6.897307e+01   1.200962e+02
  -8.991723e+01   3.508277e+01
  -2.632516e+01  -2.687324e+01
   1.680539e+01  -2.373256e+01
  -7.492319e+00   7.735675e-01
  -6.070508e+01  -1.234175e+01
  -7.902539e+01  -7.769886e+01
  -1.623918e+01  -1.499806e+02
   1.167293e+02  -1.525919e+02
   2.316540e+02  -3.419851e+01
   2.092635e+02   1.477155e+02
   4.930722e+01   2.455235e+02
  -1.094681e+02   1.801946e+02
  -1.413981e+02   2.727779e+01
  -7.306764e+01  -6.146819e+01
  -2.735656e+01  -3.914034e+01
  -4.971319e+01   1.288945e+01
  -7.411468e+01   7.111379e+00
  -3.647268e+01  -4.692587e+01
   4.296847e+01  -8.066027e+01
   9.542884e+01  -4.952901e+01
   7.845009e+01   3.275387e+01
  -1.157184e+01   1.036452e+02
  -1.336807e+02   8.435004e+01
  -1.939086e+02  -4.155024e+01
  -1.083218e+02  -1.923371e+02
   9.228539e+01  -2.299943e+02
   2.583575e+02  -1.080034e+02
   2.622754e+02   7.774070e+01
   1.198960e+02   1.758725e+02
  -3.266401e+01   1.504748e+02
  -9.518186e+01   8.608352e+01
  -8.354544e+01   7.175739e+01
  -6.963994e+01   9.169541e+01
  -9.225332e+01   7.435451e+01
  -1.265007e+02  -2.106968e+01
  -1.186201e+02  -1.495491e+02
  -3.525917e+01  -2.256191e+02
   9.278802e+01  -1.769795e+02
   1.752983e+02  -2.763284e+01
   1.422449e+02   1.165011e+02
   2.725586e+01   1.600800e+02
  -6.261143e+01   9.979827e+01
  -5.975019e+01   9.034891e+00
  -9.620642e+00  -3.727068e+01
   3.719906e+00  -3.305463e+01
  -3.947685e+01  -1.964725e+01
  -7.729953e+01  -2.545500e+01
  -4.292567e+01  -3.898945e+01
   6.099137e+01  -3.506121e+01
   1.510938e+02  -2.768255e+00
   1.412974e+02   4.790215e+01
   2.104435e+01   8.484287e+01
  -1.132762e+02   7.373567e+01
  -1.437866e+02   1.599929e+01
  -5.073053e+01  -3.834700e+01
   5.808806e+01  -3.694690e+01
   7.426216e+01   1.957844e+01
   5.364026e+00   6.847002e+01
  -5.677233e+01   5.645933e+01
  -6.048545e+01  -4.620336e+00
  -3.952220e+01  -5.216359e+01
  -4.160113e+01  -4.120075e+01
  -6.392219e+01   6.837332e-01
  -6.546711e+01   2.194676e+00
  -3.427055e+01  -6.545967e+01
   3.064341e+01  -1.444952e+02
   1.098943e+02  -1.422134e+02
   1.588189e+02  -3.586218e+01
   1.227492e+02   9.006536e+01
   1.068364e+01   1.255048e+02
  -8.327278e+01   6.040069e+01
  -6.234734e+01  -1.475065e+01
   5.468329e+01  -1.936413e+01
   1.361556e+02   4.452073e+01
   7.878873e+01   1.084225e+02
  -7.801013e+01   1.143221e+02
  -1.944067e+02   5.540976e+01
  -1.685728e+02  -3.042317e+01
  -4.197023e+01  -8.638389e+01
   5.834265e+01  -7.488692e+01
   4.781462e+01  -1.268546e+01
  -3.862106e+01   2.483471e+01
  -8.998019e+01  -2.384267e+01
  -2.995124e+01  -1.208469e+02
   9.689215e+01  -1.557507e+02
   1.696537e+02  -6.047332e+01
   1.261991e+02   1.044082e+02
   8.580523e+00   1.995504e+02
  -8.390978e+01   1.436660e+02
  -1.032242e+02  -4.251802e+00
  -6.393340e+01  -1.138163e+02
  -4.098605e+00  -1.058998e+02
   4.321534e+01  -2.325256e+01
   5.477046e+01   2.838899e+01
   2.966793e+01   8.867704e+00
   2.581283e+00  -1.956309e+01
   1.631890e+01   1.477206e+01
   5.566369e+01   8.582073e+01
   4.453585e+01   1.081085e+02
  -4.255934e+01   4.352559e+01
  -1.380519e+02  -4.169040e+01
  -1.300992e+02  -7.133130e+01
  -1.825138e+01  -4.652716e+01
   8.874792e+01  -2.130468e+01
   8.973098e+01  -9.444861e+00
   9.375855e+00   4.593745e+00
  -3.995129e+01   2.266476e+01
  -1.324941e+01   1.940297e+01
   2.267782e+01  -1.732657e+00
  -7.106616e+00  -1.141374e+01
  -7.470136e+01  -4.713751e+00
  -9.008542e+01  -2.422138e+01
  -3.594821e+00  -7.901439e+01
   1.228807e+02  -1.114527e+02
   1.867071e+02  -5.610387e+01
   1.387999e+02   6.976670e+01
   2.421078e+01   1.627039e+02
  -7.758016e+01   1.491963e+02
  -1.139019e+02   5.779324e+01
  -8.243088e+01  -2.158485e+01
  -2.616162e+01  -3.576070e+01
   4.137154e+00  -8.636713e+00
  -7.466662e+00  -3.422430e+00
  -3.270545e+01  -4.449377e+01
  -2.429520e+01  -8.957360e+01
   2.987134e+01  -7.251598e+01
   8.146356e+01   2.087488e+01
   7.654551e+01   1.127838e+02
   1.201295e+00   1.140419e+02
  -8.473157e+01   2.202351e+01
  -1.023206e+02  -7.791560e+01
  -2.899473e+01  -1.039935e+02
   6.695718e+01  -5.195916e+01
   9.502194e+01   1.459886e+01
   3.598504e+01   4.827965e+01
  -3.285025e+01   4.756912e+01
  -2.797987e+01   2.548340e+01
   3.689029e+01  -6.762218e-01
   6.925186e+01  -6.561966e+00
   1.457000e+01   2.393508e+01
  -7.816815e+01   6.669783e+01
  -1.120687e+02   6.142628e+01
  -6.029761e+01  -9.772008e+00
   1.709681e+01  -8.236579e+01
   5.147407e+01  -7.706481e+01
   3.417328e+01  -1.708003e+00
  -1.512319e+00   5.699761e+01
  -2.642482e+01   4.044452e+01
  -3.553569e+01  -2.117955e+01
  -2.492923e+01  -5.338319e+01
   3.298479e+00  -2.947217e+01
   3.223973e+01   1.032681e+01
   3.792119e+01   1.971191e+01
   2.094959e+01   1.541516e-01
   1.446569e+00  -1.253060e+01
  -5.631233e+00   7.562380e+00
  -8.716144e+00   3.945436e+01
  -2.194760e+01   4.342414e+01
  -3.507590e+01   3.894197e+00
  -2.739440e+01  -4.770688e+01
   6.042473e+00  -6.029770e+01
   4.508614e+01  -1.876302e+01
   5.324083e+01   3.939214e+01
   1.230384e+01   6.209502e+01
  -5.288151e+01   3.129053e+01
  -8.513549e+01  -1.759450e+01
  -4.726523e+01  -4.361413e+01
   2.896276e+01  -3.860550e+01
   6.536699e+01  -1.754509e+01
   2.390592e+01  -2.654758e+00
  -3.910599e+01  -2.231487e+00
  -3.950132e+01  -1.831302e+01
   3.272484e+01  -3.294734e+01
   9.576380e+01  -1.886922e+01
