
 $NMID
 id='ANONYMOUS ', fmtdat='(2E16.6)'
 volume=1.0
 tramp=1.0
 $END
   4.359541e+03   1.835453e+02
   2.538914e+03   2.909508e+03
  -1.000196e+03   2.887201e+03
  -2.326986e+03   6.805876e+02
  -9.246058e+02  -8.603926e+02
   7.801552e+02  -6.253889e+02
   9.759187e+02   5.192261e+02
  -4.349821e+01   1.135039e+03
  -8.987907e+02   7.598577e+02
  -9.686349e+02  -1.578807e+02
  -4.210276e+02  -9.211182e+02
   3.083502e+02  -9.213261e+02
   6.822027e+02  -7.555453e+01
   3.585104e+02   7.766482e+02
  -3.212879e+02   7.550386e+02
  -6.256636e+02  -5.161345e+01
  -2.252156e+02  -7.137608e+02
   3.719760e+02  -6.071346e+02
   5.989147e+02  -4.059368e+01
   3.685419e+02   4.011025e+02
  -1.452838e+01   4.563398e+02
  -2.711356e+02   2.649852e+02
  -2.483246e+02   5.654599e+00
   9.282648e+01  -1.113802e+02
   4.147401e+02   9.913045e+01
   2.070194e+02   4.421165e+02
  -4.683581e+02   4.310269e+02
  -8.847420e+02  -9.306363e+01
  -4.414787e+02  -5.952090e+02
   4.290311e+02  -5.176092e+02
   7.970227e+02   5.681447e+01
   3.591381e+02   5.204419e+02
  -3.053879e+02   5.372155e+02
  -5.925297e+02   1.900861e+02
  -4.280425e+02  -2.492715e+02
  -5.287793e+01  -5.002914e+02
   2.399345e+02  -2.839270e+02
   1.896739e+02   2.452963e+02
  -1.953549e+02   4.628557e+02
  -4.888993e+02  -2.259548e+01
  -2.538334e+02  -7.271415e+02
   3.542007e+02  -7.332422e+02
   6.471044e+02   2.021791e+01
   2.615923e+02   5.975993e+02
  -3.221275e+02   3.355282e+02
  -3.981073e+02  -3.452740e+02
   7.980719e+01  -5.620005e+02
   5.560939e+02  -1.258384e+02
   5.794131e+02   4.330863e+02
   1.383791e+02   6.001250e+02
  -4.003426e+02   3.437990e+02
  -6.279410e+02  -9.215457e+01
  -3.594973e+02  -4.142598e+02
   1.828157e+02  -3.786613e+02
   4.598394e+02  -3.044271e+01
   2.292587e+02   2.331643e+02
  -1.438944e+02   1.137818e+02
  -1.491638e+02  -1.788068e+02
   1.821135e+02  -2.040661e+02
   3.570927e+02   8.991065e+01
   1.321950e+02   3.186488e+02
  -2.122614e+02   2.476946e+02
  -3.182161e+02   5.168664e+01
  -1.798532e+02  -7.932582e+01
   1.831387e+01  -1.890882e+02
   1.984316e+02  -3.048908e+02
   3.256055e+02  -2.169491e+02
   2.970137e+02   1.276800e+02
   7.526414e+01   4.457563e+02
  -1.374323e+02   3.870685e+02
  -1.404690e+02   9.565369e+01
  -2.378135e+01  -3.399494e+01
  -2.565121e+01   7.807235e+01
  -1.829991e+02   1.351479e+02
  -2.768226e+02  -4.706807e+01
  -1.586266e+02  -2.704423e+02
   7.366965e+01  -2.605847e+02
   2.304554e+02  -1.642735e+01
   1.958049e+02   2.379005e+02
  -1.088206e+01   2.960109e+02
  -2.675803e+02   1.202349e+02
  -3.609987e+02  -1.724132e+02
  -1.811632e+02  -3.613851e+02
   1.145688e+02  -3.124597e+02
   2.457745e+02  -1.072519e+02
   1.521334e+02   1.362910e+01
   8.243693e+01  -2.375932e+01
   2.125565e+02  -6.919189e+01
   3.828343e+02   5.068521e+01
   3.251944e+02   2.861995e+02
  -3.723187e+00   4.441413e+02
  -3.650956e+02   4.018954e+02
  -4.991244e+02   1.856067e+02
  -3.417893e+02  -9.970820e+01
  -5.525893e+01  -2.993309e+02
   1.410753e+02  -2.519362e+02
   9.691803e+01  -2.299876e+01
  -1.128806e+02   1.162843e+02
  -2.102032e+02  -9.295341e+00
  -5.743685e+01  -2.127470e+02
   1.732073e+02  -1.893116e+02
   1.930977e+02   5.902142e+01
  -1.579418e+01   2.007950e+02
  -1.930687e+02   3.396260e+01
  -1.500162e+02  -2.482473e+02
   4.890224e+01  -3.401622e+02
   2.291321e+02  -1.763049e+02
   3.061900e+02   7.444226e+01
   2.624613e+02   2.390316e+02
   9.299858e+01   2.613039e+02
  -1.110281e+02   1.597205e+02
  -1.811205e+02   1.521264e+01
  -6.247266e+01  -4.124172e+01
   7.286041e+01   3.203388e+01
   3.604766e+01   1.248315e+02
  -1.216701e+02   1.004367e+02
  -1.799386e+02  -1.568884e+01
  -5.905471e+01  -7.526579e+01
   7.891871e+01  -2.020109e+01
   5.737329e+01   6.707937e+01
  -1.122958e+02   8.032511e+01
  -2.663280e+02  -1.021173e+00
  -2.570118e+02  -1.317594e+02
  -5.909112e+01  -2.470132e+02
   1.788388e+02  -2.544120e+02
   2.791110e+02  -1.219452e+02
   1.713565e+02   5.526422e+01
  -2.464019e+01   1.108480e+02
  -9.144321e+01   6.135312e+00
   3.396060e+01  -1.035485e+02
   1.963484e+02  -5.658959e+01
   2.104129e+02   1.095155e+02
   6.623870e+01   2.155108e+02
  -9.837059e+01   1.625586e+02
  -1.496751e+02   3.009325e+01
  -7.761682e+01  -4.361630e+01
   2.031632e+01  -9.539925e+00
   3.467796e+01   7.374720e+01
  -6.691934e+01   1.043007e+02
  -1.886569e+02   2.241447e+01
  -1.845711e+02  -1.266348e+02
  -1.564943e+01  -2.173651e+02
   1.705456e+02  -1.568227e+02
   1.978930e+02   3.725425e+00
   6.503700e+01   1.213388e+02
  -7.032199e+01   1.125267e+02
  -8.784833e+01   3.061757e+01
  -2.321786e+01  -2.593354e+01
   1.633166e+01  -2.055116e+01
  -9.459958e+00   2.170453e+00
  -6.360281e+01  -1.336974e+01
  -7.790129e+01  -7.987272e+01
  -1.108737e+01  -1.493869e+02
   1.226270e+02  -1.462246e+02
   2.284875e+02  -2.565292e+01
   2.010080e+02   1.471384e+02
   3.994240e+01   2.361238e+02
  -1.108990e+02   1.704193e+02
  -1.367462e+02   2.491395e+01
  -6.703326e+01  -5.800743e+01
  -2.515662e+01  -3.672768e+01
  -5.172001e+01   1.162622e+01
  -7.621436e+01   4.392224e+00
  -3.694797e+01  -4.636506e+01
   4.193847e+01  -7.762809e+01
   9.439870e+01  -4.687539e+01
   7.505184e+01   3.256167e+01
  -1.384148e+01   9.998864e+01
  -1.314086e+02   7.804346e+01
  -1.857526e+02  -4.957490e+01
  -9.520973e+01  -1.955506e+02
   1.051597e+02  -2.218870e+02
   2.630928e+02  -9.053879e+01
   2.503068e+02   9.401829e+01
   1.043588e+02   1.789381e+02
  -4.139165e+01   1.442611e+02
  -9.584208e+01   8.027932e+01
  -8.346446e+01   6.717231e+01
  -7.107946e+01   8.681327e+01
  -9.276654e+01   6.758085e+01
  -1.223682e+02  -2.631838e+01
  -1.092195e+02  -1.529759e+02
  -2.458568e+01  -2.217866e+02
   9.987423e+01  -1.671919e+02
   1.742629e+02  -1.829244e+01
   1.336834e+02   1.213311e+02
   1.533879e+01   1.567605e+02
  -6.887527e+01   9.094899e+01
  -5.942099e+01   2.394167e+00
  -5.932076e+00  -3.962879e+01
   8.175227e+00  -3.297411e+01
  -3.579046e+01  -1.939483e+01
  -7.432567e+01  -2.433198e+01
  -4.097418e+01  -3.728292e+01
   5.930794e+01  -3.256518e+01
   1.453994e+02  -3.085361e-01
   1.334615e+02   5.130950e+01
   1.651112e+01   8.525408e+01
  -1.128997e+02   6.921021e+01
  -1.390428e+02   8.118596e+00
  -4.723905e+01  -4.199336e+01
   5.760879e+01  -3.366481e+01
   7.215965e+01   2.198563e+01
   3.586473e+00   6.568620e+01
  -5.708984e+01   5.211044e+01
  -6.037380e+01  -5.870298e+00
  -3.817822e+01  -5.114091e+01
  -3.796235e+01  -4.229526e+01
  -5.693655e+01  -3.512158e+00
  -6.216416e+01  -9.423608e-01
  -3.083261e+01  -6.384198e+01
   3.446076e+01  -1.380233e+02
   1.134687e+02  -1.340987e+02
   1.571039e+02  -2.905292e+01
   1.164509e+02   9.202833e+01
   5.390604e+00   1.233178e+02
  -8.221963e+01   5.643521e+01
  -5.926279e+01  -1.728497e+01
   5.446021e+01  -1.782426e+01
   1.277045e+02   4.669740e+01
   7.070688e+01   1.062771e+02
  -7.945697e+01   1.071745e+02
  -1.878574e+02   4.483687e+01
  -1.603750e+02  -3.666276e+01
  -3.596438e+01  -8.674371e+01
   6.086863e+01  -7.038485e+01
   4.744218e+01  -9.048337e+00
  -3.773631e+01   2.333955e+01
  -8.665152e+01  -2.491849e+01
  -2.617850e+01  -1.164618e+02
   9.651103e+01  -1.465311e+02
   1.647897e+02  -5.489592e+01
   1.185092e+02   1.023905e+02
   3.018807e+00   1.909146e+02
  -8.510238e+01   1.339958e+02
  -1.001893e+02  -8.249010e+00
  -5.540821e+01  -1.122832e+02
   2.359217e+00  -1.004342e+02
   4.338081e+01  -1.822540e+01
   4.954383e+01   3.147795e+01
   2.387541e+01   9.654412e+00
   1.783553e+00  -2.126348e+01
   1.631608e+01   1.192667e+01
   5.085907e+01   8.477978e+01
   3.849727e+01   1.071967e+02
  -4.387215e+01   4.208924e+01
  -1.302990e+02  -4.476058e+01
  -1.216900e+02  -7.566593e+01
  -1.577105e+01  -4.832345e+01
   8.561665e+01  -1.773667e+01
   8.704184e+01  -4.888629e+00
   1.018348e+01   5.462032e+00
  -3.859826e+01   2.053349e+01
  -1.351518e+01   1.878163e+01
   2.250489e+01  -6.445748e-02
  -4.944313e+00  -1.057170e+01
  -7.188892e+01  -7.393729e+00
  -8.746107e+01  -2.479190e+01
  -3.609649e+00  -7.419992e+01
   1.196151e+02  -1.043914e+02
   1.797049e+02  -4.958846e+01
   1.308685e+02   6.898242e+01
   1.791513e+01   1.547304e+02
  -7.811109e+01   1.396898e+02
  -1.094600e+02   5.106462e+01
  -7.687608e+01  -2.356894e+01
  -2.373663e+01  -3.378269e+01
   4.197592e+00  -6.332708e+00
  -8.219576e+00  -2.480093e+00
  -3.142571e+01  -4.508878e+01
  -2.075183e+01  -8.776680e+01
   2.966140e+01  -6.912704e+01
   7.920449e+01   2.055896e+01
   7.027014e+01   1.092947e+02
  -2.053743e+00   1.096863e+02
  -8.196313e+01   1.959543e+01
  -9.580648e+01  -7.666096e+01
  -2.513452e+01  -1.007934e+02
   6.581835e+01  -4.908254e+01
   9.102880e+01   1.611378e+01
   3.389437e+01   4.854970e+01
  -3.281517e+01   4.544353e+01
  -2.877247e+01   2.322491e+01
   3.416167e+01  -4.089872e-01
   6.723608e+01  -4.476315e+00
   1.429914e+01   2.433473e+01
  -7.816256e+01   6.274804e+01
  -1.116700e+02   5.526410e+01
  -5.948985e+01  -1.299521e+01
   1.889304e+01  -7.980998e+01
   5.309203e+01  -7.360431e+01
   3.433523e+01  -1.626879e+00
  -2.000757e+00   5.558475e+01
  -2.665469e+01   4.010958e+01
  -3.455503e+01  -2.027699e+01
  -2.299925e+01  -5.297482e+01
   4.144820e+00  -2.952288e+01
   3.107734e+01   1.118426e+01
   3.559801e+01   2.167030e+01
   1.859119e+01   1.360726e+00
  -3.423402e-01  -1.230792e+01
  -7.964045e+00   5.669376e+00
  -1.022942e+01   3.659453e+01
  -2.056923e+01   4.024148e+01
  -3.133826e+01   2.781564e+00
  -2.523105e+01  -4.566198e+01
   6.103187e+00  -5.774845e+01
   4.383207e+01  -1.767005e+01
   5.151505e+01   4.035918e+01
   1.120317e+01   6.179637e+01
  -5.322481e+01   3.037361e+01
  -8.323771e+01  -1.934446e+01
  -4.523714e+01  -4.538431e+01
   2.857653e+01  -3.912552e+01
   6.307251e+01  -1.721996e+01
   2.393750e+01  -3.342639e+00
  -3.516308e+01  -4.087841e+00
  -3.610583e+01  -1.791617e+01
   3.276299e+01  -2.909412e+01
   9.151549e+01  -1.310487e+01
