
 $NMID
 id='ANONYMOUS ', fmtdat='(2E16.6)'
 volume=1.0
 tramp=1.0
 $END
  -3.744149e+03   1.643338e+02
  -2.483889e+03  -2.002102e+03
   1.952944e+02  -2.352211e+03
   1.459211e+03  -1.222273e+03
   9.324714e+02   3.627566e+01
  -2.042335e+02   2.977870e+02
  -5.213964e+02  -2.374865e+02
  -1.893076e+01  -7.283481e+02
   5.775746e+02  -6.466924e+02
   7.361441e+02  -2.164395e+01
   4.303689e+02   6.323483e+02
  -7.625912e+01   7.363664e+02
  -4.247721e+02   1.507674e+02
  -3.106146e+02  -5.473092e+02
   1.627382e+02  -6.243072e+02
   4.742949e+02  -5.104547e+01
   2.986286e+02   5.564357e+02
  -1.786161e+02   6.264524e+02
  -4.973076e+02   2.261948e+02
  -4.223048e+02  -2.214890e+02
  -9.694780e+01  -3.759776e+02
   1.499631e+02  -2.390212e+02
   1.021300e+02  -3.675524e+01
  -1.855093e+02  -2.408622e+01
  -3.456376e+02  -2.237777e+02
  -6.945151e+01  -4.028658e+02
   4.817485e+02  -2.580243e+02
   7.033079e+02   1.452210e+02
   2.902248e+02   4.252760e+02
  -3.637452e+02   3.094229e+02
  -5.981266e+02  -9.246645e+01
  -2.500588e+02  -4.062403e+02
   2.677096e+02  -4.144327e+02
   4.880640e+02  -1.651999e+02
   3.558445e+02   1.807840e+02
   9.035740e+01   3.593196e+02
  -7.817250e+01   2.048885e+02
  -2.865632e+01  -1.432851e+02
   1.756504e+02  -2.578654e+02
   2.991385e+02   1.060432e+02
   1.046548e+02   5.724489e+02
  -2.763477e+02   5.384008e+02
  -4.362314e+02   1.372636e+00
  -1.723276e+02  -4.118018e+02
   2.100316e+02  -2.099685e+02
   2.563420e+02   2.970957e+02
  -9.522564e+01   4.585328e+02
  -4.982918e+02   9.886061e+01
  -5.341850e+02  -3.753345e+02
  -1.653831e+02  -5.272750e+02
   3.261624e+02  -3.073698e+02
   5.557550e+02   5.282175e+01
   3.488758e+02   2.946564e+02
  -8.604025e+01   2.796870e+02
  -3.435203e+02   8.884984e+01
  -2.249339e+02  -7.852414e+01
   3.975888e+01  -4.901414e+01
   8.010825e+01   9.003142e+01
  -1.281576e+02   1.083030e+02
  -2.704612e+02  -5.347797e+01
  -1.336009e+02  -2.284756e+02
   1.650351e+02  -2.551341e+02
   3.336259e+02  -1.223826e+02
   2.469057e+02   9.116041e+01
  -1.021522e+01   2.998959e+02
  -2.604368e+02   3.650399e+02
  -3.586032e+02   1.848376e+02
  -2.637971e+02  -1.549435e+02
  -6.790857e+01  -3.882579e+02
   5.164861e+01  -3.309615e+02
   5.096892e+01  -1.360778e+02
   2.067479e+01  -6.407770e+01
   9.748249e+01  -1.190693e+02
   2.306660e+02  -9.676380e+01
   2.598228e+02   9.091592e+01
   1.213704e+02   2.637863e+02
  -8.618500e+01   2.216883e+02
  -2.128369e+02  -1.958235e+01
  -1.674906e+02  -2.414424e+02
   3.089236e+01  -2.706703e+02
   2.598505e+02  -8.965822e+01
   3.355701e+02   1.603135e+02
   1.835522e+02   3.099807e+02
  -6.496582e+01   2.747941e+02
  -1.799845e+02   1.423919e+02
  -1.379216e+02   5.567899e+01
  -1.284099e+02   7.077023e+01
  -2.635157e+02   6.544766e+01
  -4.099343e+02  -6.573189e+01
  -3.300090e+02  -2.848774e+02
   8.888322e+00  -4.398514e+02
   3.524299e+02  -4.111711e+02
   4.661617e+02  -1.965814e+02
   3.008785e+02   9.907322e+01
   3.283626e+01   2.652410e+02
  -1.025676e+02   2.128212e+02
  -3.595951e+01   2.723742e+01
   1.136827e+02  -7.274780e+01
   1.545650e+02   2.600739e+01
   1.991540e+01   1.626612e+02
  -1.347183e+02   1.300200e+02
  -1.362818e+02  -5.775305e+01
   2.324589e+01  -1.547262e+02
   1.714258e+02  -1.448763e+01
   1.634008e+02   2.319191e+02
  -1.246439e+01   3.432972e+02
  -2.328523e+02   2.147882e+02
  -3.555633e+02  -4.852414e+01
  -2.923360e+02  -2.498569e+02
  -8.041161e+01  -2.771290e+02
   1.245338e+02  -1.536508e+02
   1.612425e+02  -1.224167e+01
   4.016981e+01   2.121626e+01
  -6.204004e+01  -5.491869e+01
  -1.047351e+01  -1.233242e+02
   1.265826e+02  -8.317026e+01
   1.606178e+02   1.956100e+01
   4.125815e+01   6.457611e+01
  -8.526000e+01   3.367772e+00
  -4.973043e+01  -8.508423e+01
   1.361198e+02  -9.467565e+01
   2.914798e+02   2.351072e+00
   2.581265e+02   1.516934e+02
   4.283994e+01   2.595715e+02
  -1.933085e+02   2.465576e+02
  -2.676402e+02   1.075908e+02
  -1.468477e+02  -4.993666e+01
   2.930088e+01  -9.277574e+01
   7.566266e+01   1.399226e+00
  -4.337553e+01   9.041059e+01
  -1.874143e+02   4.802688e+01
  -1.970083e+02  -9.909468e+01
  -6.235189e+01  -1.947963e+02
   9.033779e+01  -1.442621e+02
   1.317088e+02  -2.147091e+01
   5.259129e+01   4.074718e+01
  -4.272031e+01  -9.239997e+00
  -3.719283e+01  -1.011227e+02
   8.533856e+01  -1.231698e+02
   2.078637e+02  -2.757143e+01
   1.894510e+02   1.251507e+02
   2.035926e+01   2.130337e+02
  -1.528064e+02   1.604751e+02
  -1.789892e+02   1.232124e+01
  -5.951341e+01  -1.019591e+02
   6.176853e+01  -1.004180e+02
   7.515875e+01  -2.527481e+01
   8.063269e+00   2.802548e+01
  -3.348419e+01   1.425606e+01
   6.614450e+00  -2.171186e+01
   8.066989e+01  -4.608717e+00
   1.035422e+02   8.216945e+01
   1.899076e+01   1.693939e+02
  -1.361622e+02   1.570932e+02
  -2.404830e+02   1.922590e+01
  -1.966100e+02  -1.570932e+02
  -3.871170e+01  -2.337677e+02
   1.067633e+02  -1.636049e+02
   1.332892e+02  -2.792563e+01
   7.308623e+01   4.959869e+01
   3.068129e+01   3.180033e+01
   5.274479e+01  -1.427136e+01
   8.388796e+01  -1.009228e+01
   5.390717e+01   5.360873e+01
  -3.573573e+01   1.013944e+02
  -1.139994e+02   6.858413e+01
  -1.039864e+02  -3.868554e+01
   1.003798e+01  -1.264694e+02
   1.533634e+02  -9.505465e+01
   2.046183e+02   5.605487e+01
   9.571391e+01   2.089332e+02
  -1.133156e+02   2.261519e+02
  -2.644390e+02   9.071305e+01
  -2.520887e+02  -8.113760e+01
  -1.079766e+02  -1.699019e+02
   3.628075e+01  -1.439535e+02
   9.101429e+01  -8.640456e+01
   7.471214e+01  -6.971751e+01
   5.891046e+01  -9.076568e+01
   8.691911e+01  -7.811653e+01
   1.311373e+02   1.597094e+01
   1.237747e+02   1.503443e+02
   3.259793e+01   2.251472e+02
  -9.787451e+01   1.705143e+02
  -1.732392e+02   1.918235e+01
  -1.324761e+02  -1.208468e+02
  -1.623325e+01  -1.540653e+02
   6.875519e+01  -8.333768e+01
   6.098677e+01   9.417128e+00
   1.478102e+00   5.120591e+01
  -1.984623e+01   3.627780e+01
   2.845034e+01   1.065492e+01
   8.133691e+01   1.390091e+01
   4.851551e+01   3.713717e+01
  -6.811396e+01   4.311895e+01
  -1.677849e+02   6.137340e+00
  -1.450492e+02  -5.792663e+01
  -5.778384e+00  -9.812967e+01
   1.300405e+02  -7.781313e+01
   1.471912e+02  -1.123629e+01
   4.614063e+01   4.890223e+01
  -6.118048e+01   4.580315e+01
  -7.939536e+01  -1.584591e+01
  -1.773584e+01  -7.236289e+01
   4.779089e+01  -6.446944e+01
   6.737611e+01  -2.052560e+00
   5.498294e+01   4.930907e+01
   4.554880e+01   3.974072e+01
   5.503171e+01  -2.159060e+00
   6.476642e+01  -2.612566e+00
   4.469910e+01   6.850971e+01
  -2.399777e+01   1.508621e+02
  -1.178079e+02   1.499418e+02
  -1.749873e+02   4.092181e+01
  -1.326686e+02  -8.887906e+01
  -9.020499e+00  -1.314411e+02
   8.871049e+01  -7.078217e+01
   6.320815e+01   1.085821e+01
  -5.683600e+01   2.584514e+01
  -1.373711e+02  -3.349916e+01
  -7.734853e+01  -1.021176e+02
   7.761787e+01  -1.110842e+02
   1.865767e+02  -5.380345e+01
   1.584035e+02   3.294915e+01
   3.509943e+01   8.539092e+01
  -6.204250e+01   6.549988e+01
  -5.063406e+01   1.293789e+00
   3.945785e+01  -3.183887e+01
   9.392620e+01   1.757285e+01
   4.281425e+01   1.153011e+02
  -7.755477e+01   1.574295e+02
  -1.590216e+02   7.243446e+01
  -1.308492e+02  -9.114756e+01
  -2.269917e+01  -1.946360e+02
   7.742480e+01  -1.445322e+02
   1.052672e+02   7.837744e+00
   6.303937e+01   1.185765e+02
  -4.607324e+00   1.031472e+02
  -4.888977e+01   1.692885e+01
  -4.835228e+01  -3.024414e+01
  -1.965991e+01  -5.453944e+00
  -5.214999e+00   2.049670e+01
  -2.818661e+01  -1.696016e+01
  -6.026472e+01  -8.562449e+01
  -3.964305e+01  -1.033820e+02
   5.039882e+01  -4.438632e+01
   1.359596e+02   3.175443e+01
   1.254230e+02   6.440524e+01
   1.825435e+01   5.033437e+01
  -8.172663e+01   2.703103e+01
  -8.640201e+01   8.411069e+00
  -1.531101e+01  -9.317634e+00
   3.453992e+01  -2.277070e+01
   1.731478e+01  -1.449621e+01
  -1.503099e+01   3.428009e+00
   4.028623e+00   6.174205e+00
   6.646775e+01  -1.674131e+00
   8.988715e+01   1.823076e+01
   2.007083e+01   7.730485e+01
  -1.027306e+02   1.171554e+02
  -1.788626e+02   7.032688e+01
  -1.453394e+02  -5.382825e+01
  -3.409093e+01  -1.546349e+02
   7.374282e+01  -1.521808e+02
   1.096433e+02  -6.558052e+01
   7.800997e+01   1.721201e+01
   2.610911e+01   3.637207e+01
   1.875806e+00   1.202175e+01
   1.342988e+01   6.987600e+00
   3.183143e+01   4.655215e+01
   2.104481e+01   8.804278e+01
  -2.714521e+01   7.056168e+01
  -7.957965e+01  -1.314845e+01
  -8.243054e+01  -9.981133e+01
  -1.441156e+01  -1.087585e+02
   7.732041e+01  -3.181083e+01
   1.074879e+02   6.357255e+01
   4.168987e+01   1.010046e+02
  -6.174067e+01   6.459340e+01
  -1.020414e+02  -3.548590e+00
  -4.609051e+01  -5.220035e+01
   2.980954e+01  -5.762953e+01
   3.425051e+01  -2.887633e+01
  -2.917654e+01   4.498574e+00
  -6.714999e+01   8.232780e+00
  -1.708737e+01  -2.741960e+01
   7.614757e+01  -7.051574e+01
   1.158742e+02  -6.008189e+01
   6.872527e+01   1.233933e+01
  -1.026724e+01   8.482077e+01
  -5.190887e+01   8.422486e+01
  -4.071605e+01   1.225082e+01
  -7.547283e+00  -5.292916e+01
   2.221477e+01  -4.720027e+01
   3.707531e+01   1.250231e+01
   2.959736e+01   5.340963e+01
  -1.205930e+00   3.810090e+01
  -3.383920e+01  -4.627088e+00
  -4.196325e+01  -2.273359e+01
  -2.033668e+01  -2.389018e+00
   4.179504e+00   1.741592e+01
   8.560125e+00   4.122031e+00
  -1.260824e+00  -3.150167e+01
   2.804575e+00  -4.868607e+01
   2.614940e+01  -1.869148e+01
   3.882501e+01   3.508483e+01
   1.148464e+01   5.830414e+01
  -4.017790e+01   2.559657e+01
  -6.266671e+01  -3.270226e+01
  -2.055795e+01  -6.036623e+01
   5.542645e+01  -3.784727e+01
   9.189294e+01   8.762998e+00
   5.024263e+01   4.094365e+01
  -2.740144e+01   4.382213e+01
  -6.182281e+01   2.832232e+01
  -2.523463e+01   7.533878e+00
   3.102842e+01  -3.517242e+00
   3.353744e+01   7.555114e+00
  -2.497653e+01   2.718975e+01
  -8.004368e+01   2.378585e+01
