
 $NMID
 id='ANONYMOUS ', fmtdat='(2E16.6)'
 volume=1.0
 tramp=1.0
 $END
  -4.362603e+03   3.257799e+02
  -2.712978e+03  -2.519885e+03
   6.602784e+02  -2.830572e+03
   2.110539e+03  -1.015452e+03
   9.361926e+02   6.416038e+02
  -7.118832e+02   5.950955e+02
  -9.073071e+02  -4.571918e+02
   4.218758e+00  -1.122863e+03
   8.469021e+02  -8.287310e+02
   9.733617e+02   9.202886e+01
   4.658941e+02   8.841728e+02
  -2.422370e+02   9.249937e+02
  -6.472393e+02   1.230611e+02
  -4.129103e+02  -7.357691e+02
   2.513469e+02  -7.615001e+02
   6.069207e+02   5.522873e+00
   2.829575e+02   6.919856e+02
  -3.204802e+02   6.401782e+02
  -5.799062e+02   8.098975e+01
  -3.938078e+02  -3.662963e+02
  -1.498546e+01  -4.341274e+02
   2.433320e+02  -2.569716e+02
   2.216423e+02  -1.074486e+01
  -1.175657e+02   1.044335e+02
  -4.306761e+02  -9.606915e+01
  -2.258016e+02  -4.305028e+02
   4.570496e+02  -4.326420e+02
   8.850463e+02   4.870109e+01
   4.658688e+02   5.415269e+02
  -3.997297e+02   5.089989e+02
  -7.783387e+02  -1.316716e+01
  -3.729225e+02  -4.892070e+02
   2.742739e+02  -5.422490e+02
   5.728315e+02  -2.256616e+02
   4.292639e+02   2.273513e+02
   8.315855e+01   4.896032e+02
  -1.955070e+02   2.899782e+02
  -1.825424e+02  -2.282448e+02
   1.517334e+02  -4.561350e+02
   4.596369e+02   1.209731e+01
   2.632833e+02   6.995291e+02
  -3.149399e+02   7.221536e+02
  -6.143517e+02   1.294291e+01
  -2.718791e+02  -5.736310e+02
   2.974594e+02  -3.355956e+02
   4.017161e+02   3.216538e+02
  -5.619484e+01   5.588502e+02
  -5.693907e+02   1.572350e+02
  -6.138860e+02  -3.938564e+02
  -1.752923e+02  -5.914961e+02
   3.889391e+02  -3.649189e+02
   6.451369e+02   5.679955e+01
   3.841935e+02   3.872320e+02
  -1.506403e+02   3.825225e+02
  -4.484267e+02   7.824636e+01
  -2.459307e+02  -1.891997e+02
   1.252797e+02  -1.107483e+02
   1.493564e+02   1.573525e+02
  -1.707971e+02   2.016917e+02
  -3.624281e+02  -6.016079e+01
  -1.503854e+02  -3.037002e+02
   2.037996e+02  -2.703649e+02
   3.317971e+02  -8.402676e+01
   1.947021e+02   8.641672e+01
  -2.417059e+01   2.342457e+02
  -2.179483e+02   3.340298e+02
  -3.384479e+02   2.251337e+02
  -3.026731e+02  -1.426311e+02
  -9.487854e+01  -4.436231e+02
   1.036337e+02  -3.916154e+02
   1.287911e+02  -1.144152e+02
   2.769031e+01   1.499040e+01
   3.701113e+01  -8.988563e+01
   1.880924e+02  -1.445669e+02
   2.840249e+02   3.659851e+01
   1.749750e+02   2.676728e+02
  -6.250609e+01   2.635891e+02
  -2.335866e+02   2.031321e+01
  -2.124657e+02  -2.386499e+02
   2.424720e+00  -3.016364e+02
   2.756962e+02  -1.274429e+02
   3.795088e+02   1.575921e+02
   2.023564e+02   3.514208e+02
  -9.299701e+01   3.204325e+02
  -2.250842e+02   1.316384e+02
  -1.518977e+02   8.282220e+00
  -1.041546e+02   4.039384e+01
  -2.388755e+02   7.229167e+01
  -4.078993e+02  -4.619604e+01
  -3.464148e+02  -2.771831e+02
  -1.036111e+01  -4.580061e+02
   3.476299e+02  -4.405182e+02
   4.879824e+02  -2.260556e+02
   3.455011e+02   8.876253e+01
   6.731985e+01   3.004465e+02
  -1.236082e+02   2.617461e+02
  -8.378008e+01   2.781274e+01
   1.076097e+02  -1.141586e+02
   2.013664e+02   2.283542e+00
   5.398860e+01   1.989781e+02
  -1.619243e+02   1.799509e+02
  -1.882640e+02  -6.204657e+01
   1.048951e+01  -2.040841e+02
   1.994605e+02  -4.216963e+01
   1.788509e+02   2.474541e+02
  -1.782570e+01   3.563029e+02
  -2.258846e+02   2.027751e+02
  -3.304178e+02  -5.070824e+01
  -2.860766e+02  -2.286703e+02
  -1.045533e+02  -2.616363e+02
   1.089952e+02  -1.664473e+02
   1.777544e+02  -2.882097e+01
   5.839741e+01   3.061885e+01
  -7.525008e+01  -3.616925e+01
  -3.546494e+01  -1.284859e+02
   1.222370e+02  -1.093842e+02
   1.841546e+02   3.719559e+00
   6.066093e+01   7.222239e+01
  -8.408831e+01   2.088931e+01
  -6.081703e+01  -7.374919e+01
   1.228211e+02  -9.835622e+01
   2.848872e+02  -1.418127e+01
   2.734065e+02   1.316369e+02
   7.175361e+01   2.581661e+02
  -1.748075e+02   2.724389e+02
  -2.814713e+02   1.397212e+02
  -1.768826e+02  -4.743673e+01
   2.000987e+01  -1.144198e+02
   9.398778e+01  -1.169984e+01
  -3.072963e+01   1.035631e+02
  -1.971028e+02   6.741780e+01
  -2.208314e+02  -9.895591e+01
  -7.413768e+01  -2.103802e+02
   9.378600e+01  -1.622672e+02
   1.471299e+02  -3.375910e+01
   7.262522e+01   4.111058e+01
  -2.802607e+01   8.514973e+00
  -4.220237e+01  -7.895275e+01
   6.497931e+01  -1.168201e+02
   1.966291e+02  -3.985511e+01
   1.959043e+02   1.159283e+02
   2.743775e+01   2.209756e+02
  -1.619917e+02   1.729253e+02
  -1.964483e+02   9.860973e+00
  -6.753784e+01  -1.176986e+02
   6.606956e+01  -1.160835e+02
   8.548297e+01  -3.230773e+01
   2.065325e+01   2.701644e+01
  -1.836423e+01   2.124813e+01
   9.551988e+00  -6.709671e+00
   6.909382e+01   6.655311e+00
   8.809359e+01   7.688105e+01
   2.041456e+01   1.543356e+02
  -1.197841e+02   1.550446e+02
  -2.334584e+02   3.436564e+01
  -2.082023e+02  -1.486597e+02
  -4.722763e+01  -2.393288e+02
   1.105341e+02  -1.745882e+02
   1.404336e+02  -2.789736e+01
   7.321017e+01   5.618857e+01
   2.878424e+01   3.742014e+01
   5.044789e+01  -1.221678e+01
   7.822761e+01  -7.094769e+00
   4.187589e+01   4.882034e+01
  -3.781319e+01   8.958028e+01
  -9.801699e+01   6.076451e+01
  -8.614280e+01  -2.999394e+01
   6.304738e+00  -1.085653e+02
   1.330188e+02  -9.170895e+01
   1.962643e+02   4.063276e+01
   1.090995e+02   1.964090e+02
  -9.610370e+01   2.312394e+02
  -2.622271e+02   1.032302e+02
  -2.605769e+02  -7.486731e+01
  -1.152779e+02  -1.701217e+02
   3.379775e+01  -1.472593e+02
   9.032107e+01  -8.793583e+01
   7.577020e+01  -7.351360e+01
   6.400298e+01  -9.109951e+01
   8.988037e+01  -7.402949e+01
   1.272440e+02   2.041050e+01
   1.210746e+02   1.493055e+02
   3.840264e+01   2.219002e+02
  -9.313169e+01   1.742851e+02
  -1.755875e+02   2.672724e+01
  -1.420787e+02  -1.171428e+02
  -2.526409e+01  -1.600156e+02
   6.317893e+01  -9.523032e+01
   5.985974e+01  -2.378648e+00
   7.721364e+00   4.303048e+01
  -7.315199e+00   3.584120e+01
   3.766302e+01   1.699743e+01
   7.816330e+01   2.000386e+01
   4.264657e+01   3.571477e+01
  -6.395070e+01   3.903964e+01
  -1.572200e+02   9.924393e+00
  -1.422788e+02  -4.564445e+01
  -1.892890e+01  -8.718901e+01
   1.139732e+02  -7.896427e+01
   1.416034e+02  -2.076106e+01
   4.855751e+01   3.793280e+01
  -5.906041e+01   3.887218e+01
  -7.524244e+01  -1.670752e+01
  -7.484327e+00  -6.788934e+01
   5.428151e+01  -5.770865e+01
   6.199082e+01   1.998782e+00
   4.494975e+01   4.767438e+01
   4.497083e+01   3.842526e+01
   5.914240e+01   1.301047e+00
   6.326204e+01  -7.939388e-01
   3.545691e+01   6.544562e+01
  -2.741595e+01   1.424792e+02
  -1.072965e+02   1.415954e+02
  -1.581910e+02   3.919349e+01
  -1.245066e+02  -8.237630e+01
  -1.112234e+01  -1.226617e+02
   8.173729e+01  -6.403897e+01
   5.815371e+01   1.354342e+01
  -5.969852e+01   2.391078e+01
  -1.389694e+02  -3.595867e+01
  -8.158001e+01  -1.025939e+02
   7.551705e+01  -1.149005e+02
   1.882808e+02  -6.030336e+01
   1.634799e+02   2.684560e+01
   3.967236e+01   8.572802e+01
  -5.908845e+01   7.201568e+01
  -4.940497e+01   6.656120e+00
   3.865547e+01  -2.913269e+01
   9.193707e+01   2.014803e+01
   3.619604e+01   1.184497e+02
  -8.673220e+01   1.557110e+02
  -1.633103e+02   6.275490e+01
  -1.279611e+02  -9.902890e+01
  -1.677117e+01  -1.944762e+02
   7.838505e+01  -1.417118e+02
   1.013571e+02   6.425346e+00
   6.404293e+01   1.150438e+02
   3.901068e+00   1.027816e+02
  -4.319372e+01   1.991164e+01
  -5.299436e+01  -2.793821e+01
  -2.738988e+01  -5.274551e+00
  -4.096258e+00   2.130896e+01
  -2.019897e+01  -1.378094e+01
  -5.718527e+01  -8.665491e+01
  -4.553246e+01  -1.061198e+02
   4.588883e+01  -4.591362e+01
   1.394492e+02   3.376001e+01
   1.304787e+02   6.483932e+01
   1.692509e+01   4.797295e+01
  -8.762713e+01   2.473893e+01
  -8.546749e+01   1.086027e+01
  -8.976416e+00  -5.859044e+00
   3.813158e+01  -2.356745e+01
   1.199190e+01  -1.848672e+01
  -2.234961e+01   2.343316e+00
   6.995676e+00   8.647095e+00
   7.565775e+01   5.745205e-01
   9.241978e+01   2.015673e+01
   1.051632e+01   8.058552e+01
  -1.149514e+02   1.206815e+02
  -1.825416e+02   6.498140e+01
  -1.405962e+02  -6.500862e+01
  -2.836267e+01  -1.613430e+02
   7.529213e+01  -1.496246e+02
   1.103308e+02  -5.881326e+01
   7.799770e+01   2.086393e+01
   2.412850e+01   3.386380e+01
  -2.124614e+00   7.442273e+00
   1.100418e+01   3.560538e+00
   3.524735e+01   4.477275e+01
   2.596760e+01   8.838406e+01
  -2.756224e+01   7.235754e+01
  -8.239607e+01  -1.593529e+01
  -8.199400e+01  -1.050759e+02
  -8.787885e+00  -1.100367e+02
   8.205195e+01  -2.406971e+01
   1.047289e+02   7.196990e+01
   3.407276e+01   9.974555e+01
  -6.454860e+01   5.558140e+01
  -9.643095e+01  -8.470421e+00
  -3.905990e+01  -4.671540e+01
   3.050670e+01  -4.975297e+01
   2.709656e+01  -2.779505e+01
  -3.556547e+01   2.292347e-01
  -6.790435e+01   7.208183e+00
  -1.340132e+01  -2.518195e+01
   7.767450e+01  -6.913543e+01
   1.121113e+02  -6.181105e+01
   6.104886e+01   9.820806e+00
  -1.452496e+01   8.266296e+01
  -4.927686e+01   7.938398e+01
  -3.367432e+01   4.761197e+00
  -1.511427e+00  -5.503400e+01
   2.463194e+01  -4.185175e+01
   3.569571e+01   1.849946e+01
   2.659065e+01   5.265292e+01
  -2.471603e+00   3.233907e+01
  -3.219017e+01  -7.933098e+00
  -3.892285e+01  -1.895696e+01
  -2.020369e+01   1.915963e+00
   1.103324e-01   1.438494e+01
   6.575444e+00  -4.807991e+00
   6.845297e+00  -3.718633e+01
   1.642244e+01  -4.409335e+01
   3.190715e+01  -6.769081e+00
   3.116877e+01   4.473018e+01
  -3.629134e-01   5.957330e+01
  -4.315412e+01   2.068530e+01
  -5.555547e+01  -3.799841e+01
  -1.441716e+01  -6.158535e+01
   5.478748e+01  -3.496866e+01
   8.939043e+01   1.279975e+01
   4.907798e+01   4.283948e+01
  -2.890403e+01   4.132520e+01
  -6.399180e+01   2.329634e+01
  -2.274181e+01   5.410287e+00
   3.829256e+01   4.329096e-01
   3.731128e+01   1.474988e+01
  -3.114596e+01   3.280638e+01
  -9.160151e+01   2.233692e+01
