
 $NMID
 id='ANONYMOUS ', fmtdat='(2E16.6)'
 volume=1.0
 tramp=1.0
 $END
  -4.730093e+03  -1.036930e+02
  -2.620693e+03  -2.922250e+03
   1.026311e+03  -2.954183e+03
   2.345095e+03  -7.751459e+02
   9.297339e+02   8.804829e+02
  -8.500190e+02   6.230740e+02
  -9.861567e+02  -5.774695e+02
   8.081634e+01  -1.226067e+03
   9.634234e+02  -8.221643e+02
   1.028698e+03   1.637599e+02
   4.401213e+02   9.719714e+02
  -3.049418e+02   9.647691e+02
  -7.055800e+02   8.345661e+01
  -3.805235e+02  -8.170855e+02
   3.327592e+02  -8.089949e+02
   6.592835e+02   4.621670e+01
   2.566904e+02   7.661105e+02
  -3.902009e+02   6.643744e+02
  -6.291908e+02   6.841131e+01
  -3.974490e+02  -4.122194e+02
   7.960132e+00  -4.652604e+02
   2.720687e+02  -2.656209e+02
   2.418851e+02   1.191258e+01
  -1.245153e+02   1.209625e+02
  -4.528979e+02  -1.165792e+02
  -2.248253e+02  -4.878210e+02
   5.173802e+02  -4.529606e+02
   9.352733e+02   1.176856e+02
   4.507605e+02   6.287697e+02
  -4.527583e+02   5.371021e+02
  -8.148884e+02  -5.896438e+01
  -3.653223e+02  -5.438892e+02
   3.118817e+02  -5.590242e+02
   6.108086e+02  -2.057352e+02
   4.386050e+02   2.673276e+02
   6.197246e+01   5.241154e+02
  -2.420065e+02   3.042367e+02
  -2.031703e+02  -2.591395e+02
   1.908094e+02  -4.968717e+02
   5.088862e+02   2.198634e+01
   2.542722e+02   7.594029e+02
  -3.751076e+02   7.712617e+02
  -6.714096e+02  -1.778645e+01
  -2.497161e+02  -6.352413e+02
   3.504096e+02  -3.461270e+02
   4.208061e+02   3.721395e+02
  -8.966351e+01   6.027879e+02
  -6.058981e+02   1.373286e+02
  -6.258366e+02  -4.540422e+02
  -1.552891e+02  -6.333025e+02
   4.245926e+02  -3.662725e+02
   6.764888e+02   9.302437e+01
   3.873457e+02   4.316468e+02
  -1.842606e+02   4.001544e+02
  -4.908480e+02   5.208143e+01
  -2.477034e+02  -2.352129e+02
   1.494026e+02  -1.186726e+02
   1.591346e+02   1.849666e+02
  -1.882294e+02   2.149108e+02
  -3.769246e+02  -9.335644e+01
  -1.330039e+02  -3.345342e+02
   2.366112e+02  -2.646127e+02
   3.466184e+02  -5.494069e+01
   1.838094e+02   9.699320e+01
  -3.550246e+01   2.205915e+02
  -2.280674e+02   3.246161e+02
  -3.505762e+02   2.203946e+02
  -3.064331e+02  -1.511310e+02
  -7.268691e+01  -4.694962e+02
   1.451812e+02  -3.951019e+02
   1.531225e+02  -9.326129e+01
   2.777980e+01   3.549173e+01
   3.024910e+01  -8.375286e+01
   1.982713e+02  -1.421235e+02
   2.962527e+02   5.342123e+01
   1.684871e+02   2.954105e+02
  -8.513558e+01   2.820244e+02
  -2.499595e+02   1.483596e+01
  -2.115606e+02  -2.602427e+02
   1.226963e+01  -3.231088e+02
   2.896385e+02  -1.308324e+02
   3.898909e+02   1.818157e+02
   1.951728e+02   3.846898e+02
  -1.151980e+02   3.258791e+02
  -2.519754e+02   1.137124e+02
  -1.518415e+02  -1.231056e+01
  -8.638768e+01   3.559279e+01
  -2.310497e+02   7.675409e+01
  -4.115376e+02  -5.791574e+01
  -3.432618e+02  -3.045019e+02
   9.535257e-01  -4.637262e+02
   3.767503e+02  -4.261438e+02
   5.130204e+02  -2.014782e+02
   3.573739e+02   1.116258e+02
   5.452828e+01   3.163034e+02
  -1.465185e+02   2.665139e+02
  -9.832049e+01   2.399195e+01
   1.189096e+02  -1.206660e+02
   2.158936e+02   1.360872e+01
   5.074133e+01   2.220615e+02
  -1.848708e+02   1.869397e+02
  -1.992768e+02  -7.317856e+01
   2.362384e+01  -2.129228e+02
   2.118051e+02  -3.501011e+01
   1.685418e+02   2.640721e+02
  -4.623568e+01   3.641903e+02
  -2.460359e+02   1.941555e+02
  -3.345188e+02  -7.154792e+01
  -2.804614e+02  -2.552617e+02
  -9.514137e+01  -2.805095e+02
   1.240411e+02  -1.687434e+02
   1.903621e+02  -1.393753e+01
   6.325551e+01   4.087686e+01
  -7.527010e+01  -3.864335e+01
  -3.204270e+01  -1.361172e+02
   1.343041e+02  -1.041442e+02
   1.916796e+02   1.914192e+01
   6.156694e+01   8.455033e+01
  -8.712666e+01   2.297359e+01
  -6.264784e+01  -7.527906e+01
   1.219298e+02  -9.162723e+01
   2.851641e+02  -8.693753e-01
   2.731503e+02   1.405902e+02
   6.547825e+01   2.680715e+02
  -1.912960e+02   2.764838e+02
  -3.027468e+02   1.319938e+02
  -1.846476e+02  -6.309804e+01
   2.761462e+01  -1.214460e+02
   1.012710e+02  -7.980934e+00
  -3.254112e+01   1.122241e+02
  -2.086926e+02   6.381548e+01
  -2.260464e+02  -1.113141e+02
  -7.063329e+01  -2.213654e+02
   1.036126e+02  -1.686940e+02
   1.527920e+02  -3.182934e+01
   7.709326e+01   4.642363e+01
  -2.526662e+01   1.032032e+01
  -3.812079e+01  -8.047108e+01
   7.098024e+01  -1.160777e+02
   2.028617e+02  -3.210354e+01
   1.985165e+02   1.311405e+02
   2.077814e+01   2.353634e+02
  -1.772841e+02   1.748370e+02
  -2.102958e+02   1.631877e+00
  -6.975045e+01  -1.276147e+02
   7.286354e+01  -1.187584e+02
   9.089070e+01  -3.182569e+01
   2.332280e+01   2.812570e+01
  -1.952041e+01   1.992380e+01
   8.023066e+00  -6.124305e+00
   6.731633e+01   9.558508e+00
   8.766144e+01   8.022635e+01
   1.881908e+01   1.573570e+02
  -1.260044e+02   1.558890e+02
  -2.410265e+02   2.693148e+01
  -2.106330e+02  -1.551647e+02
  -4.064323e+01  -2.492420e+02
   1.193516e+02  -1.747256e+02
   1.436009e+02  -2.441916e+01
   6.995588e+01   6.202519e+01
   2.458771e+01   3.904523e+01
   5.174933e+01  -1.054857e+01
   7.886118e+01  -6.271276e+00
   3.921481e+01   4.787635e+01
  -4.200259e+01   8.147831e+01
  -9.650263e+01   5.188239e+01
  -7.943978e+01  -3.262320e+01
   1.364441e+01  -1.046297e+02
   1.383874e+02  -8.291074e+01
   1.982596e+02   5.099548e+01
   1.049625e+02   2.051312e+02
  -1.072855e+02   2.361128e+02
  -2.753374e+02   9.969650e+01
  -2.673371e+02  -9.134723e+01
  -1.138595e+02  -1.868029e+02
   4.083502e+01  -1.529569e+02
   9.967205e+01  -8.716876e+01
   8.855082e+01  -6.925195e+01
   7.502725e+01  -8.748562e+01
   9.740358e+01  -6.963231e+01
   1.302724e+02   2.652960e+01
   1.152984e+02   1.582923e+02
   2.346475e+01   2.337055e+02
  -1.082891e+02   1.773142e+02
  -1.837115e+02   1.994587e+01
  -1.399323e+02  -1.294228e+02
  -1.702326e+01  -1.683624e+02
   7.041330e+01  -9.732955e+01
   6.241159e+01  -1.593000e+00
   6.932329e+00   4.179672e+01
  -7.464388e+00   3.414005e+01
   3.759149e+01   2.074511e+01
   7.841807e+01   2.509131e+01
   4.335862e+01   3.970757e+01
  -6.342860e+01   3.750139e+01
  -1.580427e+02   3.106647e+00
  -1.453579e+02  -5.423947e+01
  -1.759068e+01  -9.165323e+01
   1.217665e+02  -7.556080e+01
   1.486108e+02  -1.044200e+01
   4.931982e+01   4.485553e+01
  -6.344699e+01   3.756279e+01
  -7.753802e+01  -2.255735e+01
  -3.681869e+00  -7.031464e+01
   6.075866e+01  -5.605209e+01
   6.378133e+01   4.971118e+00
   4.130169e+01   5.136992e+01
   4.224530e+01   4.316683e+01
   6.197279e+01   6.385041e+00
   6.691423e+01   2.065396e+00
   3.348038e+01   6.674002e+01
  -3.589958e+01   1.436376e+02
  -1.167805e+02   1.420890e+02
  -1.645537e+02   3.356109e+01
  -1.241228e+02  -9.366144e+01
  -6.690437e+00  -1.296012e+02
   8.739590e+01  -6.251383e+01
   5.985239e+01   1.813830e+01
  -6.079497e+01   2.079564e+01
  -1.356619e+02  -4.978322e+01
  -7.274480e+01  -1.128559e+02
   8.545787e+01  -1.105408e+02
   1.955227e+02  -4.636870e+01
   1.655095e+02   3.941429e+01
   3.826369e+01   8.962715e+01
  -6.410454e+01   7.174449e+01
  -5.273266e+01   7.599965e+00
   3.980083e+01  -2.556064e+01
   9.281339e+01   2.540428e+01
   3.032059e+01   1.212660e+02
  -1.006041e+02   1.553254e+02
  -1.766283e+02   5.837696e+01
  -1.273858e+02  -1.096784e+02
  -2.664663e+00  -2.042616e+02
   9.331572e+01  -1.465516e+02
   1.076058e+02   9.674093e+00
   6.117744e+01   1.233215e+02
  -2.133710e-01   1.119722e+02
  -4.692889e+01   2.192745e+01
  -5.572684e+01  -3.234385e+01
  -2.913657e+01  -9.104689e+00
  -4.760166e+00   2.293989e+01
  -1.980255e+01  -1.278192e+01
  -5.451228e+01  -9.161105e+01
  -4.340085e+01  -1.141836e+02
   4.792439e+01  -4.826908e+01
   1.416092e+02   4.274476e+01
   1.324118e+02   7.869553e+01
   1.621779e+01   5.449109e+01
  -9.269701e+01   1.995373e+01
  -9.256207e+01   4.104628e+00
  -1.200098e+01  -8.641076e+00
   4.139048e+01  -2.198442e+01
   1.522524e+01  -1.808088e+01
  -2.208245e+01   5.906808e-01
   5.464902e+00   1.050908e+01
   7.583121e+01   8.189717e+00
   9.200868e+01   2.892647e+01
   3.130672e+00   8.233678e+01
  -1.291175e+02   1.115978e+02
  -1.929990e+02   5.092384e+01
  -1.406926e+02  -7.701026e+01
  -1.867332e+01  -1.688508e+02
   8.683798e+01  -1.518668e+02
   1.171862e+02  -5.538133e+01
   8.024922e+01   2.568519e+01
   2.330849e+01   3.622526e+01
  -3.263360e+00   5.819749e+00
   1.145181e+01   4.442386e-01
   3.495535e+01   4.560252e+01
   2.170642e+01   9.350959e+01
  -3.129438e+01   7.321623e+01
  -8.303542e+01  -2.138891e+01
  -7.456233e+01  -1.144053e+02
   1.199603e+00  -1.132524e+02
   8.665722e+01  -1.843436e+01
   1.007160e+02   8.344149e+01
   2.601647e+01   1.055873e+02
  -7.156351e+01   5.203408e+01
  -9.850475e+01  -1.564984e+01
  -3.695947e+01  -5.084305e+01
   3.435644e+01  -4.936349e+01
   3.007822e+01  -2.817481e+01
  -3.626739e+01  -4.448083e+00
  -7.058692e+01   1.835823e+00
  -1.209104e+01  -2.632878e+01
   8.458037e+01  -6.309710e+01
   1.178661e+02  -5.443143e+01
   6.236995e+01   1.386935e+01
  -2.056523e+01   8.281935e+01
  -5.737851e+01   7.724131e+01
  -3.597082e+01   3.393184e+00
   1.271446e+00  -5.739813e+01
   2.824590e+01  -4.233970e+01
   3.579964e+01   2.089085e+01
   2.534045e+01   5.480506e+01
  -3.160790e+00   3.244625e+01
  -3.181007e+01  -1.024804e+01
  -3.886433e+01  -2.207352e+01
  -2.120398e+01  -5.539474e-01
  -7.755366e-01   1.375777e+01
   7.490756e+00  -4.188700e+00
   1.027490e+01  -3.726376e+01
   2.059374e+01  -4.244508e+01
   3.211168e+01  -2.917547e+00
   2.542586e+01   4.854160e+01
  -7.399228e+00   6.151083e+01
  -4.652485e+01   1.838718e+01
  -5.510303e+01  -4.230366e+01
  -1.256935e+01  -6.498049e+01
   5.629907e+01  -3.427351e+01
   8.957417e+01   1.684988e+01
   4.928596e+01   4.636232e+01
  -2.847743e+01   4.001399e+01
  -6.511106e+01   1.918957e+01
  -2.384130e+01   4.124701e+00
   3.957233e+01   4.160860e+00
   3.828350e+01   2.001009e+01
  -3.437504e+01   3.277146e+01
  -9.676135e+01   1.717567e+01
