
 $NMID
 id='ANONYMOUS ', fmtdat='(2E16.6)'
 volume=1.0
 tramp=1.0
 $END
  -4.577011e+03  -2.276795e+02
  -2.553582e+03  -2.963665e+03
   9.527577e+02  -2.804344e+03
   2.247243e+03  -6.946369e+02
   8.496076e+02   7.512423e+02
  -7.517686e+02   4.825698e+02
  -8.870383e+02  -5.541154e+02
   9.973236e+01  -1.106996e+03
   9.137782e+02  -7.395777e+02
   9.547523e+02   1.601643e+02
   4.025440e+02   9.193923e+02
  -3.083995e+02   9.057166e+02
  -6.700307e+02   5.823216e+01
  -3.343992e+02  -7.890715e+02
   3.341449e+02  -7.617427e+02
   6.304976e+02   5.436303e+01
   2.353583e+02   7.219488e+02
  -3.541037e+02   6.351899e+02
  -6.063126e+02   6.198079e+01
  -3.869443e+02  -3.830839e+02
   4.053354e-01  -4.562576e+02
   2.705359e+02  -2.578979e+02
   2.351446e+02   1.184995e+01
  -1.306897e+02   1.059780e+02
  -4.436898e+02  -1.272375e+02
  -1.967065e+02  -4.752177e+02
   5.084487e+02  -4.340168e+02
   8.995678e+02   1.143802e+02
   4.248909e+02   6.162228e+02
  -4.470415e+02   5.072331e+02
  -7.923902e+02  -7.470871e+01
  -3.416484e+02  -5.301873e+02
   3.192757e+02  -5.379215e+02
   6.033867e+02  -1.850064e+02
   4.211288e+02   2.629903e+02
   4.503638e+01   5.057594e+02
  -2.454968e+02   2.756519e+02
  -1.790864e+02  -2.601987e+02
   2.155078e+02  -4.657831e+02
   4.900769e+02   4.265520e+01
   2.275571e+02   7.326982e+02
  -3.759668e+02   7.185385e+02
  -6.361850e+02  -3.696763e+01
  -2.295010e+02  -5.865484e+02
   3.383270e+02  -3.092840e+02
   3.914327e+02   3.690785e+02
  -1.002546e+02   5.744675e+02
  -5.797221e+02   1.228071e+02
  -5.999166e+02  -4.374125e+02
  -1.501818e+02  -6.077860e+02
   4.079646e+02  -3.435834e+02
   6.455567e+02   9.947133e+01
   3.645671e+02   4.121788e+02
  -1.852350e+02   3.648819e+02
  -4.600128e+02   1.843245e+01
  -2.213353e+02  -2.254430e+02
   1.463521e+02  -9.927276e+01
   1.393831e+02   1.780165e+02
  -1.871008e+02   1.913669e+02
  -3.546090e+02  -9.232782e+01
  -1.311672e+02  -3.103459e+02
   2.132426e+02  -2.504858e+02
   3.277018e+02  -6.225424e+01
   1.944986e+02   8.156824e+01
  -1.840990e+01   2.179490e+02
  -2.166645e+02   3.262680e+02
  -3.491574e+02   2.147163e+02
  -3.011521e+02  -1.500364e+02
  -6.457887e+01  -4.531097e+02
   1.450203e+02  -3.792360e+02
   1.300011e+02  -8.922324e+01
   1.552113e+01   2.241837e+01
   3.149877e+01  -9.255487e+01
   2.012518e+02  -1.382674e+02
   2.893793e+02   5.772046e+01
   1.580210e+02   2.874002e+02
  -8.470323e+01   2.710198e+02
  -2.459110e+02   1.081258e+01
  -2.071042e+02  -2.538553e+02
   1.430286e+01  -3.086567e+02
   2.765112e+02  -1.180557e+02
   3.665739e+02   1.803473e+02
   1.777616e+02   3.641795e+02
  -1.130476e+02   3.035352e+02
  -2.388023e+02   1.096749e+02
  -1.457533e+02  -3.235168e+00
  -8.605871e+01   3.672146e+01
  -2.258586e+02   7.139578e+01
  -3.915363e+02  -5.577693e+01
  -3.271748e+02  -2.900998e+02
   1.458197e+00  -4.415530e+02
   3.654127e+02  -4.047932e+02
   4.938160e+02  -1.872943e+02
   3.402650e+02   1.029567e+02
   5.000832e+01   3.012530e+02
  -1.471341e+02   2.489899e+02
  -9.146300e+01   1.809764e+01
   1.187215e+02  -1.172580e+02
   2.133745e+02   1.175941e+01
   5.470144e+01   2.132098e+02
  -1.763389e+02   1.828260e+02
  -1.914746e+02  -6.539112e+01
   2.163509e+01  -2.004103e+02
   2.001280e+02  -3.208533e+01
   1.565799e+02   2.519003e+02
  -4.201049e+01   3.468722e+02
  -2.326135e+02   1.870238e+02
  -3.249040e+02  -6.529452e+01
  -2.801945e+02  -2.442493e+02
  -9.666075e+01  -2.757638e+02
   1.226967e+02  -1.681348e+02
   1.919174e+02  -1.553043e+01
   6.262116e+01   4.389192e+01
  -7.559094e+01  -3.651858e+01
  -3.130362e+01  -1.310173e+02
   1.301103e+02  -9.991151e+01
   1.859590e+02   2.340047e+01
   5.729332e+01   8.428911e+01
  -8.526056e+01   2.295359e+01
  -6.181179e+01  -7.144945e+01
   1.137612e+02  -8.783456e+01
   2.721651e+02  -2.084028e+00
   2.616890e+02   1.355507e+02
   6.388751e+01   2.566115e+02
  -1.839046e+02   2.605976e+02
  -2.868711e+02   1.196864e+02
  -1.734862e+02  -6.168451e+01
   2.934010e+01  -1.137061e+02
   9.543819e+01  -1.912480e+00
  -3.553796e+01   1.107651e+02
  -2.041541e+02   5.974934e+01
  -2.155491e+02  -1.132919e+02
  -6.731312e+01  -2.202926e+02
   9.984619e+01  -1.643439e+02
   1.511575e+02  -2.801115e+01
   7.590143e+01   4.694680e+01
  -2.704927e+01   7.130966e+00
  -3.929445e+01  -8.207765e+01
   7.039516e+01  -1.148211e+02
   1.984702e+02  -2.735393e+01
   1.910356e+02   1.306697e+02
   1.762059e+01   2.237646e+02
  -1.715710e+02   1.600912e+02
  -1.990603e+02  -2.361852e+00
  -6.531556e+01  -1.207199e+02
   7.070760e+01  -1.134397e+02
   8.767423e+01  -3.049735e+01
   2.245138e+01   2.765118e+01
  -2.119383e+01   2.050300e+01
   5.699414e+00  -4.765749e+00
   6.636116e+01   6.456317e+00
   8.714950e+01   7.685022e+01
   1.904415e+01   1.546650e+02
  -1.227014e+02   1.557867e+02
  -2.350265e+02   3.053525e+01
  -2.042695e+02  -1.465625e+02
  -4.173198e+01  -2.404202e+02
   1.115923e+02  -1.731610e+02
   1.373285e+02  -2.743275e+01
   6.928553e+01   5.768073e+01
   2.539438e+01   3.707118e+01
   5.083105e+01  -1.176332e+01
   7.790255e+01  -7.502574e+00
   4.223397e+01   4.695173e+01
  -3.905382e+01   8.522044e+01
  -9.896928e+01   5.578225e+01
  -8.533459e+01  -3.242601e+01
   9.845977e+00  -1.085373e+02
   1.371678e+02  -8.685690e+01
   1.964539e+02   4.830940e+01
   1.023629e+02   2.018196e+02
  -1.048187e+02   2.313094e+02
  -2.689669e+02   9.787977e+01
  -2.611999e+02  -9.244895e+01
  -1.106766e+02  -1.843458e+02
   4.100808e+01  -1.504976e+02
   9.942776e+01  -8.216736e+01
   8.415146e+01  -6.734454e+01
   6.957673e+01  -8.740703e+01
   9.279704e+01  -7.255417e+01
   1.263604e+02   2.322996e+01
   1.153164e+02   1.556511e+02
   2.888133e+01   2.294859e+02
  -1.024278e+02   1.719219e+02
  -1.810746e+02   1.878592e+01
  -1.393174e+02  -1.246682e+02
  -1.612530e+01  -1.610574e+02
   7.241876e+01  -9.251524e+01
   6.425796e+01  -1.197065e+00
   6.993386e+00   4.277224e+01
  -1.066041e+01   3.558226e+01
   3.409299e+01   2.026617e+01
   7.725750e+01   2.475768e+01
   4.478981e+01   3.968813e+01
  -6.161173e+01   3.692203e+01
  -1.541971e+02   1.988737e+00
  -1.410207e+02  -5.312950e+01
  -1.616906e+01  -9.148886e+01
   1.205355e+02  -7.461155e+01
   1.467875e+02  -9.380027e+00
   5.089748e+01   4.618144e+01
  -5.830225e+01   3.822602e+01
  -7.539472e+01  -1.986331e+01
  -8.073524e+00  -6.631575e+01
   5.473405e+01  -5.479002e+01
   6.191645e+01   2.079678e+00
   4.172256e+01   4.885572e+01
   3.984800e+01   4.335760e+01
   5.846181e+01   3.420789e+00
   6.462737e+01   7.130323e-01
   3.434125e+01   6.519925e+01
  -3.173110e+01   1.442222e+02
  -1.155276e+02   1.423124e+02
  -1.645405e+02   3.404184e+01
  -1.231615e+02  -9.315914e+01
  -8.244540e+00  -1.281954e+02
   8.472985e+01  -6.245816e+01
   6.179489e+01   1.474085e+01
  -5.385661e+01   1.954632e+01
  -1.330004e+02  -4.562357e+01
  -7.514915e+01  -1.100417e+02
   7.968520e+01  -1.143744e+02
   1.937625e+02  -5.092880e+01
   1.656455e+02   3.592329e+01
   3.732502e+01   8.885129e+01
  -6.207020e+01   7.259475e+01
  -4.950819e+01   8.753602e+00
   3.868799e+01  -2.543528e+01
   8.898330e+01   2.445986e+01
   2.823104e+01   1.187492e+02
  -9.660762e+01   1.521887e+02
  -1.702425e+02   5.867319e+01
  -1.231639e+02  -1.033786e+02
  -3.511236e+00  -1.967273e+02
   9.064997e+01  -1.408997e+02
   1.060276e+02   7.933610e+00
   5.972919e+01   1.211109e+02
  -5.021335e+00   1.087806e+02
  -4.740272e+01   1.982719e+01
  -5.194650e+01  -3.473151e+01
  -2.564488e+01  -1.276008e+01
  -3.344633e+00   2.142031e+01
  -1.967497e+01  -1.182862e+01
  -5.234983e+01  -8.729641e+01
  -3.784709e+01  -1.115748e+02
   4.731392e+01  -4.545907e+01
   1.346754e+02   4.302211e+01
   1.256989e+02   7.545847e+01
   1.756562e+01   5.011861e+01
  -8.583133e+01   1.932450e+01
  -8.827949e+01   6.372326e+00
  -1.144103e+01  -5.842512e+00
   3.916206e+01  -2.101292e+01
   1.560559e+01  -1.924212e+01
  -2.053215e+01  -4.302161e-01
   4.957273e+00   1.006347e+01
   7.178412e+01   7.684546e+00
   8.940231e+01   2.620569e+01
   6.323154e+00   7.734623e+01
  -1.184360e+02   1.068958e+02
  -1.822971e+02   5.257885e+01
  -1.338309e+02  -6.528025e+01
  -2.088172e+01  -1.566002e+02
   7.783121e+01  -1.471689e+02
   1.115979e+02  -5.640143e+01
   7.978887e+01   2.471073e+01
   2.551105e+01   3.719645e+01
  -3.715130e+00   7.801068e+00
   8.671410e+00   1.555152e+00
   3.224290e+01   4.371384e+01
   2.149294e+01   8.837523e+01
  -2.886177e+01   6.975237e+01
  -7.904097e+01  -2.030922e+01
  -7.198413e+01  -1.092735e+02
   8.347366e-01  -1.107563e+02
   8.259427e+01  -2.057618e+01
   9.917491e+01   7.698182e+01
   2.935650e+01   1.037381e+02
  -6.630438e+01   5.350161e+01
  -9.616159e+01  -1.389633e+01
  -3.862649e+01  -5.055376e+01
   3.249025e+01  -5.090103e+01
   3.156638e+01  -2.745959e+01
  -3.135949e+01  -4.100587e-01
  -6.742989e+01   5.899661e+00
  -1.579451e+01  -2.447371e+01
   7.965895e+01  -6.375128e+01
   1.177465e+02  -5.743855e+01
   6.600290e+01   1.222376e+01
  -1.580528e+01   8.296560e+01
  -5.397231e+01   8.077724e+01
  -3.702892e+01   6.517680e+00
  -6.427794e-01  -5.507366e+01
   2.574485e+01  -4.236611e+01
   3.547641e+01   1.886041e+01
   2.535648e+01   5.441810e+01
  -3.212520e+00   3.147537e+01
  -3.265016e+01  -9.630623e+00
  -3.869724e+01  -2.124220e+01
  -2.083853e+01  -2.288746e+00
   1.150664e+00   1.269463e+01
   9.437500e+00  -4.064918e+00
   8.514416e+00  -3.532596e+01
   1.611894e+01  -4.159249e+01
   2.949837e+01  -5.554778e+00
   2.710660e+01   4.387608e+01
  -3.842454e+00   5.803316e+01
  -4.440900e+01   1.829082e+01
  -5.466900e+01  -4.038328e+01
  -1.280532e+01  -6.284418e+01
   5.536537e+01  -3.299751e+01
   8.720064e+01   1.766952e+01
   4.776812e+01   4.509354e+01
  -2.765738e+01   3.984983e+01
  -6.333369e+01   1.845828e+01
  -2.365485e+01   4.031003e+00
   3.584142e+01   5.117383e+00
   3.579421e+01   1.893729e+01
  -3.255106e+01   3.095974e+01
  -9.196829e+01   1.493269e+01
