
 $NMID
 id='ANONYMOUS ', fmtdat='(2E16.6)'
 volume=1.0
 tramp=1.0
 $END
  -4.782066e+03   2.948181e+01
  -2.758620e+03  -2.971138e+03
   7.987048e+02  -3.084832e+03
   2.315076e+03  -9.355097e+02
   9.804157e+02   7.570954e+02
  -7.645245e+02   6.003927e+02
  -9.833278e+02  -5.298173e+02
   3.324354e+01  -1.182758e+03
   9.099308e+02  -8.251059e+02
   1.015002e+03   1.324923e+02
   4.599882e+02   9.485622e+02
  -3.193607e+02   9.447726e+02
  -7.190007e+02   9.212287e+01
  -4.122486e+02  -8.063247e+02
   3.195340e+02  -8.184377e+02
   6.738925e+02   2.120086e+01
   2.831033e+02   7.447618e+02
  -3.626595e+02   6.725675e+02
  -6.220434e+02   8.276494e+01
  -4.016439e+02  -3.950165e+02
  -4.475023e+00  -4.758951e+02
   2.799402e+02  -2.830113e+02
   2.495165e+02  -4.088394e+00
  -1.230114e+02   1.214476e+02
  -4.605264e+02  -1.115431e+02
  -2.252010e+02  -4.833591e+02
   5.094529e+02  -4.722987e+02
   9.445451e+02   7.904833e+01
   4.726323e+02   6.247367e+02
  -4.381757e+02   5.478486e+02
  -8.264409e+02  -2.912596e+01
  -3.814271e+02  -5.363073e+02
   3.146417e+02  -5.779109e+02
   6.264651e+02  -2.148774e+02
   4.511102e+02   2.654080e+02
   5.583780e+01   5.376859e+02
  -2.499938e+02   3.034772e+02
  -2.027172e+02  -2.653363e+02
   2.000535e+02  -4.952088e+02
   5.183677e+02   2.467560e+01
   2.814243e+02   7.603872e+02
  -3.653943e+02   7.648840e+02
  -6.782669e+02  -1.733294e+01
  -2.795645e+02  -6.163686e+02
   3.412158e+02  -3.526947e+02
   4.414008e+02   3.553623e+02
  -7.475561e+01   6.049716e+02
  -6.071295e+02   1.627385e+02
  -6.475477e+02  -4.331852e+02
  -1.752673e+02  -6.365364e+02
   4.179087e+02  -3.731703e+02
   6.750852e+02   8.869699e+01
   3.877020e+02   4.216461e+02
  -1.863668e+02   3.877772e+02
  -4.861439e+02   3.313892e+01
  -2.443908e+02  -2.289089e+02
   1.502945e+02  -1.163430e+02
   1.646824e+02   1.769422e+02
  -1.829531e+02   2.099627e+02
  -3.833022e+02  -7.775169e+01
  -1.594576e+02  -3.254666e+02
   2.171115e+02  -2.824251e+02
   3.535078e+02  -8.042107e+01
   2.161229e+02   8.956595e+01
  -1.531363e+01   2.421506e+02
  -2.190494e+02   3.527537e+02
  -3.588342e+02   2.358140e+02
  -3.213403e+02  -1.431708e+02
  -9.176610e+01  -4.683235e+02
   1.324748e+02  -4.061769e+02
   1.332049e+02  -1.076914e+02
   2.203528e+01   1.706229e+01
   3.098434e+01  -1.028347e+02
   2.029385e+02  -1.579811e+02
   3.056744e+02   4.279491e+01
   1.827148e+02   2.902427e+02
  -7.166168e+01   2.884269e+02
  -2.509929e+02   2.221127e+01
  -2.253871e+02  -2.506642e+02
   3.730213e+00  -3.181098e+02
   2.823844e+02  -1.324066e+02
   3.865366e+02   1.749745e+02
   1.980709e+02   3.748860e+02
  -1.117651e+02   3.233018e+02
  -2.479952e+02   1.209553e+02
  -1.577765e+02  -5.900884e+00
  -9.251814e+01   2.808559e+01
  -2.329552e+02   7.325590e+01
  -4.082905e+02  -4.627112e+01
  -3.498150e+02  -2.920101e+02
  -6.325025e+00  -4.589049e+02
   3.678546e+02  -4.333012e+02
   5.047715e+02  -2.109343e+02
   3.544483e+02   9.568686e+01
   6.479541e+01   3.109804e+02
  -1.407569e+02   2.648740e+02
  -9.145577e+01   2.573201e+01
   1.172338e+02  -1.241643e+02
   2.195407e+02   1.486981e+00
   6.370147e+01   2.141974e+02
  -1.727804e+02   1.902208e+02
  -1.964242e+02  -6.194065e+01
   1.580677e+01  -2.104332e+02
   2.100326e+02  -3.983001e+01
   1.756714e+02   2.641520e+02
  -2.910058e+01   3.740288e+02
  -2.411136e+02   2.103841e+02
  -3.449680e+02  -5.900605e+01
  -3.021555e+02  -2.480942e+02
  -1.093709e+02  -2.824809e+02
   1.166001e+02  -1.757618e+02
   1.909070e+02  -2.455183e+01
   6.348485e+01   3.833294e+01
  -7.782151e+01  -4.012373e+01
  -3.541669e+01  -1.384414e+02
   1.330470e+02  -1.135265e+02
   1.964451e+02   1.204519e+01
   6.693441e+01   8.409619e+01
  -8.416991e+01   2.763124e+01
  -6.346502e+01  -7.051880e+01
   1.195208e+02  -9.145215e+01
   2.863763e+02  -1.027236e+01
   2.719215e+02   1.351087e+02
   7.135310e+01   2.635364e+02
  -1.835409e+02   2.795869e+02
  -2.946094e+02   1.373651e+02
  -1.819023e+02  -5.484902e+01
   2.375947e+01  -1.225946e+02
   9.962921e+01  -1.062727e+01
  -2.921724e+01   1.154994e+02
  -2.062612e+02   7.265540e+01
  -2.269763e+02  -1.042024e+02
  -7.513071e+01  -2.237335e+02
   9.935816e+01  -1.718604e+02
   1.517578e+02  -3.001176e+01
   7.518788e+01   4.780518e+01
  -3.145690e+01   6.957784e+00
  -4.398031e+01  -8.642314e+01
   7.032202e+01  -1.244630e+02
   2.063219e+02  -3.824249e+01
   2.055077e+02   1.253156e+02
   2.912533e+01   2.319773e+02
  -1.712723e+02   1.767827e+02
  -2.072727e+02   7.939162e+00
  -7.328379e+01  -1.240076e+02
   6.965275e+01  -1.212770e+02
   9.088561e+01  -3.331395e+01
   2.270763e+01   2.911449e+01
  -2.242427e+01   2.129320e+01
   7.625488e+00  -6.360718e+00
   6.955883e+01   6.399776e+00
   9.108090e+01   7.946217e+01
   1.980784e+01   1.604540e+02
  -1.249459e+02   1.607694e+02
  -2.418856e+02   3.523198e+01
  -2.124185e+02  -1.492828e+02
  -4.744192e+01  -2.489283e+02
   1.140915e+02  -1.816821e+02
   1.421307e+02  -2.831388e+01
   7.304871e+01   6.088177e+01
   2.699026e+01   3.799402e+01
   5.414455e+01  -1.542904e+01
   8.116142e+01  -9.388216e+00
   4.424356e+01   4.948879e+01
  -3.946143e+01   9.019715e+01
  -1.013892e+02   5.871993e+01
  -8.946511e+01  -3.245746e+01
   7.599925e+00  -1.132922e+02
   1.405050e+02  -9.273400e+01
   2.062961e+02   4.728245e+01
   1.109065e+02   2.089171e+02
  -1.070403e+02   2.420251e+02
  -2.817449e+02   1.052278e+02
  -2.744830e+02  -8.875930e+01
  -1.196767e+02  -1.878537e+02
   3.691344e+01  -1.572046e+02
   9.801475e+01  -8.979736e+01
   8.288512e+01  -7.505579e+01
   6.862044e+01  -9.519731e+01
   9.517344e+01  -7.928716e+01
   1.340530e+02   1.975322e+01
   1.268993e+02   1.578525e+02
   3.737377e+01   2.376938e+02
  -9.975196e+01   1.833416e+02
  -1.868453e+02   2.634514e+01
  -1.483968e+02  -1.249238e+02
  -2.291442e+01  -1.671305e+02
   7.091659e+01  -9.900615e+01
   6.403129e+01  -1.229430e+00
   5.520477e+00   4.519813e+01
  -1.085502e+01   3.596294e+01
   3.788980e+01   1.659109e+01
   8.417529e+01   2.112866e+01
   4.900680e+01   3.886580e+01
  -6.433144e+01   4.098238e+01
  -1.642760e+02   7.522249e+00
  -1.500996e+02  -5.132647e+01
  -1.898297e+01  -9.537294e+01
   1.239410e+02  -8.160264e+01
   1.518766e+02  -1.386381e+01
   5.118404e+01   4.612458e+01
  -6.182923e+01   4.080879e+01
  -7.918366e+01  -2.099862e+01
  -9.352839e+00  -7.193609e+01
   5.651309e+01  -5.975261e+01
   6.383379e+01   2.117470e+00
   4.468760e+01   5.008796e+01
   4.444168e+01   4.063493e+01
   6.351352e+01  -3.013646e-01
   6.938910e+01  -7.448595e-01
   3.818176e+01   6.886429e+01
  -2.904801e+01   1.498472e+02
  -1.168585e+02   1.472764e+02
  -1.691764e+02   3.708953e+01
  -1.293561e+02  -9.291509e+01
  -9.507237e+00  -1.314558e+02
   8.872554e+01  -6.491245e+01
   6.339592e+01   1.450879e+01
  -5.932612e+01   2.184445e+01
  -1.401094e+02  -4.192318e+01
  -7.942171e+01  -1.113639e+02
   8.065499e+01  -1.217877e+02
   1.978908e+02  -5.816678e+01
   1.713242e+02   3.332429e+01
   4.144678e+01   9.293107e+01
  -6.276681e+01   7.825323e+01
  -5.140367e+01   9.971491e+00
   3.910938e+01  -3.015605e+01
   9.494983e+01   2.208940e+01
   3.577909e+01   1.249746e+02
  -9.463589e+01   1.620853e+02
  -1.770542e+02   6.335015e+01
  -1.319003e+02  -1.062578e+02
  -9.523564e+00  -2.042556e+02
   8.929598e+01  -1.474899e+02
   1.099769e+02   6.303070e+00
   6.585747e+01   1.219222e+02
  -5.095672e-01   1.128273e+02
  -4.701495e+01   2.330068e+01
  -5.492476e+01  -3.205314e+01
  -2.741762e+01  -8.813601e+00
  -4.384119e+00   2.333387e+01
  -2.359189e+01  -1.288065e+01
  -6.106806e+01  -9.111143e+01
  -4.686852e+01  -1.162386e+02
   4.793782e+01  -5.039516e+01
   1.435702e+02   3.848224e+01
   1.354344e+02   7.257128e+01
   1.926973e+01   5.264282e+01
  -8.975634e+01   2.542052e+01
  -9.076580e+01   1.132070e+01
  -1.080974e+01  -6.736000e+00
   4.009478e+01  -2.377852e+01
   1.436435e+01  -2.099490e+01
  -2.201964e+01   7.840037e-01
   5.205257e+00   9.138072e+00
   7.623599e+01   3.100711e+00
   9.502802e+01   2.316196e+01
   1.072081e+01   8.241380e+01
  -1.204418e+02   1.191163e+02
  -1.891773e+02   6.304221e+01
  -1.456419e+02  -6.743180e+01
  -2.704534e+01  -1.675867e+02
   7.936809e+01  -1.561461e+02
   1.170788e+02  -5.998416e+01
   8.376770e+01   2.387267e+01
   2.753047e+01   3.837374e+01
  -2.692115e+00   9.247741e+00
   1.018508e+01   3.760097e+00
   3.363177e+01   4.675762e+01
   2.411613e+01   9.220527e+01
  -2.992821e+01   7.279001e+01
  -8.439243e+01  -1.906503e+01
  -8.030250e+01  -1.116372e+02
  -3.241159e+00  -1.153831e+02
   8.658398e+01  -2.343805e+01
   1.065599e+02   7.700313e+01
   3.351744e+01   1.063350e+02
  -6.719060e+01   5.862415e+01
  -1.000937e+02  -9.510624e+00
  -4.154369e+01  -4.988459e+01
   3.139156e+01  -5.366263e+01
   3.039086e+01  -2.907539e+01
  -3.555666e+01   1.803955e+00
  -7.228119e+01   7.924746e+00
  -1.590800e+01  -2.713161e+01
   8.196937e+01  -7.081488e+01
   1.208024e+02  -6.195820e+01
   6.773175e+01   1.371016e+01
  -1.454930e+01   8.650907e+01
  -5.300778e+01   8.196186e+01
  -3.748309e+01   6.266872e+00
  -9.284855e-01  -5.695182e+01
   2.577257e+01  -4.287277e+01
   3.707354e+01   2.010223e+01
   2.725740e+01   5.631382e+01
  -2.931038e+00   3.249550e+01
  -3.436087e+01  -9.606312e+00
  -4.120890e+01  -2.092262e+01
  -2.123663e+01  -9.512736e-01
   1.307672e+00   1.347597e+01
   7.736133e+00  -4.725317e+00
   7.905771e+00  -3.869678e+01
   1.763624e+01  -4.526173e+01
   3.366550e+01  -6.419203e+00
   3.090497e+01   4.685677e+01
  -2.507405e+00   6.210922e+01
  -4.673368e+01   2.062778e+01
  -5.914556e+01  -3.994594e+01
  -1.607510e+01  -6.424425e+01
   5.564800e+01  -3.577738e+01
   9.137021e+01   1.422958e+01
   5.084659e+01   4.424074e+01
  -2.927381e+01   4.183418e+01
  -6.548990e+01   2.189988e+01
  -2.312813e+01   5.271354e+00
   3.979378e+01   3.459525e+00
   3.841039e+01   1.870779e+01
  -3.389991e+01   3.478309e+01
  -9.559919e+01   2.108552e+01
