
 $NMID
 id='ANONYMOUS ', fmtdat='(2E16.6)'
 volume=1.0
 tramp=1.0
 $END
  -4.457023e+03   9.450043e+01
  -2.672722e+03  -2.786401e+03
   8.579938e+02  -2.935848e+03
   2.224869e+03  -9.032198e+02
   9.305822e+02   7.707242e+02
  -7.819520e+02   6.299977e+02
  -9.490561e+02  -5.022109e+02
   4.506205e+01  -1.155484e+03
   8.895871e+02  -8.065350e+02
   9.870299e+02   1.307007e+02
   4.547851e+02   9.278894e+02
  -2.818069e+02   9.244681e+02
  -6.996311e+02   1.020339e+02
  -4.262477e+02  -7.750052e+02
   2.943077e+02  -7.877079e+02
   6.450357e+02   2.886830e+01
   2.663999e+02   7.187117e+02
  -3.662482e+02   6.212736e+02
  -6.070505e+02   3.635039e+01
  -3.625807e+02  -3.851442e+02
   1.250262e+01  -4.382912e+02
   2.579848e+02  -2.555300e+02
   2.367101e+02  -6.428427e+00
  -9.716028e+01   1.183899e+02
  -4.283788e+02  -7.315236e+01
  -2.412564e+02  -4.338213e+02
   4.468205e+02  -4.563434e+02
   9.034856e+02   4.599786e+01
   4.789872e+02   5.760789e+02
  -4.071320e+02   5.452979e+02
  -8.072309e+02   4.721861e+00
  -3.926977e+02  -4.943691e+02
   2.749345e+02  -5.532660e+02
   5.780430e+02  -2.298032e+02
   4.442226e+02   2.250293e+02
   8.368904e+01   4.981108e+02
  -2.241917e+02   3.131011e+02
  -2.169187e+02  -2.317732e+02
   1.453868e+02  -4.896127e+02
   4.865528e+02  -1.040524e+01
   2.944508e+02   7.157523e+02
  -3.299191e+02   7.610970e+02
  -6.617056e+02   1.675179e+01
  -2.931605e+02  -6.034838e+02
   3.154886e+02  -3.683629e+02
   4.305256e+02   3.221055e+02
  -5.204402e+01   5.779862e+02
  -5.657096e+02   1.694025e+02
  -6.128677e+02  -3.921682e+02
  -1.701611e+02  -5.935154e+02
   3.889682e+02  -3.653864e+02
   6.440298e+02   6.925539e+01
   3.886031e+02   4.103094e+02
  -1.700780e+02   3.996791e+02
  -4.737148e+02   6.036772e+01
  -2.524652e+02  -2.243144e+02
   1.430470e+02  -1.241928e+02
   1.667485e+02   1.810228e+02
  -1.809423e+02   2.230579e+02
  -3.858398e+02  -7.198804e+01
  -1.521845e+02  -3.278856e+02
   2.179756e+02  -2.677777e+02
   3.249295e+02  -5.829417e+01
   1.699489e+02   9.059350e+01
  -3.681306e+01   1.987248e+02
  -2.008234e+02   3.067493e+02
  -3.208514e+02   2.260822e+02
  -3.056752e+02  -1.282262e+02
  -9.367368e+01  -4.522488e+02
   1.222808e+02  -3.999333e+02
   1.421482e+02  -1.012020e+02
   2.487022e+01   3.829522e+01
   2.094988e+01  -7.950311e+01
   1.766697e+02  -1.533651e+02
   2.834032e+02   2.837684e+01
   1.807927e+02   2.667932e+02
  -5.790715e+01   2.687948e+02
  -2.322169e+02   2.721359e+01
  -2.127819e+02  -2.334612e+02
  -3.921361e+00  -2.991978e+02
   2.661121e+02  -1.347403e+02
   3.755251e+02   1.541556e+02
   2.009599e+02   3.562506e+02
  -1.043367e+02   3.209000e+02
  -2.376504e+02   1.189455e+02
  -1.535019e+02  -1.329931e+01
  -8.809218e+01   2.620023e+01
  -2.154760e+02   7.429639e+01
  -3.889367e+02  -3.959073e+01
  -3.383611e+02  -2.696560e+02
  -1.526619e+01  -4.450289e+02
   3.365612e+02  -4.240299e+02
   4.729716e+02  -2.112827e+02
   3.482683e+02   8.472940e+01
   7.024764e+01   3.001570e+02
  -1.307371e+02   2.611452e+02
  -9.675972e+01   2.550819e+01
   1.022728e+02  -1.239237e+02
   2.079500e+02  -1.646370e+00
   5.978331e+01   2.084586e+02
  -1.722443e+02   1.906955e+02
  -1.982758e+02  -6.178540e+01
   8.429083e+00  -2.126906e+02
   2.006954e+02  -4.927527e+01
   1.742791e+02   2.400808e+02
  -2.195308e+01   3.492143e+02
  -2.182183e+02   1.940518e+02
  -3.115925e+02  -5.383624e+01
  -2.736711e+02  -2.237651e+02
  -1.027809e+02  -2.534680e+02
   1.042061e+02  -1.621641e+02
   1.773497e+02  -2.381122e+01
   6.225599e+01   3.885166e+01
  -7.564818e+01  -2.922694e+01
  -4.221240e+01  -1.264885e+02
   1.177552e+02  -1.126288e+02
   1.821375e+02   4.984375e+00
   6.461983e+01   7.799281e+01
  -7.974633e+01   2.874731e+01
  -6.351572e+01  -6.727452e+01
   1.100748e+02  -9.554813e+01
   2.710237e+02  -1.442161e+01
   2.649836e+02   1.286186e+02
   7.405176e+01   2.509950e+02
  -1.672119e+02   2.663336e+02
  -2.788813e+02   1.350014e+02
  -1.789480e+02  -4.687899e+01
   1.930542e+01  -1.162161e+02
   9.688370e+01  -1.345731e+01
  -2.502869e+01   1.044685e+02
  -1.936171e+02   6.886411e+01
  -2.173420e+02  -9.746228e+01
  -7.314660e+01  -2.117566e+02
   9.444385e+01  -1.651410e+02
   1.493631e+02  -3.480054e+01
   7.588597e+01   4.337622e+01
  -2.511625e+01   1.385568e+01
  -4.198971e+01  -7.144892e+01
   6.009239e+01  -1.114832e+02
   1.902393e+02  -4.012182e+01
   1.931301e+02   1.119638e+02
   2.795594e+01   2.169145e+02
  -1.613204e+02   1.704621e+02
  -1.962644e+02   7.880138e+00
  -6.745820e+01  -1.195868e+02
   6.638386e+01  -1.149723e+02
   8.545388e+01  -3.125185e+01
   2.330333e+01   2.782777e+01
  -1.509010e+01   2.191243e+01
   1.069358e+01  -4.399284e+00
   6.537655e+01   9.715908e+00
   8.212681e+01   7.702601e+01
   1.741245e+01   1.511870e+02
  -1.182500e+02   1.512163e+02
  -2.287844e+02   3.186767e+01
  -2.042362e+02  -1.461482e+02
  -4.524329e+01  -2.361271e+02
   1.099991e+02  -1.714063e+02
   1.385895e+02  -2.697524e+01
   7.037106e+01   5.610160e+01
   2.718449e+01   3.666590e+01
   5.189796e+01  -9.459268e+00
   7.559476e+01  -4.149779e+00
   3.816548e+01   4.766216e+01
  -3.847638e+01   8.258469e+01
  -9.261256e+01   5.443239e+01
  -7.845383e+01  -2.947931e+01
   7.232589e+00  -1.024795e+02
   1.282311e+02  -8.612868e+01
   1.886919e+02   4.140690e+01
   1.064455e+02   1.899233e+02
  -9.244897e+01   2.248203e+02
  -2.544970e+02   1.024589e+02
  -2.544251e+02  -7.255713e+01
  -1.140341e+02  -1.710493e+02
   3.214118e+01  -1.493742e+02
   9.193252e+01  -8.904960e+01
   8.049928e+01  -6.988488e+01
   6.784056e+01  -8.665686e+01
   8.960230e+01  -7.006110e+01
   1.237332e+02   2.199463e+01
   1.160594e+02   1.491417e+02
   3.447288e+01   2.206098e+02
  -9.434174e+01   1.715341e+02
  -1.734702e+02   2.502114e+01
  -1.374707e+02  -1.150683e+02
  -2.281863e+01  -1.549453e+02
   6.076550e+01  -9.367062e+01
   5.600690e+01  -5.744962e+00
   8.869053e+00   3.815853e+01
  -3.121273e+00   3.338922e+01
   3.818981e+01   1.921397e+01
   7.500334e+01   2.277139e+01
   4.051758e+01   3.603422e+01
  -5.969249e+01   3.676906e+01
  -1.481626e+02   7.827847e+00
  -1.382622e+02  -4.327897e+01
  -2.144436e+01  -8.212513e+01
   1.081758e+02  -7.395226e+01
   1.374066e+02  -1.929225e+01
   4.713132e+01   3.541227e+01
  -5.842435e+01   3.560669e+01
  -7.259668e+01  -1.768033e+01
  -4.911531e+00  -6.590149e+01
   5.533451e+01  -5.471050e+01
   5.951531e+01   2.382868e+00
   4.049880e+01   4.734488e+01
   4.193292e+01   3.820340e+01
   5.995310e+01   7.265127e-01
   6.369173e+01   4.751022e-01
   3.372604e+01   6.443561e+01
  -3.102357e+01   1.404411e+02
  -1.090622e+02   1.374915e+02
  -1.539503e+02   3.474319e+01
  -1.204328e+02  -8.442352e+01
  -9.870879e+00  -1.200807e+02
   8.107460e+01  -5.892485e+01
   5.891278e+01   1.463608e+01
  -5.709039e+01   2.310493e+01
  -1.359985e+02  -3.802956e+01
  -7.994861e+01  -1.010938e+02
   7.481720e+01  -1.106321e+02
   1.853145e+02  -5.699868e+01
   1.611205e+02   2.489766e+01
   4.030825e+01   8.304007e+01
  -5.730601e+01   7.231411e+01
  -4.880130e+01   8.756158e+00
   3.713077e+01  -2.787361e+01
   9.010874e+01   2.135578e+01
   3.431222e+01   1.179108e+02
  -9.021102e+01   1.540647e+02
  -1.662912e+02   5.911769e+01
  -1.267961e+02  -1.023679e+02
  -1.208268e+01  -1.950049e+02
   8.202259e+01  -1.378534e+02
   1.007122e+02   7.062679e+00
   6.038203e+01   1.117094e+02
   1.882325e+00   1.000467e+02
  -4.132696e+01   1.950302e+01
  -5.035239e+01  -2.949293e+01
  -2.582325e+01  -7.144505e+00
  -3.366628e+00   2.212556e+01
  -1.815815e+01  -1.101007e+01
  -5.343402e+01  -8.174784e+01
  -4.451031e+01  -1.045141e+02
   4.155659e+01  -4.507953e+01
   1.335358e+02   3.408655e+01
   1.277983e+02   6.406670e+01
   1.699362e+01   4.581346e+01
  -8.660294e+01   2.278304e+01
  -8.600077e+01   1.040272e+01
  -7.960823e+00  -5.058312e+00
   3.767909e+01  -2.248566e+01
   1.144226e+01  -1.859963e+01
  -2.457340e+01   1.317861e+00
   5.611921e+00   8.346808e+00
   7.347395e+01   1.387964e+00
   8.982280e+01   2.097723e+01
   6.413793e+00   7.764592e+01
  -1.152506e+02   1.119676e+02
  -1.770211e+02   5.823025e+01
  -1.328270e+02  -6.554724e+01
  -2.414454e+01  -1.545345e+02
   7.321767e+01  -1.429580e+02
   1.064428e+02  -5.576834e+01
   7.621933e+01   1.983407e+01
   2.406543e+01   3.307270e+01
  -2.436284e+00   7.785107e+00
   1.121544e+01   3.882256e+00
   3.456810e+01   4.374794e+01
   2.443167e+01   8.662872e+01
  -2.910208e+01   7.063253e+01
  -8.219294e+01  -1.816587e+01
  -7.623556e+01  -1.062380e+02
  -2.998351e+00  -1.087853e+02
   8.157296e+01  -2.197598e+01
   9.920919e+01   7.327253e+01
   3.072103e+01   9.864281e+01
  -6.328406e+01   5.141834e+01
  -9.138215e+01  -1.112340e+01
  -3.559183e+01  -4.532560e+01
   3.061862e+01  -4.563885e+01
   2.707256e+01  -2.531045e+01
  -3.568222e+01   2.147840e-01
  -6.701277e+01   5.130958e+00
  -1.271992e+01  -2.449323e+01
   7.685060e+01  -6.504998e+01
   1.108835e+02  -5.743584e+01
   5.856060e+01   1.145813e+01
  -1.634468e+01   8.057949e+01
  -5.031633e+01   7.399861e+01
  -3.387136e+01   1.151970e+00
  -1.996962e-02  -5.549243e+01
   2.545755e+01  -4.046633e+01
   3.561277e+01   1.988961e+01
   2.439303e+01   5.198992e+01
  -3.831231e+00   2.964628e+01
  -3.148477e+01  -9.213010e+00
  -3.575042e+01  -1.949871e+01
  -1.835491e+01   6.813165e-01
   7.567735e-02   1.278234e+01
   6.779802e+00  -6.386516e+00
   9.799713e+00  -3.622389e+01
   2.060211e+01  -4.159378e+01
   3.360584e+01  -4.299326e+00
   2.720335e+01   4.684058e+01
  -5.312786e+00   5.882989e+01
  -4.441614e+01   1.859203e+01
  -5.274480e+01  -3.931939e+01
  -1.245919e+01  -6.084323e+01
   5.208265e+01  -3.204268e+01
   8.442472e+01   1.428054e+01
   4.601975e+01   4.170962e+01
  -2.868842e+01   3.813889e+01
  -6.238553e+01   2.001159e+01
  -2.227730e+01   4.444904e+00
   3.729037e+01   2.220394e+00
   3.696294e+01   1.624797e+01
  -3.099527e+01   3.131921e+01
  -9.054586e+01   2.004695e+01
