
 $NMID
 id='ANONYMOUS ', fmtdat='(2E16.6)'
 volume=1.0
 tramp=1.0
 $END
   4.474647e+03  -7.111808e+01
   2.597873e+03   2.785757e+03
  -8.722489e+02   2.864066e+03
  -2.226960e+03   8.242223e+02
  -8.981241e+02  -7.850687e+02
   8.260542e+02  -6.181740e+02
   9.633756e+02   5.345531e+02
  -6.609946e+01   1.172662e+03
  -9.128135e+02   7.933579e+02
  -9.850848e+02  -1.559325e+02
  -4.278038e+02  -9.342793e+02
   3.107858e+02  -9.182247e+02
   6.985189e+02  -8.810543e+01
   4.121821e+02   7.866999e+02
  -3.020689e+02   7.889634e+02
  -6.442939e+02  -3.646926e+01
  -2.611347e+02  -7.291215e+02
   3.720057e+02  -6.275137e+02
   6.077828e+02  -3.975782e+01
   3.611090e+02   3.930574e+02
  -1.084244e+01   4.415663e+02
  -2.614813e+02   2.545956e+02
  -2.342778e+02   1.137324e+01
   1.081536e+02  -1.075285e+02
   4.322931e+02   8.891312e+01
   2.288564e+02   4.388124e+02
  -4.674938e+02   4.443237e+02
  -9.146559e+02  -6.890251e+01
  -4.663900e+02  -5.929974e+02
   4.212956e+02  -5.426988e+02
   8.133839e+02   9.223223e+00
   3.889257e+02   5.031285e+02
  -2.843352e+02   5.525611e+02
  -5.863550e+02   2.243696e+02
  -4.448434e+02  -2.359859e+02
  -6.770154e+01  -5.055633e+02
   2.289283e+02  -2.997851e+02
   2.039920e+02   2.447563e+02
  -1.676458e+02   4.901912e+02
  -4.943623e+02  -6.929478e+00
  -2.790498e+02  -7.370400e+02
   3.425624e+02  -7.590440e+02
   6.573947e+02  -4.088110e+00
   2.789458e+02   6.112434e+02
  -3.184020e+02   3.576429e+02
  -4.144135e+02  -3.303293e+02
   6.777603e+01  -5.755913e+02
   5.739463e+02  -1.567924e+02
   6.165663e+02   4.099563e+02
   1.614649e+02   6.056117e+02
  -3.990580e+02   3.609826e+02
  -6.487182e+02  -8.317071e+01
  -3.805791e+02  -4.148099e+02
   1.766258e+02  -3.876263e+02
   4.672903e+02  -4.787782e+01
   2.436694e+02   2.176850e+02
  -1.441402e+02   1.139967e+02
  -1.626511e+02  -1.815823e+02
   1.810057e+02  -2.133962e+02
   3.802625e+02   7.860586e+01
   1.482193e+02   3.243404e+02
  -2.195560e+02   2.647547e+02
  -3.308089e+02   6.007823e+01
  -1.754820e+02  -9.011844e+01
   3.999911e+01  -2.062927e+02
   2.082267e+02  -3.144225e+02
   3.284329e+02  -2.246066e+02
   3.046921e+02   1.325036e+02
   8.694220e+01   4.542810e+02
  -1.258569e+02   4.016240e+02
  -1.392807e+02   1.049233e+02
  -2.099466e+01  -3.249509e+01
  -2.444950e+01   8.343508e+01
  -1.835783e+02   1.494828e+02
  -2.860128e+02  -3.280513e+01
  -1.809729e+02  -2.690506e+02
   6.092005e+01  -2.690055e+02
   2.358098e+02  -2.395227e+01
   2.128900e+02   2.404757e+02
  -1.115368e+00   3.022174e+02
  -2.713271e+02   1.295024e+02
  -3.769645e+02  -1.599484e+02
  -1.994573e+02  -3.568575e+02
   1.023997e+02  -3.213074e+02
   2.354907e+02  -1.212928e+02
   1.547068e+02   8.464323e+00
   9.362767e+01  -2.945168e+01
   2.226016e+02  -6.930751e+01
   3.953282e+02   4.577826e+01
   3.412440e+02   2.759182e+02
   9.852279e+00   4.538015e+02
  -3.536496e+02   4.304592e+02
  -4.864964e+02   2.085289e+02
  -3.496777e+02  -9.084744e+01
  -6.324312e+01  -3.041583e+02
   1.362041e+02  -2.609308e+02
   9.354108e+01  -2.516453e+01
  -1.083928e+02   1.232774e+02
  -2.084866e+02  -1.026034e+00
  -5.584588e+01  -2.091909e+02
   1.749401e+02  -1.874998e+02
   1.965630e+02   6.517119e+01
  -1.208061e+01   2.121151e+02
  -2.025938e+02   4.498829e+01
  -1.737927e+02  -2.455884e+02
   2.527537e+01  -3.524539e+02
   2.224613e+02  -1.942116e+02
   3.164804e+02   5.646500e+01
   2.764521e+02   2.282964e+02
   1.015843e+02   2.570396e+02
  -1.085509e+02   1.605842e+02
  -1.800738e+02   1.972539e+01
  -6.192932e+01  -4.006968e+01
   7.670876e+01   3.086377e+01
   4.124776e+01   1.282924e+02
  -1.195107e+02   1.115912e+02
  -1.840571e+02  -7.131216e+00
  -6.294308e+01  -7.805095e+01
   8.188882e+01  -2.539397e+01
   6.311224e+01   6.949879e+01
  -1.130467e+02   9.384388e+01
  -2.744256e+02   1.021032e+01
  -2.686336e+02  -1.320245e+02
  -7.163154e+01  -2.557776e+02
   1.746526e+02  -2.678033e+02
   2.825497e+02  -1.329787e+02
   1.777273e+02   4.895733e+01
  -2.200055e+01   1.152617e+02
  -9.711898e+01   1.109105e+01
   2.816034e+01  -1.055978e+02
   1.969960e+02  -6.727901e+01
   2.196525e+02   1.001786e+02
   7.221547e+01   2.142051e+02
  -9.631540e+01   1.646792e+02
  -1.504741e+02   3.318631e+01
  -7.567062e+01  -4.469964e+01
   2.532099e+01  -1.254979e+01
   4.124890e+01   7.369254e+01
  -6.277582e+01   1.129070e+02
  -1.926548e+02   3.816584e+01
  -1.938192e+02  -1.165791e+02
  -2.536202e+01  -2.192802e+02
   1.654818e+02  -1.695009e+02
   1.981862e+02  -5.767825e+00
   6.648052e+01   1.206743e+02
  -6.872036e+01   1.153976e+02
  -8.763055e+01   3.060946e+01
  -2.267245e+01  -2.809250e+01
   1.655893e+01  -2.160516e+01
  -9.757767e+00   4.646556e+00
  -6.628054e+01  -1.007804e+01
  -8.326119e+01  -7.850866e+01
  -1.682921e+01  -1.525799e+02
   1.203479e+02  -1.513639e+02
   2.316416e+02  -3.030466e+01
   2.059743e+02   1.493169e+02
   4.597856e+01   2.402236e+02
  -1.120477e+02   1.740287e+02
  -1.414212e+02   2.662338e+01
  -7.154300e+01  -5.777421e+01
  -2.629699e+01  -3.797343e+01
  -5.059721e+01   9.954274e+00
  -7.566439e+01   5.408616e+00
  -3.955248e+01  -4.743415e+01
   3.853381e+01  -8.287734e+01
   9.362025e+01  -5.356915e+01
   7.931454e+01   3.072149e+01
  -9.308489e+00   1.034824e+02
  -1.328696e+02   8.543763e+01
  -1.928361e+02  -4.518323e+01
  -1.055293e+02  -1.950942e+02
   9.912057e+01  -2.270769e+02
   2.603485e+02  -9.795232e+01
   2.551514e+02   7.951326e+01
   1.108869e+02   1.737323e+02
  -3.678571e+01   1.478720e+02
  -9.393989e+01   8.625823e+01
  -8.135316e+01   6.982852e+01
  -6.902116e+01   8.715800e+01
  -9.170651e+01   7.051481e+01
  -1.246214e+02  -2.428583e+01
  -1.143527e+02  -1.529929e+02
  -3.002767e+01  -2.229712e+02
   9.780854e+01  -1.706184e+02
   1.750059e+02  -2.150008e+01
   1.370795e+02   1.193690e+02
   2.102221e+01   1.585008e+02
  -6.366717e+01   9.436213e+01
  -5.816156e+01   4.715718e+00
  -8.783378e+00  -3.848893e+01
   3.581915e+00  -3.305224e+01
  -3.867732e+01  -1.957920e+01
  -7.676500e+01  -2.373151e+01
  -4.172298e+01  -3.687100e+01
   6.059083e+01  -3.601612e+01
   1.495289e+02  -6.959399e+00
   1.393853e+02   4.445957e+01
   2.019776e+01   8.267008e+01
  -1.105802e+02   7.314530e+01
  -1.389572e+02   1.731845e+01
  -4.725261e+01  -3.728785e+01
   6.017092e+01  -3.688625e+01
   7.449552e+01   1.777740e+01
   5.562727e+00   6.717472e+01
  -5.619500e+01   5.627064e+01
  -6.082726e+01  -2.664723e+00
  -4.171443e+01  -4.862414e+01
  -4.238677e+01  -3.954844e+01
  -6.125459e+01  -1.258366e+00
  -6.393534e+01  -1.880121e+00
  -3.266820e+01  -6.579798e+01
   3.219908e+01  -1.428934e+02
   1.107424e+02  -1.382044e+02
   1.573655e+02  -3.352663e+01
   1.217856e+02   8.665568e+01
   8.643688e+00   1.220155e+02
  -8.292142e+01   5.914535e+01
  -5.904711e+01  -1.429472e+01
   5.719360e+01  -2.160171e+01
   1.362350e+02   4.033518e+01
   7.881960e+01   1.034763e+02
  -7.795990e+01   1.121135e+02
  -1.892089e+02   5.688611e+01
  -1.630419e+02  -2.821362e+01
  -3.931738e+01  -8.511511e+01
   5.879130e+01  -7.212730e+01
   5.018329e+01  -8.660009e+00
  -3.771699e+01   2.779835e+01
  -9.057216e+01  -2.242846e+01
  -3.299627e+01  -1.188283e+02
   9.352507e+01  -1.533025e+02
   1.677656e+02  -5.662538e+01
   1.253520e+02   1.048739e+02
   9.077566e+00   1.954415e+02
  -8.424306e+01   1.377608e+02
  -1.019489e+02  -8.029991e+00
  -6.050634e+01  -1.138145e+02
  -1.648052e+00  -1.020453e+02
   4.238794e+01  -2.061273e+01
   5.272023e+01   2.910820e+01
   2.693049e+01   7.960958e+00
   2.912688e+00  -2.185772e+01
   1.740042e+01   1.174727e+01
   5.363341e+01   8.391568e+01
   4.387021e+01   1.062432e+02
  -4.316564e+01   4.499127e+01
  -1.354592e+02  -3.744591e+01
  -1.278292e+02  -6.684310e+01
  -1.695944e+01  -4.657692e+01
   8.697437e+01  -2.203796e+01
   8.628638e+01  -9.554334e+00
   8.240278e+00   5.214007e+00
  -3.784355e+01   2.279978e+01
  -1.200017e+01   1.897413e+01
   2.417286e+01  -8.082925e-01
  -5.997033e+00  -9.152162e+00
  -7.406266e+01  -3.193078e+00
  -9.070630e+01  -2.325552e+01
  -5.344261e+00  -7.899762e+01
   1.183718e+02  -1.117787e+02
   1.807585e+02  -5.622956e+01
   1.337705e+02   6.655496e+01
   2.175932e+01   1.558392e+02
  -7.642335e+01   1.431621e+02
  -1.083809e+02   5.559256e+01
  -7.663949e+01  -2.143846e+01
  -2.384631e+01  -3.403829e+01
   2.958769e+00  -7.303436e+00
  -1.066284e+01  -3.308296e+00
  -3.356601e+01  -4.500610e+01
  -2.301874e+01  -8.850297e+01
   2.958680e+01  -7.112029e+01
   8.215933e+01   1.902694e+01
   7.611450e+01   1.085350e+02
   2.992496e+00   1.097708e+02
  -8.251662e+01   2.116485e+01
  -1.001824e+02  -7.545163e+01
  -3.017855e+01  -1.004945e+02
   6.501947e+01  -5.156323e+01
   9.265813e+01   1.260804e+01
   3.524792e+01   4.710411e+01
  -3.258898e+01   4.634107e+01
  -2.785490e+01   2.501037e+01
   3.527640e+01   1.040228e-01
   6.772927e+01  -4.978136e+00
   1.329418e+01   2.418055e+01
  -7.775422e+01   6.448782e+01
  -1.128072e+02   5.784991e+01
  -5.980393e+01  -1.169037e+01
   1.720101e+01  -8.180345e+01
   5.199123e+01  -7.475640e+01
   3.482104e+01  -6.500513e-01
  -4.908207e-01   5.662056e+01
  -2.651414e+01   4.116756e+01
  -3.618612e+01  -2.019806e+01
  -2.476560e+01  -5.317196e+01
   3.564848e+00  -3.038435e+01
   3.169669e+01   9.523800e+00
   3.652370e+01   1.943026e+01
   1.910562e+01  -9.933664e-01
  -7.337129e-02  -1.330287e+01
  -7.134172e+00   6.023817e+00
  -9.735425e+00   3.647145e+01
  -2.079608e+01   4.192410e+01
  -3.333551e+01   3.649115e+00
  -2.667570e+01  -4.749019e+01
   6.174787e+00  -5.893730e+01
   4.461173e+01  -1.815415e+01
   5.253335e+01   4.021254e+01
   1.211020e+01   6.153889e+01
  -5.352894e+01   3.231284e+01
  -8.598483e+01  -1.564449e+01
  -4.666364e+01  -4.285463e+01
   2.911799e+01  -3.877020e+01
   6.323219e+01  -2.006061e+01
   2.244720e+01  -4.709041e+00
  -3.786885e+01  -3.099569e+00
  -3.654386e+01  -1.702809e+01
   3.248748e+01  -3.110322e+01
   9.235108e+01  -1.856172e+01
