
 $NMID
 id='ANONYMOUS ', fmtdat='(2E16.6)'
 volume=1.0
 tramp=1.0
 $END
   4.321662e+03   7.153639e+01
   2.460983e+03   2.613541e+03
  -7.625310e+02   2.821564e+03
  -2.100552e+03   9.630690e+02
  -9.696058e+02  -5.844737e+02
   5.966011e+02  -5.305425e+02
   8.627416e+02   4.484179e+02
  -1.078808e+01   1.067571e+03
  -8.151852e+02   7.868732e+02
  -9.537305e+02  -9.021533e+01
  -4.650914e+02  -8.707984e+02
   2.221141e+02  -8.894949e+02
   6.255981e+02  -1.157472e+02
   3.798870e+02   7.246590e+02
  -2.676240e+02   7.587842e+02
  -6.108597e+02  -9.036255e+00
  -2.814533e+02  -6.997981e+02
   3.282638e+02  -6.575119e+02
   5.998538e+02  -1.049879e+02
   4.124955e+02   3.527422e+02
   2.612523e+01   4.479083e+02
  -2.361255e+02   2.734851e+02
  -2.071622e+02   3.217592e+01
   1.273865e+02  -5.512637e+01
   4.040511e+02   1.441862e+02
   1.699298e+02   4.363514e+02
  -4.985680e+02   3.870710e+02
  -8.688739e+02  -1.125109e+02
  -4.179649e+02  -5.570220e+02
   4.070894e+02  -4.724016e+02
   7.606956e+02   5.176387e+01
   3.504552e+02   4.984561e+02
  -2.950458e+02   5.191417e+02
  -5.810172e+02   1.974897e+02
  -4.230230e+02  -2.326789e+02
  -7.495000e+01  -4.699549e+02
   1.846537e+02  -2.791922e+02
   1.479731e+02   2.107384e+02
  -1.774745e+02   4.156672e+02
  -4.352278e+02  -3.649265e+01
  -2.245427e+02  -6.976738e+02
   3.125090e+02  -7.099687e+02
   5.896046e+02  -1.448792e+01
   2.457793e+02   5.516890e+02
  -2.843424e+02   3.180592e+02
  -3.685371e+02  -3.342311e+02
   7.912280e+01  -5.543900e+02
   5.628167e+02  -1.286860e+02
   6.047899e+02   4.293041e+02
   1.625517e+02   6.040207e+02
  -3.949966e+02   3.519053e+02
  -6.408058e+02  -8.422166e+01
  -3.876552e+02  -3.925961e+02
   1.454953e+02  -3.649959e+02
   4.428176e+02  -6.717721e+01
   2.528770e+02   1.761554e+02
  -1.069744e+02   9.993825e+01
  -1.399698e+02  -1.485781e+02
   1.625202e+02  -1.759677e+02
   3.526880e+02   8.127050e+01
   1.383103e+02   3.071003e+02
  -2.236467e+02   2.671389e+02
  -3.512490e+02   7.025802e+01
  -1.962931e+02  -1.025492e+02
   4.874872e+01  -2.378521e+02
   2.484872e+02  -3.239753e+02
   3.540846e+02  -2.070367e+02
   2.849928e+02   1.537900e+02
   6.917336e+01   4.439217e+02
  -1.195441e+02   3.832024e+02
  -1.218586e+02   1.164494e+02
  -2.971277e+01  -3.496071e+00
  -5.726714e+01   8.835203e+01
  -2.113687e+02   1.224486e+02
  -2.849706e+02  -6.476255e+01
  -1.563722e+02  -2.833633e+02
   7.805744e+01  -2.610911e+02
   2.314606e+02  -6.083950e+00
   1.978457e+02   2.519500e+02
  -1.161146e+01   3.025640e+02
  -2.740736e+02   1.189672e+02
  -3.800833e+02  -1.718746e+02
  -2.044552e+02  -3.637956e+02
   9.395212e+01  -3.228804e+02
   2.373846e+02  -1.340741e+02
   1.586157e+02  -6.958520e+00
   1.006087e+02  -3.271494e+01
   2.382411e+02  -6.220995e+01
   4.128587e+02   5.950407e+01
   3.453722e+02   2.948583e+02
   8.784277e-01   4.618582e+02
  -3.765430e+02   4.296500e+02
  -5.029260e+02   2.042118e+02
  -3.443080e+02  -1.002477e+02
  -5.214255e+01  -3.026292e+02
   1.308210e+02  -2.534269e+02
   7.907296e+01  -2.893152e+01
  -1.152144e+02   1.068275e+02
  -1.971494e+02  -1.257515e+01
  -4.633299e+01  -2.006589e+02
   1.658516e+02  -1.695244e+02
   1.789487e+02   6.551959e+01
  -2.001746e+01   1.970405e+02
  -1.990804e+02   2.794836e+01
  -1.683289e+02  -2.594986e+02
   3.704954e+01  -3.663349e+02
   2.464534e+02  -2.002748e+02
   3.416099e+02   6.949962e+01
   2.843980e+02   2.570493e+02
   8.765103e+01   2.767372e+02
  -1.232731e+02   1.616017e+02
  -1.815640e+02   1.511215e+01
  -5.827535e+01  -3.487295e+01
   6.842521e+01   4.133791e+01
   2.537685e+01   1.288261e+02
  -1.294306e+02   9.742748e+01
  -1.807602e+02  -1.898748e+01
  -5.435813e+01  -7.685067e+01
   8.500853e+01  -1.493664e+01
   5.739355e+01   7.881241e+01
  -1.268634e+02   9.186474e+01
  -2.882467e+02  -6.111987e+00
  -2.711798e+02  -1.466619e+02
  -5.821028e+01  -2.650381e+02
   1.923147e+02  -2.630365e+02
   2.907283e+02  -1.244496e+02
   1.745631e+02   5.243289e+01
  -2.493829e+01   1.104003e+02
  -9.210278e+01   8.302817e+00
   3.592668e+01  -1.020766e+02
   1.999636e+02  -5.789444e+01
   2.151312e+02   1.074447e+02
   6.835603e+01   2.147567e+02
  -9.764431e+01   1.624433e+02
  -1.462861e+02   3.001054e+01
  -7.057474e+01  -4.161744e+01
   2.745534e+01  -8.401247e-01
   3.394957e+01   8.760858e+01
  -7.981923e+01   1.149110e+02
  -2.076667e+02   2.404584e+01
  -1.973787e+02  -1.334995e+02
  -1.875066e+01  -2.287670e+02
   1.756087e+02  -1.699657e+02
   2.047606e+02  -5.066787e+00
   6.755218e+01   1.185809e+02
  -6.955795e+01   1.137993e+02
  -8.531845e+01   3.144344e+01
  -1.651105e+01  -2.666417e+01
   2.325660e+01  -1.606231e+01
  -1.027559e+01   1.140744e+01
  -7.546367e+01  -7.316083e+00
  -9.216894e+01  -8.622595e+01
  -1.566872e+01  -1.632914e+02
   1.310757e+02  -1.545696e+02
   2.401640e+02  -2.433733e+01
   2.078620e+02   1.542883e+02
   4.114149e+01   2.438108e+02
  -1.148386e+02   1.728295e+02
  -1.405891e+02   2.789983e+01
  -7.210610e+01  -5.651940e+01
  -2.873711e+01  -3.682503e+01
  -5.488208e+01   1.075985e+01
  -8.219943e+01   4.276474e+00
  -4.235818e+01  -5.281692e+01
   4.518365e+01  -8.918686e+01
   1.062130e+02  -5.428908e+01
   8.496789e+01   3.832614e+01
  -1.884839e+01   1.119603e+02
  -1.488332e+02   8.275939e+01
  -2.003809e+02  -5.912995e+01
  -9.664634e+01  -2.095826e+02
   1.139600e+02  -2.298063e+02
   2.736631e+02  -9.037373e+01
   2.591365e+02   9.189718e+01
   1.097918e+02   1.809102e+02
  -4.079520e+01   1.488000e+02
  -9.761961e+01   8.617572e+01
  -8.416792e+01   7.226191e+01
  -7.202661e+01   9.265903e+01
  -9.765674e+01   7.262413e+01
  -1.310550e+02  -2.587745e+01
  -1.149708e+02  -1.580314e+02
  -2.665105e+01  -2.311620e+02
   1.035716e+02  -1.754078e+02
   1.783437e+02  -1.814038e+01
   1.377343e+02   1.271878e+02
   1.657357e+01   1.652894e+02
  -6.972125e+01   9.538658e+01
  -6.185100e+01  -9.643420e-02
  -5.183790e+00  -4.470496e+01
   1.098760e+01  -3.648342e+01
  -3.664570e+01  -2.034635e+01
  -7.986321e+01  -2.428081e+01
  -4.297146e+01  -3.911780e+01
   6.904326e+01  -3.528097e+01
   1.624695e+02   4.032543e-01
   1.435069e+02   5.540731e+01
   1.186117e+01   8.968855e+01
  -1.233626e+02   7.365353e+01
  -1.464982e+02   1.091203e+01
  -4.740311e+01  -4.570150e+01
   6.205175e+01  -3.910696e+01
   7.841949e+01   2.091156e+01
   9.265394e+00   7.198991e+01
  -5.571402e+01   6.003268e+01
  -6.534326e+01  -2.526844e+00
  -4.762677e+01  -5.205748e+01
  -4.596399e+01  -4.379919e+01
  -6.196889e+01  -5.623838e+00
  -6.491884e+01  -3.323321e+00
  -3.489563e+01  -6.920138e+01
   3.481028e+01  -1.475859e+02
   1.205405e+02  -1.432992e+02
   1.698158e+02  -3.254511e+01
   1.260726e+02   9.551762e+01
   3.735637e+00   1.303616e+02
  -9.022668e+01   6.187202e+01
  -6.112689e+01  -1.725986e+01
   6.079567e+01  -2.153773e+01
   1.377469e+02   4.501566e+01
   7.605748e+01   1.098891e+02
  -8.311038e+01   1.115274e+02
  -1.964907e+02   5.128971e+01
  -1.678027e+02  -3.564936e+01
  -3.756074e+01  -8.772798e+01
   6.346883e+01  -7.038594e+01
   5.118296e+01  -5.126381e+00
  -4.132953e+01   2.742171e+01
  -9.415460e+01  -2.438899e+01
  -3.252625e+01  -1.234131e+02
   9.695439e+01  -1.583023e+02
   1.730871e+02  -6.070846e+01
   1.286052e+02   1.072632e+02
   6.979138e+00   2.031053e+02
  -8.867408e+01   1.431334e+02
  -1.057282e+02  -1.065994e+01
  -5.733479e+01  -1.209824e+02
   4.144478e+00  -1.060057e+02
   4.658966e+01  -1.888899e+01
   5.205324e+01   3.162739e+01
   2.614770e+01   9.049494e+00
   5.483737e+00  -2.045496e+01
   2.065300e+01   1.657471e+01
   5.315271e+01   9.109638e+01
   3.817821e+01   1.108102e+02
  -5.008338e+01   4.453477e+01
  -1.388585e+02  -4.339182e+01
  -1.282731e+02  -7.454523e+01
  -1.657926e+01  -5.215343e+01
   8.952178e+01  -2.278969e+01
   9.106089e+01  -6.184822e+00
   1.217387e+01   8.346240e+00
  -3.839902e+01   2.293467e+01
  -1.479493e+01   1.740918e+01
   2.109248e+01  -9.550155e-01
  -6.858720e+00  -8.274921e+00
  -7.536305e+01  -5.020110e+00
  -9.396012e+01  -2.678019e+01
  -8.461622e+00  -8.346527e+01
   1.225091e+02  -1.172775e+02
   1.938252e+02  -5.751523e+01
   1.470131e+02   7.275003e+01
   2.335545e+01   1.674858e+02
  -8.625606e+01   1.519144e+02
  -1.196399e+02   5.646835e+01
  -8.124819e+01  -2.485333e+01
  -2.329140e+01  -3.707028e+01
   2.942291e+00  -8.233005e+00
  -1.067308e+01  -3.761801e+00
  -3.290706e+01  -4.671978e+01
  -2.180399e+01  -9.162118e+01
   2.916659e+01  -7.237081e+01
   8.192067e+01   2.065222e+01
   7.848896e+01   1.100863e+02
   4.426863e+00   1.131188e+02
  -8.349147e+01   2.324029e+01
  -1.039918e+02  -7.716621e+01
  -3.184351e+01  -1.066421e+02
   6.925711e+01  -5.685351e+01
   1.005091e+02   1.290738e+01
   3.914155e+01   5.304333e+01
  -3.552280e+01   5.214339e+01
  -3.316008e+01   2.671194e+01
   3.447924e+01  -6.576747e-01
   7.123719e+01  -4.427057e+00
   1.464010e+01   2.752487e+01
  -8.206076e+01   6.600872e+01
  -1.191836e+02   5.503638e+01
  -6.475639e+01  -1.528799e+01
   1.955541e+01  -8.493128e+01
   5.827685e+01  -7.845223e+01
   3.874447e+01  -3.260164e+00
   3.153276e-01   5.786961e+01
  -2.750933e+01   4.480120e+01
  -3.659473e+01  -1.848730e+01
  -2.542833e+01  -5.582498e+01
   3.174057e+00  -3.458527e+01
   3.258574e+01   9.864501e+00
   3.885576e+01   2.383211e+01
   1.974673e+01   1.105565e+00
  -5.862160e-01  -1.650631e+01
  -7.074995e+00   1.295891e+00
  -6.022713e+00   3.605552e+01
  -1.591560e+01   4.549083e+01
  -3.224293e+01   7.801745e+00
  -3.135093e+01  -4.554837e+01
   9.717797e-01  -6.126250e+01
   4.566510e+01  -2.072034e+01
   5.771322e+01   3.973231e+01
   1.436975e+01   6.471035e+01
  -5.687147e+01   3.464980e+01
  -9.121616e+01  -1.614203e+01
  -4.994526e+01  -4.578757e+01
   2.965921e+01  -4.177051e+01
   6.699617e+01  -2.192935e+01
   2.454600e+01  -5.492792e+00
  -3.629639e+01  -3.344086e+00
  -3.718319e+01  -1.568838e+01
   3.207414e+01  -3.112011e+01
   9.318285e+01  -1.875556e+01
