
 $NMID
 id='ANONYMOUS ', fmtdat='(2E16.6)'
 volume=1.0
 tramp=1.0
 $END
  -4.975950e+03  -2.002567e+02
  -2.779424e+03  -3.164564e+03
   1.115288e+03  -3.154359e+03
   2.451233e+03  -7.976032e+02
   9.258421e+02   9.220788e+02
  -8.971201e+02   6.469234e+02
  -1.024828e+03  -6.060212e+02
   8.176238e+01  -1.255417e+03
   9.785274e+02  -8.445288e+02
   1.047079e+03   1.708653e+02
   4.664897e+02   1.002777e+03
  -3.207058e+02   9.731766e+02
  -7.534717e+02   8.062182e+01
  -4.125709e+02  -8.507359e+02
   3.547516e+02  -8.414491e+02
   6.992388e+02   5.163553e+01
   2.657997e+02   7.817407e+02
  -4.037723e+02   6.651925e+02
  -6.344752e+02   5.191664e+01
  -3.805222e+02  -4.106736e+02
   1.236318e+01  -4.646868e+02
   2.641683e+02  -2.748603e+02
   2.396504e+02  -1.718586e+00
  -1.147233e+02   1.327726e+02
  -4.697130e+02  -8.662219e+01
  -2.631510e+02  -4.840572e+02
   4.945679e+02  -4.996197e+02
   9.667113e+02   6.711396e+01
   4.953928e+02   6.429474e+02
  -4.498076e+02   5.830237e+02
  -8.539492e+02  -2.761098e+01
  -4.022965e+02  -5.489201e+02
   3.106369e+02  -5.885513e+02
   6.326732e+02  -2.266235e+02
   4.685807e+02   2.628387e+02
   7.381018e+01   5.417360e+02
  -2.628194e+02   3.236262e+02
  -2.324690e+02  -2.646885e+02
   1.812383e+02  -5.281201e+02
   5.354024e+02  -8.295756e+00
   2.994556e+02   7.748897e+02
  -3.747751e+02   8.049360e+02
  -7.009842e+02   2.115765e+00
  -2.858940e+02  -6.519610e+02
   3.567601e+02  -3.806600e+02
   4.520354e+02   3.703519e+02
  -7.151975e+01   6.256310e+02
  -6.175861e+02   1.606376e+02
  -6.511149e+02  -4.456723e+02
  -1.685357e+02  -6.410232e+02
   4.269684e+02  -3.813454e+02
   6.850539e+02   8.536627e+01
   3.994985e+02   4.390315e+02
  -1.966561e+02   4.195532e+02
  -5.096604e+02   5.554716e+01
  -2.583288e+02  -2.506322e+02
   1.593171e+02  -1.346832e+02
   1.744408e+02   1.918795e+02
  -1.932648e+02   2.295578e+02
  -3.960685e+02  -9.450065e+01
  -1.368997e+02  -3.471713e+02
   2.427355e+02  -2.685819e+02
   3.395077e+02  -4.400830e+01
   1.723821e+02   9.176191e+01
  -3.229430e+01   2.031008e+02
  -2.093479e+02   3.263855e+02
  -3.460046e+02   2.429746e+02
  -3.264296e+02  -1.347153e+02
  -9.906869e+01  -4.895773e+02
   1.413414e+02  -4.203172e+02
   1.596862e+02  -1.035461e+02
   3.016538e+01   4.231082e+01
   2.184708e+01  -8.366792e+01
   1.918130e+02  -1.539485e+02
   3.074558e+02   4.191270e+01
   1.866714e+02   2.934159e+02
  -7.015900e+01   2.917105e+02
  -2.536377e+02   2.881534e+01
  -2.268558e+02  -2.478511e+02
  -5.327429e+00  -3.216775e+02
   2.801676e+02  -1.441629e+02
   3.936640e+02   1.679462e+02
   2.030960e+02   3.821119e+02
  -1.186769e+02   3.320721e+02
  -2.577337e+02   1.129053e+02
  -1.562755e+02  -2.494571e+01
  -8.034057e+01   2.271001e+01
  -2.167684e+02   8.162439e+01
  -4.095698e+02  -4.244850e+01
  -3.522748e+02  -2.943649e+02
   1.751571e-02  -4.613349e+02
   3.739301e+02  -4.371954e+02
   5.118440e+02  -2.105347e+02
   3.634056e+02   1.037102e+02
   6.247775e+01   3.236446e+02
  -1.506797e+02   2.784031e+02
  -1.064143e+02   2.488724e+01
   1.145523e+02  -1.341267e+02
   2.230770e+02   3.673097e+00
   5.970387e+01   2.258640e+02
  -1.870133e+02   2.003771e+02
  -2.080585e+02  -7.054897e+01
   1.951575e+01  -2.219603e+02
   2.157819e+02  -4.096554e+01
   1.749410e+02   2.681336e+02
  -4.150768e+01   3.713684e+02
  -2.419456e+02   1.977336e+02
  -3.343237e+02  -6.674376e+01
  -2.927107e+02  -2.446471e+02
  -1.143692e+02  -2.729765e+02
   1.132497e+02  -1.760558e+02
   1.923895e+02  -2.630679e+01
   6.977359e+01   3.699814e+01
  -7.637764e+01  -3.675795e+01
  -3.807492e+01  -1.363211e+02
   1.331713e+02  -1.111367e+02
   1.960879e+02   1.496872e+01
   6.768567e+01   8.645653e+01
  -8.411708e+01   2.931745e+01
  -6.416167e+01  -6.895712e+01
   1.163998e+02  -8.977142e+01
   2.806039e+02  -6.030870e+00
   2.684631e+02   1.337385e+02
   7.059456e+01   2.620109e+02
  -1.863096e+02   2.765965e+02
  -3.013179e+02   1.346700e+02
  -1.867476e+02  -6.169628e+01
   2.759147e+01  -1.259077e+02
   1.052498e+02  -1.231974e+01
  -2.785021e+01   1.121011e+02
  -2.067316e+02   6.704813e+01
  -2.270166e+02  -1.059838e+02
  -7.592175e+01  -2.223061e+02
   9.989105e+01  -1.725370e+02
   1.533320e+02  -3.378488e+01
   8.154187e+01   4.486741e+01
  -2.462338e+01   1.298862e+01
  -4.313642e+01  -7.725615e+01
   6.545521e+01  -1.169537e+02
   2.002991e+02  -3.817469e+01
   2.031489e+02   1.237292e+02
   2.838482e+01   2.322525e+02
  -1.724020e+02   1.778098e+02
  -2.094362e+02   5.723184e+00
  -7.247805e+01  -1.269420e+02
   7.095309e+01  -1.207089e+02
   9.038158e+01  -3.258555e+01
   2.399324e+01   2.932975e+01
  -1.896038e+01   2.211912e+01
   9.336809e+00  -4.309896e+00
   6.607237e+01   1.091291e+01
   8.553540e+01   7.892424e+01
   1.884052e+01   1.555689e+02
  -1.245105e+02   1.571952e+02
  -2.405722e+02   3.265856e+01
  -2.102163e+02  -1.523185e+02
  -4.396241e+01  -2.494266e+02
   1.176224e+02  -1.792760e+02
   1.441598e+02  -2.534996e+01
   7.107074e+01   6.257530e+01
   2.568046e+01   3.937321e+01
   5.307054e+01  -1.244952e+01
   7.768560e+01  -6.459892e+00
   3.734051e+01   4.796247e+01
  -4.452577e+01   8.269799e+01
  -9.677308e+01   5.223054e+01
  -7.841554e+01  -3.235908e+01
   1.304244e+01  -1.059631e+02
   1.378031e+02  -8.800821e+01
   2.014248e+02   4.590798e+01
   1.123041e+02   2.044697e+02
  -1.018924e+02   2.433134e+02
  -2.750280e+02   1.098030e+02
  -2.714022e+02  -8.525260e+01
  -1.189240e+02  -1.855211e+02
   3.833245e+01  -1.564719e+02
   9.897753e+01  -9.234827e+01
   8.894011e+01  -7.294632e+01
   7.502003e+01  -9.098881e+01
   9.727286e+01  -7.216078e+01
   1.325654e+02   2.453443e+01
   1.235380e+02   1.587739e+02
   3.291201e+01   2.370202e+02
  -1.032658e+02   1.825282e+02
  -1.852293e+02   2.631657e+01
  -1.452945e+02  -1.236328e+02
  -2.314095e+01  -1.655454e+02
   6.531177e+01  -9.807113e+01
   5.997617e+01  -5.270324e+00
   8.786841e+00   3.851210e+01
  -3.975605e+00   3.352571e+01
   3.969127e+01   2.112528e+01
   7.849719e+01   2.603173e+01
   4.255795e+01   3.866423e+01
  -6.203084e+01   3.636267e+01
  -1.560511e+02   4.525779e+00
  -1.460415e+02  -4.913463e+01
  -2.096425e+01  -8.799902e+01
   1.194379e+02  -7.664974e+01
   1.499875e+02  -1.518478e+01
   5.140850e+01   4.271914e+01
  -6.202287e+01   3.870265e+01
  -7.869469e+01  -1.896817e+01
  -5.481611e+00  -6.844360e+01
   5.933942e+01  -5.704751e+01
   6.342344e+01   3.142879e+00
   4.160765e+01   5.085369e+01
   4.357461e+01   4.320963e+01
   6.411735e+01   4.365384e+00
   6.728862e+01   1.306343e+00
   3.294701e+01   6.672904e+01
  -3.676792e+01   1.451013e+02
  -1.167716e+02   1.449168e+02
  -1.641215e+02   3.680477e+01
  -1.262993e+02  -9.155863e+01
  -9.928553e+00  -1.288216e+02
   8.566433e+01  -6.357677e+01
   6.102317e+01   1.644725e+01
  -6.009193e+01   2.101432e+01
  -1.390760e+02  -4.475810e+01
  -7.797875e+01  -1.101480e+02
   8.289304e+01  -1.144690e+02
   1.968037e+02  -5.475859e+01
   1.711454e+02   3.293856e+01
   4.274749e+01   9.050100e+01
  -6.280504e+01   7.549587e+01
  -5.345952e+01   1.008489e+01
   3.848454e+01  -2.630297e+01
   9.321871e+01   2.391928e+01
   3.259024e+01   1.229539e+02
  -9.977308e+01   1.589654e+02
  -1.786891e+02   6.222752e+01
  -1.317501e+02  -1.079246e+02
  -8.870728e+00  -2.058132e+02
   8.913660e+01  -1.489980e+02
   1.094356e+02   5.305715e+00
   6.404564e+01   1.209050e+02
   2.224662e+00   1.120317e+02
  -4.591170e+01   2.314998e+01
  -5.628974e+01  -3.256610e+01
  -2.890816e+01  -1.065831e+01
  -3.579208e+00   2.236520e+01
  -1.774066e+01  -1.122376e+01
  -5.424125e+01  -8.892245e+01
  -4.436873e+01  -1.138006e+02
   4.695751e+01  -4.812920e+01
   1.421432e+02   4.192577e+01
   1.329694e+02   7.691267e+01
   1.573815e+01   5.178699e+01
  -9.253597e+01   2.142000e+01
  -9.250740e+01   8.458644e+00
  -1.047664e+01  -6.044750e+00
   4.027700e+01  -2.353234e+01
   1.334220e+01  -2.156084e+01
  -2.341445e+01  -6.057632e-01
   7.271504e+00   1.116019e+01
   7.756293e+01   7.172779e+00
   9.245660e+01   2.565663e+01
   2.858861e+00   8.029068e+01
  -1.263973e+02   1.140830e+02
  -1.885988e+02   5.698996e+01
  -1.393125e+02  -7.235386e+01
  -2.249230e+01  -1.657501e+02
   8.077645e+01  -1.504848e+02
   1.135640e+02  -5.620121e+01
   8.039508e+01   2.234861e+01
   2.453771e+01   3.503983e+01
  -4.014839e+00   7.406734e+00
   9.771678e+00   2.962637e+00
   3.553504e+01   4.652655e+01
   2.431442e+01   9.239444e+01
  -3.063025e+01   7.200577e+01
  -8.422698e+01  -2.129761e+01
  -7.700400e+01  -1.148946e+02
  -1.237526e-01  -1.160104e+02
   8.804132e+01  -2.033069e+01
   1.032237e+02   8.271230e+01
   2.808607e+01   1.061580e+02
  -6.875196e+01   5.314902e+01
  -9.652371e+01  -1.416298e+01
  -3.708152e+01  -4.849146e+01
   3.287035e+01  -4.721667e+01
   2.886326e+01  -2.663210e+01
  -3.776765e+01  -2.071781e+00
  -7.270852e+01   4.419122e+00
  -1.487581e+01  -2.728478e+01
   8.208349e+01  -6.816841e+01
   1.187531e+02  -5.944695e+01
   6.188963e+01   1.316644e+01
  -1.922671e+01   8.381474e+01
  -5.482719e+01   7.586805e+01
  -3.463857e+01   1.108811e+00
   1.620060e+00  -5.780416e+01
   2.749939e+01  -4.096488e+01
   3.649333e+01   2.212841e+01
   2.548200e+01   5.498909e+01
  -4.184752e+00   3.135520e+01
  -3.332790e+01  -1.097686e+01
  -3.961589e+01  -2.207541e+01
  -2.053039e+01  -1.079007e+00
  -2.006563e-01   1.228660e+01
   7.907485e+00  -7.111003e+00
   1.147150e+01  -3.925056e+01
   2.273599e+01  -4.242954e+01
   3.430718e+01  -2.238733e+00
   2.615161e+01   4.999149e+01
  -7.981698e+00   6.270021e+01
  -4.710090e+01   1.856655e+01
  -5.573519e+01  -4.211933e+01
  -1.249792e+01  -6.533164e+01
   5.584563e+01  -3.323739e+01
   8.806299e+01   1.794580e+01
   4.834562e+01   4.636087e+01
  -2.954248e+01   3.960561e+01
  -6.533434e+01   1.915296e+01
  -2.300567e+01   3.957500e+00
   3.919343e+01   3.499454e+00
   3.903661e+01   1.908498e+01
  -3.383342e+01   3.329300e+01
  -9.561414e+01   1.804037e+01
