
 $NMID
 id='ANONYMOUS ', fmtdat='(2E16.6)'
 volume=1.0
 tramp=1.0
 $END
  -4.451573e+03   6.866237e+01
  -2.686877e+03  -2.730288e+03
   8.041949e+02  -2.854855e+03
   2.121497e+03  -9.259366e+02
   8.835169e+02   7.110509e+02
  -7.673230e+02   5.825965e+02
  -9.207348e+02  -5.046345e+02
   4.750329e+01  -1.138793e+03
   8.684716e+02  -8.008635e+02
   9.653291e+02   1.237802e+02
   4.421043e+02   9.136017e+02
  -2.713267e+02   9.180842e+02
  -6.777646e+02   8.235059e+01
  -4.065615e+02  -7.766095e+02
   2.971139e+02  -7.807690e+02
   6.356900e+02   3.201665e+01
   2.776980e+02   7.060127e+02
  -3.402142e+02   6.254008e+02
  -5.838000e+02   4.817971e+01
  -3.688019e+02  -3.713061e+02
   3.924324e-01  -4.257558e+02
   2.408444e+02  -2.512433e+02
   2.102566e+02  -2.866367e+00
  -1.200370e+02   1.137994e+02
  -4.374535e+02  -8.751770e+01
  -2.340474e+02  -4.417032e+02
   4.588933e+02  -4.486314e+02
   8.843104e+02   4.308630e+01
   4.603897e+02   5.704454e+02
  -4.141390e+02   5.263125e+02
  -7.925227e+02  -1.675219e+01
  -3.785306e+02  -4.948411e+02
   2.784361e+02  -5.484621e+02
   5.779877e+02  -2.239077e+02
   4.397279e+02   2.232800e+02
   8.470287e+01   4.938807e+02
  -2.099741e+02   2.933979e+02
  -1.970169e+02  -2.348728e+02
   1.554755e+02  -4.734821e+02
   4.857858e+02   2.840254e+00
   2.875372e+02   7.141216e+02
  -3.308641e+02   7.407928e+02
  -6.456117e+02   1.041546e+01
  -2.812856e+02  -5.925305e+02
   3.154712e+02  -3.543970e+02
   4.216559e+02   3.211859e+02
  -4.920252e+01   5.737075e+02
  -5.578382e+02   1.676689e+02
  -6.097191e+02  -3.875503e+02
  -1.715163e+02  -5.852749e+02
   3.854394e+02  -3.608924e+02
   6.372467e+02   5.959677e+01
   3.800008e+02   3.974326e+02
  -1.659839e+02   3.844682e+02
  -4.588949e+02   6.130313e+01
  -2.447888e+02  -2.106679e+02
   1.386905e+02  -1.163613e+02
   1.563498e+02   1.710795e+02
  -1.780498e+02   2.057675e+02
  -3.614699e+02  -7.709389e+01
  -1.429123e+02  -3.133356e+02
   2.096299e+02  -2.591188e+02
   3.180154e+02  -6.845677e+01
   1.838234e+02   8.047569e+01
  -1.479016e+01   2.081381e+02
  -1.964356e+02   3.275674e+02
  -3.289954e+02   2.334465e+02
  -3.084699e+02  -1.331515e+02
  -9.179913e+01  -4.515199e+02
   1.129346e+02  -3.866317e+02
   1.269846e+02  -9.525088e+01
   1.603028e+01   3.219646e+01
   2.272295e+01  -9.018390e+01
   1.828185e+02  -1.540056e+02
   2.837036e+02   3.044771e+01
   1.784972e+02   2.666348e+02
  -5.777874e+01   2.702807e+02
  -2.332556e+02   2.632457e+01
  -2.161919e+02  -2.331259e+02
  -5.563388e+00  -3.006079e+02
   2.655064e+02  -1.336646e+02
   3.736906e+02   1.526539e+02
   1.972369e+02   3.494573e+02
  -1.019354e+02   3.116205e+02
  -2.311886e+02   1.183087e+02
  -1.457398e+02  -7.863734e+00
  -8.510420e+01   3.100950e+01
  -2.178294e+02   7.776063e+01
  -3.926265e+02  -3.678318e+01
  -3.384164e+02  -2.669648e+02
  -1.253913e+01  -4.405391e+02
   3.384414e+02  -4.246750e+02
   4.747349e+02  -2.158070e+02
   3.444312e+02   8.632134e+01
   6.607324e+01   3.009526e+02
  -1.304961e+02   2.588178e+02
  -9.313409e+01   2.239448e+01
   1.040270e+02  -1.206632e+02
   2.017025e+02   1.122823e+00
   5.445120e+01   2.034943e+02
  -1.693522e+02   1.831567e+02
  -1.920962e+02  -6.334579e+01
   1.072663e+01  -2.079907e+02
   1.969936e+02  -4.701067e+01
   1.746643e+02   2.363040e+02
  -1.809527e+01   3.471392e+02
  -2.143283e+02   2.002484e+02
  -3.166155e+02  -4.332873e+01
  -2.822294e+02  -2.192492e+02
  -1.109152e+02  -2.560299e+02
   1.022618e+02  -1.658262e+02
   1.758511e+02  -2.458765e+01
   5.921371e+01   3.638144e+01
  -7.570507e+01  -3.271653e+01
  -3.981080e+01  -1.277496e+02
   1.203415e+02  -1.102452e+02
   1.809105e+02   5.315177e+00
   6.309936e+01   7.694126e+01
  -8.017968e+01   2.757038e+01
  -6.253514e+01  -6.845265e+01
   1.118771e+02  -9.755742e+01
   2.730966e+02  -1.790328e+01
   2.647599e+02   1.277449e+02
   7.392596e+01   2.510411e+02
  -1.667033e+02   2.668884e+02
  -2.771401e+02   1.338877e+02
  -1.748118e+02  -5.029807e+01
   2.334046e+01  -1.159013e+02
   9.775179e+01  -1.078921e+01
  -2.639425e+01   1.062709e+02
  -1.950978e+02   7.006401e+01
  -2.162418e+02  -9.343716e+01
  -7.426054e+01  -2.066724e+02
   9.096185e+01  -1.631067e+02
   1.449982e+02  -3.502341e+01
   7.331946e+01   4.169385e+01
  -2.769782e+01   1.186744e+01
  -4.350981e+01  -7.340529e+01
   5.973525e+01  -1.143338e+02
   1.894024e+02  -4.328549e+01
   1.941363e+02   1.096474e+02
   3.067001e+01   2.163628e+02
  -1.561959e+02   1.718810e+02
  -1.931041e+02   9.908599e+00
  -6.848390e+01  -1.181751e+02
   6.516928e+01  -1.145523e+02
   8.524104e+01  -3.132635e+01
   2.340446e+01   2.881440e+01
  -1.781825e+01   2.340475e+01
   8.457268e+00  -5.046724e+00
   6.341267e+01   6.847174e+00
   8.455710e+01   7.341238e+01
   2.129296e+01   1.498025e+02
  -1.166817e+02   1.531645e+02
  -2.296348e+02   3.515441e+01
  -2.025511e+02  -1.438123e+02
  -4.520892e+01  -2.352499e+02
   1.081139e+02  -1.708118e+02
   1.357123e+02  -2.684040e+01
   6.896438e+01   5.517678e+01
   2.769307e+01   3.565875e+01
   5.221708e+01  -1.091521e+01
   7.431253e+01  -6.736757e+00
   3.895411e+01   4.555755e+01
  -3.668623e+01   8.275294e+01
  -9.134102e+01   5.687704e+01
  -8.073559e+01  -2.727721e+01
   4.794678e+00  -1.043120e+02
   1.283984e+02  -9.009703e+01
   1.910618e+02   3.912037e+01
   1.095472e+02   1.899462e+02
  -9.181319e+01   2.274543e+02
  -2.545500e+02   1.062064e+02
  -2.534037e+02  -6.988923e+01
  -1.152145e+02  -1.699776e+02
   3.137675e+01  -1.491992e+02
   8.997141e+01  -8.813587e+01
   7.745452e+01  -6.857536e+01
   6.345632e+01  -8.723311e+01
   8.710126e+01  -7.254865e+01
   1.254955e+02   1.775443e+01
   1.216156e+02   1.461284e+02
   3.700546e+01   2.204287e+02
  -9.356660e+01   1.724314e+02
  -1.740761e+02   2.729649e+01
  -1.385568e+02  -1.127032e+02
  -2.462721e+01  -1.539976e+02
   6.034369e+01  -9.223391e+01
   5.646806e+01  -4.388224e+00
   8.842807e+00   3.845354e+01
  -4.385801e+00   3.286204e+01
   3.741136e+01   1.749527e+01
   7.520254e+01   2.107995e+01
   4.189323e+01   3.568009e+01
  -5.830771e+01   3.812906e+01
  -1.462356e+02   1.082736e+01
  -1.385637e+02  -4.202007e+01
  -2.140180e+01  -8.409049e+01
   1.092211e+02  -7.637578e+01
   1.380446e+02  -2.027616e+01
   4.754432e+01   3.715030e+01
  -5.744204e+01   3.740365e+01
  -7.307185e+01  -1.631381e+01
  -7.425932e+00  -6.479102e+01
   5.375930e+01  -5.504808e+01
   5.991738e+01   6.549740e-01
   4.216188e+01   4.590095e+01
   4.342298e+01   3.828769e+01
   5.973450e+01   1.006118e+00
   6.347093e+01  -2.256922e-01
   3.500156e+01   6.354640e+01
  -2.872710e+01   1.410049e+02
  -1.081171e+02   1.415851e+02
  -1.551434e+02   3.832788e+01
  -1.224075e+02  -8.334886e+01
  -1.246974e+01  -1.227917e+02
   8.016769e+01  -6.340641e+01
   5.984265e+01   1.287162e+01
  -5.478951e+01   2.451850e+01
  -1.354842e+02  -3.416391e+01
  -7.930648e+01  -9.920157e+01
   7.361827e+01  -1.105191e+02
   1.844498e+02  -5.810088e+01
   1.600096e+02   2.435384e+01
   4.022453e+01   8.219679e+01
  -5.628597e+01   7.175414e+01
  -4.799399e+01   1.024529e+01
   3.679663e+01  -2.713133e+01
   8.962405e+01   1.989072e+01
   3.566512e+01   1.165266e+02
  -8.721235e+01   1.558333e+02
  -1.644990e+02   6.457881e+01
  -1.285669e+02  -9.741666e+01
  -1.726666e+01  -1.929101e+02
   7.760129e+01  -1.413264e+02
   1.016921e+02   2.307309e+00
   6.327188e+01   1.105394e+02
   3.894161e+00   1.022940e+02
  -4.193385e+01   2.178885e+01
  -5.110397e+01  -2.835476e+01
  -2.567652e+01  -7.757735e+00
  -2.967494e+00   2.113497e+01
  -1.938711e+01  -1.076793e+01
  -5.568350e+01  -8.045053e+01
  -4.646090e+01  -1.034529e+02
   4.160082e+01  -4.636157e+01
   1.336292e+02   3.172692e+01
   1.275515e+02   6.308252e+01
   1.820418e+01   4.675417e+01
  -8.552267e+01   2.424923e+01
  -8.595944e+01   1.113981e+01
  -9.442317e+00  -5.320189e+00
   3.730817e+01  -2.361775e+01
   1.367376e+01  -1.877908e+01
  -2.145988e+01   2.934811e+00
   4.914715e+00   1.030691e+01
   6.999233e+01   1.381783e+00
   8.830009e+01   1.915702e+01
   9.116119e+00   7.633604e+01
  -1.122427e+02   1.138653e+02
  -1.766103e+02   6.237376e+01
  -1.339422e+02  -6.142381e+01
  -2.665633e+01  -1.523323e+02
   7.037435e+01  -1.430260e+02
   1.043181e+02  -5.818945e+01
   7.604315e+01   1.739632e+01
   2.464169e+01   3.222900e+01
  -2.119745e+00   7.896378e+00
   1.102771e+01   3.516765e+00
   3.527359e+01   4.347219e+01
   2.582067e+01   8.679958e+01
  -2.782050e+01   7.059394e+01
  -8.101456e+01  -1.756195e+01
  -7.773310e+01  -1.057552e+02
  -4.954993e+00  -1.083835e+02
   8.039923e+01  -2.317532e+01
   1.005265e+02   7.154269e+01
   3.386754e+01   9.821215e+01
  -6.114103e+01   5.390379e+01
  -9.212314e+01  -8.507073e+00
  -3.800287e+01  -4.532825e+01
   2.937982e+01  -4.712481e+01
   2.744771e+01  -2.565050e+01
  -3.460601e+01   1.967016e+00
  -6.728682e+01   7.354069e+00
  -1.441316e+01  -2.483768e+01
   7.566431e+01  -6.750188e+01
   1.105173e+02  -6.011405e+01
   5.983843e+01   9.852502e+00
  -1.331191e+01   8.035242e+01
  -4.825973e+01   7.522083e+01
  -3.338490e+01   3.822917e+00
  -1.100021e+00  -5.443653e+01
   2.409563e+01  -4.077014e+01
   3.570936e+01   1.909309e+01
   2.558535e+01   5.182017e+01
  -3.070727e+00   3.030832e+01
  -3.187965e+01  -8.480205e+00
  -3.734939e+01  -1.924058e+01
  -1.884916e+01   4.146422e-01
   7.868898e-01   1.294796e+01
   7.222411e+00  -5.878711e+00
   8.499909e+00  -3.629943e+01
   1.805664e+01  -4.119633e+01
   3.151219e+01  -5.076480e+00
   2.754582e+01   4.513624e+01
  -3.904762e+00   5.861418e+01
  -4.394984e+01   1.926273e+01
  -5.508114e+01  -3.839483e+01
  -1.440897e+01  -6.156215e+01
   5.193112e+01  -3.464807e+01
   8.530089e+01   1.185701e+01
   4.700511e+01   4.096273e+01
  -2.791442e+01   3.895874e+01
  -6.162930e+01   2.104697e+01
  -2.157237e+01   5.042894e+00
   3.742273e+01   9.526978e-01
   3.640546e+01   1.555817e+01
  -3.118984e+01   3.103871e+01
  -8.820648e+01   2.000169e+01
