
 $NMID
 id='ANONYMOUS ', fmtdat='(2E16.6)'
 volume=1.0
 tramp=1.0
 $END
  -4.769355e+03   7.056475e+01
  -2.678019e+03  -2.824481e+03
   8.974020e+02  -2.947860e+03
   2.380319e+03  -8.685947e+02
   1.015859e+03   8.556778e+02
  -8.071683e+02   7.156355e+02
  -1.035191e+03  -4.799910e+02
   4.689709e-02  -1.193443e+03
   9.432957e+02  -8.755087e+02
   1.061783e+03   1.387072e+02
   4.855080e+02   9.879862e+02
  -3.124839e+02   1.003349e+03
  -7.439414e+02   1.249034e+02
  -4.327064e+02  -7.937526e+02
   3.194114e+02  -8.049485e+02
   6.711068e+02   3.691070e+01
   2.665550e+02   7.617189e+02
  -3.992312e+02   6.745381e+02
  -6.415929e+02   5.887863e+01
  -3.946987e+02  -4.205459e+02
   5.637977e+00  -4.868743e+02
   2.747027e+02  -2.817187e+02
   2.535337e+02  -5.301291e+00
  -8.570064e+01   1.203240e+02
  -4.186321e+02  -8.239192e+01
  -2.401316e+02  -4.426089e+02
   4.575127e+02  -4.611412e+02
   8.881039e+02   5.534936e+01
   4.665679e+02   5.833730e+02
  -3.986098e+02   5.459853e+02
  -7.906844e+02  -1.812681e+01
  -3.796508e+02  -5.132649e+02
   2.921568e+02  -5.570331e+02
   6.003058e+02  -2.129518e+02
   4.396665e+02   2.570783e+02
   5.431047e+01   5.204443e+02
  -2.399350e+02   3.019041e+02
  -2.270640e+02  -2.546261e+02
   1.593025e+02  -5.140309e+02
   5.074292e+02  -1.742029e+01
   3.014669e+02   7.164707e+02
  -3.276349e+02   7.670230e+02
  -6.839955e+02   1.050395e+01
  -3.031905e+02  -6.188981e+02
   3.208030e+02  -3.682504e+02
   4.419586e+02   3.310440e+02
  -5.788783e+01   5.936271e+02
  -6.006973e+02   1.640974e+02
  -6.319002e+02  -4.268001e+02
  -1.661807e+02  -6.347960e+02
   4.191275e+02  -3.825375e+02
   6.822936e+02   7.977227e+01
   3.979223e+02   4.363233e+02
  -1.754607e+02   4.164554e+02
  -4.925643e+02   6.301311e+01
  -2.615258e+02  -2.345246e+02
   1.460994e+02  -1.337099e+02
   1.715007e+02   1.766618e+02
  -1.825832e+02   2.244763e+02
  -3.841722e+02  -7.560509e+01
  -1.553317e+02  -3.324859e+02
   2.169545e+02  -2.719831e+02
   3.423910e+02  -5.588203e+01
   1.868923e+02   9.540851e+01
  -2.795921e+01   2.074006e+02
  -2.119068e+02   3.081665e+02
  -3.325076e+02   2.240569e+02
  -2.986178e+02  -1.360161e+02
  -8.562946e+01  -4.560361e+02
   1.407626e+02  -4.131167e+02
   1.609208e+02  -1.026256e+02
   3.199332e+01   4.745946e+01
   2.238466e+01  -6.631653e+01
   1.720308e+02  -1.387166e+02
   2.827671e+02   3.706039e+01
   1.745525e+02   2.729535e+02
  -6.872669e+01   2.739577e+02
  -2.408894e+02   2.434431e+01
  -2.172814e+02  -2.434404e+02
   3.037420e-01  -3.093290e+02
   2.743645e+02  -1.338543e+02
   3.775592e+02   1.604577e+02
   1.949851e+02   3.645425e+02
  -1.099470e+02   3.246016e+02
  -2.480399e+02   1.183746e+02
  -1.604103e+02  -1.133289e+01
  -9.273353e+01   2.891832e+01
  -2.303855e+02   7.128595e+01
  -4.043264e+02  -4.820194e+01
  -3.366694e+02  -2.852169e+02
  -7.696125e+00  -4.482104e+02
   3.519233e+02  -4.139398e+02
   4.931331e+02  -2.014986e+02
   3.519974e+02   9.603180e+01
   6.844611e+01   3.055021e+02
  -1.338651e+02   2.692160e+02
  -1.042337e+02   3.144520e+01
   1.022155e+02  -1.238653e+02
   2.117886e+02  -4.808970e+00
   6.568715e+01   2.105399e+02
  -1.688905e+02   1.940907e+02
  -2.007756e+02  -5.731470e+01
   7.061236e+00  -2.060930e+02
   1.997515e+02  -4.247258e+01
   1.659993e+02   2.472563e+02
  -3.796526e+01   3.464365e+02
  -2.318337e+02   1.846279e+02
  -3.178518e+02  -6.646538e+01
  -2.693178e+02  -2.325692e+02
  -9.718361e+01  -2.620358e+02
   1.141175e+02  -1.660636e+02
   1.868879e+02  -2.466025e+01
   6.342741e+01   3.948249e+01
  -7.607151e+01  -2.897868e+01
  -3.910784e+01  -1.257925e+02
   1.235085e+02  -1.089926e+02
   1.875274e+02   6.291215e+00
   6.456803e+01   7.686758e+01
  -8.165988e+01   2.499803e+01
  -5.951180e+01  -6.974788e+01
   1.186524e+02  -8.761210e+01
   2.753078e+02  -6.225430e+00
   2.617573e+02   1.291767e+02
   6.647406e+01   2.515031e+02
  -1.765552e+02   2.684639e+02
  -2.888484e+02   1.361307e+02
  -1.841517e+02  -5.581053e+01
   1.910671e+01  -1.207987e+02
   9.781981e+01  -1.262133e+01
  -2.646230e+01   1.093336e+02
  -1.999717e+02   6.711853e+01
  -2.246541e+02  -1.070229e+02
  -7.493890e+01  -2.201056e+02
   9.800664e+01  -1.665011e+02
   1.527516e+02  -3.315484e+01
   7.948294e+01   4.405191e+01
  -1.960553e+01   1.041731e+01
  -3.706471e+01  -7.364469e+01
   6.418935e+01  -1.083721e+02
   1.918657e+02  -3.071552e+01
   1.924007e+02   1.210225e+02
   2.346597e+01   2.230179e+02
  -1.702255e+02   1.692798e+02
  -2.061455e+02   2.764967e+00
  -7.274077e+01  -1.259705e+02
   6.873384e+01  -1.217203e+02
   9.072794e+01  -3.466094e+01
   2.551927e+01   2.383693e+01
  -1.387593e+01   1.849784e+01
   1.395137e+01  -2.004348e+00
   6.841105e+01   1.569624e+01
   8.196575e+01   8.330779e+01
   1.227603e+01   1.543041e+02
  -1.247289e+02   1.513498e+02
  -2.319762e+02   2.881588e+01
  -2.069635e+02  -1.475421e+02
  -4.339273e+01  -2.416079e+02
   1.142955e+02  -1.753666e+02
   1.426535e+02  -2.619503e+01
   7.174580e+01   6.142090e+01
   2.719588e+01   3.933869e+01
   5.256146e+01  -1.208132e+01
   7.886154e+01  -8.188144e+00
   3.768604e+01   4.822103e+01
  -4.408917e+01   8.326095e+01
  -9.749155e+01   4.969217e+01
  -7.863262e+01  -3.611416e+01
   1.367996e+01  -1.047813e+02
   1.356616e+02  -8.183468e+01
   1.925809e+02   4.937257e+01
   1.013859e+02   1.974689e+02
  -1.034003e+02   2.289489e+02
  -2.724248e+02   9.802331e+01
  -2.638177e+02  -8.718149e+01
  -1.109399e+02  -1.832253e+02
   4.255148e+01  -1.533423e+02
   9.861367e+01  -8.546834e+01
   8.206529e+01  -6.573855e+01
   6.995797e+01  -8.641580e+01
   9.428397e+01  -6.961267e+01
   1.283039e+02   2.594593e+01
   1.146994e+02   1.579920e+02
   2.521936e+01   2.242325e+02
  -1.025517e+02   1.705985e+02
  -1.787496e+02   2.193921e+01
  -1.383185e+02  -1.206121e+02
  -2.077015e+01  -1.613983e+02
   6.806106e+01  -9.446180e+01
   6.107723e+01  -3.397883e+00
   7.237441e+00   4.039076e+01
  -6.366662e+00   3.296578e+01
   3.771290e+01   1.886364e+01
   7.444576e+01   2.455482e+01
   4.205642e+01   4.082501e+01
  -5.945171e+01   3.854477e+01
  -1.509405e+02   3.938150e+00
  -1.419349e+02  -5.062130e+01
  -1.883014e+01  -8.654778e+01
   1.152381e+02  -7.292887e+01
   1.414090e+02  -1.408810e+01
   4.692365e+01   3.956539e+01
  -6.174939e+01   3.446758e+01
  -7.425024e+01  -2.167921e+01
  -1.784321e+00  -7.004964e+01
   6.135582e+01  -5.602535e+01
   6.277253e+01   6.717193e+00
   3.856461e+01   5.294676e+01
   3.903039e+01   4.135716e+01
   6.259629e+01   2.644454e+00
   6.615130e+01   1.109415e+00
   3.094194e+01   6.861376e+01
  -3.802771e+01   1.431264e+02
  -1.136615e+02   1.349584e+02
  -1.559012e+02   2.827919e+01
  -1.173628e+02  -9.168058e+01
  -5.607489e+00  -1.218735e+02
   8.389541e+01  -5.527605e+01
   5.899226e+01   2.076962e+01
  -5.887962e+01   2.334218e+01
  -1.386995e+02  -4.203405e+01
  -7.782638e+01  -1.076850e+02
   7.873366e+01  -1.133295e+02
   1.885144e+02  -5.247365e+01
   1.609287e+02   3.495405e+01
   3.735263e+01   8.854231e+01
  -6.041577e+01   7.048814e+01
  -4.897383e+01   8.376919e+00
   3.824807e+01  -2.583359e+01
   8.833024e+01   2.392124e+01
   3.032684e+01   1.186985e+02
  -9.399520e+01   1.509710e+02
  -1.692202e+02   5.844828e+01
  -1.260629e+02  -1.033260e+02
  -9.016180e+00  -1.975675e+02
   8.685910e+01  -1.458534e+02
   1.061257e+02   5.529917e+00
   6.320006e+01   1.160935e+02
   1.516713e+00   1.060465e+02
  -4.534478e+01   2.104773e+01
  -5.243048e+01  -3.060983e+01
  -2.669279e+01  -8.147189e+00
  -2.571699e+00   2.248972e+01
  -1.811268e+01  -1.082073e+01
  -5.653290e+01  -8.658312e+01
  -4.423711e+01  -1.102147e+02
   4.512434e+01  -4.818939e+01
   1.393135e+02   3.971803e+01
   1.305895e+02   7.409975e+01
   1.401130e+01   5.072484e+01
  -9.206289e+01   1.980695e+01
  -8.634826e+01   3.876564e+00
  -6.870447e+00  -7.730426e+00
   4.055847e+01  -2.154766e+01
   1.192421e+01  -1.669201e+01
  -2.247974e+01   1.666690e-01
   6.663989e+00   8.263830e+00
   7.664271e+01   5.262272e+00
   8.850247e+01   2.688330e+01
   3.558942e+00   8.082476e+01
  -1.190654e+02   1.100563e+02
  -1.798292e+02   5.095460e+01
  -1.339776e+02  -7.218668e+01
  -2.211573e+01  -1.608350e+02
   8.022396e+01  -1.438765e+02
   1.140381e+02  -5.208790e+01
   8.084078e+01   2.515327e+01
   2.321260e+01   3.641896e+01
  -5.684271e+00   7.520408e+00
   8.038396e+00   2.522195e+00
   3.243046e+01   4.397926e+01
   2.236680e+01   8.934373e+01
  -2.930003e+01   7.171145e+01
  -8.053443e+01  -1.838748e+01
  -7.321236e+01  -1.083145e+02
   1.437230e+00  -1.108390e+02
   8.598931e+01  -2.030548e+01
   1.006657e+02   7.910274e+01
   2.592477e+01   1.041238e+02
  -6.956865e+01   5.184315e+01
  -9.564584e+01  -1.533168e+01
  -3.585278e+01  -4.948611e+01
   3.285387e+01  -4.763507e+01
   2.808041e+01  -2.511356e+01
  -3.559671e+01  -5.973537e-01
  -6.765718e+01   3.866062e+00
  -1.383773e+01  -2.627804e+01
   7.640410e+01  -6.445081e+01
   1.098489e+02  -5.527959e+01
   6.029546e+01   1.322964e+01
  -1.720375e+01   8.096406e+01
  -5.236784e+01   7.484080e+01
  -3.487438e+01   1.248909e+00
   9.129649e-01  -5.711613e+01
   2.883179e+01  -4.017015e+01
   3.712152e+01   2.212371e+01
   2.406474e+01   5.507318e+01
  -5.937094e+00   3.190602e+01
  -3.310090e+01  -9.940520e+00
  -3.697215e+01  -2.041948e+01
  -1.917351e+01  -3.051889e-01
  -1.456512e+00   1.279383e+01
   4.950208e+00  -5.027144e+00
   8.931601e+00  -3.785145e+01
   2.196360e+01  -4.287641e+01
   3.487440e+01  -3.878967e+00
   2.647270e+01   4.779216e+01
  -7.772825e+00   6.154813e+01
  -4.693624e+01   1.821889e+01
  -5.383230e+01  -4.349410e+01
  -1.120061e+01  -6.563720e+01
   5.602145e+01  -3.310757e+01
   8.810581e+01   1.911904e+01
   4.797967e+01   4.637422e+01
  -2.995191e+01   3.961816e+01
  -6.558305e+01   1.738961e+01
  -2.254716e+01   2.047292e+00
   4.009860e+01   3.670082e+00
   3.809913e+01   1.931003e+01
  -3.367210e+01   3.352479e+01
  -9.499953e+01   1.793621e+01
