
 $NMID
 id='ANONYMOUS ', fmtdat='(2E16.6)'
 volume=1.0
 tramp=1.0
 $END
   4.627876e+03  -6.775557e+01
   2.623045e+03   2.723399e+03
  -8.381676e+02   2.862730e+03
  -2.293698e+03   8.900887e+02
  -9.965253e+02  -7.950164e+02
   7.714344e+02  -6.946175e+02
   1.009965e+03   4.575355e+02
   6.533288e+00   1.173252e+03
  -9.213745e+02   8.741011e+02
  -1.041309e+03  -1.191294e+02
  -4.824770e+02  -9.670937e+02
   2.995936e+02  -1.000008e+03
   7.269788e+02  -1.260308e+02
   4.242447e+02   7.761466e+02
  -3.101072e+02   7.928569e+02
  -6.598210e+02  -3.388260e+01
  -2.647628e+02  -7.505590e+02
   3.919344e+02  -6.678631e+02
   6.322715e+02  -5.539152e+01
   3.997375e+02   4.170766e+02
  -2.033899e+00   4.771668e+02
  -2.710326e+02   2.784058e+02
  -2.511948e+02   3.917203e+00
   9.005023e+01  -1.181711e+02
   4.206147e+02   9.117090e+01
   2.364772e+02   4.503224e+02
  -4.650880e+02   4.573174e+02
  -8.915410e+02  -5.756181e+01
  -4.643936e+02  -5.879315e+02
   4.004835e+02  -5.351019e+02
   7.809073e+02   1.934984e+01
   3.705391e+02   5.082774e+02
  -2.916094e+02   5.505681e+02
  -5.939276e+02   2.096204e+02
  -4.339492e+02  -2.555586e+02
  -6.321458e+01  -5.160819e+02
   2.321312e+02  -2.972143e+02
   2.163411e+02   2.493370e+02
  -1.606646e+02   4.985342e+02
  -4.969607e+02   8.008235e+00
  -2.918436e+02  -7.125301e+02
   3.216753e+02  -7.569767e+02
   6.704907e+02  -6.985282e+00
   2.976407e+02   6.044174e+02
  -3.170225e+02   3.524054e+02
  -4.309432e+02  -3.378141e+02
   6.588497e+01  -5.884092e+02
   6.013010e+02  -1.597608e+02
   6.294529e+02   4.240523e+02
   1.689352e+02   6.277494e+02
  -4.122778e+02   3.771544e+02
  -6.738343e+02  -7.787913e+01
  -3.945536e+02  -4.286018e+02
   1.728316e+02  -4.096381e+02
   4.882551e+02  -6.156265e+01
   2.601547e+02   2.346697e+02
  -1.451629e+02   1.307838e+02
  -1.704515e+02  -1.714759e+02
   1.802420e+02  -2.215328e+02
   3.820756e+02   7.135524e+01
   1.575680e+02   3.287584e+02
  -2.171912e+02   2.737107e+02
  -3.468925e+02   5.992059e+01
  -1.918685e+02  -9.691057e+01
   2.880236e+01  -2.141845e+02
   2.154038e+02  -3.136325e+02
   3.353417e+02  -2.228898e+02
   2.984804e+02   1.387047e+02
   8.619657e+01   4.529318e+02
  -1.402816e+02   4.080675e+02
  -1.563896e+02   1.035658e+02
  -2.770055e+01  -4.485470e+01
  -2.036244e+01   6.983751e+01
  -1.723920e+02   1.422749e+02
  -2.847063e+02  -3.556294e+01
  -1.720231e+02  -2.735471e+02
   7.147739e+01  -2.747190e+02
   2.410049e+02  -2.137606e+01
   2.155257e+02   2.469585e+02
  -2.706323e+00   3.122606e+02
  -2.759098e+02   1.341338e+02
  -3.777408e+02  -1.615544e+02
  -1.962731e+02  -3.635543e+02
   1.062181e+02  -3.215591e+02
   2.458323e+02  -1.192543e+02
   1.589136e+02   8.727809e+00
   9.261851e+01  -2.985005e+01
   2.274272e+02  -7.227920e+01
   4.039080e+02   4.404297e+01
   3.415208e+02   2.795766e+02
   1.464102e+01   4.444475e+02
  -3.443901e+02   4.157320e+02
  -4.894385e+02   2.081307e+02
  -3.493602e+02  -9.068551e+01
  -6.861068e+01  -3.012486e+02
   1.320554e+02  -2.677513e+02
   1.004190e+02  -3.207006e+01
  -1.039321e+02   1.220961e+02
  -2.093057e+02   3.052230e+00
  -6.365492e+01  -2.088160e+02
   1.686800e+02  -1.926718e+02
   1.983297e+02   5.628654e+01
  -7.591060e+00   2.040767e+02
  -1.984671e+02   4.140706e+01
  -1.668226e+02  -2.496349e+02
   3.553157e+01  -3.487280e+02
   2.318099e+02  -1.876620e+02
   3.214300e+02   6.620035e+01
   2.735595e+02   2.349508e+02
   9.741927e+01   2.651215e+02
  -1.146359e+02   1.671295e+02
  -1.867273e+02   2.616816e+01
  -6.460873e+01  -3.774247e+01
   7.349161e+01   2.935303e+01
   3.651004e+01   1.249972e+02
  -1.236344e+02   1.070372e+02
  -1.858022e+02  -6.592529e+00
  -6.263182e+01  -7.657734e+01
   8.232377e+01  -2.428099e+01
   6.052405e+01   7.087169e+01
  -1.184365e+02   9.052619e+01
  -2.763549e+02   7.583683e+00
  -2.632169e+02  -1.275617e+02
  -6.700623e+01  -2.515761e+02
   1.764303e+02  -2.691372e+02
   2.883896e+02  -1.378097e+02
   1.834943e+02   5.371069e+01
  -1.879025e+01   1.199285e+02
  -9.723559e+01   1.306029e+01
   2.579940e+01  -1.082569e+02
   1.982680e+02  -6.663323e+01
   2.234841e+02   1.070122e+02
   7.480567e+01   2.181233e+02
  -9.676226e+01   1.648229e+02
  -1.506211e+02   3.193686e+01
  -7.767598e+01  -4.346491e+01
   2.162794e+01  -8.256642e+00
   3.763877e+01   7.643518e+01
  -6.536993e+01   1.098836e+02
  -1.927864e+02   3.166434e+01
  -1.923907e+02  -1.190292e+02
  -2.433677e+01  -2.217276e+02
   1.677621e+02  -1.684990e+02
   2.039477e+02  -4.011752e+00
   7.198451e+01   1.241078e+02
  -6.797172e+01   1.200592e+02
  -8.918435e+01   3.379214e+01
  -2.396957e+01  -2.412399e+01
   1.627017e+01  -1.795178e+01
  -1.208416e+01   4.345039e+00
  -6.866340e+01  -1.237575e+01
  -8.345870e+01  -8.067186e+01
  -1.372249e+01  -1.536985e+02
   1.232334e+02  -1.517564e+02
   2.308092e+02  -2.988978e+01
   2.048291e+02   1.459246e+02
   4.253406e+01   2.402349e+02
  -1.132981e+02   1.739215e+02
  -1.400750e+02   2.661262e+01
  -7.095680e+01  -6.041191e+01
  -2.640808e+01  -3.772177e+01
  -5.270146e+01   1.353703e+01
  -7.966972e+01   9.839648e+00
  -3.958330e+01  -4.767475e+01
   4.226043e+01  -8.403330e+01
   9.604266e+01  -5.096411e+01
   7.925937e+01   3.553393e+01
  -1.321917e+01   1.055607e+02
  -1.364961e+02   8.238162e+01
  -1.931411e+02  -4.947229e+01
  -1.015791e+02  -1.973848e+02
   1.026025e+02  -2.288182e+02
   2.704960e+02  -9.929048e+01
   2.628109e+02   8.605929e+01
   1.125764e+02   1.813782e+02
  -3.965391e+01   1.525735e+02
  -9.638694e+01   8.619815e+01
  -7.996394e+01   6.671446e+01
  -6.916597e+01   8.726359e+01
  -9.456796e+01   7.111205e+01
  -1.288727e+02  -2.459445e+01
  -1.157181e+02  -1.567180e+02
  -2.664613e+01  -2.240105e+02
   1.019336e+02  -1.713284e+02
   1.780828e+02  -2.253731e+01
   1.375627e+02   1.200532e+02
   2.037945e+01   1.604685e+02
  -6.704863e+01   9.436116e+01
  -6.064001e+01   3.441430e+00
  -6.817461e+00  -4.037721e+01
   7.046190e+00  -3.298665e+01
  -3.778250e+01  -1.879311e+01
  -7.547900e+01  -2.412239e+01
  -4.314423e+01  -4.049569e+01
   5.864030e+01  -3.863003e+01
   1.520172e+02  -4.354090e+00
   1.443981e+02   5.086634e+01
   2.048664e+01   8.762369e+01
  -1.159203e+02   7.438076e+01
  -1.432368e+02   1.391800e+01
  -4.731486e+01  -4.005816e+01
   6.193668e+01  -3.465220e+01
   7.502396e+01   2.177595e+01
   2.864680e+00   7.063863e+01
  -6.001047e+01   5.713459e+01
  -6.238873e+01  -5.179164e+00
  -3.913936e+01  -5.203003e+01
  -4.005506e+01  -4.014224e+01
  -6.332251e+01  -1.313666e+00
  -6.750560e+01   3.193424e-01
  -3.330589e+01  -6.897905e+01
   3.636403e+01  -1.447349e+02
   1.130390e+02  -1.367385e+02
   1.563515e+02  -2.956528e+01
   1.178566e+02   9.069958e+01
   6.074663e+00   1.211387e+02
  -8.380619e+01   5.535112e+01
  -5.858160e+01  -2.087619e+01
   6.069420e+01  -2.357276e+01
   1.396609e+02   4.372234e+01
   7.772952e+01   1.086669e+02
  -7.850729e+01   1.127894e+02
  -1.884995e+02   5.002348e+01
  -1.607870e+02  -3.522210e+01
  -3.759081e+01  -8.730198e+01
   6.028343e+01  -6.939209e+01
   4.820711e+01  -7.631585e+00
  -3.832401e+01   2.596731e+01
  -8.872097e+01  -2.406605e+01
  -3.056152e+01  -1.185764e+02
   9.272075e+01  -1.514714e+02
   1.685382e+02  -5.993610e+01
   1.267578e+02   1.024501e+02
   1.024285e+01   1.978852e+02
  -8.572923e+01   1.459317e+02
  -1.055936e+02  -5.187451e+00
  -6.306473e+01  -1.173028e+02
  -1.343260e+00  -1.067105e+02
   4.564249e+01  -2.004729e+01
   5.242117e+01   3.142931e+01
   2.683443e+01   8.099001e+00
   2.451365e+00  -2.221899e+01
   1.794193e+01   1.128131e+01
   5.687368e+01   8.706148e+01
   4.398790e+01   1.090264e+02
  -4.445579e+01   4.671461e+01
  -1.390051e+02  -3.921980e+01
  -1.309395e+02  -7.263178e+01
  -1.492830e+01  -5.019243e+01
   9.182925e+01  -1.999809e+01
   8.747414e+01  -4.441307e+00
   7.954859e+00   8.285971e+00
  -4.020610e+01   2.216047e+01
  -1.189779e+01   1.683502e+01
   2.298980e+01  -8.165676e-02
  -6.799115e+00  -8.011103e+00
  -7.727885e+01  -4.108742e+00
  -8.948857e+01  -2.600185e+01
  -4.953097e+00  -8.080764e+01
   1.180411e+02  -1.110824e+02
   1.799115e+02  -5.207957e+01
   1.354219e+02   7.112649e+01
   2.343218e+01   1.611347e+02
  -7.911737e+01   1.454242e+02
  -1.137585e+02   5.407536e+01
  -8.088404e+01  -2.411756e+01
  -2.318756e+01  -3.580709e+01
   5.200526e+00  -7.306155e+00
  -8.606260e+00  -2.073595e+00
  -3.277387e+01  -4.323871e+01
  -2.312052e+01  -8.918965e+01
   2.835465e+01  -7.215540e+01
   7.996868e+01   1.765207e+01
   7.390369e+01   1.077726e+02
  -5.840935e-01   1.106452e+02
  -8.572387e+01   1.969958e+01
  -1.010747e+02  -7.982315e+01
  -2.617133e+01  -1.040443e+02
   6.944178e+01  -5.241425e+01
   9.561718e+01   1.465690e+01
   3.655270e+01   4.915194e+01
  -3.212933e+01   4.806713e+01
  -2.831806e+01   2.617774e+01
   3.571514e+01   7.406815e-01
   6.852291e+01  -4.159685e+00
   1.409500e+01   2.607452e+01
  -7.716488e+01   6.449471e+01
  -1.119806e+02   5.565432e+01
  -6.129299e+01  -1.297726e+01
   1.702432e+01  -8.062525e+01
   5.290011e+01  -7.578455e+01
   3.504196e+01  -2.289580e+00
  -9.087952e-01   5.643766e+01
  -2.840633e+01   3.995924e+01
  -3.660105e+01  -2.170390e+01
  -2.378342e+01  -5.433670e+01
   5.219795e+00  -3.146761e+01
   3.277077e+01   9.945198e+00
   3.770283e+01   2.020313e+01
   1.945676e+01  -2.148952e-02
   1.378860e+00  -1.344191e+01
  -5.209643e+00   4.514454e+00
  -8.538396e+00   3.743629e+01
  -2.075953e+01   4.309625e+01
  -3.417881e+01   4.639274e+00
  -2.706989e+01  -4.703126e+01
   6.615615e+00  -6.154015e+01
   4.639276e+01  -1.826418e+01
   5.435233e+01   4.350959e+01
   1.181863e+01   6.532304e+01
  -5.559425e+01   3.361195e+01
  -8.782195e+01  -1.783078e+01
  -4.828368e+01  -4.502993e+01
   2.899048e+01  -3.908233e+01
   6.392246e+01  -1.814262e+01
   2.214203e+01  -3.153555e+00
  -3.935661e+01  -3.315918e+00
  -3.815297e+01  -1.845674e+01
   3.241384e+01  -3.417470e+01
   9.334742e+01  -2.040653e+01
