
 $NMID
 id='ANONYMOUS ', fmtdat='(2E16.6)'
 volume=1.0
 tramp=1.0
 $END
  -4.695492e+03   5.814611e+01
  -2.635970e+03  -2.727008e+03
   8.146250e+02  -2.864546e+03
   2.293289e+03  -8.953025e+02
   1.012985e+03   7.887503e+02
  -7.625557e+02   6.938133e+02
  -1.020860e+03  -4.578020e+02
  -4.778849e+00  -1.183673e+03
   9.328398e+02  -8.747501e+02
   1.043750e+03   1.259089e+02
   4.690993e+02   9.724492e+02
  -2.921798e+02   9.932627e+02
  -7.259306e+02   1.218529e+02
  -4.229432e+02  -7.807571e+02
   3.146150e+02  -8.014546e+02
   6.651812e+02   3.038786e+01
   2.713678e+02   7.532829e+02
  -3.953326e+02   6.768448e+02
  -6.423602e+02   5.458116e+01
  -4.047974e+02  -4.130706e+02
   5.052895e+00  -4.752629e+02
   2.705799e+02  -2.813331e+02
   2.484865e+02  -9.873377e+00
  -8.952727e+01   1.156797e+02
  -4.206593e+02  -9.166453e+01
  -2.369392e+02  -4.484458e+02
   4.645096e+02  -4.584049e+02
   8.877522e+02   5.160989e+01
   4.787802e+02   5.828986e+02
  -3.945023e+02   5.377555e+02
  -7.827864e+02  -2.115169e+01
  -3.730962e+02  -5.140661e+02
   2.956558e+02  -5.557178e+02
   5.992887e+02  -2.099293e+02
   4.364818e+02   2.573950e+02
   7.107634e+01   5.116526e+02
  -2.276676e+02   2.950283e+02
  -2.082013e+02  -2.471583e+02
   1.675642e+02  -4.915176e+02
   5.005005e+02  -4.853347e+00
   2.936411e+02   7.158021e+02
  -3.228003e+02   7.619670e+02
  -6.736329e+02   1.040761e+01
  -3.020308e+02  -6.026331e+02
   3.187414e+02  -3.580311e+02
   4.305824e+02   3.392452e+02
  -7.121276e+01   5.899011e+02
  -6.077133e+02   1.590537e+02
  -6.348588e+02  -4.313074e+02
  -1.667512e+02  -6.333158e+02
   4.199646e+02  -3.773089e+02
   6.758100e+02   8.590249e+01
   3.932641e+02   4.323399e+02
  -1.744283e+02   4.062712e+02
  -4.856610e+02   5.915585e+01
  -2.528198e+02  -2.339593e+02
   1.495692e+02  -1.252780e+02
   1.693854e+02   1.769914e+02
  -1.838215e+02   2.224090e+02
  -3.876261e+02  -7.723495e+01
  -1.560847e+02  -3.354775e+02
   2.219877e+02  -2.729677e+02
   3.490311e+02  -5.660174e+01
   1.932125e+02   1.016014e+02
  -3.170313e+01   2.156230e+02
  -2.200423e+02   3.137740e+02
  -3.441679e+02   2.246317e+02
  -3.077076e+02  -1.393032e+02
  -8.843861e+01  -4.576793e+02
   1.395406e+02  -4.135268e+02
   1.551061e+02  -1.094882e+02
   2.990552e+01   4.019350e+01
   2.337692e+01  -7.235970e+01
   1.781300e+02  -1.419894e+02
   2.884325e+02   3.794768e+01
   1.738214e+02   2.765901e+02
  -7.060829e+01   2.763954e+02
  -2.423710e+02   2.094907e+01
  -2.161000e+02  -2.498308e+02
   3.762440e+00  -3.147267e+02
   2.787737e+02  -1.362031e+02
   3.832856e+02   1.619190e+02
   2.000161e+02   3.671749e+02
  -1.056233e+02   3.234381e+02
  -2.457512e+02   1.217679e+02
  -1.587135e+02  -7.981745e+00
  -9.138336e+01   2.996664e+01
  -2.300708e+02   7.187345e+01
  -4.082832e+02  -4.614142e+01
  -3.454661e+02  -2.811818e+02
  -1.430842e+01  -4.463176e+02
   3.481669e+02  -4.193698e+02
   4.921388e+02  -2.092177e+02
   3.497994e+02   9.059945e+01
   6.757640e+01   3.026655e+02
  -1.340488e+02   2.676497e+02
  -9.885819e+01   2.885828e+01
   1.069950e+02  -1.235518e+02
   2.123713e+02  -2.671225e+00
   6.311300e+01   2.095390e+02
  -1.697224e+02   1.902325e+02
  -1.975036e+02  -5.984981e+01
   1.146571e+01  -2.058914e+02
   2.032128e+02  -3.989867e+01
   1.703680e+02   2.532297e+02
  -3.649976e+01   3.530554e+02
  -2.350106e+02   1.897094e+02
  -3.242498e+02  -6.653964e+01
  -2.745603e+02  -2.359127e+02
  -9.609346e+01  -2.647079e+02
   1.151623e+02  -1.668479e+02
   1.881727e+02  -2.578393e+01
   6.525659e+01   3.681926e+01
  -7.301878e+01  -3.153762e+01
  -3.657654e+01  -1.262762e+02
   1.252754e+02  -1.074925e+02
   1.876587e+02   7.000691e+00
   6.286001e+01   7.815170e+01
  -8.415262e+01   2.359062e+01
  -6.119149e+01  -7.195375e+01
   1.206128e+02  -9.099997e+01
   2.797061e+02  -8.802183e+00
   2.659262e+02   1.269613e+02
   6.791938e+01   2.537733e+02
  -1.771388e+02   2.716443e+02
  -2.895742e+02   1.396544e+02
  -1.840113e+02  -5.399875e+01
   2.073662e+01  -1.213036e+02
   9.855239e+01  -1.292116e+01
  -2.548819e+01   1.097198e+02
  -1.999964e+02   6.776329e+01
  -2.250895e+02  -1.067330e+02
  -7.351861e+01  -2.183470e+02
   9.665767e+01  -1.656142e+02
   1.489143e+02  -3.152292e+01
   7.606887e+01   4.374654e+01
  -2.353666e+01   7.093349e+00
  -3.803556e+01  -7.985978e+01
   6.675924e+01  -1.131075e+02
   1.953725e+02  -3.320063e+01
   1.947181e+02   1.203571e+02
   2.573830e+01   2.240023e+02
  -1.680569e+02   1.701400e+02
  -2.045057e+02   4.989787e+00
  -7.148732e+01  -1.244191e+02
   6.884489e+01  -1.203261e+02
   8.874090e+01  -3.463985e+01
   2.327239e+01   2.460883e+01
  -1.713627e+01   1.847890e+01
   1.252733e+01  -3.565140e+00
   7.065845e+01   1.339789e+01
   8.465326e+01   8.292638e+01
   1.331745e+01   1.567454e+02
  -1.259077e+02   1.530880e+02
  -2.333363e+02   2.861087e+01
  -2.044190e+02  -1.488428e+02
  -4.130020e+01  -2.426434e+02
   1.148199e+02  -1.738908e+02
   1.401399e+02  -2.592961e+01
   7.084993e+01   6.067073e+01
   2.600474e+01   3.837708e+01
   5.324468e+01  -1.280000e+01
   8.038820e+01  -8.566400e+00
   4.036110e+01   4.826586e+01
  -4.273426e+01   8.429999e+01
  -9.750807e+01   5.135856e+01
  -8.016707e+01  -3.521440e+01
   1.326459e+01  -1.063573e+02
   1.390623e+02  -8.396690e+01
   1.964531e+02   5.081935e+01
   1.012138e+02   2.020326e+02
  -1.064577e+02   2.334621e+02
  -2.731625e+02   1.004106e+02
  -2.631237e+02  -8.740303e+01
  -1.122220e+02  -1.829292e+02
   4.057206e+01  -1.531024e+02
   9.693749e+01  -8.572616e+01
   7.990550e+01  -6.573952e+01
   6.960908e+01  -8.794116e+01
   9.599664e+01  -7.221210e+01
   1.296553e+02   2.427982e+01
   1.165805e+02   1.573678e+02
   2.727057e+01   2.265496e+02
  -1.016357e+02   1.730678e+02
  -1.789389e+02   2.276942e+01
  -1.394876e+02  -1.206306e+02
  -2.159105e+01  -1.611675e+02
   6.757417e+01  -9.458807e+01
   6.205637e+01  -3.162635e+00
   6.629753e+00   4.131557e+01
  -8.221297e+00   3.420357e+01
   3.764625e+01   2.036551e+01
   7.581615e+01   2.441979e+01
   4.223377e+01   4.079821e+01
  -6.186631e+01   3.780954e+01
  -1.558398e+02   3.265047e+00
  -1.455806e+02  -5.205492e+01
  -2.004102e+01  -8.932037e+01
   1.192540e+02  -7.618561e+01
   1.468954e+02  -1.538169e+01
   4.926784e+01   4.028556e+01
  -6.286715e+01   3.663515e+01
  -7.718668e+01  -2.100813e+01
  -4.185371e+00  -7.079754e+01
   6.026490e+01  -5.798217e+01
   6.274239e+01   4.486776e+00
   3.994275e+01   5.155348e+01
   4.148298e+01   3.890146e+01
   6.561902e+01  -8.465374e-02
   6.922018e+01  -1.256685e-01
   3.418326e+01   7.058177e+01
  -3.636046e+01   1.472992e+02
  -1.144824e+02   1.384096e+02
  -1.585543e+02   2.980490e+01
  -1.198348e+02  -9.182230e+01
  -6.314937e+00  -1.227028e+02
   8.484964e+01  -5.661362e+01
   5.940496e+01   2.089675e+01
  -6.182516e+01   2.280667e+01
  -1.414357e+02  -4.569590e+01
  -7.805804e+01  -1.105583e+02
   8.068541e+01  -1.127119e+02
   1.906378e+02  -4.903674e+01
   1.614957e+02   3.557384e+01
   3.723024e+01   8.738627e+01
  -6.019192e+01   6.930222e+01
  -4.805233e+01   7.334321e+00
   3.908975e+01  -2.657051e+01
   9.000560e+01   2.401322e+01
   3.093855e+01   1.199574e+02
  -9.375997e+01   1.533918e+02
  -1.698008e+02   5.921732e+01
  -1.272762e+02  -1.042104e+02
  -9.546466e+00  -1.994968e+02
   8.669298e+01  -1.464736e+02
   1.056038e+02   4.930442e+00
   6.423567e+01   1.179132e+02
   2.582717e+00   1.082612e+02
  -4.531045e+01   2.131108e+01
  -5.342288e+01  -3.133450e+01
  -2.715487e+01  -8.324745e+00
  -2.933927e+00   2.262165e+01
  -1.953027e+01  -1.090359e+01
  -5.839856e+01  -8.875146e+01
  -4.500349e+01  -1.110804e+02
   4.586269e+01  -4.893564e+01
   1.406479e+02   3.899269e+01
   1.323107e+02   7.312835e+01
   1.553719e+01   5.089871e+01
  -9.151651e+01   2.095699e+01
  -8.819741e+01   5.594402e+00
  -9.107172e+00  -7.664766e+00
   4.023872e+01  -2.231644e+01
   1.235667e+01  -1.768419e+01
  -2.320923e+01   8.622580e-02
   6.104925e+00   8.016073e+00
   7.752631e+01   3.567429e+00
   9.131220e+01   2.577760e+01
   6.181202e+00   8.217321e+01
  -1.185908e+02   1.134563e+02
  -1.833944e+02   5.405257e+01
  -1.386349e+02  -7.234850e+01
  -2.366757e+01  -1.642850e+02
   8.156725e+01  -1.476007e+02
   1.154349e+02  -5.423879e+01
   8.137812e+01   2.541127e+01
   2.326658e+01   3.663130e+01
  -4.775388e+00   7.368140e+00
   9.026956e+00   2.016212e+00
   3.254216e+01   4.429907e+01
   2.230417e+01   9.069250e+01
  -2.929443e+01   7.248243e+01
  -8.029521e+01  -1.883914e+01
  -7.437494e+01  -1.092797e+02
   3.220849e-01  -1.119720e+02
   8.631491e+01  -1.984672e+01
   1.023428e+02   8.062526e+01
   2.718980e+01   1.051158e+02
  -6.979238e+01   5.380053e+01
  -9.719451e+01  -1.359252e+01
  -3.789747e+01  -4.963207e+01
   3.182956e+01  -4.969407e+01
   2.861618e+01  -2.748679e+01
  -3.609900e+01  -1.359873e+00
  -6.892468e+01   4.634750e+00
  -1.384716e+01  -2.603304e+01
   7.820831e+01  -6.514379e+01
   1.138679e+02  -5.674730e+01
   6.262266e+01   1.286878e+01
  -1.656823e+01   8.202070e+01
  -5.352855e+01   7.771255e+01
  -3.598813e+01   2.626123e+00
   4.813699e-01  -5.732362e+01
   2.839623e+01  -4.044251e+01
   3.654879e+01   2.211522e+01
   2.364942e+01   5.461947e+01
  -5.235328e+00   3.150325e+01
  -3.289124e+01  -1.036777e+01
  -3.801521e+01  -2.031350e+01
  -2.009350e+01   1.161729e-01
  -1.252532e+00   1.367059e+01
   5.598002e+00  -4.562705e+00
   8.793079e+00  -3.823391e+01
   2.077420e+01  -4.428068e+01
   3.495947e+01  -4.909500e+00
   2.815509e+01   4.811419e+01
  -6.495136e+00   6.261859e+01
  -4.684573e+01   1.897643e+01
  -5.514701e+01  -4.308752e+01
  -1.210719e+01  -6.552805e+01
   5.552116e+01  -3.411401e+01
   8.814374e+01   1.729254e+01
   4.865818e+01   4.496115e+01
  -2.860014e+01   3.969435e+01
  -6.426326e+01   1.858048e+01
  -2.217730e+01   3.471291e+00
   3.951736e+01   3.772156e+00
   3.795266e+01   1.959746e+01
  -3.256847e+01   3.517178e+01
  -9.383067e+01   2.058091e+01
