
 $NMID
 id='ANONYMOUS ', fmtdat='(2E16.6)'
 volume=1.0
 tramp=1.0
 $END
   4.781990e+03  -7.709097e+01
   2.650224e+03   2.760239e+03
  -8.644874e+02   2.907280e+03
  -2.322153e+03   9.040133e+02
  -1.012046e+03  -8.291186e+02
   7.651372e+02  -7.221725e+02
   1.060619e+03   4.476114e+02
   3.971622e+01   1.208042e+03
  -9.173130e+02   9.054165e+02
  -1.049429e+03  -1.014853e+02
  -4.974026e+02  -9.628170e+02
   2.974400e+02  -9.714240e+02
   7.331733e+02  -1.346991e+02
   4.487004e+02   7.859753e+02
  -2.895742e+02   8.294852e+02
  -6.739795e+02   3.965393e+00
  -3.010274e+02  -7.417619e+02
   3.678311e+02  -6.787944e+02
   6.449081e+02  -7.443214e+01
   4.033302e+02   3.979762e+02
   6.569900e-01   4.741787e+02
  -2.748499e+02   2.779005e+02
  -2.504653e+02   7.066143e+00
   8.922350e+01  -1.269207e+02
   4.326678e+02   6.775388e+01
   2.570296e+02   4.393809e+02
  -4.374539e+02   4.856573e+02
  -8.980517e+02  -1.938763e+01
  -4.899844e+02  -5.682546e+02
   3.783161e+02  -5.630597e+02
   7.899015e+02  -1.358418e+01
   3.931750e+02   5.037989e+02
  -2.771203e+02   5.674313e+02
  -5.910922e+02   2.319992e+02
  -4.440200e+02  -2.458518e+02
  -7.638730e+01  -5.094857e+02
   2.192274e+02  -3.148271e+02
   2.285734e+02   2.348178e+02
  -1.413001e+02   5.049622e+02
  -4.961768e+02   3.049984e+01
  -3.202326e+02  -6.981934e+02
   3.034207e+02  -7.681452e+02
   6.710704e+02  -2.682442e+01
   3.154022e+02   6.119732e+02
  -3.110218e+02   3.848939e+02
  -4.466945e+02  -3.161413e+02
   3.571116e+01  -5.877999e+02
   5.814912e+02  -1.763036e+02
   6.384007e+02   4.018688e+02
   1.900029e+02   6.225477e+02
  -3.943452e+02   3.892907e+02
  -6.741336e+02  -6.005210e+01
  -4.072788e+02  -4.216019e+02
   1.618240e+02  -4.152048e+02
   4.893609e+02  -7.536398e+01
   2.717067e+02   2.304603e+02
  -1.418153e+02   1.395842e+02
  -1.848135e+02  -1.617213e+02
   1.662956e+02  -2.229051e+02
   3.870141e+02   5.937112e+01
   1.665351e+02   3.231895e+02
  -2.105359e+02   2.781166e+02
  -3.428514e+02   6.878378e+01
  -1.945239e+02  -9.075670e+01
   2.192763e+01  -2.159296e+02
   2.053340e+02  -3.225211e+02
   3.325513e+02  -2.316642e+02
   3.162360e+02   1.296939e+02
   1.022512e+02   4.556739e+02
  -1.237311e+02   4.113825e+02
  -1.524216e+02   1.126175e+02
  -3.431174e+01  -3.414341e+01
  -2.394625e+01   7.690422e+01
  -1.801576e+02   1.477412e+02
  -2.938856e+02  -3.019479e+01
  -1.871426e+02  -2.701212e+02
   5.862583e+01  -2.785458e+02
   2.360297e+02  -3.320539e+01
   2.244734e+02   2.340082e+02
   1.129004e+01   3.085973e+02
  -2.701386e+02   1.438582e+02
  -3.901241e+02  -1.520041e+02
  -2.108154e+02  -3.636829e+02
   1.043899e+02  -3.271106e+02
   2.482015e+02  -1.229800e+02
   1.572471e+02   1.227942e+01
   8.117827e+01  -2.599141e+01
   2.156680e+02  -7.997049e+01
   4.089345e+02   3.632166e+01
   3.527428e+02   2.750684e+02
   2.005856e+01   4.445086e+02
  -3.481830e+02   4.301796e+02
  -4.887156e+02   2.173616e+02
  -3.557303e+02  -8.051272e+01
  -7.515509e+01  -3.063015e+02
   1.267356e+02  -2.799614e+02
   9.997085e+01  -3.459558e+01
  -1.017818e+02   1.313878e+02
  -2.137301e+02   1.373077e+01
  -7.214964e+01  -2.067218e+02
   1.636193e+02  -1.937871e+02
   2.004345e+02   5.756204e+01
  -9.830588e+00   2.128292e+02
  -2.096686e+02   4.956612e+01
  -1.824453e+02  -2.538383e+02
   2.536113e+01  -3.602269e+02
   2.318298e+02  -1.991702e+02
   3.276220e+02   5.793406e+01
   2.792413e+02   2.301336e+02
   1.031887e+02   2.618443e+02
  -1.083751e+02   1.698726e+02
  -1.858424e+02   3.157303e+01
  -6.765804e+01  -3.371131e+01
   7.291726e+01   3.226120e+01
   3.945218e+01   1.286927e+02
  -1.244255e+02   1.136656e+02
  -1.896856e+02  -2.476315e+00
  -6.859003e+01  -7.643300e+01
   7.953882e+01  -2.731333e+01
   6.155373e+01   6.640373e+01
  -1.179769e+02   8.930641e+01
  -2.797722e+02   1.370294e+01
  -2.667242e+02  -1.243970e+02
  -7.277348e+01  -2.532708e+02
   1.749657e+02  -2.761249e+02
   2.897655e+02  -1.461688e+02
   1.827028e+02   4.998155e+01
  -1.991170e+01   1.224446e+02
  -9.886872e+01   1.508056e+01
   2.189778e+01  -1.111433e+02
   1.983336e+02  -7.384407e+01
   2.281505e+02   9.698439e+01
   8.040822e+01   2.122785e+02
  -8.956552e+01   1.675130e+02
  -1.453299e+02   3.632295e+01
  -7.702968e+01  -3.925762e+01
   2.143609e+01  -7.487249e+00
   3.932101e+01   7.747596e+01
  -6.185097e+01   1.146908e+02
  -1.909015e+02   4.015047e+01
  -1.976564e+02  -1.142288e+02
  -3.353134e+01  -2.224110e+02
   1.609869e+02  -1.747590e+02
   2.011259e+02  -1.072497e+01
   7.339618e+01   1.202508e+02
  -6.500424e+01   1.190183e+02
  -8.652117e+01   3.346726e+01
  -2.292754e+01  -2.484799e+01
   1.745766e+01  -2.020562e+01
  -1.069495e+01   3.377237e+00
  -6.815833e+01  -1.288844e+01
  -8.467851e+01  -7.802514e+01
  -1.691864e+01  -1.507542e+02
   1.187573e+02  -1.502714e+02
   2.287680e+02  -3.198003e+01
   2.028842e+02   1.407097e+02
   4.732118e+01   2.370522e+02
  -1.082885e+02   1.730068e+02
  -1.361317e+02   2.825670e+01
  -7.138526e+01  -5.784117e+01
  -2.832589e+01  -3.648605e+01
  -5.348234e+01   1.260941e+01
  -7.852638e+01   7.045756e+00
  -3.854575e+01  -4.815673e+01
   4.269463e+01  -8.452595e+01
   9.632582e+01  -5.305333e+01
   8.027056e+01   3.257814e+01
  -1.019615e+01   1.055825e+02
  -1.336002e+02   8.775234e+01
  -1.962970e+02  -4.250184e+01
  -1.083913e+02  -1.976424e+02
   9.628603e+01  -2.361997e+02
   2.658648e+02  -1.075713e+02
   2.654406e+02   7.821405e+01
   1.183971e+02   1.791448e+02
  -3.545003e+01   1.527151e+02
  -9.227219e+01   8.592425e+01
  -7.690131e+01   6.890656e+01
  -6.731566e+01   9.237488e+01
  -9.370282e+01   7.553304e+01
  -1.302873e+02  -1.979702e+01
  -1.213371e+02  -1.522889e+02
  -3.537368e+01  -2.266253e+02
   9.506342e+01  -1.791566e+02
   1.783566e+02  -2.922131e+01
   1.437656e+02   1.175389e+02
   2.617072e+01   1.627109e+02
  -6.421265e+01   9.668248e+01
  -6.020848e+01   4.840844e+00
  -5.935431e+00  -4.021258e+01
   7.291548e+00  -3.393119e+01
  -3.951957e+01  -1.974983e+01
  -7.788834e+01  -2.249377e+01
  -4.153879e+01  -3.903647e+01
   6.135007e+01  -3.820486e+01
   1.546244e+02  -5.752468e+00
   1.448202e+02   4.870116e+01
   2.208682e+01   8.853934e+01
  -1.153159e+02   7.833654e+01
  -1.438613e+02   2.011899e+01
  -5.165157e+01  -3.642782e+01
   5.803164e+01  -3.741698e+01
   7.457220e+01   1.902367e+01
   4.655320e+00   6.862729e+01
  -5.869876e+01   5.706591e+01
  -6.242800e+01  -3.776983e+00
  -4.131375e+01  -5.000633e+01
  -4.426482e+01  -3.844712e+01
  -6.583165e+01  -3.128668e-01
  -6.863649e+01  -8.120415e-01
  -3.412952e+01  -7.043640e+01
   3.369357e+01  -1.468493e+02
   1.116544e+02  -1.384268e+02
   1.576654e+02  -3.265394e+01
   1.213169e+02   8.688648e+01
   9.986777e+00   1.215173e+02
  -8.194537e+01   5.915834e+01
  -5.763867e+01  -1.666989e+01
   6.101465e+01  -2.156046e+01
   1.411449e+02   4.313086e+01
   7.976881e+01   1.079273e+02
  -7.947887e+01   1.145600e+02
  -1.895788e+02   5.450092e+01
  -1.631212e+02  -3.186442e+01
  -4.048056e+01  -8.680588e+01
   5.850248e+01  -7.210183e+01
   4.887517e+01  -1.003730e+01
  -3.784874e+01   2.586596e+01
  -9.008606e+01  -2.190375e+01
  -3.357514e+01  -1.175853e+02
   9.047068e+01  -1.529029e+02
   1.656791e+02  -6.111439e+01
   1.275060e+02   1.003454e+02
   1.189211e+01   1.973174e+02
  -8.483495e+01   1.493011e+02
  -1.064278e+02  -4.368122e+00
  -6.615275e+01  -1.171853e+02
  -4.898365e+00  -1.087263e+02
   4.428237e+01  -2.331884e+01
   5.475840e+01   2.851242e+01
   2.762668e+01   7.238018e+00
   3.110117e+00  -2.262225e+01
   2.049950e+01   1.071452e+01
   6.084287e+01   8.580173e+01
   4.864745e+01   1.100035e+02
  -4.619390e+01   5.288180e+01
  -1.431748e+02  -3.149183e+01
  -1.355486e+02  -7.064067e+01
  -1.704489e+01  -5.421392e+01
   9.132881e+01  -2.522408e+01
   8.821896e+01  -6.358912e+00
   9.483630e+00   9.736495e+00
  -3.991050e+01   2.298880e+01
  -1.230832e+01   1.762655e+01
   2.290523e+01  -1.523394e+00
  -6.256360e+00  -8.375632e+00
  -7.728963e+01  -1.853900e+00
  -9.275584e+01  -2.335556e+01
  -8.464944e+00  -8.206811e+01
   1.194191e+02  -1.175757e+02
   1.851861e+02  -5.898786e+01
   1.427420e+02   7.077978e+01
   2.659564e+01   1.662349e+02
  -7.885179e+01   1.511862e+02
  -1.129443e+02   5.559862e+01
  -7.998587e+01  -2.494123e+01
  -2.381718e+01  -3.538048e+01
   4.344338e+00  -5.872806e+00
  -8.616293e+00  -6.118402e-01
  -3.338928e+01  -4.348097e+01
  -2.536485e+01  -9.051187e+01
   2.758652e+01  -7.255157e+01
   8.288988e+01   1.728443e+01
   7.848683e+01   1.082697e+02
   2.910976e+00   1.122545e+02
  -8.598553e+01   2.196688e+01
  -1.051656e+02  -7.811466e+01
  -2.950303e+01  -1.040755e+02
   6.924072e+01  -5.604898e+01
   9.854714e+01   1.105101e+01
   3.865125e+01   4.875377e+01
  -3.092614e+01   5.004964e+01
  -2.720227e+01   2.865255e+01
   3.620547e+01   3.181037e-01
   6.845536e+01  -6.296746e+00
   1.382490e+01   2.618189e+01
  -7.663267e+01   6.693440e+01
  -1.110934e+02   5.824254e+01
  -6.208009e+01  -1.242587e+01
   1.545921e+01  -8.271952e+01
   5.158219e+01  -7.789267e+01
   3.479237e+01  -3.448078e+00
  -3.049417e-01   5.726788e+01
  -2.774613e+01   4.040737e+01
  -3.665690e+01  -2.138006e+01
  -2.487182e+01  -5.431879e+01
   4.437996e+00  -3.159226e+01
   3.311931e+01   9.183725e+00
   3.852072e+01   1.862531e+01
   2.063293e+01  -1.115256e+00
   7.291108e-01  -1.334204e+01
  -6.145531e+00   5.616337e+00
  -9.062437e+00   3.899967e+01
  -2.085779e+01   4.413939e+01
  -3.504717e+01   4.079900e+00
  -2.965889e+01  -4.955796e+01
   5.309544e+00  -6.421540e+01
   4.648160e+01  -2.060391e+01
   5.628450e+01   4.042833e+01
   1.454661e+01   6.418482e+01
  -5.366187e+01   3.545834e+01
  -8.731503e+01  -1.368005e+01
  -4.943870e+01  -4.290137e+01
   2.742760e+01  -3.937796e+01
   6.285600e+01  -2.102097e+01
   2.181594e+01  -4.656066e+00
  -4.083321e+01  -2.680213e+00
  -3.939774e+01  -1.853116e+01
   3.199330e+01  -3.541991e+01
   9.512414e+01  -2.260127e+01
