
 $NMID
 id='ANONYMOUS ', fmtdat='(2E16.6)'
 volume=1.0
 tramp=1.0
 $END
  -4.759320e+03   1.543974e+02
  -2.660369e+03  -2.700134e+03
   8.282510e+02  -2.932522e+03
   2.306505e+03  -9.657182e+02
   1.012662e+03   7.675519e+02
  -7.349125e+02   7.004918e+02
  -9.776059e+02  -4.495232e+02
  -2.613699e-01  -1.158815e+03
   9.166983e+02  -8.599886e+02
   1.039510e+03   1.214270e+02
   4.884280e+02   9.628880e+02
  -2.836457e+02   1.004712e+03
  -7.309594e+02   1.354393e+02
  -4.507066e+02  -7.741308e+02
   2.847090e+02  -8.016208e+02
   6.586632e+02   8.514217e+00
   2.906503e+02   7.337865e+02
  -3.625490e+02   6.672337e+02
  -6.374159e+02   5.432032e+01
  -4.057184e+02  -4.009343e+02
  -1.599959e-01  -4.681201e+02
   2.801249e+02  -2.766841e+02
   2.485599e+02   2.493791e+00
  -1.095464e+02   1.257049e+02
  -4.407857e+02  -7.913195e+01
  -2.507643e+02  -4.475425e+02
   4.587603e+02  -4.671712e+02
   8.954948e+02   3.774817e+01
   4.765726e+02   5.804261e+02
  -3.984677e+02   5.522869e+02
  -7.923136e+02  -3.021452e+00
  -3.800102e+02  -5.069671e+02
   2.849396e+02  -5.675078e+02
   5.907628e+02  -2.278179e+02
   4.451535e+02   2.429572e+02
   7.370315e+01   5.129110e+02
  -2.238411e+02   2.999622e+02
  -2.116734e+02  -2.430464e+02
   1.524918e+02  -4.844284e+02
   4.920322e+02  -2.111282e+00
   2.961544e+02   7.176108e+02
  -3.298049e+02   7.571748e+02
  -6.717745e+02   1.589695e+01
  -3.077217e+02  -6.111501e+02
   3.160599e+02  -3.704199e+02
   4.474903e+02   3.235612e+02
  -4.025544e+01   5.922529e+02
  -5.845198e+02   1.704354e+02
  -6.256750e+02  -4.107672e+02
  -1.768858e+02  -6.201483e+02
   4.055049e+02  -3.809782e+02
   6.704862e+02   6.615695e+01
   4.004553e+02   4.151701e+02
  -1.657069e+02   4.089461e+02
  -4.787110e+02   6.801121e+01
  -2.591299e+02  -2.243038e+02
   1.428627e+02  -1.287001e+02
   1.746259e+02   1.715264e+02
  -1.692458e+02   2.233987e+02
  -3.737577e+02  -7.320107e+01
  -1.581426e+02  -3.271107e+02
   2.136159e+02  -2.742984e+02
   3.427375e+02  -6.211041e+01
   1.939115e+02   9.063704e+01
  -2.592525e+01   2.171157e+02
  -2.070547e+02   3.270988e+02
  -3.294459e+02   2.361616e+02
  -3.118065e+02  -1.337186e+02
  -9.858986e+01  -4.523811e+02
   1.154369e+02  -4.033646e+02
   1.373717e+02  -1.024140e+02
   2.411251e+01   3.757103e+01
   2.146412e+01  -8.230352e+01
   1.802965e+02  -1.512370e+02
   2.924599e+02   3.445749e+01
   1.827625e+02   2.733491e+02
  -6.418080e+01   2.740354e+02
  -2.400564e+02   2.660244e+01
  -2.157453e+02  -2.413380e+02
   1.721559e+00  -3.089916e+02
   2.778056e+02  -1.361364e+02
   3.826820e+02   1.621847e+02
   2.018838e+02   3.629949e+02
  -1.061047e+02   3.247647e+02
  -2.407558e+02   1.200303e+02
  -1.562521e+02  -2.550262e+00
  -9.334247e+01   4.204861e+01
  -2.314781e+02   8.665516e+01
  -4.131826e+02  -4.046891e+01
  -3.454792e+02  -2.857023e+02
  -9.150210e+00  -4.587627e+02
   3.488464e+02  -4.193494e+02
   4.927160e+02  -2.030569e+02
   3.553920e+02   9.545398e+01
   6.708389e+01   3.089512e+02
  -1.332222e+02   2.723083e+02
  -1.010126e+02   3.143802e+01
   1.005408e+02  -1.273322e+02
   2.096221e+02  -1.009451e+01
   6.812301e+01   2.080501e+02
  -1.644363e+02   1.982231e+02
  -1.991929e+02  -5.394271e+01
   7.673406e+00  -2.079905e+02
   2.051120e+02  -4.779973e+01
   1.768005e+02   2.474950e+02
  -2.905108e+01   3.521907e+02
  -2.310531e+02   1.934380e+02
  -3.235224e+02  -5.924371e+01
  -2.772053e+02  -2.280206e+02
  -1.012851e+02  -2.591549e+02
   1.103583e+02  -1.663716e+02
   1.839887e+02  -2.655271e+01
   6.047119e+01   3.806150e+01
  -7.954337e+01  -3.110967e+01
  -3.974325e+01  -1.285600e+02
   1.227421e+02  -1.147571e+02
   1.869621e+02   1.991434e+00
   6.583284e+01   7.415767e+01
  -7.846080e+01   2.209396e+01
  -5.500868e+01  -7.058917e+01
   1.238517e+02  -8.985650e+01
   2.808015e+02  -8.055754e+00
   2.675292e+02   1.331036e+02
   7.022967e+01   2.580224e+02
  -1.771940e+02   2.782214e+02
  -2.913556e+02   1.426518e+02
  -1.833037e+02  -5.488728e+01
   1.803496e+01  -1.257319e+02
   9.793568e+01  -1.620713e+01
  -2.490783e+01   1.091376e+02
  -1.976779e+02   7.506153e+01
  -2.264622e+02  -9.845679e+01
  -7.828176e+01  -2.148403e+02
   9.396264e+01  -1.679032e+02
   1.496730e+02  -3.618786e+01
   7.817009e+01   4.348838e+01
  -2.257505e+01   1.086428e+01
  -4.050355e+01  -7.509175e+01
   6.135201e+01  -1.121313e+02
   1.925079e+02  -3.747218e+01
   1.958424e+02   1.161930e+02
   2.917019e+01   2.212117e+02
  -1.635748e+02   1.734183e+02
  -2.024845e+02   7.249937e+00
  -7.379400e+01  -1.228480e+02
   6.645619e+01  -1.206095e+02
   9.053888e+01  -3.440756e+01
   2.646071e+01   2.564237e+01
  -1.499088e+01   2.175328e+01
   1.139018e+01  -3.344595e+00
   6.766899e+01   1.151481e+01
   8.541631e+01   7.899579e+01
   1.715865e+01   1.557523e+02
  -1.218422e+02   1.559187e+02
  -2.337392e+02   3.355505e+01
  -2.086978e+02  -1.489597e+02
  -4.715616e+01  -2.414959e+02
   1.099997e+02  -1.769997e+02
   1.420615e+02  -2.882904e+01
   7.490632e+01   5.910351e+01
   2.843452e+01   3.868033e+01
   5.041576e+01  -1.239041e+01
   7.673082e+01  -7.378766e+00
   3.887004e+01   4.822714e+01
  -4.135791e+01   8.510686e+01
  -9.637112e+01   5.271722e+01
  -8.164926e+01  -3.319686e+01
   9.161753e+00  -1.057361e+02
   1.324496e+02  -8.810452e+01
   1.941036e+02   3.990707e+01
   1.083361e+02   1.933790e+02
  -9.373684e+01   2.337584e+02
  -2.640221e+02   1.092033e+02
  -2.648412e+02  -7.806098e+01
  -1.169898e+02  -1.791278e+02
   3.405208e+01  -1.553130e+02
   9.295461e+01  -9.083693e+01
   7.867608e+01  -6.873094e+01
   6.693094e+01  -8.961432e+01
   9.231249e+01  -7.423668e+01
   1.300076e+02   2.050391e+01
   1.227312e+02   1.533406e+02
   3.221656e+01   2.250380e+02
  -9.768566e+01   1.750477e+02
  -1.786839e+02   2.639533e+01
  -1.419946e+02  -1.177587e+02
  -2.636104e+01  -1.605888e+02
   6.397579e+01  -9.669353e+01
   6.165327e+01  -5.411656e+00
   1.099229e+01   3.911779e+01
  -4.052011e+00   3.373997e+01
   3.647325e+01   1.973828e+01
   7.467993e+01   2.306398e+01
   4.295555e+01   3.843424e+01
  -5.968162e+01   4.038754e+01
  -1.530849e+02   9.069169e+00
  -1.439389e+02  -4.590585e+01
  -2.179065e+01  -8.802365e+01
   1.142493e+02  -7.848634e+01
   1.407673e+02  -2.056745e+01
   4.761431e+01   3.746963e+01
  -6.005102e+01   3.814999e+01
  -7.427739e+01  -1.835969e+01
  -4.645789e+00  -6.920668e+01
   5.798523e+01  -5.921746e+01
   6.323628e+01   1.569906e+00
   4.213309e+01   4.975767e+01
   4.190263e+01   4.003271e+01
   6.030385e+01   1.745797e-01
   6.445137e+01  -3.783997e+00
   3.598426e+01   6.337397e+01
  -2.712029e+01   1.439356e+02
  -1.046333e+02   1.426307e+02
  -1.559748e+02   3.674859e+01
  -1.222449e+02  -8.730360e+01
  -1.145954e+01  -1.236102e+02
   8.116180e+01  -5.907840e+01
   5.838298e+01   1.788602e+01
  -5.792688e+01   2.308802e+01
  -1.385804e+02  -4.032277e+01
  -7.935296e+01  -1.057319e+02
   7.416442e+01  -1.156821e+02
   1.838552e+02  -5.904100e+01
   1.611945e+02   2.831244e+01
   4.223126e+01   8.626666e+01
  -5.568599e+01   7.269120e+01
  -4.748225e+01   9.543269e+00
   3.804773e+01  -2.615715e+01
   8.913106e+01   2.098826e+01
   3.351412e+01   1.175408e+02
  -8.786107e+01   1.543434e+02
  -1.641685e+02   6.497226e+01
  -1.281160e+02  -9.686760e+01
  -1.674387e+01  -1.961327e+02
   7.978980e+01  -1.470857e+02
   1.052750e+02   2.892718e+00
   6.614860e+01   1.161310e+02
   2.624219e+00   1.065678e+02
  -4.636082e+01   2.166409e+01
  -5.449234e+01  -3.031162e+01
  -2.698057e+01  -8.324311e+00
  -2.787271e+00   2.132201e+01
  -2.012143e+01  -1.173332e+01
  -5.949521e+01  -8.474438e+01
  -4.601654e+01  -1.098337e+02
   4.775909e+01  -4.998771e+01
   1.422449e+02   3.349465e+01
   1.327359e+02   6.851033e+01
   1.489880e+01   5.268897e+01
  -9.050120e+01   2.435886e+01
  -8.758307e+01   6.338581e+00
  -7.997939e+00  -9.508297e+00
   3.964796e+01  -2.293943e+01
   1.244312e+01  -1.731557e+01
  -2.215998e+01   2.249886e+00
   6.597572e+00   9.140224e+00
   7.574600e+01   3.916723e+00
   8.903261e+01   2.402491e+01
   5.051385e+00   8.287783e+01
  -1.182469e+02   1.157495e+02
  -1.816072e+02   5.725282e+01
  -1.397827e+02  -6.957913e+01
  -2.791294e+01  -1.642328e+02
   7.613961e+01  -1.502323e+02
   1.138615e+02  -5.881684e+01
   8.226999e+01   2.171687e+01
   2.546484e+01   3.626407e+01
  -4.471870e+00   8.366736e+00
   9.389175e+00   2.502063e+00
   3.468074e+01   4.350453e+01
   2.483525e+01   8.976305e+01
  -3.013325e+01   7.298021e+01
  -8.292545e+01  -1.782886e+01
  -7.827495e+01  -1.073099e+02
  -2.280860e+00  -1.128390e+02
   8.643179e+01  -2.489872e+01
   1.056164e+02   7.553477e+01
   3.164538e+01   1.037873e+02
  -6.760032e+01   5.525552e+01
  -9.708232e+01  -1.128822e+01
  -3.797170e+01  -4.824777e+01
   3.161243e+01  -4.912460e+01
   2.778231e+01  -2.721595e+01
  -3.502819e+01   3.395397e-01
  -6.706207e+01   5.387459e+00
  -1.425558e+01  -2.517118e+01
   7.336434e+01  -6.574464e+01
   1.060944e+02  -5.921629e+01
   5.915721e+01   9.599407e+00
  -1.399283e+01   8.007988e+01
  -4.814564e+01   7.565821e+01
  -3.502491e+01   2.544146e+00
  -8.908987e-01  -5.674914e+01
   2.755492e+01  -4.122140e+01
   3.761634e+01   2.016284e+01
   2.633358e+01   5.365746e+01
  -4.564724e+00   3.275929e+01
  -3.359531e+01  -7.965390e+00
  -3.846799e+01  -1.997593e+01
  -1.976393e+01   2.879342e-03
  -1.310483e+00   1.296353e+01
   4.199175e+00  -5.058240e+00
   6.329006e+00  -3.869160e+01
   1.897022e+01  -4.488667e+01
   3.361369e+01  -6.157805e+00
   2.947651e+01   4.644528e+01
  -4.053574e+00   6.204479e+01
  -4.509741e+01   2.001568e+01
  -5.553423e+01  -4.120753e+01
  -1.368784e+01  -6.429326e+01
   5.464325e+01  -3.414695e+01
   8.779049e+01   1.647950e+01
   4.826925e+01   4.484381e+01
  -2.955744e+01   4.092130e+01
  -6.393948e+01   2.053262e+01
  -2.291366e+01   3.209685e+00
   3.934643e+01   8.571174e-01
   3.871978e+01   1.722719e+01
  -3.182033e+01   3.371210e+01
  -9.328556e+01   2.144009e+01
