
 $NMID
 id='ANONYMOUS ', fmtdat='(2E16.6)'
 volume=1.0
 tramp=1.0
 $END
  -4.754316e+03   7.268595e+01
  -2.632261e+03  -2.801076e+03
   8.887450e+02  -2.888030e+03
   2.340435e+03  -8.815025e+02
   9.718267e+02   8.290801e+02
  -8.056064e+02   6.809104e+02
  -9.956647e+02  -4.986862e+02
   4.380442e+01  -1.182334e+03
   9.666092e+02  -8.459025e+02
   1.058027e+03   1.629527e+02
   4.659175e+02   1.012032e+03
  -3.122623e+02   1.001063e+03
  -7.544888e+02   1.020592e+02
  -4.283747e+02  -8.115077e+02
   3.240458e+02  -7.976550e+02
   6.722768e+02   4.473813e+01
   2.685873e+02   7.562390e+02
  -3.899168e+02   6.657988e+02
  -6.599785e+02   4.902755e+01
  -3.993764e+02  -4.164940e+02
   1.817229e+01  -4.758630e+02
   2.918558e+02  -2.701957e+02
   2.589393e+02   1.237712e+01
  -1.049675e+02   1.332612e+02
  -4.412057e+02  -8.222358e+01
  -2.502228e+02  -4.572920e+02
   4.718504e+02  -4.705153e+02
   9.042558e+02   6.410311e+01
   4.718168e+02   6.000321e+02
  -4.242863e+02   5.618475e+02
  -8.112440e+02  -2.198823e+01
  -3.825194e+02  -5.313281e+02
   3.030009e+02  -5.709559e+02
   6.055116e+02  -2.127744e+02
   4.419600e+02   2.638093e+02
   5.379939e+01   5.207525e+02
  -2.515719e+02   2.960687e+02
  -2.217116e+02  -2.704977e+02
   1.771315e+02  -5.072513e+02
   5.224955e+02   1.907996e+00
   2.926449e+02   7.471102e+02
  -3.580274e+02   7.749302e+02
  -7.004416e+02  -5.375964e+00
  -2.991021e+02  -6.382684e+02
   3.404574e+02  -3.748064e+02
   4.537915e+02   3.465834e+02
  -5.767967e+01   6.073041e+02
  -6.051267e+02   1.651530e+02
  -6.316843e+02  -4.280771e+02
  -1.663147e+02  -6.352306e+02
   4.253430e+02  -3.797878e+02
   6.814753e+02   8.530452e+01
   3.930356e+02   4.389115e+02
  -1.845601e+02   4.143553e+02
  -4.956150e+02   5.507561e+01
  -2.565449e+02  -2.396278e+02
   1.543238e+02  -1.264418e+02
   1.702147e+02   1.839376e+02
  -1.865337e+02   2.289095e+02
  -3.864897e+02  -8.382497e+01
  -1.517727e+02  -3.347995e+02
   2.172422e+02  -2.715390e+02
   3.388400e+02  -5.847527e+01
   1.899693e+02   9.223683e+01
  -2.114355e+01   2.107926e+02
  -2.078886e+02   3.169184e+02
  -3.371648e+02   2.286572e+02
  -3.090951e+02  -1.404746e+02
  -8.494686e+01  -4.637432e+02
   1.364903e+02  -4.092983e+02
   1.522855e+02  -1.013927e+02
   2.720635e+01   4.498793e+01
   2.193882e+01  -7.353534e+01
   1.790359e+02  -1.430622e+02
   2.905263e+02   3.666836e+01
   1.790512e+02   2.762765e+02
  -6.787894e+01   2.774085e+02
  -2.443323e+02   2.749662e+01
  -2.199051e+02  -2.442487e+02
   9.992432e-01  -3.141733e+02
   2.807990e+02  -1.343869e+02
   3.813082e+02   1.683211e+02
   1.925814e+02   3.697969e+02
  -1.168205e+02   3.228110e+02
  -2.484843e+02   1.113278e+02
  -1.548610e+02  -1.330013e+01
  -8.811204e+01   3.684150e+01
  -2.310583e+02   8.287633e+01
  -4.092438e+02  -4.694107e+01
  -3.376973e+02  -2.894014e+02
  -2.982725e+00  -4.565110e+02
   3.564833e+02  -4.130758e+02
   4.931454e+02  -1.990249e+02
   3.549189e+02   9.971205e+01
   6.404115e+01   3.110155e+02
  -1.405057e+02   2.712689e+02
  -1.050967e+02   2.605135e+01
   1.065553e+02  -1.285857e+02
   2.175212e+02  -3.494662e+00
   6.535718e+01   2.150670e+02
  -1.720454e+02   1.964727e+02
  -2.008769e+02  -6.022894e+01
   1.273188e+01  -2.086288e+02
   2.054607e+02  -4.221448e+01
   1.674708e+02   2.508595e+02
  -3.858796e+01   3.497564e+02
  -2.317576e+02   1.873678e+02
  -3.202654e+02  -6.388651e+01
  -2.736780e+02  -2.309407e+02
  -9.934131e+01  -2.644271e+02
   1.144616e+02  -1.685962e+02
   1.871170e+02  -2.465902e+01
   6.171052e+01   4.211421e+01
  -7.982233e+01  -2.866453e+01
  -3.952790e+01  -1.289741e+02
   1.246609e+02  -1.123580e+02
   1.881971e+02   5.787863e+00
   6.424966e+01   7.748657e+01
  -8.092573e+01   2.362365e+01
  -5.735818e+01  -7.052312e+01
   1.214685e+02  -8.784800e+01
   2.771395e+02  -6.262139e+00
   2.658754e+02   1.317109e+02
   6.807124e+01   2.561042e+02
  -1.801661e+02   2.745992e+02
  -2.941835e+02   1.377303e+02
  -1.843728e+02  -5.935197e+01
   2.260169e+01  -1.252638e+02
   1.007277e+02  -1.311465e+01
  -2.791401e+01   1.112943e+02
  -2.023193e+02   6.854667e+01
  -2.271894e+02  -1.075096e+02
  -7.554216e+01  -2.215237e+02
   9.970840e+01  -1.683866e+02
   1.547916e+02  -3.364216e+01
   8.017607e+01   4.529151e+01
  -2.148532e+01   1.263988e+01
  -4.100706e+01  -7.346339e+01
   6.266602e+01  -1.102408e+02
   1.934902e+02  -3.329543e+01
   1.946254e+02   1.208449e+02
   2.403291e+01   2.231258e+02
  -1.704011e+02   1.690762e+02
  -2.047694e+02   1.571996e+00
  -7.110324e+01  -1.270281e+02
   7.127819e+01  -1.221084e+02
   9.189722e+01  -3.351892e+01
   2.633711e+01   2.609725e+01
  -1.456175e+01   2.188978e+01
   1.233727e+01  -1.371303e+00
   6.844359e+01   1.364235e+01
   8.491189e+01   8.121420e+01
   1.632802e+01   1.568103e+02
  -1.243495e+02   1.559484e+02
  -2.362458e+02   3.154546e+01
  -2.107141e+02  -1.510724e+02
  -4.450224e+01  -2.430618e+02
   1.132955e+02  -1.767872e+02
   1.431467e+02  -2.694804e+01
   7.292390e+01   6.033032e+01
   2.798012e+01   3.823119e+01
   5.166677e+01  -1.240505e+01
   7.825001e+01  -7.459560e+00
   3.805452e+01   4.761330e+01
  -4.192975e+01   8.374603e+01
  -9.581008e+01   5.197054e+01
  -8.065497e+01  -3.300649e+01
   9.943590e+00  -1.044528e+02
   1.317346e+02  -8.579423e+01
   1.925222e+02   4.328728e+01
   1.039727e+02   1.955383e+02
  -9.976575e+01   2.320145e+02
  -2.686235e+02   1.023953e+02
  -2.633772e+02  -8.623090e+01
  -1.104165e+02  -1.830549e+02
   4.086945e+01  -1.541158e+02
   9.673151e+01  -8.693946e+01
   8.123834e+01  -6.558180e+01
   6.954761e+01  -8.689699e+01
   9.354995e+01  -7.087464e+01
   1.288217e+02   2.472191e+01
   1.178732e+02   1.574207e+02
   2.843442e+01   2.262482e+02
  -1.021373e+02   1.736715e+02
  -1.815646e+02   2.284223e+01
  -1.414471e+02  -1.217046e+02
  -2.274578e+01  -1.632661e+02
   6.731443e+01  -9.680600e+01
   6.309313e+01  -4.627324e+00
   9.976287e+00   3.998852e+01
  -5.476994e+00   3.368116e+01
   3.609452e+01   1.947322e+01
   7.391523e+01   2.491241e+01
   4.237567e+01   4.017767e+01
  -5.877598e+01   3.924514e+01
  -1.517950e+02   5.175106e+00
  -1.433714e+02  -4.894884e+01
  -2.052548e+01  -8.825078e+01
   1.154337e+02  -7.633677e+01
   1.429541e+02  -1.633776e+01
   4.858903e+01   3.987198e+01
  -6.045528e+01   3.665708e+01
  -7.332187e+01  -1.949168e+01
  -3.070686e+00  -6.820110e+01
   5.865484e+01  -5.646878e+01
   6.167047e+01   3.449427e+00
   3.977729e+01   4.926080e+01
   4.088206e+01   4.112430e+01
   6.255403e+01   3.120053e+00
   6.527646e+01  -5.098199e-01
   3.235968e+01   6.466898e+01
  -3.307332e+01   1.420417e+02
  -1.083887e+02   1.393125e+02
  -1.546492e+02   3.290699e+01
  -1.187836e+02  -8.952713e+01
  -7.949193e+00  -1.223467e+02
   8.234182e+01  -5.608851e+01
   5.829897e+01   2.015815e+01
  -5.893078e+01   2.312195e+01
  -1.390898e+02  -4.260205e+01
  -7.737173e+01  -1.067972e+02
   7.669814e+01  -1.124240e+02
   1.850108e+02  -5.401094e+01
   1.594931e+02   3.195407e+01
   3.882895e+01   8.716804e+01
  -5.806738e+01   7.213492e+01
  -4.934501e+01   9.199202e+00
   3.755975e+01  -2.468064e+01
   8.777072e+01   2.335007e+01
   2.969235e+01   1.182031e+02
  -9.452913e+01   1.508857e+02
  -1.689583e+02   5.807178e+01
  -1.261502e+02  -1.022591e+02
  -9.987356e+00  -1.966423e+02
   8.611230e+01  -1.457945e+02
   1.056927e+02   4.914271e+00
   6.456739e+01   1.164933e+02
   1.620877e+00   1.063414e+02
  -4.565858e+01   2.151275e+01
  -5.301698e+01  -3.050548e+01
  -2.720022e+01  -8.846143e+00
  -2.540932e+00   2.166737e+01
  -1.770128e+01  -1.126396e+01
  -5.581726e+01  -8.623361e+01
  -4.405291e+01  -1.115341e+02
   4.704608e+01  -4.904168e+01
   1.407405e+02   3.845169e+01
   1.317776e+02   7.372547e+01
   1.334367e+01   5.225957e+01
  -9.163318e+01   2.086739e+01
  -8.650354e+01   3.916108e+00
  -6.774224e+00  -8.129371e+00
   4.018902e+01  -2.124635e+01
   1.153119e+01  -1.719215e+01
  -2.271578e+01   3.858959e-01
   6.753047e+00   8.827494e+00
   7.590146e+01   5.649244e+00
   8.735443e+01   2.560648e+01
   2.967287e+00   7.974057e+01
  -1.177975e+02   1.103435e+02
  -1.782699e+02   5.188571e+01
  -1.342976e+02  -7.159078e+01
  -2.326194e+01  -1.619529e+02
   7.764365e+01  -1.448887e+02
   1.121242e+02  -5.407065e+01
   8.080517e+01   2.412975e+01
   2.406526e+01   3.595185e+01
  -4.778778e+00   7.361591e+00
   9.244374e+00   2.099696e+00
   3.311415e+01   4.355470e+01
   2.263662e+01   8.946283e+01
  -3.071962e+01   7.221381e+01
  -8.164527e+01  -1.908813e+01
  -7.367669e+01  -1.089634e+02
   1.287075e+00  -1.115451e+02
   8.614166e+01  -2.130630e+01
   1.015951e+02   7.851332e+01
   2.741345e+01   1.037572e+02
  -6.855038e+01   5.202430e+01
  -9.532408e+01  -1.423895e+01
  -3.609444e+01  -4.818523e+01
   3.254089e+01  -4.736811e+01
   2.780819e+01  -2.637770e+01
  -3.528166e+01  -1.111591e+00
  -6.752884e+01   3.868430e+00
  -1.421281e+01  -2.523023e+01
   7.557481e+01  -6.411735e+01
   1.086368e+02  -5.718789e+01
   5.952236e+01   1.156087e+01
  -1.629120e+01   8.036758e+01
  -5.058247e+01   7.536629e+01
  -3.483609e+01   1.459893e+00
   7.282318e-01  -5.768167e+01
   2.836486e+01  -4.041584e+01
   3.683029e+01   2.188585e+01
   2.460507e+01   5.450941e+01
  -5.181702e+00   3.133238e+01
  -3.260620e+01  -9.876883e+00
  -3.702722e+01  -2.011360e+01
  -1.937217e+01   2.090799e-01
  -1.379803e+00   1.242855e+01
   5.708672e+00  -5.907837e+00
   9.194318e+00  -3.783895e+01
   2.087388e+01  -4.289672e+01
   3.370646e+01  -4.219104e+00
   2.677687e+01   4.680602e+01
  -6.185870e+00   6.070293e+01
  -4.563073e+01   1.866948e+01
  -5.378823e+01  -4.253103e+01
  -1.136062e+01  -6.503573e+01
   5.545751e+01  -3.326197e+01
   8.779826e+01   1.830859e+01
   4.782056e+01   4.657061e+01
  -2.989686e+01   4.008579e+01
  -6.487271e+01   1.776460e+01
  -2.204170e+01   2.447982e+00
   3.933903e+01   3.865123e+00
   3.743397e+01   1.893137e+01
  -3.341341e+01   3.333416e+01
  -9.485993e+01   1.796849e+01
