
 $NMID
 id='ANONYMOUS ', fmtdat='(2E16.6)'
 volume=1.0
 tramp=1.0
 $END
   4.605185e+03  -1.305944e+00
   2.638864e+03   2.869325e+03
  -8.711906e+02   2.914814e+03
  -2.357765e+03   8.041127e+02
  -9.818537e+02  -8.380531e+02
   8.112397e+02  -6.648351e+02
   1.006859e+03   5.118065e+02
  -2.201770e+01   1.191190e+03
  -9.300175e+02   8.471276e+02
  -1.016475e+03  -1.387866e+02
  -4.674935e+02  -9.501937e+02
   3.031077e+02  -9.678693e+02
   7.231645e+02  -1.065333e+02
   4.364115e+02   7.978885e+02
  -2.978602e+02   8.239016e+02
  -6.762784e+02  -1.509398e+01
  -2.886001e+02  -7.493654e+02
   3.701255e+02  -6.654409e+02
   6.276717e+02  -6.801676e+01
   3.931110e+02   4.043924e+02
  -1.067856e+01   4.695974e+02
  -2.896988e+02   2.761910e+02
  -2.556701e+02  -1.702213e+00
   1.099425e+02  -1.371550e+02
   4.550339e+02   7.758784e+01
   2.525613e+02   4.589179e+02
  -4.720467e+02   4.834756e+02
  -9.308889e+02  -4.232714e+01
  -4.921226e+02  -6.042937e+02
   4.180534e+02  -5.614462e+02
   8.208204e+02   1.625720e+01
   3.878958e+02   5.300430e+02
  -3.058744e+02   5.770004e+02
  -6.207047e+02   2.139904e+02
  -4.549350e+02  -2.690307e+02
  -7.044386e+01  -5.391843e+02
   2.458647e+02  -3.188010e+02
   2.186037e+02   2.495024e+02
  -1.752887e+02   4.979744e+02
  -5.115408e+02  -1.084386e+01
  -2.849182e+02  -7.450451e+02
   3.590566e+02  -7.743028e+02
   6.885797e+02   4.434861e-01
   2.969479e+02   6.157241e+02
  -3.367359e+02   3.657608e+02
  -4.467547e+02  -3.331039e+02
   6.065151e+01  -5.930267e+02
   5.969736e+02  -1.630530e+02
   6.334304e+02   4.203976e+02
   1.748703e+02   6.189553e+02
  -4.123609e+02   3.769889e+02
  -6.721960e+02  -7.233956e+01
  -3.924415e+02  -4.126740e+02
   1.755124e+02  -4.061493e+02
   4.900367e+02  -5.226701e+01
   2.548087e+02   2.321549e+02
  -1.484548e+02   1.322111e+02
  -1.738483e+02  -1.738777e+02
   1.751188e+02  -2.187352e+02
   3.810879e+02   7.260900e+01
   1.575746e+02   3.282644e+02
  -2.179175e+02   2.809951e+02
  -3.457670e+02   6.972475e+01
  -1.984540e+02  -9.426244e+01
   2.216024e+01  -2.255376e+02
   2.066422e+02  -3.302682e+02
   3.350172e+02  -2.303489e+02
   3.106671e+02   1.302571e+02
   8.738393e+01   4.522049e+02
  -1.348994e+02   3.963755e+02
  -1.398203e+02   1.007978e+02
  -2.085856e+01  -2.742630e+01
  -2.112920e+01   9.168015e+01
  -1.871228e+02   1.582207e+02
  -2.961319e+02  -3.319525e+01
  -1.846917e+02  -2.767803e+02
   6.190956e+01  -2.810613e+02
   2.422939e+02  -2.684006e+01
   2.214349e+02   2.420111e+02
  -1.519765e-01   3.122941e+02
  -2.790715e+02   1.322758e+02
  -3.833465e+02  -1.745912e+02
  -1.959949e+02  -3.758651e+02
   1.137054e+02  -3.265595e+02
   2.460554e+02  -1.196911e+02
   1.578938e+02   9.721247e+00
   9.335551e+01  -3.023585e+01
   2.294203e+02  -7.440165e+01
   4.062962e+02   4.733850e+01
   3.468886e+02   2.898518e+02
   5.933264e+00   4.567337e+02
  -3.560236e+02   4.283932e+02
  -5.058614e+02   2.146009e+02
  -3.553897e+02  -9.162717e+01
  -6.875214e+01  -3.093297e+02
   1.386061e+02  -2.754183e+02
   9.995088e+01  -3.215450e+01
  -1.044426e+02   1.286101e+02
  -2.154086e+02   1.123889e+01
  -6.865459e+01  -2.088108e+02
   1.680393e+02  -1.942633e+02
   2.001121e+02   5.734265e+01
  -1.314340e+01   2.131294e+02
  -2.098327e+02   4.680707e+01
  -1.759049e+02  -2.575303e+02
   2.970572e+01  -3.636088e+02
   2.336948e+02  -2.000089e+02
   3.265068e+02   5.928203e+01
   2.847807e+02   2.322082e+02
   1.068998e+02   2.615170e+02
  -1.063513e+02   1.674534e+02
  -1.829981e+02   2.946251e+01
  -6.276869e+01  -3.408779e+01
   7.758320e+01   3.529399e+01
   3.989219e+01   1.326830e+02
  -1.261682e+02   1.160649e+02
  -1.903813e+02  -3.518030e+00
  -6.843769e+01  -7.451024e+01
   7.749764e+01  -2.564131e+01
   5.902573e+01   6.689066e+01
  -1.193758e+02   8.863244e+01
  -2.814639e+02   1.180991e+01
  -2.715869e+02  -1.343222e+02
  -7.588891e+01  -2.587853e+02
   1.753534e+02  -2.786796e+02
   2.937980e+02  -1.405461e+02
   1.849263e+02   5.446291e+01
  -2.001032e+01   1.232954e+02
  -1.001108e+02   1.388624e+01
   2.419721e+01  -1.106106e+02
   2.007808e+02  -7.273055e+01
   2.237441e+02   9.848521e+01
   7.411953e+01   2.158511e+02
  -9.719900e+01   1.696134e+02
  -1.508555e+02   3.217275e+01
  -7.707232e+01  -4.753543e+01
   2.701160e+01  -1.317903e+01
   4.392451e+01   7.629698e+01
  -6.163328e+01   1.181268e+02
  -1.942828e+02   4.210260e+01
  -1.980613e+02  -1.161481e+02
  -2.919376e+01  -2.233166e+02
   1.659682e+02  -1.729124e+02
   2.018882e+02  -7.452583e+00
   7.083976e+01   1.230329e+02
  -6.786478e+01   1.205653e+02
  -9.003980e+01   3.273235e+01
  -2.426956e+01  -2.906418e+01
   1.913444e+01  -2.317853e+01
  -8.444249e+00   3.981795e+00
  -6.547181e+01  -8.877754e+00
  -8.507739e+01  -7.720035e+01
  -1.830623e+01  -1.533308e+02
   1.186172e+02  -1.552069e+02
   2.335962e+02  -3.555466e+01
   2.092947e+02   1.455864e+02
   4.887641e+01   2.423318e+02
  -1.119328e+02   1.776046e+02
  -1.427903e+02   2.633855e+01
  -7.233173e+01  -6.157055e+01
  -2.520797e+01  -3.903166e+01
  -4.948657e+01   1.275816e+01
  -7.623590e+01   7.099871e+00
  -4.061280e+01  -4.772938e+01
   3.895092e+01  -8.517030e+01
   9.752108e+01  -5.464068e+01
   8.365548e+01   3.177434e+01
  -9.527200e+00   1.092367e+02
  -1.363144e+02   9.207153e+01
  -2.002436e+02  -4.249888e+01
  -1.118066e+02  -1.990335e+02
   9.669459e+01  -2.358544e+02
   2.679717e+02  -1.067725e+02
   2.635538e+02   8.009507e+01
   1.156372e+02   1.788905e+02
  -3.563648e+01   1.519477e+02
  -9.464353e+01   8.726577e+01
  -7.722512e+01   7.140119e+01
  -6.509652e+01   9.310217e+01
  -9.333677e+01   7.679929e+01
  -1.310695e+02  -2.065457e+01
  -1.213840e+02  -1.544877e+02
  -3.311387e+01  -2.276201e+02
   9.741857e+01  -1.743848e+02
   1.791242e+02  -2.293920e+01
   1.419172e+02   1.208947e+02
   2.187662e+01   1.607460e+02
  -6.786606e+01   9.580682e+01
  -6.120555e+01   3.555992e+00
  -6.522307e+00  -4.081250e+01
   7.739941e+00  -3.360411e+01
  -3.787943e+01  -1.712958e+01
  -8.129823e+01  -2.281486e+01
  -4.617385e+01  -3.852694e+01
   6.117349e+01  -4.040022e+01
   1.547728e+02  -8.071430e+00
   1.426079e+02   4.663468e+01
   1.945182e+01   8.834087e+01
  -1.175433e+02   7.811936e+01
  -1.442399e+02   1.725385e+01
  -4.831871e+01  -4.013934e+01
   6.037726e+01  -3.898913e+01
   7.610882e+01   1.903135e+01
   6.612814e+00   6.927183e+01
  -5.711664e+01   5.841601e+01
  -6.263803e+01  -2.948636e+00
  -4.123597e+01  -5.012724e+01
  -4.163280e+01  -4.121034e+01
  -6.052654e+01   8.649976e-01
  -6.693360e+01   2.669367e+00
  -3.539561e+01  -6.651082e+01
   2.960357e+01  -1.460560e+02
   1.134317e+02  -1.421744e+02
   1.620848e+02  -3.327061e+01
   1.233990e+02   9.065108e+01
   9.011577e+00   1.257330e+02
  -8.449250e+01   6.040120e+01
  -6.024028e+01  -1.688783e+01
   5.922748e+01  -2.294024e+01
   1.402136e+02   3.964372e+01
   8.079993e+01   1.081824e+02
  -7.611637e+01   1.216943e+02
  -1.910847e+02   6.130279e+01
  -1.656696e+02  -3.155409e+01
  -4.039317e+01  -9.029996e+01
   5.894045e+01  -7.594646e+01
   4.907542e+01  -1.023622e+01
  -3.828823e+01   2.786635e+01
  -9.090021e+01  -2.265309e+01
  -3.209475e+01  -1.218366e+02
   9.411133e+01  -1.570445e+02
   1.718845e+02  -6.305749e+01
   1.294347e+02   1.027481e+02
   1.374746e+01   2.012370e+02
  -8.507483e+01   1.481206e+02
  -1.081426e+02  -3.725233e+00
  -6.772013e+01  -1.175416e+02
  -2.203627e+00  -1.110810e+02
   4.613249e+01  -2.358275e+01
   5.471642e+01   3.051353e+01
   2.741148e+01   8.291554e+00
   3.794071e+00  -2.220041e+01
   2.295982e+01   1.352285e+01
   6.128705e+01   8.999034e+01
   4.539878e+01   1.136492e+02
  -4.901590e+01   4.810840e+01
  -1.422942e+02  -3.643368e+01
  -1.319715e+02  -6.746118e+01
  -1.702381e+01  -4.817118e+01
   8.910881e+01  -2.386227e+01
   8.744928e+01  -1.052095e+01
   7.694266e+00   7.700437e+00
  -4.042109e+01   2.327051e+01
  -1.268982e+01   1.923186e+01
   2.312388e+01  -2.015423e+00
  -5.394466e+00  -8.920955e+00
  -7.625777e+01  -3.019045e+00
  -9.295870e+01  -2.328611e+01
  -8.496734e+00  -8.232167e+01
   1.197907e+02  -1.157155e+02
   1.853680e+02  -5.918950e+01
   1.401686e+02   6.815543e+01
   2.506696e+01   1.645061e+02
  -7.669512e+01   1.519934e+02
  -1.131631e+02   5.792678e+01
  -8.092226e+01  -2.483861e+01
  -2.613918e+01  -3.718792e+01
   3.579553e+00  -8.525040e+00
  -9.452673e+00  -1.654375e+00
  -3.301352e+01  -4.396610e+01
  -2.391957e+01  -9.023058e+01
   3.083875e+01  -7.243934e+01
   8.353935e+01   1.856104e+01
   7.800064e+01   1.108889e+02
   1.409736e+00   1.138096e+02
  -8.580924e+01   2.205578e+01
  -1.046542e+02  -7.703771e+01
  -3.138884e+01  -1.028144e+02
   6.668499e+01  -5.483675e+01
   9.652773e+01   1.109107e+01
   3.808156e+01   4.782741e+01
  -3.076336e+01   4.989707e+01
  -2.799997e+01   2.823374e+01
   3.682205e+01  -3.341701e-01
   6.934153e+01  -6.940186e+00
   1.363093e+01   2.503545e+01
  -8.010118e+01   6.843660e+01
  -1.156049e+02   6.111423e+01
  -6.362369e+01  -1.133796e+01
   1.454557e+01  -8.342952e+01
   4.937248e+01  -8.000060e+01
   3.536014e+01  -4.709415e+00
   8.104733e-01   5.564573e+01
  -2.589776e+01   4.063133e+01
  -3.588554e+01  -2.032124e+01
  -2.627020e+01  -5.410930e+01
   3.329019e+00  -2.994707e+01
   3.351457e+01   9.559635e+00
   3.992780e+01   1.900780e+01
   2.079982e+01  -7.128865e-01
  -9.166563e-02  -1.306101e+01
  -6.563868e+00   6.171279e+00
  -9.170457e+00   3.881092e+01
  -1.988563e+01   4.319867e+01
  -3.385030e+01   4.608548e+00
  -2.862584e+01  -4.711215e+01
   4.887048e+00  -6.128437e+01
   4.654973e+01  -1.949037e+01
   5.627245e+01   4.011631e+01
   1.345838e+01   6.328195e+01
  -5.462702e+01   3.426305e+01
  -8.783798e+01  -1.528310e+01
  -4.817260e+01  -4.340133e+01
   3.008795e+01  -4.049334e+01
   6.514186e+01  -1.961477e+01
   2.292320e+01  -3.274547e+00
  -4.005021e+01  -1.910133e+00
  -3.934462e+01  -1.824299e+01
   3.245646e+01  -3.371154e+01
   9.425056e+01  -1.967094e+01
