
 $NMID
 id='ANONYMOUS ', fmtdat='(2E16.6)'
 volume=1.0
 tramp=1.0
 $END
  -4.082554e+03  -6.472604e+01
  -2.414384e+03  -2.542394e+03
   7.790669e+02  -2.597580e+03
   2.139359e+03  -7.400185e+02
   9.374437e+02   7.258479e+02
  -6.400311e+02   5.993225e+02
  -8.887860e+02  -3.966047e+02
  -1.988583e+01  -1.021055e+03
   8.068190e+02  -7.509963e+02
   9.042201e+02   1.058646e+02
   4.332208e+02   8.407179e+02
  -2.473051e+02   8.467025e+02
  -6.277433e+02   1.067705e+02
  -3.588591e+02  -7.042784e+02
   2.840262e+02  -7.195352e+02
   5.974806e+02   1.845036e+01
   2.489520e+02   6.719568e+02
  -3.328744e+02   6.080405e+02
  -5.604373e+02   7.749566e+01
  -3.589972e+02  -3.569594e+02
  -1.699931e+00  -4.325055e+02
   2.516268e+02  -2.512014e+02
   2.252512e+02  -3.935152e+00
  -8.556760e+01   1.013957e+02
  -3.851317e+02  -8.633178e+01
  -2.023781e+02  -4.023217e+02
   4.142312e+02  -4.020904e+02
   8.083854e+02   7.195661e+01
   4.214560e+02   5.449716e+02
  -3.697965e+02   4.828608e+02
  -7.161655e+02  -3.396830e+01
  -3.347761e+02  -4.662655e+02
   2.701970e+02  -4.917330e+02
   5.446901e+02  -1.808274e+02
   3.931336e+02   2.337961e+02
   4.823854e+01   4.624223e+02
  -2.224199e+02   2.787505e+02
  -1.888100e+02  -2.047871e+02
   1.545556e+02  -4.274236e+02
   4.294471e+02  -2.018187e+00
   2.334212e+02   6.300885e+02
  -3.101461e+02   6.675701e+02
  -5.840865e+02   6.410737e+00
  -2.420112e+02  -5.196421e+02
   2.832548e+02  -3.102296e+02
   3.671972e+02   2.954852e+02
  -6.732915e+01   5.138107e+02
  -5.155497e+02   1.275722e+02
  -5.411973e+02  -3.841200e+02
  -1.422307e+02  -5.521546e+02
   3.589484e+02  -3.304448e+02
   5.893271e+02   7.031979e+01
   3.553775e+02   3.719944e+02
  -1.452065e+02   3.560770e+02
  -4.257035e+02   4.695651e+01
  -2.331140e+02  -2.133582e+02
   1.202669e+02  -1.225033e+02
   1.504827e+02   1.492032e+02
  -1.419778e+02   1.929350e+02
  -3.267758e+02  -6.144240e+01
  -1.313215e+02  -2.842834e+02
   1.930263e+02  -2.367546e+02
   3.024097e+02  -5.352211e+01
   1.699899e+02   8.261147e+01
  -2.811893e+01   1.856642e+02
  -1.963402e+02   2.769207e+02
  -2.989955e+02   1.929892e+02
  -2.642526e+02  -1.243679e+02
  -6.760281e+01  -4.040128e+02
   1.326693e+02  -3.597245e+02
   1.391914e+02  -9.811887e+01
   3.698508e+01   2.503278e+01
   3.127010e+01  -6.301494e+01
   1.667977e+02  -1.127953e+02
   2.519195e+02   5.049358e+01
   1.473428e+02   2.526709e+02
  -6.744971e+01   2.442973e+02
  -2.155565e+02   1.676976e+01
  -1.878173e+02  -2.218321e+02
   6.282008e+00  -2.788751e+02
   2.455720e+02  -1.118224e+02
   3.335663e+02   1.590468e+02
   1.694786e+02   3.361349e+02
  -9.834015e+01   2.874655e+02
  -2.207460e+02   1.100626e+02
  -1.473831e+02   2.992974e+00
  -9.234047e+01   2.763122e+01
  -2.112687e+02   5.328155e+01
  -3.610788e+02  -6.419390e+01
  -2.971666e+02  -2.722186e+02
   5.070580e+00  -4.033683e+02
   3.362622e+02  -3.644680e+02
   4.583190e+02  -1.733952e+02
   3.149244e+02   8.889246e+01
   5.334664e+01   2.720431e+02
  -1.272524e+02   2.383035e+02
  -8.815375e+01   2.962370e+01
   9.847400e+01  -1.007022e+02
   1.903856e+02   2.912276e+00
   5.688027e+01   1.870181e+02
  -1.493685e+02   1.708437e+02
  -1.736162e+02  -4.911410e+01
   1.229526e+01  -1.788666e+02
   1.772959e+02  -3.209478e+01
   1.395952e+02   2.301029e+02
  -4.510183e+01   3.196663e+02
  -2.202752e+02   1.648223e+02
  -2.905226e+02  -7.186592e+01
  -2.422076e+02  -2.252261e+02
  -8.204341e+01  -2.428011e+02
   1.050746e+02  -1.491127e+02
   1.690400e+02  -1.863004e+01
   5.932294e+01   3.501009e+01
  -6.339137e+01  -2.926892e+01
  -2.856587e+01  -1.138953e+02
   1.145073e+02  -9.065966e+01
   1.672601e+02   1.427545e+01
   5.611891e+01   7.008292e+01
  -7.277471e+01   1.890105e+01
  -5.318270e+01  -6.275168e+01
   1.053508e+02  -7.591853e+01
   2.498453e+02   1.647569e+00
   2.364647e+02   1.238596e+02
   5.576313e+01   2.285119e+02
  -1.646958e+02   2.339145e+02
  -2.574019e+02   1.088830e+02
  -1.586677e+02  -5.178454e+01
   2.161511e+01  -1.000891e+02
   8.450133e+01  -4.427844e+00
  -2.848453e+01   9.562973e+01
  -1.801051e+02   5.200492e+01
  -1.974331e+02  -9.728349e+01
  -6.446224e+01  -1.947597e+02
   8.705173e+01  -1.489343e+02
   1.337553e+02  -2.860746e+01
   6.848333e+01   3.858423e+01
  -2.046086e+01   5.208318e+00
  -3.036353e+01  -7.086129e+01
   6.533407e+01  -9.932922e+01
   1.780758e+02  -2.327373e+01
   1.714960e+02   1.169365e+02
   1.582795e+01   2.033656e+02
  -1.554449e+02   1.493881e+02
  -1.829290e+02   1.333203e+00
  -6.319344e+01  -1.088709e+02
   6.019709e+01  -1.048752e+02
   7.739563e+01  -2.776064e+01
   1.967070e+01   2.204026e+01
  -1.652820e+01   1.567418e+01
   1.038648e+01  -5.449369e+00
   6.081094e+01   1.103180e+01
   7.453438e+01   7.341490e+01
   1.163670e+01   1.391127e+02
  -1.110265e+02   1.357549e+02
  -2.079449e+02   2.406498e+01
  -1.830886e+02  -1.322238e+02
  -3.907800e+01  -2.170672e+02
   9.964341e+01  -1.570362e+02
   1.258360e+02  -2.526141e+01
   6.586895e+01   5.398167e+01
   2.561376e+01   3.620843e+01
   4.688327e+01  -7.982589e+00
   7.044187e+01  -3.099329e+00
   3.401954e+01   4.640599e+01
  -4.198111e+01   7.616282e+01
  -9.262554e+01   4.415104e+01
  -7.332216e+01  -3.490247e+01
   1.540757e+01  -9.729437e+01
   1.277082e+02  -7.216475e+01
   1.753900e+02   4.799749e+01
   8.988232e+01   1.820709e+02
  -9.582939e+01   2.082593e+02
  -2.421384e+02   8.828415e+01
  -2.363203e+02  -8.312459e+01
  -9.928866e+01  -1.664056e+02
   3.800994e+01  -1.368032e+02
   8.890887e+01  -7.496301e+01
   7.498980e+01  -6.118646e+01
   6.339303e+01  -8.087911e+01
   8.779171e+01  -6.610236e+01
   1.177672e+02   2.291846e+01
   1.055030e+02   1.433571e+02
   2.383606e+01   2.080287e+02
  -9.388211e+01   1.568505e+02
  -1.625962e+02   1.728790e+01
  -1.246230e+02  -1.124455e+02
  -1.514245e+01  -1.462458e+02
   6.355404e+01  -8.403930e+01
   5.558834e+01  -4.565717e-01
   4.861621e+00   3.743558e+01
  -8.810475e+00   2.938628e+01
   3.244584e+01   1.611926e+01
   6.980818e+01   2.443250e+01
   3.844590e+01   3.778663e+01
  -5.599204e+01   3.112977e+01
  -1.372234e+02  -2.340155e+00
  -1.233946e+02  -4.973502e+01
  -1.220108e+01  -8.093052e+01
   1.094052e+02  -6.505326e+01
   1.339152e+02  -7.503833e+00
   4.605340e+01   3.952997e+01
  -5.435942e+01   3.330751e+01
  -6.923558e+01  -1.889792e+01
  -4.524289e+00  -6.191897e+01
   5.409623e+01  -4.996241e+01
   5.847964e+01   5.629622e+00
   3.577493e+01   4.903001e+01
   3.388489e+01   4.138663e+01
   5.180283e+01   3.689345e+00
   5.746447e+01   7.217613e-01
   2.977594e+01   5.931050e+01
  -3.211139e+01   1.289320e+02
  -1.084558e+02   1.253412e+02
  -1.491206e+02   2.644103e+01
  -1.086646e+02  -8.780177e+01
  -3.633790e+00  -1.160750e+02
   7.853826e+01  -5.404831e+01
   5.612749e+01   1.670786e+01
  -5.110353e+01   1.783116e+01
  -1.230574e+02  -4.367762e+01
  -6.769011e+01  -1.019016e+02
   7.358388e+01  -1.016028e+02
   1.730948e+02  -4.240197e+01
   1.479371e+02   3.554596e+01
   3.320433e+01   7.995967e+01
  -5.584766e+01   6.196419e+01
  -4.303860e+01   5.857279e+00
   3.612147e+01  -2.237402e+01
   8.072034e+01   2.443472e+01
   2.410247e+01   1.106176e+02
  -9.076352e+01   1.374301e+02
  -1.553032e+02   5.050265e+01
  -1.102629e+02  -9.755158e+01
   4.136390e-01  -1.815256e+02
   8.441272e+01  -1.288113e+02
   9.517225e+01   9.840597e+00
   5.123712e+01   1.095889e+02
  -6.067908e+00   9.834636e+01
  -4.263569e+01   1.735745e+01
  -4.686756e+01  -3.147558e+01
  -2.349300e+01  -1.136760e+01
  -3.437919e+00   1.781387e+01
  -1.848837e+01  -1.287248e+01
  -4.918421e+01  -8.019596e+01
  -3.539424e+01  -1.024170e+02
   4.374483e+01  -4.209519e+01
   1.257841e+02   4.021454e+01
   1.169271e+02   7.095179e+01
   1.419778e+01   4.771409e+01
  -8.111969e+01   1.679475e+01
  -8.093609e+01   3.149069e+00
  -1.038736e+01  -8.299240e+00
   3.600247e+01  -1.932722e+01
   1.426284e+01  -1.677228e+01
  -1.812942e+01   2.303206e-01
   5.014980e+00   8.655365e+00
   6.717202e+01   7.275687e+00
   8.122543e+01   2.589943e+01
   3.088655e+00   7.312061e+01
  -1.134703e+02   9.879841e+01
  -1.715674e+02   4.621286e+01
  -1.260472e+02  -6.639135e+01
  -1.754747e+01  -1.488029e+02
   7.579351e+01  -1.335006e+02
   1.048758e+02  -4.872644e+01
   7.243768e+01   2.347100e+01
   2.096355e+01   3.370623e+01
  -4.996096e+00   7.575704e+00
   7.372278e+00   1.581171e+00
   2.947526e+01   3.948226e+01
   1.952568e+01   8.155237e+01
  -2.779331e+01   6.453203e+01
  -7.285399e+01  -1.834072e+01
  -6.529454e+01  -1.017499e+02
   2.331176e+00  -1.028172e+02
   7.797405e+01  -1.801047e+01
   9.159126e+01   7.459779e+01
   2.402289e+01   9.741279e+01
  -6.377530e+01   4.794897e+01
  -8.792795e+01  -1.544182e+01
  -3.306914e+01  -4.744531e+01
   3.049955e+01  -4.542843e+01
   2.807052e+01  -2.464970e+01
  -3.175602e+01  -3.544127e-01
  -6.231378e+01   5.191865e+00
  -1.316561e+01  -2.309758e+01
   7.370282e+01  -5.875682e+01
   1.071848e+02  -5.222267e+01
   5.838931e+01   1.192955e+01
  -1.637544e+01   7.538353e+01
  -5.022248e+01   7.132789e+01
  -3.425000e+01   3.389163e+00
   8.242866e-01  -5.120960e+01
   2.594676e+01  -3.719641e+01
   3.232975e+01   1.821667e+01
   2.148826e+01   4.916603e+01
  -4.949601e+00   2.815145e+01
  -3.016907e+01  -9.211911e+00
  -3.434631e+01  -1.947486e+01
  -1.799527e+01  -1.977985e+00
   3.145359e-03   1.163038e+01
   5.447507e+00  -3.708896e+00
   6.702929e+00  -3.425504e+01
   1.774854e+01  -4.014911e+01
   3.085060e+01  -5.012995e+00
   2.582522e+01   4.290300e+01
  -5.500520e+00   5.645137e+01
  -4.256529e+01   1.702270e+01
  -5.059667e+01  -3.821023e+01
  -1.099122e+01  -5.843390e+01
   5.071196e+01  -2.883874e+01
   7.981565e+01   1.772507e+01
   4.357362e+01   4.161280e+01
  -2.567788e+01   3.632311e+01
  -5.881267e+01   1.593377e+01
  -2.255930e+01   2.128003e+00
   3.481435e+01   3.813827e+00
   3.490878e+01   1.705416e+01
  -2.828077e+01   2.898815e+01
  -8.464814e+01   1.457169e+01
