
 $NMID
 id='ANONYMOUS ', fmtdat='(2E16.6)'
 volume=1.0
 tramp=1.0
 $END
  -4.303311e+03  -2.989134e+00
  -2.461059e+03  -2.661139e+03
   8.548041e+02  -2.739291e+03
   2.220636e+03  -8.073308e+02
   9.902261e+02   7.675037e+02
  -7.270003e+02   6.535658e+02
  -9.817409e+02  -4.429681e+02
  -2.676471e+01  -1.102790e+03
   8.547958e+02  -8.149964e+02
   9.735008e+02   9.969642e+01
   4.681657e+02   8.850279e+02
  -2.487041e+02   9.080468e+02
  -6.738462e+02   1.219089e+02
  -4.200685e+02  -7.351972e+02
   2.616091e+02  -7.720654e+02
   6.236610e+02  -3.541170e+00
   2.762418e+02   6.900027e+02
  -3.328108e+02   6.272433e+02
  -5.783973e+02   7.013541e+01
  -3.742824e+02  -3.626059e+02
  -4.855069e+00  -4.437131e+02
   2.574626e+02  -2.646365e+02
   2.317749e+02  -1.952666e+01
  -8.237627e+01   1.122923e+02
  -4.013298e+02  -6.866245e+01
  -2.343591e+02  -4.052717e+02
   4.165168e+02  -4.445077e+02
   8.491955e+02   2.369459e+01
   4.768083e+02   5.282080e+02
  -3.663723e+02   5.187213e+02
  -7.555937e+02   6.347617e+00
  -3.783336e+02  -4.708400e+02
   2.631388e+02  -5.347658e+02
   5.714933e+02  -2.181580e+02
   4.254251e+02   2.214416e+02
   7.777952e+01   4.815076e+02
  -2.172635e+02   3.102209e+02
  -2.093111e+02  -2.073662e+02
   1.403582e+02  -4.567414e+02
   4.622895e+02  -1.633659e+01
   2.944344e+02   6.695662e+02
  -3.002413e+02   7.289610e+02
  -6.324247e+02   2.968270e+01
  -2.972331e+02  -5.537692e+02
   2.859867e+02  -3.488409e+02
   4.072115e+02   2.984558e+02
  -4.898628e+01   5.385280e+02
  -5.524803e+02   1.507101e+02
  -5.933614e+02  -3.986873e+02
  -1.688630e+02  -5.786999e+02
   3.791441e+02  -3.569528e+02
   6.277312e+02   5.655127e+01
   3.779129e+02   3.818384e+02
  -1.462003e+02   3.814536e+02
  -4.476019e+02   6.248735e+01
  -2.493124e+02  -2.098481e+02
   1.262243e+02  -1.284183e+02
   1.674433e+02   1.548430e+02
  -1.546657e+02   2.068229e+02
  -3.625204e+02  -6.351457e+01
  -1.564493e+02  -3.057351e+02
   2.025946e+02  -2.640384e+02
   3.259642e+02  -6.675630e+01
   1.821688e+02   8.627881e+01
  -3.028487e+01   2.074337e+02
  -1.994337e+02   3.014626e+02
  -3.062946e+02   2.158609e+02
  -2.798053e+02  -1.195679e+02
  -8.684685e+01  -4.148013e+02
   1.132958e+02  -3.769889e+02
   1.305234e+02  -1.094757e+02
   3.177433e+01   2.275776e+01
   2.991765e+01  -7.863568e+01
   1.757455e+02  -1.353801e+02
   2.714648e+02   3.371186e+01
   1.705602e+02   2.540230e+02
  -5.264539e+01   2.547635e+02
  -2.175427e+02   2.858158e+01
  -2.032867e+02  -2.172667e+02
  -1.503597e+00  -2.870037e+02
   2.579449e+02  -1.208074e+02
   3.570133e+02   1.607990e+02
   1.846736e+02   3.512489e+02
  -1.060264e+02   3.112786e+02
  -2.291844e+02   1.181072e+02
  -1.501892e+02  -2.764629e+00
  -9.151174e+01   3.013810e+01
  -2.229510e+02   6.610245e+01
  -3.882112e+02  -4.877618e+01
  -3.235623e+02  -2.759005e+02
  -2.046749e+00  -4.363794e+02
   3.390308e+02  -4.025172e+02
   4.709960e+02  -2.017368e+02
   3.372656e+02   8.187946e+01
   7.221213e+01   2.884320e+02
  -1.228212e+02   2.625280e+02
  -9.500618e+01   3.944940e+01
   9.403459e+01  -1.092207e+02
   1.963322e+02  -9.566155e+00
   6.344494e+01   1.913510e+02
  -1.554648e+02   1.783385e+02
  -1.875135e+02  -5.419340e+01
   1.071307e+01  -1.985374e+02
   1.950151e+02  -4.269371e+01
   1.628755e+02   2.396959e+02
  -3.017458e+01   3.384430e+02
  -2.205164e+02   1.814193e+02
  -3.037963e+02  -6.463691e+01
  -2.606203e+02  -2.246509e+02
  -9.689160e+01  -2.465994e+02
   1.026424e+02  -1.542882e+02
   1.740258e+02  -2.682272e+01
   6.294993e+01   3.114787e+01
  -6.986238e+01  -3.046557e+01
  -3.743369e+01  -1.198630e+02
   1.139135e+02  -1.052804e+02
   1.748447e+02   3.956325e+00
   6.206892e+01   6.732763e+01
  -7.283513e+01   1.902283e+01
  -5.045000e+01  -6.581233e+01
   1.170713e+02  -8.223947e+01
   2.653784e+02  -7.108860e+00
   2.506602e+02   1.292836e+02
   6.649504e+01   2.418633e+02
  -1.637755e+02   2.583904e+02
  -2.707193e+02   1.333790e+02
  -1.726423e+02  -4.580676e+01
   1.322050e+01  -1.106415e+02
   8.931890e+01  -1.367604e+01
  -2.454837e+01   9.922942e+01
  -1.856561e+02   6.355848e+01
  -2.073673e+02  -9.326189e+01
  -7.060005e+01  -2.000452e+02
   8.840012e+01  -1.569514e+02
   1.398811e+02  -3.219060e+01
   7.269201e+01   3.869770e+01
  -2.090947e+01   7.666719e+00
  -3.523388e+01  -7.110145e+01
   6.219913e+01  -1.047976e+02
   1.826634e+02  -3.196214e+01
   1.823301e+02   1.120181e+02
   2.289733e+01   2.075892e+02
  -1.568195e+02   1.603086e+02
  -1.892592e+02   6.975474e+00
  -6.650214e+01  -1.127115e+02
   6.262984e+01  -1.123630e+02
   8.219382e+01  -3.246868e+01
   2.231485e+01   2.426678e+01
  -1.663087e+01   2.023615e+01
   9.929612e+00  -3.196353e+00
   6.281031e+01   1.204052e+01
   7.854034e+01   7.633771e+01
   1.430680e+01   1.451381e+02
  -1.144092e+02   1.428303e+02
  -2.181867e+02   3.012771e+01
  -1.954460e+02  -1.394115e+02
  -4.384696e+01  -2.280392e+02
   1.028759e+02  -1.674133e+02
   1.326570e+02  -2.646088e+01
   6.953021e+01   5.572652e+01
   2.839641e+01   3.586009e+01
   4.888858e+01  -1.000268e+01
   7.371465e+01  -4.238659e+00
   3.619491e+01   4.825521e+01
  -4.107002e+01   8.082151e+01
  -9.361744e+01   4.730838e+01
  -7.601788e+01  -3.387065e+01
   1.392498e+01  -1.010338e+02
   1.303132e+02  -8.008103e+01
   1.849810e+02   4.513781e+01
   9.913142e+01   1.865892e+02
  -9.259141e+01   2.172927e+02
  -2.482072e+02   9.728022e+01
  -2.452432e+02  -7.653227e+01
  -1.070252e+02  -1.670038e+02
   3.520649e+01  -1.406724e+02
   9.023877e+01  -7.947109e+01
   7.411128e+01  -6.684740e+01
   6.182726e+01  -8.906449e+01
   8.758884e+01  -7.187609e+01
   1.222920e+02   1.988588e+01
   1.119852e+02   1.450169e+02
   2.960859e+01   2.133337e+02
  -8.994271e+01   1.622400e+02
  -1.645700e+02   2.024221e+01
  -1.309813e+02  -1.120136e+02
  -2.241184e+01  -1.474998e+02
   5.903974e+01  -8.787927e+01
   5.465206e+01  -5.215630e+00
   6.346689e+00   3.599180e+01
  -6.083089e+00   3.087693e+01
   3.600674e+01   1.850891e+01
   7.324193e+01   2.331201e+01
   3.980956e+01   3.559216e+01
  -5.974588e+01   3.406444e+01
  -1.444545e+02   4.225679e+00
  -1.317023e+02  -4.525608e+01
  -1.680709e+01  -8.049493e+01
   1.096113e+02  -6.961076e+01
   1.343721e+02  -1.469124e+01
   4.504236e+01   3.516025e+01
  -5.614262e+01   3.398710e+01
  -7.103609e+01  -1.786429e+01
  -6.345101e+00  -6.375631e+01
   5.410828e+01  -5.364924e+01
   5.908565e+01   3.010045e+00
   3.921847e+01   4.723744e+01
   4.022042e+01   3.876481e+01
   5.995011e+01   1.588375e+00
   6.375436e+01   1.931151e+00
   3.079514e+01   6.528780e+01
  -3.286348e+01   1.358309e+02
  -1.098479e+02   1.299198e+02
  -1.524331e+02   2.941644e+01
  -1.135430e+02  -8.628983e+01
  -6.383668e+00  -1.184965e+02
   8.001391e+01  -5.796709e+01
   5.643327e+01   1.439170e+01
  -5.510083e+01   1.964320e+01
  -1.306681e+02  -3.802340e+01
  -7.388884e+01  -1.004894e+02
   7.479474e+01  -1.097668e+02
   1.807193e+02  -5.499043e+01
   1.542008e+02   2.885699e+01
   3.500333e+01   8.291192e+01
  -5.596017e+01   6.908937e+01
  -4.352569e+01   1.031376e+01
   3.663236e+01  -2.388432e+01
   8.448319e+01   2.172499e+01
   2.874950e+01   1.127654e+02
  -8.818941e+01   1.463815e+02
  -1.610973e+02   5.864873e+01
  -1.205813e+02  -9.569228e+01
  -1.068357e+01  -1.900311e+02
   7.965204e+01  -1.399335e+02
   9.803724e+01   5.395530e+00
   5.969203e+01   1.101685e+02
   2.616867e-01   1.008915e+02
  -4.166668e+01   1.890952e+01
  -4.974391e+01  -3.000016e+01
  -2.625786e+01  -8.389305e+00
  -3.481532e+00   1.989644e+01
  -1.979258e+01  -1.434976e+01
  -5.515807e+01  -8.385493e+01
  -4.283912e+01  -1.046570e+02
   4.440177e+01  -4.383214e+01
   1.341310e+02   3.662467e+01
   1.250723e+02   6.536832e+01
   1.547828e+01   4.504379e+01
  -8.531027e+01   2.135815e+01
  -8.417773e+01   8.143720e+00
  -7.555329e+00  -7.090313e+00
   3.838621e+01  -2.128077e+01
   1.133742e+01  -1.790674e+01
  -2.228518e+01   1.269128e+00
   5.306173e+00   7.458704e+00
   7.303976e+01   3.546420e+00
   8.713147e+01   2.358509e+01
   5.820460e+00   7.649534e+01
  -1.140446e+02   1.059978e+02
  -1.752640e+02   5.398602e+01
  -1.324359e+02  -6.298882e+01
  -2.330000e+01  -1.534610e+02
   7.416935e+01  -1.423803e+02
   1.078782e+02  -5.585630e+01
   7.596273e+01   2.176211e+01
   2.316797e+01   3.453177e+01
  -3.969690e+00   8.451579e+00
   8.590558e+00   2.106952e+00
   3.153737e+01   4.061783e+01
   2.281516e+01   8.374191e+01
  -2.774016e+01   6.923899e+01
  -7.745471e+01  -1.731186e+01
  -7.339463e+01  -1.029653e+02
  -2.169491e+00  -1.073160e+02
   7.923630e+01  -2.123356e+01
   9.719414e+01   7.298932e+01
   2.891224e+01   9.764112e+01
  -6.307890e+01   5.077414e+01
  -9.082921e+01  -1.198152e+01
  -3.474351e+01  -4.659509e+01
   3.073063e+01  -4.787979e+01
   2.728540e+01  -2.623911e+01
  -3.496528e+01   1.169063e+00
  -6.470765e+01   7.455540e+00
  -1.164003e+01  -2.220416e+01
   7.407266e+01  -6.144242e+01
   1.055697e+02  -5.555713e+01
   5.743950e+01   9.744342e+00
  -1.530903e+01   7.720204e+01
  -4.771831e+01   7.425145e+01
  -3.376628e+01   3.356486e+00
   1.322508e-01  -5.337109e+01
   2.540017e+01  -3.884605e+01
   3.453923e+01   1.908375e+01
   2.490613e+01   5.137996e+01
  -3.638086e+00   2.882482e+01
  -3.158565e+01  -8.730108e+00
  -3.704021e+01  -1.795675e+01
  -1.969294e+01   7.126356e-02
  -7.155325e-01   1.260855e+01
   4.034980e+00  -5.584110e+00
   6.761617e+00  -3.720613e+01
   1.864866e+01  -4.328213e+01
   3.328160e+01  -5.841497e+00
   2.871147e+01   4.426909e+01
  -3.891857e+00   5.855389e+01
  -4.333879e+01   1.883423e+01
  -5.259660e+01  -3.790645e+01
  -1.259743e+01  -5.989008e+01
   5.160216e+01  -3.057864e+01
   8.360031e+01   1.657205e+01
   4.564792e+01   4.177374e+01
  -2.849240e+01   3.829328e+01
  -6.280057e+01   1.906418e+01
  -2.288375e+01   2.650045e+00
   3.762682e+01   1.615790e+00
   3.768205e+01   1.657159e+01
  -2.914946e+01   3.189488e+01
  -8.904908e+01   2.000495e+01
