
 $NMID
 id='ANONYMOUS ', fmtdat='(2E16.6)'
 volume=1.0
 tramp=1.0
 $END
  -3.756332e+03  -1.341514e+02
  -2.118759e+03  -2.356427e+03
   7.753539e+02  -2.384125e+03
   2.004361e+03  -7.014606e+02
   8.863525e+02   6.666368e+02
  -5.967037e+02   5.388051e+02
  -8.163375e+02  -3.657299e+02
  -1.416284e+01  -9.134300e+02
   7.202379e+02  -6.705702e+02
   8.116374e+02   9.152333e+01
   3.878849e+02   7.314935e+02
  -2.182451e+02   7.805673e+02
  -5.579691e+02   1.084798e+02
  -3.415861e+02  -6.182820e+02
   2.307405e+02  -6.502334e+02
   5.194125e+02  -7.060484e-01
   2.174506e+02   5.863299e+02
  -2.891761e+02   5.288128e+02
  -5.012444e+02   4.959987e+01
  -3.156025e+02  -3.141571e+02
  -9.101600e+00  -3.768935e+02
   2.169647e+02  -2.255081e+02
   1.976512e+02  -2.455063e+01
  -6.430379e+01   8.096962e+01
  -3.316023e+02  -7.397293e+01
  -1.789712e+02  -3.478229e+02
   3.673160e+02  -3.482911e+02
   7.264988e+02   5.351721e+01
   3.825787e+02   4.679596e+02
  -3.223523e+02   4.191238e+02
  -6.329812e+02  -1.911459e+01
  -3.039408e+02  -4.060076e+02
   2.383103e+02  -4.438965e+02
   4.884354e+02  -1.708371e+02
   3.527539e+02   1.931770e+02
   5.887031e+01   4.201351e+02
  -1.804709e+02   2.653108e+02
  -1.658751e+02  -1.683594e+02
   1.239089e+02  -3.848454e+02
   3.843528e+02  -3.890034e+00
   2.333230e+02   5.755886e+02
  -2.633515e+02   6.253814e+02
  -5.331782e+02   2.481246e+01
  -2.536195e+02  -4.681401e+02
   2.356000e+02  -2.849814e+02
   3.315611e+02   2.595942e+02
  -5.992045e+01   4.464738e+02
  -4.686678e+02   1.015045e+02
  -4.917336e+02  -3.599826e+02
  -1.272877e+02  -4.928427e+02
   3.275172e+02  -2.892654e+02
   5.314646e+02   5.973049e+01
   3.173062e+02   3.266180e+02
  -1.270724e+02   3.197247e+02
  -3.833048e+02   4.800692e+01
  -2.141867e+02  -1.806468e+02
   1.020666e+02  -1.069885e+02
   1.364454e+02   1.372427e+02
  -1.339281e+02   1.720336e+02
  -2.984853e+02  -5.906648e+01
  -1.214453e+02  -2.595459e+02
   1.790808e+02  -2.127723e+02
   2.760693e+02  -4.358344e+01
   1.463441e+02   7.478141e+01
  -3.634135e+01   1.665255e+02
  -1.813871e+02   2.490631e+02
  -2.653322e+02   1.817991e+02
  -2.415474e+02  -1.035265e+02
  -6.464069e+01  -3.571791e+02
   1.067997e+02  -3.251100e+02
   1.136971e+02  -9.734405e+01
   2.823817e+01   1.892784e+01
   3.196433e+01  -6.042450e+01
   1.533570e+02  -1.050950e+02
   2.285929e+02   3.940309e+01
   1.345118e+02   2.202825e+02
  -5.479707e+01   2.148717e+02
  -1.865852e+02   1.448458e+01
  -1.639005e+02  -1.955321e+02
   8.324747e+00  -2.475982e+02
   2.221011e+02  -9.583599e+01
   2.997033e+02   1.468986e+02
   1.530126e+02   3.048905e+02
  -8.922491e+01   2.658566e+02
  -1.956512e+02   9.953335e+01
  -1.309954e+02   3.305430e+00
  -8.571125e+01   2.623553e+01
  -1.976327e+02   5.100266e+01
  -3.332562e+02  -5.522632e+01
  -2.716081e+02  -2.475209e+02
   9.981155e+00  -3.755356e+02
   3.075660e+02  -3.330952e+02
   4.163720e+02  -1.578397e+02
   2.795622e+02   7.914172e+01
   4.943207e+01   2.446237e+02
  -1.092134e+02   2.182309e+02
  -7.648552e+01   3.437317e+01
   8.751385e+01  -8.498654e+01
   1.677369e+02  -7.671726e-01
   4.818489e+01   1.660570e+02
  -1.375154e+02   1.515293e+02
  -1.582430e+02  -4.634758e+01
   9.579628e+00  -1.660560e+02
   1.622509e+02  -3.101197e+01
   1.288964e+02   2.077789e+02
  -3.601794e+01   2.881334e+02
  -1.942499e+02   1.467219e+02
  -2.574899e+02  -6.779129e+01
  -2.161529e+02  -2.023104e+02
  -7.501899e+01  -2.135847e+02
   9.214149e+01  -1.292777e+02
   1.505270e+02  -1.752265e+01
   5.570721e+01   2.943476e+01
  -5.603692e+01  -2.532678e+01
  -2.897758e+01  -1.001876e+02
   9.807594e+01  -8.484105e+01
   1.486883e+02   6.383134e+00
   5.008031e+01   5.684209e+01
  -6.394155e+01   1.148800e+01
  -4.194916e+01  -5.777861e+01
   1.046556e+02  -6.557642e+01
   2.324463e+02   3.825494e+00
   2.166457e+02   1.156954e+02
   4.996048e+01   2.076671e+02
  -1.483074e+02   2.174424e+02
  -2.343782e+02   1.080618e+02
  -1.449710e+02  -4.045259e+01
   1.574385e+01  -9.044307e+01
   7.616168e+01  -8.361316e+00
  -2.564857e+01   8.333633e+01
  -1.618953e+02   4.789313e+01
  -1.769987e+02  -8.529088e+01
  -5.739035e+01  -1.732838e+02
   7.880769e+01  -1.330643e+02
   1.204519e+02  -2.623875e+01
   6.233294e+01   3.308353e+01
  -1.547481e+01   4.751488e+00
  -2.500453e+01  -6.165611e+01
   5.816022e+01  -8.569307e+01
   1.588316e+02  -1.974686e+01
   1.538780e+02   1.022109e+02
   1.435466e+01   1.792896e+02
  -1.394299e+02   1.341353e+02
  -1.631496e+02   3.171619e+00
  -5.525959e+01  -9.598499e+01
   5.467282e+01  -9.426174e+01
   7.166537e+01  -2.735479e+01
   1.862804e+01   1.955156e+01
  -1.403712e+01   1.579850e+01
   9.448876e+00  -2.682358e+00
   5.502764e+01   1.235318e+01
   6.648261e+01   6.903008e+01
   8.508753e+00   1.261368e+02
  -1.018507e+02   1.209588e+02
  -1.886036e+02   2.183726e+01
  -1.663809e+02  -1.205561e+02
  -3.405157e+01  -1.954964e+02
   8.892887e+01  -1.415471e+02
   1.124978e+02  -2.164698e+01
   5.722869e+01   4.848428e+01
   2.377696e+01   3.089732e+01
   4.295415e+01  -9.163012e+00
   6.419540e+01  -3.341696e+00
   3.049240e+01   4.226865e+01
  -3.808947e+01   6.860587e+01
  -8.298715e+01   3.853170e+01
  -6.497975e+01  -3.149491e+01
   1.494137e+01  -8.592908e+01
   1.146305e+02  -6.409635e+01
   1.575720e+02   4.350228e+01
   8.018852e+01   1.617362e+02
  -8.624745e+01   1.818948e+02
  -2.171759e+02   7.652335e+01
  -2.101369e+02  -7.418845e+01
  -8.792869e+01  -1.473027e+02
   3.516821e+01  -1.212783e+02
   8.196198e+01  -6.743756e+01
   6.770637e+01  -5.537312e+01
   5.718028e+01  -7.442969e+01
   7.695749e+01  -5.948898e+01
   1.040340e+02   2.000873e+01
   9.292567e+01   1.275483e+02
   2.116834e+01   1.852247e+02
  -7.968719e+01   1.397115e+02
  -1.414393e+02   1.484607e+01
  -1.109508e+02  -9.966180e+01
  -1.690647e+01  -1.289183e+02
   5.238787e+01  -7.539205e+01
   4.787487e+01  -3.653838e+00
   5.160194e+00   3.110683e+01
  -5.811278e+00   2.679765e+01
   3.066011e+01   1.718655e+01
   6.389189e+01   2.206973e+01
   3.573446e+01   3.158547e+01
  -5.113124e+01   2.715520e+01
  -1.271429e+02  -3.153984e-01
  -1.162127e+02  -4.272021e+01
  -1.317204e+01  -7.145319e+01
   9.933310e+01  -5.767028e+01
   1.203392e+02  -8.052650e+00
   3.979780e+01   3.164198e+01
  -4.931473e+01   2.743468e+01
  -6.082258e+01  -1.728242e+01
  -2.718618e+00  -5.516099e+01
   4.963969e+01  -4.442205e+01
   5.106902e+01   5.068095e+00
   3.135589e+01   4.350524e+01
   3.257291e+01   3.573899e+01
   5.336495e+01   2.878173e+00
   5.644825e+01   2.862071e+00
   2.536288e+01   5.737183e+01
  -3.195979e+01   1.166866e+02
  -9.892246e+01   1.107843e+02
  -1.323250e+02   2.190985e+01
  -9.563818e+01  -7.744641e+01
  -2.855634e+00  -1.017070e+02
   6.968549e+01  -4.647384e+01
   4.822679e+01   1.309868e+01
  -4.826912e+01   1.271350e+01
  -1.113918e+02  -4.066184e+01
  -5.986465e+01  -8.949621e+01
   6.955178e+01  -8.930476e+01
   1.586930e+02  -3.853233e+01
   1.333230e+02   2.964426e+01
   2.774882e+01   7.154165e+01
  -5.142012e+01   5.706239e+01
  -3.784248e+01   8.353342e+00
   3.223701e+01  -1.900156e+01
   7.150125e+01   2.073996e+01
   2.074084e+01   9.719991e+01
  -8.017510e+01   1.227453e+02
  -1.388786e+02   4.763516e+01
  -1.001503e+02  -8.504808e+01
  -3.487141e+00  -1.652520e+02
   7.139564e+01  -1.207035e+02
   8.406493e+01   5.985964e+00
   4.860851e+01   9.717102e+01
  -1.481743e+00   8.768844e+01
  -3.582525e+01   1.617944e+01
  -4.289290e+01  -2.701650e+01
  -2.353420e+01  -8.542622e+00
  -3.174398e+00   1.591377e+01
  -1.523468e+01  -1.346977e+01
  -4.405163e+01  -7.411266e+01
  -3.401316e+01  -9.141121e+01
   3.781583e+01  -3.634172e+01
   1.136970e+02   3.653421e+01
   1.078566e+02   6.094746e+01
   1.396200e+01   3.875383e+01
  -7.480458e+01   1.511683e+01
  -7.400915e+01   4.538562e+00
  -7.866007e+00  -5.651057e+00
   3.300164e+01  -1.751293e+01
   1.140371e+01  -1.634057e+01
  -1.832113e+01   4.432447e-01
   5.014178e+00   7.944091e+00
   6.358599e+01   6.576553e+00
   7.501212e+01   2.379771e+01
   2.442474e+00   6.633058e+01
  -1.028475e+02   8.850484e+01
  -1.549827e+02   4.134743e+01
  -1.137623e+02  -5.894389e+01
  -1.706275e+01  -1.331078e+02
   6.736560e+01  -1.202065e+02
   9.458237e+01  -4.612179e+01
   6.530502e+01   1.850258e+01
   1.948664e+01   2.910337e+01
  -3.967530e+00   7.166224e+00
   6.642778e+00   2.523112e+00
   2.559665e+01   3.571632e+01
   1.761387e+01   7.230953e+01
  -2.488199e+01   5.894418e+01
  -6.573489e+01  -1.648898e+01
  -5.933270e+01  -9.100630e+01
   1.089368e+00  -9.250698e+01
   6.747684e+01  -1.684507e+01
   8.135247e+01   6.550732e+01
   2.267201e+01   8.575831e+01
  -5.593120e+01   4.241998e+01
  -7.886562e+01  -1.281070e+01
  -2.908951e+01  -4.184900e+01
   2.814762e+01  -4.142907e+01
   2.508382e+01  -2.238931e+01
  -2.998308e+01   8.759289e-02
  -5.706568e+01   6.139922e+00
  -1.122874e+01  -1.874598e+01
   6.506327e+01  -5.156031e+01
   9.273195e+01  -4.839678e+01
   5.060505e+01   8.374086e+00
  -1.408924e+01   6.581859e+01
  -4.277667e+01   6.374811e+01
  -2.918609e+01   2.888257e+00
   1.376872e+00  -4.548156e+01
   2.242609e+01  -3.321814e+01
   2.910107e+01   1.689355e+01
   2.072197e+01   4.450598e+01
  -3.227328e+00   2.509989e+01
  -2.679716e+01  -7.925659e+00
  -3.148276e+01  -1.700090e+01
  -1.689334e+01  -1.349799e+00
  -5.193596e-01   1.047228e+01
   4.204517e+00  -4.175946e+00
   6.673283e+00  -3.064045e+01
   1.637003e+01  -3.530593e+01
   2.741333e+01  -4.778749e+00
   2.250944e+01   3.755692e+01
  -4.713179e+00   4.910057e+01
  -3.672632e+01   1.546147e+01
  -4.408341e+01  -3.359435e+01
  -9.818438e+00  -5.187202e+01
   4.475842e+01  -2.544754e+01
   7.157142e+01   1.599391e+01
   3.936156e+01   3.737356e+01
  -2.449042e+01   3.296022e+01
  -5.476973e+01   1.540718e+01
  -2.088980e+01   2.409516e+00
   3.150606e+01   2.664035e+00
   3.229494e+01   1.470565e+01
  -2.582947e+01   2.581513e+01
  -7.746463e+01   1.497602e+01
