
 $NMID
 id='ANONYMOUS ', fmtdat='(2E16.6)'
 volume=1.0
 tramp=1.0
 $END
  -4.110203e+03   5.320327e+01
  -2.590386e+03  -2.479784e+03
   6.240873e+02  -2.720388e+03
   2.044433e+03  -9.563927e+02
   9.940161e+02   5.852537e+02
  -5.751458e+02   5.764631e+02
  -8.570646e+02  -3.931409e+02
  -2.682943e-01  -1.030002e+03
   7.942358e+02  -7.617418e+02
   9.281097e+02   8.311719e+01
   4.591441e+02   8.511718e+02
  -2.412498e+02   9.126134e+02
  -6.359204e+02   1.278884e+02
  -3.916758e+02  -7.131498e+02
   2.609928e+02  -7.544151e+02
   6.068313e+02  -2.262142e+00
   2.783277e+02   6.711179e+02
  -3.140653e+02   6.315516e+02
  -5.670607e+02   1.005246e+02
  -3.940666e+02  -3.459937e+02
  -3.112469e+01  -4.279039e+02
   2.246714e+02  -2.662801e+02
   2.005507e+02  -3.289246e+01
  -1.072611e+02   6.532451e+01
  -3.960641e+02  -1.129563e+02
  -1.875430e+02  -4.156637e+02
   4.527505e+02  -3.876243e+02
   8.314395e+02   7.024035e+01
   4.157966e+02   5.364520e+02
  -3.895423e+02   4.745994e+02
  -7.380237e+02  -2.623804e+01
  -3.507067e+02  -4.646107e+02
   2.626429e+02  -5.127577e+02
   5.490400e+02  -2.163032e+02
   4.209462e+02   2.004046e+02
   9.197861e+01   4.689664e+02
  -1.802385e+02   2.921306e+02
  -1.623038e+02  -1.988603e+02
   1.568558e+02  -4.214914e+02
   4.316380e+02   1.966477e+01
   2.470981e+02   6.767358e+02
  -3.175667e+02   7.050737e+02
  -5.938062e+02   2.444282e+01
  -2.684298e+02  -5.353683e+02
   2.701966e+02  -3.206664e+02
   3.667302e+02   3.017452e+02
  -6.464060e+01   5.339050e+02
  -5.296157e+02   1.434551e+02
  -5.826600e+02  -3.903620e+02
  -1.663594e+02  -5.735343e+02
   3.671713e+02  -3.435064e+02
   6.174989e+02   6.429061e+01
   3.799861e+02   3.739304e+02
  -1.438190e+02   3.640283e+02
  -4.392601e+02   6.567184e+01
  -2.483537e+02  -1.857493e+02
   1.121335e+02  -1.141262e+02
   1.464704e+02   1.419382e+02
  -1.583144e+02   1.825199e+02
  -3.425942e+02  -6.271238e+01
  -1.456870e+02  -2.870021e+02
   2.017057e+02  -2.580151e+02
   3.344236e+02  -7.847024e+01
   1.945392e+02   8.905367e+01
  -2.848771e+01   2.325886e+02
  -2.180933e+02   3.304810e+02
  -3.356671e+02   2.207605e+02
  -2.912670e+02  -1.323041e+02
  -9.582195e+01  -4.369745e+02
   9.973149e+01  -3.957733e+02
   1.188928e+02  -1.172540e+02
   3.219200e+01   1.080584e+01
   4.461554e+01  -8.319646e+01
   1.864274e+02  -1.280863e+02
   2.678460e+02   4.695644e+01
   1.587411e+02   2.591731e+02
  -6.448214e+01   2.511463e+02
  -2.204478e+02   1.523832e+01
  -1.952782e+02  -2.287458e+02
   6.383171e+00  -2.836887e+02
   2.563461e+02  -1.151562e+02
   3.547092e+02   1.571447e+02
   1.897791e+02   3.400971e+02
  -9.118720e+01   3.087532e+02
  -2.258491e+02   1.302822e+02
  -1.581119e+02   9.240802e+00
  -1.097756e+02   2.895286e+01
  -2.347995e+02   5.368989e+01
  -3.847239e+02  -5.946812e+01
  -3.223409e+02  -2.768000e+02
   2.185600e+00  -4.387726e+02
   3.451702e+02  -4.128925e+02
   4.743821e+02  -2.083825e+02
   3.300711e+02   8.612295e+01
   6.005083e+01   2.840143e+02
  -1.210608e+02   2.427275e+02
  -7.675356e+01   3.057565e+01
   1.063109e+02  -1.015924e+02
   1.907518e+02   1.050765e+01
   4.739016e+01   1.932764e+02
  -1.589739e+02   1.726006e+02
  -1.784477e+02  -5.679270e+01
   9.316393e+00  -1.900940e+02
   1.849947e+02  -3.650477e+01
   1.629421e+02   2.378892e+02
  -2.268569e+01   3.426344e+02
  -2.211147e+02   1.946609e+02
  -3.194776e+02  -5.393012e+01
  -2.756252e+02  -2.297132e+02
  -9.571062e+01  -2.574719e+02
   1.090860e+02  -1.576485e+02
   1.705014e+02  -1.852853e+01
   5.557755e+01   3.357475e+01
  -7.055693e+01  -3.595954e+01
  -3.278726e+01  -1.233474e+02
   1.182851e+02  -1.026103e+02
   1.761024e+02   7.987628e+00
   6.040671e+01   7.083080e+01
  -7.698929e+01   1.850449e+01
  -5.566955e+01  -7.203291e+01
   1.184732e+02  -8.991631e+01
   2.779881e+02  -2.758425e+00
   2.632206e+02   1.425584e+02
   6.141238e+01   2.524089e+02
  -1.810141e+02   2.561247e+02
  -2.776019e+02   1.232041e+02
  -1.687391e+02  -4.831549e+01
   2.067072e+01  -1.078488e+02
   9.013282e+01  -1.074114e+01
  -3.084450e+01   9.827632e+01
  -1.899492e+02   6.015131e+01
  -2.094372e+02  -9.893344e+01
  -7.144080e+01  -2.069948e+02
   9.221298e+01  -1.593708e+02
   1.455592e+02  -3.232939e+01
   7.147867e+01   4.096156e+01
  -2.812005e+01   5.828849e+00
  -3.787455e+01  -7.996175e+01
   6.951790e+01  -1.113859e+02
   1.947272e+02  -3.134776e+01
   1.908075e+02   1.195211e+02
   2.383576e+01   2.160978e+02
  -1.595932e+02   1.664091e+02
  -1.924790e+02   9.381148e+00
  -6.750327e+01  -1.132156e+02
   6.409081e+01  -1.103983e+02
   8.387690e+01  -3.141616e+01
   2.107822e+01   2.658084e+01
  -2.079242e+01   1.954015e+01
   9.129283e+00  -8.990750e+00
   7.004838e+01   6.860390e+00
   8.916163e+01   8.102462e+01
   1.662459e+01   1.579996e+02
  -1.264490e+02   1.529675e+02
  -2.335720e+02   2.761855e+01
  -2.038693e+02  -1.510432e+02
  -4.387264e+01  -2.392314e+02
   1.075485e+02  -1.731596e+02
   1.382702e+02  -2.983635e+01
   7.396845e+01   5.410578e+01
   3.026065e+01   3.660216e+01
   5.310722e+01  -9.869217e+00
   7.741408e+01  -5.296972e+00
   4.267743e+01   4.864539e+01
  -3.773777e+01   8.770773e+01
  -9.953117e+01   5.728737e+01
  -8.704331e+01  -3.244729e+01
   8.378489e+00  -1.090287e+02
   1.348375e+02  -8.761374e+01
   1.925686e+02   4.539338e+01
   1.029202e+02   1.939207e+02
  -9.884267e+01   2.236867e+02
  -2.604522e+02   9.840826e+01
  -2.550025e+02  -7.974985e+01
  -1.106665e+02  -1.713407e+02
   3.770842e+01  -1.450617e+02
   9.429601e+01  -8.309653e+01
   7.803362e+01  -6.826056e+01
   6.313159e+01  -8.729937e+01
   8.789567e+01  -7.128939e+01
   1.252770e+02   2.064779e+01
   1.174043e+02   1.485551e+02
   3.100873e+01   2.193252e+02
  -9.493343e+01   1.685005e+02
  -1.707840e+02   2.278772e+01
  -1.330246e+02  -1.149621e+02
  -2.015391e+01  -1.519210e+02
   6.325771e+01  -8.847651e+01
   5.707640e+01   2.937556e-01
   5.740760e+00   4.175918e+01
  -1.007190e+01   3.421209e+01
   3.372631e+01   1.658254e+01
   7.639407e+01   2.133228e+01
   4.378098e+01   3.644627e+01
  -6.300575e+01   3.638255e+01
  -1.527726e+02   3.615676e+00
  -1.368307e+02  -4.842095e+01
  -1.449007e+01  -8.560013e+01
   1.139054e+02  -7.133876e+01
   1.379126e+02  -1.261599e+01
   4.607474e+01   4.140271e+01
  -5.854384e+01   3.725694e+01
  -7.341291e+01  -1.916379e+01
  -8.565368e+00  -6.752394e+01
   5.286340e+01  -5.652867e+01
   6.203582e+01   2.335727e+00
   4.498270e+01   4.917466e+01
   4.266754e+01   4.023386e+01
   5.726539e+01   4.555467e-01
   6.393509e+01   8.269099e-01
   3.593748e+01   6.646173e+01
  -3.023732e+01   1.424650e+02
  -1.138253e+02   1.380580e+02
  -1.602589e+02   3.235249e+01
  -1.213539e+02  -8.825945e+01
  -7.048141e+00  -1.236827e+02
   8.489848e+01  -6.205848e+01
   6.063499e+01   1.243431e+01
  -5.433571e+01   2.060636e+01
  -1.311075e+02  -3.737647e+01
  -7.549333e+01  -1.007223e+02
   7.639761e+01  -1.081393e+02
   1.856790e+02  -5.148840e+01
   1.594500e+02   2.927634e+01
   3.792538e+01   8.407684e+01
  -5.966706e+01   6.927913e+01
  -4.832552e+01   6.988189e+00
   3.742974e+01  -2.807022e+01
   9.026917e+01   2.132482e+01
   3.540682e+01   1.169381e+02
  -8.670791e+01   1.532656e+02
  -1.646737e+02   6.412991e+01
  -1.263914e+02  -9.671358e+01
  -1.153817e+01  -1.922466e+02
   8.291302e+01  -1.367908e+02
   1.019136e+02   6.917035e+00
   5.771896e+01   1.133347e+02
  -3.151511e+00   1.017083e+02
  -4.462010e+01   1.844491e+01
  -4.888058e+01  -3.074657e+01
  -2.220145e+01  -7.687039e+00
  -2.548567e+00   2.187647e+01
  -2.126113e+01  -1.361507e+01
  -5.484512e+01  -8.452961e+01
  -4.144547e+01  -1.058450e+02
   4.576791e+01  -4.379732e+01
   1.358933e+02   3.800083e+01
   1.251998e+02   6.950056e+01
   1.778377e+01   4.995965e+01
  -8.468557e+01   2.358969e+01
  -8.647798e+01   8.497136e+00
  -1.136923e+01  -7.943191e+00
   3.722401e+01  -2.268841e+01
   1.543284e+01  -1.742421e+01
  -2.017425e+01   2.563484e+00
   5.268631e+00   7.920120e+00
   7.070181e+01   2.716668e+00
   8.926179e+01   2.279187e+01
   1.070587e+01   7.819112e+01
  -1.121285e+02   1.115054e+02
  -1.784678e+02   5.820688e+01
  -1.369304e+02  -6.320139e+01
  -2.741846e+01  -1.537230e+02
   7.460359e+01  -1.444279e+02
   1.101603e+02  -5.904588e+01
   7.790954e+01   1.857254e+01
   2.524335e+01   3.378101e+01
  -8.770974e-01   9.281570e+00
   1.196864e+01   5.777912e+00
   3.303995e+01   4.584459e+01
   2.181513e+01   8.729991e+01
  -2.910931e+01   7.011273e+01
  -7.917013e+01  -1.700570e+01
  -7.727582e+01  -1.041754e+02
  -5.876464e+00  -1.089119e+02
   7.990231e+01  -2.473611e+01
   9.894608e+01   7.093049e+01
   3.213176e+01   9.953865e+01
  -6.332478e+01   5.361959e+01
  -9.430784e+01  -1.146673e+01
  -3.802223e+01  -4.931137e+01
   3.218767e+01  -4.960370e+01
   3.172511e+01  -2.530683e+01
  -3.103177e+01   1.768165e+00
  -6.605654e+01   6.716463e+00
  -1.550206e+01  -2.494368e+01
   7.664895e+01  -6.415284e+01
   1.132141e+02  -5.574440e+01
   6.260347e+01   1.340468e+01
  -1.502037e+01   8.164862e+01
  -5.325750e+01   7.615247e+01
  -3.723410e+01   4.845365e+00
  -1.638300e+00  -5.496227e+01
   2.490643e+01  -4.259323e+01
   3.623389e+01   1.738630e+01
   2.626473e+01   5.359491e+01
  -3.095920e+00   3.330887e+01
  -3.283764e+01  -7.838070e+00
  -3.882300e+01  -2.141136e+01
  -1.972056e+01  -1.405662e+00
   1.028917e+00   1.444301e+01
   5.877891e+00  -2.639746e+00
   4.626641e+00  -3.630133e+01
   1.442829e+01  -4.569681e+01
   3.190269e+01  -9.918065e+00
   3.227645e+01   4.268196e+01
   2.309496e-01   5.852334e+01
  -4.308985e+01   2.070396e+01
  -5.626859e+01  -3.706638e+01
  -1.554377e+01  -6.056002e+01
   5.379557e+01  -3.357596e+01
   8.669148e+01   1.308856e+01
   4.732478e+01   4.227357e+01
  -2.879171e+01   4.055033e+01
  -6.320222e+01   2.237209e+01
  -2.442699e+01   4.692086e+00
   3.491880e+01   1.111355e+00
   3.642917e+01   1.483966e+01
  -2.963912e+01   3.033960e+01
  -8.714266e+01   1.956680e+01
