
 $NMID
 id='ANONYMOUS ', fmtdat='(2E16.6)'
 volume=1.0
 tramp=1.0
 $END
   3.140074e+03   2.463789e+01
   1.903214e+03   1.900824e+03
  -5.089304e+02   2.057497e+03
  -1.554856e+03   6.105356e+02
  -6.944403e+02  -4.867381e+02
   4.621973e+02  -3.941505e+02
   6.088252e+02   3.241719e+02
  -2.723830e+01   7.418717e+02
  -5.738142e+02   5.179036e+02
  -6.204687e+02  -7.000138e+01
  -2.918141e+02  -5.841783e+02
   1.785472e+02  -5.848588e+02
   4.247704e+02  -7.046001e+01
   2.461944e+02   5.108710e+02
  -1.878974e+02   5.273754e+02
  -4.154914e+02   1.958468e+00
  -1.820011e+02  -4.623782e+02
   2.300428e+02  -4.214550e+02
   3.894312e+02  -5.703370e+01
   2.509135e+02   2.435904e+02
   1.164791e+01   2.944633e+02
  -1.554156e+02   1.936125e+02
  -1.472675e+02   3.665193e+01
   6.390381e+01  -4.294168e+01
   2.677688e+02   7.311162e+01
   1.368541e+02   2.847249e+02
  -3.094118e+02   2.814559e+02
  -6.010366e+02  -5.509247e+01
  -3.101304e+02  -3.788652e+02
   2.611629e+02  -3.376314e+02
   5.139218e+02   1.972714e+01
   2.508414e+02   3.248183e+02
  -1.782808e+02   3.534280e+02
  -3.797806e+02   1.519774e+02
  -2.929868e+02  -1.348434e+02
  -7.229200e+01  -3.287660e+02
   1.262731e+02  -2.241108e+02
   1.327425e+02   1.281465e+02
  -8.691265e+01   3.115513e+02
  -2.945618e+02   1.150529e+01
  -1.790128e+02  -4.668650e+02
   2.028839e+02  -4.921186e+02
   4.040349e+02  -1.355881e+01
   1.734801e+02   3.828767e+02
  -1.917550e+02   2.242242e+02
  -2.636944e+02  -2.229285e+02
   3.569763e+01  -3.718222e+02
   3.649399e+02  -8.723229e+01
   4.041246e+02   2.687055e+02
   1.160941e+02   3.861518e+02
  -2.494488e+02   2.273232e+02
  -4.222124e+02  -5.140720e+01
  -2.558631e+02  -2.560467e+02
   1.077165e+02  -2.539076e+02
   3.158608e+02  -3.905825e+01
   1.768814e+02   1.453141e+02
  -8.215436e+01   8.109653e+01
  -1.048350e+02  -1.088490e+02
   1.136126e+02  -1.293521e+02
   2.426924e+02   5.766900e+01
   8.565984e+01   2.079756e+02
  -1.508783e+02   1.653302e+02
  -2.202646e+02   3.587599e+01
  -1.110304e+02  -5.202120e+01
   3.056748e+01  -1.317515e+02
   1.394497e+02  -2.084786e+02
   2.233066e+02  -1.542601e+02
   1.980769e+02   8.518112e+01
   6.435091e+01   3.057536e+02
  -8.238692e+01   2.753987e+02
  -9.750567e+01   8.097225e+01
  -2.857497e+01  -1.676704e+01
  -2.673731e+01   4.478208e+01
  -1.244430e+02   8.224996e+01
  -1.826251e+02  -3.093654e+01
  -1.097843e+02  -1.769679e+02
   4.177674e+01  -1.721002e+02
   1.466785e+02  -1.350884e+01
   1.311350e+02   1.546995e+02
  -2.812657e+00   1.938753e+02
  -1.706291e+02   7.988878e+01
  -2.395450e+02  -1.099134e+02
  -1.263189e+02  -2.361483e+02
   6.508594e+01  -2.076928e+02
   1.557728e+02  -8.310636e+01
   1.020400e+02   3.643039e+00
   6.231529e+01  -7.205351e+00
   1.430571e+02  -3.013772e+01
   2.496095e+02   4.179422e+01
   2.093111e+02   1.818554e+02
  -6.128310e+00   2.752209e+02
  -2.355447e+02   2.677224e+02
  -3.172505e+02   1.340591e+02
  -2.171753e+02  -5.797067e+01
  -3.674192e+01  -1.917480e+02
   8.880234e+01  -1.709747e+02
   5.854050e+01  -2.338175e+01
  -6.896106e+01   7.853773e+01
  -1.333967e+02  -1.967522e-01
  -3.821575e+01  -1.338381e+02
   1.074950e+02  -1.204263e+02
   1.209473e+02   4.188523e+01
  -1.294158e+01   1.355729e+02
  -1.311028e+02   2.133431e+01
  -1.076001e+02  -1.728027e+02
   2.441817e+01  -2.379656e+02
   1.517893e+02  -1.224721e+02
   2.129306e+02   4.372126e+01
   1.882863e+02   1.528266e+02
   7.204186e+01   1.687570e+02
  -6.896178e+01   1.085921e+02
  -1.190396e+02   1.973027e+01
  -4.570410e+01  -1.827307e+01
   4.440717e+01   2.358144e+01
   2.196038e+01   8.033923e+01
  -8.244694e+01   6.499856e+01
  -1.231458e+02  -8.093154e+00
  -4.280679e+01  -4.766896e+01
   4.980093e+01  -1.268158e+01
   3.449946e+01   4.236773e+01
  -7.860559e+01   4.788614e+01
  -1.809038e+02  -1.126141e+01
  -1.670885e+02  -9.177746e+01
  -3.804160e+01  -1.631074e+02
   1.244144e+02  -1.687771e+02
   1.882505e+02  -8.408905e+01
   1.125607e+02   3.136215e+01
  -1.730056e+01   7.485710e+01
  -6.318736e+01   9.307956e+00
   1.890001e+01  -6.601795e+01
   1.294866e+02  -4.143450e+01
   1.396119e+02   6.475495e+01
   4.834371e+01   1.348896e+02
  -5.902656e+01   1.052187e+02
  -9.250332e+01   2.256180e+01
  -4.844036e+01  -2.347557e+01
   1.582316e+01  -1.723689e+00
   2.297194e+01   5.217422e+01
  -4.561512e+01   7.084509e+01
  -1.292520e+02   1.741947e+01
  -1.290285e+02  -8.112076e+01
  -1.604742e+01  -1.441648e+02
   1.098268e+02  -1.109650e+02
   1.312533e+02  -7.508189e+00
   4.392326e+01   7.270531e+01
  -4.465486e+01   7.239646e+01
  -5.408103e+01   2.206776e+01
  -1.220471e+01  -1.453125e+01
   1.241838e+01  -1.193915e+01
  -5.964796e+00   1.999512e+00
  -4.324436e+01  -7.295529e+00
  -5.578817e+01  -5.173245e+01
  -1.208366e+01  -9.893683e+01
   7.708723e+01  -9.861540e+01
   1.511902e+02  -2.040623e+01
   1.320500e+02   9.288197e+01
   3.026100e+01   1.537183e+02
  -6.977232e+01   1.107933e+02
  -8.619156e+01   1.869435e+01
  -4.353725e+01  -3.537120e+01
  -1.871372e+01  -2.287090e+01
  -3.627096e+01   7.339118e+00
  -5.186356e+01   2.300756e+00
  -2.301358e+01  -3.182178e+01
   3.193853e+01  -5.197419e+01
   6.505033e+01  -3.087927e+01
   4.975092e+01   2.364721e+01
  -1.266694e+01   6.701276e+01
  -9.121188e+01   5.220799e+01
  -1.265658e+02  -3.277465e+01
  -6.681071e+01  -1.287827e+02
   6.669060e+01  -1.484957e+02
   1.716753e+02  -6.490437e+01
   1.687524e+02   5.275022e+01
   7.498847e+01   1.111512e+02
  -2.261881e+01   9.389862e+01
  -6.253717e+01   5.677825e+01
  -5.680335e+01   4.948078e+01
  -4.546696e+01   5.896449e+01
  -5.858698e+01   4.570440e+01
  -7.954301e+01  -1.596736e+01
  -7.340227e+01  -9.900860e+01
  -2.115371e+01  -1.468475e+02
   6.207275e+01  -1.123426e+02
   1.125696e+02  -1.431630e+01
   9.012503e+01   7.900983e+01
   1.433190e+01   1.051270e+02
  -4.138096e+01   6.310441e+01
  -3.720824e+01   3.395686e+00
  -3.253335e+00  -2.627815e+01
   5.338775e+00  -2.336516e+01
  -2.517905e+01  -1.298328e+01
  -5.261651e+01  -1.481886e+01
  -2.868216e+01  -2.201433e+01
   4.197008e+01  -2.001916e+01
   1.031847e+02  -6.067296e-01
   9.461475e+01   3.011959e+01
   1.133536e+01   5.181667e+01
  -7.740181e+01   4.594607e+01
  -9.623418e+01   1.186241e+01
  -3.295332e+01  -2.328552e+01
   3.856624e+01  -2.261792e+01
   4.949593e+01   1.052607e+01
   4.318737e+00   4.141526e+01
  -3.582464e+01   3.638328e+01
  -3.937867e+01   5.182204e-01
  -2.949004e+01  -3.086455e+01
  -3.269822e+01  -2.817098e+01
  -4.429059e+01  -4.413481e+00
  -4.422533e+01  -3.884944e+00
  -1.906196e+01  -4.423103e+01
   2.282034e+01  -9.225924e+01
   7.387643e+01  -9.229670e+01
   1.042063e+02  -2.413784e+01
   8.025911e+01   5.516024e+01
   6.626534e+00   7.948034e+01
  -5.498506e+01   4.067825e+01
  -3.851813e+01  -5.709988e+00
   3.967870e+01  -7.634619e+00
   8.937181e+01   3.162610e+01
   4.957398e+01   6.896494e+01
  -5.388974e+01   7.100627e+01
  -1.292943e+02   3.485716e+01
  -1.106571e+02  -1.842571e+01
  -2.684375e+01  -5.414569e+01
   3.862908e+01  -4.813406e+01
   3.231446e+01  -6.445826e+00
  -2.514802e+01   1.618098e+01
  -5.923367e+01  -1.485354e+01
  -2.067323e+01  -7.764176e+01
   6.191378e+01  -1.026551e+02
   1.123198e+02  -4.249795e+01
   8.433491e+01   6.717940e+01
   5.991674e+00   1.328143e+02
  -5.721939e+01   9.631667e+01
  -6.852895e+01  -2.348191e+00
  -4.002269e+01  -7.708115e+01
  -5.871391e-01  -7.112827e+01
   2.896122e+01  -1.502150e+01
   3.526689e+01   1.969165e+01
   1.771300e+01   6.688523e+00
   2.024565e+00  -1.307908e+01
   1.137314e+01   1.042613e+01
   3.349253e+01   5.946012e+01
   2.774665e+01   7.184864e+01
  -2.917948e+01   2.575389e+01
  -8.849518e+01  -3.074118e+01
  -8.515339e+01  -4.668942e+01
  -1.338389e+01  -2.797557e+01
   5.603256e+01  -1.209003e+01
   5.832979e+01  -7.555449e+00
   6.889899e+00   7.888755e-01
  -2.459747e+01   1.434447e+01
  -7.751556e+00   1.411359e+01
   1.602330e+01  -6.978168e-01
  -5.246181e+00  -7.262440e+00
  -5.020550e+01  -4.594101e+00
  -6.021856e+01  -1.531870e+01
  -2.780962e+00  -5.207328e+01
   8.103702e+01  -7.449162e+01
   1.222638e+02  -3.665221e+01
   9.040766e+01   4.648185e+01
   1.456821e+01   1.068547e+02
  -5.191839e+01   9.690460e+01
  -7.467603e+01   3.743851e+01
  -5.309502e+01  -1.185078e+01
  -1.714442e+01  -2.056218e+01
   2.637674e+00  -5.254430e+00
  -5.102597e+00  -4.186416e+00
  -2.110822e+01  -3.019696e+01
  -1.542032e+01  -5.752606e+01
   1.752821e+01  -4.400056e+01
   5.176814e+01   1.370551e+01
   5.039038e+01   7.180768e+01
   3.755435e+00   7.298924e+01
  -5.236823e+01   1.480942e+01
  -6.573421e+01  -4.919531e+01
  -1.967957e+01  -6.620793e+01
   4.281357e+01  -3.416887e+01
   6.206539e+01   8.982759e+00
   2.377652e+01   3.176366e+01
  -2.307949e+01   3.178052e+01
  -2.074423e+01   1.864101e+01
   2.319347e+01   2.266841e+00
   4.680057e+01  -3.806031e+00
   9.238581e+00   1.484424e+01
  -5.329304e+01   4.071253e+01
  -7.581423e+01   3.867929e+01
  -4.021402e+01  -5.796029e+00
   1.203138e+01  -5.272473e+01
   3.473889e+01  -5.125431e+01
   2.286222e+01  -3.782659e+00
   5.341787e-01   3.549444e+01
  -1.528494e+01   2.670460e+01
  -2.269112e+01  -1.202907e+01
  -1.747212e+01  -3.414442e+01
   8.955074e-01  -1.985400e+01
   2.132614e+01   6.533205e+00
   2.619775e+01   1.503873e+01
   1.393823e+01   1.517968e+00
  -7.328774e-01  -8.035178e+00
  -5.680434e+00   3.373372e+00
  -6.820547e+00   2.330451e+01
  -1.307747e+01   2.717375e+01
  -2.112946e+01   2.437043e+00
  -1.758422e+01  -3.056938e+01
   3.758299e+00  -3.988079e+01
   2.887241e+01  -1.245315e+01
   3.470593e+01   2.623072e+01
   8.554378e+00   4.075315e+01
  -3.453366e+01   1.954463e+01
  -5.555516e+01  -1.188690e+01
  -3.112840e+01  -2.846729e+01
   1.772234e+01  -2.303858e+01
   4.163473e+01  -1.208876e+01
   1.558580e+01  -4.379857e+00
  -2.461785e+01  -4.013087e+00
  -2.504702e+01  -1.067090e+01
   2.053869e+01  -1.852386e+01
   6.031260e+01  -1.026502e+01
