
 $NMID
 id='ANONYMOUS ', fmtdat='(2E16.6)'
 volume=1.0
 tramp=1.0
 $END
   3.911490e+03  -5.317995e+01
   2.406634e+03   2.362100e+03
  -6.045191e+02   2.586625e+03
  -1.932921e+03   8.047501e+02
  -8.727602e+02  -6.121894e+02
   6.163013e+02  -5.161197e+02
   8.067342e+02   4.142349e+02
  -2.221655e+01   9.598290e+02
  -7.613528e+02   6.822947e+02
  -8.280240e+02  -9.676453e+01
  -3.891077e+02  -7.678846e+02
   2.362544e+02  -7.936071e+02
   5.657782e+02  -9.085193e+01
   3.224697e+02   6.550877e+02
  -2.515888e+02   6.680412e+02
  -5.415171e+02  -1.035748e+01
  -2.321688e+02  -6.052776e+02
   2.848451e+02  -5.468382e+02
   5.051649e+02  -6.224098e+01
   3.359520e+02   3.122992e+02
   2.097277e+01   3.759285e+02
  -1.988060e+02   2.312668e+02
  -1.860114e+02   2.281705e+01
   9.589753e+01  -7.393913e+01
   3.633817e+02   9.400885e+01
   1.863143e+02   3.838320e+02
  -4.051861e+02   3.686595e+02
  -7.645553e+02  -6.655123e+01
  -3.894964e+02  -5.068250e+02
   3.494162e+02  -4.381361e+02
   6.622042e+02   2.796401e+01
   3.144967e+02   4.256491e+02
  -2.378139e+02   4.627952e+02
  -4.972062e+02   1.906358e+02
  -3.787849e+02  -1.885484e+02
  -8.408709e+01  -4.280593e+02
   1.738977e+02  -2.684938e+02
   1.680465e+02   1.807255e+02
  -1.287330e+02   3.983693e+02
  -3.946813e+02   2.576954e+00
  -2.286062e+02  -6.040589e+02
   2.774448e+02  -6.340383e+02
   5.314934e+02  -1.441163e+01
   2.312705e+02   4.962142e+02
  -2.574143e+02   2.921675e+02
  -3.454107e+02  -2.862253e+02
   4.618196e+01  -4.878855e+02
   4.786357e+02  -1.242942e+02
   5.254758e+02   3.460671e+02
   1.486996e+02   5.106486e+02
  -3.307295e+02   3.065186e+02
  -5.515642e+02  -5.754468e+01
  -3.320767e+02  -3.329521e+02
   1.389013e+02  -3.259165e+02
   3.972905e+02  -4.856303e+01
   2.132444e+02   1.810562e+02
  -1.126320e+02   1.023977e+02
  -1.360407e+02  -1.429985e+02
   1.468550e+02  -1.720732e+02
   3.092489e+02   6.611055e+01
   1.199289e+02   2.665859e+02
  -1.864286e+02   2.227948e+02
  -2.846291e+02   5.529941e+01
  -1.605357e+02  -6.818488e+01
   1.990532e+01  -1.814922e+02
   1.746133e+02  -2.847235e+02
   2.880720e+02  -2.046510e+02
   2.668038e+02   1.062137e+02
   8.775346e+01   3.876820e+02
  -9.607244e+01   3.384061e+02
  -1.103212e+02   9.517958e+01
  -2.081110e+01  -1.227789e+01
  -3.129502e+01   7.624396e+01
  -1.650161e+02   1.190690e+02
  -2.451740e+02  -3.901707e+01
  -1.449783e+02  -2.336797e+02
   5.598723e+01  -2.300271e+02
   1.960348e+02  -1.840300e+01
   1.721581e+02   2.005424e+02
  -4.355316e+00   2.524140e+02
  -2.253711e+02   1.044772e+02
  -3.122321e+02  -1.419339e+02
  -1.627623e+02  -3.043935e+02
   8.804214e+01  -2.692982e+02
   2.050142e+02  -1.069863e+02
   1.360714e+02   2.281148e+00
   8.340367e+01  -1.785246e+01
   1.872784e+02  -4.925924e+01
   3.275991e+02   4.913135e+01
   2.779690e+02   2.412009e+02
  -3.521535e+00   3.705138e+02
  -3.033421e+02   3.548943e+02
  -4.174846e+02   1.770030e+02
  -2.911836e+02  -8.171723e+01
  -4.955361e+01  -2.545768e+02
   1.178875e+02  -2.198019e+02
   7.851064e+01  -2.642626e+01
  -8.922262e+01   1.013518e+02
  -1.730796e+02  -1.243132e+00
  -4.868904e+01  -1.736182e+02
   1.410133e+02  -1.576403e+02
   1.607594e+02   5.246670e+01
  -1.497502e+01   1.745006e+02
  -1.716212e+02   3.265209e+01
  -1.435496e+02  -2.179497e+02
   2.732211e+01  -3.063399e+02
   1.945669e+02  -1.687382e+02
   2.767176e+02   4.916661e+01
   2.481751e+02   1.978702e+02
   9.890496e+01   2.248896e+02
  -8.987000e+01   1.457771e+02
  -1.573045e+02   2.399570e+01
  -5.791990e+01  -2.831953e+01
   6.165643e+01   3.055923e+01
   3.061142e+01   1.095908e+02
  -1.086564e+02   9.059548e+01
  -1.621933e+02  -9.445401e+00
  -5.703055e+01  -6.576619e+01
   6.689351e+01  -1.960331e+01
   4.744756e+01   5.672700e+01
  -1.026653e+02   6.856255e+01
  -2.359102e+02  -4.677059e+00
  -2.204957e+02  -1.196076e+02
  -5.224452e+01  -2.182795e+02
   1.608943e+02  -2.260009e+02
   2.499085e+02  -1.086726e+02
   1.492351e+02   4.881860e+01
  -2.179729e+01   1.013526e+02
  -8.241106e+01   9.776814e+00
   2.321501e+01  -8.915237e+01
   1.674114e+02  -5.503635e+01
   1.815819e+02   8.646903e+01
   6.257742e+01   1.790077e+02
  -7.870481e+01   1.386703e+02
  -1.235796e+02   2.671957e+01
  -6.439868e+01  -3.519778e+01
   2.270597e+01  -5.923445e+00
   3.395843e+01   6.813421e+01
  -5.724232e+01   9.773243e+01
  -1.678789e+02   2.878588e+01
  -1.687447e+02  -1.031337e+02
  -2.418076e+01  -1.883955e+02
   1.395801e+02  -1.461395e+02
   1.698988e+02  -9.316387e+00
   5.895518e+01   9.745850e+01
  -5.746146e+01   9.614791e+01
  -7.352259e+01   2.825624e+01
  -1.787108e+01  -2.277422e+01
   1.855535e+01  -1.723843e+01
  -7.294451e+00   5.622509e+00
  -5.835704e+01  -6.706436e+00
  -7.549012e+01  -6.745392e+01
  -1.541145e+01  -1.328369e+02
   1.050864e+02  -1.325100e+02
   2.006044e+02  -2.703355e+01
   1.740464e+02   1.262394e+02
   3.934601e+01   2.045508e+02
  -9.306930e+01   1.470252e+02
  -1.175226e+02   2.344029e+01
  -6.058446e+01  -4.749294e+01
  -2.335619e+01  -3.118897e+01
  -4.392277e+01   1.040436e+01
  -6.578495e+01   3.973839e+00
  -3.327904e+01  -4.130237e+01
   3.698493e+01  -7.067815e+01
   8.422319e+01  -4.424392e+01
   6.905549e+01   2.871333e+01
  -1.078774e+01   8.992545e+01
  -1.160699e+02   7.294160e+01
  -1.662450e+02  -3.823235e+01
  -8.974857e+01  -1.669362e+02
   8.509445e+01  -1.969038e+02
   2.252257e+02  -8.914569e+01
   2.220133e+02   6.783685e+01
   9.831425e+01   1.491354e+02
  -2.992584e+01   1.255493e+02
  -7.928837e+01   7.509069e+01
  -6.871463e+01   6.355249e+01
  -5.701985e+01   7.852379e+01
  -7.803810e+01   6.276185e+01
  -1.085872e+02  -1.842063e+01
  -1.022483e+02  -1.290146e+02
  -2.813060e+01  -1.925747e+02
   8.244493e+01  -1.470752e+02
   1.501986e+02  -2.079698e+01
   1.193422e+02   1.018050e+02
   1.981951e+01   1.364025e+02
  -5.509755e+01   8.106711e+01
  -4.986505e+01   3.662959e+00
  -5.016045e+00  -3.373098e+01
   7.404422e+00  -2.806580e+01
  -3.146847e+01  -1.482690e+01
  -6.714790e+01  -1.909573e+01
  -3.754118e+01  -3.017787e+01
   5.304453e+01  -2.950820e+01
   1.310372e+02  -3.411960e+00
   1.208484e+02   4.040166e+01
   1.510921e+01   7.265939e+01
  -1.006036e+02   6.276210e+01
  -1.250828e+02   1.191633e+01
  -4.345873e+01  -3.669966e+01
   5.096200e+01  -3.307305e+01
   6.636425e+01   1.547038e+01
   7.120202e+00   5.739527e+01
  -4.736859e+01   4.856161e+01
  -5.363602e+01  -1.816672e+00
  -3.816681e+01  -4.303505e+01
  -3.784554e+01  -3.630162e+01
  -5.204043e+01  -2.677690e+00
  -5.602284e+01  -1.158945e+00
  -2.900606e+01  -5.595151e+01
   2.730672e+01  -1.220204e+02
   9.716398e+01  -1.223327e+02
   1.388324e+02  -3.202753e+01
   1.069844e+02   7.386267e+01
   9.758154e+00   1.072694e+02
  -7.244815e+01   5.467202e+01
  -5.135223e+01  -9.755478e+00
   4.900089e+01  -1.501233e+01
   1.147207e+02   3.718393e+01
   6.585146e+01   9.050577e+01
  -6.691802e+01   9.710002e+01
  -1.647546e+02   4.867901e+01
  -1.437772e+02  -2.509195e+01
  -3.639518e+01  -7.524320e+01
   5.091609e+01  -6.478748e+01
   4.392481e+01  -8.635857e+00
  -3.170979e+01   2.327331e+01
  -7.811144e+01  -1.770140e+01
  -2.928283e+01  -1.013339e+02
   7.891940e+01  -1.342652e+02
   1.453404e+02  -5.653961e+01
   1.099811e+02   8.633761e+01
   9.439405e+00   1.702803e+02
  -7.341439e+01   1.227627e+02
  -9.059415e+01  -3.817436e+00
  -5.236554e+01  -1.004258e+02
   8.157314e-01  -9.183448e+01
   3.925871e+01  -1.778077e+01
   4.523631e+01   2.705551e+01
   2.134363e+01   8.951873e+00
   2.106641e+00  -1.838994e+01
   1.740646e+01   1.141150e+01
   4.644851e+01   7.531838e+01
   3.562762e+01   9.456216e+01
  -4.021549e+01   3.787766e+01
  -1.169300e+02  -3.634752e+01
  -1.098136e+02  -6.169467e+01
  -1.680039e+01  -4.135333e+01
   7.364274e+01  -1.889411e+01
   7.563647e+01  -8.379614e+00
   8.968604e+00   4.596267e+00
  -3.342148e+01   1.933919e+01
  -1.213974e+01   1.637290e+01
   1.932114e+01  -1.871497e+00
  -4.878010e+00  -8.499234e+00
  -6.292744e+01  -4.512587e+00
  -7.732798e+01  -1.937600e+01
  -5.591990e+00  -6.785512e+01
   1.016206e+02  -9.716512e+01
   1.566466e+02  -5.079150e+01
   1.183504e+02   5.640033e+01
   2.241935e+01   1.368816e+02
  -6.516048e+01   1.275113e+02
  -9.570594e+01   5.043064e+01
  -6.906342e+01  -1.637350e+01
  -2.277198e+01  -2.916043e+01
   2.309039e+00  -7.517450e+00
  -8.043913e+00  -4.239791e+00
  -2.836429e+01  -3.920620e+01
  -1.893462e+01  -7.555749e+01
   2.542985e+01  -5.890786e+01
   6.989752e+01   1.774004e+01
   6.581443e+01   9.307221e+01
   4.284762e+00   9.673225e+01
  -6.988542e+01   2.109909e+01
  -8.676214e+01  -6.383014e+01
  -2.706263e+01  -8.682463e+01
   5.520410e+01  -4.598428e+01
   8.147573e+01   1.020778e+01
   3.229783e+01   4.141785e+01
  -2.838284e+01   4.223271e+01
  -2.700971e+01   2.395213e+01
   2.824421e+01   2.537480e+00
   5.902889e+01  -4.934925e+00
   1.383752e+01   1.974913e+01
  -6.674353e+01   5.426738e+01
  -9.793352e+01   5.105904e+01
  -5.380449e+01  -7.783139e+00
   1.337666e+01  -6.974498e+01
   4.498845e+01  -6.722687e+01
   3.087148e+01  -5.421934e+00
   1.251081e+00   4.694148e+01
  -2.066829e+01   3.609391e+01
  -3.052075e+01  -1.539258e+01
  -2.304981e+01  -4.558033e+01
   2.399553e+00  -2.765103e+01
   2.862003e+01   8.010253e+00
   3.458243e+01   1.977149e+01
   1.807297e+01   2.137075e+00
  -7.159472e-01  -1.071352e+01
  -6.922207e+00   4.212871e+00
  -7.543837e+00   3.146347e+01
  -1.567073e+01   3.608366e+01
  -2.722746e+01   4.576517e+00
  -2.439744e+01  -3.866666e+01
   2.991824e+00  -5.098917e+01
   3.734789e+01  -1.712002e+01
   4.743725e+01   3.200980e+01
   1.299264e+01   5.265086e+01
  -4.528781e+01   2.854462e+01
  -7.389659e+01  -1.289930e+01
  -4.164961e+01  -3.723835e+01
   2.352746e+01  -3.401290e+01
   5.408319e+01  -1.790565e+01
   2.094061e+01  -3.892742e+00
  -3.063823e+01  -1.572583e+00
  -3.215688e+01  -1.362239e+01
   2.645857e+01  -2.626903e+01
   7.768355e+01  -1.484131e+01
