
 $NMID
 id='ANONYMOUS ', fmtdat='(2E16.6)'
 volume=1.0
 tramp=1.0
 $END
   4.454128e+03   5.302651e+01
   2.661190e+03   2.794701e+03
  -7.825460e+02   2.944855e+03
  -2.228348e+03   8.679900e+02
  -9.861025e+02  -7.758669e+02
   7.362542e+02  -6.071406e+02
   9.617648e+02   5.141193e+02
  -4.087383e+01   1.156502e+03
  -9.292786e+02   7.777466e+02
  -9.972734e+02  -1.598087e+02
  -4.403659e+02  -9.440755e+02
   3.157524e+02  -9.196664e+02
   7.068873e+02  -8.024782e+01
   3.866291e+02   7.931786e+02
  -3.283123e+02   7.899003e+02
  -6.526553e+02  -4.155510e+01
  -2.510455e+02  -7.284679e+02
   3.724783e+02  -6.311579e+02
   6.114991e+02  -5.702178e+01
   3.639795e+02   3.776819e+02
  -3.367989e+00   4.420993e+02
  -2.526537e+02   2.560146e+02
  -2.259006e+02   6.405141e-01
   1.178061e+02  -1.122184e+02
   4.337452e+02   1.026985e+02
   2.208925e+02   4.632515e+02
  -4.850907e+02   4.504040e+02
  -8.941451e+02  -8.474519e+01
  -4.502088e+02  -6.100275e+02
   4.312215e+02  -5.315766e+02
   7.979446e+02   3.789829e+01
   3.690003e+02   5.173268e+02
  -2.927319e+02   5.502733e+02
  -5.960973e+02   2.127803e+02
  -4.432202e+02  -2.355161e+02
  -7.371982e+01  -5.019927e+02
   2.312585e+02  -3.044703e+02
   2.034316e+02   2.445784e+02
  -1.806507e+02   4.791081e+02
  -5.024805e+02  -7.629208e+00
  -2.790823e+02  -7.361134e+02
   3.612435e+02  -7.551699e+02
   6.566224e+02   4.026483e+00
   2.619811e+02   6.117326e+02
  -3.320459e+02   3.536094e+02
  -4.222262e+02  -3.484810e+02
   6.669885e+01  -5.900789e+02
   5.734616e+02  -1.481424e+02
   6.063895e+02   4.158363e+02
   1.552003e+02   6.071157e+02
  -4.058178e+02   3.551028e+02
  -6.519643e+02  -8.906919e+01
  -3.758857e+02  -4.160495e+02
   1.906587e+02  -3.883849e+02
   4.808736e+02  -3.665285e+01
   2.406615e+02   2.320513e+02
  -1.486927e+02   1.169914e+02
  -1.594320e+02  -1.762418e+02
   1.826558e+02  -2.062976e+02
   3.695114e+02   9.081186e+01
   1.349872e+02   3.223621e+02
  -2.203295e+02   2.598695e+02
  -3.308661e+02   6.154534e+01
  -1.916299e+02  -8.306130e+01
   1.418615e+01  -2.185742e+02
   2.056837e+02  -3.343581e+02
   3.450862e+02  -2.266864e+02
   3.099981e+02   1.391742e+02
   8.511491e+01   4.601437e+02
  -1.289511e+02   3.856867e+02
  -1.316383e+02   9.024563e+01
  -1.582421e+01  -2.909022e+01
  -2.379516e+01   9.136684e+01
  -1.912099e+02   1.470667e+02
  -2.907490e+02  -4.294486e+01
  -1.719898e+02  -2.766771e+02
   6.820038e+01  -2.703915e+02
   2.367644e+02  -2.282316e+01
   2.086197e+02   2.352829e+02
  -6.881198e+00   3.008009e+02
  -2.715294e+02   1.235788e+02
  -3.702572e+02  -1.719916e+02
  -1.854263e+02  -3.641759e+02
   1.159589e+02  -3.152203e+02
   2.439218e+02  -1.135321e+02
   1.528924e+02   1.217243e+01
   8.979598e+01  -2.550104e+01
   2.191675e+02  -6.744733e+01
   3.876294e+02   5.229889e+01
   3.271558e+02   2.874857e+02
  -7.123666e+00   4.430332e+02
  -3.580576e+02   4.135806e+02
  -4.913206e+02   2.006233e+02
  -3.455338e+02  -1.016961e+02
  -5.843129e+01  -3.068634e+02
   1.444244e+02  -2.584093e+02
   9.783409e+01  -2.232665e+01
  -1.085312e+02   1.204696e+02
  -2.067864e+02  -8.749943e+00
  -5.435698e+01  -2.111683e+02
   1.738465e+02  -1.830713e+02
   1.941116e+02   6.929550e+01
  -1.618297e+01   2.075171e+02
  -2.007776e+02   3.836457e+01
  -1.666883e+02  -2.515723e+02
   3.367863e+01  -3.510306e+02
   2.265683e+02  -1.938601e+02
   3.184552e+02   5.735908e+01
   2.809680e+02   2.323656e+02
   1.067324e+02   2.650461e+02
  -1.095224e+02   1.695718e+02
  -1.834865e+02   2.310382e+01
  -6.285699e+01  -4.005293e+01
   7.614218e+01   3.364822e+01
   3.632889e+01   1.295438e+02
  -1.269500e+02   1.074520e+02
  -1.871015e+02  -1.276401e+01
  -6.385630e+01  -7.885885e+01
   8.035618e+01  -2.428570e+01
   5.779158e+01   6.832807e+01
  -1.178639e+02   8.543477e+01
  -2.743612e+02   1.914358e+00
  -2.594566e+02  -1.404055e+02
  -6.450912e+01  -2.563316e+02
   1.821334e+02  -2.664061e+02
   2.901045e+02  -1.286260e+02
   1.780706e+02   5.949352e+01
  -2.385984e+01   1.209869e+02
  -9.777928e+01   1.198815e+01
   2.676486e+01  -1.063746e+02
   1.959961e+02  -6.482503e+01
   2.140918e+02   1.028651e+02
   7.005343e+01   2.143583e+02
  -9.846398e+01   1.639579e+02
  -1.502728e+02   2.873043e+01
  -7.452646e+01  -4.560326e+01
   2.920005e+01  -1.142324e+01
   4.257890e+01   7.734979e+01
  -6.598972e+01   1.144652e+02
  -1.955481e+02   3.469001e+01
  -1.949197e+02  -1.206802e+02
  -2.543121e+01  -2.211218e+02
   1.640260e+02  -1.688853e+02
   1.988360e+02  -4.791155e+00
   6.835495e+01   1.194816e+02
  -6.898696e+01   1.138256e+02
  -8.791167e+01   3.023749e+01
  -2.392596e+01  -2.915154e+01
   2.054117e+01  -2.322615e+01
  -6.240415e+00   4.975176e+00
  -6.444190e+01  -7.974726e+00
  -8.663536e+01  -7.745026e+01
  -1.856395e+01  -1.549411e+02
   1.239015e+02  -1.544103e+02
   2.347400e+02  -2.897753e+01
   2.034897e+02   1.520462e+02
   4.201879e+01   2.416463e+02
  -1.126093e+02   1.725360e+02
  -1.404330e+02   2.430025e+01
  -7.104894e+01  -5.819851e+01
  -2.590976e+01  -3.766741e+01
  -4.941630e+01   1.149778e+01
  -7.409595e+01   5.343299e+00
  -3.858312e+01  -4.707702e+01
   3.970853e+01  -8.266945e+01
   9.596207e+01  -5.343447e+01
   8.247159e+01   3.095077e+01
  -8.500062e+00   1.047367e+02
  -1.316672e+02   8.755056e+01
  -1.921667e+02  -4.113085e+01
  -1.052834e+02  -1.936879e+02
   9.759786e+01  -2.298217e+02
   2.614713e+02  -1.042150e+02
   2.566652e+02   8.033193e+01
   1.121879e+02   1.773957e+02
  -3.755371e+01   1.488635e+02
  -9.486945e+01   8.604455e+01
  -8.208769e+01   6.889971e+01
  -6.625908e+01   8.694367e+01
  -8.975493e+01   7.122980e+01
  -1.263674e+02  -2.159807e+01
  -1.195438e+02  -1.492891e+02
  -3.209464e+01  -2.233678e+02
   9.793415e+01  -1.712282e+02
   1.767188e+02  -2.372291e+01
   1.380655e+02   1.179810e+02
   2.118695e+01   1.570566e+02
  -6.397705e+01   9.230501e+01
  -5.906256e+01   2.960817e+00
  -7.513274e+00  -4.021577e+01
   8.148236e+00  -3.370647e+01
  -3.464975e+01  -1.812083e+01
  -7.417053e+01  -2.177674e+01
  -4.317567e+01  -3.535871e+01
   6.019341e+01  -3.632823e+01
   1.511209e+02  -4.388054e+00
   1.393926e+02   4.947228e+01
   1.779582e+01   8.816751e+01
  -1.168464e+02   7.450104e+01
  -1.451476e+02   1.232294e+01
  -5.155140e+01  -4.441374e+01
   5.839352e+01  -3.934019e+01
   7.578058e+01   1.840757e+01
   8.043129e+00   6.611042e+01
  -5.452801e+01   5.456528e+01
  -6.089690e+01  -3.285404e+00
  -4.148198e+01  -4.907367e+01
  -4.169270e+01  -4.090281e+01
  -5.938824e+01  -3.189347e+00
  -6.452063e+01  -6.613846e-01
  -3.332816e+01  -6.338387e+01
   3.185425e+01  -1.398503e+02
   1.128255e+02  -1.405812e+02
   1.598002e+02  -3.603543e+01
   1.231397e+02   8.767199e+01
   1.043203e+01   1.258974e+02
  -8.437180e+01   6.313304e+01
  -6.021211e+01  -1.364215e+01
   5.548704e+01  -1.810351e+01
   1.317330e+02   4.446704e+01
   7.437864e+01   1.064416e+02
  -7.876407e+01   1.103622e+02
  -1.889741e+02   5.251470e+01
  -1.638741e+02  -3.072518e+01
  -4.119980e+01  -8.706019e+01
   5.915863e+01  -7.308001e+01
   5.058370e+01  -9.185185e+00
  -3.640557e+01   2.678994e+01
  -8.987660e+01  -2.181191e+01
  -3.305617e+01  -1.182495e+02
   9.259976e+01  -1.545441e+02
   1.709241e+02  -6.169715e+01
   1.277873e+02   1.024459e+02
   9.297023e+00   1.967275e+02
  -8.626062e+01   1.395403e+02
  -1.041062e+02  -5.971445e+00
  -5.988385e+01  -1.161236e+02
   2.001327e+00  -1.066446e+02
   4.534633e+01  -2.113588e+01
   5.147010e+01   3.131609e+01
   2.504985e+01   1.050469e+01
   3.131080e+00  -2.124976e+01
   2.005334e+01   1.219412e+01
   5.314354e+01   8.611169e+01
   4.179800e+01   1.085555e+02
  -4.627352e+01   4.697913e+01
  -1.362165e+02  -3.961452e+01
  -1.267973e+02  -7.358453e+01
  -1.788211e+01  -5.184659e+01
   8.618823e+01  -2.217793e+01
   8.801800e+01  -7.855301e+00
   1.146944e+01   6.925615e+00
  -3.784638e+01   2.190787e+01
  -1.455384e+01   1.891010e+01
   2.098381e+01  -1.109430e+00
  -5.641181e+00  -8.718066e+00
  -7.243828e+01  -4.523527e+00
  -9.001354e+01  -2.290589e+01
  -8.621721e+00  -7.866173e+01
   1.154201e+02  -1.124936e+02
   1.807477e+02  -5.823370e+01
   1.364678e+02   6.539190e+01
   2.488315e+01   1.574121e+02
  -7.569877e+01   1.457183e+02
  -1.100009e+02   5.742590e+01
  -7.808204e+01  -2.058909e+01
  -2.543987e+01  -3.408414e+01
   1.977452e+00  -8.059606e+00
  -1.068637e+01  -3.879210e+00
  -3.344174e+01  -4.502222e+01
  -2.164668e+01  -8.781330e+01
   3.144502e+01  -6.912202e+01
   8.276908e+01   2.032406e+01
   7.471581e+01   1.095675e+02
   1.089278e+00   1.115495e+02
  -8.292641e+01   2.253255e+01
  -9.960509e+01  -7.498634e+01
  -3.055244e+01  -1.008180e+02
   6.364285e+01  -5.269678e+01
   9.361842e+01   1.199629e+01
   3.762216e+01   4.730984e+01
  -3.149959e+01   4.760278e+01
  -3.012374e+01   2.667253e+01
   3.300628e+01   1.756038e+00
   6.839074e+01  -4.609768e+00
   1.588071e+01   2.461519e+01
  -7.840520e+01   6.474506e+01
  -1.156040e+02   5.830030e+01
  -6.280840e+01  -1.063840e+01
   1.547819e+01  -8.067240e+01
   5.265826e+01  -7.708532e+01
   3.515016e+01  -5.548521e+00
   2.828812e-01   5.426680e+01
  -2.466086e+01   4.074917e+01
  -3.496364e+01  -1.916340e+01
  -2.547438e+01  -5.328327e+01
   2.983041e+00  -3.149798e+01
   3.216153e+01   9.528708e+00
   3.897073e+01   2.225985e+01
   2.026214e+01   2.037615e+00
  -9.136252e-01  -1.252805e+01
  -7.728906e+00   4.304967e+00
  -8.509638e+00   3.603611e+01
  -1.782574e+01   4.167695e+01
  -3.203999e+01   5.446390e+00
  -2.825999e+01  -4.498076e+01
   4.334065e+00  -5.878707e+01
   4.466554e+01  -1.907337e+01
   5.479374e+01   3.900191e+01
   1.344437e+01   6.157480e+01
  -5.344535e+01   3.275656e+01
  -8.599843e+01  -1.570901e+01
  -4.689635e+01  -4.345930e+01
   2.847351e+01  -3.939248e+01
   6.264876e+01  -2.004468e+01
   2.276440e+01  -4.100697e+00
  -3.697372e+01  -2.613382e+00
  -3.657635e+01  -1.752912e+01
   3.208241e+01  -3.128214e+01
   9.098017e+01  -1.698081e+01
