
 $NMID
 id='ANONYMOUS ', fmtdat='(2E16.6)'
 volume=1.0
 tramp=1.0
 $END
  -4.102485e+03  -1.167618e+01
  -2.458183e+03  -2.621202e+03
   7.647584e+02  -2.741806e+03
   2.166590e+03  -8.188615e+02
   9.835208e+02   7.423409e+02
  -6.654943e+02   6.476180e+02
  -9.310460e+02  -4.259523e+02
  -2.088463e+01  -1.096210e+03
   8.380503e+02  -7.919483e+02
   9.529552e+02   1.040298e+02
   4.457210e+02   8.802254e+02
  -2.865115e+02   9.000101e+02
  -6.647004e+02   1.139536e+02
  -3.887428e+02  -7.368989e+02
   2.917200e+02  -7.603690e+02
   6.226756e+02   2.057832e+01
   2.604230e+02   6.971499e+02
  -3.503952e+02   6.249102e+02
  -6.008927e+02   5.996907e+01
  -3.739634e+02  -3.723264e+02
  -5.076403e+00  -4.345652e+02
   2.479825e+02  -2.578376e+02
   2.233569e+02  -2.412660e+01
  -9.366196e+01   8.908030e+01
  -3.973336e+02  -9.549929e+01
  -2.049363e+02  -4.205957e+02
   4.473559e+02  -4.174377e+02
   8.648047e+02   7.343791e+01
   4.476866e+02   5.615447e+02
  -3.837384e+02   5.133365e+02
  -7.555021e+02  -1.069683e+01
  -3.668335e+02  -4.790507e+02
   2.670117e+02  -5.226942e+02
   5.584824e+02  -2.063069e+02
   4.199587e+02   2.233406e+02
   7.034530e+01   4.878460e+02
  -2.118555e+02   2.961694e+02
  -1.958512e+02  -2.186905e+02
   1.547470e+02  -4.613518e+02
   4.617982e+02  -3.993046e+00
   2.711552e+02   6.778972e+02
  -3.071056e+02   7.199363e+02
  -6.072541e+02   1.369581e+01
  -2.637630e+02  -5.598069e+02
   2.892579e+02  -3.368588e+02
   3.868601e+02   3.050953e+02
  -6.339162e+01   5.400168e+02
  -5.401834e+02   1.446660e+02
  -5.791892e+02  -3.898154e+02
  -1.560037e+02  -5.812532e+02
   3.805093e+02  -3.495165e+02
   6.261886e+02   7.696830e+01
   3.704425e+02   3.932605e+02
  -1.630416e+02   3.763513e+02
  -4.517067e+02   5.178216e+01
  -2.429099e+02  -2.095779e+02
   1.355969e+02  -1.192974e+02
   1.606818e+02   1.607422e+02
  -1.607221e+02   2.004369e+02
  -3.546682e+02  -6.740125e+01
  -1.426028e+02  -3.045661e+02
   2.082226e+02  -2.541011e+02
   3.240581e+02  -5.976029e+01
   1.786275e+02   9.194789e+01
  -4.207155e+01   2.106591e+02
  -2.128047e+02   3.022846e+02
  -3.250626e+02   2.020445e+02
  -2.872016e+02  -1.375975e+02
  -7.569500e+01  -4.335120e+02
   1.270641e+02  -3.787529e+02
   1.375721e+02  -1.004515e+02
   3.167288e+01   2.859109e+01
   2.987499e+01  -7.454682e+01
   1.744998e+02  -1.304626e+02
   2.666832e+02   4.100876e+01
   1.629673e+02   2.605488e+02
  -6.552698e+01   2.545775e+02
  -2.255653e+02   1.699362e+01
  -2.014060e+02  -2.326540e+02
   2.395116e+00  -2.893662e+02
   2.594301e+02  -1.201341e+02
   3.598384e+02   1.554767e+02
   1.888243e+02   3.458571e+02
  -9.649160e+01   3.098710e+02
  -2.320350e+02   1.212465e+02
  -1.522570e+02  -4.485655e+00
  -9.440463e+01   2.228462e+01
  -2.154886e+02   5.737035e+01
  -3.786723e+02  -5.236294e+01
  -3.226145e+02  -2.694877e+02
  -9.635449e+00  -4.304082e+02
   3.402589e+02  -4.058380e+02
   4.708904e+02  -2.037586e+02
   3.302571e+02   8.559017e+01
   6.253917e+01   2.858428e+02
  -1.282899e+02   2.461867e+02
  -9.121039e+01   2.505362e+01
   1.012148e+02  -1.158530e+02
   1.980520e+02   1.280620e+00
   5.428923e+01   1.976609e+02
  -1.628244e+02   1.757487e+02
  -1.839504e+02  -6.125459e+01
   1.122475e+01  -1.986106e+02
   1.896579e+02  -3.817508e+01
   1.580849e+02   2.404501e+02
  -3.350919e+01   3.401219e+02
  -2.250458e+02   1.847455e+02
  -3.116291e+02  -6.372561e+01
  -2.612839e+02  -2.320577e+02
  -8.680360e+01  -2.558434e+02
   1.109995e+02  -1.520169e+02
   1.727825e+02  -1.400236e+01
   5.893691e+01   3.776734e+01
  -7.073486e+01  -3.230433e+01
  -3.484853e+01  -1.207463e+02
   1.152832e+02  -1.000606e+02
   1.748540e+02   9.140634e+00
   5.930224e+01   7.343469e+01
  -7.713677e+01   2.060608e+01
  -5.720737e+01  -6.829447e+01
   1.110067e+02  -8.660586e+01
   2.664879e+02  -4.817079e+00
   2.585336e+02   1.276664e+02
   6.561124e+01   2.450882e+02
  -1.713517e+02   2.543568e+02
  -2.712204e+02   1.223808e+02
  -1.683404e+02  -4.894207e+01
   2.047517e+01  -1.097706e+02
   9.133671e+01  -9.859519e+00
  -2.836721e+01   1.012257e+02
  -1.883453e+02   6.058555e+01
  -2.078104e+02  -9.905625e+01
  -6.820585e+01  -2.066679e+02
   9.272776e+01  -1.581262e+02
   1.435517e+02  -3.133865e+01
   7.149224e+01   4.266753e+01
  -2.405249e+01   7.897839e+00
  -3.543883e+01  -7.734626e+01
   6.678960e+01  -1.079983e+02
   1.887296e+02  -2.896297e+01
   1.864503e+02   1.182844e+02
   2.432902e+01   2.130360e+02
  -1.588957e+02   1.625622e+02
  -1.930236e+02   6.704328e+00
  -6.738701e+01  -1.140822e+02
   6.381042e+01  -1.097818e+02
   8.370136e+01  -2.925307e+01
   2.141974e+01   2.535823e+01
  -1.789363e+01   1.768985e+01
   8.465332e+00  -6.351301e+00
   6.625666e+01   9.647209e+00
   8.319348e+01   7.786900e+01
   1.587842e+01   1.490923e+02
  -1.184114e+02   1.457615e+02
  -2.239857e+02   2.942809e+01
  -1.992268e+02  -1.401511e+02
  -4.163583e+01  -2.313132e+02
   1.074004e+02  -1.656264e+02
   1.341466e+02  -2.557016e+01
   6.666533e+01   5.686212e+01
   2.360449e+01   3.575328e+01
   4.698927e+01  -1.231125e+01
   7.434935e+01  -6.684129e+00
   3.820648e+01   4.613144e+01
  -3.886636e+01   8.029421e+01
  -9.210390e+01   5.018217e+01
  -7.507718e+01  -3.159263e+01
   1.262595e+01  -9.809541e+01
   1.287289e+02  -7.761701e+01
   1.805318e+02   4.750504e+01
   9.502154e+01   1.882641e+02
  -9.843034e+01   2.144604e+02
  -2.509783e+02   8.724212e+01
  -2.448975e+02  -8.456996e+01
  -1.053175e+02  -1.690726e+02
   3.823542e+01  -1.399609e+02
   9.219566e+01  -7.914517e+01
   7.697952e+01  -6.546782e+01
   6.509077e+01  -8.317705e+01
   8.857009e+01  -6.706812e+01
   1.216837e+02   2.278519e+01
   1.088760e+02   1.457901e+02
   2.694455e+01   2.136522e+02
  -9.518901e+01   1.649242e+02
  -1.688597e+02   2.030104e+01
  -1.322520e+02  -1.155460e+02
  -2.027040e+01  -1.527878e+02
   6.226043e+01  -9.119017e+01
   5.795200e+01  -3.516427e+00
   7.554810e+00   3.987203e+01
  -7.835690e+00   3.333931e+01
   3.380116e+01   1.704885e+01
   7.382936e+01   2.179336e+01
   4.069174e+01   3.713648e+01
  -5.997595e+01   3.481096e+01
  -1.473694e+02   3.934170e+00
  -1.347029e+02  -4.757745e+01
  -1.738774e+01  -8.359184e+01
   1.091102e+02  -6.974867e+01
   1.368839e+02  -1.387701e+01
   4.782310e+01   3.808774e+01
  -5.643566e+01   3.454902e+01
  -7.134321e+01  -1.907111e+01
  -6.417801e+00  -6.555520e+01
   5.401372e+01  -5.303467e+01
   5.994712e+01   4.886550e+00
   4.068195e+01   5.008433e+01
   3.972393e+01   4.003453e+01
   5.560859e+01   1.284078e+00
   6.005764e+01   1.214748e+00
   3.070687e+01   6.192756e+01
  -3.124929e+01   1.334475e+02
  -1.080531e+02   1.303154e+02
  -1.523080e+02   3.049505e+01
  -1.158966e+02  -8.493583e+01
  -6.397616e+00  -1.187642e+02
   8.268907e+01  -5.666743e+01
   5.808180e+01   1.575741e+01
  -5.681485e+01   2.057362e+01
  -1.325712e+02  -4.046369e+01
  -7.512873e+01  -1.022176e+02
   7.558721e+01  -1.063444e+02
   1.825121e+02  -5.028293e+01
   1.567880e+02   3.021635e+01
   3.635364e+01   8.067133e+01
  -5.738456e+01   6.685191e+01
  -4.725613e+01   6.785980e+00
   3.775512e+01  -2.551309e+01
   8.674318e+01   2.348383e+01
   3.045509e+01   1.161957e+02
  -9.094589e+01   1.480569e+02
  -1.627288e+02   5.407069e+01
  -1.219669e+02  -1.018436e+02
  -6.311392e+00  -1.889226e+02
   8.367213e+01  -1.311102e+02
   9.795414e+01   1.115860e+01
   5.508801e+01   1.111942e+02
  -1.565004e+00   9.689903e+01
  -4.096524e+01   1.757244e+01
  -4.725008e+01  -2.867157e+01
  -2.401830e+01  -6.994092e+00
  -4.161406e+00   2.074299e+01
  -2.039132e+01  -1.390082e+01
  -5.148184e+01  -8.363321e+01
  -3.804336e+01  -1.045279e+02
   4.599713e+01  -4.201024e+01
   1.308475e+02   3.973061e+01
   1.205316e+02   6.943855e+01
   1.530484e+01   4.762066e+01
  -8.317047e+01   2.159619e+01
  -8.301419e+01   8.247980e+00
  -9.745878e+00  -6.079530e+00
   3.597140e+01  -2.149948e+01
   1.400083e+01  -1.782751e+01
  -2.105702e+01   2.227439e+00
   5.696359e+00   8.535590e+00
   6.940573e+01   4.153519e+00
   8.717575e+01   2.340247e+01
   7.653104e+00   7.790366e+01
  -1.144018e+02   1.097901e+02
  -1.779146e+02   5.360971e+01
  -1.328988e+02  -6.891388e+01
  -2.188580e+01  -1.550138e+02
   7.757549e+01  -1.392077e+02
   1.091753e+02  -5.195584e+01
   7.553117e+01   2.267549e+01
   2.308073e+01   3.320964e+01
  -3.218672e+00   7.040042e+00
   9.724268e+00   3.452535e+00
   3.168424e+01   4.404830e+01
   2.231501e+01   8.545986e+01
  -2.724124e+01   6.903314e+01
  -7.902183e+01  -1.879381e+01
  -7.468081e+01  -1.040883e+02
  -2.758092e+00  -1.053750e+02
   7.942990e+01  -1.988241e+01
   9.553216e+01   7.327120e+01
   2.739676e+01   9.845774e+01
  -6.480734e+01   5.040394e+01
  -9.239551e+01  -1.331037e+01
  -3.565132e+01  -4.798025e+01
   3.278928e+01  -4.687302e+01
   2.957201e+01  -2.469032e+01
  -3.294059e+01  -2.900540e-01
  -6.639060e+01   3.826697e+00
  -1.319169e+01  -2.509770e+01
   7.817350e+01  -6.263696e+01
   1.125723e+02  -5.352323e+01
   6.017446e+01   1.403707e+01
  -1.658836e+01   8.027795e+01
  -5.266291e+01   7.368151e+01
  -3.484006e+01   2.541117e+00
   1.652818e-02  -5.376583e+01
   2.557889e+01  -3.951961e+01
   3.444143e+01   1.957377e+01
   2.285799e+01   5.307840e+01
  -4.881215e+00   3.037936e+01
  -3.190687e+01  -1.026562e+01
  -3.598938e+01  -2.144515e+01
  -1.820184e+01  -8.474496e-01
   9.747867e-01   1.402428e+01
   6.235251e+00  -2.967246e+00
   6.884002e+00  -3.406684e+01
   1.766759e+01  -4.187007e+01
   3.182225e+01  -6.238465e+00
   2.763531e+01   4.429916e+01
  -4.709994e+00   5.757171e+01
  -4.337632e+01   1.778070e+01
  -5.189072e+01  -3.993135e+01
  -1.223093e+01  -6.128828e+01
   5.266442e+01  -3.135195e+01
   8.317544e+01   1.590364e+01
   4.568733e+01   4.175615e+01
  -2.665593e+01   3.745132e+01
  -6.023592e+01   1.950336e+01
  -2.162579e+01   4.362689e+00
   3.584624e+01   3.848800e+00
   3.532757e+01   1.726741e+01
  -3.062808e+01   3.176284e+01
  -8.899612e+01   1.907436e+01
