
 $NMID
 id='ANONYMOUS ', fmtdat='(2E16.6)'
 volume=1.0
 tramp=1.0
 $END
   3.934824e+03   8.003811e+01
   2.282358e+03   2.548746e+03
  -7.749272e+02   2.570167e+03
  -2.073543e+03   7.236459e+02
  -8.936956e+02  -7.409151e+02
   6.818661e+02  -5.778253e+02
   8.879200e+02   4.591695e+02
  -2.905743e+01   1.052077e+03
  -8.213507e+02   7.153186e+02
  -8.848691e+02  -1.345761e+02
  -3.873632e+02  -8.301592e+02
   2.834088e+02  -8.373352e+02
   6.217936e+02  -8.197769e+01
   3.488304e+02   7.013268e+02
  -2.817679e+02   7.039736e+02
  -5.784736e+02  -3.267916e+01
  -2.298049e+02  -6.542512e+02
   3.304479e+02  -5.745837e+02
   5.527041e+02  -5.412729e+01
   3.492041e+02   3.514248e+02
   2.964459e+00   4.069536e+02
  -2.341853e+02   2.356636e+02
  -2.077315e+02   1.448172e+01
   9.367818e+01  -8.891464e+01
   3.767741e+02   9.358740e+01
   1.842280e+02   4.034179e+02
  -4.260716e+02   3.894545e+02
  -8.076984e+02  -7.046391e+01
  -4.066150e+02  -5.375095e+02
   3.726110e+02  -4.769217e+02
   7.100716e+02   1.993847e+01
   3.351118e+02   4.533363e+02
  -2.587081e+02   4.858469e+02
  -5.244789e+02   1.859835e+02
  -3.865460e+02  -2.159423e+02
  -6.127436e+01  -4.613144e+02
   2.048283e+02  -2.693865e+02
   1.831552e+02   2.144412e+02
  -1.491175e+02   4.358439e+02
  -4.361929e+02  -4.215100e+00
  -2.503857e+02  -6.462935e+02
   2.938525e+02  -6.728867e+02
   5.757225e+02   5.008731e-01
   2.455715e+02   5.371202e+02
  -2.827742e+02   3.119148e+02
  -3.662046e+02  -2.977110e+02
   6.236370e+01  -5.114003e+02
   5.120875e+02  -1.287021e+02
   5.437430e+02   3.718682e+02
   1.421789e+02   5.418714e+02
  -3.582748e+02   3.190373e+02
  -5.800742e+02  -7.564900e+01
  -3.373125e+02  -3.655096e+02
   1.562348e+02  -3.432382e+02
   4.156803e+02  -4.030796e+01
   2.174186e+02   1.952022e+02
  -1.300349e+02   1.060672e+02
  -1.462038e+02  -1.544323e+02
   1.583208e+02  -1.816869e+02
   3.304567e+02   6.949217e+01
   1.261841e+02   2.843072e+02
  -1.974167e+02   2.361490e+02
  -3.004280e+02   5.638375e+01
  -1.616205e+02  -8.317886e+01
   3.735138e+01  -1.920647e+02
   1.932786e+02  -2.834934e+02
   3.047844e+02  -1.906342e+02
   2.666744e+02   1.261128e+02
   6.756492e+01   4.054414e+02
  -1.223809e+02   3.475850e+02
  -1.271938e+02   8.450296e+01
  -2.138321e+01  -2.950917e+01
  -2.504076e+01   7.475668e+01
  -1.648754e+02   1.261809e+02
  -2.510618e+02  -3.977590e+01
  -1.505983e+02  -2.468573e+02
   6.325871e+01  -2.402995e+02
   2.118735e+02  -1.489939e+01
   1.888464e+02   2.206169e+02
  -3.080902e+00   2.727469e+02
  -2.444044e+02   1.102923e+02
  -3.350658e+02  -1.498554e+02
  -1.746320e+02  -3.235269e+02
   9.214659e+01  -2.855404e+02
   2.163268e+02  -1.088427e+02
   1.375574e+02   5.783554e+00
   8.305158e+01  -2.028587e+01
   1.968357e+02  -5.517615e+01
   3.508782e+02   4.532760e+01
   2.986456e+02   2.487285e+02
   1.090818e+01   3.953160e+02
  -3.126738e+02   3.779957e+02
  -4.373869e+02   1.926771e+02
  -3.094381e+02  -8.061491e+01
  -5.685860e+01  -2.700770e+02
   1.248511e+02  -2.300940e+02
   8.678121e+01  -2.110342e+01
  -9.749081e+01   1.111010e+02
  -1.874654e+02  -2.219281e+00
  -4.889859e+01  -1.859907e+02
   1.571986e+02  -1.627931e+02
   1.735662e+02   6.249652e+01
  -1.472822e+01   1.896693e+02
  -1.814391e+02   3.383449e+01
  -1.474789e+02  -2.272349e+02
   3.279328e+01  -3.170934e+02
   2.087266e+02  -1.681868e+02
   2.865821e+02   6.099573e+01
   2.436024e+02   2.156437e+02
   8.104555e+01   2.386403e+02
  -1.047924e+02   1.421323e+02
  -1.629420e+02   1.320874e+01
  -5.612838e+01  -3.592431e+01
   6.574266e+01   3.016521e+01
   3.267175e+01   1.135798e+02
  -1.093925e+02   9.362256e+01
  -1.660756e+02  -1.065732e+01
  -5.530451e+01  -7.143457e+01
   7.328018e+01  -2.012030e+01
   5.526170e+01   6.358808e+01
  -1.016241e+02   8.165802e+01
  -2.480542e+02   4.256379e+00
  -2.410240e+02  -1.178562e+02
  -6.136135e+01  -2.290706e+02
   1.618705e+02  -2.382347e+02
   2.548217e+02  -1.154356e+02
   1.577632e+02   4.608644e+01
  -2.054355e+01   1.034851e+02
  -8.668342e+01   9.227510e+00
   2.739130e+01  -9.589332e+01
   1.789958e+02  -5.746967e+01
   1.950518e+02   9.364985e+01
   6.278351e+01   1.926564e+02
  -8.651272e+01   1.469215e+02
  -1.335887e+02   2.939557e+01
  -6.752337e+01  -3.926726e+01
   2.156720e+01  -7.383342e+00
   3.352875e+01   7.196889e+01
  -6.190545e+01   1.010336e+02
  -1.762534e+02   2.653990e+01
  -1.742095e+02  -1.114744e+02
  -2.218425e+01  -1.996679e+02
   1.495204e+02  -1.512459e+02
   1.799834e+02  -4.466301e+00
   6.125692e+01   1.072246e+02
  -6.081894e+01   1.023825e+02
  -7.827533e+01   2.715772e+01
  -1.957020e+01  -2.453703e+01
   1.762753e+01  -1.696973e+01
  -6.338625e+00   5.975812e+00
  -6.156405e+01  -7.837878e+00
  -7.858344e+01  -7.156071e+01
  -1.707804e+01  -1.385400e+02
   1.088505e+02  -1.363219e+02
   2.086994e+02  -2.834134e+01
   1.848084e+02   1.290356e+02
   3.852932e+01   2.147680e+02
  -9.928888e+01   1.532242e+02
  -1.232649e+02   2.378875e+01
  -6.049698e+01  -5.199018e+01
  -2.144697e+01  -3.273916e+01
  -4.335483e+01   1.161013e+01
  -6.876960e+01   6.830422e+00
  -3.509037e+01  -4.217925e+01
   3.656290e+01  -7.440459e+01
   8.549944e+01  -4.754985e+01
   6.973499e+01   2.858064e+01
  -1.119292e+01   9.098414e+01
  -1.188921e+02   7.422219e+01
  -1.688628e+02  -4.197659e+01
  -9.065945e+01  -1.751482e+02
   8.954280e+01  -2.017564e+02
   2.333296e+02  -8.351540e+01
   2.284882e+02   7.761721e+01
   9.774856e+01   1.579842e+02
  -3.704345e+01   1.302574e+02
  -8.761092e+01   7.290659e+01
  -7.175692e+01   5.992484e+01
  -6.040176e+01   7.711043e+01
  -8.262913e+01   6.163583e+01
  -1.127610e+02  -2.189791e+01
  -1.019688e+02  -1.356594e+02
  -2.527308e+01  -1.988065e+02
   8.854401e+01  -1.541169e+02
   1.581974e+02  -1.839595e+01
   1.247821e+02   1.088166e+02
   1.998988e+01   1.437505e+02
  -5.789601e+01   8.623774e+01
  -5.400033e+01   4.136925e+00
  -7.579046e+00  -3.704784e+01
   7.029132e+00  -3.188496e+01
  -3.119007e+01  -1.635959e+01
  -6.848055e+01  -2.029438e+01
  -3.756997e+01  -3.439965e+01
   5.666328e+01  -3.284322e+01
   1.379927e+02  -2.964125e+00
   1.251041e+02   4.484715e+01
   1.519935e+01   7.761028e+01
  -1.014109e+02   6.444376e+01
  -1.271367e+02   1.260567e+01
  -4.465106e+01  -3.569282e+01
   5.196813e+01  -3.145585e+01
   6.607189e+01   1.774095e+01
   5.415430e+00   5.959639e+01
  -5.034067e+01   4.790448e+01
  -5.496416e+01  -4.382841e+00
  -3.740004e+01  -4.560417e+01
  -3.833943e+01  -3.715803e+01
  -5.285741e+01  -2.334069e+00
  -5.623984e+01  -2.198240e+00
  -2.750129e+01  -5.781481e+01
   3.040047e+01  -1.237160e+02
   1.010241e+02  -1.208195e+02
   1.421359e+02  -2.840936e+01
   1.079977e+02   7.929584e+01
   6.070392e+00   1.109064e+02
  -7.645240e+01   5.330243e+01
  -5.376879e+01  -1.425637e+01
   5.246556e+01  -1.826414e+01
   1.232030e+02   3.749080e+01
   7.016967e+01   9.489938e+01
  -7.032735e+01   1.001877e+02
  -1.724597e+02   4.813691e+01
  -1.480402e+02  -2.855536e+01
  -3.407998e+01  -7.635521e+01
   5.466322e+01  -6.333570e+01
   4.530783e+01  -6.711933e+00
  -3.502767e+01   2.362579e+01
  -8.086408e+01  -2.201451e+01
  -2.702177e+01  -1.079451e+02
   8.671519e+01  -1.374291e+02
   1.514114e+02  -4.885503e+01
   1.125069e+02   9.537184e+01
   4.793466e+00   1.771879e+02
  -7.946113e+01   1.233254e+02
  -9.273921e+01  -9.218514e+00
  -5.230741e+01  -1.051081e+02
   1.285986e+00  -9.333756e+01
   3.905444e+01  -1.756585e+01
   4.504663e+01   2.831786e+01
   2.222068e+01   7.889939e+00
   2.771766e+00  -1.953913e+01
   1.781713e+01   1.167404e+01
   4.789579e+01   7.784079e+01
   3.528432e+01   9.781598e+01
  -4.237242e+01   3.934336e+01
  -1.219701e+02  -3.789432e+01
  -1.129264e+02  -6.485184e+01
  -1.511951e+01  -4.401629e+01
   7.757604e+01  -1.987595e+01
   7.821076e+01  -7.310552e+00
   9.640207e+00   5.384462e+00
  -3.393546e+01   1.959235e+01
  -1.295900e+01   1.661514e+01
   1.980970e+01  -2.210572e+00
  -5.095225e+00  -8.406705e+00
  -6.348712e+01  -4.347166e+00
  -7.985113e+01  -2.130682e+01
  -5.111578e+00  -7.082409e+01
   1.074654e+02  -1.006342e+02
   1.651694e+02  -4.902960e+01
   1.239328e+02   6.329621e+01
   2.072703e+01   1.443499e+02
  -7.163159e+01   1.305755e+02
  -1.023949e+02   4.878674e+01
  -7.099840e+01  -2.108233e+01
  -2.116813e+01  -3.087197e+01
   3.517305e+00  -6.561810e+00
  -8.591073e+00  -2.762160e+00
  -2.946433e+01  -4.057048e+01
  -2.105239e+01  -7.903129e+01
   2.484247e+01  -6.366007e+01
   7.327385e+01   1.761524e+01
   6.867866e+01   9.703698e+01
   2.170617e+00   9.767139e+01
  -7.385283e+01   1.706072e+01
  -8.819294e+01  -6.952567e+01
  -2.457836e+01  -9.151144e+01
   6.061334e+01  -4.616913e+01
   8.580429e+01   1.303290e+01
   3.301533e+01   4.423587e+01
  -2.996562e+01   4.299800e+01
  -2.708245e+01   2.331082e+01
   3.052322e+01   1.454346e+00
   6.102579e+01  -2.972601e+00
   1.133600e+01   2.236920e+01
  -7.240174e+01   5.743257e+01
  -1.044698e+02   5.053806e+01
  -5.577010e+01  -1.234963e+01
   1.584065e+01  -7.480718e+01
   4.946587e+01  -6.931467e+01
   3.226278e+01  -2.774264e+00
  -2.838955e-01   5.030196e+01
  -2.326194e+01   3.733223e+01
  -3.174715e+01  -1.755479e+01
  -2.184443e+01  -4.926897e+01
   4.070546e+00  -2.853055e+01
   2.950123e+01   9.423891e+00
   3.380925e+01   1.979924e+01
   1.765114e+01   6.092914e-01
  -6.846714e-01  -1.214242e+01
  -6.372833e+00   3.656325e+00
  -7.284091e+00   3.187191e+01
  -1.705091e+01   3.779938e+01
  -2.898757e+01   4.199563e+00
  -2.408962e+01  -4.192143e+01
   5.435448e+00  -5.277003e+01
   3.994063e+01  -1.584660e+01
   4.695516e+01   3.687874e+01
   1.095612e+01   5.620052e+01
  -4.872839e+01   2.913579e+01
  -7.725002e+01  -1.425541e+01
  -4.290955e+01  -3.838165e+01
   2.409896e+01  -3.512060e+01
   5.592628e+01  -1.867930e+01
   2.030710e+01  -4.972616e+00
  -3.302172e+01  -4.604994e+00
  -3.222348e+01  -1.657011e+01
   2.963168e+01  -2.890754e+01
   8.373581e+01  -1.616491e+01
