
 $NMID
 id='ANONYMOUS ', fmtdat='(2E16.6)'
 volume=1.0
 tramp=1.0
 $END
  -3.379789e+03  -9.441933e+01
  -1.939963e+03  -2.211602e+03
   6.850918e+02  -2.231848e+03
   1.777775e+03  -6.167966e+02
   7.565934e+02   6.164281e+02
  -5.805090e+02   4.694762e+02
  -7.425464e+02  -3.911711e+02
   3.597375e+01  -8.783492e+02
   6.788222e+02  -5.833498e+02
   7.259818e+02   1.216854e+02
   3.069417e+02   6.872123e+02
  -2.224629e+02   6.832214e+02
  -5.041533e+02   5.122655e+01
  -2.781251e+02  -5.892926e+02
   2.323867e+02  -5.822659e+02
   4.735491e+02   2.898695e+01
   1.825980e+02   5.412835e+02
  -2.810107e+02   4.688310e+02
  -4.556356e+02   4.608485e+01
  -2.847626e+02  -2.821017e+02
  -1.234335e+00  -3.317865e+02
   1.809264e+02  -1.998482e+02
   1.629050e+02  -2.783432e+01
  -8.293151e+01   5.470739e+01
  -3.035109e+02  -9.117226e+01
  -1.392210e+02  -3.377254e+02
   3.696170e+02  -3.085500e+02
   6.748787e+02   7.285982e+01
   3.410630e+02   4.507533e+02
  -3.122636e+02   3.840529e+02
  -5.921041e+02  -2.526510e+01
  -2.756880e+02  -3.732178e+02
   2.179251e+02  -3.939908e+02
   4.350576e+02  -1.500075e+02
   3.187164e+02   1.767973e+02
   5.675393e+01   3.792774e+02
  -1.651252e+02   2.281148e+02
  -1.499023e+02  -1.718043e+02
   1.189184e+02  -3.623796e+02
   3.540234e+02   2.584254e+00
   2.043085e+02   5.377272e+02
  -2.367726e+02   5.614326e+02
  -4.744532e+02   2.569812e-01
  -2.005707e+02  -4.454405e+02
   2.371665e+02  -2.535762e+02
   3.017757e+02   2.581050e+02
  -5.475692e+01   4.245597e+02
  -4.282279e+02   9.576748e+01
  -4.549271e+02  -3.135324e+02
  -1.165203e+02  -4.444353e+02
   3.012885e+02  -2.550844e+02
   4.798085e+02   7.147681e+01
   2.756292e+02   3.051231e+02
  -1.369750e+02   2.809545e+02
  -3.521214e+02   3.015497e+01
  -1.867949e+02  -1.653564e+02
   1.019245e+02  -8.657202e+01
   1.152326e+02   1.301538e+02
  -1.372608e+02   1.480153e+02
  -2.723313e+02  -6.799079e+01
  -9.960882e+01  -2.419102e+02
   1.735939e+02  -1.903440e+02
   2.509738e+02  -4.046163e+01
   1.309826e+02   6.775429e+01
  -3.855958e+01   1.558106e+02
  -1.673404e+02   2.340297e+02
  -2.553929e+02   1.608650e+02
  -2.150847e+02  -1.038676e+02
  -5.066897e+01  -3.438182e+02
   1.054059e+02  -2.951862e+02
   1.071653e+02  -7.334254e+01
   1.858084e+01   2.360812e+01
   2.463602e+01  -5.932354e+01
   1.395152e+02  -9.896092e+01
   2.078140e+02   3.750545e+01
   1.220365e+02   2.066935e+02
  -5.327754e+01   1.964646e+02
  -1.735609e+02   6.709107e+00
  -1.543867e+02  -1.854624e+02
   5.784667e+00  -2.244998e+02
   2.029535e+02  -8.759004e+01
   2.776259e+02   1.272254e+02
   1.451721e+02   2.698373e+02
  -7.441442e+01   2.369155e+02
  -1.815469e+02   9.282641e+01
  -1.163940e+02  -6.183236e+00
  -7.029552e+01   1.110320e+01
  -1.644990e+02   3.826327e+01
  -2.897012e+02  -4.139569e+01
  -2.445530e+02  -2.053853e+02
  -2.330867e+00  -3.226809e+02
   2.642160e+02  -3.107116e+02
   3.637451e+02  -1.611137e+02
   2.540156e+02   6.601043e+01
   4.310388e+01   2.208243e+02
  -1.036582e+02   1.900976e+02
  -6.974289e+01   1.904383e+01
   8.416091e+01  -9.060808e+01
   1.596973e+02   4.192786e+00
   4.205270e+01   1.569679e+02
  -1.287896e+02   1.383505e+02
  -1.444555e+02  -5.178774e+01
   1.280469e+01  -1.593373e+02
   1.505186e+02  -2.615649e+01
   1.219580e+02   1.935979e+02
  -3.033943e+01   2.675687e+02
  -1.777088e+02   1.371572e+02
  -2.417099e+02  -5.665072e+01
  -2.031660e+02  -1.823699e+02
  -6.708435e+01  -1.971663e+02
   8.747263e+01  -1.180031e+02
   1.356766e+02  -1.178675e+01
   4.689186e+01   2.757624e+01
  -5.354936e+01  -2.676980e+01
  -2.605412e+01  -9.346365e+01
   9.317951e+01  -7.652991e+01
   1.394739e+02   9.381708e+00
   4.589650e+01   5.840821e+01
  -6.083414e+01   1.487869e+01
  -4.409781e+01  -5.306772e+01
   8.751881e+01  -6.364560e+01
   2.080792e+02   5.298745e+00
   1.985651e+02   1.012946e+02
   4.772458e+01   1.882580e+02
  -1.391509e+02   1.942285e+02
  -2.130811e+02   9.696809e+01
  -1.293138e+02  -3.526928e+01
   1.905012e+01  -8.441972e+01
   7.203774e+01  -8.549236e+00
  -2.387224e+01   7.858688e+01
  -1.491977e+02   4.866407e+01
  -1.611176e+02  -7.589249e+01
  -5.204081e+01  -1.579432e+02
   7.090282e+01  -1.209307e+02
   1.083829e+02  -2.511691e+01
   5.591444e+01   3.036118e+01
  -1.645356e+01   3.347607e+00
  -2.522202e+01  -5.988147e+01
   5.336204e+01  -8.024467e+01
   1.465352e+02  -1.780317e+01
   1.436713e+02   9.496867e+01
   1.583205e+01   1.657706e+02
  -1.263987e+02   1.247790e+02
  -1.509670e+02   4.633609e+00
  -5.024036e+01  -8.751805e+01
   5.074339e+01  -8.409889e+01
   6.404266e+01  -2.359719e+01
   1.586652e+01   1.923320e+01
  -1.415462e+01   1.346283e+01
   5.768810e+00  -3.491584e+00
   5.035065e+01   7.793915e+00
   6.421214e+01   5.975721e+01
   1.333039e+01   1.142341e+02
  -8.988199e+01   1.111724e+02
  -1.719579e+02   2.209781e+01
  -1.508954e+02  -1.068965e+02
  -3.059783e+01  -1.774010e+02
   8.194312e+01  -1.256842e+02
   9.980095e+01  -1.926596e+01
   4.875059e+01   4.209601e+01
   1.909614e+01   2.629952e+01
   3.961894e+01  -1.001124e+01
   5.964302e+01  -4.871312e+00
   2.841993e+01   3.560386e+01
  -3.264123e+01   6.091967e+01
  -7.161537e+01   3.842800e+01
  -5.648659e+01  -2.432154e+01
   1.187366e+01  -7.460715e+01
   1.002829e+02  -5.877082e+01
   1.405888e+02   3.800144e+01
   7.347358e+01   1.468862e+02
  -7.736009e+01   1.666405e+02
  -1.970491e+02   6.698476e+01
  -1.912432e+02  -6.736006e+01
  -8.031831e+01  -1.314488e+02
   3.269338e+01  -1.061626e+02
   7.452178e+01  -5.963390e+01
   6.159176e+01  -5.150235e+01
   5.140024e+01  -6.542590e+01
   6.948787e+01  -4.976904e+01
   9.221397e+01   2.065263e+01
   8.179785e+01   1.137902e+02
   1.876194e+01   1.650705e+02
  -7.350892e+01   1.260301e+02
  -1.291953e+02   1.380855e+01
  -1.023826e+02  -9.062321e+01
  -1.627272e+01  -1.196061e+02
   4.723983e+01  -7.190522e+01
   4.306730e+01  -3.928811e+00
   5.010177e+00   2.989596e+01
  -5.293797e+00   2.607701e+01
   2.809931e+01   1.505507e+01
   5.818168e+01   1.901259e+01
   3.017160e+01   2.786232e+01
  -4.894883e+01   2.415629e+01
  -1.157684e+02  -6.296373e-01
  -1.047946e+02  -3.736549e+01
  -1.214969e+01  -6.115955e+01
   8.488315e+01  -5.072755e+01
   1.062081e+02  -1.046661e+01
   3.725795e+01   2.754956e+01
  -4.295206e+01   2.436243e+01
  -5.466063e+01  -1.455561e+01
  -3.920040e+00  -4.822983e+01
   4.213071e+01  -3.955738e+01
   4.527360e+01   3.307975e+00
   3.127946e+01   3.759771e+01
   3.305293e+01   3.113578e+01
   4.604430e+01   3.457324e+00
   4.803000e+01   3.699259e+00
   2.167627e+01   4.896964e+01
  -2.753310e+01   1.024907e+02
  -8.649045e+01   9.979495e+01
  -1.186629e+02   2.232409e+01
  -8.785467e+01  -6.623022e+01
  -2.989896e+00  -9.096252e+01
   6.360006e+01  -4.398125e+01
   4.339511e+01   1.071969e+01
  -4.512548e+01   1.242377e+01
  -1.019219e+02  -3.386377e+01
  -5.647595e+01  -7.982631e+01
   6.054643e+01  -8.248434e+01
   1.465947e+02  -3.901943e+01
   1.248717e+02   2.457319e+01
   2.779932e+01   6.325248e+01
  -4.607225e+01   5.282269e+01
  -3.753143e+01   6.277198e+00
   2.923870e+01  -1.853091e+01
   6.659849e+01   1.904056e+01
   2.067484e+01   8.956533e+01
  -7.310334e+01   1.136033e+02
  -1.250845e+02   4.067609e+01
  -9.220014e+01  -7.840248e+01
  -2.683491e+00  -1.480544e+02
   6.605463e+01  -1.044824e+02
   7.655707e+01   6.108420e+00
   4.311142e+01   8.864629e+01
  -1.332652e+00   7.899919e+01
  -3.292731e+01   1.557040e+01
  -3.827017e+01  -2.355935e+01
  -1.936803e+01  -7.553407e+00
  -1.862290e+00   1.510182e+01
  -1.313757e+01  -1.146060e+01
  -3.855036e+01  -6.558385e+01
  -3.015774e+01  -7.981050e+01
   3.449648e+01  -2.898123e+01
   1.012862e+02   3.440432e+01
   9.465149e+01   5.468484e+01
   1.245889e+01   3.452977e+01
  -6.545250e+01   1.446249e+01
  -6.503052e+01   5.970555e+00
  -7.222495e+00  -2.991789e+00
   2.794958e+01  -1.618811e+01
   9.534774e+00  -1.416024e+01
  -1.728613e+01   9.199885e-01
   5.491812e+00   7.689600e+00
   5.486724e+01   6.000097e+00
   6.610749e+01   1.923592e+01
   8.462410e-01   5.856345e+01
  -9.324301e+01   8.193809e+01
  -1.391867e+02   3.875801e+01
  -1.019446e+02  -5.480646e+01
  -1.430337e+01  -1.215261e+02
   6.178680e+01  -1.087670e+02
   8.666136e+01  -4.031818e+01
   5.963466e+01   1.698983e+01
   1.725431e+01   2.526910e+01
  -3.675986e+00   5.593762e+00
   6.053809e+00   3.268263e+00
   2.354311e+01   3.418419e+01
   1.716431e+01   6.528316e+01
  -1.970324e+01   5.093253e+01
  -5.950255e+01  -1.578384e+01
  -5.668554e+01  -8.112431e+01
  -2.582467e+00  -8.066193e+01
   6.042757e+01  -1.340522e+01
   7.261720e+01   5.825031e+01
   1.978066e+01   7.587655e+01
  -5.066952e+01   3.751049e+01
  -7.109535e+01  -1.157607e+01
  -2.684351e+01  -3.673186e+01
   2.551966e+01  -3.548690e+01
   2.256409e+01  -2.030374e+01
  -2.621145e+01  -2.024426e+00
  -5.092537e+01   2.900199e+00
  -8.671087e+00  -1.686981e+01
   6.110639e+01  -4.596476e+01
   8.647444e+01  -4.227981e+01
   4.477672e+01   8.402978e+00
  -1.469137e+01   6.094786e+01
  -4.141848e+01   5.728349e+01
  -2.567225e+01   2.567080e+00
   1.293602e+00  -4.136460e+01
   1.905487e+01  -3.078115e+01
   2.567664e+01   1.430958e+01
   1.818066e+01   4.005547e+01
  -2.469461e+00   2.301986e+01
  -2.392222e+01  -8.020167e+00
  -2.838276e+01  -1.634607e+01
  -1.566384e+01   1.832412e-02
  -5.303761e-01   1.040732e+01
   5.399965e+00  -4.221827e+00
   7.489652e+00  -2.762418e+01
   1.580647e+01  -3.141895e+01
   2.475592e+01  -2.084603e+00
   1.935044e+01   3.643965e+01
  -5.334342e+00   4.429906e+01
  -3.338332e+01   1.246140e+01
  -3.820512e+01  -3.139553e+01
  -8.139961e+00  -4.635678e+01
   4.079275e+01  -2.275969e+01
   6.377889e+01   1.325168e+01
   3.483576e+01   3.189765e+01
  -2.107185e+01   2.745329e+01
  -4.713861e+01   1.442335e+01
  -1.664805e+01   4.512156e+00
   2.833778e+01   4.625394e+00
   2.741783e+01   1.340499e+01
  -2.508019e+01   2.317514e+01
  -7.031408e+01   1.267925e+01
