
 $NMID
 id='ANONYMOUS ', fmtdat='(2E16.6)'
 volume=1.0
 tramp=1.0
 $END
  -3.002373e+03  -1.344215e+02
  -1.733896e+03  -1.875683e+03
   5.539006e+02  -1.936178e+03
   1.516460e+03  -5.607205e+02
   6.666323e+02   4.915534e+02
  -4.625313e+02   3.641474e+02
  -5.893127e+02  -3.310231e+02
   3.408433e+01  -7.245060e+02
   5.501817e+02  -4.894101e+02
   5.867138e+02   7.915991e+01
   2.628330e+02   5.575258e+02
  -1.638212e+02   5.451994e+02
  -4.036606e+02   5.195987e+01
  -2.284217e+02  -4.905236e+02
   1.837262e+02  -4.987925e+02
   3.881717e+02   7.942809e+00
   1.556824e+02   4.356522e+02
  -2.285284e+02   3.838285e+02
  -3.652974e+02   4.922201e+01
  -2.259081e+02  -2.236643e+02
  -5.500646e+00  -2.696706e+02
   1.446903e+02  -1.740172e+02
   1.331184e+02  -3.855581e+01
  -5.945745e+01   3.569175e+01
  -2.470880e+02  -7.316565e+01
  -1.201604e+02  -2.693935e+02
   2.982560e+02  -2.537466e+02
   5.607574e+02   6.128518e+01
   2.948674e+02   3.559894e+02
  -2.479979e+02   3.106966e+02
  -4.830936e+02  -2.042441e+01
  -2.317306e+02  -3.039918e+02
   1.744505e+02  -3.225087e+02
   3.538354e+02  -1.318176e+02
   2.659067e+02   1.290793e+02
   5.992068e+01   2.957385e+02
  -1.168693e+02   2.002488e+02
  -1.155353e+02  -1.206180e+02
   8.720524e+01  -2.830633e+02
   2.780933e+02  -1.966099e+00
   1.612757e+02   4.445460e+02
  -1.926729e+02   4.621261e+02
  -3.773368e+02   8.416101e+00
  -1.539738e+02  -3.566662e+02
   1.817609e+02  -2.039401e+02
   2.381851e+02   2.179211e+02
  -4.301343e+01   3.474414e+02
  -3.445017e+02   7.130714e+01
  -3.743763e+02  -2.615417e+02
  -1.011833e+02  -3.593593e+02
   2.353002e+02  -2.048604e+02
   3.914971e+02   5.968430e+01
   2.346868e+02   2.440924e+02
  -1.035798e+02   2.306803e+02
  -2.937803e+02   2.891836e+01
  -1.635387e+02  -1.374548e+02
   7.578239e+01  -7.262236e+01
   9.469888e+01   9.983128e+01
  -1.083102e+02   1.164754e+02
  -2.246444e+02  -5.995525e+01
  -7.793787e+01  -1.945248e+02
   1.440889e+02  -1.548506e+02
   2.080985e+02  -3.393119e+01
   1.064771e+02   5.517332e+01
  -3.858428e+01   1.276048e+02
  -1.419465e+02   1.933403e+02
  -2.113485e+02   1.347784e+02
  -1.727110e+02  -8.233607e+01
  -4.958000e+01  -2.816970e+02
   7.989217e+01  -2.517824e+02
   8.815776e+01  -7.394426e+01
   2.454472e+01   1.740776e+01
   2.403740e+01  -3.942810e+01
   1.142133e+02  -7.496775e+01
   1.677301e+02   3.220329e+01
   9.988071e+01   1.668904e+02
  -3.947402e+01   1.583768e+02
  -1.362736e+02   7.330966e+00
  -1.213869e+02  -1.503620e+02
   4.803152e+00  -1.824674e+02
   1.617786e+02  -7.144637e+01
   2.247593e+02   1.068604e+02
   1.182628e+02   2.228405e+02
  -6.015270e+01   1.932204e+02
  -1.449631e+02   7.773018e+01
  -9.436156e+01  -3.826163e+00
  -5.898059e+01   5.400836e+00
  -1.351523e+02   2.621469e+01
  -2.347361e+02  -3.744015e+01
  -1.977280e+02  -1.686918e+02
   4.817536e+00  -2.563975e+02
   2.231326e+02  -2.496850e+02
   2.975570e+02  -1.252429e+02
   2.014888e+02   5.478946e+01
   3.046501e+01   1.783447e+02
  -8.573652e+01   1.576782e+02
  -5.388624e+01   2.080362e+01
   6.790369e+01  -7.151976e+01
   1.269921e+02   2.429871e+00
   3.378411e+01   1.251709e+02
  -1.026077e+02   1.114274e+02
  -1.136182e+02  -4.017142e+01
   1.211902e+01  -1.271994e+02
   1.203831e+02  -1.893261e+01
   9.722439e+01   1.616382e+02
  -2.545402e+01   2.193931e+02
  -1.419974e+02   1.116940e+02
  -1.976794e+02  -4.421428e+01
  -1.723579e+02  -1.460260e+02
  -6.283841e+01  -1.586846e+02
   6.764878e+01  -9.882214e+01
   1.119424e+02  -1.570330e+01
   4.216407e+01   1.660632e+01
  -3.974764e+01  -2.323995e+01
  -1.863485e+01  -7.367878e+01
   7.722722e+01  -5.719460e+01
   1.136615e+02   9.529541e+00
   3.785411e+01   4.387505e+01
  -4.711042e+01   9.160744e+00
  -3.167695e+01  -4.030942e+01
   7.295687e+01  -4.327002e+01
   1.682680e+02   1.163300e+01
   1.569685e+02   8.410883e+01
   3.634595e+01   1.522716e+02
  -1.165858e+02   1.570736e+02
  -1.756330e+02   7.910925e+01
  -1.060268e+02  -2.904212e+01
   1.716585e+01  -6.855997e+01
   5.938469e+01  -8.014199e+00
  -1.859886e+01   6.124047e+01
  -1.213990e+02   3.785867e+01
  -1.306369e+02  -6.200105e+01
  -4.302141e+01  -1.267555e+02
   5.696129e+01  -9.781004e+01
   8.798071e+01  -2.089838e+01
   4.684848e+01   2.162721e+01
  -1.291382e+01   1.569662e+00
  -2.019273e+01  -4.755080e+01
   4.379735e+01  -6.351541e+01
   1.208605e+02  -1.329802e+01
   1.191463e+02   7.775393e+01
   1.307523e+01   1.351488e+02
  -1.041699e+02   1.030639e+02
  -1.229283e+02   6.048457e+00
  -4.053602e+01  -6.860585e+01
   4.117931e+01  -6.679188e+01
   4.892646e+01  -1.998020e+01
   1.122080e+01   1.393468e+01
  -1.136112e+01   1.073567e+01
   5.662798e+00  -1.595775e+00
   4.046500e+01   7.963570e+00
   5.166419e+01   4.988978e+01
   1.023900e+01   9.283041e+01
  -7.315007e+01   9.076216e+01
  -1.406405e+02   1.737910e+01
  -1.215313e+02  -8.628069e+01
  -2.707720e+01  -1.425014e+02
   6.489263e+01  -1.019303e+02
   7.935931e+01  -1.725553e+01
   3.970242e+01   3.272960e+01
   1.737203e+01   2.111883e+01
   3.407033e+01  -6.574123e+00
   4.868206e+01  -1.254210e+00
   2.122967e+01   2.991007e+01
  -3.041886e+01   4.801847e+01
  -6.084987e+01   2.779861e+01
  -4.598597e+01  -2.263558e+01
   1.239994e+01  -6.071648e+01
   8.493231e+01  -4.661450e+01
   1.171577e+02   3.153308e+01
   6.065229e+01   1.206494e+02
  -6.260878e+01   1.365443e+02
  -1.608395e+02   5.814063e+01
  -1.578321e+02  -5.084485e+01
  -6.893196e+01  -1.046229e+02
   2.318131e+01  -8.727368e+01
   6.035024e+01  -5.139445e+01
   5.404337e+01  -4.553870e+01
   4.328778e+01  -5.477164e+01
   5.568314e+01  -4.061861e+01
   7.322535e+01   1.734752e+01
   6.539534e+01   9.249849e+01
   1.691706e+01   1.357904e+02
  -5.799617e+01   1.039270e+02
  -1.035947e+02   1.288252e+01
  -8.375523e+01  -7.415980e+01
  -1.331394e+01  -9.930829e+01
   3.839817e+01  -5.965654e+01
   3.404039e+01  -3.442806e+00
   2.978902e+00   2.403295e+01
  -4.368009e+00   2.148369e+01
   2.481804e+01   1.325246e+01
   5.060136e+01   1.613619e+01
   2.742011e+01   2.180923e+01
  -4.020988e+01   1.816912e+01
  -9.836975e+01  -1.984562e+00
  -8.750910e+01  -3.002317e+01
  -9.530892e+00  -4.772103e+01
   7.290787e+01  -4.115984e+01
   8.934793e+01  -1.005382e+01
   3.016289e+01   2.053248e+01
  -3.571668e+01   1.909244e+01
  -4.550273e+01  -1.067887e+01
  -3.299152e+00  -3.773963e+01
   3.399485e+01  -3.267585e+01
   3.648671e+01   7.225573e-01
   2.695900e+01   2.871482e+01
   3.116312e+01   2.549415e+01
   4.247036e+01   4.024337e+00
   4.224641e+01   5.133107e+00
   1.704838e+01   4.286342e+01
  -2.442463e+01   8.653791e+01
  -7.306803e+01   8.469311e+01
  -9.881137e+01   1.950762e+01
  -7.348131e+01  -5.319322e+01
  -3.655037e+00  -7.448340e+01
   5.212081e+01  -3.727473e+01
   3.525479e+01   5.321267e+00
  -3.825483e+01   5.306992e+00
  -8.366767e+01  -3.062656e+01
  -4.481852e+01  -6.446191e+01
   5.203425e+01  -6.501436e+01
   1.226491e+02  -3.153681e+01
   1.024872e+02   1.868231e+01
   2.323727e+01   4.992956e+01
  -3.711537e+01   4.355742e+01
  -3.012938e+01   5.462292e+00
   2.383159e+01  -1.433000e+01
   5.512177e+01   1.477296e+01
   1.807870e+01   7.215099e+01
  -5.929305e+01   9.502256e+01
  -1.046480e+02   3.726654e+01
  -7.755855e+01  -6.383722e+01
  -4.775606e+00  -1.231678e+02
   5.332630e+01  -8.798422e+01
   6.189022e+01   2.717076e+00
   3.568381e+01   7.196183e+01
  -1.687752e-01   6.511112e+01
  -2.692226e+01   1.348262e+01
  -3.299114e+01  -1.830769e+01
  -1.723797e+01  -6.147722e+00
  -2.333169e+00   1.150519e+01
  -9.807373e+00  -1.161652e+01
  -2.930991e+01  -5.594843e+01
  -2.434152e+01  -6.630272e+01
   2.754021e+01  -2.225122e+01
   8.215261e+01   2.942943e+01
   7.897296e+01   4.400727e+01
   1.205803e+01   2.619928e+01
  -5.242767e+01   1.088132e+01
  -5.410791e+01   7.259847e+00
  -6.814618e+00  -9.099800e-02
   2.230009e+01  -1.323389e+01
   6.940878e+00  -1.334903e+01
  -1.503176e+01   3.643104e-01
   4.647937e+00   6.564292e+00
   4.596315e+01   4.577347e+00
   5.620544e+01   1.420721e+01
   3.029672e+00   4.759395e+01
  -7.619566e+01   6.897082e+01
  -1.162039e+02   3.348323e+01
  -8.573188e+01  -4.403864e+01
  -1.244811e+01  -1.001889e+02
   5.097783e+01  -9.012722e+01
   7.139685e+01  -3.386605e+01
   4.876880e+01   1.216629e+01
   1.428091e+01   1.911824e+01
  -2.869642e+00   4.398190e+00
   4.826361e+00   3.647968e+00
   1.991688e+01   2.783853e+01
   1.444260e+01   5.323750e+01
  -1.570259e+01   4.091000e+01
  -4.766499e+01  -1.274345e+01
  -4.638540e+01  -6.737173e+01
  -3.262226e+00  -6.738395e+01
   4.817871e+01  -1.179498e+01
   5.947229e+01   4.752643e+01
   1.748793e+01   6.187822e+01
  -4.039388e+01   3.077572e+01
  -5.796029e+01  -9.400309e+00
  -2.222610e+01  -2.977540e+01
   2.089637e+01  -2.943729e+01
   1.925088e+01  -1.851407e+01
  -2.176358e+01  -4.014385e+00
  -4.314568e+01   2.015158e+00
  -7.356570e+00  -1.324500e+01
   5.104377e+01  -3.656843e+01
   7.211788e+01  -3.440314e+01
   3.678526e+01   5.590375e+00
  -1.241053e+01   4.891716e+01
  -3.362191e+01   4.859892e+01
  -2.094920e+01   4.068752e+00
   2.593159e-01  -3.269215e+01
   1.454390e+01  -2.525521e+01
   2.090136e+01   1.109163e+01
   1.598880e+01   3.217954e+01
  -9.375300e-01   1.876595e+01
  -1.958893e+01  -6.352488e+00
  -2.435077e+01  -1.423028e+01
  -1.340129e+01  -1.335707e+00
  -5.066940e-04   7.856458e+00
   4.963963e+00  -2.737045e+00
   7.149119e+00  -2.221190e+01
   1.355082e+01  -2.570835e+01
   2.008401e+01  -1.600578e+00
   1.538983e+01   2.995315e+01
  -4.251086e+00   3.761873e+01
  -2.701304e+01   1.100764e+01
  -3.151053e+01  -2.514047e+01
  -7.371058e+00  -3.799782e+01
   3.252726e+01  -1.817212e+01
   5.202845e+01   1.132505e+01
   2.884794e+01   2.604507e+01
  -1.657673e+01   2.106362e+01
  -3.922980e+01   1.113842e+01
  -1.409393e+01   4.627191e+00
   2.365920e+01   5.019378e+00
   2.292345e+01   1.036909e+01
  -2.000377e+01   1.740966e+01
  -5.712349e+01   9.074974e+00
