
 $NMID
 id='ANONYMOUS ', fmtdat='(2E16.6)'
 volume=1.0
 tramp=1.0
 $END
   3.748347e+03  -4.178621e+01
   2.295649e+03   1.978658e+03
  -2.453836e+02   2.318111e+03
  -1.575371e+03   1.101497e+03
  -9.253018e+02  -1.703834e+02
   2.822720e+02  -3.912991e+02
   6.243586e+02   2.378489e+02
   4.128032e+01   7.890704e+02
  -6.332287e+02   6.837563e+02
  -7.975675e+02   6.762072e+00
  -4.552865e+02  -6.839896e+02
   1.018579e+02  -7.878751e+02
   4.625277e+02  -1.598256e+02
   3.144077e+02   5.481477e+02
  -1.848962e+02   6.225842e+02
  -4.933579e+02   2.876171e+01
  -2.768194e+02  -5.842940e+02
   2.176768e+02  -6.275654e+02
   5.211055e+02  -1.738159e+02
   4.280279e+02   2.676866e+02
   8.097355e+01   4.001954e+02
  -1.789968e+02   2.552484e+02
  -1.411598e+02   4.535881e+01
   1.571922e+02   1.268879e+01
   3.316469e+02   2.050936e+02
   7.493511e+01   3.925507e+02
  -4.662158e+02   2.623722e+02
  -7.034501e+02  -1.409034e+02
  -2.933133e+02  -4.472362e+02
   3.616337e+02  -3.189267e+02
   5.954411e+02   9.390335e+01
   2.447816e+02   4.123337e+02
  -2.716202e+02   4.185687e+02
  -4.871576e+02   1.541361e+02
  -3.515616e+02  -1.906660e+02
  -7.373210e+01  -3.800459e+02
   1.059181e+02  -2.119121e+02
   5.127586e+01   1.556739e+02
  -1.727366e+02   2.783970e+02
  -3.089421e+02  -9.516751e+01
  -1.163086e+02  -5.723395e+02
   2.782286e+02  -5.541383e+02
   4.567779e+02  -1.003899e+00
   1.931426e+02   4.228432e+02
  -2.083053e+02   2.188303e+02
  -2.717864e+02  -2.868554e+02
   8.380154e+01  -4.565239e+02
   4.910035e+02  -9.477284e+01
   5.255518e+02   3.841960e+02
   1.560802e+02   5.400154e+02
  -3.442068e+02   3.068987e+02
  -5.737126e+02  -6.972435e+01
  -3.616320e+02  -3.224929e+02
   9.615351e+01  -2.966874e+02
   3.599434e+02  -7.594429e+01
   2.306944e+02   9.928611e+01
  -4.619856e+01   5.742030e+01
  -8.886325e+01  -9.549771e+01
   1.276794e+02  -1.210660e+02
   2.754497e+02   5.363549e+01
   1.331664e+02   2.399739e+02
  -1.704830e+02   2.540312e+02
  -3.355381e+02   1.048296e+02
  -2.321676e+02  -1.011287e+02
   3.154056e+01  -2.776813e+02
   2.650186e+02  -3.345796e+02
   3.439116e+02  -1.677473e+02
   2.485113e+02   1.602139e+02
   6.081480e+01   3.873484e+02
  -6.547726e+01   3.348098e+02
  -6.518797e+01   1.451259e+02
  -3.231549e+01   5.310137e+01
  -9.830760e+01   9.908797e+01
  -2.209600e+02   8.191970e+01
  -2.546124e+02  -9.448464e+01
  -1.172266e+02  -2.646456e+02
   9.097544e+01  -2.183352e+02
   2.124291e+02   2.207409e+01
   1.643603e+02   2.492613e+02
  -3.318524e+01   2.732825e+02
  -2.585537e+02   8.837024e+01
  -3.307164e+02  -1.657259e+02
  -1.769405e+02  -3.153605e+02
   7.143476e+01  -2.831407e+02
   1.950560e+02  -1.356931e+02
   1.506113e+02  -4.741829e+01
   1.258324e+02  -5.926394e+01
   2.530281e+02  -5.640375e+01
   4.098769e+02   7.760198e+01
   3.267494e+02   2.954215e+02
  -1.087066e+01   4.459957e+02
  -3.759957e+02   4.039631e+02
  -4.867113e+02   1.794157e+02
  -3.142651e+02  -1.077649e+02
  -3.351408e+01  -2.760807e+02
   1.123641e+02  -2.226138e+02
   4.537665e+01  -3.180190e+01
  -1.137132e+02   6.821118e+01
  -1.566874e+02  -2.554678e+01
  -2.452559e+01  -1.666274e+02
   1.363142e+02  -1.403896e+02
   1.419612e+02   5.181472e+01
  -2.075014e+01   1.552952e+02
  -1.733364e+02   1.575942e+01
  -1.538003e+02  -2.328757e+02
   2.605100e+01  -3.391370e+02
   2.379508e+02  -1.971599e+02
   3.422571e+02   6.457649e+01
   2.705882e+02   2.516070e+02
   6.886653e+01   2.702290e+02
  -1.259421e+02   1.468517e+02
  -1.623984e+02   9.838878e+00
  -4.446514e+01  -2.474936e+01
   5.939821e+01   4.857579e+01
   9.757934e+00   1.177059e+02
  -1.235694e+02   8.025305e+01
  -1.591103e+02  -2.046803e+01
  -4.073399e+01  -6.412870e+01
   8.317568e+01  -1.099012e+00
   4.511050e+01   8.381206e+01
  -1.377273e+02   8.582080e+01
  -2.890301e+02  -1.753637e+01
  -2.549237e+02  -1.577355e+02
  -3.560394e+01  -2.588027e+02
   2.000868e+02  -2.419534e+02
   2.776082e+02  -1.057909e+02
   1.511513e+02   5.015036e+01
  -2.855204e+01   9.212119e+01
  -7.533638e+01   5.128170e-01
   4.702023e+01  -8.918801e+01
   1.905186e+02  -4.203989e+01
   2.010175e+02   1.069561e+02
   6.212519e+01   1.974453e+02
  -9.382181e+01   1.440029e+02
  -1.337709e+02   2.279439e+01
  -5.689045e+01  -3.822836e+01
   3.283347e+01   1.050410e+01
   2.799889e+01   9.678013e+01
  -8.654569e+01   1.128583e+02
  -2.014414e+02   1.631457e+01
  -1.795602e+02  -1.329838e+02
  -1.116277e+01  -2.150186e+02
   1.623785e+02  -1.553233e+02
   1.848892e+02  -3.565509e+00
   6.058872e+01   1.093125e+02
  -6.508606e+01   1.054971e+02
  -7.852872e+01   2.761636e+01
  -1.048830e+01  -2.565238e+01
   2.935761e+01  -1.139948e+01
  -9.993787e+00   1.965785e+01
  -8.272661e+01  -4.002869e+00
  -9.848779e+01  -9.063954e+01
  -1.207638e+01  -1.712332e+02
   1.392999e+02  -1.526419e+02
   2.389821e+02  -1.373848e+01
   1.987195e+02   1.597707e+02
   3.728492e+01   2.340420e+02
  -1.069292e+02   1.646106e+02
  -1.351079e+02   2.831160e+01
  -7.326255e+01  -5.060652e+01
  -3.093660e+01  -3.214655e+01
  -5.551501e+01   1.553673e+01
  -8.628251e+01   8.463384e+00
  -5.155582e+01  -5.540003e+01
   4.069864e+01  -1.016096e+02
   1.154987e+02  -6.429098e+01
   1.000312e+02   4.191036e+01
  -1.526052e+01   1.226210e+02
  -1.571703e+02   8.761541e+01
  -2.036161e+02  -6.242672e+01
  -8.729606e+01  -2.110367e+02
   1.233422e+02  -2.250432e+02
   2.717112e+02  -8.418180e+01
   2.483865e+02   9.246070e+01
   9.942328e+01   1.748690e+02
  -4.086521e+01   1.420321e+02
  -8.831276e+01   8.240474e+01
  -7.260523e+01   6.952789e+01
  -6.334644e+01   9.328017e+01
  -9.270248e+01   7.658869e+01
  -1.315924e+02  -2.196961e+01
  -1.204010e+02  -1.575315e+02
  -2.657360e+01  -2.264863e+02
   1.023267e+02  -1.689512e+02
   1.743181e+02  -1.585950e+01
   1.301179e+02   1.255947e+02
   1.243358e+01   1.584203e+02
  -7.277685e+01   8.452288e+01
  -6.134758e+01  -1.016795e+01
   8.556342e-01  -4.909025e+01
   1.994007e+01  -3.328807e+01
  -3.054069e+01  -1.268845e+01
  -7.962220e+01  -1.934925e+01
  -4.602486e+01  -4.057536e+01
   6.811160e+01  -3.979446e+01
   1.633114e+02  -6.246232e-01
   1.425996e+02   5.874233e+01
   5.678311e+00   9.442518e+01
  -1.270498e+02   7.301646e+01
  -1.429317e+02   9.375044e+00
  -4.535332e+01  -4.662878e+01
   5.970486e+01  -4.180347e+01
   7.535114e+01   1.866184e+01
   1.278973e+01   7.279241e+01
  -5.164865e+01   6.287555e+01
  -6.712303e+01  -6.537651e-01
  -5.278921e+01  -5.194242e+01
  -4.557962e+01  -4.427619e+01
  -5.784827e+01  -2.600499e+00
  -6.412596e+01  -1.574732e+00
  -3.940293e+01  -7.097729e+01
   3.090082e+01  -1.514741e+02
   1.202859e+02  -1.432996e+02
   1.711777e+02  -3.136816e+01
   1.259333e+02   9.416090e+01
   3.541674e+00   1.290934e+02
  -8.853836e+01   6.284927e+01
  -5.974292e+01  -1.471563e+01
   5.759317e+01  -2.136181e+01
   1.347370e+02   4.279643e+01
   7.097000e+01   1.060431e+02
  -8.283626e+01   1.097192e+02
  -1.858766e+02   4.672206e+01
  -1.537013e+02  -3.888459e+01
  -3.257652e+01  -8.501775e+01
   6.173950e+01  -6.271792e+01
   4.833478e+01  -1.446994e+00
  -3.935432e+01   2.883396e+01
  -9.063095e+01  -2.039206e+01
  -3.709199e+01  -1.153787e+02
   8.190484e+01  -1.552026e+02
   1.586613e+02  -6.851893e+01
   1.271305e+02   9.200370e+01
   1.736635e+01   1.915499e+02
  -8.042775e+01   1.435031e+02
  -1.051498e+02  -8.690640e+00
  -5.764493e+01  -1.190474e+02
   9.292311e+00  -1.023450e+02
   5.037946e+01  -1.601566e+01
   4.769074e+01   3.118474e+01
   1.987397e+01   6.271880e+00
   5.810941e+00  -1.869364e+01
   2.605364e+01   1.971076e+01
   5.488014e+01   8.807782e+01
   3.372693e+01   1.048865e+02
  -5.356120e+01   4.351767e+01
  -1.353369e+02  -3.572209e+01
  -1.242308e+02  -7.001954e+01
  -1.552143e+01  -5.507356e+01
   8.449216e+01  -2.577640e+01
   8.660728e+01  -3.182711e+00
   1.294493e+01   1.313434e+01
  -3.667192e+01   2.133802e+01
  -1.756288e+01   1.158542e+01
   1.721632e+01  -4.331352e+00
  -4.566854e+00  -7.251959e+00
  -6.716557e+01  -6.917173e-01
  -8.886015e+01  -2.246964e+01
  -1.387820e+01  -8.055782e+01
   1.104715e+02  -1.162619e+02
   1.834108e+02  -6.058055e+01
   1.454164e+02   6.447511e+01
   2.876032e+01   1.600767e+02
  -7.998297e+01   1.509816e+02
  -1.143861e+02   6.007315e+01
  -7.930580e+01  -2.082232e+01
  -2.457891e+01  -3.697605e+01
   2.876019e-02  -1.051196e+01
  -1.292562e+01  -6.010535e+00
  -3.146949e+01  -4.732783e+01
  -1.891348e+01  -9.052747e+01
   2.913267e+01  -7.229720e+01
   7.816059e+01   1.690989e+01
   7.796393e+01   1.026499e+02
   9.571385e+00   1.095128e+02
  -7.805103e+01   2.890256e+01
  -1.045179e+02  -6.874018e+01
  -3.624312e+01  -1.026556e+02
   6.562625e+01  -6.021340e+01
   1.003631e+02   9.620481e+00
   4.212617e+01   5.529747e+01
  -3.372682e+01   5.678180e+01
  -3.630424e+01   2.729915e+01
   2.847710e+01  -4.937811e+00
   6.800689e+01  -7.630791e+00
   1.732826e+01   2.693447e+01
  -7.534605e+01   6.494457e+01
  -1.131540e+02   5.442249e+01
  -6.597107e+01  -1.558071e+01
   1.402297e+01  -8.291624e+01
   5.578620e+01  -7.879917e+01
   4.269766e+01  -8.021319e+00
   5.585877e+00   5.474788e+01
  -2.603076e+01   4.646368e+01
  -3.805755e+01  -1.366830e+01
  -2.734387e+01  -5.379853e+01
   2.232169e+00  -3.753203e+01
   3.304979e+01   6.735538e+00
   3.940427e+01   2.473472e+01
   1.967553e+01   3.477249e+00
  -2.621644e+00  -1.780661e+01
  -6.453231e+00  -4.085330e+00
  -1.055780e+00   3.364243e+01
  -7.777956e+00   4.918672e+01
  -2.871676e+01   1.562343e+01
  -3.588852e+01  -3.975163e+01
  -6.492958e+00  -6.066261e+01
   4.216525e+01  -2.379995e+01
   6.042197e+01   3.657500e+01
   1.747568e+01   6.228399e+01
  -5.652731e+01   3.626564e+01
  -9.212570e+01  -1.228466e+01
  -5.046067e+01  -4.467005e+01
   2.899128e+01  -4.554112e+01
   6.524643e+01  -2.602211e+01
   2.745383e+01  -5.859044e+00
  -3.051822e+01   1.269843e+00
  -3.375714e+01  -1.003616e+01
   2.739782e+01  -2.759696e+01
   8.352380e+01  -1.990016e+01
