
 $NMID
 id='ANONYMOUS ', fmtdat='(2E16.6)'
 volume=1.0
 tramp=1.0
 $END
   4.477272e+03   6.265299e+01
   2.503527e+03   2.620140e+03
  -8.045901e+02   2.766944e+03
  -2.144477e+03   8.528116e+02
  -9.113959e+02  -7.205308e+02
   7.260857e+02  -5.973513e+02
   9.194597e+02   4.777640e+02
  -3.602615e+01   1.108045e+03
  -8.872438e+02   7.693306e+02
  -9.689868e+02  -1.429979e+02
  -4.269857e+02  -9.120988e+02
   2.768033e+02  -9.016000e+02
   6.654561e+02  -9.044014e+01
   3.814706e+02   7.468911e+02
  -2.912346e+02   7.462740e+02
  -6.099862e+02  -2.918171e+01
  -2.599578e+02  -6.970157e+02
   3.401608e+02  -6.265024e+02
   5.963512e+02  -7.484523e+01
   3.841329e+02   3.657410e+02
  -3.316521e+00   4.408855e+02
  -2.609910e+02   2.508659e+02
  -2.254419e+02  -1.258555e+01
   1.318641e+02  -1.112551e+02
   4.317056e+02   1.161608e+02
   2.122316e+02   4.531146e+02
  -4.796399e+02   4.250313e+02
  -8.660834e+02  -8.149640e+01
  -4.259317e+02  -5.769602e+02
   4.133855e+02  -5.029603e+02
   7.545954e+02   4.218581e+01
   3.406332e+02   5.041465e+02
  -2.964813e+02   5.338699e+02
  -5.783899e+02   1.986540e+02
  -4.179815e+02  -2.493785e+02
  -5.048095e+01  -4.814378e+02
   2.218957e+02  -2.693107e+02
   1.708425e+02   2.454956e+02
  -1.903995e+02   4.468142e+02
  -4.682757e+02  -3.454037e+01
  -2.380593e+02  -6.977266e+02
   3.505886e+02  -6.954249e+02
   6.177530e+02   1.242348e+01
   2.545252e+02   5.765374e+02
  -3.156559e+02   3.286390e+02
  -4.041726e+02  -3.324764e+02
   6.604608e+01  -5.623418e+02
   5.635955e+02  -1.367449e+02
   6.030668e+02   4.270576e+02
   1.572205e+02   6.013265e+02
  -3.994896e+02   3.458480e+02
  -6.404803e+02  -8.930662e+01
  -3.763391e+02  -3.971707e+02
   1.619074e+02  -3.701323e+02
   4.424872e+02  -5.345883e+01
   2.325301e+02   1.999778e+02
  -1.312707e+02   9.977271e+01
  -1.441281e+02  -1.668450e+02
   1.758951e+02  -1.960063e+02
   3.562272e+02   8.282888e+01
   1.379498e+02   3.105238e+02
  -2.116435e+02   2.647125e+02
  -3.377997e+02   7.159980e+01
  -1.959913e+02  -8.813773e+01
   1.805987e+01  -2.224593e+02
   2.139568e+02  -3.239166e+02
   3.352482e+02  -2.219738e+02
   2.980279e+02   1.317682e+02
   8.043592e+01   4.347099e+02
  -1.196259e+02   3.736259e+02
  -1.248051e+02   1.024742e+02
  -1.792574e+01  -1.412113e+01
  -3.470523e+01   9.322410e+01
  -1.971124e+02   1.400400e+02
  -2.913059e+02  -4.934917e+01
  -1.700187e+02  -2.757785e+02
   7.018911e+01  -2.665689e+02
   2.341542e+02  -1.867625e+01
   2.040704e+02   2.415395e+02
  -7.270775e+00   3.017946e+02
  -2.710772e+02   1.254018e+02
  -3.700880e+02  -1.652903e+02
  -1.926593e+02  -3.566654e+02
   1.069582e+02  -3.133248e+02
   2.354743e+02  -1.132880e+02
   1.470622e+02   6.881976e+00
   8.436891e+01  -3.392655e+01
   2.172213e+02  -7.660172e+01
   3.996228e+02   4.463312e+01
   3.378006e+02   2.772902e+02
   4.203208e+00   4.462891e+02
  -3.557556e+02   4.202627e+02
  -4.846459e+02   2.011804e+02
  -3.453003e+02  -1.002461e+02
  -5.736336e+01  -3.071029e+02
   1.362215e+02  -2.584640e+02
   9.208496e+01  -2.205993e+01
  -1.072680e+02   1.182786e+02
  -2.015426e+02  -6.567676e+00
  -4.981196e+01  -2.054962e+02
   1.683219e+02  -1.742232e+02
   1.847344e+02   7.012259e+01
  -2.069956e+01   2.018863e+02
  -2.043673e+02   3.545066e+01
  -1.695135e+02  -2.472338e+02
   3.078593e+01  -3.470291e+02
   2.266034e+02  -1.931616e+02
   3.192836e+02   5.487202e+01
   2.722755e+02   2.302209e+02
   9.455183e+01   2.580925e+02
  -1.120830e+02   1.606136e+02
  -1.780805e+02   1.989642e+01
  -5.567207e+01  -3.727019e+01
   7.519814e+01   3.657069e+01
   3.288952e+01   1.279604e+02
  -1.243363e+02   1.070881e+02
  -1.806344e+02  -9.748579e+00
  -6.210105e+01  -7.478178e+01
   7.717771e+01  -1.974242e+01
   5.550167e+01   7.076988e+01
  -1.205791e+02   8.658353e+01
  -2.737460e+02   2.922692e+00
  -2.573988e+02  -1.376788e+02
  -6.062955e+01  -2.556829e+02
   1.791643e+02  -2.632158e+02
   2.825833e+02  -1.276046e+02
   1.747450e+02   5.718367e+01
  -2.200348e+01   1.171510e+02
  -9.368743e+01   1.134285e+01
   2.794986e+01  -1.027687e+02
   1.910446e+02  -6.120407e+01
   2.141358e+02   1.017298e+02
   6.955496e+01   2.076117e+02
  -9.495892e+01   1.588387e+02
  -1.446899e+02   2.943386e+01
  -7.240796e+01  -4.229915e+01
   2.578156e+01  -7.113452e+00
   3.910845e+01   7.802157e+01
  -6.555337e+01   1.116421e+02
  -1.922697e+02   3.290578e+01
  -1.899278e+02  -1.186811e+02
  -2.409871e+01  -2.181038e+02
   1.622482e+02  -1.651782e+02
   1.934815e+02  -5.213729e+00
   6.567364e+01   1.177267e+02
  -6.834475e+01   1.134865e+02
  -8.574325e+01   3.062122e+01
  -2.165739e+01  -2.680522e+01
   1.972335e+01  -2.169207e+01
  -8.330802e+00   4.185696e+00
  -6.640517e+01  -1.022765e+01
  -8.395015e+01  -7.856898e+01
  -1.554050e+01  -1.523892e+02
   1.217475e+02  -1.486496e+02
   2.289552e+02  -2.506431e+01
   1.996223e+02   1.519671e+02
   4.078354e+01   2.360589e+02
  -1.100963e+02   1.676728e+02
  -1.374281e+02   2.294963e+01
  -7.098338e+01  -5.810904e+01
  -2.694471e+01  -3.695393e+01
  -5.042012e+01   1.250873e+01
  -7.517238e+01   6.007676e+00
  -3.842876e+01  -4.747679e+01
   4.103961e+01  -8.380822e+01
   9.693713e+01  -5.278672e+01
   8.196016e+01   3.245283e+01
  -1.045852e+01   1.063690e+02
  -1.358869e+02   8.815683e+01
  -1.950964e+02  -4.308847e+01
  -1.058449e+02  -1.947608e+02
   9.756462e+01  -2.291249e+02
   2.605515e+02  -1.020578e+02
   2.553447e+02   8.041464e+01
   1.125994e+02   1.734694e+02
  -3.527032e+01   1.480725e+02
  -9.191023e+01   8.552693e+01
  -8.010437e+01   6.853210e+01
  -6.683363e+01   8.796246e+01
  -9.100453e+01   7.226086e+01
  -1.262082e+02  -1.970677e+01
  -1.180693e+02  -1.483051e+02
  -3.123469e+01  -2.215238e+02
   9.535411e+01  -1.716493e+02
   1.726831e+02  -2.360527e+01
   1.358671e+02   1.180368e+02
   2.142877e+01   1.560217e+02
  -6.377195e+01   9.096857e+01
  -6.026671e+01   2.788430e+00
  -7.282127e+00  -3.929825e+01
   7.879250e+00  -3.346511e+01
  -3.557174e+01  -2.085929e+01
  -7.329408e+01  -2.342449e+01
  -4.214326e+01  -3.740604e+01
   6.048465e+01  -3.772896e+01
   1.509429e+02  -7.088218e+00
   1.422083e+02   4.747746e+01
   1.982208e+01   8.834963e+01
  -1.153272e+02   7.542534e+01
  -1.403073e+02   1.498541e+01
  -4.835465e+01  -4.058054e+01
   5.680994e+01  -3.789083e+01
   7.266742e+01   1.792458e+01
   8.164704e+00   6.686433e+01
  -5.345367e+01   5.700613e+01
  -6.035977e+01  -2.722263e+00
  -4.249880e+01  -4.856093e+01
  -4.245659e+01  -3.924681e+01
  -6.023166e+01  -3.947058e-01
  -6.417889e+01   1.368718e+00
  -3.496321e+01  -6.454006e+01
   3.028427e+01  -1.429678e+02
   1.082713e+02  -1.397633e+02
   1.577613e+02  -3.546246e+01
   1.214141e+02   8.649131e+01
   9.659088e+00   1.218919e+02
  -8.036698e+01   5.840916e+01
  -5.640113e+01  -1.556702e+01
   5.683060e+01  -2.050111e+01
   1.330455e+02   4.370927e+01
   7.373254e+01   1.072209e+02
  -7.831598e+01   1.112550e+02
  -1.860660e+02   4.989319e+01
  -1.602639e+02  -3.478264e+01
  -3.767415e+01  -8.516082e+01
   6.016584e+01  -6.846525e+01
   4.846270e+01  -6.901709e+00
  -3.841504e+01   2.577136e+01
  -8.863621e+01  -2.167640e+01
  -3.224208e+01  -1.147664e+02
   8.770642e+01  -1.492191e+02
   1.598997e+02  -6.051166e+01
   1.208977e+02   9.603753e+01
   9.862514e+00   1.896988e+02
  -8.143375e+01   1.400024e+02
  -1.010614e+02  -5.955367e+00
  -5.933872e+01  -1.128536e+02
  -1.324191e-01  -1.006054e+02
   4.465650e+01  -1.993969e+01
   5.155594e+01   2.889486e+01
   2.599347e+01   7.098537e+00
   3.980418e+00  -1.984264e+01
   1.944955e+01   1.491571e+01
   5.442928e+01   8.453883e+01
   4.102439e+01   1.051439e+02
  -4.546503e+01   4.517764e+01
  -1.347228e+02  -3.541513e+01
  -1.278397e+02  -6.874750e+01
  -1.724488e+01  -5.059373e+01
   8.601630e+01  -2.200327e+01
   8.656156e+01  -7.423013e+00
   1.033196e+01   6.990503e+00
  -3.820614e+01   2.133312e+01
  -1.338013e+01   1.799374e+01
   2.018136e+01  -9.889300e-02
  -7.556214e+00  -9.664926e+00
  -7.499082e+01  -6.321531e+00
  -8.922804e+01  -2.635765e+01
  -4.677965e+00  -7.978533e+01
   1.188708e+02  -1.116515e+02
   1.817210e+02  -5.606562e+01
   1.374595e+02   6.780060e+01
   2.392743e+01   1.595739e+02
  -7.754287e+01   1.466034e+02
  -1.100300e+02   5.604986e+01
  -7.751514e+01  -2.158660e+01
  -2.444199e+01  -3.507995e+01
   2.600494e+00  -7.750535e+00
  -9.709598e+00  -2.174661e+00
  -3.248212e+01  -4.339924e+01
  -2.258658e+01  -8.843934e+01
   2.866111e+01  -7.094857e+01
   7.983936e+01   1.784912e+01
   7.501521e+01   1.060150e+02
   2.589201e+00   1.098637e+02
  -8.236015e+01   2.253041e+01
  -1.013349e+02  -7.576906e+01
  -3.008389e+01  -1.012778e+02
   6.512427e+01  -5.307522e+01
   9.380140e+01   1.199829e+01
   3.709256e+01   4.777548e+01
  -3.072038e+01   4.820988e+01
  -2.878165e+01   2.650466e+01
   3.389852e+01  -2.239071e-01
   6.733081e+01  -5.862284e+00
   1.409074e+01   2.533708e+01
  -7.495687e+01   6.316854e+01
  -1.078577e+02   5.474500e+01
  -5.979727e+01  -1.163989e+01
   1.584882e+01  -7.867720e+01
   5.146750e+01  -7.423457e+01
   3.505972e+01  -3.764831e+00
   4.685233e-01   5.493205e+01
  -2.600628e+01   4.065193e+01
  -3.527407e+01  -1.876249e+01
  -2.496817e+01  -5.200348e+01
   2.774543e+00  -3.168651e+01
   3.139035e+01   8.776415e+00
   3.800877e+01   1.992547e+01
   2.045361e+01  -7.118744e-02
   3.450646e-01  -1.308295e+01
  -6.761514e+00   4.527780e+00
  -6.937852e+00   3.661272e+01
  -1.695075e+01   4.269498e+01
  -3.105779e+01   4.758656e+00
  -2.804082e+01  -4.583888e+01
   2.996881e+00  -5.843756e+01
   4.339619e+01  -1.783538e+01
   5.422570e+01   3.863713e+01
   1.351943e+01   6.057681e+01
  -5.330062e+01   3.347010e+01
  -8.660832e+01  -1.415846e+01
  -4.784915e+01  -4.300815e+01
   2.901995e+01  -3.980940e+01
   6.303395e+01  -2.050878e+01
   2.186046e+01  -3.985477e+00
  -3.760204e+01  -2.023614e+00
  -3.653623e+01  -1.605750e+01
   3.139974e+01  -3.154017e+01
   8.867832e+01  -1.976305e+01
