
 $NMID
 id='ANONYMOUS ', fmtdat='(2E16.6)'
 volume=1.0
 tramp=1.0
 $END
  -4.492629e+03   2.360130e+01
  -2.568587e+03  -2.588970e+03
   6.803743e+02  -2.767950e+03
   2.083251e+03  -9.335993e+02
   9.392531e+02   6.324961e+02
  -6.659228e+02   5.793188e+02
  -9.015843e+02  -4.764255e+02
   4.052043e+01  -1.097230e+03
   8.906722e+02  -7.734156e+02
   9.846316e+02   1.374389e+02
   4.495521e+02   9.217560e+02
  -2.885970e+02   9.231322e+02
  -6.645914e+02   1.012537e+02
  -3.752501e+02  -7.457110e+02
   3.083426e+02  -7.494510e+02
   6.291358e+02   3.719038e+01
   2.637889e+02   7.215891e+02
  -3.462679e+02   6.588919e+02
  -5.978237e+02   9.073088e+01
  -4.040427e+02  -3.778915e+02
  -1.294223e+01  -4.533906e+02
   2.578528e+02  -2.629493e+02
   2.165246e+02   1.529077e+00
  -1.379796e+02   9.047443e+01
  -4.248552e+02  -1.370351e+02
  -1.882879e+02  -4.591985e+02
   4.881671e+02  -4.058920e+02
   8.642471e+02   1.075464e+02
   3.996496e+02   5.710094e+02
  -4.267747e+02   4.786715e+02
  -7.565058e+02  -6.595853e+01
  -3.324876e+02  -5.113726e+02
   3.086948e+02  -5.297526e+02
   5.824619e+02  -1.885002e+02
   4.186149e+02   2.490113e+02
   4.748615e+01   4.853748e+02
  -2.133251e+02   2.676596e+02
  -1.588416e+02  -2.378983e+02
   1.967421e+02  -4.332792e+02
   4.604664e+02   4.388427e+01
   2.249589e+02   7.014779e+02
  -3.544551e+02   7.051144e+02
  -6.221170e+02  -1.113474e+01
  -2.572731e+02  -5.807015e+02
   3.109936e+02  -3.218009e+02
   3.987645e+02   3.388666e+02
  -7.358530e+01   5.685178e+02
  -5.759194e+02   1.398302e+02
  -6.055378e+02  -4.272553e+02
  -1.614065e+02  -6.162160e+02
   4.059272e+02  -3.538209e+02
   6.536366e+02   8.978087e+01
   3.846824e+02   4.075077e+02
  -1.610932e+02   3.710429e+02
  -4.463038e+02   5.370903e+01
  -2.404573e+02  -1.915106e+02
   1.226040e+02  -9.468132e+01
   1.381324e+02   1.626969e+02
  -1.759442e+02   1.924912e+02
  -3.544040e+02  -7.449665e+01
  -1.400596e+02  -3.068431e+02
   2.115126e+02  -2.722383e+02
   3.455001e+02  -7.987170e+01
   2.084829e+02   9.505172e+01
  -2.660753e+01   2.441535e+02
  -2.367808e+02   3.372427e+02
  -3.499098e+02   2.066192e+02
  -2.917542e+02  -1.590830e+02
  -7.095854e+01  -4.477774e+02
   1.232026e+02  -3.754433e+02
   1.237084e+02  -1.068244e+02
   2.247199e+01   1.002051e+01
   4.590624e+01  -9.336729e+01
   2.019137e+02  -1.288189e+02
   2.875555e+02   6.310456e+01
   1.616584e+02   2.826443e+02
  -8.129029e+01   2.637603e+02
  -2.408886e+02   1.057031e+01
  -2.054338e+02  -2.528388e+02
   1.269924e+01  -3.091666e+02
   2.802365e+02  -1.255154e+02
   3.740733e+02   1.710126e+02
   1.908363e+02   3.625780e+02
  -1.080259e+02   3.179797e+02
  -2.376380e+02   1.144232e+02
  -1.540673e+02   9.697154e-01
  -9.476819e+01   4.196036e+01
  -2.325014e+02   7.886986e+01
  -4.196231e+02  -5.344340e+01
  -3.498732e+02  -2.973420e+02
  -5.052416e-01  -4.685389e+02
   3.783090e+02  -4.308786e+02
   5.103300e+02  -1.985393e+02
   3.551453e+02   1.102272e+02
   5.268659e+01   3.146858e+02
  -1.394478e+02   2.624589e+02
  -8.739822e+01   2.456216e+01
   1.164473e+02  -1.113882e+02
   2.019326e+02   1.250839e+01
   4.792322e+01   2.076826e+02
  -1.699463e+02   1.795853e+02
  -1.877839e+02  -6.536467e+01
   1.729593e+01  -2.000574e+02
   2.030254e+02  -3.412089e+01
   1.694205e+02   2.512021e+02
  -3.329711e+01   3.554383e+02
  -2.404114e+02   1.950712e+02
  -3.354403e+02  -6.587096e+01
  -2.758176e+02  -2.473671e+02
  -8.669670e+01  -2.723593e+02
   1.236680e+02  -1.635949e+02
   1.842698e+02  -1.552025e+01
   5.688897e+01   4.028349e+01
  -7.530148e+01  -3.668612e+01
  -3.025747e+01  -1.303442e+02
   1.281416e+02  -1.039350e+02
   1.834685e+02   1.428273e+01
   5.800821e+01   7.721929e+01
  -8.476292e+01   1.725353e+01
  -5.701693e+01  -7.731413e+01
   1.282307e+02  -9.040013e+01
   2.884747e+02   4.915579e+00
   2.682968e+02   1.477553e+02
   5.527154e+01   2.652881e+02
  -1.942041e+02   2.680825e+02
  -2.981527e+02   1.273855e+02
  -1.767562e+02  -5.781177e+01
   2.658311e+01  -1.165822e+02
   9.560116e+01  -8.920556e+00
  -3.619324e+01   1.056458e+02
  -2.040712e+02   5.975758e+01
  -2.226679e+02  -1.100801e+02
  -6.999050e+01  -2.172334e+02
   1.024855e+02  -1.624969e+02
   1.503660e+02  -2.950822e+01
   7.238668e+01   4.503975e+01
  -2.665699e+01   5.678696e+00
  -3.678429e+01  -8.365122e+01
   7.241426e+01  -1.146140e+02
   1.998781e+02  -2.862686e+01
   1.924060e+02   1.291781e+02
   1.889424e+01   2.274753e+02
  -1.720304e+02   1.684130e+02
  -2.021737e+02   5.317393e-01
  -6.811869e+01  -1.252258e+02
   7.124592e+01  -1.181560e+02
   9.023602e+01  -2.981502e+01
   2.116623e+01   2.846613e+01
  -2.154830e+01   1.887994e+01
   9.093097e+00  -9.449987e+00
   7.266969e+01   9.823932e+00
   9.078231e+01   8.558883e+01
   1.594421e+01   1.647312e+02
  -1.316175e+02   1.566147e+02
  -2.427851e+02   2.451176e+01
  -2.109917e+02  -1.594164e+02
  -4.204713e+01  -2.463239e+02
   1.145598e+02  -1.756002e+02
   1.434998e+02  -2.685757e+01
   7.416893e+01   5.818491e+01
   2.920241e+01   3.644916e+01
   5.495059e+01  -1.392523e+01
   8.266823e+01  -7.666754e+00
   4.345453e+01   5.110668e+01
  -4.194035e+01   9.151432e+01
  -1.044806e+02   5.765841e+01
  -8.901290e+01  -3.535451e+01
   1.205426e+01  -1.121720e+02
   1.462774e+02  -8.860234e+01
   2.029225e+02   5.243033e+01
   1.014922e+02   2.077750e+02
  -1.142601e+02   2.364363e+02
  -2.778960e+02   9.583257e+01
  -2.628800e+02  -9.216862e+01
  -1.089146e+02  -1.837472e+02
   4.116548e+01  -1.513204e+02
   9.456755e+01  -8.688356e+01
   7.935896e+01  -7.033682e+01
   7.015004e+01  -9.298755e+01
   9.636999e+01  -7.466360e+01
   1.328364e+02   2.406581e+01
   1.221704e+02   1.609211e+02
   2.923828e+01   2.320466e+02
  -1.039425e+02   1.778467e+02
  -1.818877e+02   2.248030e+01
  -1.404689e+02  -1.253777e+02
  -1.993754e+01  -1.650317e+02
   6.908281e+01  -9.425815e+01
   6.233788e+01   8.338348e-01
   5.335422e+00   4.349048e+01
  -1.050768e+01   3.412336e+01
   3.632977e+01   1.828051e+01
   7.812822e+01   2.368289e+01
   4.387041e+01   4.015405e+01
  -6.464575e+01   3.884129e+01
  -1.583575e+02   4.099369e+00
  -1.450824e+02  -5.285638e+01
  -1.572126e+01  -9.288708e+01
   1.215301e+02  -7.673750e+01
   1.450999e+02  -1.332074e+01
   4.912460e+01   4.364149e+01
  -6.005072e+01   3.996627e+01
  -7.484998e+01  -1.964178e+01
  -7.433328e+00  -7.137241e+01
   5.651533e+01  -5.957051e+01
   6.461687e+01   3.004041e+00
   4.628341e+01   5.145995e+01
   4.522253e+01   4.299758e+01
   6.246136e+01   3.446135e+00
   6.592231e+01   2.203096e+00
   3.539861e+01   6.970947e+01
  -3.373151e+01   1.484665e+02
  -1.164169e+02   1.435298e+02
  -1.655480e+02   3.358225e+01
  -1.252663e+02  -9.200648e+01
  -7.188882e+00  -1.277026e+02
   8.537237e+01  -6.041492e+01
   5.895177e+01   1.704272e+01
  -5.924211e+01   2.159983e+01
  -1.393413e+02  -4.547069e+01
  -7.497581e+01  -1.110407e+02
   8.364338e+01  -1.149323e+02
   1.920557e+02  -5.226311e+01
   1.627530e+02   3.732930e+01
   3.717042e+01   8.928237e+01
  -6.232455e+01   6.930742e+01
  -5.049431e+01   5.663875e+00
   3.939195e+01  -2.736295e+01
   9.152063e+01   2.255103e+01
   3.330259e+01   1.194313e+02
  -9.182090e+01   1.562915e+02
  -1.674464e+02   6.266328e+01
  -1.272954e+02  -1.008287e+02
  -1.060118e+01  -1.989525e+02
   8.581961e+01  -1.470939e+02
   1.072746e+02   8.616878e+00
   6.069703e+01   1.208619e+02
  -4.337047e+00   1.063235e+02
  -4.866982e+01   1.895032e+01
  -5.116246e+01  -3.195758e+01
  -2.326602e+01  -7.305201e+00
  -4.221202e+00   2.095118e+01
  -2.215148e+01  -1.607182e+01
  -5.609207e+01  -8.880283e+01
  -3.949116e+01  -1.101531e+02
   5.144472e+01  -4.741913e+01
   1.393534e+02   3.902413e+01
   1.288296e+02   7.412906e+01
   1.456123e+01   5.492952e+01
  -8.936565e+01   2.316889e+01
  -8.837158e+01   3.393773e+00
  -1.010353e+01  -1.123065e+01
   3.966182e+01  -2.169715e+01
   1.596811e+01  -1.473724e+01
  -1.997549e+01   2.444228e+00
   5.976721e+00   9.195789e+00
   7.245178e+01   4.677151e+00
   9.017473e+01   2.614132e+01
   7.205738e+00   8.236813e+01
  -1.209650e+02   1.156974e+02
  -1.889629e+02   5.673118e+01
  -1.440311e+02  -7.186794e+01
  -2.366983e+01  -1.655360e+02
   8.317959e+01  -1.509761e+02
   1.156167e+02  -5.696240e+01
   8.016495e+01   2.293515e+01
   2.437443e+01   3.692415e+01
  -2.297957e+00   8.368362e+00
   1.183825e+01   3.286682e+00
   3.359709e+01   4.656886e+01
   2.181752e+01   9.281689e+01
  -3.090694e+01   7.432887e+01
  -8.101338e+01  -1.940502e+01
  -7.689266e+01  -1.097404e+02
  -2.520919e+00  -1.132715e+02
   8.504628e+01  -2.341635e+01
   1.042815e+02   7.787554e+01
   3.002347e+01   1.056082e+02
  -6.938658e+01   5.541835e+01
  -9.853077e+01  -1.339463e+01
  -3.840243e+01  -5.230251e+01
   3.408651e+01  -5.155456e+01
   3.255499e+01  -2.670194e+01
  -3.291033e+01   1.183178e+00
  -6.966395e+01   5.507484e+00
  -1.590564e+01  -2.673071e+01
   7.700866e+01  -6.491056e+01
   1.132445e+02  -5.609998e+01
   6.368202e+01   1.388223e+01
  -1.612482e+01   8.224029e+01
  -5.523403e+01   7.713167e+01
  -3.892408e+01   3.859069e+00
  -1.033295e+00  -5.723111e+01
   2.830946e+01  -4.334479e+01
   3.746929e+01   1.909472e+01
   2.546676e+01   5.511614e+01
  -3.806402e+00   3.461594e+01
  -3.260060e+01  -9.145509e+00
  -3.815839e+01  -2.312517e+01
  -2.013845e+01  -1.369949e+00
  -6.434702e-02   1.568879e+01
   6.168775e+00  -1.754550e+00
   6.695765e+00  -3.726892e+01
   1.636061e+01  -4.556785e+01
   3.182073e+01  -7.460348e+00
   3.028166e+01   4.670674e+01
  -2.146266e+00   6.200442e+01
  -4.621567e+01   2.014253e+01
  -5.866864e+01  -4.172469e+01
  -1.427695e+01  -6.494894e+01
   5.744048e+01  -3.451891e+01
   9.202759e+01   1.589947e+01
   4.971188e+01   4.645616e+01
  -3.088923e+01   4.278616e+01
  -6.640327e+01   2.160565e+01
  -2.455032e+01   4.442297e+00
   3.643793e+01   1.957731e+00
   3.632246e+01   1.645992e+01
  -3.271755e+01   3.167805e+01
  -9.252820e+01   1.883815e+01
