
 $NMID
 id='ANONYMOUS ', fmtdat='(2E16.6)'
 volume=1.0
 tramp=1.0
 $END
   4.257626e+03   6.034273e+01
   2.389313e+03   2.576500e+03
  -6.812867e+02   2.640913e+03
  -1.977687e+03   8.484957e+02
  -8.995563e+02  -5.738428e+02
   6.181074e+02  -5.015223e+02
   8.374424e+02   4.375360e+02
  -2.436508e+01   1.043034e+03
  -8.542399e+02   7.530440e+02
  -9.445211e+02  -1.124978e+02
  -4.308021e+02  -8.855785e+02
   2.784798e+02  -8.808491e+02
   6.285860e+02  -9.659119e+01
   3.476253e+02   7.226280e+02
  -2.922070e+02   7.233349e+02
  -6.046449e+02  -2.923400e+01
  -2.662992e+02  -6.956726e+02
   3.268855e+02  -6.541962e+02
   5.929821e+02  -1.137870e+02
   4.002193e+02   3.616625e+02
   1.731492e+01   4.434089e+02
  -2.465037e+02   2.573523e+02
  -2.012792e+02   2.102984e+00
   1.494325e+02  -6.684839e+01
   4.221029e+02   1.665855e+02
   1.675222e+02   4.689741e+02
  -5.037610e+02   3.942493e+02
  -8.555751e+02  -1.219278e+02
  -3.930875e+02  -5.666030e+02
   4.186691e+02  -4.610644e+02
   7.451509e+02   6.538803e+01
   3.276702e+02   5.035978e+02
  -3.090387e+02   5.135973e+02
  -5.801103e+02   1.765009e+02
  -4.063862e+02  -2.548652e+02
  -4.027305e+01  -4.708833e+02
   2.022081e+02  -2.423387e+02
   1.389388e+02   2.478338e+02
  -2.129842e+02   4.230601e+02
  -4.477676e+02  -5.800685e+01
  -2.008990e+02  -6.947933e+02
   3.456190e+02  -6.689140e+02
   5.921586e+02   2.843486e+01
   2.238945e+02   5.632227e+02
  -3.057340e+02   2.942943e+02
  -3.688283e+02  -3.531602e+02
   9.480957e+01  -5.581288e+02
   5.788501e+02  -1.235755e+02
   6.067937e+02   4.360097e+02
   1.581416e+02   6.156698e+02
  -4.061712e+02   3.511172e+02
  -6.496899e+02  -9.597553e+01
  -3.752720e+02  -4.029834e+02
   1.587091e+02  -3.514080e+02
   4.373938e+02  -4.220459e+01
   2.278093e+02   1.881458e+02
  -1.223006e+02   8.789355e+01
  -1.286293e+02  -1.603208e+02
   1.767145e+02  -1.808600e+02
   3.480884e+02   7.836616e+01
   1.402792e+02   3.026504e+02
  -2.061717e+02   2.707857e+02
  -3.463936e+02   8.484583e+01
  -2.218683e+02  -9.744903e+01
   1.838830e+01  -2.552602e+02
   2.464677e+02  -3.498337e+02
   3.743302e+02  -2.134276e+02
   3.056777e+02   1.605016e+02
   6.928537e+01   4.489134e+02
  -1.229846e+02   3.901205e+02
  -1.217992e+02   1.211955e+02
  -2.363291e+01   3.050063e+00
  -5.738035e+01   9.692662e+01
  -2.130656e+02   1.226594e+02
  -2.913575e+02  -7.241691e+01
  -1.568816e+02  -2.893269e+02
   8.592364e+01  -2.654606e+02
   2.411806e+02  -2.543936e+00
   2.044779e+02   2.601840e+02
  -1.849225e+01   3.103146e+02
  -2.808082e+02   1.189790e+02
  -3.729360e+02  -1.733679e+02
  -1.912889e+02  -3.580086e+02
   1.000373e+02  -3.086859e+02
   2.293774e+02  -1.221891e+02
   1.535194e+02  -9.499922e+00
   1.023465e+02  -4.177877e+01
   2.429388e+02  -6.651330e+01
   4.174241e+02   6.122003e+01
   3.482006e+02   2.953385e+02
   2.600210e+00   4.569370e+02
  -3.771788e+02   4.266250e+02
  -5.076735e+02   2.005249e+02
  -3.450182e+02  -1.082190e+02
  -4.600658e+01  -3.060502e+02
   1.384344e+02  -2.516262e+02
   7.897426e+01  -2.068355e+01
  -1.194743e+02   1.095819e+02
  -1.970685e+02  -1.455799e+01
  -4.447156e+01  -1.989444e+02
   1.657022e+02  -1.666550e+02
   1.750327e+02   6.660303e+01
  -2.296145e+01   1.914894e+02
  -2.004488e+02   2.877858e+01
  -1.693480e+02  -2.527420e+02
   3.092364e+01  -3.609217e+02
   2.408744e+02  -2.038908e+02
   3.411092e+02   6.246804e+01
   2.854971e+02   2.543585e+02
   8.797274e+01   2.817172e+02
  -1.273520e+02   1.654196e+02
  -1.850011e+02   1.206815e+01
  -5.677047e+01  -3.862716e+01
   7.247969e+01   4.259737e+01
   2.528174e+01   1.315688e+02
  -1.321575e+02   9.828522e+01
  -1.847879e+02  -1.934898e+01
  -5.653985e+01  -8.031363e+01
   8.725297e+01  -1.954940e+01
   6.228604e+01   7.714714e+01
  -1.235568e+02   9.359818e+01
  -2.890718e+02  -4.942427e-01
  -2.667348e+02  -1.460080e+02
  -5.552691e+01  -2.670270e+02
   1.943340e+02  -2.639392e+02
   2.910374e+02  -1.205944e+02
   1.706931e+02   5.893056e+01
  -3.023644e+01   1.122645e+02
  -9.305411e+01   2.952233e+00
   3.592883e+01  -1.081719e+02
   2.024240e+02  -6.037032e+01
   2.206641e+02   1.105930e+02
   6.928376e+01   2.177973e+02
  -9.998566e+01   1.611163e+02
  -1.479056e+02   2.714352e+01
  -6.958917e+01  -4.580209e+01
   3.147452e+01  -1.262417e+00
   3.835752e+01   9.094955e+01
  -7.658286e+01   1.209024e+02
  -2.067464e+02   2.982560e+01
  -1.972474e+02  -1.303201e+02
  -2.052250e+01  -2.282673e+02
   1.710756e+02  -1.690704e+02
   2.003562e+02  -4.376451e+00
   6.672875e+01   1.201886e+02
  -7.055029e+01   1.146815e+02
  -8.725903e+01   2.915403e+01
  -1.705127e+01  -2.882189e+01
   2.618397e+01  -1.759437e+01
  -7.524387e+00   1.042439e+01
  -7.435856e+01  -7.016271e+00
  -9.358466e+01  -8.584679e+01
  -1.486968e+01  -1.648013e+02
   1.338248e+02  -1.552442e+02
   2.426305e+02  -2.047030e+01
   2.045023e+02   1.590285e+02
   3.794639e+01   2.434555e+02
  -1.158597e+02   1.709303e+02
  -1.394578e+02   2.484278e+01
  -7.162189e+01  -5.701831e+01
  -2.905071e+01  -3.578958e+01
  -5.527541e+01   1.195906e+01
  -8.200962e+01   7.911022e+00
  -4.438397e+01  -4.968823e+01
   4.203598e+01  -9.014884e+01
   1.042700e+02  -5.825381e+01
   8.836135e+01   3.618237e+01
  -1.358941e+01   1.152723e+02
  -1.484186e+02   8.916234e+01
  -2.054772e+02  -5.554819e+01
  -1.015833e+02  -2.126242e+02
   1.150463e+02  -2.389522e+02
   2.826893e+02  -9.726261e+01
   2.670244e+02   9.138941e+01
   1.100921e+02   1.846096e+02
  -4.267893e+01   1.531384e+02
  -9.759612e+01   8.612034e+01
  -7.943507e+01   7.022202e+01
  -6.820573e+01   9.229978e+01
  -9.692331e+01   7.619696e+01
  -1.346399e+02  -2.449480e+01
  -1.191544e+02  -1.640006e+02
  -2.507044e+01  -2.345977e+02
   1.080641e+02  -1.773049e+02
   1.834884e+02  -1.719757e+01
   1.389654e+02   1.295744e+02
   1.648106e+01   1.673187e+02
  -7.367989e+01   9.329040e+01
  -6.498870e+01  -3.908012e+00
  -4.124253e+00  -4.773958e+01
   1.392035e+01  -3.556342e+01
  -3.493436e+01  -1.790593e+01
  -7.979875e+01  -2.298562e+01
  -4.489115e+01  -4.198535e+01
   6.701732e+01  -4.056917e+01
   1.653675e+02  -1.126484e+00
   1.496919e+02   5.950053e+01
   1.414417e+01   9.621975e+01
  -1.254665e+02   7.706972e+01
  -1.472899e+02   1.102966e+01
  -4.867462e+01  -4.493141e+01
   6.141688e+01  -3.874664e+01
   7.773534e+01   2.171926e+01
   8.906652e+00   7.360933e+01
  -5.675727e+01   5.982549e+01
  -6.556688e+01  -3.805753e+00
  -4.621198e+01  -5.194460e+01
  -4.289998e+01  -3.978771e+01
  -6.231131e+01   1.093308e-01
  -6.835861e+01  -2.098379e-01
  -3.991529e+01  -7.239425e+01
   3.340496e+01  -1.544820e+02
   1.225735e+02  -1.452376e+02
   1.714144e+02  -3.282763e+01
   1.269459e+02   9.566956e+01
   4.753358e+00   1.301833e+02
  -8.775833e+01   6.118117e+01
  -6.022762e+01  -1.850921e+01
   5.979682e+01  -2.193848e+01
   1.373247e+02   4.824287e+01
   7.608166e+01   1.128008e+02
  -8.212337e+01   1.140385e+02
  -1.932762e+02   5.038282e+01
  -1.656648e+02  -3.831519e+01
  -3.812940e+01  -9.043879e+01
   6.359432e+01  -6.977583e+01
   5.217590e+01  -5.086112e+00
  -3.965983e+01   2.876811e+01
  -9.422055e+01  -2.307681e+01
  -3.516778e+01  -1.212458e+02
   9.285175e+01  -1.570236e+02
   1.713322e+02  -6.130615e+01
   1.285518e+02   1.037218e+02
   7.983019e+00   2.008635e+02
  -9.157825e+01   1.453360e+02
  -1.090838e+02  -1.017047e+01
  -6.067578e+01  -1.224802e+02
   5.171759e+00  -1.074433e+02
   4.972538e+01  -1.922229e+01
   5.085321e+01   3.171216e+01
   2.261191e+01   7.679956e+00
   4.942757e+00  -2.091275e+01
   2.316115e+01   1.661070e+01
   5.712333e+01   9.079176e+01
   3.854076e+01   1.114319e+02
  -5.137911e+01   4.693833e+01
  -1.410108e+02  -4.051054e+01
  -1.301255e+02  -7.597905e+01
  -1.621060e+01  -5.415648e+01
   9.040009e+01  -2.189068e+01
   9.057545e+01  -3.552995e+00
   1.159891e+01   9.271526e+00
  -4.000373e+01   2.123034e+01
  -1.640001e+01   1.537644e+01
   2.057210e+01  -6.593733e-01
  -4.834937e+00  -7.239127e+00
  -7.370257e+01  -3.927601e+00
  -9.226149e+01  -2.614252e+01
  -9.052448e+00  -8.224477e+01
   1.191936e+02  -1.146829e+02
   1.883329e+02  -5.645981e+01
   1.434862e+02   6.974627e+01
   2.364449e+01   1.645429e+02
  -8.260749e+01   1.520345e+02
  -1.168262e+02   5.848018e+01
  -8.297355e+01  -2.451173e+01
  -2.506336e+01  -3.877389e+01
   2.298664e+00  -8.699164e+00
  -1.171845e+01  -3.242700e+00
  -3.303789e+01  -4.752171e+01
  -2.149840e+01  -9.466622e+01
   3.080462e+01  -7.397506e+01
   8.232333e+01   1.874257e+01
   7.650455e+01   1.102361e+02
   2.480895e+00   1.127646e+02
  -8.442597e+01   2.313953e+01
  -1.044213e+02  -7.730120e+01
  -3.163464e+01  -1.061838e+02
   6.890956e+01  -5.802709e+01
   1.002212e+02   1.224027e+01
   4.078909e+01   5.309535e+01
  -3.278818e+01   5.346132e+01
  -3.310770e+01   2.776500e+01
   3.217656e+01   6.316844e-02
   6.991434e+01  -4.523626e+00
   1.598164e+01   2.763908e+01
  -8.038499e+01   6.544177e+01
  -1.205848e+02   5.409054e+01
  -6.780499e+01  -1.641693e+01
   1.643273e+01  -8.500599e+01
   5.713949e+01  -7.958628e+01
   4.067494e+01  -5.565142e+00
   2.791980e+00   5.633900e+01
  -2.692890e+01   4.359507e+01
  -3.668766e+01  -1.836837e+01
  -2.470732e+01  -5.536788e+01
   3.597411e+00  -3.460776e+01
   3.317191e+01   9.244006e+00
   3.958471e+01   2.270253e+01
   1.997638e+01   1.797144e+00
  -1.470534e+00  -1.570211e+01
  -8.442316e+00   9.427982e-01
  -7.100322e+00   3.537153e+01
  -1.576904e+01   4.432465e+01
  -3.203730e+01   7.582335e+00
  -3.100650e+01  -4.500501e+01
   1.832622e+00  -6.087341e+01
   4.613974e+01  -2.012063e+01
   5.774274e+01   4.114305e+01
   1.367672e+01   6.511450e+01
  -5.696931e+01   3.509924e+01
  -9.148169e+01  -1.527726e+01
  -5.001092e+01  -4.552187e+01
   2.985421e+01  -4.182970e+01
   6.625058e+01  -2.166978e+01
   2.349196e+01  -4.416388e+00
  -3.704676e+01  -2.423295e+00
  -3.642255e+01  -1.601456e+01
   3.111289e+01  -3.093703e+01
   9.035936e+01  -1.844611e+01
