
 $NMID
 id='ANONYMOUS ', fmtdat='(2E16.6)'
 volume=1.0
 tramp=1.0
 $END
  -4.287888e+03  -4.004420e+01
  -2.444954e+03  -2.570195e+03
   6.471315e+02  -2.691479e+03
   2.000005e+03  -9.014925e+02
   9.307520e+02   5.485712e+02
  -5.739553e+02   5.199467e+02
  -8.266017e+02  -4.033663e+02
   9.948671e+00  -1.030208e+03
   8.300583e+02  -7.637785e+02
   9.361617e+02   8.938335e+01
   4.467594e+02   8.707035e+02
  -2.519019e+02   9.009546e+02
  -6.211344e+02   1.147294e+02
  -3.572505e+02  -7.190269e+02
   2.818585e+02  -7.386971e+02
   6.130968e+02   1.536925e+01
   2.827495e+02   7.067216e+02
  -3.215398e+02   6.806843e+02
  -6.015839e+02   1.302550e+02
  -4.260656e+02  -3.676850e+02
  -2.845659e+01  -4.578668e+02
   2.437715e+02  -2.674077e+02
   2.029082e+02  -5.812635e+00
  -1.469092e+02   6.393892e+01
  -4.177049e+02  -1.670752e+02
  -1.622888e+02  -4.652339e+02
   5.035393e+02  -3.848189e+02
   8.471063e+02   1.222483e+02
   3.848723e+02   5.668347e+02
  -4.210912e+02   4.548490e+02
  -7.457787e+02  -7.096026e+01
  -3.266564e+02  -5.030565e+02
   3.104439e+02  -5.193822e+02
   5.859876e+02  -1.816706e+02
   4.123230e+02   2.531128e+02
   5.272670e+01   4.717263e+02
  -1.899305e+02   2.481234e+02
  -1.306112e+02  -2.366915e+02
   2.086138e+02  -4.158629e+02
   4.385409e+02   6.054047e+01
   2.015143e+02   6.906503e+02
  -3.350755e+02   6.702761e+02
  -5.848491e+02  -2.238368e+01
  -2.268655e+02  -5.580224e+02
   3.010304e+02  -2.911657e+02
   3.637021e+02   3.557138e+02
  -9.747922e+01   5.597627e+02
  -5.833967e+02   1.238155e+02
  -6.092247e+02  -4.379292e+02
  -1.623203e+02  -6.208579e+02
   4.045414e+02  -3.562821e+02
   6.543858e+02   9.148593e+01
   3.858951e+02   4.032672e+02
  -1.515401e+02   3.583483e+02
  -4.405376e+02   5.525184e+01
  -2.409026e+02  -1.798236e+02
   1.126447e+02  -8.827295e+01
   1.292323e+02   1.532834e+02
  -1.742803e+02   1.783786e+02
  -3.526341e+02  -7.477463e+01
  -1.484544e+02  -3.055781e+02
   2.107040e+02  -2.822930e+02
   3.632193e+02  -8.762653e+01
   2.331130e+02   1.074184e+02
  -2.439520e+01   2.727003e+02
  -2.613397e+02   3.559491e+02
  -3.845681e+02   2.084762e+02
  -3.051965e+02  -1.654114e+02
  -7.116522e+01  -4.529300e+02
   1.182505e+02  -3.917796e+02
   1.158204e+02  -1.301824e+02
   2.756800e+01  -1.403642e+01
   6.730192e+01  -1.022688e+02
   2.241297e+02  -1.220276e+02
   2.973222e+02   7.803938e+01
   1.546122e+02   2.975391e+02
  -9.336939e+01   2.688677e+02
  -2.462440e+02  -3.231074e+00
  -2.038343e+02  -2.686619e+02
   2.390473e+01  -3.133833e+02
   2.862973e+02  -1.152034e+02
   3.769196e+02   1.777826e+02
   1.922639e+02   3.612592e+02
  -1.003033e+02   3.106289e+02
  -2.311826e+02   1.288456e+02
  -1.581258e+02   1.376197e+01
  -1.086180e+02   4.451439e+01
  -2.512782e+02   6.624745e+01
  -4.297594e+02  -6.581849e+01
  -3.583337e+02  -3.064198e+02
  -3.165443e-01  -4.721113e+02
   3.872491e+02  -4.409970e+02
   5.216493e+02  -2.057618e+02
   3.520422e+02   1.115391e+02
   4.690062e+01   3.102965e+02
  -1.365604e+02   2.548517e+02
  -7.429156e+01   2.268597e+01
   1.229857e+02  -1.071762e+02
   1.977050e+02   1.672750e+01
   4.403276e+01   2.004941e+02
  -1.659562e+02   1.673685e+02
  -1.749517e+02  -6.793388e+01
   2.663398e+01  -1.947114e+02
   2.076189e+02  -2.815756e+01
   1.773869e+02   2.637744e+02
  -3.057058e+01   3.773366e+02
  -2.525751e+02   2.150126e+02
  -3.595751e+02  -6.617139e+01
  -2.957671e+02  -2.661180e+02
  -8.617041e+01  -2.915363e+02
   1.324095e+02  -1.679013e+02
   1.874968e+02  -1.196930e+01
   5.465235e+01   3.660925e+01
  -7.314848e+01  -4.820822e+01
  -2.294853e+01  -1.361632e+02
   1.387387e+02  -9.947435e+01
   1.888109e+02   2.183836e+01
   5.492804e+01   8.232860e+01
  -9.073140e+01   1.793655e+01
  -6.161762e+01  -8.204744e+01
   1.313450e+02  -9.568204e+01
   2.979868e+02   4.657129e+00
   2.708816e+02   1.531869e+02
   5.332703e+01   2.748715e+02
  -2.018598e+02   2.691515e+02
  -2.982664e+02   1.215453e+02
  -1.737007e+02  -6.064505e+01
   3.134674e+01  -1.139921e+02
   9.319035e+01  -2.154432e+00
  -3.833899e+01   1.098561e+02
  -2.064077e+02   6.009711e+01
  -2.237478e+02  -1.141026e+02
  -6.900324e+01  -2.218351e+02
   1.029741e+02  -1.630262e+02
   1.491198e+02  -2.442165e+01
   6.797988e+01   4.706211e+01
  -3.452046e+01  -1.993354e+00
  -3.828803e+01  -9.750994e+01
   8.227751e+01  -1.262964e+02
   2.153031e+02  -3.010309e+01
   2.032761e+02   1.356549e+02
   2.162932e+01   2.356345e+02
  -1.757212e+02   1.749709e+02
  -2.044342e+02   5.433816e+00
  -6.718798e+01  -1.224551e+02
   7.234435e+01  -1.167443e+02
   8.765674e+01  -2.891764e+01
   1.525447e+01   3.000007e+01
  -2.941854e+01   1.631202e+01
   7.961984e+00  -1.401599e+01
   7.904239e+01   6.126061e+00
   9.753004e+01   8.989391e+01
   1.343959e+01   1.717056e+02
  -1.404579e+02   1.584915e+02
  -2.494261e+02   1.873458e+01
  -2.077182e+02  -1.658895e+02
  -3.682067e+01  -2.512250e+02
   1.206077e+02  -1.754787e+02
   1.435654e+02  -2.429834e+01
   7.360894e+01   6.002894e+01
   2.866113e+01   3.686808e+01
   5.653791e+01  -1.406933e+01
   8.607595e+01  -8.393024e+00
   4.793589e+01   5.353396e+01
  -4.327827e+01   9.646527e+01
  -1.115178e+02   6.143565e+01
  -9.513886e+01  -4.041062e+01
   1.477802e+01  -1.232634e+02
   1.576627e+02  -9.351634e+01
   2.154772e+02   5.896297e+01
   1.030989e+02   2.216874e+02
  -1.213905e+02   2.463868e+02
  -2.916161e+02   1.011139e+02
  -2.734404e+02  -9.402834e+01
  -1.121937e+02  -1.900994e+02
   4.390497e+01  -1.566801e+02
   9.869015e+01  -8.728916e+01
   8.005979e+01  -7.138142e+01
   6.977871e+01  -9.633355e+01
   1.006676e+02  -8.014326e+01
   1.398956e+02   2.476236e+01
   1.240263e+02   1.696538e+02
   2.606281e+01   2.425703e+02
  -1.117230e+02   1.813328e+02
  -1.878878e+02   1.622855e+01
  -1.411866e+02  -1.345447e+02
  -1.519663e+01  -1.715049e+02
   7.689312e+01  -9.432139e+01
   6.738957e+01   5.993554e+00
   3.344872e+00   5.093037e+01
  -1.683245e+01   3.716046e+01
   3.433941e+01   1.712764e+01
   8.221989e+01   2.231589e+01
   4.725899e+01   4.353451e+01
  -6.918375e+01   4.321465e+01
  -1.716802e+02   1.381867e+00
  -1.543201e+02  -6.303930e+01
  -1.212018e+01  -1.010713e+02
   1.319279e+02  -7.894944e+01
   1.524414e+02  -8.917974e+00
   4.938704e+01   4.852247e+01
  -6.443406e+01   4.134651e+01
  -8.141687e+01  -2.256783e+01
  -9.655638e+00  -7.689041e+01
   5.786165e+01  -6.271254e+01
   6.817755e+01   3.343929e+00
   4.829863e+01   5.319771e+01
   4.453560e+01   4.170209e+01
   6.439567e+01  -4.892979e-01
   7.197550e+01  -1.739917e-01
   4.286320e+01   7.555273e+01
  -3.413211e+01   1.617424e+02
  -1.282015e+02   1.509004e+02
  -1.789784e+02   3.267361e+01
  -1.320854e+02  -1.002646e+02
  -5.179840e+00  -1.356000e+02
   9.086569e+01  -6.416820e+01
   6.214039e+01   1.879908e+01
  -6.172624e+01   2.310888e+01
  -1.417345e+02  -4.993080e+01
  -7.773870e+01  -1.168457e+02
   8.562305e+01  -1.180069e+02
   1.991804e+02  -4.934985e+01
   1.697609e+02   4.238877e+01
   3.747472e+01   9.348400e+01
  -6.625249e+01   6.956303e+01
  -5.305400e+01   2.834992e+00
   4.215046e+01  -3.056391e+01
   9.833325e+01   2.409184e+01
   3.659198e+01   1.259017e+02
  -9.538885e+01   1.620971e+02
  -1.755130e+02   6.412643e+01
  -1.317577e+02  -1.067918e+02
  -8.444673e+00  -2.056671e+02
   9.374543e+01  -1.491114e+02
   1.122120e+02   1.028895e+01
   6.196078e+01   1.267370e+02
  -6.082765e+00   1.103376e+02
  -5.119766e+01   1.901068e+01
  -5.188124e+01  -3.243217e+01
  -2.311002e+01  -6.982213e+00
  -5.300292e+00   2.232495e+01
  -2.514604e+01  -1.729253e+01
  -6.019698e+01  -9.434719e+01
  -3.936025e+01  -1.154108e+02
   5.442667e+01  -4.924877e+01
   1.459282e+02   4.085063e+01
   1.343497e+02   7.747862e+01
   1.720697e+01   5.781794e+01
  -9.244832e+01   2.437587e+01
  -9.289599e+01   3.576395e+00
  -1.253326e+01  -1.192081e+01
   4.126324e+01  -2.342454e+01
   1.766602e+01  -1.492922e+01
  -2.087498e+01   2.459376e+00
   4.851754e+00   7.576292e+00
   7.560322e+01   2.226674e+00
   9.684056e+01   2.499460e+01
   1.276332e+01   8.604679e+01
  -1.205817e+02   1.222945e+02
  -1.954374e+02   6.236769e+01
  -1.521548e+02  -7.058242e+01
  -2.722719e+01  -1.716198e+02
   8.484403e+01  -1.592667e+02
   1.210514e+02  -6.052306e+01
   8.536194e+01   2.582868e+01
   2.617788e+01   4.016980e+01
  -2.030222e+00   9.076834e+00
   1.210058e+01   3.209517e+00
   3.368020e+01   4.852321e+01
   2.153814e+01   9.708049e+01
  -3.221933e+01   7.598497e+01
  -8.459209e+01  -1.893123e+01
  -7.963353e+01  -1.131757e+02
  -3.068163e+00  -1.169567e+02
   8.737388e+01  -2.480110e+01
   1.085391e+02   7.881533e+01
   3.376126e+01   1.098620e+02
  -7.128129e+01   6.152506e+01
  -1.045984e+02  -1.165230e+01
  -4.265261e+01  -5.539479e+01
   3.406507e+01  -5.619885e+01
   3.487871e+01  -2.798718e+01
  -3.326427e+01   1.004846e+00
  -7.255886e+01   4.559411e+00
  -1.661920e+01  -2.991829e+01
   8.226824e+01  -6.784914e+01
   1.236960e+02  -5.484956e+01
   7.006269e+01   1.802873e+01
  -1.635111e+01   8.859304e+01
  -5.926022e+01   8.241407e+01
  -4.257775e+01   5.316181e+00
  -3.587922e+00  -5.869200e+01
   2.794766e+01  -4.549397e+01
   3.845158e+01   1.927149e+01
   2.575922e+01   5.771159e+01
  -4.013343e+00   3.576448e+01
  -3.457162e+01  -9.682735e+00
  -4.094717e+01  -2.382295e+01
  -2.017304e+01  -1.733963e+00
   1.622620e+00   1.626712e+01
   8.231471e+00  -6.629667e-01
   6.012664e+00  -3.708512e+01
   1.491922e+01  -4.693513e+01
   3.344421e+01  -9.115598e+00
   3.410756e+01   4.572126e+01
   3.473612e-01   6.344495e+01
  -4.709749e+01   2.222849e+01
  -6.085391e+01  -4.083617e+01
  -1.574729e+01  -6.693024e+01
   5.881091e+01  -3.774681e+01
   9.491396e+01   1.430171e+01
   5.231918e+01   4.626536e+01
  -3.012708e+01   4.354516e+01
  -6.745680e+01   2.348574e+01
  -2.461707e+01   5.054785e+00
   3.766204e+01   1.879419e+00
   3.769565e+01   1.617253e+01
  -3.175962e+01   3.263670e+01
  -9.290035e+01   2.042403e+01
