
 $NMID
 id='ANONYMOUS ', fmtdat='(2E16.6)'
 volume=1.0
 tramp=1.0
 $END
   4.298329e+03   2.752653e+01
   2.447743e+03   2.530052e+03
  -6.552060e+02   2.734447e+03
  -2.046663e+03   9.229425e+02
  -9.851472e+02  -5.789532e+02
   5.600658e+02  -5.820659e+02
   8.714244e+02   3.900164e+02
   2.358964e+01   1.058562e+03
  -8.348751e+02   7.924963e+02
  -9.617128e+02  -8.052444e+01
  -4.641821e+02  -8.728016e+02
   2.427646e+02  -9.056087e+02
   6.371061e+02  -1.202771e+02
   3.719413e+02   7.208870e+02
  -2.810060e+02   7.468134e+02
  -6.208235e+02  -1.039005e+01
  -2.856090e+02  -7.094323e+02
   3.282271e+02  -6.761963e+02
   6.011347e+02  -1.203103e+02
   4.333528e+02   3.585555e+02
   2.749628e+01   4.586964e+02
  -2.457518e+02   2.671052e+02
  -2.112526e+02   6.229519e+00
   1.395847e+02  -7.516975e+01
   4.145128e+02   1.519339e+02
   1.753849e+02   4.567296e+02
  -4.870210e+02   4.008112e+02
  -8.449384e+02  -9.921717e+01
  -4.091898e+02  -5.597775e+02
   4.055778e+02  -4.676473e+02
   7.484127e+02   5.739509e+01
   3.364923e+02   5.028749e+02
  -3.025733e+02   5.229414e+02
  -5.859104e+02   1.885035e+02
  -4.148830e+02  -2.493569e+02
  -5.829137e+01  -4.660908e+02
   1.892414e+02  -2.539747e+02
   1.375946e+02   2.268676e+02
  -1.975866e+02   4.094570e+02
  -4.411659e+02  -5.036865e+01
  -2.197555e+02  -6.837550e+02
   3.256662e+02  -6.778977e+02
   5.931864e+02   9.891502e+00
   2.459629e+02   5.561778e+02
  -3.000575e+02   3.096863e+02
  -3.808122e+02  -3.454217e+02
   8.492831e+01  -5.660719e+02
   5.810770e+02  -1.373504e+02
   6.150022e+02   4.292064e+02
   1.661139e+02   6.202595e+02
  -3.999798e+02   3.599272e+02
  -6.470249e+02  -8.707273e+01
  -3.819586e+02  -4.006926e+02
   1.539098e+02  -3.597776e+02
   4.409353e+02  -5.364309e+01
   2.378491e+02   1.880894e+02
  -1.195526e+02   9.229021e+01
  -1.374503e+02  -1.546294e+02
   1.676032e+02  -1.815392e+02
   3.523653e+02   7.024509e+01
   1.514060e+02   3.045612e+02
  -2.074932e+02   2.805344e+02
  -3.613052e+02   8.589575e+01
  -2.289614e+02  -1.080901e+02
   2.407375e+01  -2.690560e+02
   2.574585e+02  -3.528640e+02
   3.803153e+02  -2.104442e+02
   3.052422e+02   1.633846e+02
   7.561790e+01   4.513171e+02
  -1.212873e+02   3.885456e+02
  -1.178842e+02   1.266035e+02
  -2.509835e+01   1.019701e+01
  -5.914702e+01   1.043608e+02
  -2.178310e+02   1.301868e+02
  -2.983352e+02  -6.895760e+01
  -1.602589e+02  -2.926412e+02
   8.528217e+01  -2.698411e+02
   2.416510e+02  -2.500693e+00
   2.043947e+02   2.626980e+02
  -1.878038e+01   3.107326e+02
  -2.831269e+02   1.189067e+02
  -3.791458e+02  -1.742192e+02
  -1.955735e+02  -3.612685e+02
   1.010409e+02  -3.123547e+02
   2.335815e+02  -1.290361e+02
   1.585541e+02  -1.111229e+01
   1.044463e+02  -3.998034e+01
   2.440787e+02  -6.688748e+01
   4.237543e+02   6.234356e+01
   3.554541e+02   2.993495e+02
   1.700917e+00   4.666182e+02
  -3.810009e+02   4.384257e+02
  -5.148077e+02   2.060410e+02
  -3.533807e+02  -1.081021e+02
  -5.178149e+01  -3.094433e+02
   1.359946e+02  -2.555473e+02
   7.970661e+01  -2.397788e+01
  -1.175251e+02   1.115963e+02
  -1.984846e+02  -1.302898e+01
  -4.835630e+01  -1.994689e+02
   1.644213e+02  -1.668456e+02
   1.755456e+02   6.658148e+01
  -2.491734e+01   1.950667e+02
  -2.066963e+02   3.063441e+01
  -1.771840e+02  -2.599130e+02
   3.004769e+01  -3.719511e+02
   2.474728e+02  -2.139051e+02
   3.525889e+02   6.050676e+01
   2.927060e+02   2.573365e+02
   8.923683e+01   2.853072e+02
  -1.266797e+02   1.688232e+02
  -1.852862e+02   1.582020e+01
  -5.443688e+01  -3.588084e+01
   7.459412e+01   4.591131e+01
   2.588360e+01   1.362668e+02
  -1.368602e+02   1.041709e+02
  -1.892075e+02  -1.779492e+01
  -5.772469e+01  -8.100241e+01
   8.805263e+01  -2.019833e+01
   6.128446e+01   7.887873e+01
  -1.294326e+02   9.633328e+01
  -2.933160e+02   6.051424e-01
  -2.689447e+02  -1.480399e+02
  -5.737246e+01  -2.721839e+02
   1.952296e+02  -2.710096e+02
   2.955235e+02  -1.259950e+02
   1.759561e+02   6.009427e+01
  -2.786890e+01   1.165476e+02
  -9.517688e+01   4.865461e+00
   3.343422e+01  -1.105486e+02
   2.050604e+02  -6.379658e+01
   2.263272e+02   1.108980e+02
   7.151581e+01   2.197607e+02
  -1.008768e+02   1.638917e+02
  -1.486403e+02   2.520567e+01
  -6.820854e+01  -4.625672e+01
   3.335470e+01   2.278053e-01
   3.873402e+01   9.440024e+01
  -7.856739e+01   1.245006e+02
  -2.101383e+02   3.211707e+01
  -2.018581e+02  -1.307242e+02
  -2.499534e+01  -2.322168e+02
   1.717557e+02  -1.756150e+02
   2.035689e+02  -7.595909e+00
   6.942885e+01   1.214100e+02
  -7.035825e+01   1.168886e+02
  -8.687217e+01   2.988928e+01
  -1.674996e+01  -3.011555e+01
   2.854677e+01  -1.800623e+01
  -7.300970e+00   1.255543e+01
  -7.652254e+01  -5.669951e+00
  -9.469151e+01  -8.641611e+01
  -1.398719e+01  -1.666301e+02
   1.359682e+02  -1.566351e+02
   2.446711e+02  -2.056205e+01
   2.063124e+02   1.614880e+02
   3.979444e+01   2.484594e+02
  -1.184917e+02   1.750204e+02
  -1.439579e+02   2.484169e+01
  -7.507559e+01  -5.946631e+01
  -2.816193e+01  -3.724855e+01
  -5.408464e+01   1.396918e+01
  -8.358358e+01   7.841172e+00
  -4.661886e+01  -5.251915e+01
   4.243190e+01  -9.413270e+01
   1.103770e+02  -6.033919e+01
   9.431891e+01   3.933487e+01
  -1.333790e+01   1.224461e+02
  -1.543323e+02   9.459093e+01
  -2.134505e+02  -5.522818e+01
  -1.042616e+02  -2.174564e+02
   1.163689e+02  -2.445685e+02
   2.846492e+02  -1.026663e+02
   2.707365e+02   9.070748e+01
   1.134159e+02   1.861301e+02
  -4.094408e+01   1.550892e+02
  -9.571738e+01   8.738402e+01
  -7.804496e+01   7.210812e+01
  -6.822631e+01   9.713504e+01
  -9.911324e+01   8.028298e+01
  -1.391557e+02  -2.267738e+01
  -1.247012e+02  -1.656348e+02
  -2.759510e+01  -2.399468e+02
   1.079982e+02  -1.802257e+02
   1.853306e+02  -1.806483e+01
   1.412731e+02   1.321609e+02
   1.670689e+01   1.703300e+02
  -7.636576e+01   9.421049e+01
  -6.748065e+01  -5.176267e+00
  -3.779951e+00  -4.994685e+01
   1.594635e+01  -3.633660e+01
  -3.433773e+01  -1.757340e+01
  -8.094667e+01  -2.188060e+01
  -4.644439e+01  -4.185527e+01
   6.684362e+01  -4.240686e+01
   1.671065e+02  -2.738372e+00
   1.522107e+02   5.976012e+01
   1.468995e+01   9.904203e+01
  -1.284490e+02   7.929893e+01
  -1.515089e+02   1.079608e+01
  -5.047682e+01  -4.785501e+01
   6.286067e+01  -4.283877e+01
   8.127922e+01   2.098196e+01
   1.046433e+01   7.646491e+01
  -5.693340e+01   6.354457e+01
  -6.760542e+01  -2.768522e+00
  -4.765732e+01  -5.232938e+01
  -4.388376e+01  -3.984312e+01
  -6.411328e+01   9.771053e-01
  -7.061524e+01   4.683821e-01
  -4.219716e+01  -7.420479e+01
   3.194132e+01  -1.583131e+02
   1.231719e+02  -1.479377e+02
   1.750191e+02  -3.345525e+01
   1.307568e+02   9.660494e+01
   6.495925e+00   1.327784e+02
  -8.925055e+01   6.417587e+01
  -6.150639e+01  -1.879236e+01
   6.077015e+01  -2.468648e+01
   1.411277e+02   4.678420e+01
   7.894128e+01   1.152141e+02
  -8.263162e+01   1.194609e+02
  -1.958351e+02   5.140968e+01
  -1.668707e+02  -3.977199e+01
  -3.799829e+01  -9.189823e+01
   6.404868e+01  -6.923579e+01
   5.149587e+01  -3.358882e+00
  -4.108384e+01   3.033466e+01
  -9.588841e+01  -2.297082e+01
  -3.643881e+01  -1.235339e+02
   9.221985e+01  -1.600338e+02
   1.719219e+02  -6.468440e+01
   1.316765e+02   1.049126e+02
   9.916287e+00   2.038591e+02
  -9.309442e+01   1.488917e+02
  -1.122892e+02  -9.494246e+00
  -6.188600e+01  -1.251632e+02
   4.743225e+00  -1.093889e+02
   5.033121e+01  -1.962219e+01
   5.228331e+01   3.167359e+01
   2.374047e+01   6.882320e+00
   5.122981e+00  -2.240515e+01
   2.527150e+01   1.574084e+01
   6.103632e+01   9.215653e+01
   4.077243e+01   1.152297e+02
  -5.324777e+01   5.169577e+01
  -1.450969e+02  -3.750364e+01
  -1.339930e+02  -7.668975e+01
  -1.692023e+01  -5.975121e+01
   9.146527e+01  -2.639101e+01
   9.180006e+01  -4.185067e+00
   1.248827e+01   1.214783e+01
  -4.022161e+01   2.321818e+01
  -1.659566e+01   1.480341e+01
   2.134433e+01  -2.625989e+00
  -4.682392e+00  -6.672857e+00
  -7.504134e+01  -1.229276e+00
  -9.510520e+01  -2.442456e+01
  -1.194168e+01  -8.472037e+01
   1.194990e+02  -1.209129e+02
   1.924139e+02  -6.076629e+01
   1.491188e+02   7.135581e+01
   2.707226e+01   1.712223e+02
  -8.353067e+01   1.569901e+02
  -1.189587e+02   5.886560e+01
  -8.420659e+01  -2.645328e+01
  -2.606746e+01  -3.997137e+01
   2.303162e+00  -8.699389e+00
  -1.110448e+01  -2.570086e+00
  -3.312464e+01  -4.758313e+01
  -2.162078e+01  -9.583147e+01
   3.209404e+01  -7.497782e+01
   8.452748e+01   1.888351e+01
   7.930646e+01   1.122607e+02
   3.070267e+00   1.165555e+02
  -8.751476e+01   2.553637e+01
  -1.085653e+02  -7.780215e+01
  -3.379614e+01  -1.090353e+02
   7.027938e+01  -6.161616e+01
   1.036541e+02   1.050696e+01
   4.287374e+01   5.414777e+01
  -3.257655e+01   5.581573e+01
  -3.371411e+01   2.851401e+01
   3.337595e+01  -4.804921e-01
   7.201104e+01  -4.500787e+00
   1.693254e+01   3.010563e+01
  -8.100824e+01   6.859181e+01
  -1.222830e+02   5.451035e+01
  -6.943449e+01  -1.770372e+01
   1.573115e+01  -8.757126e+01
   5.832109e+01  -8.138115e+01
   4.151977e+01  -5.205422e+00
   3.090873e+00   5.772920e+01
  -2.775592e+01   4.490705e+01
  -3.823748e+01  -1.893336e+01
  -2.572785e+01  -5.730311e+01
   3.955255e+00  -3.573519e+01
   3.472607e+01   9.148864e+00
   4.077839e+01   2.352892e+01
   2.047635e+01   1.586522e+00
  -1.266098e+00  -1.620121e+01
  -7.738271e+00   1.100904e+00
  -6.032565e+00   3.732155e+01
  -1.545771e+01   4.668464e+01
  -3.300967e+01   8.975201e+00
  -3.362640e+01  -4.526877e+01
  -5.024883e-01  -6.246172e+01
   4.582653e+01  -2.230982e+01
   5.953080e+01   3.951175e+01
   1.574729e+01   6.557414e+01
  -5.786255e+01   3.721314e+01
  -9.316477e+01  -1.434939e+01
  -5.149688e+01  -4.605012e+01
   3.001312e+01  -4.311277e+01
   6.635679e+01  -2.292280e+01
   2.393516e+01  -4.529574e+00
  -3.807714e+01  -1.358923e+00
  -3.821423e+01  -1.615808e+01
   3.082306e+01  -3.383611e+01
   9.182564e+01  -2.205553e+01
