
 $NMID
 id='ANONYMOUS ', fmtdat='(2E16.6)'
 volume=1.0
 tramp=1.0
 $END
   3.450474e+03  -1.368465e+02
   2.162067e+03   1.874707e+03
  -2.940831e+02   2.140597e+03
  -1.453429e+03   9.983526e+02
  -8.728001e+02  -1.336820e+02
   2.228884e+02  -3.383016e+02
   5.394890e+02   2.176879e+02
   4.212834e+01   7.046375e+02
  -5.469868e+02   6.435697e+02
  -7.232770e+02   2.827001e+01
  -4.235748e+02  -6.104017e+02
   9.618440e+01  -7.072721e+02
   4.191287e+02  -1.575541e+02
   2.992305e+02   4.964834e+02
  -1.471206e+02   5.923571e+02
  -4.563444e+02   5.503545e+01
  -2.872052e+02  -5.173547e+02
   1.693513e+02  -5.895713e+02
   4.710940e+02  -1.980366e+02
   3.879878e+02   2.202151e+02
   8.020135e+01   3.603532e+02
  -1.692563e+02   2.296561e+02
  -1.236931e+02   3.172535e+01
   1.509505e+02  -1.836383e+00
   3.237070e+02   1.909508e+02
   7.571855e+01   3.767264e+02
  -4.388064e+02   2.742286e+02
  -6.656605e+02  -1.182875e+02
  -2.883851e+02  -4.014685e+02
   3.292591e+02  -3.074665e+02
   5.620378e+02   7.676108e+01
   2.404630e+02   3.929368e+02
  -2.561454e+02   4.066069e+02
  -4.770365e+02   1.488107e+02
  -3.473464e+02  -1.891985e+02
  -6.753952e+01  -3.671781e+02
   1.076189e+02  -2.107042e+02
   4.303291e+01   1.430583e+02
  -1.770809e+02   2.499709e+02
  -2.952632e+02  -1.025279e+02
  -9.159973e+01  -5.499196e+02
   2.811889e+02  -5.124939e+02
   4.270181e+02   1.583998e+01
   1.659621e+02   3.961311e+02
  -2.053982e+02   2.013941e+02
  -2.486000e+02  -2.725352e+02
   9.171405e+01  -4.281940e+02
   4.631653e+02  -9.797635e+01
   4.996850e+02   3.529065e+02
   1.606697e+02   4.977741e+02
  -3.111065e+02   2.945453e+02
  -5.348770e+02  -5.268282e+01
  -3.327353e+02  -2.865648e+02
   8.534699e+01  -2.707628e+02
   3.258387e+02  -6.835401e+01
   2.012143e+02   8.737129e+01
  -4.484465e+01   4.868990e+01
  -7.828497e+01  -8.585558e+01
   1.241305e+02  -9.796200e+01
   2.653490e+02   5.456307e+01
   1.277428e+02   2.232517e+02
  -1.582140e+02   2.466208e+02
  -3.231763e+02   1.171968e+02
  -2.391265e+02  -8.440534e+01
   3.169906e+00  -2.799222e+02
   2.409355e+02  -3.480358e+02
   3.336886e+02  -1.722431e+02
   2.491188e+02   1.447216e+02
   5.318681e+01   3.606979e+02
  -6.860173e+01   3.055175e+02
  -5.530650e+01   1.227940e+02
  -2.085482e+01   5.394000e+01
  -8.193203e+01   1.108596e+02
  -2.105745e+02   9.587607e+01
  -2.454160e+02  -8.043914e+01
  -1.178246e+02  -2.476316e+02
   7.714976e+01  -2.090264e+02
   1.978736e+02   1.548681e+01
   1.575581e+02   2.281690e+02
  -2.763172e+01   2.553678e+02
  -2.430405e+02   8.539027e+01
  -3.144520e+02  -1.565738e+02
  -1.678303e+02  -2.971868e+02
   6.444839e+01  -2.644733e+02
   1.731179e+02  -1.329735e+02
   1.330314e+02  -5.315003e+01
   1.134458e+02  -6.283567e+01
   2.441282e+02  -5.797394e+01
   3.910867e+02   6.288130e+01
   3.177630e+02   2.705759e+02
  -4.300224e+00   4.199038e+02
  -3.391125e+02   3.853915e+02
  -4.467391e+02   1.782917e+02
  -2.922632e+02  -8.704496e+01
  -3.968825e+01  -2.531188e+02
   9.603283e+01  -2.079663e+02
   3.680732e+01  -3.122838e+01
  -1.039038e+02   6.168906e+01
  -1.447387e+02  -2.042558e+01
  -2.315822e+01  -1.496434e+02
   1.257251e+02  -1.197970e+02
   1.288927e+02   5.080008e+01
  -2.279940e+01   1.470867e+02
  -1.662871e+02   1.798386e+01
  -1.527647e+02  -2.180196e+02
   1.302141e+01  -3.234574e+02
   2.183303e+02  -2.011506e+02
   3.271711e+02   4.748144e+01
   2.656012e+02   2.332866e+02
   7.281958e+01   2.551404e+02
  -1.131290e+02   1.389891e+02
  -1.489841e+02   1.074259e+01
  -3.631978e+01  -1.759896e+01
   6.012647e+01   5.264843e+01
   1.163431e+01   1.156111e+02
  -1.164398e+02   7.860879e+01
  -1.490254e+02  -1.940328e+01
  -3.893611e+01  -5.738535e+01
   7.957177e+01   9.419004e-01
   4.689492e+01   8.405539e+01
  -1.297329e+02   9.435924e+01
  -2.792094e+02   6.219488e+00
  -2.556473e+02  -1.440439e+02
  -5.052108e+01  -2.495294e+02
   1.783866e+02  -2.415747e+02
   2.576120e+02  -1.093064e+02
   1.447762e+02   4.557895e+01
  -2.348293e+01   8.577314e+01
  -6.910219e+01  -2.429332e+00
   4.363950e+01  -8.583532e+01
   1.794791e+02  -4.195066e+01
   1.862610e+02   9.582628e+01
   5.542981e+01   1.861597e+02
  -8.776035e+01   1.381682e+02
  -1.273301e+02   1.830735e+01
  -5.309180e+01  -4.257937e+01
   3.977165e+01   4.986706e+00
   3.785815e+01   9.429605e+01
  -7.492689e+01   1.179144e+02
  -1.906534e+02   2.819956e+01
  -1.777019e+02  -1.165208e+02
  -1.880367e+01  -1.982275e+02
   1.448894e+02  -1.464448e+02
   1.689999e+02  -8.489707e+00
   5.691658e+01   9.738226e+01
  -5.915541e+01   9.561394e+01
  -7.272049e+01   2.363762e+01
  -8.302462e+00  -2.704463e+01
   3.063727e+01  -1.409656e+01
  -6.297794e+00   2.006090e+01
  -7.733538e+01   2.697386e+00
  -9.689109e+01  -7.887166e+01
  -1.774713e+01  -1.617304e+02
   1.244606e+02  -1.515106e+02
   2.258478e+02  -2.304273e+01
   1.921227e+02   1.447900e+02
   4.203037e+01   2.198156e+02
  -9.740057e+01   1.569409e+02
  -1.259709e+02   3.026841e+01
  -7.102946e+01  -4.498619e+01
  -3.010381e+01  -2.954808e+01
  -4.953019e+01   1.299487e+01
  -7.797709e+01   7.753077e+00
  -5.130707e+01  -4.904755e+01
   3.253065e+01  -9.458570e+01
   1.067065e+02  -6.288406e+01
   9.704811e+01   3.573446e+01
  -8.954157e+00   1.185640e+02
  -1.430936e+02   8.995392e+01
  -1.925131e+02  -5.061861e+01
  -9.169761e+01  -1.932958e+02
   1.021164e+02  -2.126570e+02
   2.462035e+02  -8.597714e+01
   2.342068e+02   7.744582e+01
   1.006716e+02   1.584133e+02
  -3.230019e+01   1.322422e+02
  -8.147496e+01   7.521361e+01
  -6.311991e+01   6.492489e+01
  -5.283599e+01   9.049803e+01
  -8.302953e+01   7.819213e+01
  -1.240686e+02  -1.141741e+01
  -1.159629e+02  -1.397670e+02
  -3.276581e+01  -2.113753e+02
   8.927803e+01  -1.614760e+02
   1.632198e+02  -1.731561e+01
   1.261382e+02   1.165100e+02
   1.346800e+01   1.486936e+02
  -7.112060e+01   8.000164e+01
  -6.123419e+01  -9.577041e+00
   4.990951e-01  -4.839393e+01
   2.072689e+01  -3.315357e+01
  -2.892947e+01  -1.072386e+01
  -7.934472e+01  -1.514789e+01
  -4.648428e+01  -3.870255e+01
   6.496362e+01  -4.267696e+01
   1.573161e+02  -8.554481e+00
   1.361916e+02   5.292849e+01
   9.198471e+00   9.253781e+01
  -1.182411e+02   7.652442e+01
  -1.359578e+02   1.091553e+01
  -4.416850e+01  -4.510106e+01
   5.531463e+01  -4.322716e+01
   7.387108e+01   1.600783e+01
   1.734543e+01   6.939450e+01
  -4.449447e+01   6.260696e+01
  -6.362689e+01   2.854423e+00
  -5.112376e+01  -4.615294e+01
  -4.333228e+01  -3.799584e+01
  -5.181592e+01   1.770221e+00
  -6.217182e+01   2.943762e+00
  -4.316900e+01  -6.523840e+01
   1.977798e+01  -1.430710e+02
   1.095672e+02  -1.399182e+02
   1.640404e+02  -3.671910e+01
   1.232518e+02   8.545256e+01
   7.336718e+00   1.236728e+02
  -8.337275e+01   6.388971e+01
  -5.933151e+01  -1.327545e+01
   5.443361e+01  -2.466257e+01
   1.294988e+02   3.315655e+01
   7.216576e+01   9.833791e+01
  -7.278715e+01   1.087685e+02
  -1.750396e+02   4.926238e+01
  -1.473944e+02  -3.337099e+01
  -3.102022e+01  -8.083005e+01
   5.847443e+01  -6.235874e+01
   4.527384e+01  -2.967561e+00
  -3.623042e+01   2.950791e+01
  -8.597233e+01  -1.612393e+01
  -3.689324e+01  -1.080745e+02
   7.467744e+01  -1.471906e+02
   1.501762e+02  -6.650497e+01
   1.221616e+02   8.490779e+01
   1.973769e+01   1.807517e+02
  -7.406452e+01   1.350989e+02
  -1.003407e+02  -7.449945e+00
  -5.931294e+01  -1.100420e+02
   5.748694e+00  -9.891929e+01
   4.706763e+01  -1.728017e+01
   4.596374e+01   2.801578e+01
   1.861711e+01   5.431343e+00
   5.324014e+00  -1.935380e+01
   2.884648e+01   1.623917e+01
   6.043743e+01   8.214281e+01
   3.751968e+01   9.998430e+01
  -4.966957e+01   4.463238e+01
  -1.295941e+02  -2.787967e+01
  -1.178067e+02  -6.116311e+01
  -1.647391e+01  -5.012375e+01
   7.691383e+01  -2.649055e+01
   8.046587e+01  -8.170544e+00
   1.486373e+01   9.868094e+00
  -3.263582e+01   2.092756e+01
  -1.576656e+01   1.363146e+01
   1.545924e+01  -2.879114e+00
  -2.612325e+00  -5.269053e+00
  -6.349237e+01   2.479076e+00
  -8.674868e+01  -1.801440e+01
  -2.042134e+01  -7.381573e+01
   9.807201e+01  -1.101620e+02
   1.714823e+02  -6.581677e+01
   1.412335e+02   5.021816e+01
   3.400118e+01   1.483510e+02
  -6.854350e+01   1.479781e+02
  -1.056995e+02   6.314691e+01
  -7.587288e+01  -1.955870e+01
  -2.597791e+01  -3.609820e+01
  -1.526503e+00  -1.007585e+01
  -1.196954e+01  -3.232023e+00
  -3.026055e+01  -4.244124e+01
  -2.177457e+01  -8.485131e+01
   2.541191e+01  -6.979262e+01
   7.517427e+01   1.121243e+01
   7.872507e+01   9.301719e+01
   1.475005e+01   1.029727e+02
  -7.179112e+01   3.067741e+01
  -1.016908e+02  -5.865315e+01
  -3.884601e+01  -9.460334e+01
   5.808576e+01  -6.124603e+01
   9.526137e+01   2.778579e+00
   4.347086e+01   4.954672e+01
  -2.769724e+01   5.619190e+01
  -3.181282e+01   2.827813e+01
   2.626757e+01  -6.720978e+00
   6.303031e+01  -1.046925e+01
   1.808591e+01   2.572469e+01
  -6.851896e+01   6.666124e+01
  -1.078142e+02   5.619101e+01
  -6.570362e+01  -1.283921e+01
   8.322694e+00  -7.969437e+01
   4.746411e+01  -7.873438e+01
   3.915710e+01  -1.109513e+01
   6.818422e+00   5.025655e+01
  -2.152455e+01   4.426844e+01
  -3.493069e+01  -1.139540e+01
  -2.770366e+01  -4.974126e+01
   5.513672e-01  -3.506882e+01
   3.120159e+01   4.611872e+00
   3.888666e+01   1.992529e+01
   1.973953e+01   2.172254e+00
  -3.359306e+00  -1.714277e+01
  -6.036430e+00  -4.949699e+00
   2.764363e+00   3.129176e+01
  -2.040232e+00   4.742126e+01
  -2.528398e+01   1.827909e+01
  -3.744218e+01  -3.336579e+01
  -1.159313e+01  -5.589707e+01
   3.736499e+01  -2.448226e+01
   5.794301e+01   2.960998e+01
   1.908613e+01   5.595776e+01
  -5.053444e+01   3.488591e+01
  -8.481925e+01  -8.136923e+00
  -4.807443e+01  -3.860978e+01
   2.454682e+01  -4.273497e+01
   5.871835e+01  -2.638508e+01
   2.560460e+01  -6.039080e+00
  -2.751336e+01   3.824011e+00
  -3.231293e+01  -8.055466e+00
   2.219488e+01  -2.632089e+01
   7.493637e+01  -2.223711e+01
