
 $NMID
 id='ANONYMOUS ', fmtdat='(2E16.6)'
 volume=1.0
 tramp=1.0
 $END
   3.808811e+03  -8.082231e+01
   2.239347e+03   2.194778e+03
  -5.699148e+02   2.349164e+03
  -1.736976e+03   8.943702e+02
  -8.650229e+02  -3.825134e+02
   4.351931e+02  -4.002616e+02
   6.756304e+02   3.457987e+02
  -4.198119e+00   8.449181e+02
  -6.733485e+02   6.606973e+02
  -7.956190e+02  -4.337850e+01
  -4.098899e+02  -7.003982e+02
   1.429026e+02  -7.721508e+02
   4.905873e+02  -1.272261e+02
   3.132833e+02   5.792225e+02
  -2.044168e+02   6.415059e+02
  -5.052568e+02   2.040646e+01
  -2.611277e+02  -5.876215e+02
   2.335640e+02  -6.072465e+02
   5.143996e+02  -1.577716e+02
   3.905317e+02   2.742047e+02
   5.232572e+01   3.894331e+02
  -1.972684e+02   2.396792e+02
  -1.545516e+02   2.333186e+01
   1.425207e+02  -2.847463e+01
   3.530116e+02   1.696058e+02
   1.075647e+02   3.972992e+02
  -4.576126e+02   3.116015e+02
  -7.260122e+02  -1.181446e+02
  -3.263304e+02  -4.758232e+02
   3.700326e+02  -3.632444e+02
   6.327591e+02   8.224869e+01
   2.696953e+02   4.397886e+02
  -2.806446e+02   4.480043e+02
  -5.206174e+02   1.520256e+02
  -3.670664e+02  -2.165135e+02
  -6.192847e+01  -4.023114e+02
   1.441218e+02  -2.195014e+02
   7.241744e+01   1.809223e+02
  -1.927346e+02   3.144987e+02
  -3.542722e+02  -8.801359e+01
  -1.334757e+02  -6.040307e+02
   3.040011e+02  -5.795616e+02
   4.838977e+02   9.333184e+00
   1.902789e+02   4.486338e+02
  -2.393494e+02   2.360180e+02
  -2.825349e+02  -2.967916e+02
   1.026622e+02  -4.668951e+02
   5.075152e+02  -1.017081e+02
   5.289463e+02   3.920296e+02
   1.480695e+02   5.372004e+02
  -3.469953e+02   3.064095e+02
  -5.664989e+02  -7.151598e+01
  -3.400864e+02  -3.258637e+02
   1.119685e+02  -2.959126e+02
   3.632337e+02  -5.603335e+01
   2.133090e+02   1.225066e+02
  -7.196313e+01   6.207168e+01
  -1.034982e+02  -1.109087e+02
   1.377245e+02  -1.257302e+02
   2.906515e+02   6.753430e+01
   1.301962e+02   2.528077e+02
  -1.819691e+02   2.468077e+02
  -3.282249e+02   9.392423e+01
  -2.233347e+02  -8.958455e+01
   1.733078e+01  -2.666156e+02
   2.398695e+02  -3.416904e+02
   3.406756e+02  -1.863780e+02
   2.637099e+02   1.455724e+02
   5.680851e+01   3.947409e+02
  -8.824773e+01   3.334774e+02
  -7.674472e+01   1.149203e+02
  -1.835127e+01   3.289070e+01
  -7.284281e+01   1.079269e+02
  -2.153448e+02   1.061345e+02
  -2.609841e+02  -7.634331e+01
  -1.281723e+02  -2.612335e+02
   8.055162e+01  -2.260894e+02
   2.083108e+02   9.552363e+00
   1.705675e+02   2.380806e+02
  -2.538105e+01   2.729068e+02
  -2.582426e+02   9.242823e+01
  -3.335620e+02  -1.710898e+02
  -1.706733e+02  -3.277995e+02
   8.511722e+01  -2.835547e+02
   1.963210e+02  -1.239951e+02
   1.372571e+02  -3.366970e+01
   1.077548e+02  -5.855364e+01
   2.458931e+02  -6.721240e+01
   4.061468e+02   6.344116e+01
   3.260880e+02   2.861433e+02
  -7.755056e+00   4.411440e+02
  -3.605523e+02   3.934183e+02
  -4.675660e+02   1.812874e+02
  -3.093292e+02  -9.306103e+01
  -4.350413e+01  -2.691974e+02
   1.066501e+02  -2.262750e+02
   5.219464e+01  -3.399928e+01
  -1.084834e+02   7.295825e+01
  -1.642077e+02  -1.693733e+01
  -3.170572e+01  -1.692110e+02
   1.431727e+02  -1.385959e+02
   1.489987e+02   5.874505e+01
  -2.473185e+01   1.668794e+02
  -1.799125e+02   2.108411e+01
  -1.529196e+02  -2.347570e+02
   2.666797e+01  -3.336884e+02
   2.291640e+02  -1.937758e+02
   3.284402e+02   6.037521e+01
   2.663193e+02   2.415556e+02
   7.442526e+01   2.623304e+02
  -1.192685e+02   1.446448e+02
  -1.623759e+02   8.206091e+00
  -4.333498e+01  -2.722030e+01
   6.543431e+01   4.844860e+01
   1.880607e+01   1.216520e+02
  -1.198558e+02   8.681726e+01
  -1.604520e+02  -1.944262e+01
  -4.372675e+01  -6.564653e+01
   8.425661e+01  -2.609992e+00
   5.053805e+01   8.569077e+01
  -1.315355e+02   9.460025e+01
  -2.875169e+02   2.879029e+00
  -2.634763e+02  -1.479026e+02
  -5.244436e+01  -2.575968e+02
   1.858102e+02  -2.516265e+02
   2.722829e+02  -1.142411e+02
   1.545310e+02   5.015948e+01
  -2.397658e+01   9.375791e+01
  -7.704993e+01   4.346408e-01
   4.254772e+01  -9.256736e+01
   1.875381e+02  -4.612642e+01
   1.962813e+02   1.025569e+02
   5.766732e+01   1.962774e+02
  -9.296917e+01   1.452027e+02
  -1.346385e+02   2.069277e+01
  -5.917946e+01  -4.390991e+01
   3.399714e+01   2.330828e+00
   3.519859e+01   9.045374e+01
  -7.605074e+01   1.141610e+02
  -1.938160e+02   2.474026e+01
  -1.801136e+02  -1.229340e+02
  -1.485818e+01  -2.069158e+02
   1.563519e+02  -1.503943e+02
   1.807503e+02  -4.246484e+00
   5.882493e+01   1.057807e+02
  -6.414706e+01   1.017189e+02
  -7.886097e+01   2.661845e+01
  -1.255609e+01  -2.686356e+01
   2.729434e+01  -1.556126e+01
  -7.324896e+00   1.532592e+01
  -7.651048e+01  -3.521094e+00
  -9.454672e+01  -8.235928e+01
  -1.567959e+01  -1.624454e+02
   1.277120e+02  -1.510092e+02
   2.299399e+02  -2.223017e+01
   1.975587e+02   1.491316e+02
   4.063344e+01   2.289388e+02
  -1.030275e+02   1.625803e+02
  -1.307131e+02   2.767741e+01
  -7.060275e+01  -5.000702e+01
  -2.910122e+01  -3.247119e+01
  -5.068699e+01   1.147690e+01
  -7.920164e+01   5.769934e+00
  -4.763382e+01  -5.021548e+01
   3.650598e+01  -9.200122e+01
   1.055685e+02  -5.980790e+01
   9.319765e+01   3.546638e+01
  -1.073447e+01   1.146622e+02
  -1.423217e+02   8.682747e+01
  -1.939116e+02  -5.227930e+01
  -9.342107e+01  -1.987954e+02
   1.073983e+02  -2.186439e+02
   2.564739e+02  -8.656823e+01
   2.430346e+02   8.472915e+01
   9.940705e+01   1.683125e+02
  -3.849442e+01   1.362457e+02
  -8.767447e+01   7.581934e+01
  -6.955110e+01   6.543665e+01
  -5.875264e+01   9.022855e+01
  -8.772600e+01   7.512530e+01
  -1.255047e+02  -1.770466e+01
  -1.144335e+02  -1.470876e+02
  -2.696808e+01  -2.166827e+02
   9.496079e+01  -1.641371e+02
   1.681158e+02  -1.521885e+01
   1.293952e+02   1.214762e+02
   1.547678e+01   1.540945e+02
  -6.939265e+01   8.434681e+01
  -6.122917e+01  -5.216627e+00
  -2.783528e+00  -4.501669e+01
   1.518040e+01  -3.317422e+01
  -3.221268e+01  -1.533232e+01
  -7.965181e+01  -1.968814e+01
  -4.528888e+01  -3.909987e+01
   6.514881e+01  -3.958492e+01
   1.591564e+02  -4.390741e+00
   1.389878e+02   5.504718e+01
   9.856186e+00   9.278848e+01
  -1.210744e+02   7.432831e+01
  -1.402609e+02   9.520554e+00
  -4.498324e+01  -4.366700e+01
   5.734439e+01  -3.975942e+01
   7.354764e+01   1.805920e+01
   1.253807e+01   6.776595e+01
  -4.933394e+01   5.864624e+01
  -6.304890e+01  -1.399802e-01
  -4.765679e+01  -4.732314e+01
  -4.294919e+01  -3.982270e+01
  -5.522745e+01  -1.333640e+00
  -6.245537e+01  -3.659779e-02
  -3.794588e+01  -6.634644e+01
   2.714604e+01  -1.415364e+02
   1.132262e+02  -1.362729e+02
   1.628701e+02  -3.302753e+01
   1.205219e+02   8.865248e+01
   5.541195e+00   1.241708e+02
  -8.367990e+01   6.272515e+01
  -5.853480e+01  -1.340664e+01
   5.656826e+01  -2.080871e+01
   1.309395e+02   3.805334e+01
   7.026361e+01   1.004350e+02
  -7.819833e+01   1.077874e+02
  -1.804290e+02   4.777870e+01
  -1.506772e+02  -3.439440e+01
  -3.019927e+01  -8.279300e+01
   6.042010e+01  -6.442256e+01
   4.594501e+01  -4.128284e+00
  -3.771914e+01   2.787257e+01
  -8.600773e+01  -1.944558e+01
  -3.236494e+01  -1.111752e+02
   8.238330e+01  -1.465191e+02
   1.550535e+02  -6.149418e+01
   1.208410e+02   9.216187e+01
   1.404562e+01   1.869819e+02
  -7.814847e+01   1.381449e+02
  -1.024074e+02  -8.316191e+00
  -6.038402e+01  -1.134812e+02
   4.066166e+00  -1.024238e+02
   4.663283e+01  -1.823398e+01
   4.810601e+01   2.911199e+01
   2.159712e+01   6.727285e+00
   5.134183e+00  -1.885309e+01
   2.553284e+01   1.655085e+01
   5.792920e+01   8.462069e+01
   3.800692e+01   1.036513e+02
  -5.050908e+01   4.486187e+01
  -1.336246e+02  -3.394524e+01
  -1.208351e+02  -6.634383e+01
  -1.427563e+01  -5.103203e+01
   8.247842e+01  -2.450109e+01
   8.430224e+01  -5.438437e+00
   1.306508e+01   1.057106e+01
  -3.572262e+01   2.019452e+01
  -1.457069e+01   1.461694e+01
   1.840230e+01  -2.457900e+00
  -3.430483e+00  -6.160518e+00
  -6.878984e+01  -1.212338e+00
  -8.874565e+01  -2.246231e+01
  -1.380122e+01  -7.758548e+01
   1.096775e+02  -1.098908e+02
   1.788916e+02  -5.958484e+01
   1.408181e+02   5.992178e+01
   2.740123e+01   1.566004e+02
  -7.628827e+01   1.490959e+02
  -1.106013e+02   5.967720e+01
  -7.716246e+01  -2.232464e+01
  -2.484090e+01  -3.684697e+01
   5.086663e-02  -9.826832e+00
  -1.200424e+01  -3.819063e+00
  -3.131134e+01  -4.464288e+01
  -2.154856e+01  -8.792985e+01
   2.777714e+01  -7.138295e+01
   7.777863e+01   1.491032e+01
   7.615766e+01   1.001638e+02
   8.095101e+00   1.058102e+02
  -7.598826e+01   2.551514e+01
  -1.006408e+02  -6.732322e+01
  -3.413426e+01  -9.748072e+01
   6.222858e+01  -5.777819e+01
   9.651537e+01   7.043486e+00
   4.113940e+01   5.032668e+01
  -3.017626e+01   5.475340e+01
  -3.205983e+01   2.753128e+01
   2.952838e+01  -5.293548e+00
   6.539046e+01  -9.022128e+00
   1.607923e+01   2.562104e+01
  -7.261202e+01   6.481744e+01
  -1.091814e+02   5.453894e+01
  -6.337262e+01  -1.377661e+01
   1.238797e+01  -8.011341e+01
   4.987929e+01  -7.722631e+01
   3.830725e+01  -7.964011e+00
   3.291970e+00   5.198273e+01
  -2.401606e+01   4.262825e+01
  -3.470588e+01  -1.455900e+01
  -2.615385e+01  -5.142578e+01
   1.283843e+00  -3.384461e+01
   3.075427e+01   6.155616e+00
   3.865138e+01   2.033582e+01
   2.028036e+01   1.888259e+00
  -2.021547e+00  -1.592946e+01
  -6.131568e+00  -2.433936e+00
  -1.343789e+00   3.228424e+01
  -8.068211e+00   4.544952e+01
  -2.753952e+01   1.282869e+01
  -3.325088e+01  -3.847910e+01
  -5.400890e+00  -5.750151e+01
   3.975915e+01  -2.172938e+01
   5.685020e+01   3.412618e+01
   1.720566e+01   5.858936e+01
  -5.277758e+01   3.415791e+01
  -8.698431e+01  -1.171102e+01
  -4.848244e+01  -4.121539e+01
   2.665781e+01  -4.259583e+01
   6.121186e+01  -2.445955e+01
   2.594590e+01  -5.110720e+00
  -3.073518e+01   1.096636e+00
  -3.359522e+01  -1.135589e+01
   2.617575e+01  -2.784997e+01
   8.134586e+01  -1.963573e+01
