
 $NMID
 id='ANONYMOUS ', fmtdat='(2E16.6)'
 volume=1.0
 tramp=1.0
 $END
   3.098777e+03  -3.081878e+02
   2.187780e+03   1.424678e+03
   3.195147e+01   2.039243e+03
  -1.270530e+03   1.226324e+03
  -9.534696e+02   1.184617e+02
   1.216097e+01  -2.956266e+02
   4.165067e+02   7.561597e+01
   9.438670e+01   5.580626e+02
  -4.175250e+02   5.941937e+02
  -6.221005e+02   1.061833e+02
  -4.301463e+02  -4.738594e+02
  -2.768828e+01  -6.267959e+02
   2.934450e+02  -1.903303e+02
   2.563982e+02   3.803610e+02
  -8.874379e+01   5.170811e+02
  -3.864927e+02   8.353015e+01
  -2.942582e+02  -4.550545e+02
   1.077418e+02  -5.945495e+02
   4.409072e+02  -2.549754e+02
   4.216790e+02   1.754713e+02
   1.266989e+02   3.508988e+02
  -1.215584e+02   2.387917e+02
  -8.170054e+01   7.309496e+01
   1.505648e+02   7.025711e+01
   2.584979e+02   2.340822e+02
   7.463895e+00   3.313272e+02
  -4.251845e+02   1.825699e+02
  -5.802250e+02  -1.457450e+02
  -2.332520e+02  -3.380100e+02
   2.907492e+02  -2.209308e+02
   4.741698e+02   9.814099e+01
   1.942769e+02   3.355983e+02
  -2.354563e+02   3.430021e+02
  -4.275476e+02   1.287680e+02
  -3.039532e+02  -1.534881e+02
  -7.991913e+01  -3.070663e+02
   4.467752e+01  -1.856972e+02
  -5.112512e+00   8.252091e+01
  -1.494888e+02   1.678268e+02
  -2.057900e+02  -1.033572e+02
  -4.781015e+01  -4.524867e+02
   2.171422e+02  -4.330200e+02
   3.272638e+02  -2.127506e+01
   1.408347e+02   2.926012e+02
  -1.408413e+02   1.467316e+02
  -1.832562e+02  -2.427136e+02
   9.917460e+01  -3.649156e+02
   4.242582e+02  -6.681207e+01
   4.582837e+02   3.416691e+02
   1.525918e+02   4.668042e+02
  -2.734143e+02   2.707227e+02
  -4.891790e+02  -3.152577e+01
  -3.313363e+02  -2.270833e+02
   2.633228e+01  -2.242122e+02
   2.659747e+02  -9.066429e+01
   2.071921e+02   3.000213e+01
   4.042704e+00   2.592464e+01
  -6.045762e+01  -5.332771e+01
   8.478401e+01  -6.668970e+01
   2.196300e+02   3.887010e+01
   1.272404e+02   1.875665e+02
  -1.415633e+02   2.297782e+02
  -3.219760e+02   1.224420e+02
  -2.464267e+02  -8.663497e+01
   2.043945e+01  -2.894621e+02
   2.678576e+02  -3.367802e+02
   3.263354e+02  -1.584261e+02
   2.184798e+02   1.465991e+02
   4.691554e+01   3.252396e+02
  -3.167799e+01   2.879830e+02
  -2.310375e+01   1.553457e+02
  -3.581210e+01   9.103199e+01
  -1.241197e+02   1.055985e+02
  -2.259505e+02   5.290867e+01
  -2.235234e+02  -1.085025e+02
  -8.826509e+01  -2.390309e+02
   8.568107e+01  -1.828226e+02
   1.785044e+02   3.370313e+01
   1.321161e+02   2.245496e+02
  -4.011477e+01   2.386292e+02
  -2.314592e+02   6.462010e+01
  -2.913839e+02  -1.611186e+02
  -1.600627e+02  -2.839428e+02
   4.531562e+01  -2.499807e+02
   1.516053e+02  -1.425630e+02
   1.310615e+02  -8.100119e+01
   1.302708e+02  -7.762645e+01
   2.614787e+02  -5.299036e+01
   3.876443e+02   7.875876e+01
   3.030446e+02   2.779064e+02
  -1.179579e+01   4.099886e+02
  -3.509658e+02   3.646677e+02
  -4.435819e+02   1.583793e+02
  -2.683766e+02  -9.287150e+01
  -1.997834e+01  -2.326376e+02
   8.783447e+01  -1.847985e+02
   1.505166e+01  -3.491531e+01
  -1.101342e+02   3.804973e+01
  -1.251479e+02  -3.048641e+01
  -1.586856e+01  -1.338394e+02
   1.048040e+02  -1.047146e+02
   1.027816e+02   4.265781e+01
  -2.519516e+01   1.210354e+02
  -1.501273e+02   2.202219e+00
  -1.373031e+02  -2.180926e+02
   2.409109e+01  -3.196921e+02
   2.287292e+02  -1.918019e+02
   3.316844e+02   5.909692e+01
   2.580872e+02   2.447381e+02
   5.841594e+01   2.549024e+02
  -1.180386e+02   1.317251e+02
  -1.433147e+02   5.732323e+00
  -3.389090e+01  -1.664565e+01
   4.867612e+01   5.351137e+01
  -9.675504e-01   1.047551e+02
  -1.150387e+02   6.190360e+01
  -1.359396e+02  -2.556024e+01
  -2.687146e+01  -5.212215e+01
   8.180239e+01   1.205536e+01
   4.058033e+01   9.052490e+01
  -1.373581e+02   8.961365e+01
  -2.841492e+02  -7.984142e+00
  -2.462230e+02  -1.494157e+02
  -3.327705e+01  -2.457593e+02
   1.864594e+02  -2.260125e+02
   2.481773e+02  -9.561181e+01
   1.322799e+02   4.285053e+01
  -2.560913e+01   7.289325e+01
  -5.988816e+01  -6.691822e+00
   4.881223e+01  -7.877430e+01
   1.732812e+02  -3.438352e+01
   1.771445e+02   9.580953e+01
   5.436037e+01   1.749129e+02
  -8.066111e+01   1.269335e+02
  -1.152209e+02   1.600961e+01
  -4.271144e+01  -3.549432e+01
   3.898461e+01   2.006802e+01
   2.409321e+01   1.028754e+02
  -9.152479e+01   1.113831e+02
  -1.976910e+02   1.391195e+01
  -1.701025e+02  -1.243369e+02
  -9.903584e+00  -1.961733e+02
   1.456825e+02  -1.430146e+02
   1.634330e+02  -1.257904e+01
   5.448105e+01   8.701389e+01
  -5.389200e+01   9.008174e+01
  -6.398117e+01   2.397298e+01
  -2.123283e-03  -2.224146e+01
   3.368637e+01  -5.273266e+00
  -9.586289e+00   2.692400e+01
  -8.372228e+01   3.669343e+00
  -9.925029e+01  -8.494717e+01
  -1.292961e+01  -1.646063e+02
   1.271943e+02  -1.460856e+02
   2.198676e+02  -1.507718e+01
   1.833928e+02   1.406815e+02
   3.982518e+01   2.094801e+02
  -8.809799e+01   1.496533e+02
  -1.172268e+02   3.386549e+01
  -6.956056e+01  -3.881335e+01
  -3.277350e+01  -2.577152e+01
  -5.136298e+01   1.293118e+01
  -8.235533e+01   8.137914e+00
  -5.453336e+01  -5.386720e+01
   3.591483e+01  -1.015101e+02
   1.159806e+02  -6.490129e+01
   1.018979e+02   4.283461e+01
  -1.648018e+01   1.231277e+02
  -1.536869e+02   8.391339e+01
  -1.917203e+02  -6.303849e+01
  -7.804504e+01  -1.990470e+02
   1.147455e+02  -2.061375e+02
   2.458193e+02  -7.837129e+01
   2.255565e+02   8.144131e+01
   9.216476e+01   1.568074e+02
  -3.443516e+01   1.294054e+02
  -7.966531e+01   7.567228e+01
  -6.296299e+01   6.523737e+01
  -5.317968e+01   8.808917e+01
  -8.366885e+01   7.582147e+01
  -1.236563e+02  -1.467437e+01
  -1.134145e+02  -1.417912e+02
  -2.649156e+01  -2.102233e+02
   9.301750e+01  -1.570793e+02
   1.598454e+02  -1.104238e+01
   1.204477e+02   1.198140e+02
   1.149451e+01   1.474301e+02
  -6.895143e+01   7.710822e+01
  -5.950532e+01  -1.148616e+01
   1.243188e+00  -4.858397e+01
   2.294414e+01  -3.149721e+01
  -2.541631e+01  -1.096673e+01
  -7.863787e+01  -1.666616e+01
  -4.763554e+01  -3.891031e+01
   6.650598e+01  -3.863926e+01
   1.619380e+02  -1.066639e+00
   1.358459e+02   5.762551e+01
  -2.433673e-01   9.169384e+01
  -1.256824e+02   7.141181e+01
  -1.366958e+02   6.434468e+00
  -4.146692e+01  -4.828918e+01
   5.643537e+01  -4.355299e+01
   7.418044e+01   1.503300e+01
   1.863282e+01   7.006676e+01
  -4.285988e+01   6.363610e+01
  -6.453262e+01   3.162621e+00
  -5.331529e+01  -4.878642e+01
  -4.255398e+01  -4.269961e+01
  -4.972927e+01  -1.862826e+00
  -5.909576e+01   1.119518e+00
  -4.242856e+01  -6.530169e+01
   2.205489e+01  -1.402142e+02
   1.132451e+02  -1.367066e+02
   1.674560e+02  -3.302354e+01
   1.225474e+02   8.816783e+01
   3.208901e+00   1.251809e+02
  -8.548939e+01   6.664965e+01
  -6.014391e+01  -1.029787e+01
   5.274780e+01  -2.139110e+01
   1.250725e+02   3.529717e+01
   6.723369e+01   9.787727e+01
  -7.589891e+01   1.029295e+02
  -1.732258e+02   4.281159e+01
  -1.453554e+02  -3.681818e+01
  -2.812213e+01  -7.855671e+01
   5.873147e+01  -5.564535e+01
   4.264492e+01   1.562068e+00
  -3.859860e+01   2.882048e+01
  -8.553400e+01  -1.868677e+01
  -3.625626e+01  -1.087665e+02
   7.245096e+01  -1.456003e+02
   1.444840e+02  -6.719131e+01
   1.175689e+02   8.306434e+01
   1.924488e+01   1.778708e+02
  -7.156360e+01   1.326830e+02
  -9.554424e+01  -9.819219e+00
  -5.381036e+01  -1.087798e+02
   9.910197e+00  -9.395888e+01
   4.719494e+01  -1.289515e+01
   4.243450e+01   2.907788e+01
   1.656152e+01   5.905431e+00
   5.562022e+00  -1.514740e+01
   2.785555e+01   2.141234e+01
   5.525109e+01   8.422986e+01
   3.011665e+01   9.686671e+01
  -5.285076e+01   3.919166e+01
  -1.273879e+02  -3.298766e+01
  -1.143233e+02  -6.161001e+01
  -1.408084e+01  -4.956894e+01
   7.678599e+01  -2.553367e+01
   8.011640e+01  -4.977881e+00
   1.570650e+01   1.188412e+01
  -3.146863e+01   2.055091e+01
  -1.735020e+01   1.215798e+01
   1.269430e+01  -3.318239e+00
  -3.028336e+00  -4.619989e+00
  -6.227522e+01   1.423056e+00
  -8.536662e+01  -2.106670e+01
  -1.975539e+01  -7.632738e+01
   9.915402e+01  -1.104573e+02
   1.749542e+02  -6.449714e+01
   1.441521e+02   5.232621e+01
   3.422409e+01   1.490244e+02
  -7.044889e+01   1.473825e+02
  -1.070663e+02   6.566119e+01
  -7.659042e+01  -1.543141e+01
  -2.622726e+01  -3.570559e+01
  -2.641455e+00  -1.286019e+01
  -1.352328e+01  -6.599866e+00
  -2.893167e+01  -4.287970e+01
  -1.782692e+01  -8.381646e+01
   2.549610e+01  -6.849153e+01
   7.206714e+01   1.164411e+01
   7.528209e+01   9.258803e+01
   1.540027e+01   1.027779e+02
  -6.830725e+01   3.234282e+01
  -1.007004e+02  -5.800536e+01
  -3.974153e+01  -9.579409e+01
   5.950632e+01  -6.234497e+01
   9.863416e+01   5.324794e+00
   4.377352e+01   5.413442e+01
  -3.075775e+01   5.954242e+01
  -3.642226e+01   2.793240e+01
   2.442685e+01  -7.246366e+00
   6.210563e+01  -1.032193e+01
   1.669284e+01   2.520421e+01
  -6.977553e+01   6.156865e+01
  -1.074250e+02   5.155601e+01
  -6.463277e+01  -1.473858e+01
   9.886565e+00  -7.888945e+01
   5.008739e+01  -7.888735e+01
   4.330654e+01  -1.273846e+01
   9.221153e+00   4.859131e+01
  -2.091849e+01   4.623501e+01
  -3.497637e+01  -7.898764e+00
  -2.765074e+01  -4.846128e+01
   1.203213e+00  -3.706491e+01
   3.110233e+01   3.707201e+00
   3.864463e+01   2.344843e+01
   1.919372e+01   5.821010e+00
  -3.739574e+00  -1.831563e+01
  -5.257369e+00  -9.132662e+00
   5.087295e+00   2.909479e+01
   3.565728e-01   4.996999e+01
  -2.421703e+01   2.188862e+01
  -3.878960e+01  -3.092724e+01
  -1.441845e+01  -5.526260e+01
   3.597573e+01  -2.570561e+01
   5.947294e+01   2.890700e+01
   2.073738e+01   5.662430e+01
  -5.195967e+01   3.508204e+01
  -8.860441e+01  -8.949378e+00
  -4.988252e+01  -3.946412e+01
   2.439145e+01  -4.388769e+01
   6.084790e+01  -2.819457e+01
   2.762876e+01  -6.607932e+00
  -2.618934e+01   4.489483e+00
  -3.159258e+01  -4.384048e+00
   2.063121e+01  -2.400390e+01
   7.314766e+01  -2.267650e+01
