
 $NMID
 id='ANONYMOUS ', fmtdat='(2E16.6)'
 volume=1.0
 tramp=1.0
 $END
   3.112622e+03  -1.363932e+02
   2.128977e+03   1.458164e+03
  -2.822140e+01   1.920643e+03
  -1.210547e+03   1.076507e+03
  -8.445923e+02   9.744762e+01
   5.207316e+01  -2.021186e+02
   3.765508e+02   1.537654e+02
   2.458214e+01   5.371350e+02
  -4.423531e+02   5.228191e+02
  -5.974978e+02   4.814347e+01
  -3.770337e+02  -4.826192e+02
  -1.039557e+01  -5.823672e+02
   2.859674e+02  -1.459496e+02
   2.050458e+02   4.022646e+02
  -1.342440e+02   4.973436e+02
  -3.848242e+02   5.503747e+01
  -2.683753e+02  -4.675576e+02
   1.232824e+02  -5.817524e+02
   4.481446e+02  -2.398752e+02
   4.124585e+02   1.599552e+02
   1.182525e+02   3.382287e+02
  -1.225953e+02   2.190483e+02
  -7.453166e+01   5.842075e+01
   1.691499e+02   7.154181e+01
   2.695821e+02   2.570871e+02
  -1.029770e+01   3.545363e+02
  -4.508720e+02   1.661718e+02
  -5.701151e+02  -1.855945e+02
  -2.091951e+02  -3.602052e+02
   3.119312e+02  -1.952193e+02
   4.754840e+02   1.375832e+02
   1.688615e+02   3.530554e+02
  -2.612203e+02   3.331138e+02
  -4.419155e+02   1.126482e+02
  -3.030679e+02  -1.752313e+02
  -6.037266e+01  -3.032217e+02
   6.491013e+01  -1.708345e+02
  -1.959257e+01   1.036828e+02
  -1.859511e+02   1.632706e+02
  -2.122288e+02  -1.394958e+02
   3.598389e-02  -4.779004e+02
   2.620187e+02  -4.068134e+02
   3.257774e+02   2.005428e+01
   1.009510e+02   3.036054e+02
  -1.661142e+02   1.277632e+02
  -1.738571e+02  -2.672282e+02
   1.199504e+02  -3.694636e+02
   4.288627e+02  -5.147313e+01
   4.516651e+02   3.554844e+02
   1.339446e+02   4.680337e+02
  -2.826922e+02   2.521670e+02
  -4.813434e+02  -5.998790e+01
  -3.116307e+02  -2.397202e+02
   4.495247e+01  -2.135754e+02
   2.636748e+02  -6.641144e+01
   1.887778e+02   3.824403e+01
  -2.453269e+00   1.698755e+01
  -4.618922e+01  -6.134681e+01
   9.637455e+01  -6.129489e+01
   2.063426e+02   5.001791e+01
   1.112009e+02   1.839035e+02
  -1.418976e+02   2.182152e+02
  -3.115384e+02   1.146716e+02
  -2.401681e+02  -8.226580e+01
   1.405116e+01  -2.819448e+02
   2.695039e+02  -3.370710e+02
   3.376884e+02  -1.500581e+02
   2.202590e+02   1.565080e+02
   3.133840e+01   3.358177e+02
  -4.969979e+01   2.869829e+02
  -2.595775e+01   1.457084e+02
  -2.665547e+01   9.147317e+01
  -1.253397e+02   1.096840e+02
  -2.368369e+02   4.978258e+01
  -2.273532e+02  -1.205325e+02
  -7.937549e+01  -2.497555e+02
   9.712440e+01  -1.856227e+02
   1.820292e+02   4.035989e+01
   1.244844e+02   2.321836e+02
  -4.870686e+01   2.362520e+02
  -2.326765e+02   5.553448e+01
  -2.797773e+02  -1.707335e+02
  -1.436573e+02  -2.851754e+02
   5.650520e+01  -2.386421e+02
   1.518252e+02  -1.312041e+02
   1.268242e+02  -7.497410e+01
   1.292920e+02  -7.528439e+01
   2.634167e+02  -4.792196e+01
   3.860369e+02   9.072064e+01
   2.938632e+02   2.858352e+02
  -2.678101e+01   4.040003e+02
  -3.588689e+02   3.516193e+02
  -4.416036e+02   1.435937e+02
  -2.634235e+02  -1.020357e+02
  -1.010712e+01  -2.317603e+02
   9.473791e+01  -1.768337e+02
   1.707724e+01  -3.126974e+01
  -1.134409e+02   3.560766e+01
  -1.272379e+02  -4.032534e+01
  -8.805615e+00  -1.370201e+02
   1.119268e+02  -9.631986e+01
   1.032015e+02   5.192901e+01
  -3.210478e+01   1.211680e+02
  -1.532144e+02  -4.770139e+00
  -1.321870e+02  -2.229580e+02
   3.154808e+01  -3.169163e+02
   2.299007e+02  -1.862900e+02
   3.293745e+02   6.543532e+01
   2.536517e+02   2.496755e+02
   5.610775e+01   2.575813e+02
  -1.207482e+02   1.317831e+02
  -1.440199e+02   3.792317e+00
  -3.317844e+01  -1.629964e+01
   4.756798e+01   5.706794e+01
  -5.797224e+00   1.067331e+02
  -1.207549e+02   5.774340e+01
  -1.370149e+02  -3.224030e+01
  -2.452630e+01  -5.578069e+01
   8.245633e+01   1.151671e+01
   3.946849e+01   8.969930e+01
  -1.377899e+02   8.520714e+01
  -2.803755e+02  -1.844231e+01
  -2.363901e+02  -1.570530e+02
  -2.677912e+01  -2.462837e+02
   1.916302e+02  -2.162282e+02
   2.498455e+02  -8.373352e+01
   1.289124e+02   5.048845e+01
  -3.006326e+01   7.208083e+01
  -6.093945e+01  -1.177330e+01
   4.986825e+01  -8.028785e+01
   1.739830e+02  -2.957800e+01
   1.741647e+02   1.014735e+02
   4.906394e+01   1.778311e+02
  -8.430820e+01   1.252789e+02
  -1.156657e+02   1.140391e+01
  -4.104878e+01  -3.972207e+01
   4.179208e+01   1.737018e+01
   2.545848e+01   1.033886e+02
  -9.182648e+01   1.130598e+02
  -1.980028e+02   1.247663e+01
  -1.676197e+02  -1.282128e+02
  -5.149333e+00  -1.956967e+02
   1.493362e+02  -1.363244e+02
   1.624370e+02  -5.708052e+00
   4.951222e+01   8.880762e+01
  -5.877066e+01   8.564010e+01
  -6.440391e+01   1.957699e+01
   1.171445e+00  -2.446474e+01
   3.696258e+01  -5.806634e+00
  -6.523442e+00   2.749617e+01
  -8.219120e+01   5.786864e+00
  -9.918360e+01  -8.317734e+01
  -1.100863e+01  -1.635363e+02
   1.296888e+02  -1.447029e+02
   2.192837e+02  -1.021205e+01
   1.770815e+02   1.448844e+02
   3.406076e+01   2.119570e+02
  -9.315899e+01   1.487988e+02
  -1.186157e+02   2.995600e+01
  -6.827701e+01  -4.098664e+01
  -3.071584e+01  -2.751734e+01
  -5.026651e+01   1.195105e+01
  -8.195544e+01   7.389086e+00
  -5.478753e+01  -5.246646e+01
   3.566501e+01  -9.854058e+01
   1.144689e+02  -6.458591e+01
   1.018962e+02   4.202013e+01
  -1.614074e+01   1.227071e+02
  -1.540886e+02   8.262388e+01
  -1.924944e+02  -6.492827e+01
  -7.682117e+01  -2.015135e+02
   1.188355e+02  -2.069447e+02
   2.482273e+02  -7.434261e+01
   2.250876e+02   8.856618e+01
   8.883842e+01   1.604387e+02
  -3.849393e+01   1.285405e+02
  -8.265065e+01   7.238605e+01
  -6.525923e+01   6.167654e+01
  -5.511132e+01   8.636733e+01
  -8.555969e+01   7.442736e+01
  -1.237134e+02  -1.761746e+01
  -1.113037e+02  -1.450422e+02
  -2.104662e+01  -2.121637e+02
   9.742854e+01  -1.547632e+02
   1.612761e+02  -8.128580e+00
   1.174313e+02   1.216910e+02
   7.053012e+00   1.480592e+02
  -7.377397e+01   7.656299e+01
  -6.044116e+01  -1.307189e+01
   2.752121e+00  -5.018698e+01
   2.557891e+01  -3.305324e+01
  -2.406385e+01  -1.156437e+01
  -7.769430e+01  -1.798646e+01
  -4.750825e+01  -3.893181e+01
   6.675611e+01  -3.738866e+01
   1.615532e+02   1.575276e+00
   1.347473e+02   6.151652e+01
  -1.478587e+00   9.439472e+01
  -1.271789e+02   6.989597e+01
  -1.380490e+02   2.293200e+00
  -4.198308e+01  -5.034537e+01
   5.677620e+01  -4.224787e+01
   7.444082e+01   1.691161e+01
   1.798339e+01   6.980403e+01
  -4.325647e+01   6.251602e+01
  -6.426426e+01   2.350750e+00
  -5.194025e+01  -4.902489e+01
  -4.130905e+01  -4.324430e+01
  -5.040352e+01  -3.683278e+00
  -5.838395e+01   1.034743e+00
  -4.064368e+01  -6.427848e+01
   2.444822e+01  -1.397280e+02
   1.156995e+02  -1.361178e+02
   1.677107e+02  -3.213857e+01
   1.213903e+02   9.023433e+01
   1.980334e+00   1.258176e+02
  -8.555156e+01   6.527702e+01
  -5.966348e+01  -1.093876e+01
   5.197886e+01  -1.933126e+01
   1.229504e+02   3.965947e+01
   6.401989e+01   1.007302e+02
  -7.828553e+01   1.012391e+02
  -1.765601e+02   3.719888e+01
  -1.452973e+02  -4.185680e+01
  -2.672031e+01  -8.106976e+01
   6.113328e+01  -5.547289e+01
   4.460240e+01   2.083502e+00
  -3.690949e+01   2.804448e+01
  -8.332523e+01  -1.979380e+01
  -3.337118e+01  -1.066993e+02
   7.436759e+01  -1.414029e+02
   1.434783e+02  -6.382076e+01
   1.142589e+02   8.460074e+01
   1.302500e+01   1.760562e+02
  -7.702902e+01   1.296568e+02
  -9.662575e+01  -1.156783e+01
  -5.104304e+01  -1.123651e+02
   1.385049e+01  -9.654719e+01
   4.986664e+01  -1.340824e+01
   4.255890e+01   3.081903e+01
   1.668743e+01   7.300855e+00
   6.308680e+00  -1.519131e+01
   2.778830e+01   2.071970e+01
   5.355644e+01   8.426215e+01
   2.681896e+01   9.854611e+01
  -5.245674e+01   3.930788e+01
  -1.253676e+02  -3.559720e+01
  -1.131376e+02  -6.566397e+01
  -1.684543e+01  -5.024799e+01
   7.451887e+01  -2.292058e+01
   7.939035e+01  -2.770725e+00
   1.569380e+01   1.153381e+01
  -3.244979e+01   1.825673e+01
  -1.866095e+01   9.353034e+00
   1.360796e+01  -3.888555e+00
  -1.413645e+00  -5.199950e+00
  -6.077747e+01   5.740350e-01
  -8.489669e+01  -2.115506e+01
  -1.968424e+01  -7.375387e+01
   9.838651e+01  -1.058766e+02
   1.725231e+02  -6.086877e+01
   1.401340e+02   5.163792e+01
   3.006827e+01   1.465350e+02
  -7.273874e+01   1.443108e+02
  -1.064449e+02   6.105691e+01
  -7.455838e+01  -1.898776e+01
  -2.452465e+01  -3.628786e+01
  -2.518148e+00  -1.196898e+01
  -1.288296e+01  -6.148654e+00
  -2.792844e+01  -4.349204e+01
  -1.514965e+01  -8.414024e+01
   2.739999e+01  -6.601889e+01
   7.193620e+01   1.341127e+01
   7.113757e+01   9.301980e+01
   1.198434e+01   1.013849e+02
  -6.849911e+01   3.023761e+01
  -9.717115e+01  -5.934555e+01
  -3.682522e+01  -9.576731e+01
   5.923213e+01  -6.037780e+01
   9.670235e+01   7.220659e+00
   4.341687e+01   5.422524e+01
  -3.021583e+01   5.797779e+01
  -3.713275e+01   2.806714e+01
   2.244008e+01  -4.887701e+00
   6.034696e+01  -8.915007e+00
   1.682227e+01   2.466144e+01
  -7.067497e+01   6.042163e+01
  -1.113384e+02   5.016050e+01
  -6.695697e+01  -1.505925e+01
   1.080544e+01  -7.885282e+01
   5.224458e+01  -7.864044e+01
   4.197764e+01  -1.325939e+01
   6.958979e+00   4.716880e+01
  -2.134929e+01   4.467040e+01
  -3.313107e+01  -8.491662e+00
  -2.594273e+01  -4.839846e+01
   7.983133e-01  -3.700115e+01
   3.045302e+01   3.972678e+00
   3.877223e+01   2.384808e+01
   1.907433e+01   6.339176e+00
  -3.835856e+00  -1.811693e+01
  -6.784917e+00  -8.812406e+00
   4.159316e+00   2.840482e+01
   5.380992e-01   4.803062e+01
  -2.298294e+01   2.072966e+01
  -3.678302e+01  -3.036308e+01
  -1.262030e+01  -5.415681e+01
   3.636872e+01  -2.387157e+01
   5.880751e+01   2.983199e+01
   1.915077e+01   5.610424e+01
  -5.297479e+01   3.405077e+01
  -8.794776e+01  -1.074737e+01
  -4.866457e+01  -4.033075e+01
   2.508381e+01  -4.296802e+01
   6.011220e+01  -2.598043e+01
   2.735704e+01  -5.851366e+00
  -2.606384e+01   3.257892e+00
  -3.028889e+01  -6.102994e+00
   2.129983e+01  -2.324387e+01
   7.242191e+01  -1.881377e+01
