
 $NMID
 id='ANONYMOUS ', fmtdat='(2E16.6)'
 volume=1.0
 tramp=1.0
 $END
  -3.096107e+03   7.401657e+01
  -2.109560e+03  -1.493454e+03
   2.611838e+01  -1.896789e+03
   1.165110e+03  -1.078719e+03
   8.425435e+02  -1.271573e+02
  -2.026422e+01   2.048138e+02
  -3.568459e+02  -1.290776e+02
  -2.193214e+01  -5.209157e+02
   4.334804e+02  -5.120195e+02
   5.861331e+02  -4.494045e+01
   3.690922e+02   4.777013e+02
   2.318829e+00   5.561709e+02
  -2.703300e+02   1.422236e+02
  -1.916427e+02  -3.895029e+02
   1.363425e+02  -4.823820e+02
   3.792092e+02  -5.246705e+01
   2.629902e+02   4.612237e+02
  -1.222562e+02   5.792653e+02
  -4.451581e+02   2.593194e+02
  -4.029431e+02  -1.528839e+02
  -1.203492e+02  -3.358794e+02
   1.189653e+02  -2.171021e+02
   6.270654e+01  -5.943315e+01
  -1.774356e+02  -8.944798e+01
  -2.616730e+02  -2.765424e+02
   3.101239e+01  -3.570065e+02
   4.633125e+02  -1.506764e+02
   5.669155e+02   2.106055e+02
   1.908161e+02   3.616123e+02
  -3.200620e+02   1.782161e+02
  -4.675600e+02  -1.559537e+02
  -1.546783e+02  -3.548247e+02
   2.706741e+02  -3.215709e+02
   4.408012e+02  -9.880269e+01
   2.946749e+02   1.765062e+02
   4.714204e+01   2.956819e+02
  -6.114775e+01   1.646488e+02
   3.368945e+01  -1.031119e+02
   1.923020e+02  -1.494942e+02
   1.968722e+02   1.524894e+02
  -2.289006e+01   4.744178e+02
  -2.688979e+02   3.855090e+02
  -3.048956e+02  -3.756547e+01
  -7.663746e+01  -2.986606e+02
   1.663001e+02  -1.078577e+02
   1.558191e+02   2.816708e+02
  -1.320800e+02   3.655883e+02
  -4.282828e+02   4.046317e+01
  -4.475169e+02  -3.675145e+02
  -1.315048e+02  -4.697282e+02
   2.859585e+02  -2.466993e+02
   4.800023e+02   7.084416e+01
   3.055522e+02   2.375778e+02
  -4.780661e+01   2.011892e+02
  -2.549231e+02   6.071971e+01
  -1.795289e+02  -3.299809e+01
  -1.604529e+00  -9.829677e+00
   3.569386e+01   5.541014e+01
  -9.556057e+01   5.286347e+01
  -1.997178e+02  -4.906114e+01
  -1.067871e+02  -1.782251e+02
   1.406945e+02  -2.167771e+02
   3.160370e+02  -1.146416e+02
   2.472352e+02   9.234083e+01
  -1.687200e+01   2.963413e+02
  -2.837320e+02   3.391237e+02
  -3.459021e+02   1.438738e+02
  -2.188983e+02  -1.594753e+02
  -3.154351e+01  -3.368909e+02
   4.681395e+01  -2.896745e+02
   2.186162e+01  -1.539066e+02
   2.881121e+01  -1.003202e+02
   1.309252e+02  -1.121588e+02
   2.426305e+02  -4.488113e+01
   2.283004e+02   1.283485e+02
   7.449202e+01   2.548219e+02
  -1.026467e+02   1.823685e+02
  -1.832609e+02  -4.571936e+01
  -1.203393e+02  -2.363565e+02
   5.529865e+01  -2.345300e+02
   2.363158e+02  -4.957646e+01
   2.760675e+02   1.762428e+02
   1.379773e+02   2.845588e+02
  -5.948672e+01   2.350041e+02
  -1.505751e+02   1.316733e+02
  -1.286920e+02   7.776830e+01
  -1.353705e+02   7.504832e+01
  -2.687229e+02   4.080401e+01
  -3.863840e+02  -9.891667e+01
  -2.894723e+02  -2.910495e+02
   3.606165e+01  -4.042745e+02
   3.676877e+02  -3.477964e+02
   4.453837e+02  -1.370665e+02
   2.612391e+02   1.070618e+02
   4.668610e+00   2.326930e+02
  -9.516135e+01   1.739662e+02
  -8.360648e+00   2.973891e+01
   1.182680e+02  -3.103418e+01
   1.233326e+02   4.615317e+01
   1.949454e+00   1.358306e+02
  -1.124012e+02   9.040187e+01
  -9.660044e+01  -5.240095e+01
   3.804006e+01  -1.166685e+02
   1.513645e+02   1.115195e+01
   1.272728e+02   2.270574e+02
  -3.713763e+01   3.178164e+02
  -2.344090e+02   1.859476e+02
  -3.328435e+02  -7.076847e+01
  -2.529195e+02  -2.583084e+02
  -5.184147e+01  -2.615026e+02
   1.246024e+02  -1.298306e+02
   1.434352e+02  -1.745275e+00
   3.218306e+01   1.485339e+01
  -4.619770e+01  -6.107142e+01
   9.578919e+00  -1.076075e+02
   1.234473e+02  -5.455208e+01
   1.363941e+02   3.514134e+01
   2.351985e+01   5.558588e+01
  -8.266512e+01  -1.298861e+01
  -3.817774e+01  -9.020574e+01
   1.406639e+02  -8.433468e+01
   2.839484e+02   2.128832e+01
   2.353347e+02   1.625860e+02
   2.016461e+01   2.493806e+02
  -2.003291e+02   2.146913e+02
  -2.518190e+02   7.934969e+01
  -1.256908e+02  -5.271811e+01
   3.318384e+01  -7.058014e+01
   5.971603e+01   1.404312e+01
  -5.287889e+01   7.939774e+01
  -1.752972e+02   2.691190e+01
  -1.736470e+02  -1.045618e+02
  -4.709729e+01  -1.792084e+02
   8.616203e+01  -1.241942e+02
   1.159631e+02  -9.220773e+00
   3.910134e+01   3.973161e+01
  -4.452398e+01  -2.049015e+01
  -2.475590e+01  -1.078833e+02
   9.646631e+01  -1.143541e+02
   2.020227e+02  -8.121034e+00
   1.665630e+02   1.333184e+02
   1.487091e+00   1.964669e+02
  -1.516332e+02   1.341357e+02
  -1.619605e+02   3.391497e+00
  -4.788206e+01  -8.888298e+01
   6.014218e+01  -8.440123e+01
   6.436552e+01  -1.748370e+01
  -2.761070e+00   2.528662e+01
  -3.890879e+01   5.130499e+00
   6.851300e+00  -2.923617e+01
   8.436848e+01  -6.476947e+00
   1.008922e+02   8.540198e+01
   9.355201e+00   1.669748e+02
  -1.345834e+02   1.450332e+02
  -2.230158e+02   6.367280e+00
  -1.748384e+02  -1.492553e+02
  -2.987555e+01  -2.130090e+02
   9.653278e+01  -1.475509e+02
   1.192152e+02  -2.712182e+01
   6.716679e+01   4.256314e+01
   2.906703e+01   2.760986e+01
   5.037338e+01  -1.292669e+01
   8.350945e+01  -7.372307e+00
   5.638389e+01   5.378086e+01
  -3.617693e+01   1.003576e+02
  -1.162302e+02   6.492096e+01
  -1.032958e+02  -4.295350e+01
   1.672877e+01  -1.237418e+02
   1.568660e+02  -8.295262e+01
   1.956209e+02   6.721897e+01
   7.678300e+01   2.068226e+02
  -1.237737e+02   2.103394e+02
  -2.546445e+02   7.365941e+01
  -2.289915e+02  -9.354506e+01
  -8.771632e+01  -1.654676e+02
   4.141498e+01  -1.289065e+02
   8.392471e+01  -6.990388e+01
   6.405422e+01  -6.112005e+01
   5.450198e+01  -8.754365e+01
   8.665734e+01  -7.577166e+01
   1.248807e+02   1.852664e+01
   1.103701e+02   1.481774e+02
   1.807481e+01   2.147184e+02
  -1.003224e+02   1.538676e+02
  -1.622107e+02   5.065399e+00
  -1.162360e+02  -1.242188e+02
  -4.619532e+00  -1.486057e+02
   7.672663e+01  -7.489120e+01
   6.209861e+01   1.513350e+01
  -4.059984e+00   5.183031e+01
  -2.778078e+01   3.333107e+01
   2.339643e+01   1.055484e+01
   7.852451e+01   1.743519e+01
   4.806831e+01   3.967601e+01
  -6.831273e+01   3.770327e+01
  -1.636679e+02  -4.384220e+00
  -1.343000e+02  -6.502650e+01
   3.895995e+00  -9.658820e+01
   1.308282e+02  -6.929492e+01
   1.403954e+02   7.737407e-01
   4.201910e+01   5.276631e+01
  -5.830805e+01   4.320818e+01
  -7.544825e+01  -1.827106e+01
  -1.847464e+01  -7.138262e+01
   4.389812e+01  -6.287200e+01
   6.576217e+01  -1.953633e+00
   5.310968e+01   4.996084e+01
   4.140517e+01   4.461292e+01
   5.040245e+01   4.712388e+00
   5.917748e+01   7.179213e-03
   4.109428e+01   6.560424e+01
  -2.642051e+01   1.421734e+02
  -1.196984e+02   1.382813e+02
  -1.719082e+02   3.084355e+01
  -1.226912e+02  -9.353398e+01
  -6.906311e-01  -1.285825e+02
   8.751193e+01  -6.599573e+01
   6.027740e+01   1.153433e+01
  -5.249050e+01   1.909760e+01
  -1.233505e+02  -4.131915e+01
  -6.318361e+01  -1.018379e+02
   8.036899e+01  -1.009260e+02
   1.786247e+02  -3.609028e+01
   1.461023e+02   4.364523e+01
   2.636165e+01   8.251886e+01
  -6.226145e+01   5.630992e+01
  -4.565929e+01  -2.421251e+00
   3.722174e+01  -2.890513e+01
   8.448187e+01   2.020060e+01
   3.325761e+01   1.079369e+02
  -7.621647e+01   1.416154e+02
  -1.445736e+02   6.285507e+01
  -1.140985e+02  -8.588793e+01
  -1.223395e+01  -1.768794e+02
   7.771208e+01  -1.286923e+02
   9.648681e+01   1.347969e+01
   4.981221e+01   1.147451e+02
  -1.628122e+01   9.717102e+01
  -5.135237e+01   1.234390e+01
  -4.202117e+01  -3.257714e+01
  -1.546733e+01  -8.091192e+00
  -6.375152e+00   1.509764e+01
  -2.881051e+01  -2.111473e+01
  -5.261616e+01  -8.545210e+01
  -2.590523e+01  -9.940718e+01
   5.354685e+01  -3.973860e+01
   1.255763e+02   3.611356e+01
   1.144696e+02   6.772368e+01
   1.809507e+01   5.212608e+01
  -7.530029e+01   2.320087e+01
  -8.117736e+01   1.761321e+00
  -1.707717e+01  -1.247617e+01
   3.311221e+01  -1.841656e+01
   1.970230e+01  -9.368293e+00
  -1.393546e+01   3.503060e+00
   1.018975e-01   4.924515e+00
   6.075564e+01  -1.175294e+00
   8.641883e+01   2.127437e+01
   2.060494e+01   7.481710e+01
  -9.974982e+01   1.078317e+02
  -1.750299e+02   6.173282e+01
  -1.418807e+02  -5.238094e+01
  -3.063218e+01  -1.484868e+02
   7.424337e+01  -1.468223e+02
   1.090833e+02  -6.202781e+01
   7.615987e+01   1.986133e+01
   2.466264e+01   3.759295e+01
   2.036072e+00   1.241359e+01
   1.291831e+01   6.490459e+00
   2.837305e+01   4.447520e+01
   1.465496e+01   8.510600e+01
  -2.864507e+01   6.588927e+01
  -7.308187e+01  -1.311394e+01
  -7.165478e+01  -9.464297e+01
  -1.137415e+01  -1.028686e+02
   7.002473e+01  -3.062521e+01
   9.904411e+01   5.985518e+01
   3.738936e+01   9.755180e+01
  -6.013987e+01   6.194919e+01
  -9.813706e+01  -7.228416e+00
  -4.403755e+01  -5.572439e+01
   3.099188e+01  -5.873561e+01
   3.774395e+01  -2.778941e+01
  -2.333772e+01   5.500015e+00
  -6.112467e+01   8.578546e+00
  -1.677199e+01  -2.549220e+01
   7.251593e+01  -6.062057e+01
   1.135337e+02  -5.012608e+01
   6.762181e+01   1.543742e+01
  -1.134491e+01   8.042307e+01
  -5.303634e+01   8.006743e+01
  -4.271064e+01   1.409399e+01
  -7.055150e+00  -4.753140e+01
   2.209240e+01  -4.549844e+01
   3.379392e+01   9.035037e+00
   2.605290e+01   4.984550e+01
  -1.635953e+00   3.767951e+01
  -3.150966e+01  -4.372080e+00
  -3.897932e+01  -2.437982e+01
  -1.899067e+01  -6.732844e+00
   4.647974e+00   1.850402e+01
   6.945768e+00   9.797681e+00
  -4.900051e+00  -2.795768e+01
  -1.182109e+00  -4.874040e+01
   2.339946e+01  -2.177240e+01
   3.806003e+01   3.005467e+01
   1.381940e+01   5.502435e+01
  -3.703682e+01   2.471442e+01
  -5.969892e+01  -2.958769e+01
  -1.919586e+01  -5.668383e+01
   5.362165e+01  -3.461069e+01
   8.860550e+01   1.136297e+01
   4.827458e+01   4.108004e+01
  -2.543442e+01   4.292989e+01
  -6.087891e+01   2.528379e+01
  -2.792541e+01   5.711206e+00
   2.559429e+01  -3.216265e+00
   3.032140e+01   6.488301e+00
  -2.062600e+01   2.293184e+01
  -7.196775e+01   1.758188e+01
