
 $NMID
 id='ANONYMOUS ', fmtdat='(2E16.6)'
 volume=1.0
 tramp=1.0
 $END
   3.379315e+03  -1.581443e+02
   2.140450e+03   1.721377e+03
  -1.755038e+02   2.023749e+03
  -1.331528e+03   1.021802e+03
  -8.154307e+02  -8.616753e+01
   1.987199e+02  -3.028402e+02
   5.119815e+02   1.950789e+02
   3.845286e+01   6.547123e+02
  -5.030929e+02   6.016549e+02
  -6.667753e+02   3.260675e+01
  -4.071233e+02  -5.660700e+02
   5.512776e+01  -6.648432e+02
   3.714787e+02  -1.507771e+02
   2.816801e+02   4.614500e+02
  -1.383839e+02   5.622546e+02
  -4.365014e+02   5.626649e+01
  -2.865205e+02  -4.935308e+02
   1.511004e+02  -5.819963e+02
   4.455282e+02  -2.155557e+02
   3.989621e+02   2.095929e+02
   8.730141e+01   3.543833e+02
  -1.512563e+02   2.357949e+02
  -1.143142e+02   4.839920e+01
   1.463633e+02   1.598605e+01
   3.067170e+02   1.889220e+02
   5.920347e+01   3.527340e+02
  -4.328457e+02   2.482838e+02
  -6.375912e+02  -1.227995e+02
  -2.655645e+02  -3.977082e+02
   3.178116e+02  -2.879285e+02
   5.415257e+02   8.432515e+01
   2.281811e+02   3.720323e+02
  -2.413674e+02   3.858835e+02
  -4.538337e+02   1.480618e+02
  -3.316848e+02  -1.751196e+02
  -7.726823e+01  -3.520419e+02
   8.986961e+01  -2.010848e+02
   3.902518e+01   1.337298e+02
  -1.635176e+02   2.453639e+02
  -2.682195e+02  -8.670121e+01
  -8.729586e+01  -5.091454e+02
   2.529859e+02  -4.837957e+02
   3.925494e+02   1.474729e+00
   1.579648e+02   3.633721e+02
  -1.917528e+02   1.910543e+02
  -2.394817e+02  -2.552673e+02
   7.654933e+01  -4.052115e+02
   4.328793e+02  -9.129603e+01
   4.781589e+02   3.309483e+02
   1.590619e+02   4.708397e+02
  -2.902285e+02   2.754525e+02
  -5.052029e+02  -4.442306e+01
  -3.264402e+02  -2.616625e+02
   7.086477e+01  -2.503634e+02
   3.097429e+02  -7.318455e+01
   2.023631e+02   7.875778e+01
  -3.248836e+01   4.826859e+01
  -7.171716e+01  -7.159501e+01
   1.115311e+02  -9.174993e+01
   2.381604e+02   4.416964e+01
   1.189981e+02   2.033093e+02
  -1.439475e+02   2.268180e+02
  -2.985129e+02   1.117723e+02
  -2.249906e+02  -7.325869e+01
  -9.414122e-01  -2.581470e+02
   2.264330e+02  -3.310427e+02
   3.155613e+02  -1.821349e+02
   2.420737e+02   1.270115e+02
   6.942479e+01   3.504724e+02
  -5.048486e+01   3.196494e+02
  -5.244791e+01   1.389007e+02
  -3.028884e+01   6.129890e+01
  -9.169574e+01   1.006162e+02
  -2.077419e+02   8.301445e+01
  -2.349323e+02  -8.236374e+01
  -1.099628e+02  -2.394148e+02
   7.410884e+01  -2.052519e+02
   1.895399e+02   1.277328e+01
   1.507037e+02   2.142785e+02
  -2.097539e+01   2.385686e+02
  -2.220962e+02   8.019024e+01
  -2.922818e+02  -1.439774e+02
  -1.587362e+02  -2.789491e+02
   5.731362e+01  -2.457200e+02
   1.647132e+02  -1.291249e+02
   1.310713e+02  -5.315673e+01
   1.156800e+02  -5.860463e+01
   2.377429e+02  -5.756850e+01
   3.675062e+02   6.263152e+01
   2.975127e+02   2.590469e+02
  -8.451879e+00   3.915928e+02
  -3.234243e+02   3.611796e+02
  -4.221864e+02   1.664929e+02
  -2.695048e+02  -8.067244e+01
  -3.014923e+01  -2.331847e+02
   8.823917e+01  -1.915498e+02
   2.844456e+01  -3.057278e+01
  -1.058795e+02   5.916236e+01
  -1.441091e+02  -2.110775e+01
  -2.499287e+01  -1.465426e+02
   1.183615e+02  -1.192097e+02
   1.207002e+02   4.305820e+01
  -2.156319e+01   1.346922e+02
  -1.546849e+02   1.228791e+01
  -1.419982e+02  -2.122527e+02
   1.669089e+01  -3.106220e+02
   2.105133e+02  -1.923137e+02
   3.164263e+02   4.391145e+01
   2.612974e+02   2.223972e+02
   7.639171e+01   2.455088e+02
  -1.032726e+02   1.378283e+02
  -1.392073e+02   1.754510e+01
  -3.679459e+01  -1.414729e+01
   5.278032e+01   5.105159e+01
   7.698327e+00   1.093798e+02
  -1.145745e+02   7.451593e+01
  -1.438502e+02  -1.801003e+01
  -3.820905e+01  -5.725695e+01
   7.595908e+01  -4.309874e+00
   4.602898e+01   7.473359e+01
  -1.207669e+02   8.659651e+01
  -2.635887e+02   4.463177e+00
  -2.350389e+02  -1.311807e+02
  -4.360447e+01  -2.321497e+02
   1.688881e+02  -2.251130e+02
   2.395923e+02  -1.022708e+02
   1.344042e+02   4.305565e+01
  -2.401481e+01   8.192129e+01
  -6.715716e+01  -1.613023e+00
   3.679861e+01  -8.398629e+01
   1.696575e+02  -4.493291e+01
   1.807684e+02   8.777499e+01
   5.850802e+01   1.750792e+02
  -7.757629e+01   1.314096e+02
  -1.176856e+02   1.874112e+01
  -4.812333e+01  -3.707352e+01
   3.862713e+01   7.967441e+00
   3.400386e+01   9.036191e+01
  -7.398968e+01   1.115075e+02
  -1.846048e+02   2.633152e+01
  -1.704257e+02  -1.110233e+02
  -1.931556e+01  -1.891197e+02
   1.382274e+02  -1.410003e+02
   1.604899e+02  -1.136379e+01
   5.475806e+01   8.911235e+01
  -5.421140e+01   9.041990e+01
  -6.633133e+01   2.458190e+01
  -6.141867e+00  -2.285646e+01
   2.959808e+01  -1.145718e+01
  -7.566678e+00   2.014138e+01
  -7.384620e+01   4.446070e+00
  -9.308376e+01  -7.382607e+01
  -1.721209e+01  -1.525006e+02
   1.172379e+02  -1.450415e+02
   2.125708e+02  -2.374592e+01
   1.784455e+02   1.315429e+02
   4.142892e+01   2.059507e+02
  -8.848810e+01   1.501467e+02
  -1.154860e+02   3.001513e+01
  -6.574137e+01  -4.103297e+01
  -2.893504e+01  -2.610158e+01
  -5.007693e+01   1.438481e+01
  -7.652660e+01   8.831904e+00
  -4.979274e+01  -4.723270e+01
   3.149314e+01  -9.140090e+01
   1.026055e+02  -6.277515e+01
   9.462802e+01   3.294808e+01
  -6.741460e+00   1.139886e+02
  -1.376322e+02   8.876442e+01
  -1.884138e+02  -4.712264e+01
  -9.027555e+01  -1.884156e+02
   1.011652e+02  -2.093747e+02
   2.423191e+02  -8.657014e+01
   2.280554e+02   7.659208e+01
   9.730637e+01   1.547183e+02
  -3.128345e+01   1.285845e+02
  -7.902844e+01   7.498595e+01
  -6.278687e+01   6.349803e+01
  -4.979015e+01   8.774990e+01
  -7.863485e+01   7.586251e+01
  -1.192321e+02  -1.177875e+01
  -1.141131e+02  -1.354842e+02
  -3.317577e+01  -2.032931e+02
   8.497387e+01  -1.559547e+02
   1.563159e+02  -1.830422e+01
   1.208330e+02   1.097511e+02
   1.442250e+01   1.415304e+02
  -6.557876e+01   7.735313e+01
  -5.745927e+01  -7.125098e+00
  -6.770019e-03  -4.586635e+01
   1.832596e+01  -3.225670e+01
  -2.827784e+01  -1.021451e+01
  -7.633484e+01  -1.521908e+01
  -4.546657e+01  -3.632844e+01
   6.196493e+01  -3.827396e+01
   1.522732e+02  -5.197254e+00
   1.297314e+02   5.064804e+01
   4.701296e+00   8.747890e+01
  -1.166377e+02   7.208934e+01
  -1.324923e+02   9.645280e+00
  -4.245082e+01  -4.362210e+01
   5.272575e+01  -4.068474e+01
   7.061521e+01   1.515773e+01
   1.677279e+01   6.603516e+01
  -4.102615e+01   5.952052e+01
  -6.035509e+01   3.155577e+00
  -4.881830e+01  -4.415154e+01
  -4.281049e+01  -3.793159e+01
  -5.014124e+01  -7.021142e-01
  -5.797931e+01   2.848955e+00
  -4.040638e+01  -6.202978e+01
   2.146350e+01  -1.370349e+02
   1.062471e+02  -1.343131e+02
   1.586289e+02  -3.464494e+01
   1.192999e+02   8.229442e+01
   7.809610e+00   1.194384e+02
  -7.983062e+01   6.429342e+01
  -5.794569e+01  -9.417572e+00
   5.059126e+01  -2.244489e+01
   1.248110e+02   3.101178e+01
   6.982939e+01   9.423643e+01
  -7.071420e+01   1.052842e+02
  -1.715066e+02   4.805315e+01
  -1.451208e+02  -3.291554e+01
  -3.218275e+01  -7.838697e+01
   5.527768e+01  -6.092494e+01
   4.381513e+01  -2.903815e+00
  -3.430102e+01   2.790507e+01
  -8.168602e+01  -1.607843e+01
  -3.588586e+01  -1.036582e+02
   7.038459e+01  -1.410016e+02
   1.411538e+02  -6.673854e+01
   1.165085e+02   8.018096e+01
   2.016447e+01   1.732656e+02
  -6.897406e+01   1.301730e+02
  -9.547775e+01  -7.194426e+00
  -5.630233e+01  -1.074093e+02
   5.394302e+00  -9.389258e+01
   4.558686e+01  -1.550626e+01
   4.501491e+01   2.720501e+01
   1.828654e+01   4.964780e+00
   4.136373e+00  -1.717989e+01
   2.542434e+01   1.601327e+01
   5.714959e+01   7.923224e+01
   3.705876e+01   9.440413e+01
  -4.512770e+01   4.224620e+01
  -1.240208e+02  -2.726955e+01
  -1.164248e+02  -5.718536e+01
  -1.952862e+01  -4.642010e+01
   7.338996e+01  -2.578598e+01
   7.786461e+01  -8.147921e+00
   1.475067e+01   8.543010e+00
  -3.140004e+01   1.976845e+01
  -1.504470e+01   1.311812e+01
   1.523492e+01  -1.983292e+00
  -2.251318e+00  -5.965736e+00
  -6.137115e+01   2.694042e+00
  -8.375397e+01  -1.690318e+01
  -2.027430e+01  -6.975514e+01
   9.209744e+01  -1.060715e+02
   1.616126e+02  -6.564010e+01
   1.338459e+02   4.519779e+01
   3.350944e+01   1.396841e+02
  -6.447158e+01   1.402580e+02
  -1.010507e+02   5.952969e+01
  -7.352180e+01  -1.776793e+01
  -2.363513e+01  -3.369992e+01
  -2.201799e-01  -9.954033e+00
  -1.063775e+01  -4.494954e+00
  -2.877535e+01  -4.174457e+01
  -2.020266e+01  -8.080983e+01
   2.420163e+01  -6.415102e+01
   7.012584e+01   1.148412e+01
   7.403556e+01   8.975545e+01
   1.340071e+01   9.876774e+01
  -6.884966e+01   2.993839e+01
  -9.805999e+01  -5.621243e+01
  -3.786237e+01  -9.156331e+01
   5.501450e+01  -5.980496e+01
   9.142743e+01   2.794379e+00
   4.228105e+01   4.796442e+01
  -2.666033e+01   5.408623e+01
  -3.098405e+01   2.636818e+01
   2.541022e+01  -6.802989e+00
   6.035430e+01  -1.087354e+01
   1.750514e+01   2.441259e+01
  -6.655007e+01   6.394810e+01
  -1.050728e+02   5.509058e+01
  -6.465439e+01  -1.116551e+01
   7.709810e+00  -7.778796e+01
   4.550057e+01  -7.720088e+01
   3.780732e+01  -1.228459e+01
   7.545464e+00   4.743425e+01
  -1.999645e+01   4.278730e+01
  -3.343542e+01  -1.039866e+01
  -2.716847e+01  -4.720719e+01
   5.767140e-01  -3.347308e+01
   3.041127e+01   4.489152e+00
   3.793098e+01   1.968198e+01
   1.902084e+01   2.888979e+00
  -3.762276e+00  -1.512043e+01
  -7.115831e+00  -3.460494e+00
   2.000000e+00   3.051426e+01
  -2.373008e+00   4.492489e+01
  -2.433099e+01   1.686197e+01
  -3.527338e+01  -3.178178e+01
  -1.071275e+01  -5.326340e+01
   3.606500e+01  -2.402804e+01
   5.616216e+01   2.742098e+01
   1.962923e+01   5.336003e+01
  -4.726054e+01   3.428756e+01
  -8.090712e+01  -7.535086e+00
  -4.650740e+01  -3.686727e+01
   2.344780e+01  -4.002078e+01
   5.644739e+01  -2.491785e+01
   2.425801e+01  -5.808618e+00
  -2.712205e+01   3.102287e+00
  -3.115471e+01  -7.343015e+00
   2.122890e+01  -2.603510e+01
   7.155419e+01  -2.188797e+01
