
 $NMID
 id='ANONYMOUS ', fmtdat='(2E16.6)'
 volume=1.0
 tramp=1.0
 $END
  -2.933103e+03   2.075251e+02
  -2.022423e+03  -1.608888e+03
   1.279028e+02  -1.958742e+03
   1.247296e+03  -1.015045e+03
   8.093917e+02   9.374799e+01
  -1.982260e+02   3.223915e+02
  -5.013785e+02  -1.751582e+02
  -6.514430e+01  -6.317921e+02
   4.533882e+02  -5.547242e+02
   6.173457e+02  -4.171989e+01
   3.926473e+02   5.029964e+02
  -3.722662e+01   6.296323e+02
  -3.514876e+02   1.691236e+02
  -2.801771e+02  -4.131918e+02
   1.005346e+02  -5.218538e+02
   3.903865e+02  -6.617147e+01
   2.538290e+02   4.369462e+02
  -1.424405e+02   5.090259e+02
  -3.961907e+02   1.626663e+02
  -3.457368e+02  -1.873408e+02
  -8.492465e+01  -3.035588e+02
   1.242337e+02  -2.135434e+02
   1.100656e+02  -5.843694e+01
  -1.046474e+02  -1.389430e+01
  -2.610303e+02  -1.404796e+02
  -8.249328e+01  -2.917433e+02
   3.402143e+02  -2.211847e+02
   5.549376e+02   7.318562e+01
   2.662413e+02   3.405187e+02
  -2.592891e+02   2.716310e+02
  -4.823569e+02  -4.670657e+01
  -2.257183e+02  -3.174550e+02
   1.890046e+02  -3.473565e+02
   3.906602e+02  -1.569309e+02
   3.097296e+02   1.206221e+02
   1.057466e+02   3.016601e+02
  -6.745402e+01   2.086227e+02
  -5.735395e+01  -8.936210e+01
   1.140577e+02  -2.279648e+02
   2.451632e+02   4.145549e+01
   1.222836e+02   4.430003e+02
  -1.952962e+02   4.684743e+02
  -3.586119e+02   4.660658e+01
  -1.725238e+02  -3.192439e+02
   1.492409e+02  -1.977465e+02
   2.199718e+02   1.990402e+02
  -3.881084e+01   3.562556e+02
  -3.621742e+02   9.416044e+01
  -4.145079e+02  -2.691207e+02
  -1.412134e+02  -4.045641e+02
   2.485417e+02  -2.470803e+02
   4.445879e+02   2.711718e+01
   2.941517e+02   2.306457e+02
  -6.488003e+01   2.406929e+02
  -2.901703e+02   7.865290e+01
  -1.988740e+02  -7.361935e+01
   3.144451e+01  -6.535289e+01
   8.401414e+01   6.071203e+01
  -8.752474e+01   9.597776e+01
  -2.187482e+02  -3.600106e+01
  -1.075620e+02  -1.811806e+02
   1.307461e+02  -1.996020e+02
   2.569521e+02  -9.449529e+01
   1.805811e+02   6.376935e+01
  -1.022014e+01   2.091229e+02
  -1.838550e+02   2.686382e+02
  -2.660298e+02   1.523978e+02
  -2.017893e+02  -1.108420e+02
  -6.430824e+01  -3.029013e+02
   4.331476e+01  -2.736907e+02
   5.010393e+01  -1.127536e+02
   2.328089e+01  -4.217330e+01
   6.978291e+01  -7.708382e+01
   1.680813e+02  -7.193100e+01
   1.955158e+02   6.331573e+01
   9.605592e+01   1.964924e+02
  -5.745211e+01   1.685997e+02
  -1.541998e+02  -5.634113e+00
  -1.261256e+02  -1.740544e+02
   1.612671e+01  -2.031729e+02
   1.908614e+02  -7.190349e+01
   2.626073e+02   1.233020e+02
   1.484289e+02   2.485535e+02
  -5.414344e+01   2.278661e+02
  -1.561787e+02   1.185414e+02
  -1.224905e+02   3.564262e+01
  -1.038368e+02   3.412016e+01
  -1.943929e+02   3.357030e+01
  -3.063201e+02  -5.598157e+01
  -2.500478e+02  -2.219058e+02
   1.410536e+01  -3.390389e+02
   2.824445e+02  -3.142615e+02
   3.720554e+02  -1.470174e+02
   2.387554e+02   7.234524e+01
   3.455901e+01   2.087122e+02
  -8.030158e+01   1.761069e+02
  -3.578989e+01   2.970543e+01
   7.687230e+01  -5.557390e+01
   1.192829e+02   1.140223e+01
   2.766603e+01   1.242955e+02
  -9.888197e+01   1.114082e+02
  -1.124348e+02  -3.460157e+01
   9.826158e+00  -1.225142e+02
   1.307004e+02  -1.913321e+01
   1.261908e+02   1.786227e+02
  -1.089765e+01   2.641518e+02
  -1.761432e+02   1.586274e+02
  -2.602925e+02  -4.036088e+01
  -2.153691e+02  -1.852708e+02
  -6.459084e+01  -2.043764e+02
   8.815071e+01  -1.158922e+02
   1.214425e+02  -1.258174e+01
   3.802901e+01   1.782233e+01
  -4.576670e+01  -3.594653e+01
  -1.258321e+01  -9.077280e+01
   9.089754e+01  -6.681445e+01
   1.245366e+02   9.843155e+00
   3.767478e+01   4.548761e+01
  -5.848403e+01   1.781509e-01
  -3.255289e+01  -6.291958e+01
   1.080160e+02  -6.577564e+01
   2.284601e+02   1.121087e+01
   2.009658e+02   1.239377e+02
   3.150456e+01   1.975708e+02
  -1.507793e+02   1.907301e+02
  -2.108083e+02   8.972745e+01
  -1.192772e+02  -3.467279e+01
   1.563049e+01  -7.398294e+01
   5.678146e+01  -6.242534e+00
  -3.007038e+01   6.666171e+01
  -1.413308e+02   3.813161e+01
  -1.517504e+02  -7.559024e+01
  -5.192423e+01  -1.509538e+02
   6.675507e+01  -1.145200e+02
   1.039473e+02  -1.925141e+01
   4.548121e+01   2.774292e+01
  -2.762748e+01  -7.865623e+00
  -2.492440e+01  -7.365346e+01
   6.527008e+01  -8.785939e+01
   1.572000e+02  -1.551612e+01
   1.451314e+02   9.710290e+01
   1.512009e+01   1.619851e+02
  -1.199375e+02   1.220925e+02
  -1.417798e+02   1.032273e+01
  -4.867853e+01  -7.709136e+01
   4.674694e+01  -7.958427e+01
   5.905795e+01  -2.316136e+01
   7.883363e+00   1.836063e+01
  -2.310434e+01   1.064688e+01
   7.566034e+00  -1.335298e+01
   6.246301e+01   2.931811e+00
   7.431810e+01   6.670051e+01
   1.045521e+01   1.290372e+02
  -1.031854e+02   1.198969e+02
  -1.814063e+02   1.601016e+01
  -1.518934e+02  -1.196886e+02
  -3.454824e+01  -1.806572e+02
   7.792389e+01  -1.285914e+02
   1.020250e+02  -2.385100e+01
   5.753054e+01   3.612204e+01
   2.522465e+01   2.377849e+01
   4.144493e+01  -1.195364e+01
   6.356298e+01  -4.978016e+00
   3.890329e+01   4.106042e+01
  -2.917417e+01   7.592561e+01
  -8.613749e+01   5.039317e+01
  -7.613224e+01  -2.761401e+01
   9.620998e+00  -9.217149e+01
   1.161291e+02  -6.972875e+01
   1.551315e+02   4.148960e+01
   7.270335e+01   1.568940e+02
  -8.684899e+01   1.733366e+02
  -2.015214e+02   7.289235e+01
  -1.906367e+02  -6.095416e+01
  -8.205082e+01  -1.262002e+02
   2.406767e+01  -1.066028e+02
   6.564257e+01  -6.591921e+01
   5.500978e+01  -5.754838e+01
   4.675448e+01  -7.230041e+01
   6.910011e+01  -5.958469e+01
   9.888040e+01   1.205873e+01
   9.435613e+01   1.119797e+02
   2.841040e+01   1.703936e+02
  -7.076198e+01   1.314922e+02
  -1.300506e+02   1.816101e+01
  -1.017948e+02  -8.978891e+01
  -1.344689e+01  -1.180460e+02
   5.244823e+01  -6.615153e+01
   4.698937e+01   5.026337e+00
   1.478287e+00   3.642173e+01
  -1.401662e+01   2.751472e+01
   2.274878e+01   1.041173e+01
   6.308683e+01   1.409639e+01
   3.711026e+01   2.860581e+01
  -5.207917e+01   3.019540e+01
  -1.271646e+02   1.160392e+00
  -1.082470e+02  -4.248056e+01
  -5.860970e+00  -7.066060e+01
   9.529922e+01  -5.758023e+01
   1.095396e+02  -8.436111e+00
   3.736301e+01   3.534778e+01
  -4.362095e+01   3.230505e+01
  -5.832080e+01  -1.302017e+01
  -1.161499e+01  -5.359960e+01
   3.648225e+01  -4.750995e+01
   5.005937e+01  -2.306487e-01
   4.057252e+01   3.905995e+01
   3.578462e+01   3.237167e+01
   4.133899e+01  -4.328008e-01
   4.832281e+01  -2.030638e+00
   3.225346e+01   5.070067e+01
  -1.658751e+01   1.115375e+02
  -8.811378e+01   1.142350e+02
  -1.334393e+02   3.187673e+01
  -1.017531e+02  -6.758307e+01
  -6.936861e+00  -1.010416e+02
   6.898175e+01  -5.514668e+01
   4.853312e+01   5.944556e+00
  -4.438139e+01   1.491760e+01
  -1.015399e+02  -2.935662e+01
  -5.665644e+01  -7.888833e+01
   6.003271e+01  -8.395810e+01
   1.424972e+02  -3.897077e+01
   1.214056e+02   2.373552e+01
   2.876342e+01   6.350633e+01
  -4.530862e+01   5.122087e+01
  -3.742423e+01   4.115983e+00
   2.876154e+01  -2.268825e+01
   7.172451e+01   1.288797e+01
   3.319293e+01   8.902171e+01
  -6.078607e+01   1.240593e+02
  -1.250811e+02   5.840779e+01
  -1.004218e+02  -7.102483e+01
  -1.566164e+01  -1.497690e+02
   5.936287e+01  -1.083710e+02
   7.846392e+01   5.735774e+00
   4.501249e+01   8.811590e+01
  -2.571876e+00   7.956808e+01
  -3.544823e+01   1.338248e+01
  -3.783414e+01  -2.348449e+01
  -1.737613e+01  -6.614847e+00
  -2.742776e+00   1.354706e+01
  -1.944418e+01  -1.349876e+01
  -4.311533e+01  -6.728383e+01
  -2.985002e+01  -8.056663e+01
   3.878274e+01  -3.333917e+01
   1.047721e+02   2.855224e+01
   9.526039e+01   5.239790e+01
   1.505302e+01   3.900754e+01
  -6.231437e+01   1.924840e+01
  -6.514995e+01   6.593087e+00
  -1.191190e+01  -6.759242e+00
   2.635932e+01  -1.682319e+01
   1.240288e+01  -1.241418e+01
  -1.244626e+01   2.376608e+00
   3.921481e+00   5.204994e+00
   5.266571e+01  -1.268663e-01
   7.022834e+01   1.545367e+01
   1.394281e+01   6.074356e+01
  -8.294541e+01   9.234050e+01
  -1.422858e+02   5.349952e+01
  -1.158513e+02  -4.411393e+01
  -2.731728e+01  -1.218171e+02
   5.762966e+01  -1.182781e+02
   8.811969e+01  -5.080571e+01
   6.171717e+01   1.255364e+01
   2.110508e+01   2.603444e+01
   1.799984e+00   9.035512e+00
   1.053027e+01   6.553144e+00
   2.571129e+01   3.790443e+01
   1.632882e+01   6.914925e+01
  -2.236908e+01   5.451207e+01
  -6.189614e+01  -1.325280e+01
  -6.241320e+01  -7.936804e+01
  -1.063908e+01  -8.485990e+01
   5.865417e+01  -2.444618e+01
   8.078554e+01   4.922246e+01
   3.062244e+01   7.681071e+01
  -4.743464e+01   4.678837e+01
  -7.677177e+01  -4.945471e+00
  -3.318605e+01  -4.079057e+01
   2.480814e+01  -4.458092e+01
   2.676044e+01  -2.257720e+01
  -2.262480e+01   3.287505e+00
  -5.268276e+01   7.925017e+00
  -1.382645e+01  -1.918132e+01
   6.056777e+01  -5.347978e+01
   9.145338e+01  -4.712440e+01
   5.239986e+01   9.262708e+00
  -1.020033e+01   6.446892e+01
  -4.212467e+01   6.263556e+01
  -3.125355e+01   8.642542e+00
  -3.864274e+00  -4.045337e+01
   1.860911e+01  -3.510160e+01
   2.854627e+01   9.316218e+00
   2.314402e+01   4.064527e+01
  -4.227590e-02   2.920442e+01
  -2.598860e+01  -3.438032e+00
  -3.339238e+01  -1.762840e+01
  -1.715344e+01  -2.841510e+00
   2.479404e+00   1.323607e+01
   5.687940e+00   3.157240e+00
  -1.070248e+00  -2.637487e+01
   3.457189e+00  -3.949022e+01
   2.160897e+01  -1.399294e+01
   2.988187e+01   2.948918e+01
   7.156809e+00   4.735312e+01
  -3.211421e+01   1.971846e+01
  -4.795398e+01  -2.515374e+01
  -1.504068e+01  -4.587637e+01
   4.217761e+01  -2.787569e+01
   6.916477e+01   7.672714e+00
   3.739613e+01   3.233247e+01
  -2.238316e+01   3.450773e+01
  -4.946655e+01   2.039438e+01
  -2.061382e+01   4.001231e+00
   2.466670e+01  -2.984437e+00
   2.760312e+01   6.428466e+00
  -1.950844e+01   2.205262e+01
  -6.373149e+01   1.725684e+01
