
 $NMID
 id='ANONYMOUS ', fmtdat='(2E16.6)'
 volume=1.0
 tramp=1.0
 $END
  -2.643244e+03  -1.174381e+01
  -1.757376e+03  -1.445177e+03
   1.102861e+02  -1.680141e+03
   1.020282e+03  -8.877513e+02
   6.820683e+02  -3.303256e+01
  -8.386391e+01   1.603622e+02
  -3.292115e+02  -1.566115e+02
  -6.080507e+00  -4.971417e+02
   3.830832e+02  -4.551627e+02
   5.146657e+02  -4.939253e+01
   3.343679e+02   4.174398e+02
  -4.001432e+00   5.233717e+02
  -2.650749e+02   1.467999e+02
  -2.150954e+02  -3.453511e+02
   8.362673e+01  -4.419695e+02
   3.159160e+02  -5.678051e+01
   2.174903e+02   3.762521e+02
  -1.116408e+02   4.508621e+02
  -3.618867e+02   1.700769e+02
  -3.162672e+02  -1.397253e+02
  -9.132737e+01  -2.757413e+02
   1.000512e+02  -1.917267e+02
   7.936770e+01  -6.062460e+01
  -1.163915e+02  -4.933029e+01
  -2.217424e+02  -1.740573e+02
  -2.494194e+01  -2.682607e+02
   3.390067e+02  -1.512241e+02
   4.798546e+02   1.193061e+02
   2.083818e+02   2.989425e+02
  -2.505283e+02   1.964695e+02
  -4.109193e+02  -7.608453e+01
  -1.724129e+02  -2.782767e+02
   1.802308e+02  -2.896210e+02
   3.466766e+02  -1.278390e+02
   2.652435e+02   1.023490e+02
   8.080745e+01   2.424746e+02
  -3.754474e+01   1.637151e+02
  -5.908240e+00  -7.054601e+01
   1.230078e+02  -1.575210e+02
   1.941770e+02   7.888077e+01
   6.262767e+01   3.946272e+02
  -1.920631e+02   3.891735e+02
  -2.871383e+02   1.613191e+01
  -1.134830e+02  -2.639454e+02
   1.244635e+02  -1.386610e+02
   1.540766e+02   1.960453e+02
  -6.782551e+01   3.054206e+02
  -3.231916e+02   5.763875e+01
  -3.551584e+02  -2.640239e+02
  -1.161371e+02  -3.642046e+02
   2.219617e+02  -2.065745e+02
   3.885295e+02   3.865516e+01
   2.560699e+02   1.982313e+02
  -4.714209e+01   1.946794e+02
  -2.428058e+02   6.521572e+01
  -1.739916e+02  -4.480059e+01
   5.618434e+00  -3.894993e+01
   5.090467e+01   4.339924e+01
  -7.469962e+01   6.196413e+01
  -1.792414e+02  -3.949213e+01
  -9.426788e+01  -1.514770e+02
   1.124448e+02  -1.759478e+02
   2.403014e+02  -9.169371e+01
   1.800616e+02   5.902541e+01
  -8.384375e+00   2.093200e+02
  -1.965642e+02   2.590456e+02
  -2.637049e+02   1.322101e+02
  -1.834928e+02  -1.132208e+02
  -4.425351e+01  -2.820829e+02
   3.580036e+01  -2.488564e+02
   2.945781e+01  -1.137831e+02
   1.846201e+01  -5.468684e+01
   8.180776e+01  -7.884475e+01
   1.685539e+02  -5.524598e+01
   1.760474e+02   7.406930e+01
   7.615680e+01   1.841144e+02
  -6.129177e+01   1.439944e+02
  -1.410900e+02  -2.256763e+01
  -1.040558e+02  -1.716230e+02
   3.173177e+01  -1.849633e+02
   1.834224e+02  -5.184796e+01
   2.345153e+02   1.261151e+02
   1.296210e+02   2.267991e+02
  -4.562422e+01   2.035370e+02
  -1.345836e+02   1.107567e+02
  -1.126022e+02   4.792328e+01
  -1.075820e+02   4.409617e+01
  -2.003346e+02   2.848118e+01
  -2.976224e+02  -6.708460e+01
  -2.325460e+02  -2.220588e+02
   2.189104e+01  -3.268478e+02
   2.788972e+02  -2.936139e+02
   3.553543e+02  -1.292562e+02
   2.174445e+02   7.425271e+01
   2.043860e+01   1.893457e+02
  -7.223685e+01   1.517073e+02
  -1.824064e+01   2.477976e+01
   8.410961e+01  -3.789169e+01
   1.033490e+02   2.518122e+01
   1.196567e+01   1.112298e+02
  -8.878680e+01   8.902888e+01
  -9.217501e+01  -3.626627e+01
   1.432992e+01  -1.037468e+02
   1.160452e+02  -7.869172e+00
   1.112099e+02   1.693471e+02
  -1.395898e+01   2.457576e+02
  -1.692234e+02   1.478059e+02
  -2.493347e+02  -4.480804e+01
  -1.985132e+02  -1.848250e+02
  -5.160891e+01  -1.965155e+02
   8.863305e+01  -1.024471e+02
   1.094514e+02  -3.093814e+00
   2.959928e+01   1.398190e+01
  -4.114851e+01  -4.046063e+01
  -4.018760e+00  -8.504664e+01
   8.755509e+01  -5.446568e+01
   1.101990e+02   1.674103e+01
   2.819965e+01   4.069355e+01
  -5.790247e+01  -6.678410e+00
  -2.907786e+01  -6.634803e+01
   1.067086e+02  -6.380714e+01
   2.224691e+02   1.577512e+01
   1.934811e+02   1.258934e+02
   2.186160e+01   1.914278e+02
  -1.543725e+02   1.736141e+02
  -2.010136e+02   7.308564e+01
  -1.031741e+02  -3.563667e+01
   2.150653e+01  -6.119048e+01
   4.954979e+01   1.787612e+00
  -3.812864e+01   5.959800e+01
  -1.359319e+02   2.592807e+01
  -1.384022e+02  -7.778588e+01
  -4.258737e+01  -1.411211e+02
   6.636711e+01  -1.026648e+02
   9.640122e+01  -1.336759e+01
   3.720020e+01   2.806581e+01
  -2.986890e+01  -1.126756e+01
  -2.228453e+01  -7.615351e+01
   6.769245e+01  -8.445867e+01
   1.529264e+02  -8.758936e+00
   1.329868e+02   9.813292e+01
   6.559672e+00   1.515639e+02
  -1.154899e+02   1.079930e+02
  -1.288570e+02   4.939776e+00
  -4.077786e+01  -7.156425e+01
   4.574201e+01  -7.097290e+01
   5.351465e+01  -1.919657e+01
   5.171187e+00   1.826549e+01
  -2.383400e+01   9.397118e+00
   6.224389e+00  -1.534852e+01
   6.225737e+01   2.158618e-01
   7.462246e+01   6.597801e+01
   8.212728e+00   1.274979e+02
  -1.053033e+02   1.135475e+02
  -1.761356e+02   8.430038e+00
  -1.429551e+02  -1.186611e+02
  -2.785543e+01  -1.710887e+02
   7.521613e+01  -1.206257e+02
   9.700562e+01  -2.397723e+01
   5.515023e+01   3.303148e+01
   2.552791e+01   2.300671e+01
   4.019778e+01  -9.699893e+00
   6.274831e+01  -5.285160e+00
   4.047281e+01   3.937615e+01
  -2.634527e+01   7.569523e+01
  -8.638522e+01   5.112017e+01
  -7.760702e+01  -2.902241e+01
   9.669688e+00  -9.214230e+01
   1.147406e+02  -6.655318e+01
   1.481314e+02   4.317018e+01
   6.518873e+01   1.506381e+02
  -8.627792e+01   1.602959e+02
  -1.912453e+02   6.347887e+01
  -1.776875e+02  -6.158568e+01
  -7.336670e+01  -1.215862e+02
   2.804752e+01  -1.000094e+02
   6.566552e+01  -5.789824e+01
   5.287093e+01  -4.995361e+01
   4.358692e+01  -6.573820e+01
   6.456099e+01  -5.599497e+01
   9.387031e+01   1.285521e+01
   8.744737e+01   1.093223e+02
   2.109676e+01   1.651211e+02
  -7.259900e+01   1.231670e+02
  -1.250089e+02   1.104891e+01
  -9.265976e+01  -9.074275e+01
  -6.566942e+00  -1.127819e+02
   5.375770e+01  -5.931870e+01
   4.418308e+01   9.825385e+00
  -2.143719e+00   3.763032e+01
  -1.804718e+01   2.568540e+01
   1.898446e+01   7.934455e+00
   6.062468e+01   1.361524e+01
   3.627692e+01   2.838913e+01
  -5.068653e+01   2.847323e+01
  -1.235451e+02  -1.985412e+00
  -1.037972e+02  -4.519871e+01
  -1.664654e+00  -6.944544e+01
   9.534261e+01  -5.219113e+01
   1.044754e+02  -3.905662e+00
   3.213530e+01   3.562780e+01
  -4.363531e+01   2.985198e+01
  -5.537660e+01  -1.327123e+01
  -1.159059e+01  -5.078835e+01
   3.421963e+01  -4.545103e+01
   4.832607e+01  -1.507639e+00
   3.953113e+01   3.665115e+01
   3.436602e+01   3.251649e+01
   3.794465e+01   1.714277e+00
   4.633966e+01  -8.419112e-01
   3.154467e+01   4.974898e+01
  -1.759609e+01   1.086030e+02
  -8.940793e+01   1.086499e+02
  -1.299498e+02   2.670540e+01
  -9.512978e+01  -6.792878e+01
  -3.412424e+00  -9.692015e+01
   6.660092e+01  -5.156888e+01
   4.562148e+01   6.127747e+00
  -4.144835e+01   1.300618e+01
  -9.390958e+01  -2.889244e+01
  -5.133062e+01  -7.467503e+01
   5.838856e+01  -7.738923e+01
   1.359396e+02  -3.270468e+01
   1.142247e+02   2.675540e+01
   2.469402e+01   6.197110e+01
  -4.568908e+01   4.686242e+01
  -3.651546e+01   1.228594e+00
   2.746862e+01  -2.256433e+01
   6.792796e+01   1.263002e+01
   3.119238e+01   8.321073e+01
  -5.722843e+01   1.147908e+02
  -1.168781e+02   5.394614e+01
  -9.325658e+01  -6.527310e+01
  -1.310637e+01  -1.386112e+02
   5.765141e+01  -9.933305e+01
   7.320397e+01   7.232345e+00
   3.957509e+01   8.481082e+01
  -6.792040e+00   7.404259e+01
  -3.518620e+01   1.079602e+01
  -3.427415e+01  -2.346689e+01
  -1.470254e+01  -5.985956e+00
  -3.146342e+00   1.326684e+01
  -1.891368e+01  -1.327632e+01
  -3.894854e+01  -6.415094e+01
  -2.672651e+01  -7.557065e+01
   3.691550e+01  -2.955373e+01
   9.674606e+01   2.758465e+01
   8.979971e+01   4.955946e+01
   1.445337e+01   3.747658e+01
  -5.744377e+01   1.871313e+01
  -6.324571e+01   5.523303e+00
  -1.322628e+01  -8.426939e+00
   2.497418e+01  -1.671641e+01
   1.374338e+01  -1.148242e+01
  -1.084565e+01   3.525025e+00
   2.143417e+00   5.688206e+00
   4.715031e+01  -2.397323e-02
   6.545501e+01   1.443025e+01
   1.519850e+01   5.653457e+01
  -7.662159e+01   8.486805e+01
  -1.331546e+02   4.782233e+01
  -1.072665e+02  -4.136083e+01
  -2.409104e+01  -1.123699e+02
   5.493565e+01  -1.094121e+02
   8.214146e+01  -4.885405e+01
   5.798920e+01   1.111912e+01
   2.047769e+01   2.478078e+01
   3.124215e+00   8.981704e+00
   1.154997e+01   7.423505e+00
   2.365234e+01   3.758053e+01
   1.339687e+01   6.657378e+01
  -2.183596e+01   5.228382e+01
  -5.849751e+01  -1.098796e+01
  -5.844609e+01  -7.356940e+01
  -1.119431e+01  -7.959511e+01
   5.321774e+01  -2.340382e+01
   7.522314e+01   4.486531e+01
   3.043623e+01   7.206425e+01
  -4.359778e+01   4.521607e+01
  -7.300145e+01  -3.975916e+00
  -3.261325e+01  -3.989280e+01
   2.376506e+01  -4.364642e+01
   2.776169e+01  -2.271057e+01
  -1.972269e+01   4.054536e+00
  -4.993552e+01   8.025426e+00
  -1.383039e+01  -1.846581e+01
   5.868414e+01  -5.116737e+01
   8.956224e+01  -4.361193e+01
   5.190567e+01   1.006184e+01
  -9.514547e+00   6.174884e+01
  -4.106298e+01   6.092943e+01
  -3.132608e+01   9.693220e+00
  -5.234332e+00  -3.831550e+01
   1.727220e+01  -3.537846e+01
   2.788610e+01   7.465658e+00
   2.309296e+01   3.961732e+01
   1.153044e-01   2.932142e+01
  -2.479762e+01  -2.853820e+00
  -3.180810e+01  -1.769162e+01
  -1.542279e+01  -3.244015e+00
   3.149926e+00   1.364705e+01
   5.183928e+00   5.057358e+00
  -1.376508e+00  -2.405838e+01
   1.706604e+00  -3.768388e+01
   1.902876e+01  -1.539143e+01
   2.816348e+01   2.498484e+01
   8.468245e+00   4.146533e+01
  -2.801874e+01   1.817642e+01
  -4.418892e+01  -2.243719e+01
  -1.443617e+01  -4.225212e+01
   3.966493e+01  -2.591458e+01
   6.635949e+01   7.118383e+00
   3.625421e+01   3.053598e+01
  -2.008052e+01   3.380227e+01
  -4.623658e+01   2.091584e+01
  -2.091097e+01   5.494099e+00
   2.063235e+01  -2.838390e+00
   2.422911e+01   4.257981e+00
  -1.746806e+01   1.785361e+01
  -5.749899e+01   1.478392e+01
