
 $NMID
 id='ANONYMOUS ', fmtdat='(2E16.6)'
 volume=1.0
 tramp=1.0
 $END
   1.581013e+07  -1.882322e+05
   1.072153e+07   6.969345e+06
   3.538988e+05   9.866974e+06
  -6.553449e+06   7.046398e+06
  -5.808098e+06   1.126850e+06
  -5.789841e+05  -2.837579e+06
   3.203596e+06  -1.738478e+06
   2.689089e+06   2.429259e+06
  -4.873577e+05   4.601880e+06
  -2.942084e+06   2.206994e+06
  -2.709482e+06  -2.049349e+06
  -4.200534e+05  -3.465881e+06
   1.598937e+06  -7.206231e+05
   1.391740e+06   2.916735e+06
  -8.155125e+05   3.479002e+06
  -2.711488e+06   4.610983e+05
  -2.150921e+06  -3.114012e+06
   5.862703e+05  -4.064467e+06
   3.037852e+06  -1.974113e+06
   3.131254e+06   9.295751e+05
   1.266741e+06   2.258278e+06
  -3.013300e+05   1.674468e+06
   1.468459e+04   8.052996e+05
   1.441194e+06   1.174045e+06
   1.710956e+06   2.459395e+06
  -3.958426e+05   2.972830e+06
  -3.455217e+06   1.684403e+06
  -4.590784e+06  -6.028605e+05
  -2.480607e+06  -2.125466e+06
   1.003701e+06  -1.852415e+06
   2.577229e+06  -2.301162e+05
   9.896553e+05   1.333224e+06
  -1.744321e+06   1.498311e+06
  -2.732459e+06  -2.106440e+04
  -1.323020e+06  -2.008148e+06
   6.220276e+05  -2.569879e+06
   1.188727e+06  -1.048123e+06
   3.726664e+05   9.664892e+05
  -4.677637e+05   1.203602e+06
  -3.676778e+05  -5.753965e+05
   4.754237e+05  -2.134228e+06
   1.233032e+06  -1.445076e+06
   1.194642e+06   7.734507e+05
   2.072360e+05   1.919285e+06
  -1.062869e+06   6.634786e+05
  -1.360323e+06  -1.551590e+06
   4.228580e+04  -2.303119e+06
   2.223283e+06  -8.408683e+05
   3.105161e+06   1.395915e+06
   1.544514e+06   2.478554e+06
  -1.242131e+06   1.743355e+06
  -2.768202e+06   5.968141e+04
  -1.815361e+06  -1.150440e+06
   4.035799e+05  -1.089176e+06
   1.660029e+06  -1.165818e+05
   1.010974e+06   6.832884e+05
  -4.626960e+05   5.459735e+05
  -1.030414e+06  -2.712641e+05
  -1.773074e+05  -8.296686e+05
   9.537546e+05  -5.120492e+05
   9.003170e+05   3.704575e+05
  -4.432478e+05   9.058076e+05
  -1.615464e+06   4.206481e+05
  -1.137995e+06  -9.045503e+05
   8.336354e+05  -2.070583e+06
   2.622925e+06  -1.975622e+06
   2.792459e+06  -3.944849e+05
   1.532266e+06   1.649326e+06
   1.818603e+05   2.715322e+06
  -3.416089e+05   2.320547e+06
  -3.115855e+05   1.330863e+06
  -5.082552e+05   8.273521e+05
  -1.178294e+06   8.093942e+05
  -1.820841e+06   3.849575e+05
  -1.769109e+06  -8.125524e+05
  -8.144640e+05  -1.879437e+06
   5.796083e+05  -1.609955e+06
   1.505147e+06   4.577912e+03
   1.217171e+06   1.601808e+06
  -1.767828e+05   1.807369e+06
  -1.616915e+06   5.569591e+05
  -1.946735e+06  -9.961689e+05
  -1.016577e+06  -1.702179e+06
   1.959300e+05  -1.396790e+06
   6.889642e+05  -7.775409e+05
   5.314744e+05  -5.293445e+05
   6.462404e+05  -6.591966e+05
   1.521805e+06  -6.011224e+05
   2.413442e+06   1.314988e+05
   2.066900e+06   1.387993e+06
   2.116041e+05   2.393506e+06
  -1.896918e+06   2.333280e+06
  -2.603657e+06   1.073823e+06
  -1.496735e+06  -5.816965e+05
   2.064368e+05  -1.448018e+06
   9.348748e+05  -9.847170e+05
   2.954535e+05   1.519345e+05
  -7.397990e+05   7.256835e+05
  -1.019911e+06   2.120925e+05
  -3.704461e+05  -6.344618e+05
   4.155670e+05  -6.836370e+05
   4.975490e+05   1.693663e+05
  -2.246367e+05   7.932052e+05
  -1.076086e+06   1.434931e+05
  -1.179098e+06  -1.413995e+06
  -1.671394e+05  -2.374722e+06
   1.419289e+06  -1.681190e+06
   2.426002e+06   1.717924e+05
   2.021662e+06   1.683794e+06
   5.198593e+05   1.840482e+06
  -8.280259e+05   9.441039e+05
  -1.024911e+06   8.173081e+04
  -2.977773e+05  -1.949179e+04
   2.392042e+05   4.331634e+05
  -1.301296e+05   7.063563e+05
  -9.406352e+05   3.652637e+05
  -1.137399e+06  -3.197010e+05
  -3.446494e+05  -7.003398e+05
   6.379388e+05  -4.205226e+05
   6.847634e+05   2.265687e+05
  -3.824985e+05   5.649052e+05
  -1.505054e+06   1.608748e+05
  -1.445206e+06  -7.525443e+05
  -9.291398e+04  -1.429362e+06
   1.381126e+06  -1.244535e+06
   1.700710e+06  -2.883032e+05
   7.359940e+05   6.472416e+05
  -4.593568e+05   7.773380e+05
  -7.672044e+05   1.052858e+05
  -5.105632e+04  -5.571293e+05
   8.596959e+05  -4.399767e+05
   1.059610e+06   3.496136e+05
   3.891972e+05   9.594542e+05
  -5.014765e+05   7.592725e+05
  -8.005253e+05   2.994060e+04
  -3.014866e+05  -3.961649e+05
   3.850968e+05  -7.714271e+04
   4.240195e+05   5.912332e+05
  -3.566630e+05   8.395048e+05
  -1.209916e+06   3.122395e+05
  -1.214739e+06  -6.172331e+05
  -2.710845e+05  -1.211351e+06
   7.704710e+05  -1.012510e+06
   1.004882e+06  -2.237284e+05
   3.829519e+05   4.747782e+05
  -3.415394e+05   5.376704e+05
  -4.671995e+05   5.544407e+04
  -1.721435e+04  -3.731092e+05
   4.103885e+05  -3.043333e+05
   3.315949e+05   6.910636e+04
  -1.320320e+05   1.792425e+05
  -3.975591e+05  -2.107029e+05
  -3.038784e+04  -6.837828e+05
   7.626744e+05  -6.056155e+05
   1.261714e+06   1.770395e+05
   9.173447e+05   1.129389e+06
  -7.955338e+04   1.503878e+06
  -9.634577e+05   1.009945e+06
  -1.142620e+06   5.750645e+04
  -7.236571e+05  -6.268802e+05
  -2.743245e+05  -6.554535e+05
  -1.603372e+05  -2.946149e+05
  -2.155905e+05  -1.197469e+05
  -4.399333e+04  -3.506859e+05
   4.535747e+05  -5.955017e+05
   9.008499e+05  -3.248384e+05
   7.817505e+05   4.396345e+05
  -2.920786e+04   1.031842e+06
  -1.032806e+06   7.960024e+05
  -1.434835e+06  -2.102587e+05
  -8.203731e+05  -1.218404e+06
   4.288043e+05  -1.445067e+06
   1.418193e+06  -7.751772e+05
   1.504286e+06   2.018026e+05
   8.098263e+05   7.773900e+05
   1.055370e+04   7.446270e+05
  -3.385554e+05   4.799742e+05
  -2.502298e+05   4.486052e+05
  -1.477254e+05   6.657046e+05
  -3.465122e+05   6.940624e+05
  -7.114973e+05   1.847908e+05
  -8.035759e+05  -6.448107e+05
  -3.598333e+05  -1.150981e+06
   3.692031e+05  -8.884704e+05
   7.959344e+05  -5.420784e+04
   5.577649e+05   6.975422e+05
  -1.029734e+05   8.428167e+05
  -5.718335e+05   3.920929e+05
  -4.861607e+05  -2.149933e+05
  -7.707788e+04  -5.441676e+05
   1.406736e+05  -5.041887e+05
  -2.800380e+04  -3.205178e+05
  -2.404141e+05  -2.337641e+05
  -2.430526e+04  -2.481798e+05
   6.347913e+05  -1.718286e+05
   1.178455e+06   1.269388e+05
   1.002032e+06   5.388625e+05
   1.072900e+05   7.912964e+05
  -8.223920e+05   6.873255e+05
  -1.061743e+06   2.813441e+05
  -5.510747e+05  -1.434513e+05
   9.425300e+04  -2.848048e+05
   2.713679e+05  -8.651914e+04
  -1.829881e+04   1.741157e+05
  -3.102133e+05   1.423847e+05
  -2.830760e+05  -2.027098e+05
  -6.645297e+04  -4.686489e+05
   2.842789e+04  -3.004957e+05
  -9.100481e+04   1.314260e+05
  -2.403712e+05   2.741505e+05
  -1.919782e+05  -1.238764e+05
   1.164026e+05  -6.410092e+05
   5.236826e+05  -6.477731e+05
   7.099924e+05  -6.059772e+04
   4.171671e+05   5.500489e+05
  -2.357796e+05   6.072086e+05
  -6.956314e+05   1.279933e+05
  -4.433008e+05  -3.700978e+05
   3.895903e+05  -4.292610e+05
   1.016670e+06  -3.083892e+04
   7.674418e+05   4.771693e+05
  -1.742433e+05   6.967342e+05
  -9.321050e+05   4.676179e+05
  -8.501024e+05  -1.442765e+04
  -1.460327e+05  -3.355014e+05
   3.797882e+05  -2.263121e+05
   2.076315e+05   1.424237e+05
  -3.987162e+05   2.832529e+05
  -7.202922e+05  -1.052535e+05
  -3.414722e+05  -7.562314e+05
   4.444628e+05  -1.020921e+06
   9.536611e+05  -5.011844e+05
   7.823793e+05   4.872955e+05
   1.387173e+05   1.129444e+06
  -4.395327e+05   8.670385e+05
  -5.940370e+05  -3.201067e+04
  -3.523096e+05  -7.229018e+05
   3.657086e+04  -6.509532e+05
   3.221829e+05  -9.631708e+04
   3.567990e+05   2.398434e+05
   1.713999e+05   1.028517e+05
   2.497539e+03  -8.027604e+04
   8.143162e+04   1.353287e+05
   2.954252e+05   5.736781e+05
   2.169729e+05   6.809126e+05
  -3.452419e+05   2.696252e+05
  -9.383831e+05  -2.685719e+05
  -8.856308e+05  -4.987898e+05
  -1.348825e+05  -4.151917e+05
   5.906887e+05  -2.672947e+05
   6.336749e+05  -1.539735e+05
   1.685162e+05  -1.056114e+04
  -1.133019e+05   1.358201e+05
   5.906469e+04   1.649402e+05
   2.492490e+05   9.795234e+04
   1.024972e+03   8.796941e+04
  -4.968270e+05   1.241672e+05
  -6.392138e+05  -2.233026e+04
  -1.541366e+05  -4.142849e+05
   5.899947e+05  -6.896287e+05
   9.928843e+05  -4.213259e+05
   7.780499e+05   3.044140e+05
   1.496630e+05   8.835882e+05
  -4.434122e+05   8.302990e+05
  -6.454872e+05   2.864187e+05
  -4.203413e+05  -1.834802e+05
  -5.091408e+04  -2.204591e+05
   1.132939e+05   3.702761e+03
  -2.303838e+04   6.432179e+04
  -2.252880e+05  -2.004382e+05
  -1.908905e+05  -4.973615e+05
   1.228522e+05  -4.051759e+05
   4.392022e+05   1.228664e+05
   4.183062e+05   6.370839e+05
  -7.390588e+03   6.313487e+05
  -5.123314e+05   8.575445e+04
  -6.215085e+05  -5.087613e+05
  -1.720893e+05  -6.694001e+05
   4.511554e+05  -3.679528e+05
   6.560138e+05   6.284249e+04
   2.882570e+05   3.263888e+05
  -1.706160e+05   3.533263e+05
  -1.723119e+05   2.119955e+05
   2.204406e+05   2.846146e+04
   4.195136e+05  -1.729452e+04
   6.876932e+04   1.773929e+05
  -5.067753e+05   4.336358e+05
  -7.175363e+05   3.897314e+05
  -4.043520e+05  -5.493519e+04
   6.190129e+04  -5.116865e+05
   2.795523e+05  -5.033561e+05
   1.972944e+05  -5.217388e+04
   9.195854e+02   3.245119e+05
  -1.595364e+05   2.345996e+05
  -2.237962e+05  -1.485052e+05
  -1.502477e+05  -3.585308e+05
   4.838429e+04  -2.105435e+05
   2.401101e+05   5.224202e+04
   2.732538e+05   1.306540e+05
   1.486828e+05   2.142767e+04
   9.516340e+03  -4.687170e+04
  -4.767192e+04   7.013127e+04
  -7.287451e+04   2.591801e+05
  -1.479798e+05   2.782418e+05
  -2.370895e+05   2.865705e+04
  -2.075319e+05  -3.060740e+05
   6.307556e+03  -4.124084e+05
   2.825946e+05  -1.671253e+05
   3.729998e+05   2.115678e+05
   1.287569e+05   3.787902e+05
  -2.951054e+05   2.181789e+05
  -5.113869e+05  -7.204005e+04
  -2.795520e+05  -2.342152e+05
   1.818881e+05  -2.036168e+05
   3.800704e+05  -8.743295e+04
   1.084197e+05  -1.100821e+03
  -2.805627e+05  -2.939601e+03
  -2.797401e+05  -1.041544e+05
   1.555170e+05  -2.217219e+05
   5.467115e+05  -1.697163e+05
