
 $NMID
 id='ANONYMOUS ', fmtdat='(2E16.6)'
 volume=1.0
 tramp=1.0
 $END
   4.400183e+07  -2.522487e+06
   2.897542e+07   2.410758e+07
  -2.552919e+06   2.978002e+07
  -2.043178e+07   1.459826e+07
  -1.420911e+07  -2.906402e+06
   1.242571e+06  -7.708130e+06
   8.203964e+06  -7.553566e+05
   3.836273e+06   7.486163e+06
  -3.823746e+06   8.938479e+06
  -7.751166e+06   3.002340e+06
  -6.175821e+06  -4.809433e+06
  -1.031432e+06  -7.372162e+06
   3.301167e+06  -2.239936e+06
   2.578585e+06   5.081931e+06
  -2.656819e+06   6.343549e+06
  -6.601980e+06  -2.202067e+05
  -4.458883e+06  -8.021832e+06
   2.215697e+06  -9.897773e+06
   7.795994e+06  -5.227414e+06
   8.558385e+06   1.373281e+06
   5.101796e+06   5.607834e+06
   6.671603e+05   6.199396e+06
  -1.401383e+06   4.361497e+06
  -1.219706e+05   2.632457e+06
   1.678044e+06   2.947413e+06
  -8.411565e+04   4.354232e+06
  -5.306167e+06   3.775473e+06
  -8.653965e+06   1.602671e+05
  -5.913953e+06  -3.582344e+06
   3.076442e+05  -4.120541e+06
   3.726052e+06  -1.717203e+06
   1.998626e+06   7.610325e+05
  -1.550662e+06   1.404297e+06
  -3.081518e+06   1.892001e+05
  -2.081464e+06  -2.114974e+06
  -5.578157e+04  -3.903282e+06
   1.674500e+06  -3.004123e+06
   2.102235e+06   4.911728e+05
   8.716346e+05   2.795491e+06
  -5.158113e+05   8.098746e+05
   1.235919e+05  -2.775598e+06
   2.242253e+06  -2.366528e+06
   2.385788e+06   2.357289e+06
  -1.080549e+06   5.102552e+06
  -4.848759e+06   1.415875e+06
  -4.282182e+06  -4.929277e+06
   8.009677e+05  -6.727807e+06
   5.798556e+06  -2.298136e+06
   6.345023e+06   3.377066e+06
   2.285490e+06   5.230561e+06
  -2.861129e+06   2.872855e+06
  -5.048273e+06  -7.738967e+05
  -2.756249e+06  -2.837227e+06
   1.661018e+06  -2.149845e+06
   3.861116e+06   3.216567e+05
   1.945658e+06   2.033657e+06
  -1.285176e+06   1.250212e+06
  -1.753532e+06  -7.673448e+05
   6.937678e+05  -1.193725e+06
   2.270403e+06   6.411258e+05
   4.135931e+05   2.430806e+06
  -3.015423e+06   2.003666e+06
  -4.354622e+06  -3.273742e+05
  -2.313672e+06  -2.914919e+06
   1.447822e+06  -4.539608e+06
   4.543187e+06  -4.280948e+06
   5.431298e+06  -1.471550e+06
   3.802849e+06   2.782471e+06
   8.589644e+05   5.405735e+06
  -1.224769e+06   4.455856e+06
  -1.300771e+06   1.682905e+06
  -5.210664e+05   3.439063e+05
  -7.474605e+05   9.975203e+05
  -2.046314e+06   1.266892e+06
  -2.739066e+06  -3.457059e+05
  -1.706287e+06  -2.305615e+06
   3.562429e+05  -2.273498e+06
   1.890058e+06  -9.069087e+04
   1.791346e+06   2.277689e+06
  -7.467513e+04   2.915203e+06
  -2.643037e+06   1.397987e+06
  -3.934964e+06  -1.227048e+06
  -2.696666e+06  -3.228401e+06
  -1.597635e+04  -3.428073e+06
   1.697286e+06  -2.230765e+06
   1.657322e+06  -1.131226e+06
   1.535237e+06  -9.023080e+05
   2.776830e+06  -7.374165e+05
   4.217324e+06   4.685262e+05
   3.495838e+06   2.515090e+06
   2.766894e+05   4.043561e+06
  -3.105031e+06   3.902368e+06
  -4.149522e+06   2.019687e+06
  -2.543922e+06  -5.820117e+05
  -5.617569e+04  -2.243598e+06
   1.222776e+06  -1.793421e+06
   5.198988e+05   1.067391e+05
  -1.110267e+06   1.266305e+06
  -1.803249e+06   4.156276e+05
  -8.223064e+05  -1.108532e+06
   5.662737e+05  -1.111763e+06
   5.890900e+05   3.620562e+05
  -8.191472e+05   9.827775e+05
  -1.919269e+06  -6.657152e+05
  -1.251926e+06  -3.090346e+06
   8.518204e+05  -3.714643e+06
   2.898260e+06  -1.829441e+06
   3.641662e+06   9.907960e+05
   2.702252e+06   2.786295e+06
   6.133053e+05   2.778155e+06
  -1.270278e+06   1.501224e+06
  -1.606120e+06   2.046385e+05
  -4.917547e+05  -3.433161e+04
   3.823654e+05   7.327685e+05
  -3.096625e+05   1.286431e+06
  -1.760267e+06   6.302331e+05
  -1.999452e+06  -7.139686e+05
  -4.861906e+05  -1.319405e+06
   1.123141e+06  -6.372520e+05
   9.871553e+05   4.262366e+05
  -7.818964e+05   6.960323e+05
  -2.324648e+06  -9.062227e+04
  -2.001390e+06  -1.325168e+06
   9.599199e+04  -2.135808e+06
   2.292680e+06  -1.827889e+06
   2.785281e+06  -3.803220e+05
   1.239609e+06   1.172539e+06
  -8.244454e+05   1.436360e+06
  -1.442172e+06   2.199668e+05
  -1.800432e+05  -1.007833e+06
   1.465900e+06  -7.555123e+05
   1.746504e+06   6.839914e+05
   4.739307e+05   1.636114e+06
  -9.953618e+05   1.105431e+06
  -1.302728e+06  -1.658174e+05
  -3.554188e+05  -7.441757e+05
   7.383512e+05  -1.009884e+05
   7.389507e+05   1.010292e+06
  -5.585251e+05   1.412656e+06
  -1.989805e+06   5.574807e+05
  -2.034248e+06  -1.008003e+06
  -4.369691e+05  -2.040622e+06
   1.355621e+06  -1.677170e+06
   1.704088e+06  -2.935305e+05
   5.646207e+05   8.369742e+05
  -6.171517e+05   8.462042e+05
  -6.824581e+05   8.183856e+04
   7.463191e+04  -4.633311e+05
   5.728217e+05  -3.110112e+05
   2.760137e+05   1.064050e+05
  -3.851243e+05   7.897456e+04
  -5.940979e+05  -5.530352e+05
   9.407802e+04  -1.179814e+06
   1.328358e+06  -9.553151e+05
   2.088663e+06   3.423856e+05
   1.508274e+06   1.893638e+06
  -1.577799e+05   2.444612e+06
  -1.598750e+06   1.523489e+06
  -1.771294e+06  -3.537102e+04
  -9.814876e+05  -9.537216e+05
  -3.488701e+05  -8.116086e+05
  -3.849512e+05  -2.981116e+05
  -5.364387e+05  -2.462935e+05
  -1.041738e+05  -6.919250e+05
   8.208657e+05  -9.464321e+05
   1.466408e+06  -4.163518e+05
   1.142824e+06   7.226138e+05
  -1.720839e+05   1.559002e+06
  -1.711366e+06   1.179682e+06
  -2.299321e+06  -4.112269e+05
  -1.242364e+06  -2.060305e+06
   8.682187e+05  -2.396539e+06
   2.463465e+06  -1.162648e+06
   2.419787e+06   5.169143e+05
   1.111907e+06   1.325054e+06
  -1.288687e+05   1.061833e+06
  -4.599311e+05   6.063808e+05
  -1.894981e+05   7.278362e+05
  -1.251739e+05   1.220630e+06
  -6.077166e+05   1.247326e+06
  -1.241716e+06   3.365932e+05
  -1.344885e+06  -1.053259e+06
  -5.932793e+05  -1.885965e+06
   5.983908e+05  -1.452705e+06
   1.297564e+06  -4.610338e+04
   8.735480e+05   1.227771e+06
  -2.912255e+05   1.408274e+06
  -1.089004e+06   5.196538e+05
  -8.346281e+05  -5.603894e+05
   7.951817e+03  -1.024507e+06
   4.176941e+05  -8.227051e+05
   3.858763e+04  -4.644788e+05
  -4.204580e+05  -3.449920e+05
  -5.613224e+04  -3.897468e+05
   1.110616e+06  -2.568821e+05
   2.026306e+06   2.530795e+05
   1.648165e+06   9.615791e+05
   6.605927e+04   1.397636e+06
  -1.486000e+06   1.169934e+06
  -1.805393e+06   3.728078e+05
  -8.802363e+05  -3.939204e+05
   2.091500e+05  -5.416620e+05
   4.933766e+05  -8.318524e+04
   2.241337e+04   3.682696e+05
  -4.613701e+05   2.515449e+05
  -4.804892e+05  -3.308324e+05
  -2.092792e+05  -7.268312e+05
  -5.122176e+04  -4.740313e+05
  -1.474281e+05   1.386264e+05
  -3.251951e+05   3.448165e+05
  -2.939415e+05  -2.205480e+05
   1.491205e+05  -1.007758e+06
   8.694926e+05  -1.079100e+06
   1.284829e+06  -1.794684e+05
   8.065790e+05   8.875836e+05
  -3.801473e+05   1.096304e+06
  -1.203985e+06   3.179462e+05
  -7.374463e+05  -5.735980e+05
   6.743072e+05  -6.811098e+05
   1.625364e+06   2.807205e+04
   1.109480e+06   8.366033e+05
  -4.113972e+05   1.060303e+06
  -1.519481e+06   5.963350e+05
  -1.300688e+06  -1.263438e+05
  -1.750826e+05  -5.309025e+05
   6.428299e+05  -3.146151e+05
   3.775015e+05   2.653896e+05
  -5.966457e+05   5.078997e+05
  -1.178515e+06  -9.260442e+04
  -6.501209e+05  -1.183515e+06
   6.062443e+05  -1.695373e+06
   1.492469e+06  -8.849429e+05
   1.275636e+06   7.525516e+05
   2.363964e+05   1.810978e+06
  -7.217366e+05   1.349795e+06
  -9.523038e+05  -1.251138e+05
  -4.978676e+05  -1.193161e+06
   1.597831e+05  -1.014610e+06
   5.552016e+05  -1.185869e+05
   5.091414e+05   3.827130e+05
   2.008277e+05   1.519703e+05
   3.547130e+04  -1.103552e+05
   2.439619e+05   2.591086e+05
   5.200483e+05   9.495098e+05
   2.576671e+05   1.098701e+06
  -6.660159e+05   4.310582e+05
  -1.505825e+06  -4.372411e+05
  -1.349754e+06  -8.212984e+05
  -2.091747e+05  -6.932466e+05
   8.832264e+05  -4.332706e+05
   1.003374e+06  -2.171829e+05
   3.414140e+05   2.059545e+04
  -1.535414e+05   2.252405e+05
   2.914741e+03   2.336885e+05
   3.050528e+05   1.181794e+05
   3.822509e+04   1.325869e+05
  -7.007790e+05   2.298638e+05
  -1.047706e+06   1.094267e+03
  -3.959834e+05  -6.702653e+05
   8.535061e+05  -1.174984e+06
   1.663899e+06  -7.767590e+05
   1.379912e+06   4.151937e+05
   2.922763e+05   1.413710e+06
  -7.294978e+05   1.392083e+06
  -1.039193e+06   5.405327e+05
  -6.664561e+05  -2.408218e+05
  -1.271723e+05  -3.541257e+05
   9.637813e+04  -4.071430e+04
  -7.472460e+04   4.553495e+04
  -3.297987e+05  -3.562753e+05
  -2.813697e+05  -8.112960e+05
   1.708174e+05  -6.789862e+05
   6.905191e+05   1.310106e+05
   7.406041e+05   9.593194e+05
   1.040040e+05   1.024090e+06
  -7.652254e+05   2.309760e+05
  -1.041329e+06  -7.283292e+05
  -3.550993e+05  -1.082262e+06
   7.021214e+05  -6.736268e+05
   1.109781e+06   5.513373e+04
   5.357845e+05   5.785530e+05
  -2.647022e+05   6.608978e+05
  -3.460240e+05   3.779871e+05
   2.749283e+05   2.079373e+04
   6.592609e+05  -4.822012e+04
   1.461378e+05   2.989886e+05
  -8.163104e+05   7.060757e+05
  -1.236098e+06   5.990529e+05
  -7.484691e+05  -1.327671e+05
   7.696161e+04  -8.654961e+05
   5.091915e+05  -8.685788e+05
   3.924714e+05  -1.591444e+05
   4.796737e+04   4.889101e+05
  -2.323285e+05   4.276643e+05
  -3.535938e+05  -1.644753e+05
  -2.650633e+05  -5.751222e+05
   4.438889e+04  -4.074908e+05
   3.909164e+05   4.617039e+04
   4.806804e+05   2.524654e+05
   2.496080e+05   7.624633e+04
  -3.039063e+04  -1.284269e+05
  -9.324821e+04  -2.440317e+03
  -1.681767e+04   3.628505e+05
  -7.821343e+04   5.169760e+05
  -3.203252e+05   1.800780e+05
  -4.313885e+05  -3.914993e+05
  -1.298701e+05  -6.414893e+05
   4.125212e+05  -3.114250e+05
   6.554309e+05   2.773069e+05
   2.545105e+05   5.775387e+05
  -4.940973e+05   3.780070e+05
  -8.733032e+05  -6.222896e+04
  -4.838150e+05  -3.675338e+05
   2.817463e+05  -3.921775e+05
   6.259497e+05  -2.247460e+05
   2.324551e+05  -2.525415e+04
  -3.673167e+05   5.194896e+04
  -4.149844e+05  -8.269962e+04
   1.867872e+05  -3.070777e+05
   7.749793e+05  -2.812163e+05
