
 $NMID
 id='ANONYMOUS ', fmtdat='(2E16.6)'
 volume=1.0
 tramp=1.0
 $END
   5.443410e+07  -2.810350e+06
   3.465947e+07   3.201149e+07
  -5.184515e+06   3.731819e+07
  -2.606180e+07   1.567273e+07
  -1.647798e+07  -5.936625e+06
   2.703721e+06  -9.272946e+06
   9.688398e+06   6.567488e+05
   3.243474e+06   9.399670e+06
  -5.600159e+06   9.458695e+06
  -9.323294e+06   2.443960e+06
  -7.071175e+06  -5.693021e+06
  -1.165478e+06  -8.310852e+06
   3.730904e+06  -2.824552e+06
   2.757008e+06   5.198985e+06
  -3.395816e+06   6.572742e+06
  -7.733677e+06  -9.042667e+05
  -4.812394e+06  -9.695426e+06
   3.093905e+06  -1.163303e+07
   9.489960e+06  -6.209111e+06
   1.052921e+07   1.454200e+06
   6.752030e+06   6.871902e+06
   1.135662e+06   8.275927e+06
  -2.437835e+06   6.021960e+06
  -1.630641e+06   2.819158e+06
   1.110363e+06   2.154418e+06
   3.457454e+05   4.042446e+06
  -5.073451e+06   4.426104e+06
  -9.320388e+06   8.464879e+05
  -6.978683e+06  -3.686756e+06
  -4.487529e+05  -4.833336e+06
   3.478119e+06  -2.578546e+06
   2.326385e+06  -8.774645e+04
  -6.497010e+05   8.866446e+05
  -2.228645e+06   4.708637e+05
  -2.126181e+06  -1.357225e+06
  -7.660228e+05  -3.760871e+06
   1.563696e+06  -3.777137e+06
   3.062462e+06  -6.654820e+04
   1.801424e+06   3.379387e+06
  -5.941908e+05   1.858966e+06
  -3.599821e+05  -2.368101e+06
   2.321076e+06  -2.344804e+06
   2.548927e+06   2.988328e+06
  -2.020190e+06   6.104970e+06
  -6.656888e+06   1.392444e+06
  -5.314581e+06  -6.417514e+06
   1.396977e+06  -8.359859e+06
   7.066799e+06  -2.707129e+06
   6.968232e+06   4.020121e+06
   2.074316e+06   5.820364e+06
  -3.289194e+06   2.812113e+06
  -5.230718e+06  -1.270693e+06
  -2.545736e+06  -3.322341e+06
   2.244642e+06  -2.277318e+06
   4.457252e+06   6.755315e+05
   2.041389e+06   2.557065e+06
  -1.600392e+06   1.417964e+06
  -1.753180e+06  -9.368175e+05
   1.246282e+06  -1.006717e+06
   2.550258e+06   1.550245e+06
  -3.490741e+05   3.397929e+06
  -4.366368e+06   2.134297e+06
  -5.241259e+06  -1.022379e+06
  -2.468392e+06  -3.746241e+06
   1.522746e+06  -5.179685e+06
   4.673306e+06  -4.884240e+06
   5.929057e+06  -1.937215e+06
   4.553584e+06   2.861095e+06
   1.165221e+06   5.948904e+06
  -1.610830e+06   4.751238e+06
  -1.696063e+06   1.314769e+06
  -2.404179e+05  -2.320228e+05
   6.143876e+03   8.966227e+05
  -1.501689e+06   1.732641e+06
  -2.697367e+06   2.905779e+05
  -1.997950e+06  -1.828432e+06
  -5.747383e+04  -2.082323e+06
   1.531244e+06  -2.168625e+05
   1.703239e+06   2.007070e+06
   9.087757e+04   2.871744e+06
  -2.632512e+06   1.701174e+06
  -4.380288e+06  -9.880948e+05
  -3.279827e+06  -3.507011e+06
  -1.613218e+05  -4.094790e+06
   2.070045e+06  -2.747259e+06
   2.115697e+06  -1.229000e+06
   1.776228e+06  -7.636130e+05
   2.884266e+06  -5.891259e+05
   4.308745e+06   5.878154e+05
   3.528199e+06   2.598399e+06
   2.672952e+05   4.059538e+06
  -3.028871e+06   3.939042e+06
  -4.029536e+06   2.207592e+06
  -2.605628e+06  -3.327774e+05
  -3.266939e+05  -2.172194e+06
   1.018706e+06  -1.918641e+06
   5.479700e+05   1.812512e+04
  -1.028751e+06   1.318369e+06
  -1.861839e+06   4.603561e+05
  -9.475786e+05  -1.145324e+06
   4.783724e+05  -1.109190e+06
   4.443616e+05   3.833258e+05
  -1.041641e+06   7.541514e+05
  -1.923060e+06  -1.186701e+06
  -8.023322e+05  -3.444950e+06
   1.456938e+06  -3.481843e+06
   3.108434e+06  -1.241105e+06
   3.351962e+06   1.333369e+06
   2.335231e+06   2.688434e+06
   5.148340e+05   2.576858e+06
  -1.182772e+06   1.477682e+06
  -1.546814e+06   2.685484e+05
  -4.883035e+05  -3.011857e+04
   3.784824e+05   7.328910e+05
  -3.598997e+05   1.343882e+06
  -1.865881e+06   6.433357e+05
  -2.049156e+06  -8.080212e+05
  -4.338937e+05  -1.394669e+06
   1.145333e+06  -6.049775e+05
   8.955388e+05   4.321138e+05
  -8.385039e+05   5.472480e+05
  -2.184816e+06  -2.627367e+05
  -1.766551e+06  -1.311571e+06
   2.017634e+05  -1.968198e+06
   2.245211e+06  -1.703683e+06
   2.739570e+06  -3.523690e+05
   1.248813e+06   1.214373e+06
  -8.549589e+05   1.519703e+06
  -1.537000e+06   2.464092e+05
  -2.387457e+05  -1.058677e+06
   1.477279e+06  -7.789710e+05
   1.730543e+06   7.235454e+05
   3.835668e+05   1.636169e+06
  -1.063533e+06   1.006364e+06
  -1.266154e+06  -2.769421e+05
  -2.688424e+05  -7.769340e+05
   7.908689e+05  -8.418131e+04
   7.649130e+05   1.018660e+06
  -5.235149e+05   1.426912e+06
  -1.968304e+06   6.003817e+05
  -2.048188e+06  -9.747085e+05
  -4.459332e+05  -2.044304e+06
   1.377807e+06  -1.675704e+06
   1.708835e+06  -2.607555e+05
   5.247290e+05   8.508858e+05
  -6.320476e+05   8.175980e+05
  -6.232821e+05   8.978874e+04
   1.177489e+05  -3.622201e+05
   4.878411e+05  -2.102613e+05
   1.152500e+05   7.595571e+04
  -4.625920e+05  -5.939038e+04
  -5.421286e+05  -6.588164e+05
   1.701326e+05  -1.190525e+06
   1.345643e+06  -9.306548e+05
   2.076321e+06   3.475279e+05
   1.511511e+06   1.880277e+06
  -1.429860e+05   2.403507e+06
  -1.563754e+06   1.443424e+06
  -1.679718e+06  -8.395858e+04
  -8.646508e+05  -8.705551e+05
  -3.153794e+05  -6.330068e+05
  -4.719310e+05  -1.899549e+05
  -6.381950e+05  -2.821321e+05
  -1.204871e+05  -7.550979e+05
   8.441068e+05  -9.207076e+05
   1.428891e+06  -3.599607e+05
   1.054997e+06   6.907936e+05
  -2.154343e+05   1.453654e+06
  -1.678752e+06   1.109400e+06
  -2.240491e+06  -4.157163e+05
  -1.185057e+06  -2.051680e+06
   9.320256e+05  -2.381690e+06
   2.495767e+06  -1.101165e+06
   2.354816e+06   5.909286e+05
   9.811336e+05   1.309762e+06
  -1.895903e+05   9.442496e+05
  -3.762140e+05   5.047069e+05
  -4.676549e+04   7.351591e+05
  -5.076461e+04   1.294679e+06
  -6.192903e+05   1.301850e+06
  -1.271303e+06   3.606180e+05
  -1.358012e+06  -1.025925e+06
  -6.098079e+05  -1.857283e+06
   5.707290e+05  -1.441001e+06
   1.274304e+06  -3.525889e+04
   8.460968e+05   1.250723e+06
  -3.472078e+05   1.401178e+06
  -1.150971e+06   4.400749e+05
  -8.368010e+05  -6.716598e+05
   8.726012e+04  -1.080829e+06
   5.149343e+05  -8.003760e+05
   7.837986e+04  -4.162469e+05
  -4.383431e+05  -3.154978e+05
  -7.107563e+04  -3.756680e+05
   1.134556e+06  -2.460168e+05
   2.058448e+06   2.616909e+05
   1.636939e+06   9.789501e+05
   7.348655e+03   1.431809e+06
  -1.541436e+06   1.187776e+06
  -1.811828e+06   3.307900e+05
  -8.477363e+05  -4.723391e+05
   2.393038e+05  -5.779355e+05
   5.108823e+05  -4.886077e+04
   5.088988e+04   4.173861e+05
  -4.264065e+05   2.684615e+05
  -4.885362e+05  -3.219814e+05
  -2.783554e+05  -6.994192e+05
  -1.158871e+05  -4.648276e+05
  -1.367787e+05   9.299612e+04
  -2.678950e+05   2.877792e+05
  -2.793367e+05  -2.232896e+05
   1.074222e+05  -9.754896e+05
   8.551355e+05  -1.085962e+06
   1.346706e+06  -2.300415e+05
   8.817635e+05   8.697279e+05
  -3.677242e+05   1.148703e+06
  -1.233213e+06   3.872885e+05
  -7.444871e+05  -5.396880e+05
   6.782004e+05  -6.644384e+05
   1.575753e+06   5.291585e+04
   1.012951e+06   8.346575e+05
  -4.629883e+05   9.935285e+05
  -1.476138e+06   5.057066e+05
  -1.223244e+06  -1.638772e+05
  -1.422264e+05  -5.061437e+05
   6.393590e+05  -2.829337e+05
   3.957329e+05   2.801677e+05
  -5.535501e+05   5.394622e+05
  -1.171119e+06  -3.028864e+04
  -7.145041e+05  -1.136285e+06
   5.087614e+05  -1.705540e+06
   1.427984e+06  -9.351401e+05
   1.268965e+06   7.011965e+05
   2.628118e+05   1.763818e+06
  -6.929816e+05   1.299498e+06
  -9.239430e+05  -1.544885e+05
  -4.574028e+05  -1.172072e+06
   2.017794e+05  -9.652527e+05
   5.604140e+05  -9.787012e+04
   4.632304e+05   3.601195e+05
   1.537388e+05   1.315198e+05
   5.083319e+04  -9.422735e+04
   3.070104e+05   2.845883e+05
   5.453696e+05   9.409743e+05
   2.099840e+05   1.064643e+06
  -7.122911e+05   4.189286e+05
  -1.474172e+06  -4.106980e+05
  -1.282167e+06  -7.903716e+05
  -2.064635e+05  -6.893951e+05
   8.168595e+05  -4.422284e+05
   9.652778e+05  -2.078765e+05
   3.735150e+05   4.440870e+04
  -1.302163e+05   2.285070e+05
  -4.756197e+04   2.013726e+05
   2.445176e+05   7.961921e+04
   6.208789e+04   1.266724e+05
  -6.243280e+05   2.601124e+05
  -1.038551e+06   3.546872e+04
  -4.852766e+05  -6.643720e+05
   7.660714e+05  -1.206818e+06
   1.664473e+06  -8.350354e+05
   1.437792e+06   3.531831e+05
   3.357494e+05   1.377069e+06
  -7.093382e+05   1.402512e+06
  -1.015488e+06   5.900114e+05
  -6.528707e+05  -1.928379e+05
  -1.564252e+05  -3.478164e+05
   4.525908e+04  -7.654493e+04
  -9.053959e+04   7.087584e+03
  -3.041853e+05  -3.617448e+05
  -2.687881e+05  -7.937776e+05
   1.441270e+05  -6.843920e+05
   6.721648e+05   7.726032e+04
   7.825569e+05   8.935305e+05
   1.845844e+05   1.013991e+06
  -7.165274e+05   2.969833e+05
  -1.059507e+06  -6.468336e+05
  -4.080428e+05  -1.062614e+06
   6.697053e+05  -7.188742e+05
   1.121968e+06   1.611762e+04
   5.703833e+05   5.968994e+05
  -2.518273e+05   7.062616e+05
  -3.781812e+05   3.905798e+05
   2.224350e+05  -5.024216e+03
   6.356960e+05  -6.931669e+04
   1.671149e+05   3.014602e+05
  -7.898466e+05   7.054466e+05
  -1.247493e+06   5.774528e+05
  -7.889437e+05  -1.552150e+05
   5.381351e+04  -8.742580e+05
   5.273879e+05  -8.860679e+05
   4.333181e+05  -2.000993e+05
   8.418562e+04   4.607511e+05
  -2.108464e+05   4.534359e+05
  -3.498366e+05  -1.103281e+05
  -2.807319e+05  -5.594425e+05
   2.346632e+04  -4.433332e+05
   3.885037e+05   1.742972e+04
   4.944021e+05   2.696226e+05
   2.477396e+05   9.756477e+04
  -5.476734e+04  -1.611402e+05
  -9.167876e+04  -7.268774e+04
   5.380668e+04   3.301368e+05
   2.174601e+04   5.615470e+05
  -2.845737e+05   2.666325e+05
  -4.942092e+05  -3.236521e+05
  -2.221539e+05  -6.233197e+05
   3.769552e+05  -3.389723e+05
   6.828760e+05   2.287260e+05
   2.875713e+05   5.455677e+05
  -4.919081e+05   3.905373e+05
  -8.893181e+05  -2.110066e+04
  -4.989552e+05  -3.500739e+05
   2.689844e+05  -4.270165e+05
   6.244951e+05  -2.775922e+05
   2.640397e+05  -3.714481e+04
  -3.117981e+05   9.690718e+04
  -3.922261e+05  -2.095240e+04
   1.358893e+05  -2.774964e+05
   6.906697e+05  -2.983544e+05
