
 $NMID
 id='ANONYMOUS ', fmtdat='(2E16.6)'
 volume=1.0
 tramp=1.0
 $END
   1.351042e+07  -3.809933e+06
   9.439248e+06   8.543950e+06
  -1.632267e+06   1.054416e+07
  -7.134404e+06   2.794451e+06
  -3.583173e+06  -3.840123e+06
   1.847133e+06  -3.160259e+06
   2.760306e+06   9.903557e+05
   1.762490e+05   2.830761e+06
  -1.990204e+06   1.682404e+06
  -2.412409e+06  -1.113188e+05
  -1.710547e+06  -1.342582e+06
  -2.898577e+05  -1.794133e+06
   1.078361e+06  -1.062123e+06
   9.943103e+05   3.560079e+05
  -5.367189e+05   7.493564e+05
  -1.548688e+06  -5.130508e+05
  -7.556526e+05  -1.916180e+06
   8.606819e+05  -2.024249e+06
   1.934324e+06  -1.155664e+06
   2.369522e+06  -2.175189e+04
   2.206533e+06   1.418744e+06
   8.339213e+05   2.680263e+06
  -1.337468e+06   2.289632e+06
  -2.234466e+06   1.219230e+05
  -8.266910e+05  -1.467975e+06
   9.544109e+05  -6.064448e+05
   7.369755e+05   1.312157e+06
  -1.011623e+06   1.607789e+06
  -1.989473e+06   8.111618e+03
  -1.355930e+06  -1.528972e+06
  -1.575420e+05  -1.831108e+06
   7.699363e+05  -1.349754e+06
   1.355686e+06  -5.525517e+05
   1.243609e+06   4.571461e+05
   1.938119e+05   9.472194e+05
  -6.792370e+05   1.910757e+05
  -3.309651e+04  -8.797612e+05
   1.368654e+06  -5.658051e+05
   1.434781e+06   9.012201e+05
   3.640235e+03   1.500841e+06
  -8.159464e+05   6.251780e+05
  -8.369708e+04   4.934098e+04
   4.179666e+05   8.851656e+05
  -7.990049e+05   1.600064e+06
  -2.325142e+06   4.792808e+05
  -1.947838e+06  -1.531931e+06
   2.089796e+04  -2.177087e+06
   1.352098e+06  -1.058414e+06
   1.027610e+06   2.423421e+05
   3.316343e+04   5.790748e+05
  -5.095269e+05   1.878941e+05
  -4.087889e+05  -3.913007e+05
   1.771814e+05  -8.395313e+05
   9.468502e+05  -6.866399e+05
   1.154030e+06   2.214142e+05
   3.789136e+05   9.747521e+05
  -4.694925e+05   6.031594e+05
  -1.884421e+05  -2.612560e+05
   7.518130e+05  -1.016157e+05
   6.950890e+05   1.075404e+06
  -6.391787e+05   1.570981e+06
  -1.628239e+06   5.588435e+05
  -1.208868e+06  -7.170884e+05
  -3.247999e+05  -9.670240e+05
  -1.307810e+05  -6.363758e+05
  -1.887496e+05  -6.731417e+05
   3.624328e+05  -7.659139e+05
   9.796724e+05  -1.562764e+05
   5.652332e+05   6.379603e+05
  -4.947712e+05   4.327003e+05
  -6.964060e+05  -6.324001e+05
   3.296814e+05  -1.123333e+06
   1.292412e+06  -3.502783e+05
   1.103510e+06   7.918645e+05
   1.449496e+05   1.198324e+06
  -5.959725e+05   7.897232e+05
  -7.188151e+05   1.221487e+05
  -3.833325e+05  -3.752841e+05
   1.260109e+05  -4.378981e+05
   3.967033e+05   2.822769e+04
   6.563169e+04   5.903485e+05
  -6.046532e+05   5.280745e+05
  -8.262736e+05  -2.087651e+05
  -2.960877e+05  -7.967380e+05
   3.657575e+05  -6.237394e+05
   4.916159e+05  -6.460961e+04
   1.895269e+05   1.857303e+05
  -4.961457e+04   4.506919e+04
  -7.261734e+04  -1.247580e+05
   2.247799e+04  -1.676871e+05
   2.399868e+05  -1.204546e+05
   4.804965e+05   8.630165e+04
   3.769954e+05   4.085615e+05
  -1.516667e+05   4.743017e+05
  -5.333262e+05   9.634177e+04
  -2.815534e+05  -2.742755e+05
   2.093323e+05  -1.415578e+05
   2.247909e+05   2.406376e+05
  -1.756633e+05   2.610385e+05
  -3.346451e+05  -7.017313e+04
  -1.064909e+05  -2.181779e+05
   1.323926e+04  -8.774456e+04
  -1.231514e+05  -1.204165e+05
  -4.357655e+04  -3.731591e+05
   3.977874e+05  -3.032987e+05
   5.934119e+05   2.574595e+05
   1.344126e+05   6.461002e+05
  -4.507049e+05   3.322113e+05
  -4.569062e+05  -2.487157e+05
  -2.295361e+04  -3.683776e+05
   2.054181e+05  -6.070580e+04
   8.418866e+04   1.038931e+05
   2.133974e+03  -1.467872e+04
   9.941068e+04  -4.586803e+04
   1.010271e+05   1.386749e+05
  -9.583507e+04   2.262725e+05
  -2.334745e+05   4.704678e+04
  -1.642130e+05  -1.707334e+05
  -4.432276e+04  -2.276357e+05
   3.289075e+04  -1.994744e+05
   1.732453e+05  -1.462130e+05
   3.367504e+05   2.313006e+04
   2.697703e+05   2.518826e+05
  -4.440949e+04   2.757940e+05
  -2.405517e+05   4.804888e+04
  -9.908833e+04  -1.051811e+05
   1.054146e+05   3.158760e+04
   4.066422e+04   2.178012e+05
  -1.780971e+05   1.420217e+05
  -2.186035e+05  -1.002193e+05
  -5.432653e+04  -1.954844e+05
   6.530722e+04  -8.836990e+04
   3.278452e+04   2.327912e+04
  -3.783521e+04   3.567503e+04
  -7.073246e+04  -9.496643e+02
  -8.461195e+04  -7.565973e+04
  -3.499409e+04  -1.952081e+05
   1.326185e+05  -2.302821e+05
   2.886175e+05  -5.305662e+04
   2.305889e+05   1.979855e+05
  -4.958828e+01   2.469470e+05
  -1.420922e+05   7.279736e+04
  -7.778613e+04  -6.954891e+04
   4.481319e+04  -3.147576e+04
   7.942669e+04   7.094854e+04
   4.719395e+04   1.133313e+05
  -1.289195e+04   1.240669e+05
  -1.271682e+05   1.172281e+05
  -2.357264e+05   1.311271e+04
  -1.808643e+05  -1.574371e+05
   3.012857e+04  -1.947612e+05
   1.506287e+05  -2.828720e+04
   3.151790e+04   1.203827e+05
  -1.443018e+05   4.436805e+04
  -1.321507e+05  -1.444665e+05
   2.826308e+04  -2.063619e+05
   1.303466e+05  -1.228771e+05
   1.292264e+05  -4.333474e+04
   1.291929e+05  -4.622178e+02
   1.377444e+05   8.048206e+04
   7.495336e+04   1.612471e+05
  -1.795576e+04   1.308666e+05
  -2.192816e+04   4.083321e+04
   1.792968e+04   5.183367e+04
  -6.206729e+04   1.354611e+05
  -2.286296e+05   8.189380e+04
  -2.318974e+05  -1.362900e+05
   1.096695e+04  -2.562316e+05
   2.397421e+05  -1.010631e+05
   1.980586e+05   1.455350e+05
  -2.522396e+04   2.019978e+05
  -1.653442e+05   6.414215e+04
  -1.469644e+05  -6.355851e+04
  -9.122324e+04  -9.108737e+04
  -5.823633e+04  -9.555975e+04
   7.684641e+03  -1.163434e+05
   1.084049e+05  -9.845583e+04
   1.565682e+05  -3.266446e+04
   1.237670e+05   1.565880e+04
   7.700239e+04   3.413573e+04
   4.622890e+04   7.989753e+04
  -1.441141e+04   1.448241e+05
  -1.037994e+05   1.339667e+05
  -1.341827e+05   2.010616e+04
  -6.322274e+04  -9.077598e+04
   3.164957e+04  -1.010378e+05
   6.240908e+04  -4.034802e+04
   3.505614e+04   7.047954e+03
   7.440641e+02   1.665392e+04
  -2.134752e+04   1.346998e+04
  -2.557642e+04   1.302917e+04
   2.265198e+03   2.273126e+04
   3.641972e+04   4.725616e+04
   9.984286e+03   5.355130e+04
  -7.868841e+04  -8.723465e+03
  -1.236769e+05  -1.120765e+05
  -4.571191e+04  -1.462846e+05
   8.499781e+04  -6.199206e+04
   1.361363e+05   4.804074e+04
   8.176525e+04   7.457406e+04
   5.942481e+03   3.338719e+04
  -2.769398e+04   5.898879e+03
  -2.616341e+04   2.968799e+03
  -8.555792e+03  -1.413065e+04
   1.653379e+04  -2.638865e+04
   2.164451e+04   1.213632e+04
  -1.092450e+04   6.017805e+04
  -3.289467e+04   3.144721e+04
   1.534566e+04  -4.644964e+04
   8.944874e+04  -4.417965e+04
   7.201283e+04   6.491580e+04
  -5.570332e+04   1.359804e+05
  -1.612635e+05   5.526517e+04
  -1.272047e+05  -8.960633e+04
   2.479567e+03  -1.316838e+05
   9.637750e+04  -4.571664e+04
   9.390124e+04   4.990900e+04
   2.859824e+04   6.636995e+04
  -4.970272e+04   2.111792e+04
  -9.958142e+04  -3.545979e+04
  -7.497713e+04  -7.448960e+04
   2.592479e+04  -7.059248e+04
   1.140628e+05  -1.379474e+04
   9.395336e+04   4.670486e+04
  -3.575135e+03   4.077670e+04
  -4.833043e+04  -2.167058e+04
   1.595271e+04  -4.914654e+04
   9.591119e+04   9.475532e+03
   7.584417e+04   9.638239e+04
  -3.677060e+04   1.239516e+05
  -1.332368e+05   7.288187e+04
  -1.319553e+05  -1.531056e+04
  -4.555837e+04  -9.293601e+04
   5.294319e+04  -1.183800e+05
   9.384479e+04  -6.356740e+04
   5.647797e+04   4.055899e+04
  -1.756166e+04   1.010068e+05
  -6.233416e+04   5.978206e+04
  -5.307845e+04  -2.716953e+04
  -2.205249e+04  -5.972381e+04
  -4.232669e+03  -2.534295e+04
   3.882333e+03  -2.846851e+03
   1.722683e+04  -3.851729e+04
   2.946145e+04  -8.103387e+04
   3.428821e+04  -5.971431e+04
   4.655970e+04   1.998531e+04
   6.674729e+04   8.984732e+04
   5.534646e+04   9.947706e+04
  -1.031948e+04   5.617363e+04
  -7.752250e+04   2.278062e+03
  -7.448420e+04  -2.405019e+04
  -1.545236e+04  -1.564808e+04
   1.436571e+04   9.002332e+01
  -1.519023e+04  -7.879306e+03
  -3.512505e+04  -3.260956e+04
   1.270931e+04  -3.322609e+04
   7.940183e+04   1.027640e+04
   7.153805e+04   6.396254e+04
  -2.300083e+04   7.578944e+04
  -1.205263e+05   3.062516e+04
  -1.379533e+05  -4.240742e+04
  -6.564917e+04  -1.003970e+05
   4.319175e+04  -1.097425e+05
   1.181829e+05  -6.013215e+04
   1.141324e+05   1.825535e+04
   4.540140e+04   6.481990e+04
  -1.995111e+04   4.638651e+04
  -2.788372e+04   1.164248e+03
   1.059793e+03  -3.814639e+03
   4.959613e+03   4.002551e+04
  -3.210463e+04   6.800984e+04
  -6.161276e+04   2.503858e+04
  -4.140965e+04  -6.136905e+04
   1.266851e+04  -1.087586e+05
   5.649736e+04  -6.830795e+04
   6.438474e+04   2.764889e+04
   3.208438e+04   9.870101e+04
  -3.005935e+04   8.816358e+04
  -8.312232e+04   1.055812e+04
  -7.362547e+04  -6.338897e+04
   1.481832e+03  -7.424300e+04
   6.715057e+04  -3.054633e+04
   5.040444e+04   8.334250e+03
  -2.252456e+04   4.205300e+03
  -5.333602e+04  -2.202623e+04
   2.804050e+03  -2.839393e+04
   8.146975e+04  -5.124832e+03
   9.299830e+04   2.562695e+04
   2.750101e+04   4.416281e+04
  -4.725747e+04   4.423110e+04
  -6.894011e+04   2.244684e+04
  -3.470485e+04  -1.495254e+04
   1.479052e+04  -3.873139e+04
   3.866984e+04  -1.993676e+04
   2.428579e+04   2.705824e+04
  -8.699284e+03   5.035251e+04
  -2.841722e+04   2.235564e+04
  -2.264982e+04  -2.385429e+04
  -9.026594e+03  -3.675752e+04
  -8.041141e+03  -1.088874e+04
  -1.417581e+04   1.141468e+04
  -6.025662e+03  -1.988102e+03
   2.029792e+04  -3.270681e+04
   4.298727e+04  -3.556692e+04
   4.000282e+04   5.915727e+03
   1.111905e+04   5.545353e+04
  -2.536066e+04   5.882151e+04
  -4.623018e+04   4.672754e+03
  -3.427268e+04  -5.510528e+04
   8.376712e+03  -5.754730e+04
   5.134769e+04  -8.034714e+02
   5.483559e+04   5.219707e+04
   1.074673e+04   4.848354e+04
  -4.081775e+04   4.710773e+03
  -4.938555e+04  -2.270697e+04
  -9.370150e+03  -9.802590e+03
   3.158333e+04   1.715565e+04
   2.408134e+04   2.646349e+04
  -2.706959e+04   1.342644e+04
  -6.436993e+04  -1.247764e+04
