
 $NMID
 id='ANONYMOUS ', fmtdat='(2E16.6)'
 volume=1.0
 tramp=1.0
 $END
   2.389475e+07  -2.991506e+06
   1.771706e+07   9.756295e+06
   1.790163e+06   1.564349e+07
  -9.620760e+06   1.122901e+07
  -8.934229e+06   1.628821e+06
  -9.683906e+05  -4.352421e+06
   4.758464e+06  -2.435285e+06
   3.938880e+06   3.647965e+06
  -7.143457e+05   6.632160e+06
  -4.293701e+06   3.301632e+06
  -4.149301e+06  -2.600389e+06
  -1.023952e+06  -4.805422e+06
   2.025928e+06  -1.292448e+06
   2.040204e+06   3.811860e+06
  -1.072350e+06   4.912014e+06
  -4.058045e+06   8.112180e+05
  -3.504482e+06  -4.470520e+06
   4.502301e+05  -6.203915e+06
   4.269762e+06  -3.480357e+06
   4.847570e+06   7.035617e+05
   2.520565e+06   2.992133e+06
   2.121838e+05   2.708030e+06
   1.647574e+05   1.705009e+06
   1.733150e+06   1.899688e+06
   2.168113e+06   3.229680e+06
  -3.788690e+05   3.914685e+06
  -4.446380e+06   2.532699e+06
  -6.253939e+06  -3.237077e+05
  -3.698620e+06  -2.536195e+06
   9.426727e+05  -2.497175e+06
   3.196073e+06  -5.376596e+05
   1.271994e+06   1.494634e+06
  -2.186900e+06   1.803972e+06
  -3.463962e+06   1.326438e+04
  -1.815547e+06  -2.457237e+06
   5.044291e+05  -3.361757e+06
   1.351447e+06  -1.691687e+06
   6.776415e+05   9.234450e+05
  -2.354171e+05   1.586401e+06
  -3.452275e+05  -5.074186e+05
   5.110033e+05  -2.736789e+06
   1.640142e+06  -2.049183e+06
   1.818773e+06   1.082563e+06
   3.283251e+05   2.983341e+06
  -1.841517e+06   1.266247e+06
  -2.410138e+06  -2.213621e+06
  -1.714246e+05  -3.627091e+06
   3.223556e+06  -1.560124e+06
   4.544512e+06   1.813407e+06
   2.273636e+06   3.481769e+06
  -1.696520e+06   2.482644e+06
  -3.876275e+06   1.378180e+05
  -2.585325e+06  -1.582416e+06
   5.503767e+05  -1.592379e+06
   2.408045e+06  -2.796179e+05
   1.526382e+06   9.229896e+05
  -6.139313e+05   8.253142e+05
  -1.428204e+06  -3.333459e+05
  -1.355623e+05  -1.137986e+06
   1.472944e+06  -5.869069e+05
   1.222626e+06   7.876048e+05
  -8.576200e+05   1.513287e+06
  -2.521803e+06   6.609431e+05
  -1.794404e+06  -1.345603e+06
   9.315453e+05  -3.062888e+06
   3.408794e+06  -3.029492e+06
   3.835846e+06  -8.949057e+05
   2.378902e+06   2.048632e+06
   5.787956e+05   3.756772e+06
  -3.535626e+05   3.325334e+06
  -4.962572e+05   1.851669e+06
  -7.015841e+05   1.011731e+06
  -1.441773e+06   1.010454e+06
  -2.270707e+06   5.945611e+05
  -2.311494e+06  -9.045004e+05
  -1.158400e+06  -2.342550e+06
   6.471550e+05  -2.066068e+06
   1.911488e+06  -1.583718e+04
   1.637996e+06   2.057558e+06
  -1.193126e+05   2.404469e+06
  -2.098525e+06   9.003914e+05
  -2.758207e+06  -1.112441e+06
  -1.675792e+06  -2.219312e+06
   2.247387e+04  -2.053543e+06
   8.927652e+05  -1.309247e+06
   8.014866e+05  -8.784816e+05
   9.456325e+05  -9.487481e+05
   2.112556e+06  -8.685393e+05
   3.355945e+06   8.845622e+04
   2.915245e+06   1.815228e+06
   3.947383e+05   3.259484e+06
  -2.463626e+06   3.263978e+06
  -3.432036e+06   1.610967e+06
  -2.018825e+06  -6.426417e+05
   1.654661e+05  -1.901390e+06
   1.131527e+06  -1.369104e+06
   3.733360e+05   1.571260e+05
  -9.405050e+05   9.987935e+05
  -1.356575e+06   3.496927e+05
  -5.579821e+05  -8.126288e+05
   4.912536e+05  -9.046660e+05
   6.215950e+05   2.437100e+05
  -3.765928e+05   1.050139e+06
  -1.547018e+06   9.041011e+04
  -1.620770e+06  -2.048304e+06
  -1.493013e+05  -3.274912e+06
   2.017580e+06  -2.250212e+06
   3.317383e+06   2.485499e+05
   2.735438e+06   2.234902e+06
   7.351041e+05   2.453673e+06
  -1.065801e+06   1.312343e+06
  -1.361388e+06   1.749735e+05
  -4.051010e+05  -4.636528e+03
   3.341730e+05   5.777259e+05
  -1.553422e+05   9.776048e+05
  -1.277945e+06   5.483684e+05
  -1.567580e+06  -3.950612e+05
  -4.841652e+05  -9.407278e+05
   8.536140e+05  -5.657913e+05
   8.932630e+05   3.104596e+05
  -5.648419e+05   7.500459e+05
  -2.051517e+06   1.976150e+05
  -1.936858e+06  -1.012843e+06
  -1.246828e+05  -1.920398e+06
   1.837532e+06  -1.714150e+06
   2.290405e+06  -4.589674e+05
   1.037960e+06   8.427849e+05
  -5.740095e+05   1.093837e+06
  -1.042756e+06   2.038551e+05
  -1.098633e+05  -7.442125e+05
   1.143497e+06  -6.331427e+05
   1.449242e+06   4.399357e+05
   5.456041e+05   1.290496e+06
  -6.734248e+05   1.027607e+06
  -1.078168e+06   3.905291e+04
  -3.925944e+05  -5.334999e+05
   5.418444e+05  -9.956164e+04
   5.972873e+05   8.059692e+05
  -4.600677e+05   1.160931e+06
  -1.636223e+06   4.768337e+05
  -1.681709e+06  -7.837426e+05
  -4.247131e+05  -1.636241e+06
   1.003839e+06  -1.414795e+06
   1.352577e+06  -3.504173e+05
   5.264563e+05   6.207570e+05
  -4.444748e+05   7.238942e+05
  -5.979087e+05   8.107108e+04
   1.161900e+04  -4.807688e+05
   5.529370e+05  -3.741876e+05
   4.000787e+05   1.156996e+05
  -2.365901e+05   2.306806e+05
  -5.709091e+05  -3.186396e+05
  -5.170545e+04  -9.639498e+05
   1.034477e+06  -8.637181e+05
   1.736376e+06   1.933568e+05
   1.304865e+06   1.502319e+06
  -3.893542e+04   2.043280e+06
  -1.265927e+06   1.394301e+06
  -1.537322e+06   1.083341e+05
  -9.761185e+05  -8.071244e+05
  -3.757417e+05  -8.282677e+05
  -2.497466e+05  -3.482867e+05
  -3.461199e+05  -1.545133e+05
  -9.911786e+04  -5.079561e+05
   6.090653e+05  -8.480057e+05
   1.234723e+06  -4.698273e+05
   1.075755e+06   5.789124e+05
  -2.333519e+04   1.403302e+06
  -1.391722e+06   1.116076e+06
  -1.963086e+06  -2.376434e+05
  -1.153231e+06  -1.640443e+06
   5.508948e+05  -1.998656e+06
   1.924026e+06  -1.105352e+06
   2.051756e+06   2.408812e+05
   1.094849e+06   1.037435e+06
   9.683920e+03   9.869936e+05
  -4.298516e+05   6.263084e+05
  -2.730745e+05   6.051759e+05
  -1.329265e+05   9.283955e+05
  -4.347979e+05   9.833674e+05
  -9.692562e+05   2.971311e+05
  -1.126732e+06  -8.339671e+05
  -5.430700e+05  -1.543769e+06
   4.573124e+05  -1.219660e+06
   1.076504e+06  -9.886819e+04
   7.848656e+05   9.422447e+05
  -1.242667e+05   1.162004e+06
  -7.980972e+05   5.411813e+05
  -6.924868e+05  -3.133159e+05
  -1.089117e+05  -7.737447e+05
   2.105517e+05  -7.008816e+05
  -3.241619e+04  -4.227727e+05
  -3.482645e+05  -2.958192e+05
  -5.209989e+04  -3.359145e+05
   8.763768e+05  -2.676207e+05
   1.640172e+06   1.198598e+05
   1.395180e+06   7.036346e+05
   1.596108e+05   1.099634e+06
  -1.115748e+06   9.899810e+05
  -1.445325e+06   4.169463e+05
  -7.560819e+05  -2.055839e+05
   1.224500e+05  -4.136854e+05
   3.808267e+05  -1.215675e+05
   6.744143e+03   2.576034e+05
  -3.987432e+05   2.181715e+05
  -4.025615e+05  -2.557467e+05
  -1.415029e+05  -6.190730e+05
  -8.318185e+02  -3.997429e+05
  -1.222581e+05   1.689426e+05
  -3.086739e+05   3.567174e+05
  -2.707716e+05  -1.726136e+05
   1.190803e+05  -8.763293e+05
   6.908378e+05  -9.160420e+05
   9.964623e+05  -1.399605e+05
   6.261551e+05   7.221242e+05
  -2.854955e+05   8.645667e+05
  -9.522355e+05   2.411401e+05
  -6.253763e+05  -4.709278e+05
   5.158594e+05  -6.025480e+05
   1.376518e+06  -7.714626e+04
   1.038983e+06   6.297437e+05
  -2.335708e+05   9.467400e+05
  -1.251490e+06   6.448507e+05
  -1.141162e+06  -6.113453e+03
  -1.990217e+05  -4.474626e+05
   5.122526e+05  -3.118551e+05
   2.972619e+05   1.910766e+05
  -5.147098e+05   4.119272e+05
  -9.807004e+05  -8.952602e+04
  -5.219524e+05  -9.935616e+05
   5.194578e+05  -1.411069e+06
   1.248944e+06  -7.454149e+05
   1.086634e+06   6.083864e+05
   2.504768e+05   1.518379e+06
  -5.557433e+05   1.185806e+06
  -8.089149e+05  -3.226227e+04
  -4.964101e+05  -9.727738e+05
   4.707630e+04  -8.789541e+05
   4.445323e+05  -1.365755e+05
   4.774090e+05   3.110506e+05
   2.152851e+05   1.315243e+05
   6.979762e+03  -1.044234e+05
   1.467300e+05   1.853783e+05
   4.396818e+05   7.651334e+05
   3.037442e+05   9.127241e+05
  -4.811803e+05   3.852894e+05
  -1.281418e+06  -3.163271e+05
  -1.205409e+06  -6.374310e+05
  -2.036686e+05  -5.630498e+05
   7.679721e+05  -3.910831e+05
   8.472179e+05  -2.322143e+05
   2.480414e+05  -1.643453e+04
  -1.370623e+05   1.890226e+05
   6.530738e+04   2.161856e+05
   3.164047e+05   1.165109e+05
   1.317445e+04   1.176588e+05
  -6.411733e+05   1.963828e+05
  -8.695309e+05   1.064663e+04
  -2.672294e+05  -5.477560e+05
   7.354628e+05  -9.747838e+05
   1.334346e+06  -6.486482e+05
   1.098717e+06   3.470430e+05
   2.610133e+05   1.184306e+06
  -5.610594e+05   1.162559e+06
  -8.582941e+05   4.404092e+05
  -5.738230e+05  -2.159534e+05
  -8.997862e+04  -2.954344e+05
   1.304800e+05  -8.797105e+03
  -4.059303e+04   7.503125e+04
  -3.076293e+05  -2.711760e+05
  -2.748217e+05  -6.677279e+05
   1.394892e+05  -5.582235e+05
   5.922830e+05   1.298502e+05
   6.105133e+05   8.207934e+05
   5.186528e+04   8.501328e+05
  -6.683537e+05   1.631865e+05
  -8.731040e+05  -6.307655e+05
  -2.878468e+05  -8.948721e+05
   5.823104e+05  -5.415700e+05
   9.038887e+05   3.807007e+04
   4.272123e+05   4.396651e+05
  -2.085882e+05   5.109294e+05
  -2.404833e+05   3.063502e+05
   2.780901e+05   2.217314e+04
   5.629676e+05  -4.974435e+04
   1.125924e+05   2.389494e+05
  -6.631878e+05   6.144346e+05
  -9.729719e+05   5.594825e+05
  -5.770227e+05  -6.080597e+04
   4.967003e+04  -7.047883e+05
   3.653907e+05  -7.131466e+05
   2.812270e+05  -1.039526e+05
   2.916040e+04   4.285173e+05
  -1.955367e+05   3.383904e+05
  -3.060727e+05  -1.699219e+05
  -2.277661e+05  -4.761621e+05
   4.307891e+04  -3.040473e+05
   3.267247e+05   4.835179e+04
   3.883840e+05   1.719537e+05
   2.068443e+05   3.150337e+04
  -3.208681e+03  -7.602481e+04
  -6.994283e+04   6.781762e+04
  -6.145102e+04   3.357473e+05
  -1.409858e+05   3.952093e+05
  -2.972393e+05   8.364678e+04
  -3.177360e+05  -3.725517e+05
  -4.858533e+04  -5.467252e+05
   3.611661e+05  -2.502684e+05
   5.278605e+05   2.485723e+05
   2.046389e+05   4.962675e+05
  -3.926047e+05   3.183225e+05
  -7.067499e+05  -5.562196e+04
  -3.983883e+05  -2.988265e+05
   2.299734e+05  -3.006417e+05
   5.091089e+05  -1.601723e+05
   1.604327e+05  -1.654454e+04
  -3.544357e+05   2.071076e+04
  -3.698957e+05  -1.056274e+05
   1.845867e+05  -2.912530e+05
   7.025026e+05  -2.547738e+05
