
 $NMID
 id='ANONYMOUS ', fmtdat='(2E16.6)'
 volume=1.0
 tramp=1.0
 $END
  -2.515918e+07   6.549051e+05
  -1.667547e+07  -1.245881e+07
   5.297844e+05  -1.627115e+07
   1.102917e+07  -9.752478e+06
   8.648642e+06  -1.228846e+05
   1.227819e+05   4.433249e+06
  -4.872877e+06   1.637867e+06
  -3.257811e+06  -4.044323e+06
   1.444844e+06  -6.240645e+06
   4.547668e+06  -2.635756e+06
   3.927608e+06   3.032516e+06
   6.180276e+05   4.901919e+06
  -2.244282e+06   1.204144e+06
  -1.867263e+06  -3.821082e+06
   1.400621e+06  -4.618896e+06
   4.043912e+06  -3.088002e+05
   2.980373e+06   4.783561e+06
  -1.119231e+06   6.067250e+06
  -4.671918e+06   3.039121e+06
  -4.939502e+06  -1.185839e+06
  -2.419535e+06  -3.441414e+06
   1.118631e+05  -3.090294e+06
   3.991224e+05  -1.833332e+06
  -1.173607e+06  -1.662987e+06
  -1.908694e+06  -2.844613e+06
   3.431454e+05  -3.679470e+06
   4.342217e+06  -2.443993e+06
   6.204433e+06   4.676779e+05
   3.680864e+06   2.768256e+06
  -9.359430e+05   2.684830e+06
  -3.185733e+06   6.670915e+05
  -1.389995e+06  -1.328592e+06
   1.868769e+06  -1.657544e+06
   3.130269e+06  -5.556863e+04
   1.691023e+06   2.254618e+06
  -4.994116e+05   3.226061e+06
  -1.463724e+06   1.695406e+06
  -8.940392e+05  -9.623508e+05
   1.663602e+05  -1.784947e+06
   4.701312e+05   2.645181e+05
  -4.200892e+05   2.550771e+06
  -1.637260e+06   1.852065e+06
  -1.635377e+06  -1.287214e+06
   1.352941e+05  -2.969481e+06
   2.200451e+06  -9.042488e+05
   2.270857e+06   2.652263e+06
  -2.810984e+05   3.737991e+06
  -3.438770e+06   1.304468e+06
  -4.308563e+06  -2.090759e+06
  -1.905367e+06  -3.485524e+06
   1.810882e+06  -2.232155e+06
   3.676013e+06   1.580389e+05
   2.259687e+06   1.724526e+06
  -7.882047e+05   1.483686e+06
  -2.428673e+06   1.662962e+03
  -1.364507e+06  -1.123139e+06
   7.378905e+05  -7.904114e+05
   1.335294e+06   4.331485e+05
  -3.354934e+04   1.007079e+06
  -1.394313e+06   2.521239e+05
  -8.479495e+05  -9.507739e+05
   1.187904e+06  -1.274591e+06
   2.517084e+06  -2.489584e+05
   1.564401e+06   1.547775e+06
  -1.100057e+06   2.963431e+06
  -3.436739e+06   2.815768e+06
  -3.818832e+06   7.232006e+05
  -2.314204e+06  -2.148030e+06
  -3.782882e+05  -3.744440e+06
   6.196946e+05  -3.143405e+06
   6.033281e+05  -1.563478e+06
   5.540543e+05  -7.932236e+05
   1.186682e+06  -9.656524e+05
   2.088820e+06  -6.795372e+05
   2.238342e+06   7.708652e+05
   1.157326e+06   2.203879e+06
  -5.756036e+05   1.974228e+06
  -1.775780e+06   3.070541e+04
  -1.513376e+06  -1.955091e+06
   1.643690e+05  -2.307490e+06
   2.075691e+06  -8.480645e+05
   2.702913e+06   1.172829e+06
   1.578743e+06   2.310391e+06
  -1.712307e+05   2.101401e+06
  -1.045850e+06   1.248635e+06
  -8.948398e+05   7.412048e+05
  -9.529898e+05   7.928739e+05
  -2.022738e+06   7.038650e+05
  -3.161710e+06  -2.346473e+05
  -2.678991e+06  -1.840981e+06
  -2.560681e+05  -3.099714e+06
   2.426828e+06  -3.016408e+06
   3.307159e+06  -1.453431e+06
   1.949013e+06   6.437925e+05
  -1.539259e+05   1.826715e+06
  -1.115428e+06   1.316466e+06
  -3.904775e+05  -1.562752e+05
   9.202888e+05  -9.538889e+05
   1.343367e+06  -2.908949e+05
   5.333923e+05   8.336550e+05
  -5.003147e+05   8.764936e+05
  -5.764291e+05  -2.359887e+05
   4.036823e+05  -9.267525e+05
   1.410321e+06   5.773603e+04
   1.322451e+06   2.009949e+06
  -8.123471e+04   2.983036e+06
  -1.958799e+06   1.902579e+06
  -3.012220e+06  -4.018659e+05
  -2.430779e+06  -2.154334e+06
  -6.090244e+05  -2.291552e+06
   1.035699e+06  -1.200747e+06
   1.294883e+06  -1.268239e+05
   3.827946e+05   2.506208e+04
  -3.047431e+05  -5.608214e+05
   1.927209e+05  -9.393231e+05
   1.264285e+06  -4.762266e+05
   1.493046e+06   4.600798e+05
   4.202586e+05   9.423289e+05
  -8.371325e+05   5.256788e+05
  -8.414056e+05  -3.020496e+05
   5.280161e+05  -6.613445e+05
   1.886682e+06  -1.158955e+05
   1.754545e+06   9.819746e+05
   5.789017e+04   1.773695e+06
  -1.773288e+06   1.541170e+06
  -2.178122e+06   3.484715e+05
  -9.526281e+05  -8.586857e+05
   6.084268e+05  -1.040396e+06
   1.033641e+06  -1.471953e+05
   9.147931e+04   7.407736e+05
  -1.116910e+06   5.745111e+05
  -1.360558e+06  -4.758902e+05
  -4.562221e+05  -1.244396e+06
   6.862532e+05  -9.351144e+05
   1.021217e+06   1.750626e+04
   3.490304e+05   5.310911e+05
  -5.219666e+05   9.164993e+04
  -5.561691e+05  -7.686108e+05
   4.488708e+05  -1.087142e+06
   1.552802e+06  -4.150617e+05
   1.570315e+06   7.882669e+05
   3.474893e+05   1.567188e+06
  -1.010802e+06   1.303386e+06
  -1.302361e+06   2.686338e+05
  -4.743989e+05  -6.229540e+05
   4.516903e+05  -6.800004e+05
   5.763817e+05  -7.071049e+04
  -2.943086e+03   4.371933e+05
  -4.963425e+05   3.417531e+05
  -3.534158e+05  -8.280064e+04
   2.116484e+05  -1.702539e+05
   4.921298e+05   3.244492e+05
   9.785288e+02   8.906993e+05
  -9.971046e+05   7.670283e+05
  -1.622854e+06  -2.386039e+05
  -1.179203e+06  -1.457481e+06
   1.059482e+05  -1.922448e+06
   1.236785e+06  -1.261185e+06
   1.435975e+06  -4.250032e+04
   8.749959e+05   7.799446e+05
   3.291416e+05   7.679880e+05
   2.412015e+05   3.292061e+05
   3.252116e+05   1.687160e+05
   6.429577e+04   4.813590e+05
  -6.007493e+05   7.554783e+05
  -1.150121e+06   3.872066e+05
  -9.658576e+05  -5.609133e+05
   6.711921e+04  -1.285878e+06
   1.325916e+06  -9.888171e+05
   1.825055e+06   2.838308e+05
   1.026082e+06   1.576090e+06
  -5.914644e+05   1.859084e+06
  -1.852609e+06   9.661530e+05
  -1.914476e+06  -3.050143e+05
  -9.814000e+05  -1.006041e+06
   2.226742e+04  -9.102538e+05
   4.053565e+05  -5.687527e+05
   2.604944e+05  -5.763116e+05
   1.581246e+05  -8.899943e+05
   4.547932e+05  -9.195714e+05
   9.324937e+05  -2.465648e+05
   1.039099e+06   8.243518e+05
   4.647036e+05   1.474758e+06
  -4.696027e+05   1.138984e+06
  -1.017918e+06   5.979033e+04
  -7.046198e+05  -9.153061e+05
   1.634578e+05  -1.086499e+06
   7.715772e+05  -4.690235e+05
   6.313795e+05   3.309409e+05
   6.229267e+04   7.314886e+05
  -2.295036e+05   6.434484e+05
   1.461946e+04   3.935064e+05
   3.162533e+05   2.892807e+05
   3.624056e+04   3.137525e+05
  -8.320273e+05   2.141083e+05
  -1.536002e+06  -1.735258e+05
  -1.286392e+06  -7.098612e+05
  -1.085224e+05  -1.039959e+06
   1.090502e+06  -8.929009e+05
   1.377063e+06  -3.384319e+05
   6.987268e+05   2.251199e+05
  -1.358295e+05   3.847760e+05
  -3.600720e+05   9.515210e+04
   1.004405e+04  -2.461681e+05
   3.850170e+05  -1.886376e+05
   3.678015e+05   2.591319e+05
   1.136152e+05   5.908302e+05
  -9.326279e+03   3.815336e+05
   1.150144e+05  -1.480714e+05
   2.878470e+05  -3.247179e+05
   2.405682e+05   1.628689e+05
  -1.362153e+05   8.110119e+05
  -6.732291e+05   8.360721e+05
  -9.435870e+05   9.922025e+04
  -5.691180e+05  -7.020470e+05
   3.005415e+05  -8.061734e+05
   9.100158e+05  -1.938129e+05
   5.724238e+05   4.648369e+05
  -5.079209e+05   5.446874e+05
  -1.291416e+06   2.103266e+04
  -9.443887e+05  -6.230116e+05
   2.547471e+05  -8.701647e+05
   1.189763e+06  -5.558711e+05
   1.063782e+06   4.318189e+04
   1.708945e+05   4.239483e+05
  -4.912127e+05   2.755775e+05
  -2.760945e+05  -1.911767e+05
   4.958296e+05  -3.763807e+05
   9.240772e+05   1.119444e+05
   4.643297e+05   9.548752e+05
  -5.351349e+05   1.317210e+06
  -1.203417e+06   6.624420e+05
  -1.002836e+06  -6.106439e+05
  -1.831103e+05  -1.437042e+06
   5.611948e+05  -1.093347e+06
   7.550438e+05   5.904965e+04
   4.317194e+05   9.273257e+05
  -7.169388e+04   8.193684e+05
  -4.196529e+05   1.132802e+05
  -4.377420e+05  -3.030322e+05
  -1.986542e+05  -1.260668e+05
  -1.120259e+04   9.685217e+04
  -1.338982e+05  -1.846763e+05
  -3.894669e+05  -7.377807e+05
  -2.535113e+05  -8.666779e+05
   4.688142e+05  -3.422711e+05
   1.195013e+06   3.411804e+05
   1.109087e+06   6.374089e+05
   1.704380e+05   5.352927e+05
  -7.338817e+05   3.436475e+05
  -8.021981e+05   1.897035e+05
  -2.330736e+05   2.922298e+03
   1.363729e+05  -1.754674e+05
  -5.129717e+04  -2.003675e+05
  -2.924777e+05  -1.124281e+05
  -1.144655e+04  -1.100971e+05
   6.065313e+05  -1.686706e+05
   8.200089e+05   1.716962e+04
   2.370706e+05   5.301948e+05
  -7.250280e+05   8.987431e+05
  -1.282906e+06   5.649383e+05
  -1.027255e+06  -3.674359e+05
  -2.067475e+05  -1.123799e+06
   5.678576e+05  -1.073751e+06
   8.227633e+05  -3.878582e+05
   5.339603e+05   2.179933e+05
   7.756004e+04   2.811178e+05
  -1.218398e+05   9.128452e+03
   3.860106e+04  -6.598318e+04
   2.783184e+05   2.634718e+05
   2.373634e+05   6.358113e+05
  -1.486273e+05   5.240816e+05
  -5.563068e+05  -1.373465e+05
  -5.534192e+05  -7.937734e+05
  -2.315465e+04  -8.079726e+05
   6.377525e+05  -1.361951e+05
   8.052360e+05   6.229005e+05
   2.418154e+05   8.547336e+05
  -5.684698e+05   4.920671e+05
  -8.510306e+05  -6.676630e+04
  -3.867116e+05  -4.303120e+05
   2.149769e+05  -4.754715e+05
   2.379066e+05  -2.795727e+05
  -2.598037e+05  -2.804653e+04
  -5.304357e+05   2.872283e+04
  -9.740728e+04  -2.299014e+05
   6.449109e+05  -5.559255e+05
   9.347450e+05  -4.897648e+05
   5.410162e+05   8.209545e+04
  -7.203958e+04   6.636420e+05
  -3.715710e+05   6.569933e+05
  -2.722776e+05   8.623011e+04
  -1.484847e+04  -4.050672e+05
   1.967417e+05  -3.130385e+05
   2.846374e+05   1.685767e+05
   1.985733e+05   4.562096e+05
  -5.297452e+04   2.872062e+05
  -3.077162e+05  -5.584995e+04
  -3.589457e+05  -1.776199e+05
  -1.917546e+05  -3.827534e+04
  -3.802876e+02   7.452139e+04
   6.360748e+04  -5.831339e+04
   6.458431e+04  -3.170460e+05
   1.457571e+05  -3.753806e+05
   2.871873e+05  -7.379888e+04
   2.925372e+05   3.635007e+05
   3.083316e+04   5.211915e+05
  -3.488075e+05   2.255346e+05
  -4.913205e+05  -2.523504e+05
  -1.780585e+05  -4.742593e+05
   3.809281e+05  -2.856838e+05
   6.658824e+05   7.672361e+04
   3.659676e+05   2.956129e+05
  -2.290765e+05   2.773188e+05
  -4.888838e+05   1.347188e+05
  -1.539853e+05   7.269137e+03
   3.355473e+05  -1.318318e+04
   3.482461e+05   1.087888e+05
  -1.799476e+05   2.702884e+05
  -6.680865e+05   2.210151e+05
