
 $NMID
 id='ANONYMOUS ', fmtdat='(2E16.6)'
 volume=1.0
 tramp=1.0
 $END
  -2.470936e+07   4.837549e+05
  -1.733265e+07  -1.039444e+07
  -1.182142e+06  -1.551749e+07
   1.026275e+07  -1.173381e+07
   9.609004e+06  -2.253724e+06
   1.189689e+06   4.633645e+06
  -5.286978e+06   3.087537e+06
  -4.610795e+06  -3.909972e+06
   6.906590e+05  -7.689514e+06
   4.790545e+06  -3.755836e+06
   4.362021e+06   3.310212e+06
   6.182698e+05   5.627472e+06
  -2.575235e+06   1.088695e+06
  -2.181323e+06  -4.860996e+06
   1.365155e+06  -5.766533e+06
   4.410088e+06  -8.459494e+05
   3.526601e+06   4.985433e+06
  -8.748139e+05   6.541954e+06
  -4.802263e+06   3.146078e+06
  -4.883123e+06  -1.501709e+06
  -1.875445e+06  -3.485632e+06
   4.672394e+05  -2.431639e+06
  -2.736828e+05  -1.184703e+06
  -2.571422e+06  -2.103722e+06
  -2.752365e+06  -4.308605e+06
   8.639290e+05  -4.923313e+06
   5.777755e+06  -2.542387e+06
   7.439507e+06   1.226431e+06
   3.889603e+06   3.522150e+06
  -1.784232e+06   2.871484e+06
  -4.247576e+06   1.399355e+05
  -1.473189e+06  -2.343172e+06
   3.123903e+06  -2.416205e+06
   4.631680e+06   2.555026e+05
   2.045948e+06   3.493765e+06
  -1.250995e+06   4.205603e+06
  -1.971186e+06   1.572668e+06
  -3.998629e+05  -1.621424e+06
   9.083237e+05  -1.819642e+06
   4.896294e+05   1.113264e+06
  -9.773855e+05   3.539969e+06
  -2.095103e+06   2.355930e+06
  -1.980537e+06  -1.227952e+06
  -4.851095e+05  -3.124565e+06
   1.530843e+06  -1.209035e+06
   2.166853e+06   2.328207e+06
   5.657394e+04   3.629912e+06
  -3.504603e+06   1.348936e+06
  -5.055772e+06  -2.296518e+06
  -2.540056e+06  -4.105914e+06
   2.073896e+06  -2.887095e+06
   4.609603e+06  -7.469962e+04
   3.037646e+06   1.931511e+06
  -6.171562e+05   1.824678e+06
  -2.703506e+06   2.289367e+05
  -1.682681e+06  -1.092376e+06
   7.286724e+05  -8.914612e+05
   1.714303e+06   4.665922e+05
   3.271253e+05   1.457480e+06
  -1.637881e+06   9.665663e+05
  -1.670278e+06  -5.735974e+05
   5.655175e+05  -1.576239e+06
   2.626651e+06  -8.040755e+05
   1.896368e+06   1.415180e+06
  -1.406445e+06   3.314537e+06
  -4.366039e+06   3.093022e+06
  -4.539691e+06   5.130296e+05
  -2.373199e+06  -2.727004e+06
  -1.916126e+05  -4.410469e+06
   5.823201e+05  -3.826873e+06
   5.470487e+05  -2.281236e+06
   9.670921e+05  -1.410253e+06
   2.104336e+06  -1.245250e+06
   3.074144e+06  -4.522046e+05
   2.854233e+06   1.513401e+06
   1.195145e+06   3.194231e+06
  -1.099660e+06   2.641637e+06
  -2.537519e+06  -1.137163e+05
  -1.946394e+06  -2.751143e+06
   3.922834e+05  -2.984364e+06
   2.681497e+06  -8.152124e+05
   3.106201e+06   1.729521e+06
   1.556336e+06   2.778708e+06
  -3.492852e+05   2.202467e+06
  -1.080450e+06   1.217561e+06
  -8.305883e+05   8.785472e+05
  -1.075661e+06   1.105748e+06
  -2.544573e+06   9.645987e+05
  -3.993410e+06  -2.924081e+05
  -3.373567e+06  -2.372133e+06
  -2.564917e+05  -3.976736e+06
   3.248927e+06  -3.780924e+06
   4.364525e+06  -1.638826e+06
   2.430816e+06   1.055473e+06
  -4.448655e+05   2.381772e+06
  -1.609675e+06   1.562625e+06
  -4.738075e+05  -2.728409e+05
   1.262644e+06  -1.160276e+06
   1.688237e+06  -3.108732e+05
   5.753068e+05   1.051413e+06
  -7.283211e+05   1.112380e+06
  -8.412960e+05  -3.074805e+05
   3.892919e+05  -1.357272e+06
   1.830636e+06  -2.708550e+05
   1.991545e+06   2.377982e+06
   2.496647e+05   4.028551e+06
  -2.439634e+06   2.832653e+06
  -4.086966e+06  -3.584543e+05
  -3.330381e+06  -2.919597e+06
  -7.853894e+05  -3.110996e+06
   1.426906e+06  -1.528629e+06
   1.707551e+06  -8.012168e+04
   4.938061e+05   4.544162e+04
  -3.801115e+05  -7.277847e+05
   2.314797e+05  -1.161793e+06
   1.557901e+06  -5.753546e+05
   1.874688e+06   5.570857e+05
   5.589686e+05   1.168211e+06
  -1.072527e+06   6.792004e+05
  -1.139796e+06  -4.079208e+05
   6.599614e+05  -9.457777e+05
   2.535237e+06  -2.189611e+05
   2.398496e+06   1.327078e+06
   9.809896e+04   2.406596e+06
  -2.357756e+06   2.022302e+06
  -2.841802e+06   4.100113e+05
  -1.197603e+06  -1.096576e+06
   7.816053e+05  -1.261973e+06
   1.261383e+06  -1.484626e+05
   5.888324e+04   9.137335e+05
  -1.439436e+06   6.931215e+05
  -1.749142e+06  -6.175179e+05
  -6.208342e+05  -1.614340e+06
   8.597223e+05  -1.259836e+06
   1.343391e+06  -3.186059e+04
   5.006202e+05   6.704903e+05
  -6.336389e+05   1.192218e+05
  -6.750273e+05  -9.930788e+05
   6.293205e+05  -1.371424e+06
   2.018121e+06  -4.600905e+05
   1.984466e+06   1.076598e+06
   3.996561e+05   2.018765e+06
  -1.315762e+06   1.650598e+06
  -1.678497e+06   3.362413e+05
  -6.242951e+05  -8.039360e+05
   5.872057e+05  -8.840053e+05
   7.849511e+05  -6.857205e+04
   1.254232e+04   6.362403e+05
  -7.119662e+05   4.954448e+05
  -5.670816e+05  -1.445359e+05
   2.259393e+05  -3.167655e+05
   6.657203e+05   3.551822e+05
   3.342686e+04   1.139400e+06
  -1.289252e+06   9.774506e+05
  -2.087124e+06  -3.457050e+05
  -1.473493e+06  -1.912280e+06
   1.986972e+05  -2.496153e+06
   1.650650e+06  -1.645233e+06
   1.915162e+06  -4.874809e+04
   1.185887e+06   1.091194e+06
   4.195434e+05   1.127877e+06
   2.326334e+05   5.048656e+05
   3.399446e+05   1.947908e+05
   6.004988e+04   5.731758e+05
  -7.762675e+05   9.740653e+05
  -1.517406e+06   5.058109e+05
  -1.288077e+06  -7.736648e+05
   9.349499e+04  -1.728660e+06
   1.755939e+06  -1.284679e+06
   2.379650e+06   4.117641e+05
   1.318315e+06   2.059564e+06
  -7.617101e+05   2.385773e+06
  -2.383450e+06   1.239303e+06
  -2.502028e+06  -3.899030e+05
  -1.329807e+06  -1.334512e+06
   1.278238e+04  -1.257378e+06
   6.012459e+05  -7.908174e+05
   4.538694e+05  -7.219372e+05
   2.775323e+05  -1.081713e+06
   5.972001e+05  -1.130016e+06
   1.181410e+06  -2.761964e+05
   1.302441e+06   1.105228e+06
   5.453037e+05   1.926511e+06
  -6.533533e+05   1.458166e+06
  -1.326334e+06   5.752213e+04
  -9.022997e+05  -1.178083e+06
   1.973681e+05  -1.398805e+06
   9.610076e+05  -6.433660e+05
   8.053008e+05   3.597676e+05
   1.214821e+05   9.030766e+05
  -2.409824e+05   8.408038e+05
   3.586259e+04   5.429613e+05
   3.841971e+05   4.010479e+05
   2.649570e+04   4.137966e+05
  -1.057269e+06   2.619455e+05
  -1.944900e+06  -2.556991e+05
  -1.642504e+06  -9.329786e+05
  -1.568794e+05  -1.315542e+06
   1.382286e+06  -1.107479e+06
   1.774506e+06  -4.301323e+05
   9.187131e+05   2.509032e+05
  -1.609484e+05   4.652327e+05
  -4.535500e+05   1.386290e+05
   3.853652e+04  -2.789613e+05
   5.249084e+05  -2.184834e+05
   4.595567e+05   3.488855e+05
   7.852604e+04   7.795099e+05
  -6.982230e+04   4.940838e+05
   1.614529e+05  -2.201328e+05
   4.225065e+05  -4.487947e+05
   3.149809e+05   2.143157e+05
  -2.286801e+05   1.059919e+06
  -8.968724e+05   1.050061e+06
  -1.166678e+06   6.767319e+04
  -6.563643e+05  -9.267323e+05
   4.142284e+05  -9.884243e+05
   1.149730e+06  -1.751684e+05
   7.165844e+05   6.368185e+05
  -6.645931e+05   6.988115e+05
  -1.696962e+06   9.401632e+03
  -1.267573e+06  -8.304142e+05
   3.149292e+05  -1.162227e+06
   1.578315e+06  -7.476679e+05
   1.423608e+06   5.884277e+04
   2.315911e+05   5.684995e+05
  -6.418043e+05   3.643459e+05
  -3.367497e+05  -2.409742e+05
   6.769887e+05  -4.454175e+05
   1.186796e+06   2.140097e+05
   5.221984e+05   1.270730e+06
  -7.930931e+05   1.666616e+06
  -1.608627e+06   7.799998e+05
  -1.275134e+06  -8.487017e+05
  -1.762944e+05  -1.884401e+06
   7.726358e+05  -1.425556e+06
   9.902423e+05   7.515649e+04
   5.591107e+05   1.219414e+06
  -8.450154e+04   1.088310e+06
  -5.387747e+05   1.498673e+05
  -5.870995e+05  -4.190066e+05
  -2.856878e+05  -1.838670e+05
  -6.214875e+03   1.366529e+05
  -1.217083e+05  -2.194427e+05
  -4.620406e+05  -9.630435e+05
  -3.368518e+05  -1.146718e+06
   5.774787e+05  -4.381283e+05
   1.548316e+06   4.902263e+05
   1.456433e+06   8.731481e+05
   2.066585e+05   6.949815e+05
  -1.000208e+06   4.130067e+05
  -1.063740e+06   2.280035e+05
  -2.767326e+05   1.636867e+04
   1.967714e+05  -2.186065e+05
  -9.650159e+04  -2.845500e+05
  -4.156362e+05  -1.827743e+05
   6.086524e+03  -1.450061e+05
   8.385163e+05  -1.754451e+05
   1.058093e+06   6.915512e+04
   2.246484e+05   6.880504e+05
  -1.017858e+06   1.108612e+06
  -1.659918e+06   6.491891e+05
  -1.264835e+06  -5.423022e+05
  -2.026654e+05  -1.474173e+06
   7.719765e+05  -1.355722e+06
   1.082402e+06  -4.391544e+05
   6.881170e+05   3.298139e+05
   7.041177e+04   3.664945e+05
  -1.929438e+05  -1.987226e+04
   4.115106e+04  -1.126219e+05
   3.695811e+05   3.426165e+05
   2.968278e+05   8.361000e+05
  -2.239156e+05   6.641719e+05
  -7.222622e+05  -2.311459e+05
  -6.566688e+05  -1.080711e+06
   5.102246e+04  -1.042715e+06
   8.560158e+05  -1.078412e+05
   1.001493e+06   8.804334e+05
   2.484797e+05   1.116629e+06
  -7.651967e+05   5.825580e+05
  -1.080814e+06  -1.363380e+05
  -4.605693e+05  -5.479425e+05
   2.963050e+05  -5.710571e+05
   2.886102e+05  -3.447542e+05
  -3.707248e+05  -6.389337e+04
  -6.985957e+05   6.493776e+03
  -1.037091e+05  -2.952496e+05
   8.623946e+05  -6.966249e+05
   1.205856e+06  -6.209601e+05
   6.638323e+05   1.015279e+05
  -1.265815e+05   8.432051e+05
  -4.804012e+05   8.219610e+05
  -3.203569e+05   7.500002e+04
   1.929865e+04  -5.400453e+05
   2.757677e+05  -3.771063e+05
   3.618876e+05   2.640250e+05
   2.309560e+05   6.021202e+05
  -8.960513e+04   3.403163e+05
  -3.944590e+05  -1.010243e+05
  -4.469612e+05  -2.243602e+05
  -2.475035e+05  -3.857274e+04
  -1.913762e+04   7.065955e+04
   8.706996e+04  -1.249023e+05
   1.444919e+05  -4.269149e+05
   2.689300e+05  -4.417117e+05
   3.938391e+05  -2.219351e+04
   3.173991e+05   5.221136e+05
  -4.269771e+04   6.801067e+05
  -4.790750e+05   2.588893e+05
  -6.023712e+05  -3.717416e+05
  -1.906791e+05  -6.360816e+05
   4.978919e+05  -3.476202e+05
   8.398778e+05   1.456598e+05
   4.505029e+05   4.015367e+05
  -3.095306e+05   3.240760e+05
  -6.305224e+05   1.213198e+05
  -1.743226e+05  -2.236790e+03
   4.704522e+05   2.701380e+04
   4.588764e+05   1.951262e+05
  -2.767590e+05   3.623022e+05
  -9.253026e+05   2.505889e+05
