
 $NMID
 id='ANONYMOUS ', fmtdat='(2E16.6)'
 volume=1.0
 tramp=1.0
 $END
   6.049215e+07   1.871814e+06
   3.526224e+07   3.894586e+07
  -9.462622e+06   4.091895e+07
  -3.040542e+07   1.457470e+07
  -1.751767e+07  -8.470347e+06
   4.034379e+06  -9.973954e+06
   1.058849e+07   1.883863e+06
   2.476898e+06   1.072635e+07
  -7.212991e+06   9.685281e+06
  -1.049780e+07   1.638125e+06
  -7.208161e+06  -6.896840e+06
  -5.142368e+05  -9.160044e+06
   4.320612e+06  -2.794169e+06
   2.497209e+06   5.815901e+06
  -4.379209e+06   6.744836e+06
  -8.404405e+06  -1.812391e+06
  -4.325390e+06  -1.112846e+07
   4.539470e+06  -1.248986e+07
   1.103712e+07  -5.968534e+06
   1.150876e+07   2.518246e+06
   6.926647e+06   8.200735e+06
   5.656381e+05   9.363796e+06
  -3.360129e+06   6.555374e+06
  -2.316888e+06   2.904812e+06
   8.590570e+05   2.232426e+06
   8.675416e+04   4.269879e+06
  -5.758606e+06   4.387506e+06
  -1.014623e+07   1.968477e+05
  -7.324571e+06  -4.583748e+06
  -2.003587e+05  -5.336709e+06
   3.883122e+06  -2.608894e+06
   2.550139e+06  -6.334024e+04
  -5.846568e+05   7.676307e+05
  -2.233331e+06   3.516796e+05
  -2.145969e+06  -1.477726e+06
  -6.235149e+05  -4.041409e+06
   1.982563e+06  -4.046203e+06
   3.470358e+06   8.312664e+04
   1.812075e+06   3.884107e+06
  -8.134371e+05   2.151292e+06
  -2.668056e+05  -2.465812e+06
   2.705508e+06  -2.281643e+06
   2.480433e+06   3.551673e+06
  -2.908140e+06   6.540244e+06
  -7.608586e+06   8.793454e+05
  -5.304307e+06  -7.638431e+06
   2.373571e+06  -9.133557e+06
   8.047948e+06  -2.331671e+06
   7.193746e+06   5.057582e+06
   1.634584e+06   6.520219e+06
  -3.854826e+06   2.683766e+06
  -5.498804e+06  -1.939557e+06
  -2.365479e+06  -3.877977e+06
   2.724463e+06  -2.250074e+06
   4.816289e+06   1.201201e+06
   1.963597e+06   3.022369e+06
  -1.901726e+06   1.400893e+06
  -1.782466e+06  -1.195228e+06
   1.540151e+06  -9.209489e+05
   2.640417e+06   2.079128e+06
  -8.416433e+05   3.800320e+06
  -5.137294e+06   1.910038e+06
  -5.685470e+06  -1.713188e+06
  -2.325220e+06  -4.395290e+06
   2.109274e+06  -5.517676e+06
   5.451505e+06  -4.906484e+06
   6.599146e+06  -1.623621e+06
   4.751070e+06   3.478144e+06
   7.651703e+05   6.559679e+06
  -2.232520e+06   4.980343e+06
  -2.014109e+06   1.169459e+06
  -1.781968e+05  -3.935033e+05
   8.446110e+04   9.300185e+05
  -1.640232e+06   1.804252e+06
  -2.887815e+06   1.973719e+05
  -2.019763e+06  -2.027644e+06
   4.299504e+04  -2.179745e+06
   1.573458e+06  -1.144590e+05
   1.609239e+06   2.237654e+06
  -1.318977e+05   3.057422e+06
  -2.956703e+06   1.635534e+06
  -4.670293e+06  -1.400640e+06
  -3.299904e+06  -4.093348e+06
   1.679047e+05  -4.519787e+06
   2.533956e+06  -2.850907e+06
   2.464649e+06  -1.139975e+06
   2.015480e+06  -6.228671e+05
   3.151840e+06  -3.319813e+05
   4.558161e+06   1.046860e+06
   3.528770e+06   3.110327e+06
  -8.988620e+04   4.353889e+06
  -3.572811e+06   3.926776e+06
  -4.469405e+06   2.021844e+06
  -2.757036e+06  -5.400860e+05
  -2.058782e+05  -2.327280e+06
   1.216772e+06  -1.975880e+06
   5.870262e+05   5.062134e+04
  -1.199645e+06   1.320494e+06
  -2.038007e+06   3.290446e+05
  -9.311277e+05  -1.314251e+06
   5.927342e+05  -1.136017e+06
   4.068871e+05   4.553113e+05
  -1.228965e+06   6.601588e+05
  -1.944778e+06  -1.553335e+06
  -4.447054e+05  -3.823793e+06
   2.003469e+06  -3.530496e+06
   3.475341e+06  -9.124755e+05
   3.389709e+06   1.803619e+06
   2.162292e+06   3.060390e+06
   2.895779e+05   2.750645e+06
  -1.377274e+06   1.460495e+06
  -1.659521e+06   1.575660e+05
  -5.166929e+05  -7.590502e+04
   3.349471e+05   8.158566e+05
  -5.176150e+05   1.411469e+06
  -2.069857e+06   5.173101e+05
  -2.120119e+06  -1.069279e+06
  -3.229186e+05  -1.542218e+06
   1.281250e+06  -5.320138e+05
   8.946572e+05   5.452203e+05
  -9.575655e+05   4.748115e+05
  -2.275689e+06  -5.187049e+05
  -1.711614e+06  -1.558842e+06
   4.197519e+05  -2.043677e+06
   2.539678e+06  -1.582223e+06
   2.941801e+06  -1.175817e+05
   1.221198e+06   1.417381e+06
  -1.056541e+06   1.558585e+06
  -1.680241e+06   1.275679e+05
  -1.697661e+05  -1.160368e+06
   1.648025e+06  -6.991773e+05
   1.774180e+06   9.386558e+05
   2.387987e+05   1.779116e+06
  -1.241024e+06   9.534802e+05
  -1.316321e+06  -4.358029e+05
  -1.962022e+05  -8.601518e+05
   8.622897e+05  -1.336616e+04
   7.271611e+05   1.157935e+06
  -6.816693e+05   1.475606e+06
  -2.148034e+06   4.680576e+05
  -2.095901e+06  -1.219632e+06
  -2.893358e+05  -2.220063e+06
   1.626749e+06  -1.658780e+06
   1.845749e+06  -1.139038e+05
   4.721246e+05   9.578917e+05
  -7.521237e+05   8.067120e+05
  -6.593830e+05   3.935199e+04
   1.692211e+05  -3.539068e+05
   5.220574e+05  -1.568610e+05
   8.118540e+04   8.650075e+04
  -5.054040e+05  -1.346093e+05
  -5.072021e+05  -7.749234e+05
   3.066917e+05  -1.256169e+06
   1.523403e+06  -8.632644e+05
   2.178258e+06   5.621376e+05
   1.438794e+06   2.139607e+06
  -3.700501e+05   2.539096e+06
  -1.791774e+06   1.377016e+06
  -1.762734e+06  -2.546678e+05
  -8.157194e+05  -9.896799e+05
  -2.695876e+05  -6.650046e+05
  -5.035924e+05  -2.217051e+05
  -6.766187e+05  -3.662256e+05
  -6.337439e+04  -8.293736e+05
   9.890805e+05  -8.986614e+05
   1.548307e+06  -2.404152e+05
   1.042144e+06   8.266642e+05
  -3.728913e+05   1.507199e+06
  -1.884414e+06   1.013067e+06
  -2.336965e+06  -6.500150e+05
  -1.062076e+06  -2.293832e+06
   1.225863e+06  -2.449779e+06
   2.768133e+06  -9.312346e+05
   2.441544e+06   8.623662e+05
   8.968477e+05   1.483399e+06
  -3.027111e+05   9.638440e+05
  -4.298881e+05   4.807498e+05
  -8.641369e+04   7.796526e+05
  -1.562842e+05   1.390388e+06
  -7.814999e+05   1.342260e+06
  -1.394046e+06   2.729779e+05
  -1.355584e+06  -1.211930e+06
  -4.826497e+05  -2.028844e+06
   7.346217e+05  -1.480394e+06
   1.356227e+06   8.203181e+04
   7.810150e+05   1.415728e+06
  -5.108192e+05   1.460154e+06
  -1.280961e+06   3.465077e+05
  -8.314230e+05  -8.166748e+05
   2.089608e+05  -1.156602e+06
   6.435103e+05  -8.015544e+05
   1.307372e+05  -4.261585e+05
  -4.419390e+05  -3.698334e+05
  -4.453331e+04  -4.037223e+05
   1.236933e+06  -1.560048e+05
   2.176777e+06   4.693328e+05
   1.652317e+06   1.197367e+06
  -1.361699e+05   1.534432e+06
  -1.763635e+06   1.128567e+06
  -1.962809e+06   1.770737e+05
  -8.535205e+05  -5.984729e+05
   3.143071e+05  -6.020516e+05
   5.529878e+05   2.089164e+03
   2.264670e+04   4.598968e+05
  -4.711502e+05   2.504510e+05
  -4.927573e+05  -3.858405e+05
  -2.473636e+05  -7.643287e+05
  -9.485312e+04  -5.034450e+05
  -1.523069e+05   7.664500e+04
  -2.999964e+05   2.693418e+05
  -2.742844e+05  -2.643584e+05
   1.950498e+05  -1.022569e+06
   1.007896e+06  -1.080375e+06
   1.469527e+06  -1.330826e+05
   8.761659e+05   1.003352e+06
  -4.941811e+05   1.201767e+06
  -1.355570e+06   3.149425e+05
  -7.451518e+05  -6.359510e+05
   7.846091e+05  -6.422601e+05
   1.663731e+06   2.066689e+05
   9.819272e+05   9.826661e+05
  -5.962000e+05   1.002191e+06
  -1.610720e+06   3.834803e+05
  -1.272001e+06  -2.956319e+05
  -9.777913e+04  -5.472979e+05
   7.068168e+05  -2.358681e+05
   4.000593e+05   3.380285e+05
  -6.298509e+05   5.306345e+05
  -1.243181e+06  -1.262828e+05
  -6.707993e+05  -1.265700e+06
   6.773334e+05  -1.772288e+06
   1.593057e+06  -8.759657e+05
   1.286082e+06   8.524701e+05
   1.236717e+05   1.893225e+06
  -8.518093e+05   1.310077e+06
  -9.645124e+05  -2.560182e+05
  -3.709267e+05  -1.286766e+06
   3.131945e+05  -9.997406e+05
   6.075713e+05  -4.839004e+04
   4.504397e+05   4.217600e+05
   1.413156e+05   1.502206e+05
   6.628187e+04  -9.232259e+04
   3.150007e+05   3.365345e+05
   5.002616e+05   1.050749e+06
   1.153776e+05   1.146739e+06
  -8.076914e+05   3.787746e+05
  -1.526155e+06  -5.673762e+05
  -1.278865e+06  -9.536815e+05
  -1.561855e+05  -7.528029e+05
   8.965049e+05  -3.977822e+05
   1.039509e+06  -1.306477e+05
   4.011719e+05   8.652129e+04
  -1.546006e+05   2.320557e+05
  -8.038369e+04   2.035571e+05
   2.398074e+05   9.938783e+04
   5.970301e+04   1.392798e+05
  -6.723186e+05   2.259294e+05
  -1.107768e+06  -5.009510e+04
  -4.756165e+05  -7.505542e+05
   9.077859e+05  -1.222019e+06
   1.850052e+06  -7.498680e+05
   1.511953e+06   4.942882e+05
   2.406724e+05   1.489974e+06
  -8.801289e+05   1.431699e+06
  -1.130805e+06   5.462224e+05
  -6.747576e+05  -2.550816e+05
  -1.411088e+05  -3.834597e+05
   4.384610e+04  -8.484333e+04
  -1.008951e+05  -9.007652e+03
  -2.854366e+05  -4.148332e+05
  -2.106885e+05  -8.668857e+05
   2.105809e+05  -7.170685e+05
   7.047998e+05   1.324827e+05
   7.605564e+05   1.009354e+06
   1.211449e+05   1.094654e+06
  -7.796674e+05   2.647415e+05
  -1.073043e+06  -7.685845e+05
  -3.487522e+05  -1.165121e+06
   7.722067e+05  -7.142723e+05
   1.196549e+06   1.115036e+05
   5.607896e+05   6.922007e+05
  -3.300284e+05   7.393753e+05
  -4.458262e+05   3.845250e+05
   2.258220e+05   9.794150e+03
   6.785115e+05  -1.998541e+04
   1.550474e+05   3.369621e+05
  -9.006675e+05   6.789529e+05
  -1.385053e+06   4.962821e+05
  -8.355162e+05  -2.423668e+05
   1.324393e+05  -9.284462e+05
   6.471445e+05  -8.998308e+05
   4.887278e+05  -1.827635e+05
   5.513802e+04   4.922948e+05
  -2.613937e+05   4.693404e+05
  -3.614448e+05  -1.378661e+05
  -2.511429e+05  -6.183925e+05
   6.082853e+04  -4.779555e+05
   4.116566e+05   4.796921e+04
   5.052528e+05   3.363274e+05
   2.548161e+05   1.313605e+05
  -4.915330e+04  -1.837044e+05
  -9.124231e+04  -1.012213e+05
   4.220388e+04   3.490500e+05
  -6.170079e+03   6.093494e+05
  -3.192226e+05   2.766442e+05
  -5.101417e+05  -3.749313e+05
  -1.995642e+05  -6.799353e+05
   4.248264e+05  -3.323897e+05
   7.123564e+05   2.955720e+05
   2.633763e+05   6.005509e+05
  -5.594732e+05   3.737829e+05
  -9.489646e+05  -9.497794e+04
  -5.027664e+05  -4.149149e+05
   3.227685e+05  -4.378722e+05
   6.902231e+05  -2.500376e+05
   2.915683e+05  -1.821808e+04
  -3.286847e+05   8.400967e+04
  -4.105798e+05  -4.502476e+04
   1.594096e+05  -2.763735e+05
   7.448519e+05  -2.576356e+05
