
 $NMID
 id='ANONYMOUS ', fmtdat='(2E16.6)'
 volume=1.0
 tramp=1.0
 $END
   3.374152e+07  -1.803083e+06
   2.278406e+07   1.672704e+07
  -5.291200e+05   2.217732e+07
  -1.485271e+07   1.299073e+07
  -1.156010e+07  -2.051404e+05
  -2.072988e+04  -5.996656e+06
   6.514342e+06  -1.937810e+06
   4.160828e+06   5.483101e+06
  -2.075137e+06   8.106337e+06
  -6.056693e+06   3.364395e+06
  -5.218176e+06  -3.901098e+06
  -9.158187e+05  -6.353518e+06
   2.863577e+06  -1.685515e+06
   2.432827e+06   4.811184e+06
  -1.853871e+06   5.932275e+06
  -5.365422e+06   3.676348e+05
  -3.982821e+06  -6.312273e+06
   1.415872e+06  -8.063214e+06
   6.135102e+06  -4.180649e+06
   6.633826e+06   1.337381e+06
   3.489921e+06   4.457166e+06
   1.174601e+05   4.273700e+06
  -5.773311e+05   2.711700e+06
   1.212363e+06   2.228795e+06
   2.265799e+06   3.457281e+06
  -3.397586e+05   4.553599e+06
  -5.366013e+06   3.229993e+06
  -7.912486e+06  -3.567129e+05
  -4.882682e+06  -3.405843e+06
   9.579785e+05  -3.481305e+06
   3.902642e+06  -1.021550e+06
   1.770298e+06   1.474233e+06
  -2.201923e+06   1.944312e+06
  -3.763187e+06   9.375629e+04
  -2.111468e+06  -2.680704e+06
   4.726286e+05  -4.000949e+06
   1.759052e+06  -2.296726e+06
   1.287590e+06   1.031583e+06
   2.768230e+04   2.303561e+06
  -5.391344e+05  -1.199833e+05
   4.417163e+05  -3.108870e+06
   2.067166e+06  -2.351207e+06
   2.149654e+06   1.721122e+06
  -2.594616e+05   4.004934e+06
  -3.120904e+06   1.277203e+06
  -3.188001e+06  -3.544925e+06
   3.288741e+05  -5.074006e+06
   4.545336e+06  -1.839288e+06
   5.616404e+06   2.683723e+06
   2.431671e+06   4.509644e+06
  -2.351898e+06   2.848942e+06
  -4.707538e+06  -2.514916e+05
  -2.859341e+06  -2.264824e+06
   1.083697e+06  -1.944191e+06
   3.203308e+06   3.485646e+03
   1.787400e+06   1.499375e+06
  -9.720131e+05   1.057949e+06
  -1.700216e+06  -5.668870e+05
   1.520492e+05  -1.271754e+06
   1.872481e+06  -1.733789e+05
   9.961600e+05   1.430579e+06
  -1.740994e+06   1.734408e+06
  -3.393315e+06   2.601976e+05
  -2.073175e+06  -2.091015e+06
   1.335276e+06  -3.878082e+06
   4.298054e+06  -3.707652e+06
   4.877780e+06  -1.068527e+06
   3.089431e+06   2.655306e+06
   6.059309e+05   4.806301e+06
  -8.099130e+05   4.055809e+06
  -8.508007e+05   1.934238e+06
  -6.787202e+05   8.747288e+05
  -1.350208e+06   1.156323e+06
  -2.491084e+06   9.271508e+05
  -2.777700e+06  -8.326099e+05
  -1.503011e+06  -2.656660e+06
   6.405465e+05  -2.429547e+06
   2.160360e+06  -5.490943e+04
   1.890335e+06   2.405484e+06
  -1.575534e+05   2.892240e+06
  -2.588120e+06   1.146256e+06
  -3.490473e+06  -1.379677e+06
  -2.144135e+06  -2.916509e+06
   1.248477e+05  -2.773199e+06
   1.347322e+06  -1.710263e+06
   1.206329e+06  -9.926115e+05
   1.252372e+06  -9.971599e+05
   2.576633e+06  -8.826350e+05
   4.016083e+06   2.873261e+05
   3.406759e+06   2.314359e+06
   3.481162e+05   3.911522e+06
  -3.018937e+06   3.826938e+06
  -4.123600e+06   1.889829e+06
  -2.459181e+06  -7.422130e+05
   1.304827e+05  -2.272990e+06
   1.346996e+06  -1.681392e+06
   4.932398e+05   1.734719e+05
  -1.132536e+06   1.215409e+06
  -1.699656e+06   3.918986e+05
  -7.072868e+05  -1.044922e+06
   6.052463e+05  -1.103750e+06
   7.015957e+05   3.055405e+05
  -5.593652e+05   1.142013e+06
  -1.814123e+06  -1.623440e+05
  -1.621043e+06  -2.623573e+06
   2.106378e+05  -3.759032e+06
   2.535538e+06  -2.315934e+06
   3.770400e+06   5.681608e+05
   3.006839e+06   2.703080e+06
   7.547392e+05   2.853088e+06
  -1.281266e+06   1.513112e+06
  -1.616837e+06   1.797116e+05
  -4.824295e+05  -2.767226e+04
   3.882619e+05   7.046975e+05
  -2.407299e+05   1.200478e+06
  -1.609700e+06   6.211454e+05
  -1.902854e+06  -5.817102e+05
  -5.335970e+05  -1.202130e+06
   1.056640e+06  -6.650456e+05
   1.045343e+06   3.804139e+05
  -6.816404e+05   8.121871e+05
  -2.362604e+06   1.182351e+05
  -2.174134e+06  -1.237135e+06
  -5.586011e+04  -2.210931e+06
   2.222857e+06  -1.931388e+06
   2.737578e+06  -4.496868e+05
   1.213952e+06   1.082262e+06
  -7.584274e+05   1.335877e+06
  -1.319061e+06   2.065573e+05
  -1.368704e+05  -9.389882e+05
   1.404056e+06  -7.394061e+05
   1.719552e+06   5.971011e+05
   5.688295e+05   1.571439e+06
  -8.768670e+05   1.170694e+06
  -1.288112e+06  -3.681223e+04
  -4.303368e+05  -6.780873e+05
   6.679689e+05  -1.195490e+05
   7.124670e+05   9.645549e+05
  -5.498863e+05   1.374658e+06
  -1.948027e+06   5.427185e+05
  -1.987570e+06  -9.739335e+05
  -4.534674e+05  -1.973936e+06
   1.268277e+06  -1.653949e+06
   1.643717e+06  -3.443836e+05
   5.973930e+05   7.864823e+05
  -5.680098e+05   8.568252e+05
  -7.137609e+05   9.225576e+04
   1.529039e+04  -5.336367e+05
   6.129089e+05  -4.091639e+05
   4.123776e+05   1.062720e+05
  -2.903476e+05   1.940105e+05
  -6.201923e+05  -4.300103e+05
   6.129432e+03  -1.130893e+06
   1.256873e+06  -9.718334e+05
   2.046997e+06   2.897483e+05
   1.499152e+06   1.826136e+06
  -1.174476e+05   2.417133e+06
  -1.547983e+06   1.583575e+06
  -1.796637e+06   5.027389e+04
  -1.082601e+06  -9.681089e+05
  -4.038734e+05  -9.337057e+05
  -3.170934e+05  -3.868907e+05
  -4.337236e+05  -2.110153e+05
  -9.194776e+04  -6.185134e+05
   7.585628e+05  -9.545902e+05
   1.444675e+06  -4.838671e+05
   1.203843e+06   7.000001e+05
  -8.998170e+04   1.605220e+06
  -1.663206e+06   1.242059e+06
  -2.293409e+06  -3.481156e+05
  -1.295346e+06  -1.981668e+06
   7.442494e+05  -2.350926e+06
   2.339126e+06  -1.224042e+06
   2.409578e+06   3.873759e+05
   1.219923e+06   1.266185e+06
  -3.987698e+04   1.129328e+06
  -4.968498e+05   6.956343e+05
  -2.955309e+05   7.215133e+05
  -1.727897e+05   1.133807e+06
  -5.648197e+05   1.175233e+06
  -1.178492e+06   3.253362e+05
  -1.318395e+06  -1.025105e+06
  -5.997919e+05  -1.849773e+06
   5.782035e+05  -1.436550e+06
   1.279509e+06  -8.027199e+04
   8.923584e+05   1.154934e+06
  -2.086031e+05   1.374006e+06
  -9.864739e+05   5.863091e+05
  -8.065065e+05  -4.339393e+05
  -7.255839e+04  -9.381761e+05
   3.046072e+05  -8.151522e+05
  -1.102801e+04  -4.893232e+05
  -4.030973e+05  -3.557098e+05
  -5.022949e+04  -3.920684e+05
   1.053448e+06  -2.761619e+05
   1.946006e+06   2.063444e+05
   1.627355e+06   8.891250e+05
   1.359394e+05   1.321082e+06
  -1.378026e+06   1.142069e+06
  -1.738107e+06   4.305172e+05
  -8.816934e+05  -2.954508e+05
   1.719205e+05  -4.954789e+05
   4.590691e+05  -1.173050e+05
  -2.102951e+03   3.187858e+05
  -4.765088e+05   2.425683e+05
  -4.673799e+05  -3.217334e+05
  -1.600857e+05  -7.350775e+05
  -3.501894e+03  -4.757120e+05
  -1.447691e+05   1.781772e+05
  -3.528762e+05   3.970932e+05
  -3.019211e+05  -2.053740e+05
   1.594817e+05  -1.015542e+06
   8.395692e+05  -1.060384e+06
   1.198584e+06  -1.461025e+05
   7.371550e+05   8.731143e+05
  -3.670967e+05   1.028917e+06
  -1.148080e+06   2.672013e+05
  -7.253496e+05  -5.747565e+05
   6.381487e+05  -6.883894e+05
   1.621004e+06  -2.924429e+04
   1.177583e+06   7.838587e+05
  -3.285038e+05   1.090063e+06
  -1.493547e+06   6.906332e+05
  -1.329502e+06  -5.788659e+04
  -2.111248e+05  -5.305746e+05
   6.185594e+05  -3.452298e+05
   3.541891e+05   2.406246e+05
  -6.120910e+05   4.822899e+05
  -1.161359e+06  -1.219891e+05
  -6.032696e+05  -1.187685e+06
   6.446430e+05  -1.662260e+06
   1.497182e+06  -8.515786e+05
   1.265858e+06   7.525214e+05
   2.451356e+05   1.800715e+06
  -6.964878e+05   1.372398e+06
  -9.492364e+05  -7.583006e+04
  -5.429397e+05  -1.164658e+06
   9.499996e+04  -1.026988e+06
   5.307004e+05  -1.424446e+05
   5.442646e+05   3.770601e+05
   2.411261e+05   1.561667e+05
   1.725285e+04  -1.200674e+05
   1.842279e+05   2.330948e+05
   5.017964e+05   9.243238e+05
   3.155973e+05   1.087395e+06
  -5.983687e+05   4.360030e+05
  -1.502610e+06  -4.173210e+05
  -1.389342e+06  -7.930718e+05
  -2.185845e+05  -6.733903e+05
   9.095798e+05  -4.373549e+05
   1.003600e+06  -2.417552e+05
   3.017339e+05  -2.802857e+03
  -1.657883e+05   2.217743e+05
   5.458011e+04   2.491220e+05
   3.556666e+05   1.355780e+05
   1.952196e+04   1.362054e+05
  -7.470722e+05   2.190202e+05
  -1.030727e+06  -8.845036e+03
  -3.204869e+05  -6.604710e+05
   8.883107e+05  -1.140754e+06
   1.610505e+06  -7.346037e+05
   1.306618e+06   4.396296e+05
   2.762909e+05   1.406351e+06
  -7.031698e+05   1.360038e+06
  -1.027266e+06   5.041624e+05
  -6.697998e+05  -2.621579e+05
  -1.053805e+05  -3.510094e+05
   1.415145e+05  -1.643182e+04
  -5.355311e+04   7.695659e+04
  -3.485162e+05  -3.327202e+05
  -3.010568e+05  -7.974132e+05
   1.776471e+05  -6.617322e+05
   6.960355e+05   1.593132e+05
   7.088980e+05   9.814308e+05
   5.101127e+04   1.012314e+06
  -7.899750e+05   1.870777e+05
  -1.019677e+06  -7.622145e+05
  -3.212306e+05  -1.069368e+06
   7.041612e+05  -6.323364e+05
   1.074239e+06   6.899678e+04
   4.991399e+05   5.412803e+05
  -2.621948e+05   6.096275e+05
  -3.033707e+05   3.589011e+05
   3.162679e+05   3.129581e+04
   6.631209e+05  -4.324448e+04
   1.290050e+05   2.885202e+05
  -8.039158e+05   7.049013e+05
  -1.178739e+06   6.219329e+05
  -6.924562e+05  -1.011485e+05
   8.039921e+04  -8.381606e+05
   4.659409e+05  -8.363740e+05
   3.483972e+05  -1.214210e+05
   2.745772e+04   5.032730e+05
  -2.399594e+05   4.003029e+05
  -3.565497e+05  -1.999928e+05
  -2.563619e+05  -5.699388e+05
   5.828573e+04  -3.685432e+05
   3.864802e+05   6.245598e+04
   4.579794e+05   2.236832e+05
   2.431353e+05   5.100753e+04
  -6.816035e+03  -9.896304e+04
  -8.361191e+04   6.024629e+04
  -6.699950e+04   3.899155e+05
  -1.586143e+05   4.775779e+05
  -3.495955e+05   1.102910e+05
  -3.803191e+05  -4.392019e+05
  -6.013191e+04  -6.482730e+05
   4.296378e+05  -2.906555e+05
   6.243919e+05   3.032553e+05
   2.330476e+05   5.886649e+05
  -4.770919e+05   3.658146e+05
  -8.413725e+05  -8.239344e+04
  -4.660222e+05  -3.656354e+05
   2.821571e+05  -3.577820e+05
   6.122354e+05  -1.842264e+05
   1.997136e+05  -1.465038e+04
  -4.096311e+05   2.489980e+04
  -4.321077e+05  -1.236195e+05
   2.165633e+05  -3.336348e+05
   8.234903e+05  -2.826557e+05
