
 $NMID
 id='ANONYMOUS ', fmtdat='(2E16.6)'
 volume=1.0
 tramp=1.0
 $END
  -2.045624e+07   4.078392e+05
  -1.407149e+07  -9.005115e+06
  -5.725022e+05  -1.289996e+07
   8.571179e+06  -9.206508e+06
   7.648429e+06  -1.415469e+06
   7.529967e+05   3.739411e+06
  -4.222108e+06   2.232543e+06
  -3.493670e+06  -3.213038e+06
   6.979408e+05  -5.991972e+06
   3.861902e+06  -2.852085e+06
   3.502578e+06   2.652714e+06
   5.282646e+05   4.473075e+06
  -2.047937e+06   9.294795e+05
  -1.750161e+06  -3.766424e+06
   1.105178e+06  -4.495201e+06
   3.538622e+06  -5.868155e+05
   2.789523e+06   4.050097e+06
  -7.631765e+05   5.280882e+06
  -3.926260e+06   2.573239e+06
  -4.044539e+06  -1.169257e+06
  -1.665570e+06  -2.876334e+06
   3.242451e+05  -2.156429e+06
  -6.232082e+04  -1.100640e+06
  -1.825080e+06  -1.602517e+06
  -2.119833e+06  -3.210235e+06
   5.685905e+05  -3.797367e+06
   4.444696e+06  -2.106181e+06
   5.875594e+06   8.164944e+05
   3.173929e+06   2.730777e+06
  -1.280600e+06   2.341741e+06
  -3.277780e+06   2.534697e+05
  -1.218498e+06  -1.706916e+06
   2.280319e+06  -1.854978e+06
   3.495203e+06   1.049535e+05
   1.640791e+06   2.597479e+06
  -8.391721e+05   3.269144e+06
  -1.514784e+06   1.336423e+06
  -4.537312e+05  -1.202276e+06
   5.857689e+05  -1.508847e+06
   4.208564e+05   7.315306e+05
  -6.591787e+05   2.713963e+06
  -1.613959e+06   1.842191e+06
  -1.553513e+06  -1.015038e+06
  -2.657068e+05  -2.522365e+06
   1.399816e+06  -9.096882e+05
   1.796085e+06   1.993235e+06
  -3.416187e+04   3.004708e+06
  -2.872836e+06   1.100216e+06
  -4.004949e+06  -1.830982e+06
  -1.967505e+06  -3.231336e+06
   1.634149e+06  -2.240103e+06
   3.585806e+06  -3.309126e+04
   2.337124e+06   1.524543e+06
  -5.353617e+05   1.421179e+06
  -2.158632e+06   1.449801e+05
  -1.314620e+06  -8.962752e+05
   5.988684e+05  -7.097355e+05
   1.328965e+06   3.668771e+05
   2.024415e+05   1.090802e+06
  -1.275836e+06   6.457002e+05
  -1.184610e+06  -5.321519e+05
   5.949791e+05  -1.214536e+06
   2.125492e+06  -5.428754e+05
   1.485660e+06   1.186955e+06
  -1.083815e+06   2.662627e+06
  -3.388153e+06   2.511672e+06
  -3.588760e+06   4.861908e+05
  -1.956824e+06  -2.119420e+06
  -2.150313e+05  -3.492383e+06
   4.702082e+05  -3.001803e+06
   4.437445e+05  -1.721971e+06
   6.907891e+05  -1.039483e+06
   1.527589e+06  -9.888525e+05
   2.324557e+06  -4.457639e+05
   2.235331e+06   1.070737e+06
   9.998817e+05   2.414163e+06
  -7.750825e+05   2.042170e+06
  -1.926383e+06  -4.397049e+04
  -1.527200e+06  -2.081227e+06
   2.569621e+05  -2.315254e+06
   2.077117e+06  -6.930140e+05
   2.484359e+06   1.293586e+06
   1.298662e+06   2.187708e+06
  -2.465145e+05   1.797154e+06
  -8.838563e+05   1.011179e+06
  -6.955151e+05   6.925868e+05
  -8.521344e+05   8.455633e+05
  -1.976390e+06   7.498160e+05
  -3.110107e+06  -2.088460e+05
  -2.640533e+06  -1.821774e+06
  -2.319514e+05  -3.084575e+06
   2.479159e+06  -2.967690e+06
   3.360259e+06  -1.335267e+06
   1.906776e+06   7.677907e+05
  -2.896951e+05   1.847662e+06
  -1.211356e+06   1.245206e+06
  -3.738528e+05  -1.970697e+05
   9.604356e+05  -9.181224e+05
   1.313831e+06  -2.593825e+05
   4.692751e+05   8.169887e+05
  -5.437067e+05   8.690609e+05
  -6.354347e+05  -2.314817e+05
   3.138592e+05  -1.022218e+06
   1.407302e+06  -1.599394e+05
   1.502290e+06   1.862304e+06
   1.586306e+05   3.081010e+06
  -1.881685e+06   2.141287e+06
  -3.130820e+06  -2.782042e+05
  -2.565805e+06  -2.215378e+06
  -6.285007e+05  -2.379421e+06
   1.081993e+06  -1.197559e+06
   1.317458e+06  -8.666545e+04
   3.830021e+05   2.998513e+04
  -3.001827e+05  -5.612372e+05
   1.774875e+05  -9.087937e+05
   1.216597e+06  -4.584508e+05
   1.462034e+06   4.287976e+05
   4.344778e+05   9.086545e+05
  -8.282723e+05   5.301081e+05
  -8.751090e+05  -3.064498e+05
   5.091268e+05  -7.196774e+05
   1.944659e+06  -1.725961e+05
   1.843181e+06   1.002735e+06
   8.690911e+04   1.843114e+06
  -1.803044e+06   1.574625e+06
  -2.194231e+06   3.403393e+05
  -9.384167e+05  -8.450060e+05
   6.006300e+05  -9.947473e+05
   9.887293e+05  -1.272797e+05
   5.922574e+04   7.152874e+05
  -1.112382e+06   5.521523e+05
  -1.358771e+06  -4.685470e+05
  -4.839125e+05  -1.244370e+06
   6.621293e+05  -9.700709e+05
   1.033980e+06  -2.285074e+04
   3.815310e+05   5.175593e+05
  -4.972991e+05   9.354656e+04
  -5.349382e+05  -7.673412e+05
   4.732524e+05  -1.072349e+06
   1.560595e+06  -3.799726e+05
   1.551381e+06   8.144380e+05
   3.284803e+05   1.563165e+06
  -1.008828e+06   1.290970e+06
  -1.298298e+06   2.713984e+05
  -4.852987e+05  -6.183313e+05
   4.491185e+05  -6.859848e+05
   6.002944e+05  -6.162398e+04
   1.080297e+04   4.798742e+05
  -5.360884e+05   3.790634e+05
  -4.216075e+05  -1.008901e+05
   1.801931e+05  -2.292237e+05
   5.116749e+05   2.822431e+05
   2.624433e+04   8.841795e+05
  -9.937985e+05   7.665562e+05
  -1.621029e+06  -2.505135e+05
  -1.160725e+06  -1.469353e+06
   1.294478e+05  -1.933362e+06
   1.259803e+06  -1.281331e+06
   1.472595e+06  -5.062246e+04
   9.166961e+05   8.226150e+05
   3.352306e+05   8.475469e+05
   1.986128e+05   3.776145e+05
   2.781572e+05   1.550038e+05
   5.292224e+04   4.530897e+05
  -5.961427e+05   7.596472e+05
  -1.167745e+06   3.999941e+05
  -9.966463e+05  -5.832427e+05
   6.048940e+04  -1.328476e+06
   1.346075e+06  -1.004396e+06
   1.842790e+06   2.980818e+05
   1.033576e+06   1.584429e+06
  -5.783560e+05   1.854474e+06
  -1.841311e+06   9.736212e+05
  -1.934529e+06  -2.887898e+05
  -1.026777e+06  -1.018920e+06
   4.295881e+03  -9.592370e+05
   4.467013e+05  -6.075804e+05
   3.276262e+05  -5.680203e+05
   1.977531e+05  -8.526476e+05
   4.559784e+05  -8.886246e+05
   9.184491e+05  -2.270508e+05
   1.022370e+06   8.428970e+05
   4.425197e+05   1.486562e+06
  -4.904303e+05   1.135952e+06
  -1.025243e+06   5.507222e+04
  -7.061991e+05  -9.086686e+05
   1.480661e+05  -1.084891e+06
   7.464010e+05  -4.958673e+05
   6.259750e+05   2.866638e+05
   9.064203e+04   7.053406e+05
  -1.919397e+05   6.495133e+05
   2.841240e+04   4.137113e+05
   3.048555e+05   3.042556e+05
   2.668426e+04   3.194686e+05
  -8.211101e+05   2.108531e+05
  -1.515712e+06  -1.830902e+05
  -1.280859e+06  -7.117053e+05
  -1.245751e+05  -1.022705e+06
   1.070628e+06  -8.724951e+05
   1.372901e+06  -3.435280e+05
   7.089757e+05   1.962723e+05
  -1.254919e+05   3.665811e+05
  -3.523402e+05   1.067652e+05
   2.440792e+04  -2.239002e+05
   4.008499e+05  -1.773691e+05
   3.609927e+05   2.654214e+05
   7.770854e+04   6.019218e+05
  -4.105743e+04   3.840628e+05
   1.210024e+05  -1.666553e+05
   3.154688e+05  -3.457449e+05
   2.447824e+05   1.638803e+05
  -1.618511e+05   8.215953e+05
  -6.853436e+05   8.241803e+05
  -9.143613e+05   6.807290e+04
  -5.278873e+05  -7.127369e+05
   3.122591e+05  -7.779238e+05
   8.959781e+05  -1.547052e+05
   5.633652e+05   4.834059e+05
  -5.095774e+05   5.458843e+05
  -1.309583e+06   2.020244e+04
  -9.783408e+05  -6.308330e+05
   2.393881e+05  -8.948304e+05
   1.210491e+06  -5.831205e+05
   1.094218e+06   3.646745e+04
   1.808717e+05   4.351303e+05
  -4.936906e+05   2.841096e+05
  -2.653998e+05  -1.864938e+05
   5.165122e+05  -3.566108e+05
   9.231321e+05   1.473555e+05
   4.258494e+05   9.765588e+05
  -5.879725e+05   1.303542e+06
  -1.233724e+06   6.274678e+05
  -9.971030e+05  -6.402184e+05
  -1.580151e+05  -1.454874e+06
   5.820355e+05  -1.106937e+06
   7.647146e+05   5.289762e+04
   4.396427e+05   9.377261e+05
  -6.069238e+04   8.378366e+05
  -4.171581e+05   1.180933e+05
  -4.536173e+05  -3.161199e+05
  -2.173786e+05  -1.365324e+05
  -5.283010e+03   1.035624e+05
  -1.042023e+05  -1.739729e+05
  -3.704687e+05  -7.425875e+05
  -2.657641e+05  -8.812059e+05
   4.501348e+05  -3.424083e+05
   1.202027e+06   3.625230e+05
   1.129475e+06   6.591236e+05
   1.662695e+05   5.369343e+05
  -7.637878e+05   3.319445e+05
  -8.181573e+05   1.858735e+05
  -2.184085e+05   1.131504e+04
   1.476553e+05  -1.722185e+05
  -7.143666e+04  -2.145613e+05
  -3.169305e+05  -1.318680e+05
   1.820624e+02  -1.124299e+05
   6.396456e+05  -1.491763e+05
   8.211854e+05   3.965135e+04
   1.923913e+05   5.330383e+05
  -7.690560e+05   8.752383e+05
  -1.283590e+06   5.261193e+05
  -9.952896e+05  -4.025638e+05
  -1.768612e+05  -1.138162e+06
   5.846597e+05  -1.060697e+06
   8.340446e+05  -3.574197e+05
   5.361220e+05   2.432894e+05
   6.184506e+04   2.836485e+05
  -1.438830e+05  -7.865806e+03
   3.226377e+04  -8.230748e+04
   2.862694e+05   2.628609e+05
   2.362716e+05   6.436278e+05
  -1.645710e+05   5.185575e+05
  -5.611430e+05  -1.655721e+05
  -5.259336e+05  -8.249384e+05
   1.948669e+04  -8.098290e+05
   6.581189e+05  -1.010172e+05
   7.889781e+05   6.638281e+05
   2.101527e+05   8.627487e+05
  -5.852532e+05   4.655415e+05
  -8.423746e+05  -9.133013e+04
  -3.664618e+05  -4.243951e+05
   2.242141e+05  -4.521205e+05
   2.255831e+05  -2.710136e+05
  -2.817408e+05  -4.166780e+04
  -5.393739e+05   1.454132e+04
  -8.586688e+04  -2.289677e+05
   6.594910e+05  -5.486097e+05
   9.312873e+05  -4.893169e+05
   5.209287e+05   7.676442e+04
  -8.787553e+04   6.570309e+05
  -3.683173e+05   6.440047e+05
  -2.542591e+05   6.567329e+04
   4.752689e+03  -4.162178e+05
   2.083244e+05  -2.989847e+05
   2.837894e+05   1.943403e+05
   1.869555e+05   4.634264e+05
  -6.448003e+04   2.701009e+05
  -3.072369e+05  -7.102776e+04
  -3.502549e+05  -1.727344e+05
  -1.916989e+05  -3.054062e+04
  -1.167213e+04   5.989730e+04
   6.477755e+04  -8.832345e+04
   9.823730e+04  -3.296372e+05
   1.923418e+05  -3.531598e+05
   3.024138e+05  -3.302177e+04
   2.607090e+05   3.945631e+05
  -1.439827e+04   5.276146e+05
  -3.652866e+05   2.095601e+05
  -4.754133e+05  -2.772269e+05
  -1.586700e+05  -4.883447e+05
   3.832754e+05  -2.758702e+05
   6.560192e+05   1.004745e+05
   3.554916e+05   3.055971e+05
  -2.363509e+05   2.590975e+05
  -4.890646e+05   1.067769e+05
  -1.397282e+05   7.695140e+02
   3.587795e+05   9.699187e+03
   3.559825e+05   1.386371e+05
  -2.041523e+05   2.806354e+05
  -7.048492e+05   2.066258e+05
