
 $NMID
 id='ANONYMOUS ', fmtdat='(2E16.6)'
 volume=1.0
 tramp=1.0
 $END
  -4.571246e+07  -9.210000e+04
  -2.787884e+07  -2.672806e+07
   4.830940e+06  -3.026885e+07
   2.156081e+07  -1.340146e+07
   1.381978e+07   3.885383e+06
  -1.837369e+06   7.587629e+06
  -8.091196e+06   2.065816e+05
  -3.303247e+06  -7.629996e+06
   4.206169e+06  -8.618854e+06
   7.863166e+06  -2.554088e+06
   6.108401e+06   5.187439e+06
   8.141352e+05   7.581592e+06
  -3.532716e+06   2.218533e+06
  -2.593585e+06  -5.184412e+06
   2.825951e+06  -6.233942e+06
   6.617556e+06   5.954416e+05
   4.109060e+06   8.380326e+06
  -2.784545e+06   9.962358e+06
  -8.315790e+06   4.954204e+06
  -8.846729e+06  -1.899294e+06
  -5.020680e+06  -6.231059e+06
  -1.964402e+05  -6.624540e+06
   1.967637e+06  -4.333010e+06
   3.564896e+05  -2.285210e+06
  -1.827922e+06  -2.724086e+06
  -5.173116e+04  -4.461399e+06
   5.485882e+06  -3.949365e+06
   8.983229e+06  -7.811414e+04
   6.067435e+06   3.897831e+06
  -4.006306e+05   4.438828e+06
  -3.949306e+06   1.903322e+06
  -2.275743e+06  -7.469292e+05
   1.317681e+06  -1.585538e+06
   3.073098e+06  -4.470618e+05
   2.298401e+06   2.048487e+06
   1.806403e+05   4.098646e+06
  -1.872578e+06   3.150889e+06
  -2.380698e+06  -6.745972e+05
  -8.431070e+05  -3.130064e+06
   8.001658e+05  -9.259402e+05
   4.180639e+04   2.872238e+06
  -2.262474e+06   2.363082e+06
  -2.262631e+06  -2.495619e+06
   1.461530e+06  -5.025679e+06
   5.104097e+06  -9.603290e+05
   4.062987e+06   5.416745e+06
  -1.297715e+06   6.829974e+06
  -6.105427e+06   2.043225e+06
  -6.308660e+06  -3.640389e+06
  -2.128092e+06  -5.289097e+06
   2.920322e+06  -2.779045e+06
   4.983374e+06   8.864941e+05
   2.626977e+06   2.864895e+06
  -1.780391e+06   2.033134e+06
  -3.875264e+06  -5.209985e+05
  -1.837881e+06  -2.139853e+06
   1.378381e+06  -1.200618e+06
   1.724079e+06   7.943524e+05
  -7.197826e+05   1.038586e+06
  -2.089428e+06  -8.303234e+05
  -7.411320e+04  -2.373897e+06
   3.239127e+06  -1.689109e+06
   4.319069e+06   6.426902e+05
   2.137688e+06   3.079223e+06
  -1.630914e+06   4.634851e+06
  -4.747592e+06   4.356950e+06
  -5.654213e+06   1.414738e+06
  -3.906129e+06  -3.005729e+06
  -7.653537e+05  -5.593782e+06
   1.356969e+06  -4.427734e+06
   1.264125e+06  -1.547928e+06
   3.407156e+05  -3.469838e+05
   6.325125e+05  -1.187925e+06
   2.114448e+06  -1.477104e+06
   2.920523e+06   2.571031e+05
   1.880519e+06   2.339843e+06
  -2.579771e+05   2.375575e+06
  -1.894137e+06   2.004714e+05
  -1.865994e+06  -2.239404e+06
   4.256526e+04  -2.976175e+06
   2.740674e+06  -1.450413e+06
   4.083191e+06   1.320462e+06
   2.719082e+06   3.437330e+06
  -1.366116e+05   3.574415e+06
  -1.888530e+06   2.216142e+06
  -1.750997e+06   1.034325e+06
  -1.540364e+06   8.308667e+05
  -2.773049e+06   6.990391e+05
  -4.231027e+06  -5.077581e+05
  -3.507052e+06  -2.551353e+06
  -2.759496e+05  -4.074868e+06
   3.127119e+06  -3.959139e+06
   4.214835e+06  -2.091888e+06
   2.636536e+06   5.708621e+05
   1.095386e+05   2.322678e+06
  -1.239338e+06   1.876212e+06
  -5.509519e+05  -1.042557e+05
   1.122157e+06  -1.304865e+06
   1.836917e+06  -4.100653e+05
   8.354081e+05   1.154437e+06
  -5.596542e+05   1.143640e+06
  -5.715136e+05  -3.302570e+05
   7.936503e+05  -9.062116e+05
   1.801495e+06   7.345821e+05
   1.116791e+06   3.041726e+06
  -8.713062e+05   3.559726e+06
  -2.794242e+06   1.718681e+06
  -3.546336e+06  -9.642653e+05
  -2.704618e+06  -2.700135e+06
  -6.593766e+05  -2.749426e+06
   1.262517e+06  -1.533150e+06
   1.627813e+06  -2.299312e+05
   4.961959e+05   3.312911e+04
  -3.855232e+05  -7.375741e+05
   3.324018e+05  -1.291383e+06
   1.790724e+06  -6.107841e+05
   1.998151e+06   7.433862e+05
   4.649880e+05   1.326302e+06
  -1.126757e+06   6.339371e+05
  -9.833428e+05  -4.061841e+05
   7.557012e+05  -6.697119e+05
   2.281442e+06   7.445886e+04
   1.992834e+06   1.271998e+06
  -6.512045e+04   2.104944e+06
  -2.271916e+06   1.840671e+06
  -2.794353e+06   3.929927e+05
  -1.240289e+06  -1.189083e+06
   8.558373e+05  -1.450761e+06
   1.472362e+06  -2.010160e+05
   1.761671e+05   1.037616e+06
  -1.484877e+06   7.625049e+05
  -1.748850e+06  -6.894131e+05
  -4.673470e+05  -1.625969e+06
   9.859971e+05  -1.085224e+06
   1.280584e+06   1.709046e+05
   3.398139e+05   7.323084e+05
  -7.465704e+05   8.739736e+04
  -7.471261e+05  -1.025225e+06
   5.608337e+05  -1.435161e+06
   2.013377e+06  -5.743189e+05
   2.061277e+06   1.014075e+06
   4.417582e+05   2.059329e+06
  -1.367954e+06   1.685269e+06
  -1.709765e+06   2.911358e+05
  -5.609981e+05  -8.353527e+05
   6.164512e+05  -8.463031e+05
   6.831864e+05  -9.898992e+04
  -5.374053e+04   4.440375e+05
  -5.407134e+05   3.239259e+05
  -2.667528e+05  -6.162157e+04
   3.614383e+05  -4.305661e+04
   5.652617e+05   5.561471e+05
  -1.059493e+05   1.170492e+06
  -1.333614e+06   9.561251e+05
  -2.102286e+06  -3.410543e+05
  -1.525076e+06  -1.906622e+06
   1.453213e+05  -2.462584e+06
   1.585733e+06  -1.535439e+06
   1.761455e+06   1.726441e+04
   9.964366e+05   9.206226e+05
   3.934548e+05   7.873411e+05
   4.263067e+05   3.091932e+05
   5.438761e+05   2.780930e+05
   9.118565e+04   7.087000e+05
  -8.225798e+05   9.448292e+05
  -1.457922e+06   4.233023e+05
  -1.149254e+06  -7.006446e+05
   1.505260e+05  -1.546865e+06
   1.701536e+06  -1.189720e+06
   2.309035e+06   3.982747e+05
   1.248723e+06   2.059855e+06
  -8.773844e+05   2.397801e+06
  -2.470282e+06   1.157555e+06
  -2.412257e+06  -5.119806e+05
  -1.109394e+06  -1.299547e+06
   1.065380e+05  -1.040396e+06
   4.269131e+05  -6.204366e+05
   1.750616e+05  -7.710657e+05
   1.354237e+05  -1.258309e+06
   6.271851e+05  -1.261102e+06
   1.261015e+06  -3.353062e+05
   1.364661e+06   1.060752e+06
   6.084336e+05   1.901176e+06
  -5.958923e+05   1.470183e+06
  -1.302227e+06   5.193570e+04
  -8.720292e+05  -1.232622e+06
   2.976215e+05  -1.404333e+06
   1.084406e+06  -4.989489e+05
   8.133398e+05   5.782365e+05
  -3.133992e+04   1.019066e+06
  -4.264776e+05   8.019258e+05
  -3.117669e+04   4.521919e+05
   4.334733e+05   3.483258e+05
   6.216805e+04   3.946790e+05
  -1.119048e+06   2.521030e+05
  -2.043744e+06  -2.629086e+05
  -1.655844e+06  -9.672016e+05
  -5.178504e+04  -1.397728e+06
   1.508077e+06  -1.168095e+06
   1.809420e+06  -3.700879e+05
   8.635169e+05   3.976832e+05
  -2.233113e+05   5.426607e+05
  -4.904648e+05   7.552199e+04
  -1.362056e+04  -3.841194e+05
   4.648932e+05  -2.644823e+05
   4.874914e+05   3.341573e+05
   2.265039e+05   7.465510e+05
   6.197805e+04   4.930355e+05
   1.354863e+05  -1.369278e+05
   3.059095e+05  -3.555101e+05
   2.938375e+05   2.183544e+05
  -1.362330e+05   1.022136e+06
  -8.752961e+05   1.092546e+06
  -1.314850e+06   1.722245e+05
  -8.270037e+05  -9.108172e+05
   3.941700e+05  -1.114487e+06
   1.234203e+06  -3.220373e+05
   7.529122e+05   5.753108e+05
  -6.753690e+05   6.837207e+05
  -1.625614e+06  -1.776180e+04
  -1.107372e+06  -8.175873e+05
   4.031708e+05  -1.047494e+06
   1.502573e+06  -6.019580e+05
   1.291966e+06   1.113101e+05
   1.791180e+05   5.235840e+05
  -6.392064e+05   3.145861e+05
  -3.791396e+05  -2.736286e+05
   6.037634e+05  -5.270512e+05
   1.202724e+06   8.316084e+04
   6.756686e+05   1.203001e+06
  -6.008289e+05   1.734890e+06
  -1.508548e+06   9.150541e+05
  -1.298172e+06  -7.498153e+05
  -2.544012e+05  -1.825902e+06
   7.102876e+05  -1.361924e+06
   9.488734e+05   1.218001e+05
   5.030040e+05   1.189264e+06
  -1.528095e+05   1.006037e+06
  -5.547671e+05   1.161400e+05
  -5.136149e+05  -3.709472e+05
  -2.020997e+05  -1.386186e+05
  -3.346989e+04   1.054047e+05
  -2.471351e+05  -2.800226e+05
  -5.298918e+05  -9.620058e+05
  -2.632615e+05  -1.090950e+06
   6.734142e+05  -4.216244e+05
   1.520721e+06   4.285336e+05
   1.360453e+06   8.059858e+05
   2.118655e+05   6.972907e+05
  -8.841133e+05   4.550431e+05
  -1.004073e+06   2.280354e+05
  -3.418460e+05  -3.153903e+04
   1.526871e+05  -2.333924e+05
  -5.185247e+03  -2.187780e+05
  -3.100503e+05  -9.884626e+04
  -4.304547e+04  -1.388973e+05
   7.045435e+05  -2.551396e+05
   1.063476e+06  -8.238980e+03
   4.116753e+05   6.971715e+05
  -8.570312e+05   1.210636e+06
  -1.691191e+06   7.906264e+05
  -1.413500e+06  -4.248340e+05
  -3.099037e+05  -1.431103e+06
   7.344670e+05  -1.409666e+06
   1.056567e+06  -5.573528e+05
   6.823418e+05   2.330055e+05
   1.335527e+05   3.634387e+05
  -1.000463e+05   5.837887e+04
   6.739609e+04  -3.731880e+04
   3.281471e+05   3.529593e+05
   2.870615e+05   8.121431e+05
  -1.698810e+05   6.918564e+05
  -7.074612e+05  -1.204619e+05
  -7.687135e+05  -9.691073e+05
  -1.176368e+05  -1.051252e+06
   7.819718e+05  -2.534875e+05
   1.072700e+06   7.282214e+05
   3.698226e+05   1.101507e+06
  -7.147335e+05   6.929041e+05
  -1.129755e+06  -5.327142e+04
  -5.398137e+05  -5.936360e+05
   2.762502e+05  -6.748924e+05
   3.554943e+05  -3.745485e+05
  -2.773052e+05  -4.427317e+03
  -6.668342e+05   5.751037e+04
  -1.493235e+05  -3.068116e+05
   8.188863e+05  -7.186883e+05
   1.241207e+06  -5.989827e+05
   7.534958e+05   1.463040e+05
  -7.650020e+04   8.791822e+05
  -5.192213e+05   8.730896e+05
  -4.106681e+05   1.551483e+05
  -6.010023e+04  -4.984744e+05
   2.378195e+05  -4.396334e+05
   3.697003e+05   1.581053e+05
   2.733187e+05   5.815062e+05
  -5.107107e+04   4.202644e+05
  -4.009859e+05  -4.224458e+04
  -4.818563e+05  -2.596717e+05
  -2.459473e+05  -7.876798e+04
   2.533683e+04   1.395020e+05
   7.596807e+04   1.040641e+04
  -1.806596e+01  -3.796824e+05
   7.786533e+04  -5.517172e+05
   3.403846e+05  -2.010753e+05
   4.596852e+05   4.021003e+05
   1.469065e+05   6.676078e+05
  -4.182497e+05   3.263992e+05
  -6.762706e+05  -2.801911e+05
  -2.689087e+05  -5.863998e+05
   5.005912e+05  -3.832941e+05
   8.924538e+05   6.130520e+04
   4.940362e+05   3.718390e+05
  -2.910124e+05   4.028038e+05
  -6.439173e+05   2.335489e+05
  -2.410298e+05   1.897107e+04
   3.749333e+05  -7.204771e+04
   4.312174e+05   6.995255e+04
  -1.744694e+05   3.189711e+05
  -7.751018e+05   3.073074e+05
