
 $NMID
 id='ANONYMOUS ', fmtdat='(2E16.6)'
 volume=1.0
 tramp=1.0
 $END
  -5.208347e+07   1.858175e+05
  -3.192354e+07  -3.091842e+07
   5.717477e+06  -3.487843e+07
   2.493792e+07  -1.491576e+07
   1.577512e+07   5.051524e+06
  -2.358607e+06   8.729953e+06
  -9.284101e+06  -1.659577e+05
  -3.451579e+06  -8.878693e+06
   5.138647e+06  -9.538814e+06
   9.018414e+06  -2.611648e+06
   6.820049e+06   5.857130e+06
   8.644111e+05   8.428871e+06
  -3.902951e+06   2.528429e+06
  -2.748071e+06  -5.648856e+06
   3.352120e+06  -6.801897e+06
   7.505457e+06   8.417392e+05
   4.536411e+06   9.537621e+06
  -3.258010e+06   1.125405e+07
  -9.423213e+06   5.625000e+06
  -1.004621e+07  -2.034150e+06
  -5.875477e+06  -6.983267e+06
  -4.346208e+05  -7.661241e+06
   2.309099e+06  -5.201564e+06
   8.257968e+05  -2.678130e+06
  -1.665833e+06  -2.821532e+06
  -4.351223e+04  -4.673774e+06
   5.856563e+06  -4.290919e+06
   9.785194e+06  -1.588844e+05
   6.759821e+06   4.233755e+06
  -2.340465e+05   4.882798e+06
  -4.126655e+06   2.176742e+06
  -2.429527e+06  -5.810251e+05
   1.263379e+06  -1.436375e+06
   3.055078e+06  -3.984012e+05
   2.362665e+06   2.043598e+06
   2.893099e+05   4.303676e+06
  -1.967067e+06   3.558101e+06
  -2.753848e+06  -5.143325e+05
  -1.164778e+06  -3.445590e+06
   7.850729e+05  -1.277611e+06
   7.127637e+04   2.929324e+06
  -2.512561e+06   2.501512e+06
  -2.501939e+06  -2.890805e+06
   1.825673e+06  -5.763873e+06
   6.018261e+06  -1.123243e+06
   4.712742e+06   6.214101e+06
  -1.524002e+06   7.845408e+06
  -6.923763e+06   2.326212e+06
  -6.962825e+06  -4.162716e+06
  -2.189277e+06  -5.929601e+06
   3.328607e+06  -2.964445e+06
   5.456361e+06   1.175429e+06
   2.768918e+06   3.298366e+06
  -2.103929e+06   2.254092e+06
  -4.366899e+06  -6.713983e+05
  -2.022120e+06  -2.475459e+06
   1.576112e+06  -1.345872e+06
   1.860138e+06   9.375478e+05
  -9.683297e+05   1.114000e+06
  -2.411954e+06  -1.155616e+06
   7.023406e+04  -2.908690e+06
   3.881422e+06  -1.938475e+06
   4.962208e+06   8.747379e+05
   2.374504e+06   3.574268e+06
  -1.805070e+06   5.145062e+06
  -5.177561e+06   4.775580e+06
  -6.208089e+06   1.588607e+06
  -4.361033e+06  -3.259144e+06
  -8.524483e+05  -6.159067e+06
   1.627678e+06  -4.868143e+06
   1.545096e+06  -1.586558e+06
   3.639256e+05  -1.783129e+05
   5.127475e+05  -1.153668e+06
   2.107788e+06  -1.611990e+06
   3.057548e+06   1.693753e+05
   2.002953e+06   2.396328e+06
  -2.351021e+05   2.454464e+06
  -1.931274e+06   1.707806e+05
  -1.908507e+06  -2.386826e+06
   6.740065e+04  -3.174885e+06
   2.946184e+06  -1.587324e+06
   4.467532e+06   1.393173e+06
   3.049414e+06   3.772661e+06
  -1.077430e+05   4.016240e+06
  -2.126860e+06   2.532473e+06
  -2.024562e+06   1.156171e+06
  -1.759777e+06   8.515409e+05
  -3.049238e+06   6.652484e+05
  -4.587005e+06  -6.600704e+05
  -3.743279e+06  -2.843215e+06
  -2.099817e+05  -4.401965e+06
   3.428836e+06  -4.201006e+06
   4.531916e+06  -2.203056e+06
   2.817570e+06   5.948469e+05
   1.354000e+05   2.454553e+06
  -1.304083e+06   2.007354e+06
  -5.886980e+05  -9.542337e+04
   1.207767e+06  -1.386867e+06
   1.997941e+06  -4.224329e+05
   9.144606e+05   1.256649e+06
  -6.018513e+05   1.209666e+06
  -5.703381e+05  -3.891719e+05
   9.606605e+05  -9.206879e+05
   1.983914e+06   9.729386e+05
   1.054793e+06   3.449015e+06
  -1.206292e+06   3.820996e+06
  -3.171015e+06   1.654598e+06
  -3.760342e+06  -1.240791e+06
  -2.745894e+06  -2.981092e+06
  -6.026564e+05  -2.932409e+06
   1.371722e+06  -1.609306e+06
   1.735614e+06  -2.246648e+05
   5.327777e+05   4.520975e+04
  -3.984635e+05  -8.029933e+05
   3.927304e+05  -1.405159e+06
   1.969242e+06  -6.354739e+05
   2.160751e+06   8.627536e+05
   4.672155e+05   1.464157e+06
  -1.236022e+06   6.520614e+05
  -1.025124e+06  -4.699758e+05
   8.612289e+05  -6.698821e+05
   2.437234e+06   1.925696e+05
   2.053682e+06   1.435657e+06
  -1.629260e+05   2.232182e+06
  -2.487801e+06   1.895525e+06
  -3.009736e+06   3.517505e+05
  -1.318731e+06  -1.317445e+06
   9.513310e+05  -1.571267e+06
   1.613383e+06  -2.038166e+05
   1.898156e+05   1.128456e+06
  -1.616031e+06   7.976290e+05
  -1.869440e+06  -7.921405e+05
  -4.445667e+05  -1.771388e+06
   1.114410e+06  -1.128628e+06
   1.377817e+06   2.453683e+05
   3.303830e+05   8.138409e+05
  -8.218689e+05   7.860527e+04
  -7.902192e+05  -1.120129e+06
   6.243449e+05  -1.533891e+06
   2.171032e+06  -5.847455e+05
   2.199402e+06   1.125972e+06
   4.351624e+05   2.228198e+06
  -1.515696e+06   1.789031e+06
  -1.853238e+06   2.696037e+05
  -5.776681e+05  -9.194040e+05
   6.887057e+05  -8.921966e+05
   7.202714e+05  -8.813185e+04
  -9.089557e+04   4.533752e+05
  -5.771736e+05   2.994867e+05
  -2.378026e+05  -8.186036e+04
   4.277868e+05  -8.791186e+03
   5.948292e+05   6.469480e+05
  -1.593164e+05   1.270829e+06
  -1.465398e+06   9.968910e+05
  -2.255340e+06  -4.153887e+05
  -1.602122e+06  -2.083138e+06
   2.093012e+05  -2.637672e+06
   1.740364e+06  -1.595130e+06
   1.878011e+06   7.926337e+04
   1.013354e+06   1.003073e+06
   3.788710e+05   8.113602e+05
   4.651539e+05   3.031315e+05
   6.122334e+05   3.104163e+05
   9.442355e+04   7.819134e+05
  -9.164225e+05   9.964679e+05
  -1.576761e+06   4.050720e+05
  -1.196104e+06  -7.811920e+05
   2.191563e+05  -1.639896e+06
   1.858281e+06  -1.222640e+06
   2.464128e+06   4.864432e+05
   1.284707e+06   2.250192e+06
  -1.015913e+06   2.567757e+06
  -2.702104e+06   1.181201e+06
  -2.578547e+06  -6.304162e+05
  -1.130070e+06  -1.433827e+06
   1.664994e+05  -1.092937e+06
   4.612451e+05  -6.223064e+05
   1.648268e+05  -8.136702e+05
   1.439777e+05  -1.365457e+06
   6.998400e+05  -1.361974e+06
   1.371508e+06  -3.443593e+05
   1.448577e+06   1.163087e+06
   6.165915e+05   2.051809e+06
  -6.669532e+05   1.565207e+06
  -1.398902e+06   2.268622e+04
  -9.081838e+05  -1.356098e+06
   3.668739e+05  -1.510987e+06
   1.204860e+06  -4.991723e+05
   8.766978e+05   6.710740e+05
  -7.142926e+04   1.121618e+06
  -5.060238e+05   8.592387e+05
  -5.932471e+04   4.774937e+05
   4.616630e+05   3.747079e+05
   6.118930e+04   4.213993e+05
  -1.219356e+06   2.473538e+05
  -2.206820e+06  -3.261003e+05
  -1.762423e+06  -1.083721e+06
  -1.320909e+04  -1.522909e+06
   1.663494e+06  -1.237324e+06
   1.963886e+06  -3.493492e+05
   9.213409e+05   4.720698e+05
  -2.567411e+05   5.933499e+05
  -5.387672e+05   6.327045e+04
  -1.970902e+04  -4.250999e+05
   4.952333e+05  -2.763987e+05
   5.197480e+05   3.671634e+05
   2.445767e+05   7.945699e+05
   7.331742e+04   5.232356e+05
   1.510025e+05  -1.309516e+05
   3.276312e+05  -3.544705e+05
   3.081976e+05   2.443813e+05
  -1.608498e+05   1.085513e+06
  -9.622627e+05   1.158908e+06
  -1.432563e+06   1.777732e+05
  -8.906712e+05  -9.864443e+05
   4.396866e+05  -1.205853e+06
   1.337809e+06  -3.430561e+05
   7.975821e+05   6.259292e+05
  -7.452693e+05   7.183338e+05
  -1.740525e+06  -6.588205e+04
  -1.149082e+06  -9.145121e+05
   4.782704e+05  -1.107377e+06
   1.629818e+06  -5.869596e+05
   1.372454e+06   1.662067e+05
   1.701085e+05   5.646770e+05
  -6.978589e+05   3.161567e+05
  -4.092211e+05  -3.050994e+05
   6.466228e+05  -5.591572e+05
   1.285614e+06   9.883965e+04
   7.153122e+05   1.290901e+06
  -6.563089e+05   1.849361e+06
  -1.622021e+06   9.611914e+05
  -1.375848e+06  -8.221287e+05
  -2.376734e+05  -1.957339e+06
   7.918454e+05  -1.435622e+06
   1.015228e+06   1.626978e+05
   5.031620e+05   1.290815e+06
  -2.031240e+05   1.071535e+06
  -6.039716e+05   1.079668e+05
  -5.303572e+05  -4.093295e+05
  -1.995006e+05  -1.529440e+05
  -4.422281e+04   1.100228e+05
  -2.805101e+05  -3.074873e+05
  -5.566441e+05  -1.042926e+06
  -2.436363e+05  -1.176762e+06
   7.488062e+05  -4.414926e+05
   1.618117e+06   4.901635e+05
   1.426925e+06   8.961310e+05
   2.122764e+05   7.552650e+05
  -9.431515e+05   4.670921e+05
  -1.077350e+06   2.177240e+05
  -3.791901e+05  -4.454859e+04
   1.626207e+05  -2.467419e+05
   1.645411e+04  -2.322775e+05
  -3.110801e+05  -1.088837e+05
  -4.930723e+04  -1.464778e+05
   7.403334e+05  -2.602274e+05
   1.140053e+06   5.285027e+03
   4.529506e+05   7.490846e+05
  -9.217488e+05   1.286034e+06
  -1.833454e+06   8.322291e+05
  -1.523854e+06  -4.646810e+05
  -3.116756e+05  -1.534175e+06
   8.149959e+05  -1.504278e+06
   1.138816e+06  -5.892693e+05
   7.214942e+05   2.538545e+05
   1.435328e+05   3.896946e+05
  -9.111151e+04   6.532348e+04
   8.188581e+04  -2.974228e+04
   3.395084e+05   3.916214e+05
   2.865984e+05   8.777488e+05
  -1.898482e+05   7.405537e+05
  -7.489866e+05  -1.319386e+05
  -8.124290e+05  -1.038018e+06
  -1.257206e+05  -1.124088e+06
   8.276036e+05  -2.697550e+05
   1.136998e+06   7.830722e+05
   3.877219e+05   1.183957e+06
  -7.713055e+05   7.406697e+05
  -1.215685e+06  -6.943954e+04
  -5.805591e+05  -6.527892e+05
   3.038554e+05  -7.326417e+05
   3.987270e+05  -4.028283e+05
  -2.815106e+05  -8.964972e+03
  -7.111439e+05   5.111438e+04
  -1.604786e+05  -3.323532e+05
   8.905287e+05  -7.540916e+05
   1.355823e+06  -6.142124e+05
   8.225274e+05   1.757288e+05
  -9.381625e+04   9.458471e+05
  -5.814129e+05   9.366186e+05
  -4.529801e+05   1.741140e+05
  -6.126637e+04  -5.268732e+05
   2.570254e+05  -4.736464e+05
   3.883506e+05   1.636142e+05
   2.848558e+05   6.265207e+05
  -5.443245e+04   4.596050e+05
  -4.275375e+05  -4.632995e+04
  -5.193574e+05  -2.934412e+05
  -2.651053e+05  -9.625455e+04
   3.452033e+04   1.574143e+05
   8.857349e+04   3.253944e+04
  -8.137487e+03  -3.926619e+05
   6.319138e+04  -5.948353e+05
   3.520915e+05  -2.297839e+05
   4.971924e+05   4.176743e+05
   1.678471e+05   7.078886e+05
  -4.449421e+05   3.467699e+05
  -7.253809e+05  -3.000221e+05
  -2.831099e+05  -6.253562e+05
   5.457615e+05  -4.056337e+05
   9.606144e+05   7.201247e+04
   5.268509e+05   4.048179e+05
  -3.149908e+05   4.362278e+05
  -6.929485e+05   2.525236e+05
  -2.677165e+05   2.196198e+04
   3.853825e+05  -7.632783e+04
   4.503918e+05   6.975550e+04
  -1.837433e+05   3.264301e+05
  -8.165862e+05   3.105747e+05
