
 $NMID
 id='ANONYMOUS ', fmtdat='(2E16.6)'
 volume=1.0
 tramp=1.0
 $END
   3.417364e+03   1.141115e+01
   2.092373e+03   1.983181e+03
  -7.253120e+02   2.311677e+03
  -1.651304e+03   9.307830e+02
  -8.630515e+02  -3.558331e+02
   5.204587e+02  -2.591101e+02
   6.169157e+02   3.869143e+02
  -2.620140e+01   9.193809e+02
  -6.607440e+02   6.966099e+02
  -8.144131e+02   3.189952e+01
  -4.155192e+02  -6.015600e+02
   1.349807e+02  -7.642825e+02
   4.314788e+02  -1.449282e+02
   3.333283e+02   4.758799e+02
  -2.689273e+02   6.369199e+02
  -4.300539e+02   1.818322e+01
  -3.047431e+02  -5.224313e+02
   2.607261e+02  -5.068781e+02
   5.291479e+02  -9.937764e+01
   4.104464e+02   2.560028e+02
   2.136169e+01   3.765925e+02
  -2.071086e+02   2.594669e+02
  -1.457484e+02   5.132200e+01
   1.730549e+02   2.326397e+00
   3.695346e+02   1.756052e+02
   1.417831e+02   3.644439e+02
  -5.013692e+02   3.283579e+02
  -7.022466e+02  -1.602415e+02
  -3.212256e+02  -4.046447e+02
   3.187354e+02  -3.297558e+02
   6.258874e+02  -1.836725e+01
   2.049191e+02   4.697349e+02
  -2.719000e+02   4.383044e+02
  -4.657958e+02   1.503117e+02
  -3.659445e+02  -2.216346e+02
  -7.838548e+01  -4.333011e+02
   1.137794e+02  -2.088209e+02
   4.858037e+01   9.611667e+01
  -1.092625e+02   3.291145e+02
  -3.453499e+02  -8.551768e+01
  -5.450460e+01  -5.768188e+02
   2.690938e+02  -5.200835e+02
   5.006934e+02   9.633787e+01
   1.929235e+02   4.726209e+02
  -2.584077e+02   2.661335e+02
  -2.866860e+02  -3.093246e+02
   1.487940e+02  -4.424812e+02
   5.052177e+02  -7.991296e+01
   5.677503e+02   3.819596e+02
   1.608712e+02   5.228745e+02
  -3.201195e+02   2.418347e+02
  -5.732141e+02  -1.131100e+02
  -3.166799e+02  -3.614751e+02
   7.473532e+01  -2.631041e+02
   3.607711e+02  -4.370228e+01
   1.971604e+02   1.106948e+02
  -8.131139e+01   7.491732e+01
  -1.260833e+02  -8.432654e+01
   1.660091e+02  -1.644954e+02
   3.056055e+02   4.911685e+01
   1.251624e+02   2.212794e+02
  -1.861116e+02   2.300685e+02
  -3.294270e+02   8.177230e+01
  -2.211507e+02  -5.402561e+01
   6.278636e+00  -2.612004e+02
   2.904407e+02  -3.021787e+02
   3.304488e+02  -1.906153e+02
   2.835862e+02   1.289772e+02
   1.034986e+02   3.776291e+02
  -8.450987e+01   3.626210e+02
  -9.936784e+01   1.033552e+02
   2.735021e+01   4.438896e+01
  -7.256433e+01   6.461924e+01
  -2.403137e+02   1.168778e+02
  -2.094567e+02  -7.458398e+01
  -1.070706e+02  -2.601791e+02
   4.534754e+01  -1.800591e+02
   1.995792e+02   2.784728e+01
   1.519058e+02   2.118361e+02
  -1.642322e+01   3.221479e+02
  -2.528817e+02   8.717039e+01
  -3.243711e+02  -2.086159e+02
  -1.601722e+02  -3.785131e+02
   1.196015e+02  -2.690080e+02
   2.032883e+02  -9.193359e+01
   1.269948e+02  -2.675663e+01
   9.314007e+01  -2.487409e+01
   1.986879e+02  -4.099902e+01
   3.770534e+02   3.074407e+01
   2.855339e+02   2.887920e+02
  -2.966852e+01   4.046442e+02
  -3.309968e+02   3.311625e+02
  -4.561334e+02   1.601927e+02
  -2.780596e+02  -9.521756e+01
  -7.611257e+01  -2.329479e+02
   1.400231e+02  -2.536555e+02
   8.564723e+01  -7.754733e+00
  -1.101112e+02   7.603962e+01
  -1.493570e+02   1.521387e+01
  -4.132372e+01  -1.451201e+02
   9.909794e+01  -1.347050e+02
   1.656206e+02   4.673540e+01
   2.438058e+01   1.470652e+02
  -1.229357e+02   5.326732e+00
  -1.276847e+02  -2.405927e+02
   1.213328e+01  -3.216695e+02
   2.140784e+02  -1.930897e+02
   3.205969e+02   9.259858e+01
   2.492137e+02   2.541142e+02
   9.117759e+01   1.967188e+02
  -1.006794e+02   1.614476e+02
  -1.212051e+02  -1.197191e+01
  -1.651927e+01  -6.035216e+01
   4.839311e+01   7.554189e+01
   1.832443e+01   6.822613e+01
  -1.074303e+02   7.026653e+01
  -1.642776e+02  -1.186008e+01
  -5.575575e+01  -5.743009e+01
   1.008117e+02   4.247173e+01
   4.950722e+01   6.548075e+01
  -1.446035e+02   1.286701e+02
  -2.692795e+02  -3.596326e+00
  -2.115749e+02  -1.456894e+02
  -5.227359e+01  -2.553552e+02
   1.856645e+02  -2.100761e+02
   2.522865e+02  -1.026617e+02
   1.544052e+02   1.832320e+01
  -2.413298e+01   1.000672e+02
  -1.201139e+02  -1.623423e+00
   7.757748e+01  -7.454507e+01
   2.187090e+02  -6.745705e+01
   1.606720e+02   8.658159e+01
   1.809682e+01   1.941944e+02
  -9.497737e+01   1.644913e+02
  -1.594415e+02   2.957595e+01
  -5.659165e+01  -1.308060e+01
  -2.288418e+00  -2.801915e+01
  -1.159430e+01   8.727532e+01
  -5.962419e+01   1.149587e+02
  -2.046411e+02   1.409483e+01
  -1.820503e+02  -1.264578e+02
  -1.656608e+01  -2.014071e+02
   1.246120e+02  -1.195048e+02
   1.596823e+02   4.285826e+00
   4.792600e+01   1.035058e+02
  -5.206712e+01   9.934030e+01
  -9.038317e+01   5.079432e-01
  -2.878719e+01  -5.592406e+00
   3.774931e+00  -2.723619e+01
  -2.428133e+01   2.110957e+01
  -3.680096e+01   4.337696e+00
  -1.160267e+02  -6.083105e+01
  -2.792077e+01  -1.682390e+02
   1.074533e+02  -1.339765e+02
   2.066379e+02   6.069520e+00
   2.024345e+02   1.353130e+02
   4.445693e+01   2.165360e+02
  -1.102882e+02   1.401270e+02
  -1.242805e+02   5.124439e+01
  -8.240180e+01  -4.212899e+01
  -4.614016e+01  -1.637989e+01
  -4.834813e+01   1.162321e+01
  -7.728897e+01   1.893730e+01
  -2.999815e+00  -5.754885e+01
   2.641408e+01  -8.908061e+01
   8.679085e+01  -6.548020e+01
   1.071887e+02   5.450052e+01
   1.663826e+01   7.212173e+01
  -1.975988e+02   6.484547e+01
  -2.238916e+02  -3.388356e+01
  -9.041927e+01  -1.831309e+02
   6.859797e+01  -2.127451e+02
   2.826540e+02  -3.949928e+01
   2.334586e+02   5.901630e+01
   1.234722e+02   1.299414e+02
  -4.747188e+01   1.260184e+02
  -1.070579e+02   8.391911e+01
  -5.784665e+01   7.872482e+01
  -5.617827e+01   1.116109e+02
  -5.581848e+01   7.229283e+01
  -1.055872e+02  -2.888925e+00
  -1.190592e+02  -1.366524e+02
  -4.327561e+01  -2.030637e+02
   1.112502e+02  -1.581186e+02
   1.701629e+02  -1.018757e+01
   1.292741e+02   8.608107e+01
   5.799475e+00   1.355080e+02
  -5.798158e+01   8.960928e+01
  -3.524754e+01  -2.722243e+01
   4.271283e+00  -5.968951e+01
   1.189152e+01  -2.999860e+01
  -2.712114e+01  -1.807336e+01
  -5.707321e+01  -1.699852e+01
  -7.071578e+01  -2.717978e+01
   5.736632e+01  -4.348419e+01
   1.394375e+02  -5.790956e+01
   9.762243e+01   3.223428e+01
  -9.506672e+00   1.003921e+02
  -1.250554e+02   5.597691e+01
  -1.325332e+02   1.374353e+01
  -2.459432e+01  -8.521795e+01
   1.010759e+02  -1.443048e+01
   5.056656e+01   2.085285e+01
  -5.076842e+00   3.688553e+01
  -4.830659e+01   6.141371e+01
  -8.605026e+01  -1.831848e+00
  -6.639422e+01  -6.249884e+01
  -2.737754e+01  -6.400908e+01
  -6.768418e+01  -4.302791e+01
  -4.375030e+01   9.754361e-01
  -2.413876e+00  -8.563218e+01
   5.811034e+01  -1.406050e+02
   1.435638e+02  -1.026525e+02
   1.263264e+02  -2.226603e+01
   1.577277e+02   6.067582e+01
  -1.132498e+01   1.184758e+02
  -1.419433e+02   4.062411e+01
  -2.584340e+01  -3.186347e+01
   4.723629e+01  -4.843279e+01
   1.351597e+02   5.809943e+01
   5.641769e+01   7.158723e+01
  -7.015584e+01   1.111223e+02
  -1.725480e+02   3.577358e+01
  -1.649651e+02  -4.571526e+01
  -5.318035e+01  -9.329933e+01
   3.293741e+01  -6.087434e+01
   3.650573e+01   6.099917e+00
  -1.572766e+01   3.883744e+01
  -9.244820e+01  -4.051925e+01
  -3.054907e+01  -9.632351e+01
   8.298647e+01  -8.399823e+01
   1.642735e+02  -6.957986e+01
   1.011430e+02   8.926382e+01
   2.229306e+01   1.926750e+02
  -7.596577e+01   1.355731e+02
  -9.705985e+01  -1.639625e+01
  -7.207341e+01  -1.243511e+02
  -3.021398e+00  -1.038773e+02
   4.031961e+01  -3.395348e+00
   5.122702e+01  -1.222797e+01
   3.732886e+01   2.797705e-01
   3.726573e+01  -5.843738e+01
   4.347874e+01  -5.974046e+00
   4.599433e+01   7.495736e+01
   5.491594e+01   1.127673e+02
  -4.224757e+01   4.776528e+01
  -1.256173e+02  -6.000703e+01
  -1.500717e+02  -7.300358e+01
  -4.838471e+01  -4.322532e+01
   3.347151e+01  -2.600223e+01
   8.117230e+01  -2.683878e+01
   3.471777e+00   1.658961e+01
  -4.923375e+01   2.475891e+01
  -1.168084e+01   2.494676e+01
   4.060877e+01   1.254007e+01
  -4.247506e+01   2.722284e+01
  -6.589180e+01  -3.204035e+01
  -7.379018e+01  -3.910524e+01
  -1.511009e+01  -5.000016e+01
   1.167686e+02  -1.085809e+02
   1.747035e+02  -6.937587e+01
   1.229187e+02   5.557113e+01
   3.804195e+01   1.540384e+02
  -7.760411e+01   1.520813e+02
  -7.101012e+01   7.902658e+01
  -3.600818e+01  -2.468233e+01
  -3.860171e+01  -3.291567e+01
  -2.522087e+01  -3.891040e+00
  -1.332070e+01  -9.203020e+00
  -2.928141e+01  -3.808193e+01
  -6.940872e+00  -8.376901e+01
   1.906776e+01  -9.114589e+01
   8.654038e+01   3.800505e+01
   4.793587e+01   9.719098e+01
  -3.720866e+01   8.243808e+01
  -1.061316e+02   5.041427e+01
  -6.394157e+01  -2.724436e+01
  -3.470964e+01  -9.134129e+01
   4.669250e+01  -5.363289e+01
   5.720605e+01   1.856652e+01
   4.248928e+01   8.060611e+01
  -3.603726e+01   1.831418e+01
  -4.133346e+01   1.569082e+01
   4.183491e+00   1.556186e+01
   5.816993e+01   2.585405e+01
  -1.565462e+01  -1.588043e+00
  -7.131592e+01   7.179602e+01
  -1.757437e+02   1.531182e+01
  -5.883730e+01  -3.144658e+01
   1.479488e+01  -8.958903e+01
   4.285057e+01  -7.132025e+01
   1.091825e+01   5.891009e+00
  -2.122736e+01   5.645786e+01
  -1.589947e+01   1.590821e+01
  -2.886712e+01  -1.179516e+01
   2.830630e+01  -5.995580e+01
   1.468636e+00  -5.264732e+01
   2.067392e+01   3.219099e+01
   2.319410e+01   1.462091e+01
  -9.961954e-01   1.727488e+00
  -1.402326e+00  -8.934573e+00
   3.077236e+01  -3.575305e+00
   2.120574e+01   3.238843e+01
  -4.558158e+01   6.519857e+01
  -5.816048e+01  -1.625116e+01
  -4.103082e+01  -3.645793e-01
  -4.148343e+00  -7.417898e+01
   4.875993e+01   2.072615e+01
   3.470592e+01   5.433812e+01
   1.173446e+01   2.623397e+01
  -4.629877e+01   6.581902e+00
  -8.635223e+01  -1.628164e+01
  -4.578781e+01  -2.261494e+01
   8.873942e+00  -7.276565e+01
   5.817697e+01  -2.701249e+01
   3.806270e+01   6.386307e+01
  -2.899613e+01  -2.243850e+01
  -4.393028e+01   3.892829e+01
  -6.568648e+00  -4.632754e+01
   8.754822e+01  -2.811898e+01
