
 $NMID
 id='ANONYMOUS ', fmtdat='(2E16.6)'
 volume=1.0
 tramp=1.0
 $END
  -3.529105e+03  -1.155243e+02
  -2.306783e+03  -1.910845e+03
   4.265331e+02  -2.199983e+03
   1.411271e+03  -1.217456e+03
   7.786907e+02  -2.910562e+01
  -2.821262e+02   1.565187e+02
  -5.009851e+02  -1.842496e+02
  -3.130837e+01  -6.060265e+02
   4.881344e+02  -6.925049e+02
   6.911531e+02  -5.599237e+01
   5.075693e+02   6.370994e+02
  -1.309849e+02   6.981682e+02
  -3.967292e+02   1.718419e+02
  -3.179761e+02  -4.821661e+02
   2.241082e+02  -5.389713e+02
   4.821698e+02  -7.856423e+01
   3.432342e+02   5.439639e+02
  -2.118293e+02   6.176041e+02
  -4.796685e+02   1.905672e+02
  -4.310014e+02  -2.593937e+02
  -7.864458e+01  -3.298526e+02
   1.676337e+02  -3.011252e+02
   1.267421e+02  -9.687200e+00
  -1.949112e+02  -2.120278e+01
  -3.467704e+02  -2.141564e+02
  -2.065129e+01  -3.849210e+02
   5.641652e+02  -2.511271e+02
   6.717122e+02   2.669395e+02
   3.048443e+02   4.901786e+02
  -3.843487e+02   3.155968e+02
  -5.545114e+02  -6.558767e+01
  -2.673171e+02  -4.569560e+02
   2.581644e+02  -3.739344e+02
   4.920095e+02  -1.239962e+02
   3.828582e+02   1.797115e+02
   7.427666e+01   3.884238e+02
  -9.896002e+01   1.537134e+02
  -4.918581e+01  -1.730556e+02
   1.826579e+02  -2.408018e+02
   3.562426e+02   1.186966e+02
   8.298364e+01   5.502612e+02
  -2.562489e+02   4.997868e+02
  -4.138318e+02  -8.794476e+01
  -1.635279e+02  -4.088084e+02
   2.497251e+02  -2.319237e+02
   2.788279e+02   3.179843e+02
  -1.283108e+02   3.957702e+02
  -4.753940e+02   6.560094e+01
  -5.508413e+02  -3.743104e+02
  -1.745417e+02  -5.125533e+02
   3.384565e+02  -2.545146e+02
   5.270540e+02   5.543217e+01
   3.043736e+02   3.190873e+02
  -9.718818e+01   2.873467e+02
  -3.552589e+02   3.173052e+01
  -2.284944e+02  -7.297143e+01
   8.458905e+01  -2.791455e+01
   7.786995e+01   1.215980e+02
  -1.180450e+02   9.411837e+01
  -2.873016e+02  -5.224605e+01
  -1.133522e+02  -2.682154e+02
   1.443902e+02  -2.742164e+02
   3.399500e+02  -1.373494e+02
   2.217383e+02   8.161536e+01
  -2.987761e+01   2.952560e+02
  -3.104834e+02   3.544267e+02
  -3.526199e+02   1.861860e+02
  -2.992746e+02  -1.715197e+02
  -8.032736e+01  -3.564130e+02
   5.167402e+01  -3.253612e+02
   1.869869e+01  -1.380837e+02
  -1.139970e+00  -6.025648e+01
   8.152822e+01  -1.291371e+02
   2.023265e+02  -1.245571e+02
   2.354610e+02   3.681505e+01
   1.298509e+02   2.626512e+02
  -9.266534e+01   2.328947e+02
  -1.810116e+02  -1.441285e+01
  -1.466868e+02  -2.289237e+02
   7.599405e+00  -2.564230e+02
   2.791782e+02  -8.472246e+01
   3.288076e+02   1.566768e+02
   1.396036e+02   2.959904e+02
  -1.058533e+02   2.970072e+02
  -1.416133e+02   1.056151e+02
  -1.436771e+02   2.483591e+01
  -1.391046e+02   7.143033e+01
  -2.598296e+02   4.018120e+01
  -3.867729e+02  -2.145094e+01
  -2.986752e+02  -2.692017e+02
   2.618431e+01  -4.196819e+02
   3.583499e+02  -3.529534e+02
   5.217899e+02  -1.817805e+02
   3.257752e+02   3.899472e+01
   2.874659e+01   2.701853e+02
  -6.530761e+01   2.115774e+02
  -5.162198e+01   4.350948e+01
   1.226349e+02  -1.898390e+01
   1.511218e+02   2.655301e+01
   2.181899e+01   1.679217e+02
  -1.243497e+02   8.803721e+01
  -1.112134e+02  -2.889004e+01
   7.695483e+01  -1.668018e+02
   1.492920e+02   1.389919e+01
   1.311092e+02   2.421288e+02
   7.609618e+00   3.214710e+02
  -2.363935e+02   1.779764e+02
  -3.246038e+02  -5.608284e+01
  -3.081391e+02  -2.196229e+02
  -8.823315e+01  -2.563787e+02
   1.349717e+02  -1.996581e+02
   1.614017e+02   1.585356e+01
   6.503854e+01   3.298907e+01
  -6.075184e+01  -4.236260e+01
   1.938203e+01  -1.123436e+02
   1.389043e+02  -8.336778e+01
   1.476839e+02   4.596206e+00
   3.975656e+01   6.594349e+01
  -1.073053e+02   3.878233e+01
  -6.522285e+01  -1.007898e+02
   1.463743e+02  -8.398760e+01
   2.895139e+02   2.947155e+01
   2.648374e+02   1.139191e+02
   3.149866e+01   2.878182e+02
  -1.743874e+02   2.354721e+02
  -2.779809e+02   7.843965e+01
  -1.474815e+02  -7.674470e+00
   6.658318e+01  -8.673096e+01
   6.092326e+01   4.595011e+01
  -3.375521e+01   9.254526e+01
  -1.739226e+02   4.017104e+01
  -2.074437e+02  -7.913308e+01
  -4.457237e+01  -2.062140e+02
   5.060658e+01  -1.278961e+02
   1.282042e+02  -3.004273e+01
   9.623345e+01   7.846086e+01
  -2.150228e+00  -6.409327e+01
  -7.856370e+00  -1.064434e+02
   7.336715e+01  -1.347132e+02
   2.129090e+02  -2.412993e+01
   1.788102e+02   1.203745e+02
   3.080358e+01   2.459327e+02
  -1.561241e+02   1.360450e+02
  -1.887607e+02   1.683346e+01
  -7.879560e+01  -1.012144e+02
   4.973155e+01  -8.859610e+01
   6.304677e+01  -1.928292e+01
  -3.725623e+00   1.420933e+00
   1.184729e+01   4.333765e+01
  -2.080760e+00  -1.185126e+01
   7.424109e+01  -2.464192e+01
   7.880131e+01   7.712615e+01
   6.483019e+00   1.710348e+02
  -1.574470e+02   1.408144e+02
  -2.008976e+02   6.636333e+00
  -1.950472e+02  -1.516988e+02
  -7.205123e+01  -2.107842e+02
   7.841895e+01  -1.836337e+02
   1.028220e+02  -5.977188e+01
   8.532813e+01   7.348681e+01
   3.958018e+00   4.023150e+01
   1.000482e+02   9.216517e+00
   8.571541e+01   3.259438e+00
   3.352708e+01   3.552292e+01
   1.078926e+01   9.562052e+01
  -1.339529e+02   6.629332e+01
  -1.089220e+02  -4.491943e+01
   2.499892e+01  -1.498823e+02
   1.349196e+02  -9.001695e+01
   2.000594e+02   1.071289e+02
   9.521509e+01   1.995136e+02
  -1.151473e+02   2.236962e+02
  -2.738250e+02   7.048778e+01
  -2.377726e+02  -5.755902e+01
  -1.163802e+02  -1.593209e+02
   4.488419e+01  -1.182962e+02
   1.031140e+02  -8.075945e+01
   4.659480e+01  -2.068911e+01
   4.592825e+01  -9.592315e+01
   8.930736e+01  -9.155369e+01
   1.229860e+02   1.139609e+01
   1.036877e+02   1.290981e+02
   4.830522e+01   2.246978e+02
  -1.175338e+02   1.694915e+02
  -1.282551e+02   2.576707e+01
  -1.461968e+02  -1.454029e+02
  -2.897713e+00  -1.644288e+02
   5.938675e+01  -1.054985e+02
   9.768252e+01   5.392139e+00
   4.726603e+00   1.726364e+01
  -4.603306e+01   3.255711e+01
   3.976908e+01   3.009430e+01
   7.274378e+01   2.673807e+01
   5.145574e+01   2.063725e+01
  -1.167465e+02   5.317821e+01
  -1.448380e+02   3.467908e+01
  -1.545459e+02  -4.484135e+01
  -2.354985e+01  -1.152790e+02
   1.242076e+02  -7.007583e+01
   1.279544e+02  -4.169682e+01
  -2.193101e+00   2.498814e+01
  -2.246529e+01   5.864814e+01
  -8.983552e+01  -1.932656e+01
  -1.873638e+01  -1.019913e+02
  -1.088068e+01  -8.121461e+01
   6.680056e+01   1.755273e+01
   4.230260e+01   6.137330e+01
   4.835221e+01   5.184333e+01
   6.192654e+01   7.753083e+00
   7.129606e+01  -1.067250e+01
   3.304930e+01   7.288666e+01
  -8.924872e+00   1.365923e+02
  -7.810365e+01   1.200641e+02
  -1.734545e+02   5.845121e+00
  -1.516732e+02  -1.307715e+02
  -1.682374e+01  -1.241884e+02
   6.072988e+01  -7.256693e+01
   5.521836e+01  -3.036952e+00
  -5.040919e+01   3.060951e+01
  -1.083336e+02  -6.675046e+01
  -8.129162e+01  -6.806615e+01
   1.028221e+02  -1.100437e+02
   1.935595e+02  -3.357396e+01
   1.479621e+02   1.887317e+01
   2.221561e+01   6.206076e+01
  -7.876142e+01   8.017999e+01
  -3.229105e+01  -2.254747e+01
   5.870965e+01  -3.786288e+01
   5.546217e+01   2.993527e+00
   7.640059e+01   9.514817e+01
  -7.736654e+01   1.470534e+02
  -1.388424e+02   1.113126e+02
  -1.451115e+02  -9.935498e+01
  -1.238060e+01  -1.445468e+02
   9.383948e+01  -1.622175e+02
   6.606292e+01   2.086249e+01
   9.102781e+01   1.183935e+02
  -7.215307e+00   8.077204e+01
  -3.754749e+01  -3.973305e+00
  -2.961428e+01  -3.850423e+01
  -5.255901e+00  -1.687092e+01
   1.597793e+00   5.003932e+01
  -1.327188e+01  -3.627367e+01
  -5.282427e+01  -8.044702e+01
  -2.488669e+01  -1.091446e+02
   4.307311e+01  -4.786056e+01
   1.358717e+02   2.265541e+01
   1.132508e+02   6.588195e+01
   1.288634e+00   5.187465e+01
  -5.056145e+01   4.007638e+01
  -1.149117e+02   5.518113e+00
  -1.963561e+01  -5.260883e+00
   5.766951e+00  -1.060327e+01
  -9.480039e+00  -2.605693e+01
  -4.102929e+01  -7.983147e+00
   2.852790e+01  -4.282250e+01
   7.259438e+01  -2.497480e+01
   1.254281e+02   4.159888e+01
  -1.773417e+01   1.035042e+02
  -1.116027e+02   1.660588e+02
  -1.991931e+02   6.619546e+01
  -1.662775e+02  -6.723489e+01
  -2.024628e+01  -1.891873e+02
   7.191546e+01  -1.650851e+02
   1.320572e+02  -8.838776e+01
   1.000690e+02   2.811901e+01
   4.111598e+01   3.949935e+01
  -7.492531e+00  -1.358060e+01
   7.718300e+00   4.728879e+01
   3.694183e+01   3.548659e+01
   4.747571e+01   9.096149e+01
  -6.071732e+01   6.975229e+01
  -6.909011e+01  -4.700604e+01
  -7.905226e+01  -1.226640e+02
  -2.648705e+01  -9.544572e+01
   7.514174e+01   8.241556e-01
   1.259986e+02   4.732659e+01
   3.916127e+01   8.551198e+01
  -7.543638e+01   8.134407e+01
  -7.716657e+01  -1.322496e+01
  -2.464713e+01  -4.022775e+01
   3.693165e+01  -1.259265e+01
   2.872321e+01  -4.123120e+01
  -3.635948e+01   4.558762e+00
  -5.489894e+01   1.552838e+01
  -1.465945e+00  -2.211389e+01
   1.179849e+02  -6.079971e+01
   1.321408e+02  -8.455315e+01
   4.076731e+01   1.511493e+01
  -4.529893e+01   8.353958e+01
  -6.909055e+01   8.855668e+01
  -6.951340e+01  -1.340407e+01
  -8.991438e+00  -6.769469e+01
   1.438115e+01  -5.215839e+01
   3.862368e+01   5.576284e+00
   5.311630e+00   5.267478e+01
   5.051670e+00   3.614359e+01
  -2.375812e+01  -8.714452e+00
  -5.312618e+00  -5.254971e+01
  -3.617999e+01   1.273691e+01
  -1.585581e+01   1.437086e+00
   1.362598e+01  -2.697377e+01
  -1.462032e+00  -6.431769e+01
  -5.763288e+01  -3.509217e+01
   4.881950e+01  -5.452089e+01
   2.097289e+01   6.534757e+01
   3.750412e+01   6.016353e+01
  -4.490161e+01   1.043862e+01
  -6.053391e+01  -3.519121e+01
  -1.920407e+01  -6.813315e+01
   5.888858e+01  -3.745675e+01
   9.653240e+01   7.246267e+00
   6.338376e+01   2.167133e+01
  -4.801559e+01   3.022750e+01
  -2.613518e+01   1.500596e+01
  -4.894998e+01   5.697080e+00
   5.387260e+01  -1.342415e+01
   7.388172e+00  -7.487284e+00
  -3.665200e+01  -1.134159e+01
  -5.855223e+01   2.333048e+01
