
 $NMID
 id='ANONYMOUS ', fmtdat='(2E16.6)'
 volume=1.0
 tramp=1.0
 $END
  -3.083105e+03  -2.905038e+02
  -2.030202e+03  -1.479497e+03
   4.212581e+02  -1.952977e+03
   1.187159e+03  -1.153975e+03
   9.115116e+02  -1.846346e+02
  -6.932714e+01   4.355691e+01
  -4.051810e+02  -1.659764e+02
  -1.515308e+02  -4.776333e+02
   3.781804e+02  -5.328532e+02
   6.219497e+02  -1.137395e+02
   4.118542e+02   5.444346e+02
  -1.163687e+02   5.639459e+02
  -2.833395e+02   1.859916e+02
  -3.073949e+02  -4.618663e+02
   1.378655e+02  -4.862985e+02
   4.003935e+02  -7.449044e+01
   2.691794e+02   4.573178e+02
  -1.585226e+02   5.207992e+02
  -4.056035e+02   1.770185e+02
  -3.718794e+02  -2.288622e+02
  -1.061019e+02  -3.480675e+02
   1.200825e+02  -2.271738e+02
   8.530474e+01  -6.604924e+01
  -1.831729e+02  -2.219024e+01
  -2.813421e+02  -2.354071e+02
  -2.116558e+01  -4.145545e+02
   4.248135e+02  -1.648407e+02
   5.958915e+02   2.567802e+02
   1.761100e+02   4.286570e+02
  -2.980703e+02   2.004378e+02
  -4.529142e+02  -8.929520e+01
  -1.278575e+02  -3.973959e+02
   2.279853e+02  -3.634382e+02
   4.555415e+02  -1.062871e+02
   3.335536e+02   1.703767e+02
   7.263837e+01   3.825236e+02
  -7.386111e+01   1.431730e+02
   8.498131e+01  -1.211642e+02
   2.088309e+02  -2.242988e+02
   2.408736e+02   1.725733e+02
  -2.432611e+01   4.737778e+02
  -2.592058e+02   3.675088e+02
  -3.505331e+02  -5.011524e+01
  -1.641550e+02  -3.702455e+02
   2.187114e+02  -1.183757e+02
   1.587279e+02   2.818453e+02
  -1.241125e+02   3.152278e+02
  -4.368588e+02   5.691458e+01
  -4.401431e+02  -3.818294e+02
  -1.468018e+02  -4.754448e+02
   3.282953e+02  -2.541874e+02
   5.059381e+02   9.550418e+01
   2.653073e+02   2.443869e+02
  -7.320526e+01   2.260566e+02
  -2.908042e+02   3.749990e+01
  -1.388901e+02  -9.690075e+00
   3.321073e+01  -8.590558e+01
   7.282737e+01   3.408796e+01
  -7.565755e+01   9.439932e+01
  -2.136292e+02  -6.142214e+01
  -9.750543e+01  -1.882203e+02
   1.617052e+02  -2.415928e+02
   3.149648e+02  -1.098162e+02
   2.374285e+02   9.208009e+01
  -7.046704e+00   3.070742e+02
  -2.762284e+02   3.566202e+02
  -3.593654e+02   1.866530e+02
  -2.180457e+02  -1.092532e+02
  -1.032635e+02  -3.317602e+02
   5.138408e+01  -2.705540e+02
   3.240795e+01  -1.775146e+02
   3.434557e+01  -9.878008e+01
   1.244406e+02  -1.388206e+02
   2.189512e+02  -2.217449e+01
   1.978388e+02   1.054245e+02
   7.995138e+01   2.358556e+02
  -7.118508e+01   1.942798e+02
  -1.806950e+02  -8.279048e+00
  -1.409940e+02  -2.036966e+02
   4.467845e+01  -1.996134e+02
   2.536629e+02  -6.351751e+01
   3.021309e+02   1.661690e+02
   1.552241e+02   3.081597e+02
  -2.527750e+01   2.558897e+02
  -1.546977e+02   1.091804e+02
  -1.636713e+02   6.825725e+01
  -1.353003e+02   4.490344e+01
  -2.794136e+02   3.314417e+01
  -3.709754e+02  -4.986770e+01
  -2.663871e+02  -2.736696e+02
   2.505721e+01  -3.745658e+02
   3.499868e+02  -4.113941e+02
   4.922391e+02  -2.013471e+02
   2.161204e+02   1.019057e+02
   2.723911e+01   2.598263e+02
  -9.912371e+01   1.567605e+02
  -5.547323e+01   3.589250e+01
   9.535025e+01   9.595508e-01
   1.340406e+02   4.815107e+01
   4.186883e+01   1.417065e+02
  -1.286411e+02   9.086396e+01
  -8.656006e+01  -3.932470e+01
   3.627196e+01  -1.137645e+02
   1.534180e+02   2.048686e+01
   1.251003e+02   1.944839e+02
   1.912580e+01   2.466477e+02
  -2.191108e+02   1.613875e+02
  -3.345814e+02  -5.709817e+01
  -2.333991e+02  -2.228619e+02
  -8.943291e+00  -2.484943e+02
   1.438898e+02  -1.284851e+02
   1.628996e+02   2.523409e+01
   1.993583e+01   1.157681e+01
  -4.717801e+01  -6.669231e+01
   2.367629e+01  -1.298934e+02
   1.286429e+02  -5.343347e+01
   1.340706e+02  -7.120428e+00
   1.975932e+01   4.840876e+01
  -6.821787e+01   2.972379e+01
  -5.045876e+01  -1.016319e+02
   1.323548e+02  -9.840054e+01
   2.455695e+02  -2.932755e+00
   2.410932e+02   1.049717e+02
   1.296274e+01   2.722881e+02
  -2.046841e+02   2.305652e+02
  -2.498533e+02   6.751217e+01
  -1.198188e+02  -3.603822e+01
   2.921394e+01  -6.371586e+01
   7.939877e+01   3.872186e+01
  -5.256600e+01   9.679324e+01
  -1.649905e+02   5.342051e-01
  -2.088362e+02  -6.858728e+01
  -7.032012e+01  -1.794701e+02
   7.716123e+01  -1.574947e+02
   1.082266e+02  -7.901498e+00
   7.459910e+01   5.507930e+01
  -5.193105e+01  -1.747999e+01
  -2.851675e+01  -8.907500e+01
   9.182518e+01  -9.692860e+01
   2.122988e+02  -7.925330e+01
   1.513522e+02   1.192802e+02
  -8.188640e+00   2.114511e+02
  -1.187590e+02   1.187084e+02
  -1.742361e+02   1.071307e+01
  -1.118722e+01  -9.258134e+01
   8.084781e+01  -1.056964e+02
   7.107615e+01  -6.361585e+01
   3.537951e+00   3.024030e+01
  -3.748215e+01   8.989371e+00
  -4.340149e+00  -1.478398e+01
   8.161806e+01  -2.163900e+01
   8.034501e+01   1.311047e+02
   2.981397e+01   1.822196e+02
  -1.438865e+02   1.045191e+02
  -1.817587e+02   2.040388e+01
  -2.135176e+02  -1.363201e+02
  -5.539083e+01  -2.165334e+02
   7.625221e+01  -1.576731e+02
   1.175427e+02  -6.056411e+01
   5.127422e+01   2.124444e+01
   4.552237e+01  -5.258302e+00
   1.076094e+02  -2.208481e+01
   1.035400e+02   1.335416e+01
   6.024447e+01   4.748519e+01
  -4.708461e+01   1.154713e+02
  -1.574481e+02   5.652776e+01
  -1.135090e+02  -3.267578e+01
   7.975300e+00  -9.691609e+01
   1.354392e+02  -6.799515e+01
   1.805460e+02   9.107876e+01
   6.508919e+01   2.367022e+02
  -1.185698e+02   2.292516e+02
  -2.629396e+02   1.013270e+02
  -2.080904e+02  -1.060405e+02
  -1.224033e+02  -1.690594e+02
   5.144274e+01  -1.583780e+02
   8.172515e+01  -5.660687e+01
   7.766727e+01  -5.117568e+01
   8.031967e+01  -1.083569e+02
   8.992052e+01  -1.162950e+02
   9.641772e+01   2.046120e+01
   1.220294e+02   1.301015e+02
   7.191540e+00   2.102043e+02
  -8.576420e+01   1.292076e+02
  -1.701307e+02   3.765454e+01
  -1.154477e+02  -1.477786e+02
   1.473585e+01  -1.496675e+02
   8.278354e+01  -5.195125e+01
   4.013869e+00  -4.314541e+01
   1.377551e+01   7.513874e+01
  -5.053868e+00   4.225567e+01
   8.824729e-01   9.315017e+00
   1.017274e+02   4.924495e+01
   8.950855e+01   4.066027e+01
  -4.424245e+01   2.537973e+00
  -1.601631e+02  -4.536153e+00
  -1.295479e+02  -6.952225e+01
  -5.802184e+00  -9.948256e+01
   1.074131e+02  -6.545079e+01
   1.168258e+02  -1.111232e+01
   2.520990e+01   4.904361e+01
  -6.912083e+01   8.977759e+00
  -5.883883e+01  -5.335046e+01
  -2.594394e+01  -7.667248e+01
   2.798845e+01  -6.363105e+01
   2.785577e+01   1.517788e+01
   5.989316e+01   5.257337e+01
   4.961503e+01   1.438953e+01
   5.664939e+01  -6.672563e+00
   5.537295e+01  -1.520671e+01
   6.597711e+00   5.385348e+01
  -3.227478e+01   1.674318e+02
  -1.246806e+02   1.477589e+02
  -1.436246e+02   3.780367e+01
  -1.460639e+02  -1.207268e+02
   2.446626e+01  -1.005165e+02
   6.882222e+01  -6.407768e+01
   7.962376e+01   1.813436e+01
  -4.766656e+01   4.112547e+01
  -1.522378e+02  -3.378875e+01
  -4.597468e+01  -1.109694e+02
   7.632723e+01  -1.384361e+02
   1.752035e+02  -6.387573e+01
   1.732780e+02   1.034977e+02
   3.250046e+01   7.444017e+01
  -8.220399e+01   5.988682e+01
  -6.150693e+01   3.633867e+00
   2.875424e+01  -2.016919e+01
   3.328438e+01   2.782471e+01
   2.944210e+00   9.980384e+01
  -6.098372e+01   1.450939e+02
  -1.546690e+02   5.156809e+01
  -7.494603e+01  -1.072768e+02
  -4.062049e+00  -1.857801e+02
   7.703744e+01  -1.220497e+02
   7.236685e+01   3.361214e+01
   5.024276e+01   1.212871e+02
   3.887600e+00   1.305144e+02
  -8.715199e+01   2.853282e+01
  -4.249856e+01  -3.268988e+01
  -1.518982e+01  -4.226994e+00
  -1.305453e+01   4.864823e+01
   2.564083e+00  -4.499352e+01
  -6.835012e+01  -6.936796e+01
  -2.314693e+01  -1.040066e+02
   7.409416e+00  -5.214882e+01
   1.265987e+02   3.679728e+01
   1.250247e+02   7.345093e+01
   1.651892e+01   3.052092e+01
  -6.572311e+01   4.134272e+01
  -9.031413e+01  -2.338704e+01
  -9.467696e+00  -2.646767e+01
   2.264537e+01  -7.355937e+00
   1.491352e+01  -2.309272e+01
  -2.131337e+01  -4.686735e+00
  -3.912466e+01  -9.242576e+00
   9.149467e+01  -2.398046e+01
   1.153067e+02   3.179819e+01
   1.601720e+01   1.072599e+02
  -9.478288e+01   9.523301e+01
  -1.649703e+02   3.942687e+01
  -1.311929e+02  -5.311258e+01
  -2.223667e+01  -1.582416e+02
   4.693478e+01  -1.579493e+02
   9.548109e+01  -7.851006e+01
   6.677754e+01   3.344596e+00
   2.169782e+01   4.443412e+01
  -5.134341e+00   2.454052e+01
   2.851267e+01   2.920008e-01
   5.792499e+01   8.646977e+01
   2.954033e+01   8.144219e+01
  -3.161783e+01   7.254511e+01
  -9.362973e+01  -2.022727e+01
  -6.124318e+01  -9.891117e+01
  -1.699762e+01  -7.685160e+01
   1.190210e+02  -4.796710e+01
   1.045842e+02   6.506515e+01
   3.473193e+01   8.465868e+01
  -6.647665e+01   2.760760e+01
  -1.029008e+02  -2.572124e+01
  -6.263490e+01  -7.210197e+01
   3.399024e+01  -4.801032e+01
   4.513991e+01  -1.691243e+01
  -6.381286e+01  -1.470283e+01
  -8.184008e+01   5.653774e+00
  -1.353345e+01  -2.902966e+01
   1.085683e+02  -4.142301e+01
   1.054060e+02  -6.934804e+01
   5.518542e+01   1.454828e+01
  -2.115604e+01   6.027372e+01
  -4.638686e+01   4.455077e+01
  -6.196784e+01   3.476714e+01
  -3.544392e+01  -3.417578e+01
   2.798272e+01  -5.316641e+01
   4.679648e+01   3.417675e+01
   2.921276e+01   6.838168e+01
  -9.898374e+00   1.799086e+01
  -4.638704e+01  -4.735111e+01
  -6.496276e+01  -1.730047e+01
   2.235210e+01   1.374362e+01
   9.976291e+00  -4.656953e+00
  -2.946396e+01  -2.409597e+00
  -2.343544e+01  -5.902176e+01
  -3.667289e+01  -9.217209e+01
   5.607241e+01   6.514750e+00
   2.990439e+01   1.639046e+01
  -1.559075e+01   5.763837e+01
  -6.765411e+01   2.192842e+01
  -5.348674e+01  -3.177595e+01
  -1.917750e+01  -9.830187e+01
   1.817098e+01  -3.525195e+01
   9.289309e+01   6.952690e+00
   3.114075e+01   1.763838e+01
   3.122206e+00   6.436082e+01
  -7.052943e+01   7.935401e+00
  -5.432336e-01   1.348465e+01
   6.060952e+00  -5.065696e+00
   1.921289e+01  -3.523103e+01
   6.762024e+00   1.676766e+01
  -2.331038e+01  -7.905265e+00
