
 $NMID
 id='ANONYMOUS ', fmtdat='(2E16.6)'
 volume=1.0
 tramp=1.0
 $END
   3.214020e+03   3.045445e+02
   2.184204e+03   1.555366e+03
  -5.818996e+02   2.161568e+03
  -1.341551e+03   1.134608e+03
  -8.624670e+02   5.454259e+01
   1.621820e+02  -1.008752e+02
   4.620608e+02   2.396830e+02
   1.039520e+02   6.511254e+02
  -4.048250e+02   5.846845e+02
  -6.825020e+02   1.173149e+02
  -3.569004e+02  -5.913990e+02
   1.035868e+02  -6.658010e+02
   3.479229e+02  -1.543218e+02
   2.517247e+02   4.998526e+02
  -1.770508e+02   5.474247e+02
  -4.136889e+02   8.178660e+01
  -2.578238e+02  -5.417980e+02
   2.277356e+02  -5.888841e+02
   4.329876e+02  -1.563476e+02
   4.198922e+02   2.432785e+02
   1.090902e+02   3.340232e+02
  -1.269703e+02   2.327310e+02
  -1.303849e+02   1.055002e+01
   1.926076e+02   6.163966e+00
   3.479098e+02   2.461696e+02
   8.308170e+01   4.048867e+02
  -4.581987e+02   2.020512e+02
  -6.645943e+02  -2.787068e+02
  -1.396200e+02  -4.517547e+02
   3.404479e+02  -2.535802e+02
   5.114565e+02   5.219534e+01
   2.102956e+02   4.250594e+02
  -2.601058e+02   3.756830e+02
  -4.603511e+02   1.023499e+02
  -3.289770e+02  -1.946332e+02
  -2.564819e+01  -3.809815e+02
   6.492087e+01  -1.458481e+02
  -5.763085e+01   1.491114e+02
  -2.425342e+02   2.556171e+02
  -3.000898e+02  -1.491393e+02
   2.268700e+01  -5.299400e+02
   2.868773e+02  -4.146453e+02
   4.130883e+02  -8.627976e+00
   1.667813e+02   4.110060e+02
  -2.406035e+02   1.676527e+02
  -2.114145e+02  -3.141066e+02
   1.229072e+02  -3.916581e+02
   4.963951e+02  -5.305345e+01
   4.725593e+02   4.386878e+02
   1.558067e+02   5.469465e+02
  -2.938780e+02   2.736461e+02
  -5.277075e+02  -6.583462e+01
  -2.622613e+02  -2.875813e+02
   5.129283e+01  -2.359473e+02
   3.045828e+02  -6.713765e+00
   1.803337e+02   6.047548e+00
  -3.646408e+01   9.281150e+00
  -5.370734e+01  -4.841405e+01
   9.680061e+01  -6.234973e+01
   2.293986e+02   4.073362e+01
   7.968277e+01   2.221514e+02
  -1.644568e+02   2.191102e+02
  -3.344299e+02   1.520649e+02
  -2.599793e+02  -9.748396e+01
   8.240260e+00  -2.679706e+02
   2.619249e+02  -3.509898e+02
   3.768804e+02  -1.844914e+02
   2.409587e+02   1.395660e+02
   8.883836e+01   3.357717e+02
  -2.888184e+01   3.675797e+02
  -8.306988e+01   1.856274e+02
   3.602244e+01   1.111606e+02
  -1.177294e+02   1.270376e+02
  -2.537062e+02   6.042146e+01
  -2.537933e+02  -1.338915e+02
  -1.051786e+02  -2.312582e+02
   1.108185e+02  -1.784968e+02
   2.048415e+02   5.784361e+01
   1.610278e+02   2.362562e+02
  -1.593395e+01   2.324322e+02
  -2.850103e+02   5.798051e+01
  -3.239074e+02  -2.031465e+02
  -1.692143e+02  -3.228694e+02
   6.139955e+01  -2.383924e+02
   2.241529e+02  -1.280958e+02
   1.295217e+02  -6.792575e+01
   1.400752e+02  -9.795886e+01
   2.746344e+02  -2.934928e+01
   3.892620e+02   9.117329e+01
   3.052239e+02   3.012076e+02
   2.877171e+01   4.433643e+02
  -3.711436e+02   3.769160e+02
  -4.597069e+02   1.657095e+02
  -2.432526e+02  -7.510284e+01
  -2.022890e+01  -2.547906e+02
   7.394481e+01  -2.326957e+02
   3.015706e+01  -4.926719e+01
  -1.054342e+02   3.367120e+01
  -1.811125e+02  -2.232156e+01
  -2.748548e+01  -1.725421e+02
   1.270300e+02  -8.500789e+01
   7.973216e+01   3.612158e+01
  -4.502636e+01   1.674703e+02
  -1.983684e+02  -3.541449e+01
  -1.125900e+02  -2.390553e+02
   5.232658e+00  -3.033752e+02
   2.101980e+02  -1.974117e+02
   3.317590e+02   6.402189e+01
   2.410200e+02   3.138865e+02
   6.453869e+01   2.855442e+02
  -1.274598e+02   1.502066e+02
  -1.617978e+02  -1.994715e+00
  -4.974969e+01  -3.001790e+01
   7.750405e+01   6.657887e+01
  -9.232675e+00   1.230716e+02
  -1.483977e+02   9.029861e+01
  -1.585674e+02  -5.869104e+01
  -4.835831e+01  -8.856669e+01
   6.826747e+01  -1.908230e+01
   6.881624e+01   1.027239e+02
  -1.051566e+02   5.852901e+01
  -2.618312e+02  -2.635513e+01
  -2.537241e+02  -1.924189e+02
  -6.065752e+01  -2.607888e+02
   2.069898e+02  -2.321967e+02
   2.585208e+02  -5.750660e+01
   9.469766e+01   4.699899e+01
  -4.310479e+01   9.651684e+01
  -4.100542e+01  -4.857284e+01
   4.097051e+01  -1.030928e+02
   2.176192e+02   6.107988e+00
   1.691104e+02   9.910719e+01
   6.641629e+01   1.889359e+02
  -7.431075e+01   1.417287e+02
  -1.196585e+02   6.773862e+00
  -6.963826e+01  -5.276424e+01
   5.351425e+01   1.596688e+00
   2.294073e+01   1.119952e+02
  -8.259758e+01   7.726149e+01
  -2.114184e+02   8.766779e+00
  -1.998480e+02  -1.275116e+02
  -3.369092e+00  -2.208741e+02
   1.678992e+02  -1.530263e+02
   2.095151e+02  -1.260286e+01
   3.245382e+01   9.866668e+01
  -9.957857e+01   1.086033e+02
  -4.946907e+01   1.684577e-01
   2.812691e+01  -4.607545e+01
   1.495607e+01   4.372396e+00
   4.814693e+00   2.455998e+01
  -9.244539e+01   2.296023e+01
  -1.047229e+02  -6.796929e+01
  -2.726382e+01  -1.485293e+02
   1.383659e+02  -1.271361e+02
   2.572364e+02   3.007821e+01
   1.747693e+02   1.693277e+02
   2.866113e+01   2.235872e+02
  -9.806327e+01   1.751111e+02
  -1.392326e+02   3.953456e+01
  -6.644148e+01  -7.703933e+01
  -1.859391e+01   1.660807e+01
  -4.844260e+01   2.284905e+00
  -8.271519e+01   2.513068e+01
  -2.566398e+01  -7.629393e+01
   6.133314e+01  -1.014967e+02
   1.628128e+02  -1.075513e+02
   1.195329e+02   5.082073e+01
  -1.436231e+01   1.274565e+02
  -1.615537e+02   1.226605e+02
  -2.244391e+02  -5.831365e+01
  -7.112519e+01  -2.120954e+02
   1.118954e+02  -2.226136e+02
   3.076820e+02  -9.571380e+01
   2.453769e+02   8.631930e+01
   1.207568e+02   1.730673e+02
  -6.041390e+01   1.603531e+02
  -5.949794e+01   5.672150e+01
  -4.731881e+01   5.082025e+01
  -6.815881e+01   5.041475e+01
  -1.179699e+02   6.714136e+01
  -1.283530e+02  -2.805101e+01
  -1.062566e+02  -1.583921e+02
  -4.483545e+01  -2.032698e+02
   8.215339e+01  -1.642287e+02
   1.913166e+02   5.216259e+01
   1.078261e+02   1.260976e+02
  -5.704472e+00   1.516559e+02
  -8.111397e+01   1.091667e+02
  -7.203932e+01  -2.982398e+01
   1.514286e+01  -4.026036e+01
   3.682152e+01  -4.175620e+01
  -3.984750e+00   7.209152e+00
  -6.739923e+01  -1.094987e+01
  -5.164715e+01  -2.804784e+01
   1.222972e+02  -2.125508e+01
   1.691957e+02  -7.551528e+00
   1.414628e+02   5.098467e+01
   1.317208e+01   1.438379e+02
  -1.243037e+02   8.775026e+01
  -1.476252e+02  -4.021286e+01
  -4.111031e+01  -4.891844e+01
   4.842728e+01  -2.656770e+01
   5.911678e+01   3.951980e+00
   2.083899e+01   1.047524e+02
  -4.399601e+01   3.165318e+01
  -7.885993e+01  -1.851490e+01
  -5.483248e+01  -4.974895e+01
  -4.761013e+01  -5.659224e+01
  -7.955088e+01   2.281689e+01
  -7.780914e+00  -8.026033e+00
  -2.985820e+01  -7.481670e+01
   5.405796e+01  -1.384793e+02
   1.264969e+02  -1.577720e+02
   2.129438e+02  -2.460933e+01
   1.537103e+02   9.575812e+01
   1.268130e+01   1.058618e+02
  -6.099588e+01   5.384788e+01
  -5.473207e+01  -3.230383e+01
   7.817819e+01  -3.632682e+01
   1.416410e+02   7.385651e+01
   7.180577e+01   1.076875e+02
  -1.250391e+02   1.024244e+02
  -1.825760e+02   4.114969e+01
  -1.514972e+02  -1.916625e+01
  -3.783672e+01  -1.281898e+02
   8.314847e+01  -7.333727e+01
   9.103291e+01   2.739752e+01
  -6.065090e+01   4.094873e+01
  -9.067746e+01  -3.586480e+01
  -1.076965e+01  -1.229525e+02
   5.463323e+01  -1.641897e+02
   2.092176e+02  -5.936281e+01
   1.166483e+02   9.364271e+01
   5.007783e+01   2.129112e+02
  -6.134768e+01   1.353408e+02
  -9.303132e+01   2.717989e+01
  -5.224627e+01  -1.362160e+02
  -3.043264e+00  -8.299398e+01
   5.235605e+01  -3.074541e+01
   4.431352e+01   6.596880e+01
   1.253724e+01   1.495138e+01
  -4.299642e+00  -1.498792e+01
   3.419239e+01   2.670157e+01
   4.137881e+01   8.477444e+01
   1.863066e+01   1.336964e+02
  -5.827710e+01   5.382522e+01
  -9.480186e+01  -4.932555e+01
  -9.294169e+01  -8.534990e+01
  -3.674913e+01  -6.580959e+01
   6.306287e+01  -2.582181e+01
   1.082811e+02   2.467914e+01
   1.654335e+01  -2.123965e+01
  -3.162125e+01   2.987039e+01
  -7.171602e+01   3.808337e+01
   7.954558e+00   1.639810e+01
   5.661742e+00   8.754949e+00
  -4.339467e+01   2.763523e+01
  -1.018257e+02  -3.483798e+01
  -4.867752e+01  -1.160827e+02
   1.321761e+02  -1.005714e+02
   1.703220e+02  -5.353343e+01
   1.414695e+02   3.931108e+01
   1.758079e+01   1.628895e+02
  -3.956670e+01   1.489910e+02
  -9.892902e+01   7.076969e+01
  -6.030824e+01  -1.088487e+01
   2.360788e+01  -4.409682e+01
   1.206240e+00  -3.919972e+00
  -1.258012e+01  -2.014028e+01
  -6.627585e+01  -3.727626e+01
  -1.765361e+01  -9.611602e+01
   6.014572e+01  -7.774031e+01
   6.202086e+01   3.621321e+01
   8.517916e+01   1.079884e+02
   5.166832e+01   1.414204e+02
  -6.688639e+01   7.005595e+01
  -1.253391e+02  -5.340773e+01
  -4.444161e+01  -9.389708e+01
   8.416628e+01  -6.555720e+01
   1.456625e+02   1.761495e+01
   4.725753e+01   5.747759e+01
  -3.463004e+01   6.634746e+01
  -5.378307e+01   6.553871e+01
   1.477298e+01   5.851483e+00
   4.868454e+01  -4.883925e+01
   3.778128e+01   3.332112e+01
  -5.748958e+01   4.323113e+01
  -9.998967e+01   7.931587e+01
  -5.206983e+01  -4.896462e+01
   4.744569e+00  -8.081133e+01
   5.150533e+01  -6.171164e+01
   4.289538e+01  -3.321281e+00
   2.715074e+01   8.278877e+01
  -1.482629e+01   4.355191e+01
  -3.644099e+01  -2.592706e+01
  -5.299336e+01  -8.321182e+01
  -5.847324e-01  -5.032485e+01
   2.918943e+01  -2.765962e+01
   3.410685e+01   1.715782e+01
   2.401722e+01  -1.819034e+01
   3.726482e+01  -2.213814e+01
   2.524729e+01   2.925692e+01
   5.276774e+00   6.299987e+00
   2.147692e+01   3.821465e+01
  -4.013949e+01  -1.042388e+00
  -1.420334e+01  -3.536371e+01
  -1.293648e+01  -9.328175e+01
   6.757793e+01  -1.685125e+01
   9.354050e+01   2.018353e+01
  -2.577403e+00   4.787757e+01
  -7.471517e+01   4.243305e+01
  -9.164779e+01  -7.304234e+00
  -4.649041e+01  -4.382593e+01
   3.881725e+01  -3.908252e+01
   2.264390e+01  -1.279237e+00
   3.600550e+01   4.582716e+01
  -2.828521e+01   1.483586e+01
   4.688912e+00  -4.451257e+01
   3.553937e+01  -3.704198e+01
   6.379111e+01  -1.611348e+01
