
 $NMID
 id='ANONYMOUS ', fmtdat='(2E16.6)'
 volume=1.0
 tramp=1.0
 $END
   3.198207e+03  -2.189753e+00
   2.363836e+03   1.725857e+03
  -3.756229e+02   2.055766e+03
  -1.244965e+03   1.121435e+03
  -8.687433e+02  -1.383670e+02
   1.753201e+02  -9.449507e+01
   6.075164e+02   3.059331e+02
   1.812448e+01   8.267826e+02
  -4.236710e+02   6.647687e+02
  -7.155730e+02   1.080003e+02
  -4.222270e+02  -5.086410e+02
   5.856060e+01  -6.387509e+02
   3.673004e+02  -2.299415e+02
   2.693465e+02   4.394064e+02
  -1.439836e+02   6.302599e+02
  -4.273574e+02   8.580433e+01
  -3.096073e+02  -4.797498e+02
   2.163760e+02  -5.506143e+02
   4.453908e+02  -1.715353e+02
   3.881265e+02   2.686576e+02
   4.480886e+01   3.557460e+02
  -1.584309e+02   2.670965e+02
  -1.147943e+02   4.135144e+01
   1.976216e+02  -8.022131e+00
   3.010952e+02   2.283676e+02
   8.817556e+01   3.962260e+02
  -5.018910e+02   2.856057e+02
  -6.577952e+02  -1.804718e+02
  -2.582981e+02  -4.231645e+02
   2.281619e+02  -2.826577e+02
   5.911928e+02   1.319731e+02
   1.862970e+02   3.923141e+02
  -3.398129e+02   3.745565e+02
  -4.728594e+02   1.215577e+02
  -3.355820e+02  -1.558660e+02
  -9.608232e+00  -3.605828e+02
   5.707123e+01  -1.856113e+02
  -8.009629e+00   1.440802e+02
  -2.482329e+02   2.489755e+02
  -2.920253e+02  -1.137749e+02
  -3.463903e+01  -5.622125e+02
   2.577618e+02  -4.869503e+02
   4.411529e+02   2.520776e+01
   1.634169e+02   4.125205e+02
  -2.130175e+02   2.249636e+02
  -2.387345e+02  -2.962734e+02
   9.703318e+01  -4.036882e+02
   4.912091e+02  -6.618669e+01
   4.780070e+02   3.921182e+02
   1.047292e+02   5.542890e+02
  -3.349430e+02   2.914023e+02
  -5.734368e+02  -1.010103e+02
  -2.903916e+02  -2.669976e+02
   6.124079e+01  -2.140537e+02
   3.540997e+02  -6.112793e+01
   2.764670e+02   3.864241e+01
  -1.211182e+01   5.349015e+01
  -7.495151e+01  -4.153507e+01
   1.280255e+02  -5.510803e+01
   2.621899e+02   3.843915e+01
   6.892526e+01   2.002549e+02
  -1.055522e+02   2.583306e+02
  -3.097767e+02   8.654449e+01
  -2.562310e+02  -6.251853e+01
   4.471863e+01  -2.864554e+02
   3.059707e+02  -3.329228e+02
   3.621826e+02  -1.575675e+02
   2.664287e+02   1.751905e+02
   7.794924e+01   3.677408e+02
  -5.656429e+01   3.085188e+02
   7.615903e+00   1.699444e+02
  -2.615692e+01   7.495472e+01
  -1.283786e+02   1.486388e+02
  -1.983857e+02   7.623591e+01
  -2.563843e+02  -1.149273e+02
  -1.546861e+02  -2.567408e+02
   7.069171e+01  -1.315902e+02
   1.734933e+02   3.194719e+00
   1.383860e+02   2.097684e+02
  -1.150993e+01   2.109602e+02
  -2.404408e+02   7.264671e+01
  -3.265279e+02  -1.773111e+02
  -1.288029e+02  -3.177186e+02
   8.970343e+01  -2.614462e+02
   1.688064e+02  -1.029348e+02
   1.192548e+02   7.386095e+00
   1.405821e+02  -5.153867e+01
   2.391264e+02  -3.728281e+01
   4.346812e+02   8.393335e+01
   2.906706e+02   2.978243e+02
  -5.779140e+00   4.147952e+02
  -3.924776e+02   3.688982e+02
  -4.712815e+02   1.384320e+02
  -2.509688e+02  -7.327629e+01
  -4.892274e+01  -2.627606e+02
   8.671210e+01  -2.159331e+02
   3.854208e+01  -1.348070e+01
  -1.394541e+02   3.662618e+01
  -1.583714e+02  -4.509368e+01
  -3.069574e+00  -1.458659e+02
   1.208628e+02  -1.203639e+02
   1.456059e+02   1.101194e+02
  -5.319239e+01   1.249776e+02
  -1.883363e+02   2.231151e+01
  -1.798978e+02  -2.456993e+02
   1.927125e+01  -3.357029e+02
   2.521991e+02  -1.779387e+02
   3.349861e+02   2.782548e+01
   2.003443e+02   2.773318e+02
   7.818722e+01   2.636947e+02
  -1.450053e+02   1.839255e+02
  -1.599608e+02   8.380730e+00
  -4.829328e+01  -1.757002e+01
   8.088619e+01   7.383135e+01
   3.672235e+01   1.317574e+02
  -1.254471e+02   1.056716e+02
  -1.569757e+02  -3.576645e+01
  -1.876954e+01  -3.548641e+01
   1.126745e+02   1.133106e+01
   3.252791e+01   1.006565e+02
  -9.455272e+01   1.016445e+02
  -2.737304e+02  -1.115856e+01
  -2.545503e+02  -1.692004e+02
  -2.532228e+01  -2.690174e+02
   2.368676e+02  -2.032986e+02
   2.289954e+02  -8.169505e+01
   1.405580e+02   2.907301e+01
  -5.063909e+01   5.538736e+01
  -6.892184e+01  -1.799601e+01
   7.944568e+01  -7.199310e+01
   2.288362e+02  -4.047751e+01
   2.334349e+02   8.893215e+01
   3.556387e+01   1.577646e+02
  -1.278241e+02   1.934529e+02
  -1.327881e+02   3.732581e+01
  -7.199164e+01  -7.070348e+01
   3.951982e+01   5.870182e+01
   2.070432e+01   1.137997e+02
  -9.045121e+01   9.600436e+01
  -2.290385e+02  -2.189675e+01
  -1.303643e+02  -8.484476e+01
   2.871802e+01  -1.901653e+02
   1.607531e+02  -1.744956e+02
   1.666902e+02   1.378301e+01
   2.854509e+01   8.174852e+01
  -1.430026e+02   8.429219e+01
  -6.993431e+01   6.036449e+01
  -5.752177e+00  -1.489972e+01
   2.775295e+01   1.402958e+00
  -4.693967e+01   1.169379e+01
  -4.528177e+01  -9.261231e-01
  -1.031634e+02  -4.782992e+01
  -1.003952e+01  -1.646314e+02
   1.426995e+02  -1.449034e+02
   2.156597e+02   5.983588e+00
   1.860506e+02   1.600665e+02
   4.314970e+01   2.306758e+02
  -1.082655e+02   1.841000e+02
  -1.163706e+02   3.374534e+01
  -4.967833e+01  -2.658715e+01
   2.145812e+00  -5.871656e+01
  -4.465808e+01  -2.059686e+01
  -1.043946e+02  -2.681170e+01
  -7.902262e+01  -6.041265e+01
   4.590420e+01  -9.813648e+01
   1.325905e+02  -4.660002e+01
   5.478870e+01   5.203916e+01
  -2.488599e+01   1.477494e+02
  -1.572065e+02   1.153620e+02
  -2.374942e+02  -7.020905e+01
  -7.124963e+01  -2.475140e+02
   1.132480e+02  -2.492488e+02
   2.347820e+02  -1.018762e+02
   2.214676e+02   8.275332e+01
   9.786166e+01   1.870775e+02
  -2.738429e+01   1.041886e+02
  -8.736039e+01   7.183932e+01
  -6.680552e+01   5.116126e+01
  -5.418316e+01   9.552028e+01
  -1.343838e+02   8.096826e+01
  -6.063472e+01  -4.853229e+00
  -1.140169e+02  -1.637639e+02
  -3.412514e+01  -1.905330e+02
   1.232511e+02  -1.512474e+02
   1.745294e+02  -1.206299e+00
   9.006768e+01   1.172768e+02
  -3.598121e+00   1.357438e+02
  -7.961112e+01   1.009407e+02
  -7.203369e+01  -1.909355e+01
  -4.485854e+01  -1.777903e+01
   2.686672e+01  -4.259394e+01
  -2.745358e+01   1.483164e+01
  -7.098557e+01   1.253101e+01
  -6.212633e+01  -4.137144e+01
   1.096196e+02  -3.983018e+00
   1.891643e+02  -8.152861e+00
   1.900762e+02   4.701820e+01
   3.233765e+00   8.785261e+01
  -1.216705e+02   9.251324e+01
  -1.052722e+02   8.855874e+00
  -5.728961e+01  -6.296424e+01
   5.363595e+01  -2.490523e+01
   7.666787e+01  -4.395184e+00
   6.355972e+01   9.148906e+01
  -3.531820e+01   5.874123e+01
  -6.052343e+01  -7.187614e+00
  -2.557050e+01  -5.901414e+01
  -7.364948e+01  -5.236081e+01
  -5.652042e+01  -1.285948e+01
  -6.065364e+01  -9.907987e+00
  -5.083467e+01  -7.696336e+01
  -1.826704e+00  -1.260842e+02
   1.181438e+02  -1.567387e+02
   2.193102e+02  -3.120569e+01
   1.052396e+02   9.386903e+01
   3.317301e+01   1.405819e+02
  -7.216087e+01   5.149293e+01
  -6.978407e+01  -2.810885e+00
   4.447421e+01  -8.473093e+00
   1.710572e+02   6.508423e+01
   6.301728e+01   7.257648e+01
  -8.566261e+01   1.130244e+02
  -2.114090e+02   5.914140e+01
  -1.701500e+02  -6.222827e+01
  -4.442173e+01  -9.948034e+01
   7.892610e+01  -6.636467e+01
   4.781397e+01   1.072700e+01
  -1.391925e+01   8.910489e+00
  -8.049868e+01  -3.795830e+00
  -4.465585e+01  -1.061003e+02
   6.911023e+01  -1.703481e+02
   1.371065e+02  -7.783406e+01
   1.483239e+02   9.114127e+01
   5.932957e+01   1.661584e+02
  -6.743104e+01   1.232782e+02
  -7.978250e+01  -5.519065e-01
  -7.029261e+01  -1.138209e+02
   1.274059e+01  -1.265647e+02
   2.087197e+01  -1.392426e+01
   4.988177e+01   3.518531e+01
   2.173011e+00  -1.008006e+00
  -2.237588e+01  -4.431017e+01
   1.396793e+01   3.458591e+01
   7.918362e+01   6.377335e+01
   2.921151e+01   1.140951e+02
  -4.895648e+01   4.163042e+01
  -1.579506e+02  -3.052215e+01
  -1.172165e+02  -6.391924e+01
   4.226442e+01  -7.031578e+01
   7.842076e+01  -5.102583e+01
   8.010836e+01   2.938322e+01
   2.595010e+01   3.091781e+01
  -5.955825e+01   1.534654e+01
  -4.563639e+01   1.348978e+01
   1.986422e+01   1.788921e+01
  -1.106836e+01   3.553292e-01
  -9.039059e+01   1.568348e+01
  -9.187141e+01  -2.014643e+01
  -3.433282e+01  -9.964543e+01
   1.366394e+02  -1.205142e+02
   2.135961e+02  -3.369045e+01
   1.669244e+02   7.771124e+01
   5.852820e+01   1.497439e+02
  -3.350501e+01   1.591453e+02
  -1.089363e+02   1.685165e+01
  -7.626275e+01   7.323688e+00
  -1.340942e+01  -2.677639e+01
  -1.220233e+01  -1.865556e+01
   1.897977e+01  -5.513829e+01
  -1.846115e+01  -2.984242e+01
  -2.748743e+01  -9.911062e+01
   8.605634e+00  -1.215211e+02
   1.312891e+02  -1.492381e+01
   6.721780e+01   9.416084e+01
  -1.654651e+01   1.160503e+02
  -8.094632e+01   3.979693e+01
  -1.261689e+02  -4.558997e+01
  -1.795952e+01  -1.043446e+02
   8.899972e+01  -7.281475e+01
   9.763768e+01  -1.316988e+00
   8.827800e+01   6.117002e+01
  -1.057353e+01   4.373896e+01
  -1.152920e+01   9.793370e+00
   6.274878e+01  -1.119336e+01
   7.780064e+01   3.987163e-01
  -1.159960e+01   3.767099e+01
  -7.805595e+01   3.854791e+01
  -8.130241e+01   7.679898e+01
  -4.568613e+01  -1.746244e+01
   3.163294e+01  -1.027149e+02
   5.905753e+01  -9.524769e+01
   7.139820e+01  -1.468145e+01
   4.170457e+01   3.465874e+01
  -6.778909e+01   2.868519e+01
  -3.138888e+01  -1.305512e+01
  -2.623443e+01  -4.231870e+01
  -2.284775e+00  -2.523160e+01
   3.077690e+01   1.580056e+00
   2.500561e+01   1.650970e+01
   6.310390e+00  -4.617571e+00
  -1.644396e+01  -2.481772e+01
  -3.345316e+00  -1.807933e+01
  -3.388389e+01   2.940156e+01
  -7.135359e+00   5.190934e+01
  -1.988633e+01  -3.458855e+00
  -1.752242e+01  -2.245162e+01
   3.023399e+01  -6.678108e+01
   5.450486e+01  -1.394833e+01
   5.529150e+01   3.306318e+01
  -2.363247e+01   7.471802e+01
  -4.825815e+01   2.407726e+01
  -1.018822e+02   1.563472e+01
  -3.496578e+01  -4.497976e+01
   2.404169e+01  -2.498472e+01
   4.285085e+01  -3.002711e+01
   3.091389e+01  -1.785586e+01
  -1.982058e+01   5.802514e+00
  -2.769870e+01  -4.009476e+01
  -1.719191e+01   1.277514e+00
   4.720425e+01  -1.832213e+01
