
 $NMID
 id='ANONYMOUS ', fmtdat='(2E16.6)'
 volume=1.0
 tramp=1.0
 $END
  -3.309793e+03   3.273888e+02
  -2.367373e+03  -1.618484e+03
   4.179601e+02  -2.204324e+03
   1.323905e+03  -1.022225e+03
   8.231310e+02   1.239520e+02
  -1.770630e+02   2.271091e+02
  -5.262840e+02  -2.541577e+02
   1.685303e+01  -7.532465e+02
   4.237098e+02  -6.382183e+02
   7.183815e+02  -8.709122e+01
   5.067286e+02   5.124652e+02
  -1.305077e+02   6.325843e+02
  -4.350361e+02   2.099065e+02
  -2.610812e+02  -4.079410e+02
   2.102631e+02  -6.310418e+02
   4.551082e+02  -4.182830e+01
   2.859847e+02   5.125831e+02
  -1.573151e+02   5.466289e+02
  -4.675840e+02   1.015120e+02
  -3.951739e+02  -2.011353e+02
  -1.042776e+02  -4.029581e+02
   1.317669e+02  -2.558681e+02
   1.193750e+02  -2.861569e+01
  -1.574928e+02   1.310484e+01
  -3.227561e+02  -1.792554e+02
  -7.646255e+01  -3.902778e+02
   4.802244e+02  -2.357665e+02
   5.908678e+02   1.837253e+02
   2.971999e+02   4.191638e+02
  -2.709244e+02   3.300805e+02
  -5.186677e+02  -6.912084e+01
  -1.994848e+02  -3.892699e+02
   3.620482e+02  -3.892955e+02
   4.834863e+02  -1.260796e+02
   2.974305e+02   1.549384e+02
   3.604823e+01   3.674780e+02
  -5.454197e+01   2.097946e+02
  -4.098167e+01  -1.258276e+02
   2.153055e+02  -2.472146e+02
   2.943743e+02   1.128229e+02
   3.023016e+01   5.567227e+02
  -2.190593e+02   4.815170e+02
  -4.460496e+02   1.363324e+01
  -1.758986e+02  -3.970927e+02
   1.819064e+02  -2.256151e+02
   2.444448e+02   3.376768e+02
  -1.017592e+02   4.048414e+02
  -4.663503e+02   1.361141e+02
  -4.666817e+02  -4.051712e+02
  -8.178323e+01  -5.358118e+02
   3.128057e+02  -3.149998e+02
   5.449568e+02   1.035004e+02
   3.173750e+02   2.482935e+02
   4.538881e+00   2.622960e+02
  -3.870687e+02   7.164254e+01
  -2.489226e+02  -7.032402e+01
   4.069287e+01  -3.351136e+01
   3.307249e+01   4.540756e+01
  -1.118270e+02   7.770238e+01
  -2.202810e+02  -5.837900e+01
  -1.435616e+02  -2.093860e+02
   1.138026e+02  -2.483152e+02
   2.858259e+02  -6.493295e+01
   2.428970e+02   1.210651e+02
  -1.339430e+01   2.882642e+02
  -2.435466e+02   3.604634e+02
  -3.473860e+02   1.824678e+02
  -2.777294e+02  -1.539793e+02
  -2.051450e+01  -3.517321e+02
   2.524097e+01  -2.858453e+02
   3.878006e+01  -1.446639e+02
   1.548193e+01  -7.096193e+01
   1.002317e+02  -9.843971e+01
   2.020452e+02  -7.057097e+01
   2.226507e+02   1.099603e+02
   1.539455e+02   2.518765e+02
  -6.687451e+01   1.918961e+02
  -1.673920e+02  -3.940301e+01
  -1.067347e+02  -2.498304e+02
   4.790350e+01  -2.532373e+02
   2.509889e+02  -7.417878e+01
   3.112877e+02   1.480644e+02
   1.482062e+02   2.934987e+02
  -6.617946e+01   2.662952e+02
  -1.602325e+02   1.127846e+02
  -1.077124e+02   7.777110e+01
  -8.407117e+01   5.687556e+01
  -2.477891e+02   6.425607e+01
  -4.249428e+02  -7.984224e+01
  -3.147245e+02  -2.649552e+02
   1.702092e+01  -4.322645e+02
   3.456753e+02  -3.956047e+02
   4.436036e+02  -1.809276e+02
   3.167433e+02   5.036474e+01
   3.361140e+01   2.278429e+02
  -7.432365e+01   1.821314e+02
  -6.110645e+00  -1.002232e+00
   1.029015e+02  -8.316389e+01
   1.301458e+02   4.453500e+00
   2.542151e+01   1.417671e+02
  -1.047288e+02   1.173207e+02
  -1.260785e+02  -2.970981e+01
   3.027991e+01  -1.182127e+02
   1.350708e+02  -1.072840e+00
   1.562311e+02   2.150367e+02
  -4.068264e+01   3.334851e+02
  -1.952688e+02   2.202116e+02
  -3.458993e+02  -6.801596e+01
  -2.558026e+02  -2.282252e+02
  -7.862373e+01  -2.603012e+02
   1.060132e+02  -2.091229e+02
   1.313867e+02   2.303921e+01
   6.251061e+01   2.718007e+00
  -7.461042e+01  -4.045498e+01
   1.481188e+01  -8.967186e+01
   1.285379e+02  -3.918344e+01
   1.159653e+02   3.041735e+00
   6.346378e+01   2.954999e+01
  -1.096997e+02  -8.796314e+00
  -4.575318e+01  -7.978784e+01
   1.282032e+02  -6.167067e+01
   2.520045e+02   4.989373e+00
   2.540506e+02   1.419946e+02
   3.076881e+00   2.528352e+02
  -1.906688e+02   2.287065e+02
  -2.826765e+02   9.172579e+01
  -1.140998e+02  -3.579868e+01
   5.689618e+01  -8.306750e+01
   1.877529e+01  -1.191847e+01
  -5.475389e+01   9.700352e+01
  -1.910865e+02   4.417297e+01
  -2.031641e+02  -9.303385e+01
  -7.165699e+01  -1.925284e+02
   7.639550e+01  -8.102689e+01
   1.380716e+02  -3.717451e+01
   5.437053e+01   2.684830e+01
  -3.595336e+01  -7.705638e-01
  -3.120976e+01  -1.199750e+02
   1.282192e+02  -1.394254e+02
   2.323108e+02  -4.578515e+01
   1.959010e+02   1.235453e+02
  -1.079539e+01   2.008109e+02
  -1.576435e+02   1.221287e+02
  -1.778478e+02  -2.213406e+01
  -3.741039e+01  -1.216924e+02
   6.418882e+01  -8.304781e+01
   6.089937e+01  -2.022880e+01
   1.752197e+01   1.910356e+01
   9.544248e-01   1.230116e+01
   8.244500e+00  -1.045827e+01
   7.007133e+01   3.656734e+00
   1.010132e+02   8.956058e+01
   2.721546e+01   1.301480e+02
  -7.201890e+01   1.396447e+02
  -1.931191e+02   3.655120e+00
  -1.994166e+02  -1.469744e+02
  -5.803757e+01  -1.913645e+02
   1.388396e+02  -1.912433e+02
   1.473286e+02  -1.404240e+01
   6.871495e+01   4.484294e+01
   1.649671e+01  -1.206484e+01
   6.088960e+01  -2.696950e+01
   7.598407e+01   7.227773e+00
   3.672720e+01   3.780147e+01
   2.622879e+00   8.053655e+01
  -1.091488e+02   6.092026e+01
  -7.899504e+01  -2.323925e+01
  -5.978843e+00  -1.509289e+02
   1.321044e+02  -1.238184e+02
   1.956291e+02   6.030947e+01
   7.775201e+01   1.925639e+02
  -9.330963e+01   2.225443e+02
  -2.719425e+02   9.159090e+01
  -2.505978e+02  -8.280843e+01
  -1.130257e+02  -1.985827e+02
   2.657988e+01  -1.479948e+02
   7.707695e+01  -9.436317e+01
   9.947856e+01  -1.109515e+02
   4.735593e+01  -8.387398e+01
   8.880285e+01  -6.620047e+01
   1.344067e+02  -7.963822e+00
   1.083364e+02   1.325823e+02
   2.419845e+01   1.615802e+02
  -9.472132e+01   1.686771e+02
  -1.907519e+02   4.662648e+01
  -1.229687e+02  -9.607609e+01
  -2.840338e+01  -1.861839e+02
   1.007182e+02  -5.793807e+01
   3.872791e+01  -1.148770e+01
  -1.811192e+01   4.539557e+01
  -2.421815e+01   3.659314e+01
   3.842498e+01   2.982260e+01
   6.697771e+01   1.075609e+00
   4.358270e+01  -1.503335e+01
  -4.649198e+01   8.461294e+00
  -1.432183e+02  -1.598030e+00
  -1.161970e+02  -4.957769e+01
  -4.232213e+01  -8.933716e+01
   1.377198e+02  -6.556761e+01
   1.271337e+02   3.568803e+00
   7.076182e+01   5.992563e+01
  -9.271641e+01   4.240658e+01
  -7.505773e+01  -3.621187e+00
  -1.248390e+01  -5.110998e+01
   2.817860e+01  -7.128287e+01
   4.754008e+01   1.960975e+01
   4.279720e+01   8.333911e+01
   4.194530e+01   8.206001e+01
   4.700167e+01   1.910126e+01
   6.611724e+01  -3.800889e+01
   8.965476e+01   7.597678e+01
  -1.816904e+01   1.592812e+02
  -1.123064e+02   1.821022e+02
  -1.396746e+02   5.909257e+01
  -1.308166e+02  -7.328004e+01
   1.067268e+00  -1.479513e+02
   9.446546e+01  -5.291088e+01
   6.781568e+01   1.447245e+01
  -8.678426e+01  -7.214187e+00
  -1.598189e+02  -1.315404e+01
  -4.945220e+01  -1.180601e+02
   9.940939e+01  -9.825713e+01
   1.668566e+02  -4.641156e+01
   1.469918e+02   5.657586e+01
   3.488757e+01   1.166744e+02
  -1.604825e+01   4.071427e+01
  -5.816725e+01  -3.315730e+01
   3.217477e+01  -1.937711e+01
   7.909751e+01   2.827025e+01
   1.823383e+01   8.770842e+01
  -6.483657e+01   1.853114e+02
  -1.670510e+02   2.042342e+01
  -1.193809e+02  -7.619427e+01
  -1.752465e+01  -2.085415e+02
   5.015805e+01  -1.108905e+02
   1.263466e+02   2.051813e+01
   4.736984e+01   9.258716e+01
  -9.376170e+00   7.230127e+01
  -7.252519e+00   1.191557e+01
  -1.714175e+01  -2.564267e+01
  -2.264676e+01  -4.967655e+00
  -1.784185e-01   1.657815e+01
  -5.502163e+01  -3.920153e+01
  -3.765345e+01  -1.007825e+02
  -6.645474e+01  -1.098482e+02
   3.771529e+01  -2.489150e+01
   1.097792e+02   4.731934e+01
   1.280207e+02   6.720203e+01
  -7.410524e+00   6.070055e+01
  -6.275776e+01   1.494906e+01
  -8.455663e+01  -9.863081e+00
  -3.826217e+01  -2.078754e+01
   1.117614e+00  -1.896770e+01
   2.861556e+01   1.455229e+01
  -2.292694e+01   2.953439e+01
  -1.358306e+01  -1.025237e+00
   1.015856e+02  -2.630105e+00
   9.001180e+01   1.949806e+01
   2.263328e+01   3.571221e+01
  -1.075360e+02   1.045647e+02
  -1.753860e+02   7.385253e+01
  -1.769617e+02  -5.783911e+01
  -4.042163e+01  -1.694689e+02
   6.912613e+01  -1.295454e+02
   1.419902e+02  -2.675977e+01
   4.953833e+01   1.210551e+01
   5.747849e+01   4.636473e+01
   1.962219e+01   4.850752e+00
   2.554361e+01  -9.342432e+00
   7.263293e+01   2.012122e+01
   7.865373e+00   6.861518e+01
  -6.904914e+01   4.639088e+01
  -7.129885e+01  -2.112993e+01
  -7.020027e+01  -7.592254e+01
  -1.791967e+01  -9.456230e+01
   7.604221e+01  -4.014322e+01
   4.223385e+01   7.190922e+01
   5.140379e+01   1.041191e+02
  -5.653066e+01   5.538128e+01
  -7.441353e+01  -1.576979e+01
  -4.951032e+01  -4.163566e+01
  -4.783922e+00  -9.059727e+01
   1.592684e+01  -5.107584e+00
  -3.026450e+01   2.738129e+01
  -3.848125e+01   6.204168e+00
  -4.882603e+01  -6.971869e+00
   9.342067e+01  -8.714541e+01
   1.653311e+02  -4.808004e+01
   2.290683e+01  -8.751557e+00
  -2.795683e+01   7.090932e+01
  -6.553468e+01   3.846707e+01
  -6.395480e+01  -1.263488e+01
   6.327340e+00  -5.589160e+01
   2.908681e+01  -5.409604e+01
   2.083094e+01   1.416652e+01
   4.835769e+01   7.432020e+01
  -1.086245e+01   3.828174e+01
  -3.007199e+01  -5.876737e+01
  -2.802819e+01  -2.816294e+01
  -8.515696e+00  -2.161157e+01
   1.042570e+01   5.472712e+01
  -4.167568e+01  -2.665485e+00
  -1.683230e+01  -3.039818e+00
   6.623409e+00  -2.544967e+01
  -4.408832e+00  -3.271247e+01
   1.840338e+01   8.623179e+01
  -4.563544e+01   3.227542e+01
  -1.981990e+01   3.312282e+01
  -5.523577e+01  -7.126991e+01
   2.532827e+01  -5.615960e+01
   5.240978e+01  -4.101428e+01
   6.690282e+01   6.118284e+00
   6.130507e+01   5.207909e+01
   6.722690e+00   1.396305e+01
  -5.529834e+01  -1.233223e+01
  -2.801958e+01   6.977158e+00
   4.556158e+01  -2.115684e+01
   2.319045e+01  -6.357308e+00
  -3.698111e+01   4.608334e+01
  -5.944001e+01   2.778997e+01
