
 $NMID
 id='ANONYMOUS ', fmtdat='(2E16.6)'
 volume=1.0
 tramp=1.0
 $END
   3.403557e+03  -3.745379e+02
   2.234104e+03   1.871081e+03
  -4.632360e+02   2.197987e+03
  -1.448715e+03   1.026071e+03
  -8.004130e+02  -1.564459e+02
   3.075214e+02  -2.280943e+02
   6.517220e+02   2.362775e+02
   4.246781e+01   7.744428e+02
  -4.310874e+02   5.930950e+02
  -7.111687e+02   9.982367e+01
  -4.800319e+02  -6.063787e+02
   1.486626e+02  -6.638717e+02
   4.273827e+02  -1.700065e+02
   3.154998e+02   5.169465e+02
  -2.154932e+02   6.033643e+02
  -4.265196e+02  -1.031885e+01
  -2.949246e+02  -4.755910e+02
   2.030355e+02  -5.655665e+02
   5.011499e+02  -1.539981e+02
   4.261331e+02   2.015415e+02
   9.794046e+01   4.251770e+02
  -1.372060e+02   2.387800e+02
  -1.441169e+02   1.864659e+01
   1.708650e+02  -8.010827e+00
   3.376424e+02   2.093911e+02
   8.558315e+01   3.411149e+02
  -4.844470e+02   2.836197e+02
  -6.068464e+02  -1.999003e+02
  -2.897246e+02  -4.402549e+02
   2.397034e+02  -3.187477e+02
   5.257394e+02   8.860367e+01
   2.227540e+02   4.063909e+02
  -3.122841e+02   3.862399e+02
  -4.745365e+02   1.393444e+02
  -3.547189e+02  -1.765390e+02
  -5.319071e+01  -3.549775e+02
   1.017115e+02  -2.476675e+02
   4.315038e+01   1.397968e+02
  -1.731114e+02   2.655308e+02
  -3.247287e+02  -8.956085e+01
  -9.286590e+01  -5.223174e+02
   2.333615e+02  -4.942966e+02
   4.082425e+02   5.350290e+01
   2.366724e+02   4.196949e+02
  -2.582273e+02   2.470576e+02
  -2.598115e+02  -2.561514e+02
   1.097519e+02  -4.189143e+02
   4.734946e+02  -7.260724e+01
   4.712526e+02   3.847022e+02
   1.435748e+02   4.956003e+02
  -3.411980e+02   3.021611e+02
  -5.671498e+02  -8.631547e+01
  -3.209023e+02  -2.672491e+02
   3.106236e+01  -2.763843e+02
   3.378998e+02  -5.207344e+01
   2.546866e+02   7.493692e+01
  -2.909755e+01   7.133193e+01
  -5.061130e+01  -7.460876e+01
   1.119677e+02  -7.135105e+01
   2.480370e+02   3.265825e+01
   1.406460e+02   1.900653e+02
  -1.287399e+02   2.412185e+02
  -3.596634e+02   1.054913e+02
  -2.363621e+02  -8.378964e+01
   4.699547e+01  -2.789915e+02
   2.595990e+02  -3.394308e+02
   2.879194e+02  -1.950871e+02
   2.451374e+02   1.515425e+02
   7.782835e+01   4.184172e+02
  -9.004878e+01   3.014372e+02
  -6.443279e+01   1.348927e+02
  -3.805804e+01   9.844233e+01
  -1.131742e+02   1.047599e+02
  -2.127224e+02   6.244359e+01
  -2.673695e+02  -7.280391e+01
  -9.478448e+01  -2.239466e+02
   6.960236e+01  -1.931321e+02
   1.863884e+02   8.091945e+00
   1.506428e+02   2.044221e+02
  -1.463935e+01   2.452881e+02
  -2.683967e+02   9.068110e+01
  -2.949125e+02  -1.511256e+02
  -1.532381e+02  -2.863653e+02
   9.275445e+01  -2.549222e+02
   1.643166e+02  -8.333505e+01
   2.040658e+02  -2.350718e+01
   9.752272e+01  -5.123824e+01
   2.649373e+02  -7.100740e+01
   4.037517e+02   8.704597e+01
   3.014660e+02   2.801109e+02
  -2.943573e+01   4.121994e+02
  -3.927417e+02   4.276738e+02
  -4.544668e+02   1.975370e+02
  -3.060241e+02  -7.028588e+01
  -1.147918e+01  -2.605535e+02
   6.910936e+01  -2.044795e+02
   5.396756e+01  -5.029197e+01
  -1.146655e+02   5.911819e+01
  -1.694373e+02  -1.803419e+00
  -2.843232e+01  -1.660263e+02
   1.193318e+02  -1.300797e+02
   1.482158e+02   6.597169e+01
   3.014302e+01   1.418998e+02
  -1.978643e+02  -1.933156e+01
  -1.550156e+02  -2.437805e+02
   2.424769e+01  -3.112809e+02
   2.304722e+02  -1.746380e+02
   3.183321e+02   9.254848e+01
   2.465088e+02   2.000781e+02
   7.577532e+01   2.070717e+02
  -1.605026e+02   1.370664e+02
  -9.080674e+01   4.312496e+00
  -2.711651e+01   9.649633e-01
   6.652525e+01   3.402926e+01
   3.547380e-01   1.238073e+02
  -1.250815e+02   8.385649e+01
  -1.490795e+02  -3.789006e+01
  -4.256002e+01  -4.984466e+01
   9.127983e+01   2.769475e+01
   6.688816e+01   5.223226e+01
  -1.595671e+02   5.430591e+01
  -2.831347e+02  -3.377292e+01
  -2.852066e+02  -1.699651e+02
  -2.210734e+01  -2.003908e+02
   1.788526e+02  -2.258353e+02
   2.641515e+02  -1.124949e+02
   1.632509e+02   4.116284e+01
   3.800996e+00   1.032221e+02
  -7.923876e+01   7.111432e+00
   7.634713e+01  -4.188392e+01
   2.085472e+02  -3.719286e+01
   2.220512e+02   8.492673e+01
   8.976428e+01   1.820316e+02
  -7.934501e+01   8.238798e+01
  -9.750855e+01   8.026158e+00
  -7.510489e+01  -2.858700e+00
   2.093549e+01  -8.700204e+00
   1.726916e+01   5.929737e+01
  -1.068207e+02   1.093837e+02
  -1.891090e+02   5.661958e+01
  -1.820010e+02  -9.338878e+01
   1.318302e+01  -1.698890e+02
   1.602078e+02  -1.185979e+02
   1.593043e+02  -7.190380e+00
   2.909998e+01   9.078002e+01
  -6.266647e+01   7.854484e+01
  -4.518829e+01   1.415066e+01
  -1.278882e+01  -2.760242e+01
   3.623167e+01   1.267269e+00
  -1.342507e+01  -1.943970e+00
  -8.051087e+01  -2.209775e+01
  -1.153997e+02  -8.379726e+01
  -1.486482e+01  -1.386145e+02
   1.222685e+02  -1.377294e+02
   1.844427e+02  -3.220316e+01
   2.342506e+02   1.347516e+02
   2.841958e+01   2.658852e+02
  -1.097984e+02   1.566446e+02
  -1.466982e+02   4.102095e+01
  -7.556086e+01  -5.286673e+01
  -4.305374e+01  -1.655430e+01
  -7.187815e+01   2.523001e+01
  -9.408600e+01   8.425650e+00
  -5.593621e+01  -3.667212e+01
  -1.165698e+01  -1.401126e+02
   1.096707e+02  -9.350586e+01
   7.293152e+01   4.336507e+01
  -9.649954e+00   1.219609e+02
  -1.504570e+02   8.397393e+01
  -2.148480e+02  -4.754218e+01
  -3.907493e+01  -1.909274e+02
   1.049583e+02  -1.840939e+02
   2.700488e+02  -1.074555e+02
   2.554718e+02   7.142672e+01
   1.404874e+02   1.990581e+02
  -1.212672e+01   1.366415e+02
  -9.785493e+01   4.096493e+01
  -6.622901e+01   7.377217e+01
  -1.618628e+01   9.760165e+01
  -1.223583e+02   8.838716e+01
  -1.269332e+02   3.345307e+00
  -1.115770e+02  -7.303774e+01
  -1.482100e+01  -2.194870e+02
   7.744294e+01  -1.120172e+02
   2.053597e+02  -1.576655e+01
   9.132934e+01   8.839401e+01
  -1.917168e+01   1.696936e+02
  -7.555784e+01   1.025405e+02
  -3.458052e+01  -3.109041e+01
   5.018360e+00  -4.770819e+01
   4.485328e+01  -3.290446e+01
  -2.729215e+01  -2.363657e+01
  -9.259036e+01   2.463182e+01
  -2.251673e+01  -5.875973e+00
   8.132490e+01  -3.961365e+01
   1.709869e+02   1.012072e+00
   1.241897e+02   7.106929e+01
   1.560033e+01   8.900179e+01
  -1.106057e+02   8.567426e+01
  -1.218957e+02   2.991607e+01
  -5.160909e+01  -1.807743e+00
   7.182377e+01  -3.165119e+01
   1.064773e+02   2.981160e+01
   5.990112e+00   4.904748e+01
  -3.843293e+01   3.819853e+01
  -8.085705e+01  -1.764317e+01
  -9.397874e+00  -4.196535e+01
  -2.846361e+01  -5.510137e+01
  -5.583469e+00  -2.419764e+01
  -5.112730e+01   1.065181e+01
  -2.944108e+01  -6.851894e+01
   4.202613e+01  -1.822233e+02
   9.986862e+01  -1.461062e+02
   1.713399e+02  -6.837581e+01
   1.100541e+02   9.559860e+01
   1.342274e+01   1.474971e+02
  -6.201714e+01   5.847041e+01
  -8.137391e+01  -5.284824e+01
   6.138165e+01  -4.605390e+01
   1.200538e+02  -2.201896e+01
   4.956419e+01   9.129238e+01
  -5.867786e+01   9.807870e+01
  -1.982839e+02   2.457018e+01
  -1.525430e+02  -2.274853e+01
  -3.709699e+01  -1.117353e+02
   3.743679e+01  -1.729616e+01
   7.907259e+01  -2.362711e+01
  -6.136424e+01   3.575394e+01
  -1.090721e+02   1.479757e+01
  -7.156502e+01  -7.669196e+01
   7.690375e+01  -1.547700e+02
   1.401541e+02  -5.733673e+01
   1.253722e+02   8.945297e+01
   1.085722e+01   1.780804e+02
  -7.210476e+01   1.405271e+02
  -7.208769e+01   1.845939e+01
  -2.380475e+00  -9.959188e+01
   4.100571e+01  -8.624769e+01
   6.302252e+01  -5.288462e+01
   5.693556e+01   3.009437e+01
   2.468289e+01   2.735707e+01
   1.443143e+01   1.594616e+01
   4.391561e+01   1.857603e+01
   6.477162e+01   6.293217e+01
   6.409726e+01   1.183485e+02
  -4.555699e+01   1.895890e+01
  -1.530589e+02  -4.530166e+01
  -1.026630e+02  -4.541779e+01
   1.779063e+01  -4.583845e+01
   5.944662e+01  -6.592538e+01
   8.866926e+01  -1.268373e+01
   4.385934e+01   7.246740e+00
  -1.449216e+01   2.102626e+01
  -3.569879e+01  -9.729488e+00
   4.652812e+01   3.085318e+01
   1.844718e+01   8.663671e+00
  -6.850704e+01  -7.157107e+00
  -9.516881e+01  -2.252832e+01
   1.070744e+01  -8.681549e+01
   1.005185e+02  -9.266983e+01
   1.455035e+02  -5.685007e+01
   1.646835e+02   4.048285e+01
   4.234389e+01   1.258017e+02
  -5.132226e+01   1.441426e+02
  -1.345323e+02   8.147768e+01
  -1.025175e+02   3.420710e+00
  -4.764173e+01  -7.526919e+01
   1.515699e+01  -6.702396e+00
   3.611777e+01  -2.354884e+01
  -6.039405e+01  -5.511280e+01
  -5.572570e+00  -8.166031e+01
   3.342831e+01  -1.003981e+02
   8.488510e+01  -7.575798e+00
   8.562386e+01   1.033090e+02
   1.098295e+01   1.097985e+02
  -1.018327e+02   4.718708e+01
  -9.171545e+01  -6.732634e+01
  -4.946818e+01  -1.035591e+02
   7.240372e+01  -1.499777e+01
   9.859148e+01   2.279146e+01
   1.666816e+01   4.352571e+01
   4.052464e+00   6.701504e+01
  -5.923555e+00  -7.199666e+00
   2.117895e+01   1.562893e+01
   2.945829e+01  -4.486731e+01
   3.709777e+01   3.474079e+01
  -7.661925e+01   3.469339e+01
  -1.063626e+02   4.105524e+01
  -2.836754e+01  -4.118169e+00
   9.373153e+00  -6.949645e+01
   4.445544e+01  -7.539806e+01
   5.800194e+01   2.355954e+01
  -1.183636e+01   4.763252e+01
  -3.444280e+01  -2.039321e-01
  -1.512272e+01   1.851925e+01
  -2.335613e+01  -7.417583e+01
   1.543239e+01  -1.530375e+01
  -2.266444e+01   3.199695e+01
   3.789318e+01   3.878541e+01
  -5.222166e+00   2.321717e+01
  -1.275515e+01  -8.807847e+00
  -1.631593e+01  -4.090531e+00
   1.642241e+01   5.338541e+01
  -1.944634e+01   7.242156e+01
  -4.787938e+01  -2.978354e+00
  -5.507792e-01  -1.513711e+01
   2.264843e+00  -3.782690e+01
   5.190107e+01  -2.932988e+01
   8.058036e+01   4.611686e+01
   2.517751e+01   1.008154e+02
  -4.057692e+01   1.048015e+02
  -7.616936e+01   2.014981e+01
  -2.651282e+01  -4.064416e+01
   2.640199e+01   6.699838e+00
   8.374746e+01   2.228430e-01
   1.999768e+01   2.573974e+01
  -7.433772e+01   2.983357e+01
  -4.519589e+01   2.370201e+01
   5.765085e+01  -3.494822e+01
   5.079204e+01  -4.729315e+01
