
 $NMID
 id='ANONYMOUS ', fmtdat='(2E16.6)'
 volume=1.0
 tramp=1.0
 $END
   4.183221e+03   1.095814e+02
   2.198223e+03   2.663505e+03
  -8.056577e+02   2.593989e+03
  -1.985843e+03   7.896056e+02
  -7.093657e+02  -5.301795e+02
   6.327677e+02  -3.861729e+02
   7.752563e+02   4.957425e+02
  -7.526577e+01   9.295323e+02
  -8.247757e+02   6.615261e+02
  -7.707460e+02  -1.357022e+02
  -3.714266e+02  -8.851909e+02
   2.951580e+02  -8.213956e+02
   5.851368e+02  -1.329573e+02
   3.490422e+02   7.184236e+02
  -3.121406e+02   7.152669e+02
  -5.238279e+02  -3.689732e+00
  -2.479264e+02  -6.666711e+02
   3.486178e+02  -5.679521e+02
   4.582167e+02  -1.440339e+02
   3.763705e+02   3.004920e+02
   1.806869e+01   4.215097e+02
  -2.378984e+02   2.590615e+02
  -2.002979e+02  -9.385663e+00
   1.201954e+02  -4.016784e+01
   4.124216e+02   1.231511e+02
   1.053431e+02   4.525901e+02
  -5.291437e+02   3.728782e+02
  -8.055731e+02  -1.096327e+02
  -3.352029e+02  -5.992942e+02
   4.085830e+02  -4.564718e+02
   7.113147e+02   6.479117e+01
   3.303549e+02   4.518184e+02
  -3.484954e+02   4.684019e+02
  -5.210751e+02   1.409562e+02
  -3.357252e+02  -2.291640e+02
  -2.425725e+01  -4.336933e+02
   1.658308e+02  -3.380358e+02
   8.427405e+01   2.575598e+02
  -1.969160e+02   4.583482e+02
  -4.476998e+02  -8.750983e+01
  -1.846951e+02  -5.833181e+02
   3.261988e+02  -7.140059e+02
   5.105698e+02   8.631354e+01
   2.391245e+02   5.440304e+02
  -3.190798e+02   2.895331e+02
  -3.503261e+02  -3.104127e+02
   5.070604e+00  -4.852033e+02
   5.449249e+02  -1.083293e+02
   5.408713e+02   3.936975e+02
   1.388977e+02   5.607416e+02
  -3.993215e+02   3.386930e+02
  -6.427928e+02  -8.582592e+01
  -2.880380e+02  -3.605852e+02
   1.571898e+02  -3.425484e+02
   4.096593e+02  -8.397819e+01
   2.533820e+02   1.874764e+02
  -1.307407e+02   8.999731e+00
  -1.137167e+02  -2.095575e+02
   2.004650e+02  -1.349354e+02
   3.535047e+02   8.498779e+01
   1.250043e+02   3.095074e+02
  -2.360682e+02   2.889219e+02
  -3.157404e+02   9.359379e+01
  -1.789365e+02  -6.008322e+01
   1.450134e+01  -2.633264e+02
   1.678593e+02  -3.293371e+02
   4.044052e+02  -2.200103e+02
   2.829595e+02   1.793646e+02
   5.932291e+01   4.048966e+02
  -1.120141e+02   4.025059e+02
  -1.030092e+02   8.556818e+01
   1.207316e+00  -2.762759e+01
  -8.138705e+01   1.090342e+02
  -1.757555e+02   9.118853e+01
  -2.584126e+02  -1.101187e+02
  -1.424790e+02  -2.575193e+02
   5.912673e+01  -2.659982e+02
   2.326973e+02  -2.447532e+01
   2.119030e+02   2.434903e+02
  -2.146262e+01   2.359916e+02
  -2.702592e+02   7.914925e+01
  -2.990904e+02  -1.609636e+02
  -1.328931e+02  -3.253423e+02
   6.388235e+01  -2.637835e+02
   2.609107e+02  -1.438483e+02
   1.184733e+02  -3.648101e+01
   7.877772e+01  -1.300076e+01
   2.728547e+02  -7.716225e+01
   3.393459e+02   1.893004e+01
   3.406969e+02   2.760535e+02
  -4.527299e+00   4.216448e+02
  -3.213413e+02   4.350298e+02
  -5.435131e+02   1.830341e+02
  -2.796301e+02  -1.250618e+02
  -2.882776e+01  -2.845389e+02
   1.171090e+02  -2.220729e+02
   7.722183e+01  -6.576962e+00
  -1.051376e+02   1.092379e+02
  -1.880249e+02   1.935481e+00
   1.476160e+01  -1.807493e+02
   1.535491e+02  -1.425002e+02
   2.052747e+02   7.479683e+01
  -4.599472e+01   1.896699e+02
  -2.222352e+02   7.874046e+00
  -1.653907e+02  -2.291577e+02
   2.405246e+01  -3.366361e+02
   2.486181e+02  -1.957553e+02
   3.224371e+02   5.702921e+01
   2.296724e+02   1.871847e+02
   6.538797e+01   2.786453e+02
  -1.159791e+02   1.706274e+02
  -1.627328e+02   3.831673e+01
  -6.641893e+01  -4.115929e+00
   4.530817e+01   4.896089e+00
   2.405039e+01   1.351219e+02
  -1.333114e+02   1.386335e+02
  -2.049659e+02  -3.302291e+01
  -7.074275e+01  -1.152618e+02
   1.230239e+02   1.170827e+00
   5.212793e+01   6.698356e+01
  -1.342606e+02   6.266842e+01
  -2.690279e+02   1.618914e+01
  -2.628797e+02  -1.462620e+02
  -1.003417e+00  -2.494991e+02
   1.742291e+02  -2.624991e+02
   2.660645e+02  -1.003735e+02
   1.387819e+02   5.169761e+01
  -1.990015e+01   1.067651e+02
  -9.703116e+01  -1.609874e+01
   4.090284e+01  -1.053507e+02
   1.501996e+02  -1.905495e+01
   2.027194e+02   8.022837e+01
   6.013698e+01   1.724591e+02
  -1.270853e+02   1.456666e+02
  -1.313066e+02   5.597508e+00
  -3.557779e+01  -3.774191e+01
   4.461596e+01   1.601519e+01
   5.185900e+01   4.472185e+01
  -8.308421e+01   9.386190e+01
  -1.905132e+02   2.366019e+01
  -1.781717e+02  -1.388310e+02
  -6.438378e+01  -2.026155e+02
   1.543012e+02  -1.569313e+02
   2.143310e+02   1.565301e+01
   7.857620e+01   8.624940e+01
  -6.753595e+01   1.163808e+02
  -7.195068e+01   2.893445e+01
  -6.852867e+01  -7.573262e+00
   4.453569e+01   2.236781e+01
  -7.915742e+00   1.530173e+01
  -4.316169e+01   2.060266e+01
  -5.841187e+01  -6.880873e+01
  -3.969765e+01  -1.601305e+02
   1.336961e+02  -1.483069e+02
   2.073494e+02  -3.397215e+01
   1.797574e+02   1.194778e+02
   6.670352e+01   2.166848e+02
  -8.130479e+01   1.404442e+02
  -1.293707e+02   4.984489e+01
  -6.564311e+01  -8.783876e+00
   9.033644e+00  -4.444967e+01
  -7.735731e+01   3.207420e+01
  -4.661803e+01  -2.621911e+01
  -4.173105e+01  -5.304575e+01
   4.002984e+01  -9.869779e+01
   7.858217e+01  -2.981017e+01
   6.909934e+01   5.777447e+01
  -3.261089e+01   1.016951e+02
  -1.595193e+02   4.682703e+01
  -1.833678e+02  -4.700431e+01
  -7.890719e+01  -2.015965e+02
   5.906776e+01  -1.923660e+02
   2.540895e+02  -1.052733e+02
   2.672012e+02   4.457307e+01
   1.329245e+02   1.753662e+02
  -1.790629e+01   1.547254e+02
  -9.631617e+01   8.490490e+01
  -7.604153e+01   7.702137e+01
  -9.806063e+01   7.805243e+01
  -1.133252e+02   5.883541e+01
  -1.338675e+02  -7.368621e-01
  -1.336115e+02  -1.315656e+02
   1.388244e+00  -2.650715e+02
   1.133800e+02  -1.700780e+02
   1.672998e+02  -2.414294e+01
   1.594924e+02   1.188220e+02
   6.222507e+01   2.091026e+02
  -1.112265e+02   1.027984e+02
  -6.508745e+01   1.049171e+01
   3.519625e+01  -5.206954e+01
   2.121973e+01  -4.498659e+01
  -4.651531e+01  -2.984813e+01
  -7.277170e+01  -1.331967e+01
  -2.198352e+01  -6.369325e+01
   5.747127e+01  -4.274884e+01
   1.170053e+02  -1.034222e+01
   1.451005e+02   9.392343e+01
   4.133351e+01   9.699237e+01
  -1.113642e+02   9.181190e+01
  -1.404994e+02  -2.386765e+01
  -5.697436e+01  -1.003325e+02
   5.431916e+01  -8.122885e+01
   8.836350e+01   2.616133e+01
  -4.523093e+00   5.420067e+01
  -6.376959e+00   3.176573e+01
  -5.495508e+01  -1.460452e+01
  -3.444893e+01  -4.910903e+01
  -2.970644e+01  -4.249450e+01
  -5.255707e+01   3.451522e+01
  -9.618111e+01  -1.417744e+01
  -2.607363e+01  -6.569634e+01
   4.520983e+00  -1.553095e+02
   1.322114e+02  -1.279857e+02
   1.811386e+02  -3.571880e+01
   1.223836e+02   1.040053e+02
   1.370778e+01   1.489797e+02
  -6.974542e+01   8.485420e+01
  -7.617698e+01  -5.022596e+00
  -3.775028e+00  -1.840125e+01
   1.321585e+02   4.835421e+01
   4.940243e+01   1.204199e+02
  -3.716677e+01   1.023228e+02
  -2.353698e+02   5.220839e+01
  -1.351803e+02  -3.700258e+01
  -9.667718e+00  -8.144598e+01
   8.370230e+01  -1.130673e+02
   5.037819e+01   1.278132e+01
  -5.231856e+01   9.064950e+00
  -1.159819e+02  -2.047392e+01
  -4.681803e+01  -9.781212e+01
   6.896336e+01  -1.253573e+02
   1.643682e+02  -8.347338e+01
   1.389946e+02   1.119919e+02
   3.084895e+01   1.870211e+02
  -5.342025e+01   1.152725e+02
  -7.320535e+01  -3.100249e+01
  -8.838007e+01  -1.115591e+02
  -1.579592e+01  -8.275273e+01
   2.787388e+01  -4.347743e+00
   4.799265e+01   2.123498e+01
   2.105366e+01   2.479676e+01
   2.706801e+01  -3.177914e+01
   3.251640e+00   2.927699e+01
   4.941692e+01   1.198823e+02
   5.580854e+01   9.203005e+01
  -7.427523e+01  -1.237905e+01
  -9.929632e+01   2.969376e+01
  -1.290829e+02  -4.326357e+01
  -3.244649e+01  -1.061022e+02
   7.490660e+01  -1.462184e+01
   1.215914e+02  -1.053598e+01
  -4.055501e+00  -1.103154e+01
  -7.133431e+01  -7.665311e+00
  -2.733912e+01   4.209041e+01
   3.542175e+01   1.448880e+01
   2.516444e+01  -5.138687e+00
  -8.507487e+01   3.055146e+01
  -1.106938e+02  -9.513667e+00
   2.473169e+01  -6.079173e+01
   1.182694e+02  -1.127179e+02
   1.648629e+02  -4.366073e+01
   1.638924e+02   5.852995e+01
  -3.800269e+00   1.573700e+02
  -7.882897e+01   1.595338e+02
  -1.117123e+02   5.028632e+01
  -7.912086e+01  -2.453825e+01
  -4.406211e+01  -3.240296e+01
  -2.909100e+01  -6.853015e+00
  -1.951695e+01  -1.208401e+01
   7.057711e+00  -3.383775e+01
  -6.022424e+00  -9.652288e+01
  -4.663153e+00  -4.214584e+01
   6.498349e+01   8.688818e+00
   4.413116e+01   1.006801e+02
  -2.726356e+01   1.107744e+02
  -9.870493e+01   1.998873e+01
  -1.025091e+02  -9.886133e+01
  -4.075220e+01  -9.789442e+01
   6.490242e+01  -6.758694e+01
   8.197582e+01   1.184396e+01
   3.364095e+01   6.580480e+01
  -5.656063e+01   1.554147e+01
  -2.855090e+01   2.760910e+01
   3.571348e+01  -1.825989e+00
   5.975636e+01   2.529671e+00
  -1.787630e+01  -1.857329e+00
  -4.665238e+01   6.015449e+01
  -1.002286e+02   3.881028e+01
  -5.416851e+01  -7.095518e+01
   4.880754e+00  -6.010471e+01
   8.848458e+01  -9.108132e+01
   4.120701e+01   2.499073e+01
  -4.877740e+01   6.760282e+01
  -6.225551e+00   2.940758e+01
  -6.665856e+01  -3.460440e+01
  -1.550874e+01  -6.990708e+01
   3.980565e+01  -2.075528e+01
   2.189631e+01  -6.604564e+00
   3.287948e+01   3.651102e+01
  -3.298779e+01  -1.356026e+01
   9.757467e+00  -1.166869e+01
  -4.331571e+01   2.656708e+01
  -4.062168e+01   2.101440e+01
   8.655696e+00   1.965850e+01
  -3.760644e+01   1.022663e+01
  -5.649090e+00   7.740719e+00
   6.459793e+00  -5.099063e+01
   5.840051e+01  -9.065174e+00
   1.193707e+02  -4.411877e+01
   1.851128e+01   3.263776e+01
  -5.005677e+01   3.941672e+01
  -8.987989e+01  -1.900176e+01
  -7.841300e+01  -2.789039e+01
   5.001646e+01  -5.928229e+01
   8.491690e+01   2.485533e+01
   3.242632e+01  -8.387932e+00
  -2.652182e+01  -2.622525e+01
  -4.203233e+01  -1.390302e+01
   4.734357e+01  -3.458614e+01
   1.007165e+02  -5.445534e+01
