
 $NMID
 id='ANONYMOUS ', fmtdat='(2E16.6)'
 volume=1.0
 tramp=1.0
 $END
  -3.897054e+03  -2.924098e+02
  -2.075030e+03  -2.497824e+03
   6.098245e+02  -2.368546e+03
   1.804690e+03  -7.201602e+02
   7.019095e+02   3.809823e+02
  -4.871320e+02   2.734086e+02
  -6.654293e+02  -4.510002e+02
   1.121002e+02  -7.888909e+02
   7.616900e+02  -6.621589e+02
   6.865338e+02   8.054233e+01
   3.862759e+02   7.868568e+02
  -2.578110e+02   7.208369e+02
  -5.207146e+02   1.803926e+02
  -3.247125e+02  -6.015231e+02
   2.871143e+02  -6.256936e+02
   4.874304e+02  -5.422276e+01
   2.254275e+02   6.449661e+02
  -2.499676e+02   5.168579e+02
  -4.974303e+02   1.556568e+02
  -3.855520e+02  -2.587376e+02
  -3.368712e+01  -3.963463e+02
   2.094642e+02  -2.611568e+02
   1.586243e+02  -5.535121e+01
  -1.658253e+02   4.119363e+01
  -3.176171e+02  -1.339540e+02
  -7.404119e+01  -4.202503e+02
   5.214459e+02  -3.003977e+02
   7.549554e+02   1.291127e+02
   2.808376e+02   5.378068e+02
  -4.125769e+02   3.689986e+02
  -7.256707e+02  -8.025533e+01
  -2.795735e+02  -3.992733e+02
   3.263711e+02  -4.831905e+02
   4.822306e+02  -1.570540e+02
   3.780803e+02   2.085232e+02
   1.401216e+01   3.841412e+02
  -1.604779e+02   2.583585e+02
  -6.156999e+01  -2.591897e+02
   2.260497e+02  -3.997651e+02
   3.612226e+02   9.861793e+01
   1.222973e+02   6.283521e+02
  -2.951073e+02   5.845020e+02
  -5.148146e+02  -4.513945e+01
  -2.072862e+02  -4.643045e+02
   2.646394e+02  -2.335769e+02
   3.460955e+02   3.662994e+02
  -3.179650e+00   4.757100e+02
  -4.646015e+02   2.826433e+01
  -4.889073e+02  -3.582853e+02
  -1.420838e+02  -5.253439e+02
   3.618430e+02  -3.192834e+02
   5.982337e+02   1.125516e+02
   3.026364e+02   2.982215e+02
  -1.631973e+02   3.141590e+02
  -3.779555e+02  -4.171362e+00
  -2.562261e+02  -1.462575e+02
   6.535477e+01  -5.928862e+01
   1.272547e+02   1.085695e+02
  -2.053373e+02   1.204995e+02
  -3.338700e+02  -6.634970e+01
  -1.262309e+02  -2.705624e+02
   1.753362e+02  -2.696595e+02
   2.744125e+02  -7.326170e+01
   1.763022e+02   6.129438e+01
  -3.815629e+01   1.974737e+02
  -2.249108e+02   3.518301e+02
  -3.657512e+02   1.858693e+02
  -2.484623e+02  -1.741323e+02
  -3.032997e+01  -3.697229e+02
   8.438678e+01  -3.334267e+02
   8.034309e+01  -1.046207e+02
  -2.488856e+01  -1.964357e+01
   2.834557e+01  -8.961447e+01
   1.799741e+02  -7.151332e+01
   2.322089e+02   7.358649e+01
   1.467521e+02   2.791165e+02
  -5.250293e+01   2.136387e+02
  -2.121729e+02   2.836086e+01
  -2.039789e+02  -2.641642e+02
   4.153468e+01  -2.899383e+02
   2.731038e+02  -1.171482e+02
   3.193567e+02   1.907700e+02
   1.562817e+02   3.229803e+02
  -3.031661e+01   2.697883e+02
  -2.091520e+02   1.538084e+02
  -1.334825e+02   3.050847e+01
  -8.982061e+01   6.204531e+01
  -2.645130e+02   5.509569e+01
  -3.646166e+02  -5.649172e+01
  -3.311550e+02  -2.877806e+02
  -2.808696e+00  -4.051046e+02
   3.347716e+02  -4.006201e+02
   4.906865e+02  -1.671028e+02
   3.465325e+02   8.564523e+01
   1.476037e+01   3.125323e+02
  -8.468339e+01   2.354154e+02
  -3.434386e+01   4.301068e+01
   7.862166e+01  -6.667167e+01
   1.803823e+02   3.664363e+01
   5.439683e+01   1.587176e+02
  -1.802098e+02   1.903052e+02
  -1.420410e+02  -4.563521e+01
   4.168981e+01  -2.051679e+02
   2.118931e+02   1.011627e+01
   1.786690e+02   2.230766e+02
  -3.969444e+01   3.344944e+02
  -2.277653e+02   1.975870e+02
  -3.460162e+02  -6.222735e+01
  -2.278802e+02  -1.811658e+02
  -7.513984e+01  -2.735142e+02
   1.369144e+02  -1.600107e+02
   1.678515e+02   4.323421e-01
   3.168560e+01   7.383938e+00
  -6.051003e+01  -5.928263e+01
  -3.517781e+01  -1.526644e+02
   1.139573e+02  -9.478216e+01
   1.682074e+02   1.980420e+01
   3.025423e+01   8.104158e+01
  -1.052913e+02   1.341704e+01
  -9.101345e+00  -4.344065e+01
   1.346966e+02  -7.638727e+01
   2.646768e+02  -1.257625e+01
   3.131762e+02   1.533643e+02
   3.464518e+01   2.214089e+02
  -1.905743e+02   2.286224e+02
  -1.989806e+02   1.120510e+02
  -1.361758e+02  -5.550395e+01
   6.789880e+01  -7.364748e+01
   6.590334e+01   1.340108e+01
  -3.003794e+01   9.019258e+01
  -1.621250e+02   3.459786e+01
  -2.227032e+02  -8.097969e+01
  -6.828471e+01  -1.747774e+02
   1.113617e+02  -1.425187e+02
   1.627779e+02  -4.536228e+01
   5.377036e+01   6.333957e+01
  -2.680714e+01  -2.042028e+01
  -6.231237e+00  -5.915857e+01
   3.736115e+01  -7.878106e+01
   2.330900e+02  -3.338573e+01
   1.991665e+02   1.551788e+02
   3.679669e+01   2.183591e+02
  -1.328976e+02   1.872429e+02
  -1.905460e+02   1.507256e+01
  -9.948956e+00  -1.084251e+02
   5.659397e+01  -8.737731e+01
   5.286931e+01  -6.554514e+01
   2.119117e+01   3.848240e+01
  -5.961406e+01   4.723202e+01
   6.376957e+00  -1.738219e+01
   3.190358e+01   1.310797e+01
   8.482605e+01   5.638680e+01
   4.921252e+01   1.353455e+02
  -1.442169e+02   1.185055e+02
  -2.125528e+02   3.916123e+01
  -1.844810e+02  -1.484353e+02
  -5.409834e+01  -2.125134e+02
   8.151631e+01  -1.414647e+02
   9.529514e+01  -2.553450e+01
   9.002665e+01   2.566698e+01
   8.247049e+00   3.941063e+01
   5.860806e+01  -4.678160e+01
   7.811080e+01  -3.992115e+00
   5.096443e+01   5.735671e+01
   1.163350e+01   1.005957e+02
  -9.167657e+01   3.838643e+01
  -1.135406e+02  -5.507638e+01
   1.566745e+01  -1.151612e+02
   1.076614e+02  -4.718237e+01
   1.599236e+02   4.705755e+01
   1.082090e+02   2.119230e+02
  -8.530404e+01   2.096011e+02
  -2.953011e+02   6.801446e+01
  -2.239176e+02  -8.945337e+01
  -9.566365e+01  -1.900767e+02
   2.266674e+01  -1.393322e+02
   5.805839e+01  -7.552432e+01
   4.489449e+01  -7.118507e+01
   1.057069e+02  -4.322518e+01
   8.680044e+01  -8.890155e+01
   1.309334e+02  -3.316585e+01
   7.524481e+01   1.269574e+02
  -1.111752e+01   2.177066e+02
  -1.250313e+02   1.603114e+02
  -1.655059e+02   9.203991e+00
  -1.218042e+02  -9.046458e+01
  -1.150551e+01  -1.276429e+02
   8.501897e+01  -8.480444e+01
   6.098922e+01  -1.718280e+01
  -1.730444e+00   5.534220e+01
  -3.461055e+01   4.376304e+01
   2.299115e+01   4.267613e+01
   6.195230e+01  -6.808202e+00
   1.796947e+01   1.077914e+02
  -7.392978e+01   1.070234e+01
  -1.737178e+02  -1.991512e+01
  -1.111279e+02  -3.145271e+01
  -3.870524e+01  -9.502007e+01
   1.347689e+02  -8.566343e+01
   1.111273e+02  -1.366028e+01
   2.725744e+01   5.478401e+01
  -7.827238e+01   2.167348e+01
  -8.551522e+01   2.596003e+00
  -7.081505e-01  -8.028483e+01
   6.168757e+01  -6.282989e+01
   5.363518e+01  -1.788348e+00
   5.500113e+01   3.312433e+01
   7.226956e+01   1.439167e+01
   4.117220e+01   1.320228e+01
   7.312759e+01  -1.648974e+01
   1.571089e+01   6.772943e+01
  -3.585051e+01   1.422510e+02
  -1.234051e+02   8.726800e+01
  -1.961471e+02   4.051980e+01
  -1.014896e+02  -1.089255e+02
   1.644875e+01  -1.241496e+02
   5.949394e+01  -5.637492e+01
   6.695103e+01   5.603938e+00
  -5.619425e+01  -8.657166e+00
  -1.361477e+02  -1.783155e+01
  -5.297482e+01  -1.135232e+02
   1.045706e+02  -1.339825e+02
   1.266254e+02  -6.006327e+01
   1.281813e+02   1.406001e+01
   8.638876e+00   1.070439e+02
  -5.517107e+01   7.134311e+01
  -6.183811e+01   1.206530e+01
   2.295710e+01  -9.723287e+00
   7.163951e+01   2.273735e+01
   1.316625e+00   1.251473e+02
  -9.299502e+01   1.366362e+02
  -1.672272e+02   6.415129e+01
  -1.096930e+02  -1.306359e+02
  -1.471289e+01  -1.892365e+02
   9.479502e+01  -1.217816e+02
   6.008952e+01  -3.607375e+01
   5.274007e+01   9.809387e+01
  -1.486719e+01   1.086237e+02
  -2.542226e+01   4.013434e+01
  -5.263320e+01  -6.098623e+01
   4.378518e+00   1.404326e+01
   2.433547e+00   4.436222e+01
  -1.724046e+01  -2.252265e+01
  -5.456356e+01  -1.103003e+02
  -7.138288e+01  -6.125877e+01
   5.778266e+01  -5.467114e+01
   1.102874e+02   3.683684e+01
   1.004074e+02   5.982631e+01
   3.718074e+01   3.901409e+01
  -4.253657e+01   2.321047e+01
  -1.044192e+02  -1.210268e+01
   1.476978e+01  -1.110299e+01
   1.188880e+01  -1.988085e-01
   6.190733e+01  -2.765149e+01
  -1.675054e+01   5.507255e+01
   3.472798e+00   3.215010e+01
   7.198275e+01  -2.663499e+01
   1.047363e+02   2.942273e+01
  -6.565008e-01   7.191640e+01
  -1.261906e+02   9.795538e+01
  -1.657317e+02   7.957273e+01
  -1.412331e+02  -6.425452e+01
  -1.548559e-01  -1.739149e+02
   3.723575e+01  -1.359593e+02
   5.203251e+01  -5.578876e+01
   5.183398e+01   2.935370e+01
   1.951200e+01   5.390018e+01
  -7.433936e+00  -9.665721e+00
   2.245878e+01   1.005138e+01
   5.175834e+01   6.032246e+01
   4.014628e+01   1.158168e+02
  -4.212442e+01   2.509648e+01
  -6.543436e+01  -2.375519e+01
  -5.601061e+01  -1.178207e+02
  -1.607174e+01  -7.646015e+01
   6.898140e+01  -3.703169e+01
   1.070530e+02  -1.194004e+01
   1.452946e+01   1.172456e+02
  -6.676374e+01   4.458632e+01
  -6.745777e+01  -2.800267e+00
  -5.593691e+01  -7.784078e+01
   5.835004e+01  -2.479934e+01
   7.782089e+01   1.053943e+01
  -1.931904e+01  -6.985314e+00
  -5.555976e+01  -5.425361e+00
   4.164009e+01  -3.597065e+00
   5.066244e+01  -5.975926e+01
   7.737358e+01  -7.476083e+01
   7.656303e+01   4.502719e+01
   1.281052e+01   7.330623e+01
  -3.177042e+01   7.640116e+01
  -3.171408e+01   3.124357e+00
  -4.252314e+00  -2.887274e+01
   2.071081e+01  -2.002048e+01
   1.575861e+00  -3.904025e+00
   4.290906e+01   2.938810e+01
   5.512741e+00   2.557814e+01
  -5.030075e+01  -1.093829e+01
  -5.527223e+01  -1.212337e+01
   9.123688e+00   4.802701e+01
  -5.490925e+00   2.822605e+01
   2.882898e+00   1.206581e+00
  -9.891524e+00  -4.439912e+01
   2.601034e+01  -4.938977e+01
   1.710023e+01  -7.345364e+00
   6.234876e+01   2.251984e+01
  -2.630946e+01   2.909617e+01
  -3.818474e+01   1.776901e+01
  -4.557800e+01  -3.347986e+01
  -1.843554e+01  -8.253295e+01
   7.667676e+01  -7.001801e+01
   9.234349e+01   1.514320e+01
   6.657071e+01   3.724446e+01
  -3.956922e+01   2.712055e+01
  -5.108097e+01  -2.028196e+00
  -3.731585e+01   2.086436e+01
   2.539723e+01  -2.073886e+01
   5.993442e+01   4.346038e+01
  -3.521025e+01   4.558417e+01
  -6.169738e+01   2.358028e+01
