
 $NMID
 id='ANONYMOUS ', fmtdat='(2E16.6)'
 volume=1.0
 tramp=1.0
 $END
   3.733337e+03  -5.453435e+01
   2.134487e+03   2.410115e+03
  -6.434476e+02   2.397502e+03
  -1.955517e+03   5.834715e+02
  -6.836940e+02  -6.344131e+02
   5.516428e+02  -3.598370e+02
   8.113476e+02   4.638768e+02
  -8.696468e+01   9.422077e+02
  -6.813360e+02   5.673999e+02
  -7.923647e+02  -5.815594e+01
  -4.568562e+02  -7.539290e+02
   2.555314e+02  -8.688489e+02
   5.283134e+02  -1.747086e+02
   3.739320e+02   6.852122e+02
  -2.583648e+02   6.188112e+02
  -5.947574e+02  -3.470386e+01
  -2.659209e+02  -6.012945e+02
   2.850135e+02  -5.220116e+02
   4.962653e+02  -4.220013e+01
   3.286655e+02   3.558232e+02
  -1.533617e+01   4.489834e+02
  -2.378231e+02   2.263931e+02
  -1.458164e+02  -7.252020e+00
   1.261871e+02  -8.957720e+01
   4.228218e+02   8.088218e+01
   1.905607e+02   3.745287e+02
  -4.446099e+02   4.237732e+02
  -8.158651e+02  -5.948293e+01
  -4.278009e+02  -5.820390e+02
   3.615451e+02  -4.154723e+02
   6.890385e+02   2.042676e+00
   3.018948e+02   4.571451e+02
  -2.809774e+02   5.327677e+02
  -4.926254e+02   1.885918e+02
  -3.182179e+02  -2.538005e+02
  -5.846222e+01  -4.914647e+02
   1.425277e+02  -2.273294e+02
   1.318686e+02   1.717168e+02
  -1.874031e+02   4.107462e+02
  -4.193647e+02  -2.769273e+01
  -2.173645e+02  -5.903752e+02
   3.175276e+02  -6.504066e+02
   5.139272e+02   1.133345e+01
   1.667261e+02   4.630086e+02
  -2.884490e+02   3.244433e+02
  -3.271772e+02  -3.904603e+02
   1.868851e+01  -4.972321e+02
   5.130031e+02  -1.565454e+02
   5.558079e+02   4.338228e+02
   1.174341e+02   5.238920e+02
  -3.029633e+02   3.088082e+02
  -5.773686e+02  -2.583996e+01
  -3.580810e+02  -3.106806e+02
   1.382215e+02  -3.174344e+02
   3.752723e+02  -2.787211e+01
   2.160939e+02   1.433800e+02
  -7.713977e+01   7.259120e+01
  -1.301234e+02  -1.229846e+02
   1.547366e+02  -1.917537e+02
   3.189753e+02   9.328670e+01
   1.422088e+02   2.136446e+02
  -1.945558e+02   2.206617e+02
  -3.168881e+02   6.882693e+01
  -2.225000e+02  -7.891522e+01
   2.627023e+01  -2.022889e+02
   2.167340e+02  -3.254629e+02
   3.462982e+02  -1.846365e+02
   2.587815e+02   1.313061e+02
   7.724594e+01   3.727086e+02
  -1.080862e+02   3.513382e+02
  -9.742987e+01   7.207301e+01
  -2.010342e+01  -5.532518e+01
  -1.058487e+01   4.110176e+01
  -1.760568e+02   1.049935e+02
  -2.904195e+02  -7.276338e+01
  -5.382465e+01  -2.612486e+02
   3.407786e+01  -2.268107e+02
   2.026375e+02  -1.019444e+00
   2.219062e+02   2.144449e+02
  -5.475626e+01   2.505119e+02
  -2.118811e+02   7.473535e+01
  -3.091149e+02  -1.391799e+02
  -1.616922e+02  -3.169286e+02
   6.053658e+01  -2.682985e+02
   2.522402e+02  -1.167571e+02
   1.444528e+02  -1.920997e+01
   7.106099e+01  -5.673604e+01
   2.035685e+02  -5.378783e+01
   3.603079e+02   3.205586e+01
   3.073934e+02   2.525861e+02
  -3.751738e+01   3.752346e+02
  -2.911836e+02   3.722091e+02
  -4.205585e+02   1.806459e+02
  -3.263592e+02  -1.066379e+02
  -3.797238e+00  -2.377108e+02
   1.325320e+02  -2.670270e+02
   4.701393e+01   2.820384e+00
  -7.940726e+01   1.197841e+02
  -1.906982e+02   6.126555e+00
  -4.776312e+01  -1.819497e+02
   1.499452e+02  -1.656506e+02
   1.539415e+02   3.261830e+01
  -4.302955e+01   1.520019e+02
  -1.996889e+02  -3.328940e+00
  -1.705324e+02  -2.027971e+02
   2.861898e+01  -3.022685e+02
   2.025129e+02  -1.550404e+02
   3.204305e+02   6.814259e+01
   2.655122e+02   2.082975e+02
   8.966396e+01   2.622367e+02
  -9.985406e+01   1.080259e+02
  -1.784576e+02   4.253834e+01
  -6.055970e+01  -2.977848e+01
   5.496993e+01   1.240826e+01
   8.359748e+01   9.345385e+01
  -1.077905e+02   7.021981e+01
  -1.827845e+02  -3.560658e+00
  -4.021486e+01  -6.552499e+01
   9.076816e+01  -1.401176e+01
   4.594335e+01   3.465926e+01
  -1.347270e+02   1.068417e+02
  -2.562806e+02   3.168586e+01
  -2.728109e+02  -1.534454e+02
  -4.816102e+01  -2.502976e+02
   1.929151e+02  -2.210560e+02
   2.503655e+02  -1.236317e+02
   1.484395e+02   1.179481e+01
  -1.427326e+01   1.174052e+02
  -7.656558e+01   2.039600e+01
   1.159187e+01  -9.827649e+01
   1.540163e+02  -7.167610e+01
   1.781760e+02   8.181429e+01
   6.837995e+01   2.158851e+02
  -4.659507e+01   1.544164e+02
  -1.291086e+02   3.892819e+01
  -9.948851e+01   2.456352e+01
   1.763015e+01  -5.301443e+00
  -3.275842e+00   5.500069e+01
  -3.660571e+01   8.337054e+01
  -2.412529e+02   3.723527e+01
  -1.766503e+02  -1.016464e+02
  -3.181137e+01  -2.129297e+02
   1.128658e+02  -1.709385e+02
   1.789990e+02  -2.930604e+01
   8.684532e+01   7.523249e+01
  -5.279537e+01   1.067827e+02
  -4.862804e+01  -1.450987e+00
  -4.145948e+01  -4.364549e+01
   3.705091e+01   5.202634e-01
  -1.347977e+00   2.933890e+01
  -5.467123e+01  -8.574141e+00
  -6.696211e+01  -8.671077e+01
  -2.466125e+01  -1.653537e+02
   8.543379e+01  -1.409145e+02
   2.030599e+02  -4.131554e+00
   1.611103e+02   1.455023e+02
   3.132165e+01   2.232002e+02
  -9.987093e+01   1.286749e+02
  -1.196848e+02   1.031436e+01
  -5.043498e+01  -5.518515e+01
  -3.345165e+01   4.360659e-01
  -5.836680e+01   1.532463e+01
  -7.518428e+01   9.513168e+00
   8.272834e+00  -4.521240e+01
   5.926312e+01  -6.954193e+01
   9.540101e+01  -5.985658e+01
   1.081570e+02   1.460540e+01
  -2.125070e+01   9.893979e+01
  -1.520061e+02   8.071932e+01
  -1.881305e+02  -3.355775e+01
  -1.231348e+02  -1.823197e+02
   1.124957e+02  -2.112775e+02
   2.882415e+02  -9.614026e+01
   2.324911e+02   5.781314e+01
   1.402581e+02   1.415865e+02
  -5.653687e+01   1.667026e+02
  -1.052185e+02   4.950089e+01
  -4.997537e+01   8.587444e+01
  -3.718130e+01   1.017363e+02
  -1.015253e+02   3.886737e+01
  -9.791758e+01  -1.349525e+01
  -1.129557e+02  -1.283401e+02
  -2.086485e+01  -1.917615e+02
   6.995942e+01  -1.642711e+02
   1.601801e+02  -2.408796e+01
   1.423849e+02   1.317671e+02
   1.289191e+01   1.484165e+02
  -8.880770e+01   4.843909e+01
  -7.377533e+01  -4.382289e+01
  -9.494732e+00  -1.619755e+01
  -4.584755e+00  -1.745870e+01
  -4.206601e+01   8.087708e+00
  -6.854317e+01  -1.969760e+01
  -3.098711e+01  -3.978811e+01
   6.303445e+01  -5.135640e+01
   1.344845e+02  -2.911879e+01
   1.070819e+02   7.436274e+01
   7.268034e+00   3.638620e+01
  -1.057765e+02   6.045139e+01
  -1.246472e+02   2.064873e+01
  -5.191109e+01  -2.500900e+01
   5.894778e+01  -2.269340e+01
   5.474519e+01   2.480454e+01
   1.140328e+01   6.079990e+01
  -4.541331e+01   4.342294e+01
  -5.206703e+01  -8.658582e+00
  -3.939101e+01  -4.797860e+01
  -1.037402e+01  -1.969445e+01
  -3.844189e+01  -1.913457e+01
  -4.330848e+01   2.867238e+01
  -3.370138e+01  -4.231285e+01
   5.660282e+01  -1.470893e+02
   1.379850e+02  -1.387443e+02
   1.392664e+02  -3.311064e+01
   1.393344e+02   8.215682e+01
  -1.789615e+01   1.268762e+02
  -4.024513e+01   5.086472e+01
  -9.631301e+01  -4.763809e+01
   2.540944e+01   1.029978e+01
   1.350714e+02   6.775554e+01
   6.429824e+01   1.109240e+02
  -8.602125e+01   1.322802e+02
  -2.008425e+02   5.124891e+01
  -1.296763e+02   4.654781e+00
  -2.893729e+01  -6.168932e+01
   7.398960e+01  -5.788723e+01
   3.272741e+01  -4.697421e+01
  -3.366050e+01  -1.565724e+01
  -7.033130e+01   2.277726e+00
  -5.291961e+01  -1.183095e+02
   5.353154e+01  -1.244707e+02
   1.474324e+02  -8.751449e+01
   9.339510e+01   9.718516e+01
   3.727766e+01   1.784673e+02
  -6.923147e+01   9.154404e+01
  -1.064641e+02  -2.849196e+01
  -8.313901e+01  -9.992223e+01
   6.277132e+00  -1.006593e+02
   2.782635e+01  -3.108814e+01
   5.996145e+01   3.280014e+01
   6.104208e+01  -6.417568e+00
   1.059430e+00  -1.519119e+01
  -2.221755e+00  -3.341834e+00
  -1.323473e+00   5.495604e+01
   3.769978e+01   5.224860e+01
  -2.466950e+01   2.706370e+01
  -1.084138e+02   7.142861e+00
  -1.330614e+02  -7.774197e+01
  -3.661505e+01  -4.458375e+01
   7.825945e+01   1.015565e+01
   7.125869e+01  -3.269269e+01
  -2.303134e+01   3.475364e+01
  -6.535980e+01   1.672667e+01
  -2.256611e+01   4.856124e+01
   1.283800e+01   1.174897e+01
  -2.265165e+01  -3.747927e+01
  -8.797733e+01   2.367584e+01
  -8.068909e+01  -2.553082e+01
  -9.288883e+00  -7.688233e+01
   1.225078e+02  -1.125938e+02
   1.471863e+02  -4.542814e+01
   1.068940e+02   3.168097e+01
   2.087040e+01   1.469046e+02
  -1.140215e+02   1.275183e+02
  -9.607842e+01   2.251613e+01
  -6.020150e+01  -1.723824e+01
  -1.915945e+01  -5.328871e+01
  -5.356837e+01  -2.715416e+01
  -1.794966e+01   9.308591e+00
  -4.753829e+01  -4.046820e+01
  -1.261960e+01  -9.189695e+01
   6.114055e+00  -3.117221e+01
   5.358283e+01   1.545347e+00
   8.391467e+01   1.028612e+02
  -2.569780e+00   1.182869e+02
  -5.650428e+01   1.060426e+01
  -7.179565e+01  -7.364234e+01
  -2.292703e+00  -7.630351e+01
   4.725858e+01  -4.985166e+01
   8.301511e+01   9.409765e+00
  -2.181912e+00   4.841259e+01
   1.817602e+00   2.221105e+01
  -1.198770e+01   1.640804e+01
   5.892699e+01   8.781716e+00
   5.680568e+01   3.971058e+00
   1.437019e+01   4.852679e+01
  -7.448606e+01   6.124690e+01
  -9.758185e+01   4.020463e+01
  -3.715976e+01   1.116608e+01
   3.204837e+01  -7.328705e+01
   6.093147e+01  -6.356244e+01
   5.470029e+01  -2.034110e+01
  -1.178981e+01   7.738803e+01
  -1.322933e+01  -5.770141e+00
  -5.134332e+01  -2.147772e+01
  -2.265031e+01  -4.488651e+01
   2.887574e+01  -7.162016e+00
   5.926008e+01   4.417783e+00
   1.874361e+01   2.588111e+01
  -2.345261e+01   2.966570e+00
   4.095920e+00  -1.786295e+01
  -1.594274e+01  -1.894124e+01
   6.272816e+01   1.956710e+01
  -2.209965e+01   7.735841e+01
  -2.740387e+01   3.252888e+00
  -5.400338e+01  -7.131992e+00
  -1.902012e+01  -6.849612e+01
   4.346089e+01  -3.831358e+01
   8.666975e+01   9.701021e+00
   1.911148e+01   4.879894e+01
  -3.052036e+01   3.325707e+01
  -1.002299e+02  -4.315617e+01
  -7.745732e+01  -6.906849e+01
   1.339535e+01  -3.823431e+01
   5.358184e+01  -6.617910e+01
   1.840536e+01   7.390020e+00
  -5.275231e+01  -1.868757e+01
  -5.571027e+01   3.139361e+00
   1.334109e+01  -3.763966e+00
   7.889624e+01   3.858847e+00
