
 $NMID
 id='ANONYMOUS ', fmtdat='(2E16.6)'
 volume=1.0
 tramp=1.0
 $END
   4.269724e+03   4.448237e+01
   2.390759e+03   2.506533e+03
  -7.557688e+02   2.683043e+03
  -1.982298e+03   5.730564e+02
  -7.334789e+02  -7.505669e+02
   5.951481e+02  -3.370107e+02
   7.234114e+02   5.714221e+02
  -1.593941e+02   9.613357e+02
  -7.360792e+02   6.432641e+02
  -8.231945e+02  -1.303380e+02
  -4.954631e+02  -8.455265e+02
   2.959376e+02  -9.093575e+02
   5.052631e+02  -1.638425e+02
   3.656891e+02   7.806669e+02
  -2.966969e+02   6.900135e+02
  -5.891995e+02  -4.796856e+01
  -2.425641e+02  -6.774285e+02
   3.428791e+02  -5.727465e+02
   5.017420e+02  -5.912284e+01
   3.497257e+02   3.255397e+02
  -4.506597e+01   4.254967e+02
  -2.643527e+02   2.360702e+02
  -1.719830e+02   5.790282e+00
   2.069210e+02  -1.077565e+02
   4.536001e+02   1.018513e+02
   1.920255e+02   4.556367e+02
  -4.556569e+02   4.559645e+02
  -8.370244e+02  -8.040325e+01
  -4.125674e+02  -5.486155e+02
   3.615862e+02  -4.639546e+02
   7.921973e+02   6.326398e+01
   2.705917e+02   4.807142e+02
  -3.130217e+02   5.528438e+02
  -4.955447e+02   1.736168e+02
  -3.515755e+02  -2.395024e+02
  -2.964543e+01  -4.589071e+02
   1.869422e+02  -2.768066e+02
   1.752781e+02   2.230163e+02
  -2.203675e+02   4.383154e+02
  -4.596907e+02  -1.222256e+02
  -2.428714e+02  -6.445090e+02
   3.089719e+02  -7.186006e+02
   5.843031e+02   5.154600e+01
   1.906135e+02   5.195423e+02
  -2.823362e+02   2.986411e+02
  -3.397100e+02  -3.851003e+02
  -1.675845e+01  -5.458692e+02
   5.241962e+02  -1.511038e+02
   5.482736e+02   3.993255e+02
   1.213525e+02   6.115350e+02
  -3.254605e+02   3.406379e+02
  -6.796465e+02  -7.215097e+01
  -3.276436e+02  -3.843100e+02
   1.206259e+02  -3.444813e+02
   3.875246e+02  -2.505599e+01
   2.272766e+02   1.882902e+02
  -9.085638e+01   9.001933e+01
  -1.654285e+02  -1.694623e+02
   1.609692e+02  -1.773268e+02
   3.198956e+02   6.724637e+01
   9.682494e+01   3.027673e+02
  -1.994287e+02   2.950912e+02
  -3.164647e+02   7.266785e+01
  -2.069406e+02  -7.615349e+01
   3.420331e+01  -1.879200e+02
   2.219633e+02  -3.220239e+02
   3.559438e+02  -2.012458e+02
   2.607003e+02   1.526132e+02
   6.717204e+01   4.074410e+02
  -1.637881e+02   3.776675e+02
  -1.397111e+02   8.655431e+01
  -2.050635e+01  -9.771395e+00
  -7.325868e+00   7.727326e+01
  -2.056187e+02   9.756717e+01
  -2.503661e+02  -6.961440e+01
  -1.412172e+02  -2.333836e+02
   5.182696e+01  -2.271488e+02
   2.149723e+02   3.986490e+01
   1.749308e+02   2.605143e+02
  -2.491616e+01   2.730609e+02
  -2.851092e+02   1.016077e+02
  -3.135339e+02  -1.572412e+02
  -2.058939e+02  -3.641337e+02
   1.173599e+02  -2.822973e+02
   2.180347e+02  -1.239355e+02
   1.416116e+02   1.667336e+01
   7.359336e+01  -4.543421e+01
   2.549055e+02  -7.428467e+01
   3.698590e+02   6.383164e+01
   3.049366e+02   2.899624e+02
  -6.877348e+00   4.328593e+02
  -2.958163e+02   3.749008e+02
  -4.902105e+02   1.613991e+02
  -3.303122e+02  -5.498894e+01
   3.314477e+00  -2.803703e+02
   1.037587e+02  -2.255252e+02
   1.138745e+02  -4.135529e+01
  -1.093074e+02   1.029650e+02
  -2.085377e+02  -1.747429e+01
  -2.277309e+01  -1.754297e+02
   1.376572e+02  -1.568256e+02
   2.082486e+02   5.799097e+01
  -6.053890e+01   1.700178e+02
  -1.763933e+02  -1.748431e+01
  -1.202929e+02  -2.317151e+02
   1.411934e+01  -3.334713e+02
   1.929777e+02  -1.676110e+02
   3.304745e+02   6.409151e+01
   2.583776e+02   2.012413e+02
   1.170436e+02   2.538909e+02
  -1.270608e+02   1.579595e+02
  -1.539357e+02  -1.577918e+01
  -7.006995e+01  -3.961528e+01
   8.459315e+01   2.463284e+01
   5.640697e+01   1.066209e+02
  -7.642215e+01   1.549356e+02
  -2.141747e+02  -2.306835e+01
  -3.701516e+01  -4.774715e+01
   7.258440e+01  -3.613691e+01
   4.321612e+01   5.899162e+01
  -1.109750e+02   1.352467e+02
  -2.534780e+02  -2.082839e+01
  -2.400117e+02  -1.521057e+02
  -5.622734e+01  -2.542353e+02
   2.041239e+02  -2.906171e+02
   2.478856e+02  -1.052849e+02
   1.396234e+02   5.864337e+01
  -3.073199e+01   9.155568e+01
  -7.890583e+01  -1.815267e+01
   4.470822e+01  -6.993729e+01
   1.762047e+02  -9.810930e+01
   2.000533e+02   1.046331e+02
   6.242778e+01   1.880159e+02
  -7.991055e+01   1.756101e+02
  -1.361797e+02   4.321380e+01
  -5.182059e+01  -6.456674e+01
   4.964674e+01  -1.409957e+01
   4.295523e+01   8.543472e+01
  -6.405688e+01   1.098803e+02
  -2.026565e+02   5.779606e+01
  -2.055831e+02  -1.149517e+02
   5.029319e+01  -2.653690e+02
   1.141854e+02  -1.627812e+02
   2.266085e+02  -2.253568e+01
   9.787133e+01   1.054222e+02
  -6.686406e+01   1.084447e+02
  -8.307626e+01   1.458708e+01
  -6.986321e+00  -2.529619e+01
   2.675201e+01  -1.290716e+01
   1.144041e+01   1.932113e+01
  -6.434525e+01  -1.297544e+01
  -2.785312e+01  -5.559485e+01
  -1.562680e+01  -1.455604e+02
   1.387583e+02  -1.552945e+02
   2.246856e+02  -3.982152e+01
   1.678832e+02   1.310642e+02
   5.577999e+01   2.043734e+02
  -7.065281e+01   1.445671e+02
  -1.791721e+02  -2.127206e+01
  -8.882290e+01  -4.837763e+01
  -4.429982e+01  -5.146292e+01
  -4.628432e+01   1.298886e+01
  -1.051284e+02  -5.307324e-01
  -2.481365e+01  -3.611600e+01
   4.057701e+01  -7.842679e+01
   1.043035e+02  -6.045263e+01
   6.926650e+01   3.023086e+01
   1.264146e+00   9.708638e+01
  -1.254309e+02   2.794186e+01
  -1.825689e+02  -5.952448e+01
  -1.329881e+02  -1.505025e+02
   1.096749e+02  -2.465419e+02
   2.616056e+02  -9.405904e+01
   2.619153e+02   8.890611e+01
   1.012340e+02   1.491243e+02
  -2.820186e+01   1.103267e+02
  -9.552177e+01   9.545754e+01
  -8.902895e+01   5.036857e+01
  -4.556127e+01   6.867610e+01
  -8.117417e+01   6.337014e+01
  -1.422748e+02  -5.353522e+01
  -8.999351e+01  -1.556540e+02
   4.853787e+00  -2.210919e+02
   1.015066e+02  -1.839185e+02
   1.829076e+02  -2.633382e+01
   1.334690e+02   1.096445e+02
   4.138821e+01   1.507559e+02
  -8.127765e+01   9.331672e+01
  -4.258238e+01  -5.593943e+00
  -6.064514e+00  -4.414433e+01
   1.608421e+01  -2.765873e+01
  -4.060331e+01  -8.385560e+00
  -8.438361e+01  -3.934735e+01
  -3.856368e+01  -2.624500e+01
   6.606413e+01  -6.310287e+01
   1.573414e+02  -3.317792e+01
   1.128394e+02   8.098353e+01
  -5.660548e+00   1.077714e+02
  -1.375703e+02   9.248300e+01
  -1.854236e+02   3.555301e+01
  -2.780243e+01  -4.466334e+01
   2.003992e+01  -1.185550e+01
   7.417430e+01   2.932915e+01
   9.997069e+00   4.975247e+01
  -2.974351e+01   9.954850e+00
  -5.978471e+01  -1.137852e+01
  -4.868969e+01  -2.975893e+01
  -2.086177e+01  -3.775467e+01
  -6.534780e+01  -6.600058e+00
  -7.596831e+01  -2.746963e+00
   9.553208e+00  -3.812683e+01
   4.508560e+01  -9.900893e+01
   1.294402e+02  -1.110501e+02
   1.499354e+02  -4.666543e+01
   1.544204e+02   9.922230e+01
   2.243054e+01   1.134534e+02
  -8.141077e+01   4.601015e+01
  -7.658575e+01  -4.837907e+01
   2.790961e+01   2.549934e+01
   1.479657e+02   3.397752e+01
   5.023179e+01   9.990096e+01
  -5.431593e+01   1.569223e+02
  -1.686323e+02   4.674633e+01
  -1.388379e+02   1.505428e+01
  -7.165363e+00  -4.626352e+01
   2.068924e+01  -7.054178e+01
   7.178699e+01   2.110134e+01
  -3.369517e+01   4.775377e+01
  -1.055596e+02  -4.302498e+01
  -2.595969e+01  -1.340404e+02
   9.398944e+01  -1.523930e+02
   1.420058e+02  -4.632808e+01
   1.226239e+02   6.965552e+01
   4.956528e+00   1.820899e+02
  -7.284496e+01   1.467512e+02
  -9.665981e+01  -1.737086e+01
  -5.419923e+01  -8.265669e+01
   3.061027e+01  -1.046600e+02
   4.470116e+01  -3.001632e+00
   2.104107e+01   4.557658e+01
  -3.834378e+01   2.839542e+01
  -2.016531e+01  -3.982993e+00
   2.029798e+01   6.619971e+00
   5.388169e+01   7.009471e+01
   3.710410e+01   9.272893e+01
  -5.457051e+01   1.923660e+01
  -1.041039e+02  -3.776185e+00
  -1.159252e+02  -5.493093e+01
   3.346516e+00  -7.610983e+01
   9.392263e+01  -3.180665e+01
   9.350581e+01   1.764039e+01
   2.801976e+01   2.371425e+01
  -4.644280e+01   2.887313e+01
   1.624385e+01   1.750146e+01
   3.146127e+01   8.979819e+00
   3.148217e+01  -9.898319e+00
  -6.650548e+01  -6.168528e+00
  -1.174688e+02  -3.067436e+01
   1.541483e+01  -8.126046e+01
   9.036981e+01  -1.173199e+02
   1.593440e+02  -3.764446e+01
   1.340398e+02   5.748214e+01
   3.860232e+01   1.731348e+02
  -6.773699e+01   1.265855e+02
  -1.079067e+02   7.712811e+01
  -8.243961e+01  -1.797164e+01
  -3.718766e+00  -4.010072e+01
  -1.820609e+01   3.990282e+01
   2.691112e+01   3.824062e+01
  -3.136222e+01  -2.478078e+01
  -3.537385e+01  -7.642452e+01
  -1.290972e+01  -7.339942e+01
   7.819115e+01   2.759908e+01
   9.590650e+01   1.097725e+02
   1.900761e+01   6.260077e+01
  -8.354648e+01   3.135587e+01
  -1.157494e+02  -5.696682e+01
  -5.087189e+01  -9.657715e+01
   6.412791e+01  -4.267565e+01
   8.513241e+01   3.255141e+01
   3.790707e+01   2.879674e+01
  -6.205901e+01   8.514849e+01
  -2.663903e+01   3.771612e+01
   5.944238e+01  -8.005193e+00
   3.598423e+01   1.088694e+00
  -1.235993e+01   5.334896e+01
  -8.753528e+01   5.413257e+01
  -1.385177e+02   2.236902e+01
  -7.417173e+01   1.763454e+01
  -2.741434e+00  -7.980181e+01
   6.291730e+01  -7.848426e+01
   4.146800e+01  -2.201499e+01
  -2.027417e+01   2.700289e+01
  -3.559858e+01   4.781020e+01
  -2.862808e+01  -1.293310e+01
  -3.678548e+01  -6.505368e+01
   2.737583e+01  -1.825164e+01
   1.050164e+00   2.195218e+01
   8.214920e+01   3.271412e+01
   1.914124e+01  -3.266446e+00
   3.293923e+01  -1.173704e-01
   1.486020e+01   3.562881e+01
   2.127069e+01   2.838033e+01
  -1.194958e+01   4.747856e+01
  -3.705400e+01   2.315235e+01
  -6.092412e+01  -2.811269e+01
  -3.049648e+01  -8.395514e+01
   6.100747e+01  -2.164335e+01
   5.836669e+01   3.000690e+01
  -1.821341e+01   4.249231e+01
  -6.702672e+01   2.658294e+01
  -9.323445e+01  -4.000212e+01
  -6.540551e+01  -1.566055e+01
   2.608477e+01  -6.655892e+01
   4.021978e+01  -1.067137e+01
   3.805452e+01   6.097959e+00
  -2.926881e+01   2.110558e+01
  -1.608266e+01  -1.912741e+01
   8.201470e+01  -6.995612e+00
   9.955023e+01  -2.066768e+01
