
 $NMID
 id='ANONYMOUS ', fmtdat='(2E16.6)'
 volume=1.0
 tramp=1.0
 $END
   3.471665e+03  -3.155312e+02
   2.083740e+03   1.955045e+03
  -8.606757e+02   1.888622e+03
  -1.473360e+03   6.184812e+02
  -5.490773e+02  -4.471159e+02
   4.223574e+02  -3.726099e+02
   6.715827e+02   3.466191e+02
  -1.392528e+02   7.874092e+02
  -5.457431e+02   5.193488e+02
  -7.571489e+02  -4.313283e+01
  -3.315088e+02  -6.747061e+02
   2.897389e+02  -6.717664e+02
   5.124317e+02  -1.232172e+02
   3.526890e+02   5.242995e+02
  -1.653247e+02   5.407122e+02
  -4.771182e+02   4.963194e+01
  -2.792427e+02  -6.282186e+02
   2.477938e+02  -4.678319e+02
   3.729747e+02  -9.731469e+01
   2.920411e+02   2.721446e+02
   2.378300e+01   2.962674e+02
  -1.667466e+02   2.414104e+02
  -1.629381e+02   1.555521e+01
   5.955666e+01  -2.737535e+01
   2.683763e+02   9.409511e+01
   1.055308e+02   3.913993e+02
  -4.468195e+02   2.734109e+02
  -6.964206e+02  -1.281553e+01
  -2.667148e+02  -4.043196e+02
   3.685927e+02  -3.806961e+02
   5.802329e+02   5.682348e+01
   2.569119e+02   3.423492e+02
  -2.208790e+02   3.781363e+02
  -4.798646e+02   1.786025e+02
  -2.411429e+02  -1.845320e+02
  -2.446791e+01  -3.517592e+02
   1.694915e+02  -2.189925e+02
   1.377199e+02   1.261444e+02
  -8.884670e+01   3.719103e+02
  -3.545163e+02  -3.514863e+01
  -2.302352e+02  -5.277901e+02
   2.909884e+02  -5.545929e+02
   4.800486e+02  -1.537732e+01
   8.456683e+01   4.291191e+02
  -1.836790e+02   2.189140e+02
  -3.020680e+02  -2.660698e+02
   5.228284e+01  -4.077408e+02
   4.690454e+02  -2.718428e+01
   4.687845e+02   3.453408e+02
   1.141070e+02   4.634734e+02
  -3.160214e+02   2.722552e+02
  -4.431434e+02  -6.933852e+01
  -3.116924e+02  -2.860171e+02
   1.062708e+02  -3.084305e+02
   3.209210e+02  -5.027996e+01
   1.874362e+02   1.237147e+02
  -1.253566e+02   7.028127e+01
  -1.076076e+02  -1.192433e+02
   1.550675e+02  -9.005931e+01
   2.813732e+02   7.897780e+01
   9.315296e+01   2.494993e+02
  -1.555727e+02   2.126782e+02
  -3.001607e+02   4.657341e+01
  -1.741316e+02  -4.117044e+01
   5.882629e+00  -1.612942e+02
   1.579063e+02  -2.596252e+02
   2.532752e+02  -1.432787e+02
   2.530883e+02   7.634525e+01
   1.121804e+02   3.109896e+02
  -9.437552e+01   3.231340e+02
  -8.368622e+01   8.483060e+01
   3.880814e+01  -3.490333e+01
  -5.086802e+00   5.676759e+01
  -1.376930e+02   1.005885e+02
  -2.085318e+02  -4.053001e+01
  -1.263339e+02  -1.545624e+02
   9.557816e+01  -2.588865e+02
   1.833323e+02  -1.933094e+01
   1.108639e+02   1.485369e+02
  -3.450488e+01   2.253002e+02
  -1.782951e+02   6.880724e+01
  -2.617053e+02  -1.049604e+02
  -1.193841e+02  -2.525702e+02
   5.856218e+01  -2.393247e+02
   1.921581e+02  -3.823260e+01
   8.564636e+01  -1.007068e+01
   5.650460e+01  -3.279355e+01
   1.558623e+02  -2.991550e+01
   3.437104e+02   1.714727e+01
   2.993544e+02   2.166516e+02
   6.190642e+00   3.685012e+02
  -2.987460e+02   2.983814e+02
  -3.737934e+02   1.756242e+02
  -2.396647e+02  -9.586838e+01
  -6.250886e+01  -2.566329e+02
   7.754490e+01  -2.142563e+02
   4.685822e+01  -5.198288e+01
  -7.834977e+01   1.301351e+02
  -1.617008e+02   9.994830e+00
  -6.459963e+01  -1.528464e+02
   1.502512e+02  -1.673207e+02
   1.899596e+02   5.124253e+01
  -1.583387e+01   1.629575e+02
  -1.418688e+02   2.047683e+01
  -1.393318e+02  -1.702891e+02
   2.985213e+00  -2.333629e+02
   1.881322e+02  -1.352935e+02
   2.830375e+02   3.510376e+01
   2.586681e+02   2.143391e+02
   8.020561e+01   2.477063e+02
  -8.623255e+01   1.001752e+02
  -1.568839e+02  -2.639715e+01
  -7.150674e+01  -2.943465e+01
   6.679151e+01   1.879474e+01
  -1.596695e+01   9.734531e+01
  -1.350273e+02   6.028372e+01
  -1.564769e+02  -4.302334e+01
  -1.403377e+01  -5.999763e+01
   8.732702e+01  -6.372524e+00
   5.650198e+01   3.470047e+01
  -8.623245e+01   8.493398e+01
  -1.875924e+02   5.235776e+01
  -2.056533e+02  -7.429264e+01
  -2.441771e+01  -1.712743e+02
   1.411804e+02  -2.013702e+02
   2.135548e+02  -9.561112e+01
   1.439419e+02   2.791305e+01
  -4.632720e+01   8.889099e+01
  -8.370129e+01  -2.025807e+01
   2.066653e+01  -5.958783e+01
   2.222815e+02  -8.415552e+01
   1.942418e+02   7.609608e+01
   1.239217e+01   1.878652e+02
  -6.834346e+01   1.030782e+02
  -1.215768e+02   4.653949e+01
  -6.368602e+01  -5.406978e+01
   4.387820e+01   4.669922e+00
   2.821479e+01   3.499160e+01
  -4.337389e+01   7.753408e+01
  -1.273075e+02   2.385367e+01
  -1.660518e+02  -1.130172e+02
  -3.234817e+01  -1.380275e+02
   1.396336e+02  -1.038284e+02
   1.398421e+02  -1.968650e+01
   4.127517e+01   1.090104e+02
  -4.198952e+01   1.089141e+02
  -7.265412e+01   1.753359e+01
  -3.603778e+01  -2.969069e+01
   2.218189e+01  -3.675763e+01
   2.788555e+00   5.516181e+01
  -3.432619e+01   8.822825e+00
  -7.625818e+01  -4.466983e+01
  -3.854904e+01  -1.411839e+02
   1.155417e+02  -1.830608e+02
   1.462631e+02  -2.597538e+01
   1.340105e+02   1.388260e+02
   6.412275e+01   1.843007e+02
  -5.529390e+01   9.687739e+01
  -7.561390e+01   2.852534e+01
  -6.702774e+01  -1.281524e+01
   2.275546e+01  -2.040763e+01
  -2.590201e+01   2.377810e+01
  -4.450434e+01   1.893317e+01
  -4.530445e+01  -5.215837e+01
   1.970238e+01  -4.532743e+01
   8.344135e+01  -1.171095e+01
   8.714934e+01   1.985847e+01
   1.712741e+01   1.133197e+02
  -1.015759e+02   4.860329e+01
  -1.377283e+02   2.201966e+00
  -5.452631e+01  -1.820174e+02
   3.909882e+01  -1.322723e+02
   1.726157e+02  -8.197877e+01
   1.957599e+02   1.176760e+02
   9.377602e+01   1.175001e+02
   4.516505e+00   1.102472e+02
  -2.457319e+01   6.558151e+01
  -2.757947e+01   5.048874e+01
  -2.386718e+01   7.421187e+01
  -9.223638e+01   6.481856e+01
  -4.521182e+01  -2.191360e+01
  -7.330112e+01  -1.468464e+02
  -1.049074e+01  -1.657063e+02
   6.291671e+01  -1.370701e+02
   1.385864e+02  -1.272050e+01
   7.003743e+01   1.076343e+02
   6.815953e+00   1.236548e+02
  -1.148662e+01   8.694677e+01
  -6.363850e+01   8.854046e+00
  -1.365485e+01  -5.654419e+01
  -8.738737e+00  -3.855905e+01
  -2.567711e+01  -8.680093e-01
  -2.082709e+01  -1.388359e+00
  -5.877520e+01   1.171097e+01
   5.206706e+01  -3.321022e+01
   1.016941e+02  -2.281491e+01
   1.433262e+02   4.039233e+01
   3.070620e+01   1.078439e+02
  -6.595907e+01   3.631367e+01
  -1.194596e+02   3.572884e+01
  -5.176400e+01  -5.276879e+01
   5.377002e+01  -5.192220e+01
   4.104946e+01  -5.166818e+01
   2.285031e+01   2.024448e+01
  -4.322662e+01   2.683765e+01
  -4.816991e+01  -2.603297e+01
   7.114279e+00  -3.387944e+01
  -1.128917e+01  -6.137504e+01
  -7.996145e+01  -3.056436e+01
  -7.577136e+01  -1.943382e+01
  -2.032510e+01   6.137697e+00
   4.663488e+01  -1.131945e+02
   1.074483e+02  -1.146129e+02
   1.183901e+02  -4.130783e+01
   1.027112e+02   8.842381e+01
   3.745708e+00   9.138985e+01
  -1.223261e+01   8.128511e+01
  -4.583431e+01  -7.765596e+00
   2.666991e+01   1.473731e+01
   1.221027e+02   4.049772e+01
   1.054571e+01   1.184070e+02
  -9.369183e+01   1.091346e+02
  -1.667459e+02   4.209882e+01
  -9.962874e+01  -9.208370e+00
  -1.302531e+01  -5.324862e+01
   4.365820e+01  -8.407229e+01
   3.615940e+01  -1.906708e+01
  -4.823227e+01   3.531520e+01
  -3.278168e+01  -1.273329e+01
  -1.951132e+01  -1.226580e+02
   5.511958e+01  -1.119360e+02
   9.993890e+01  -6.792071e+01
   1.019303e+02   8.570794e+01
   4.371183e+01   1.298210e+02
  -4.281085e+01   9.687542e+01
  -7.994779e+01  -1.110952e+01
  -3.776230e+01  -6.852894e+01
  -1.709481e+01  -6.728511e+01
   1.227619e+01  -9.766344e+00
   2.101089e+01   5.704622e+01
   2.029505e+01   1.674819e+01
   1.395527e+01  -2.461075e-01
   5.528339e+00   3.767176e+01
   2.890739e+01   8.128666e+01
   5.835079e+01   9.469205e+01
  -4.208618e+01   3.311389e+01
  -1.132016e+02  -1.438539e+00
  -1.092877e+02  -6.983795e+01
   5.735650e+00  -4.241038e+01
   7.584485e+01  -3.528252e+01
   8.186105e+01   3.409383e+00
   3.879129e+01   1.739417e+01
  -4.778104e+01   3.326374e+00
  -3.697495e+01   1.282279e+00
  -1.514818e+01  -5.021262e+00
  -7.056407e+00   1.403700e+01
  -7.941067e+01  -2.099776e+01
  -6.196042e+01  -1.087975e+01
  -5.584281e+00  -4.733973e+01
   1.066249e+02  -6.169636e+01
   1.328256e+02  -4.016606e+01
   1.289002e+02   5.347665e+01
  -3.539550e+00   1.377576e+02
  -7.995082e+01   1.109920e+02
  -6.410202e+01   2.774752e+01
  -7.101179e+01  -2.225718e+01
   3.605363e+00  -3.231245e+01
  -3.102849e+01  -5.649542e+00
   2.429451e+01  -5.914769e+00
  -2.129965e+01  -6.470984e+01
  -1.994112e+01  -7.894231e+01
   2.922664e+01  -4.689802e+01
   6.637890e+01   1.275273e+01
   4.591737e+01   5.526590e+01
   9.375052e+00   1.418317e+02
  -7.742418e+01   5.327416e+01
  -9.921611e+01  -3.547667e+01
  -2.283492e+01  -1.049031e+02
   3.311105e+01  -5.212128e+01
   5.935308e+01  -1.900004e+01
   3.531568e+01   6.167341e+01
   8.213667e+00   5.480701e+01
  -4.043504e+01   1.811222e+01
   2.814914e+01  -2.777153e+00
   6.098219e+01   1.023583e+01
  -2.832483e+01   1.096644e+01
  -5.801069e+01   4.657529e+01
  -6.417947e+01   6.417184e+01
  -8.919736e+01  -8.651135e-01
  -2.080031e+01  -3.821293e+01
   4.472191e+01  -6.839562e+01
   1.684959e+01  -2.940711e+01
  -3.157085e+01   5.589339e+01
  -8.213123e+01   2.404102e+01
  -3.775908e+01   1.816637e+01
  -3.475304e+01  -4.026750e+01
   6.457720e+00  -5.232513e+01
   5.120457e+00   2.660055e+01
   1.699082e+01   5.063857e+01
   1.518939e+01   1.534346e+01
  -2.083092e+00   5.438414e+00
  -4.517627e+00   2.023795e+01
  -3.900718e+01   5.398782e+00
   1.847955e+01   7.035191e+01
  -3.706917e+01  -2.174037e+00
  -1.467491e+01  -2.619872e+01
  -5.245805e+00  -6.104763e+01
   6.649081e+00   4.434314e+00
   8.268194e+01   3.603956e+01
  -1.583100e+01   2.035587e+01
  -3.139146e+01   4.234310e+01
  -8.099211e+01  -4.209436e+01
  -5.148414e+01  -2.858895e+01
   3.948297e+01  -5.360768e+01
   2.379448e+01  -1.268220e+01
  -3.400164e+01   4.206464e+01
  -5.635462e+01   1.890957e+01
  -5.215557e+01  -2.676131e+01
   2.110240e+01  -4.222936e+01
   6.324231e+01  -4.311245e+00
