
 $NMID
 id='ANONYMOUS ', fmtdat='(2E16.6)'
 volume=1.0
 tramp=1.0
 $END
   4.507103e+03   1.674207e+01
   2.624049e+03   2.741792e+03
  -8.917274e+02   2.571877e+03
  -2.188300e+03   7.881255e+02
  -8.661488e+02  -6.837460e+02
   6.342161e+02  -5.381257e+02
   8.239135e+02   5.448988e+02
  -1.048837e+02   1.099143e+03
  -9.686688e+02   7.999790e+02
  -9.159987e+02  -1.612493e+02
  -3.688871e+02  -9.474606e+02
   3.247223e+02  -8.440222e+02
   6.996737e+02  -6.021128e+01
   3.825889e+02   7.679580e+02
  -3.192628e+02   7.024286e+02
  -6.772335e+02   2.475770e+01
  -1.974747e+02  -7.367762e+02
   3.709280e+02  -6.282334e+02
   5.717737e+02  -1.194767e+02
   3.862371e+02   4.071558e+02
  -1.149567e+01   4.147488e+02
  -2.677451e+02   2.654506e+02
  -2.074762e+02  -8.586847e-01
   1.162968e+02  -9.678605e+01
   4.428517e+02   1.533767e+02
   1.516209e+02   4.715570e+02
  -5.097403e+02   3.779963e+02
  -8.104083e+02  -6.935009e+01
  -4.340613e+02  -5.992188e+02
   4.383810e+02  -4.819446e+02
   7.769287e+02   3.939777e+01
   3.188302e+02   5.411449e+02
  -3.169755e+02   5.106094e+02
  -5.887545e+02   2.032701e+02
  -4.391932e+02  -2.217090e+02
  -5.510998e+01  -4.351373e+02
   2.261059e+02  -3.237774e+02
   2.031264e+02   2.593516e+02
  -1.904286e+02   4.083767e+02
  -4.312203e+02  -5.029088e+01
  -3.342776e+02  -7.394619e+02
   3.658011e+02  -8.111488e+02
   6.568218e+02   3.831380e+01
   2.186271e+02   5.986722e+02
  -3.029753e+02   3.253123e+02
  -4.395821e+02  -3.657326e+02
   4.129305e+01  -6.120758e+02
   5.731907e+02  -1.197513e+02
   5.450481e+02   4.443197e+02
   1.985153e+02   5.810904e+02
  -4.392253e+02   3.597812e+02
  -6.201194e+02  -5.268988e+01
  -4.004681e+02  -4.151029e+02
   2.119239e+02  -3.795455e+02
   4.443618e+02  -4.648955e+01
   2.710255e+02   1.782074e+02
  -1.223591e+02   1.309043e+02
  -1.478280e+02  -1.329250e+02
   1.603609e+02  -1.370198e+02
   3.032997e+02   8.055640e+01
   1.586206e+02   3.394073e+02
  -2.474786e+02   2.896709e+02
  -3.138084e+02   6.754448e+01
  -1.728953e+02  -9.087889e+01
   5.289689e+01  -2.453944e+02
   2.157427e+02  -3.152118e+02
   3.162211e+02  -2.040478e+02
   3.421632e+02   1.352279e+02
   9.008430e+01   4.439907e+02
  -1.374208e+02   4.214670e+02
  -8.405583e+01   2.962329e+01
  -1.133141e+01   4.526159e+01
  -1.604068e+01   1.250272e+02
  -2.082907e+02   1.260003e+02
  -2.981648e+02  -1.465099e+01
  -1.451478e+02  -2.557051e+02
   9.412208e+01  -2.959830e+02
   2.711225e+02  -5.126694e+00
   1.952162e+02   2.304869e+02
  -4.220523e+01   3.241313e+02
  -2.618683e+02   1.017878e+02
  -3.557294e+02  -1.850019e+02
  -1.432443e+02  -3.269391e+02
   1.227380e+02  -3.365208e+02
   2.509799e+02  -1.029654e+02
   1.642535e+02   2.750871e+00
   8.003583e+01  -5.563947e+01
   2.296405e+02  -6.529497e+01
   4.253341e+02   9.802780e+01
   3.292520e+02   2.893506e+02
  -4.855118e+00   4.586897e+02
  -3.570438e+02   4.317988e+02
  -4.989000e+02   1.411659e+02
  -3.477749e+02  -9.904267e+01
  -1.739116e+01  -2.964249e+02
   1.508106e+02  -2.744141e+02
   1.168941e+02  -1.912096e+01
  -1.028591e+02   1.128780e+02
  -1.799778e+02  -1.215223e+01
  -6.289717e+01  -1.895156e+02
   1.773608e+02  -1.651733e+02
   2.091721e+02   6.394348e+01
  -4.843479e+01   1.788519e+02
  -2.067725e+02   2.539444e+01
  -1.446593e+02  -2.389738e+02
   7.355670e+01  -4.018727e+02
   2.366811e+02  -2.460992e+02
   3.292329e+02   4.843699e+01
   3.048086e+02   2.401392e+02
   6.993492e+01   3.293767e+02
  -9.035849e+01   9.609478e+01
  -1.813433e+02   1.073673e+01
  -7.918717e+01  -7.672440e+01
   7.645318e+01   6.926529e+01
   3.462206e+01   1.449269e+02
  -1.307679e+02   1.202277e+02
  -1.685283e+02   1.335212e+00
  -4.625914e+01  -6.630205e+01
   8.379680e+01  -7.256198e+01
   5.168140e+01   3.062697e+01
  -1.197786e+02   1.286197e+02
  -2.768539e+02   1.742833e+01
  -2.717863e+02  -1.667261e+02
  -5.152008e+01  -2.656273e+02
   1.721609e+02  -2.781424e+02
   3.141083e+02  -1.061083e+02
   1.858323e+02   6.617564e+01
  -5.168931e+00   1.398949e+02
  -1.127468e+02  -1.017728e+01
   2.121953e-01  -1.194652e+02
   2.210278e+02  -5.876265e+01
   1.934407e+02   1.315669e+02
   8.992424e+01   1.959687e+02
  -6.598559e+01   1.320354e+02
  -1.486598e+02   1.225329e+01
  -7.152572e+01  -2.769262e+01
   4.092986e+01  -4.405475e+01
   6.132988e+01   5.250822e+01
  -4.175063e+01   1.357834e+02
  -1.972941e+02   3.518981e+01
  -2.186591e+02  -1.179774e+02
  -3.325078e-01  -2.385989e+02
   1.861837e+02  -1.909836e+02
   2.069271e+02  -3.507114e+00
   3.414276e+01   1.371989e+02
  -8.414126e+01   1.141875e+02
  -4.311294e+01  -4.184057e+01
  -2.357894e+01  -5.900359e+00
   2.571664e+01  -5.596294e+01
  -3.496341e+01   4.721309e+00
  -6.806194e+01   2.924068e+01
  -1.144344e+02  -5.794096e+01
  -7.047752e+00  -1.367296e+02
   1.183430e+02  -1.451778e+02
   2.316054e+02  -4.071904e+01
   2.041542e+02   1.538192e+02
   2.727209e+01   2.554678e+02
  -8.970822e+01   1.994266e+02
  -1.279359e+02   4.925676e+01
  -5.101609e+01  -4.281730e+01
  -2.614801e+01  -4.876036e+01
  -4.215895e+01   1.958283e+01
  -7.772833e+01   2.500041e+01
  -7.684424e+01  -5.302983e+01
   1.361007e+01  -1.247124e+02
   1.004524e+02  -9.262492e+01
   6.148131e+01   3.521921e+01
   1.918482e+01   7.686944e+01
  -1.426473e+02   9.979045e+01
  -1.977751e+02  -2.113890e+01
  -1.259400e+02  -1.745455e+02
   1.168171e+02  -2.179831e+02
   2.704033e+02  -1.032552e+02
   2.793432e+02   1.214909e+02
   9.533190e+01   1.577656e+02
  -3.939366e+01   1.236798e+02
  -1.033279e+02   7.960615e+01
  -9.447138e+01   1.447164e+01
  -1.013188e+02   8.659968e+01
  -6.423301e+01   6.686726e+01
  -9.849220e+01  -5.978579e+00
  -9.457556e+01  -1.396095e+02
  -4.794462e-01  -2.252905e+02
   7.710630e+01  -1.352970e+02
   1.814421e+02  -2.787274e+01
   1.701450e+02   1.057579e+02
   2.927600e+01   1.659217e+02
  -6.690024e+01   8.085019e+01
  -4.717743e+01  -2.065398e+01
  -2.177759e+01  -2.729864e+01
   2.407588e+01  -4.813194e+01
  -2.324210e+01  -1.290062e+01
  -1.160530e+02  -4.170601e+01
  -5.292877e+01  -4.552677e+01
   5.983385e+01  -5.095132e+01
   1.522964e+02   1.182193e+01
   1.393763e+02   4.248158e+01
  -3.751935e+01   9.532724e+01
  -1.362406e+02   4.823641e+01
  -1.050970e+02   1.022711e+01
  -7.119487e+01  -4.536106e+01
   3.555231e+01  -7.315866e+01
   7.343851e+01   2.183045e+01
   2.482891e+00   4.601756e+01
  -3.725131e+01   7.220472e+01
  -5.283349e+01  -6.019353e+01
  -5.345318e+01  -6.706538e+01
  -4.895027e+01  -4.254697e+01
  -9.926920e+01   7.130357e+00
  -5.889941e+01  -6.548719e+00
  -4.236340e+01  -8.410284e+01
   4.279647e+01  -1.269508e+02
   1.270673e+02  -1.598306e+02
   1.798168e+02  -1.839354e+01
   1.426449e+02   5.857586e+01
  -6.108005e+00   1.250227e+02
  -7.681544e+01   4.942146e+01
  -7.478052e+01  -1.575177e+01
   5.830964e+01  -3.231619e+01
   1.312368e+02  -5.463189e+00
   8.776428e+01   7.674931e+01
  -9.085149e+01   1.128274e+02
  -1.642805e+02   4.978870e+01
  -1.799590e+02  -3.724304e+01
  -6.338640e+01  -1.235754e+02
   9.144263e+01  -9.571253e+01
   5.676349e+01   1.887103e+01
  -2.811300e+01   3.353610e+01
  -7.350252e+01   1.595021e+01
  -1.563561e+01  -1.260777e+02
   1.027878e+02  -1.557714e+02
   1.842916e+02  -5.786231e+01
   1.080612e+02   1.225944e+02
  -1.958339e+01   1.909707e+02
  -1.060553e+02   1.252746e+02
  -7.735968e+01  -3.795576e+01
  -4.822377e+01  -1.256535e+02
  -1.365697e+01  -1.163253e+02
   3.789437e+01  -2.078190e+01
   5.024017e+01   6.059162e+01
   2.573590e+01  -1.197688e+01
   6.296889e+00  -4.924778e+01
   1.910022e+01  -1.092352e+01
   5.975802e+01   8.847724e+01
   5.913700e+01   1.183767e+02
  -2.677743e+01   6.572283e+01
  -1.842717e+02   4.115181e+00
  -1.298124e+02  -9.328839e+01
  -9.584722e+00  -2.662647e+01
   1.245277e+02  -4.604066e+01
   1.111188e+02  -1.940332e+01
   1.891962e+00   8.146135e+00
   8.806109e+00   3.374669e+01
  -2.134128e+01   1.032518e+01
   8.169532e+01  -1.074188e+01
  -4.951463e+00  -1.923599e+01
  -7.386077e+01   1.092204e+01
  -7.247650e+01  -1.892246e+01
   3.936458e+01  -7.887236e+01
   1.255656e+02  -7.949230e+01
   1.764114e+02  -1.324927e+01
   1.092546e+02   5.885536e+01
  -9.234846e+00   1.464644e+02
  -6.356824e+01   1.928719e+02
  -1.343917e+02   6.282969e+01
  -7.408070e+01   8.920044e+00
  -2.421318e+01  -3.812739e+01
   1.035950e+00  -5.945398e-01
  -2.980679e+01  -8.455323e+00
  -6.105138e+01  -2.996097e+01
  -5.128552e+01  -8.714682e+01
  -1.329498e+01  -3.617752e+01
   8.885068e+01  -2.508757e+01
   4.698640e+01   8.912795e+01
   3.855548e+00   9.991971e+01
  -5.551984e+01  -1.649780e+01
  -7.523918e+01  -1.008473e+02
  -2.248299e+01  -1.085724e+02
   6.591802e+01  -3.091394e+01
   8.457197e+01   1.813646e+01
   7.014538e+01   7.325183e+01
  -1.771278e+01   9.330274e+01
  -1.426846e+01  -9.835954e+00
   3.440971e+00  -4.247923e+00
   5.772103e+01  -1.586025e+01
   2.817905e+01   6.497229e+01
  -8.065774e+01   8.431607e+01
  -1.401604e+02   3.555366e+01
  -6.045412e+01  -3.625988e+01
  -2.865464e+00  -8.081933e+01
   4.444929e+01  -1.705297e+01
   1.260326e+01  -6.058456e+00
  -1.048350e+01   5.717585e+01
  -1.549954e+01   3.291083e+01
  -3.615624e+01  -3.371140e+01
  -6.821676e+01  -6.196082e+01
   8.686006e+00  -4.429411e+01
  -5.811863e-01   1.914374e+01
   3.548436e+01   5.583078e+01
   4.638060e+01  -2.201086e+01
  -7.434380e+00  -3.158018e+01
   3.440305e+00   2.738583e+01
  -1.895086e+01   6.932543e+00
  -1.920460e+00   3.561544e+01
  -3.861279e+01   1.907485e+01
  -6.653216e+01  -7.852330e+01
   1.816872e+01  -7.114804e+01
   7.646710e+01  -2.704820e+01
   8.948141e+01   3.247770e+01
   3.314817e+01   7.257481e+01
  -5.514448e+01   2.702307e+01
  -7.638765e+01  -3.437426e+01
  -6.079817e+01  -5.724563e+01
   4.534764e+01  -1.993494e+01
   1.886834e+01  -1.861001e+01
   3.694668e+01   6.321158e+00
  -3.521796e+01  -1.551948e+01
  -2.016724e+01  -4.373203e+01
   1.488281e+01  -4.781391e+01
   1.344227e+02  -2.786424e+01
