
 $NMID
 id='ANONYMOUS ', fmtdat='(2E16.6)'
 volume=1.0
 tramp=1.0
 $END
  -4.471827e+03  -8.947370e+00
  -2.571461e+03  -2.614781e+03
   7.098677e+02  -2.551764e+03
   1.984214e+03  -8.446987e+02
   9.450325e+02   5.711182e+02
  -5.246055e+02   4.539874e+02
  -7.263693e+02  -4.990543e+02
   1.416707e+02  -9.559470e+02
   9.706814e+02  -8.099036e+02
   9.436871e+02   1.530685e+02
   3.334505e+02   8.733970e+02
  -2.525284e+02   8.299491e+02
  -6.020914e+02   8.451343e+01
  -3.653018e+02  -7.326933e+02
   3.000409e+02  -6.575277e+02
   5.904609e+02  -2.856444e+01
   1.845903e+02   7.122913e+02
  -2.853775e+02   6.496066e+02
  -5.215179e+02   1.363745e+02
  -3.612865e+02  -3.801667e+02
  -6.205431e+00  -4.231451e+02
   2.228800e+02  -2.939536e+02
   1.858208e+02   3.780920e+01
  -1.143477e+02   7.062509e+01
  -4.726795e+02  -1.663883e+02
  -9.771798e+01  -4.732934e+02
   4.939674e+02  -3.404704e+02
   8.121353e+02   9.258702e+01
   4.190265e+02   5.487560e+02
  -3.925014e+02   4.296589e+02
  -7.392110e+02  -9.490432e+01
  -3.288614e+02  -5.037491e+02
   2.833064e+02  -4.994581e+02
   5.674182e+02  -1.880020e+02
   4.201900e+02   2.398786e+02
   5.944282e+01   4.039894e+02
  -2.012235e+02   2.848305e+02
  -1.734638e+02  -2.234862e+02
   1.891716e+02  -3.925104e+02
   3.676389e+02   4.834989e+01
   2.664880e+02   7.182304e+02
  -3.513967e+02   7.034112e+02
  -5.801850e+02  -6.887596e+01
  -1.698542e+02  -5.084893e+02
   2.631336e+02  -2.770084e+02
   3.557332e+02   3.293818e+02
  -6.580605e+01   5.725077e+02
  -5.485072e+02   9.804220e+01
  -5.365571e+02  -4.455474e+02
  -1.246634e+02  -5.379245e+02
   3.653744e+02  -3.385752e+02
   6.059982e+02   4.253633e+01
   3.980710e+02   4.074621e+02
  -1.715528e+02   3.619606e+02
  -3.970106e+02   7.735920e+00
  -2.596999e+02  -1.697565e+02
   1.412638e+02  -5.548032e+01
   1.152020e+02   1.429344e+02
  -1.896478e+02   1.480045e+02
  -2.597534e+02  -9.902479e+01
  -1.740092e+02  -3.033699e+02
   2.294296e+02  -2.898988e+02
   3.617954e+02  -1.337958e+02
   1.640202e+02   9.747779e+01
  -3.521488e+01   2.213225e+02
  -2.395720e+02   3.048292e+02
  -3.305671e+02   1.994814e+02
  -2.953208e+02  -1.763275e+02
  -6.269691e+01  -3.912612e+02
   1.175450e+02  -4.060084e+02
   1.176939e+02  -7.771805e+01
  -1.852180e+01  -5.346849e+01
   3.953089e+01  -1.064145e+02
   1.929584e+02  -1.058027e+02
   2.712883e+02   4.043013e+01
   1.463261e+02   2.328048e+02
  -1.182849e+02   2.909091e+02
  -2.858371e+02  -3.258119e+01
  -1.829746e+02  -2.639016e+02
   2.755680e+01  -3.219627e+02
   2.990480e+02  -1.138831e+02
   3.428734e+02   1.810480e+02
   1.449708e+02   3.263072e+02
  -8.355298e+01   3.141211e+02
  -2.504871e+02   1.190028e+02
  -1.406812e+02   3.100297e+00
  -9.072825e+01   1.125161e+01
  -2.246392e+02   4.422211e+01
  -4.479140e+02  -8.585738e+01
  -3.302374e+02  -2.493906e+02
   7.528459e+00  -4.801363e+02
   4.018697e+02  -4.124886e+02
   4.543627e+02  -1.860729e+02
   3.285520e+02   1.045896e+02
   6.693708e+01   2.740844e+02
  -1.389572e+02   2.999235e+02
  -8.011514e+01   8.970478e+00
   8.664981e+01  -9.741639e+01
   2.277335e+02   6.016605e+01
   3.912895e+01   1.902652e+02
  -1.994745e+02   2.175954e+02
  -1.399845e+02  -6.946392e+01
   5.699668e+01  -2.434622e+02
   1.896869e+02  -1.314709e+01
   1.934641e+02   2.124538e+02
  -5.895667e+01   3.262123e+02
  -2.035511e+02   1.999876e+02
  -3.240641e+02  -8.177057e+01
  -2.983462e+02  -2.621222e+02
  -8.237846e+01  -2.613613e+02
   1.040333e+02  -1.239693e+02
   1.894591e+02  -1.477423e+01
   3.273010e+01   1.609238e+01
  -5.298873e+01  -5.820554e+01
  -3.192807e+01  -1.199254e+02
   1.313646e+02  -7.549881e+01
   1.773538e+02   5.285762e+01
   4.908377e+01   7.731059e+01
  -8.594245e+01   1.356800e+01
  -6.334004e+01  -2.222727e+01
   9.047898e+01  -1.096151e+02
   3.022739e+02  -1.638764e+01
   2.996801e+02   1.479353e+02
   2.943131e+01   2.492668e+02
  -1.913387e+02   2.573575e+02
  -3.182983e+02   1.264756e+02
  -2.317621e+02  -6.719434e+01
  -2.841838e+01  -9.754836e+01
   1.052394e+02   1.551031e-01
  -2.866212e+01   1.003005e+02
  -2.210050e+02   2.760800e+01
  -1.913178e+02  -1.083833e+02
  -6.217979e+01  -2.204007e+02
   9.111776e+01  -1.459215e+02
   1.485687e+02  -3.652410e+01
   7.768944e+01   3.666369e+01
  -4.104554e+01  -1.359706e+01
  -2.024460e+01  -8.434625e+01
   7.752952e+01  -7.912812e+01
   2.484612e+02  -3.244150e+01
   2.021511e+02   1.595643e+02
   3.196252e+01   2.467159e+02
  -1.660247e+02   1.728011e+02
  -2.053389e+02   1.515356e+00
  -5.090965e+01  -7.953217e+01
   5.474153e+01  -6.858623e+01
   7.446517e+01  -2.952598e+01
   8.000971e+00   2.603989e+01
  -1.526114e+01   4.819480e+01
  -8.892988e+00   1.408235e+01
   5.800760e+01   2.305731e+01
   7.695886e+01   9.057178e+01
   2.974492e+01   1.756290e+02
  -1.239048e+02   1.419998e+02
  -2.332684e+02   3.422003e+01
  -1.914971e+02  -1.660312e+02
  -6.414385e+01  -2.585296e+02
   1.461581e+02  -1.589391e+02
   1.444457e+02  -5.354735e+01
   9.347216e+01   3.963048e+01
   1.556210e+01   4.321475e+01
   3.673485e+01  -1.574826e+01
   6.594210e+01  -3.689275e+01
   5.156555e+01   6.703715e+01
  -4.062951e+01   6.558406e+01
  -1.285398e+02   1.097374e+02
  -1.212399e+02  -5.425156e+01
   7.763127e+00  -9.032464e+01
   1.801317e+02  -1.179701e+02
   2.018002e+02   1.123611e+01
   7.939138e+01   1.710754e+02
  -8.302453e+01   2.294450e+02
  -2.596472e+02   6.574971e+01
  -2.758811e+02  -1.009311e+02
  -9.921637e+01  -1.775035e+02
   3.736129e+01  -1.530642e+02
   1.073478e+02  -9.654293e+01
   8.375864e+01  -5.793287e+01
   7.805263e+01  -1.069759e+02
   8.530936e+01  -9.130812e+01
   1.351926e+02   6.323911e+00
   9.554282e+01   1.817478e+02
  -2.016646e+01   2.072108e+02
  -1.320691e+02   1.645727e+02
  -1.913767e+02   1.210940e+01
  -1.572812e+02  -1.596003e+02
  -3.811704e+01  -1.847324e+02
   6.170884e+01  -9.757857e+01
   3.547075e+01   2.537449e+01
   6.606999e-01   8.584547e+00
   2.801020e+01   4.626167e+01
   3.737393e+01   3.083957e+00
   9.241098e+01   1.523445e+01
   3.734462e+01   3.502304e+01
  -4.872812e+01   2.920616e+01
  -1.398233e+02   1.215112e+01
  -1.633062e+02  -2.696468e+01
  -6.216322e+01  -8.599677e+01
   1.091560e+02  -1.046635e+02
   1.634648e+02   6.825311e-01
   7.128689e+01   1.840314e+01
  -9.743540e+01   3.428648e+01
  -8.553008e+01  -3.877577e+01
  -3.107471e+01  -3.374028e+01
   4.799288e+01  -3.488073e+01
   2.392861e+01  -3.494708e+00
   4.254285e+01   6.287549e+01
   1.897937e+01   1.368838e+01
   6.113395e+01   2.907361e+01
   8.867652e+01   8.925795e+00
   5.956356e+01   8.851455e+01
   5.533844e+00   1.440641e+02
  -1.316524e+02   1.598392e+02
  -1.334331e+02   4.098295e+01
  -1.660732e+02  -9.459940e+01
  -2.280276e+01  -1.267782e+02
   6.296601e+01  -3.476255e+01
   5.660278e+01   3.436519e+01
  -2.657757e+01   4.261695e+00
  -1.397191e+02  -4.264910e+01
  -7.053592e+01  -1.215021e+02
   1.260453e+02  -1.352564e+02
   1.660173e+02  -4.917168e+01
   2.028337e+02   4.702653e+01
   6.460442e+01   3.674722e+01
  -6.475385e+01   8.506493e+01
  -6.925673e+01   1.942500e+00
   2.845672e+01  -1.438243e+01
   5.275522e+01   2.556554e-01
   2.301676e+01   1.418442e+02
  -4.919446e+01   1.705743e+02
  -1.482522e+02   6.586261e+01
  -1.304642e+02  -1.318565e+02
  -1.588202e+01  -1.853684e+02
   1.018375e+02  -1.211491e+02
   9.444818e+01   1.801259e+01
   6.733652e+01   9.708824e+01
   2.119417e+01   6.308071e+01
  -2.606007e+01   1.084300e+01
  -4.729296e+01  -6.359620e+01
  -1.204599e+01   4.746847e+00
   5.731318e+00   1.782793e+01
  -2.512460e+01   1.361970e+01
  -9.082615e+01  -8.661958e+01
  -6.753270e+01  -1.278640e+02
   2.629957e+01  -4.267611e+01
   1.294210e+02   5.332728e+01
   1.395429e+02   9.194440e+01
   1.329713e+01   3.434561e+01
  -1.382296e+02   4.126734e+01
  -8.276915e+01  -2.209149e+01
   1.840903e+01  -1.415379e+01
   4.175302e+01  -3.050178e+01
   1.477172e+01  -1.450278e+01
  -1.986602e+01   3.640106e+00
   3.151774e+01   5.012698e+00
   9.159496e+01   2.144271e+01
   1.010873e+02   4.347832e+01
  -2.657864e+01   7.990591e+01
  -1.337306e+02   1.133478e+02
  -2.148207e+02   4.595436e+01
  -1.364356e+02  -7.151960e+01
  -1.340256e+01  -1.519012e+02
   7.617052e+01  -1.518443e+02
   1.437723e+02  -6.196948e+01
   8.072743e+01   2.909878e+01
   2.090098e+01   4.833141e+01
   2.998399e+01   3.765263e+00
  -1.022091e+01   1.588848e+01
   6.796067e+01  -5.465872e-02
   4.886945e+01   9.822560e+01
  -9.384316e+00   5.703437e+01
  -8.175806e+01  -1.850646e+01
  -6.006303e+01  -1.236772e+02
   1.919727e+00  -1.171308e+02
   6.098331e+01  -1.588549e+00
   9.506830e+01   5.572699e+01
   1.575262e+01   8.666273e+01
  -7.627049e+01   3.649984e+01
  -8.360429e+01   2.578819e-01
   3.373479e+00  -4.186673e+01
   3.751695e+01  -5.166117e+01
   2.757217e+01  -4.280895e+01
  -6.177615e+01   8.664394e+00
  -3.879674e+01  -1.936683e+01
   1.500803e+01  -1.001958e+01
   8.445533e+01  -1.021731e+02
   1.073388e+02  -3.757258e+01
   4.930083e+01   2.729319e+01
  -1.598905e+01   1.210655e+02
  -4.137378e+01   1.208984e+02
  -5.831941e+01  -2.472402e+01
  -6.714124e+00  -3.316523e+01
   4.257161e+01  -4.262586e+01
   3.870180e+01  -1.974981e+01
   3.868868e+01   5.114237e+01
   4.290707e+01   6.961411e+00
  -2.013896e+01   2.348930e+01
  -5.175608e+01  -8.629461e+00
  -3.494657e+01  -6.790030e+00
   1.460394e+01  -1.795522e+00
  -2.834649e+01  -7.375422e+00
   2.065101e+01  -1.826165e+01
   1.197071e+01  -3.546334e+01
   2.193579e+01  -2.006276e+01
   4.374495e+01   3.147767e+01
  -1.377608e+01   6.323720e+01
  -1.906287e+01  -2.193650e+01
  -7.154067e+01  -3.369727e+01
  -6.048880e+00  -7.658527e+01
   5.258753e+01  -2.731354e+01
   5.670997e+01   1.485929e+01
   3.088969e+01   1.321252e+01
  -7.325026e+01   5.060008e+01
  -8.981693e+01   2.692162e+01
   1.230654e+01   3.610111e+01
   9.301725e+00   2.825753e+01
   1.220265e+01   3.050624e+01
  -1.502216e+01   3.063510e+01
  -1.002506e+02   4.037264e+01
