
 $NMID
 id='ANONYMOUS ', fmtdat='(2E16.6)'
 volume=1.0
 tramp=1.0
 $END
   4.544701e+03  -1.224714e+02
   2.689901e+03   2.675980e+03
  -9.338963e+02   2.709290e+03
  -2.031419e+03   7.925867e+02
  -7.245650e+02  -6.935636e+02
   8.142882e+02  -6.400324e+02
   7.988449e+02   5.076762e+02
  -1.154480e+02   1.081340e+03
  -8.757867e+02   8.153147e+02
  -9.220397e+02  -1.718473e+02
  -3.831318e+02  -9.678880e+02
   3.670769e+02  -8.494440e+02
   6.611391e+02  -1.527330e+00
   3.907028e+02   8.502828e+02
  -3.107434e+02   7.074892e+02
  -5.940318e+02   2.223248e+00
  -1.805434e+02  -6.935950e+02
   3.674790e+02  -6.039775e+02
   5.544021e+02  -9.286428e+01
   3.601613e+02   3.663001e+02
   2.340601e+01   4.132129e+02
  -2.627721e+02   2.542349e+02
  -1.894414e+02  -3.660300e+00
   1.356210e+02  -1.234912e+02
   4.850248e+02   2.046578e+02
   1.830614e+02   4.995134e+02
  -4.719577e+02   3.933641e+02
  -8.419521e+02  -1.152194e+02
  -4.549281e+02  -5.718110e+02
   4.787556e+02  -4.879433e+02
   7.413837e+02   9.256853e+01
   3.247283e+02   4.817280e+02
  -3.245279e+02   5.384179e+02
  -5.946543e+02   2.055405e+02
  -3.987811e+02  -2.088090e+02
  -6.105145e+01  -4.749272e+02
   1.853322e+02  -2.740290e+02
   2.324232e+02   2.811778e+02
  -2.443781e+02   4.553680e+02
  -4.647457e+02  -4.989955e+01
  -3.362358e+02  -7.126683e+02
   4.012810e+02  -7.101455e+02
   6.095142e+02   2.507940e+01
   2.423774e+02   5.945380e+02
  -2.654227e+02   2.970753e+02
  -3.806796e+02  -3.293825e+02
   2.807587e+01  -5.967454e+02
   5.643190e+02  -1.204660e+02
   5.640772e+02   5.084179e+02
   1.648352e+02   5.802125e+02
  -3.855441e+02   3.432270e+02
  -6.153816e+02  -3.613111e+01
  -4.152360e+02  -4.056509e+02
   2.214000e+02  -3.843819e+02
   4.602661e+02  -2.851503e+00
   2.849465e+02   1.813470e+02
  -1.367618e+02   4.660733e+01
  -1.858233e+02  -1.842924e+02
   2.166965e+02  -1.823828e+02
   3.620826e+02   4.781129e+01
   1.522431e+02   3.659376e+02
  -1.869308e+02   2.611484e+02
  -3.077653e+02   4.941491e+01
  -1.765071e+02  -1.139399e+02
   1.379883e+00  -2.076061e+02
   1.750625e+02  -3.531526e+02
   3.144152e+02  -2.323209e+02
   3.268045e+02   1.830850e+02
   1.062837e+02   4.531709e+02
  -1.052660e+02   4.595859e+02
  -1.159419e+02   9.122323e+01
  -5.339030e-01  -3.609595e+01
  -4.609127e+00   8.232793e+01
  -1.471135e+02   1.159695e+02
  -2.727739e+02  -7.795397e+01
  -1.817475e+02  -2.721317e+02
   5.188086e+01  -2.879103e+02
   2.875455e+02  -1.195672e+01
   1.786824e+02   2.763781e+02
  -6.930629e+01   2.877001e+02
  -2.558979e+02   1.228301e+02
  -3.591085e+02  -1.847627e+02
  -2.045955e+02  -3.104662e+02
   8.443487e+01  -3.072779e+02
   2.146001e+02  -1.242268e+02
   1.476561e+02  -1.059124e+01
   1.084266e+02  -2.216198e+01
   2.192520e+02  -1.020270e+02
   3.967374e+02   7.898458e+01
   3.380205e+02   2.524938e+02
   8.753685e+00   4.700010e+02
  -3.321416e+02   4.605234e+02
  -4.840657e+02   1.660905e+02
  -3.618872e+02  -8.086967e+01
  -7.045041e+01  -3.064310e+02
   1.395475e+02  -2.500627e+02
   8.101769e+01  -3.750286e+01
  -1.167914e+02   1.184293e+02
  -1.630160e+02  -3.293922e+01
  -1.354666e+01  -1.873727e+02
   1.638039e+02  -1.891565e+02
   1.983674e+02   8.273056e+01
  -2.274720e+01   2.027560e+02
  -1.866860e+02   5.153705e+01
  -1.902351e+02  -2.266112e+02
   4.095599e+01  -3.506385e+02
   2.718849e+02  -1.984940e+02
   3.329767e+02   5.467831e+01
   2.940492e+02   2.154304e+02
   1.171813e+02   2.855484e+02
  -1.226428e+02   1.472687e+02
  -1.742400e+02  -5.774794e+00
  -8.962916e+01  -4.854648e+01
   6.566816e+01   2.722846e+01
   2.462828e+01   1.046862e+02
  -1.170299e+02   9.678743e+01
  -1.913019e+02  -2.333086e+01
  -6.244071e+01  -1.138680e+02
   1.105859e+02  -2.861322e+00
   9.010196e+01   7.336558e+01
  -1.218299e+02   8.776285e+01
  -2.901898e+02   4.150441e+01
  -2.682246e+02  -1.505747e+02
  -6.975450e+01  -2.358954e+02
   1.521797e+02  -2.895788e+02
   3.358091e+02  -1.387622e+02
   1.959698e+02   2.639669e+01
  -1.121015e+01   1.249549e+02
  -1.116711e+02   4.405906e+01
  -6.209877e+00  -1.245626e+02
   1.856283e+02  -5.921146e+01
   1.979964e+02   1.081309e+02
   8.788208e+01   2.751728e+02
  -7.160907e+01   1.602922e+02
  -1.200670e+02   1.613060e+01
  -6.500147e+01  -1.641880e+01
   3.616258e+01  -9.719467e-01
   2.127274e+01   1.055427e+02
  -7.677615e+01   1.382377e+02
  -1.898537e+02   4.135717e+01
  -1.955448e+02  -1.181843e+02
  -2.213239e+01  -2.616403e+02
   1.317123e+02  -1.578274e+02
   1.776711e+02  -1.696593e+01
   7.697750e+01   1.209091e+02
  -7.906856e+01   1.060016e+02
  -6.809478e+01   4.030410e+00
  -4.692894e+01  -3.026513e+01
   1.072051e+01  -3.854039e+00
  -2.945240e+01   1.147073e+00
  -5.259855e+01   6.752455e+00
  -1.176293e+02  -4.761217e+01
  -6.224924e+01  -1.588655e+02
   1.028388e+02  -1.628360e+02
   2.346644e+02  -4.318771e+01
   2.306829e+02   1.032628e+02
   5.011854e+01   2.593862e+02
  -1.008397e+02   1.408293e+02
  -1.423589e+02   2.721256e+01
  -4.193888e+01  -5.182142e+01
  -3.108341e+01  -2.805018e+01
  -8.554928e+00   1.022836e+01
  -5.198967e+01   1.772062e+01
  -8.627321e+01  -1.031410e+02
   3.539246e+01  -9.083959e+01
   1.087085e+02  -7.648686e+01
   6.541776e+01   1.095572e+01
  -3.920673e+01   1.119146e+02
  -1.342220e+02   8.315342e+01
  -2.002139e+02  -5.249681e+01
  -7.468120e+01  -2.341318e+02
   1.045559e+02  -2.639775e+02
   2.353339e+02  -9.508978e+01
   2.794683e+02   5.549865e+01
   1.184376e+02   1.322961e+02
  -3.979685e+01   1.106334e+02
  -7.593480e+01   1.052979e+02
  -3.402253e+01   4.968399e+01
  -4.917010e+01   1.011805e+02
  -5.123237e+01   9.059193e+01
  -1.477797e+02  -2.219376e+01
  -9.992578e+01  -1.790147e+02
  -2.791776e+01  -2.081778e+02
   7.618968e+01  -1.659079e+02
   1.719582e+02  -1.671407e+01
   1.635221e+02   1.747809e+02
   5.665813e+01   1.417668e+02
  -8.317505e+01   6.795203e+01
  -3.944826e+01  -1.491072e+01
  -3.909814e+01  -9.641185e+01
  -1.190305e+01  -4.208767e+01
  -2.068059e+01  -2.064111e+01
  -6.436147e+01   8.349819e+00
  -1.732076e+01  -2.892030e+01
   2.216563e+01  -1.887454e+01
   1.889818e+02  -4.264573e+01
   1.610498e+02   8.943170e+01
   3.204059e+01   8.807747e+01
  -1.121654e+02   4.669405e+01
  -1.578462e+02   2.575811e+01
  -2.959023e+01  -6.494435e+01
   4.907095e+01  -2.577334e+01
   5.953833e+01   6.295393e+01
  -1.338909e+01   6.706146e+01
  -6.665908e+01   3.807347e+01
  -7.215348e+01   3.699909e+00
  -3.635966e+01  -7.970927e+01
  -3.876778e+01  -6.125500e+01
  -5.459455e+01  -1.523397e+00
  -9.779068e+01  -2.454230e+01
  -2.100685e+01  -5.384773e+01
   3.199177e+01  -1.501690e+02
   8.901646e+01  -1.153688e+02
   1.661591e+02  -4.942011e+01
   1.072957e+02   8.229617e+01
   2.800110e+01   1.390369e+02
  -8.267839e+01   6.285471e+01
  -9.030412e+01  -4.613034e+00
   5.519879e+01   1.023547e+01
   1.417003e+02   3.595544e+01
   8.335287e+01   1.463619e+02
  -8.279976e+01   1.404941e+02
  -1.644789e+02   2.794087e+01
  -1.586894e+02  -4.960794e+00
  -3.869152e+01  -8.150889e+01
   7.549802e+01  -7.305750e+01
   7.711525e+01   3.020627e+01
  -4.377186e+01   1.039494e+00
  -8.054048e+01  -4.404451e+01
  -2.527940e+00  -8.424709e+01
   8.936245e+01  -1.504098e+02
   1.489971e+02  -1.941856e+01
   1.154909e+02   1.188753e+02
   9.069258e+00   2.011289e+02
  -9.628935e+01   1.460716e+02
  -9.174586e+01  -2.341722e+00
  -3.642987e+01  -9.768962e+01
  -1.442699e+00  -9.415598e+01
   3.006611e+01  -2.112359e+01
   6.254945e+00   4.755676e+01
   3.221777e+01   2.952802e+01
   4.289154e+01  -1.745213e+01
   3.017678e+01  -7.893908e+00
   6.362087e+01   9.395745e+01
   3.897133e+01   1.058758e+02
  -4.350913e+01   2.851901e+01
  -1.482826e+02  -2.129826e+01
  -1.598301e+02  -1.184460e+02
  -9.548293e+00  -6.888184e+01
   8.630150e+01   5.137327e-01
   6.806547e+01   3.860470e+00
   4.648469e+01   2.318179e+01
  -1.510067e+01   4.190613e+01
   1.433212e+01   1.932455e+01
   3.414486e+01   3.056427e+01
  -3.003429e+01  -8.045881e+00
  -8.944068e+01   6.020008e+00
  -1.000392e+02  -3.673550e+01
   4.730988e+01  -1.184463e+02
   1.108511e+02  -1.080283e+02
   1.796950e+02  -6.693709e+01
   1.378905e+02   5.226984e+01
   2.487419e+01   1.690033e+02
  -7.766166e+01   1.298617e+02
  -9.928752e+01   5.033184e+01
  -9.150897e+01  -3.027225e+01
  -3.460764e+01  -2.542488e+01
  -6.986163e+00  -1.604505e+01
  -3.071966e+01  -1.307676e+00
  -5.660232e+01  -3.221477e+01
  -3.643988e+01  -1.138273e+02
   5.215611e+01  -7.898496e+01
   1.049046e+02   5.415045e+01
   7.537855e+01   1.365687e+02
   9.348974e+00   1.032640e+02
  -6.863146e+01   1.447187e+01
  -1.062067e+02  -4.371918e+01
  -2.167314e+01  -1.010540e+02
   6.911053e+01  -7.140500e+01
   6.545394e+01   2.336901e+01
   4.676145e+01   4.214209e+01
  -2.625255e+01   2.870901e+01
   7.989166e+00   3.496135e+01
   1.193158e+01   1.790789e+01
   6.682358e+01   2.067030e+00
   2.955469e+01   6.747406e+01
  -6.564191e+01   4.755877e+01
  -1.416845e+02   6.664990e+01
  -7.606580e+01   8.256312e+00
   3.304977e+01  -6.617845e+01
   5.329073e+01  -6.068586e+01
   1.564766e+01   5.516574e+00
  -1.487303e+01   6.603288e+01
  -2.548181e+01   4.955367e+01
  -3.680344e+01   4.088421e+00
  -5.452018e+01  -5.425645e+01
  -5.299973e+00  -5.283937e+01
   2.295432e+01  -4.885065e+00
   5.574589e+01   8.065240e+00
   2.648713e+01   7.198214e+00
   7.644977e+00  -1.837086e+01
  -3.757572e+00  -2.948570e+01
  -2.527460e+01   6.767297e+01
   2.932054e+01   1.571408e+01
  -6.050066e+01   1.175768e+01
   5.818423e+00  -3.926413e+01
   1.039582e+01  -3.915747e+01
   3.185590e+01  -3.958344e+01
   5.178366e+01   5.802241e+01
   3.988313e+01   6.428614e+01
  -7.602376e+01   4.404720e+01
  -7.875374e+01  -6.605549e+01
  -3.917598e+01  -1.813820e+01
   2.951243e+01  -5.129677e+01
   6.502535e+01  -4.374772e+00
  -1.406610e+01   9.607407e+00
  -1.413561e+01   2.117157e+01
  -3.088381e+01   5.364937e+00
   3.797710e+01  -7.579830e+01
   8.950504e+01  -3.995446e+00
