
 $NMID
 id='ANONYMOUS ', fmtdat='(2E16.6)'
 volume=1.0
 tramp=1.0
 $END
  -4.330747e+03   9.029036e+01
  -2.481170e+03  -2.638244e+03
   7.359600e+02  -2.630776e+03
   1.858558e+03  -6.552231e+02
   7.542608e+02   6.340775e+02
  -6.566578e+02   5.644743e+02
  -7.474329e+02  -5.200761e+02
   1.227783e+02  -1.027535e+03
   8.034462e+02  -7.657730e+02
   9.039601e+02   1.540327e+02
   3.835666e+02   8.684991e+02
  -3.541654e+02   8.191659e+02
  -6.125567e+02   3.770405e+01
  -3.758168e+02  -7.967428e+02
   2.318420e+02  -6.466701e+02
   5.934303e+02   3.834987e+00
   1.911703e+02   6.660034e+02
  -3.389949e+02   5.873694e+02
  -5.397387e+02   4.763546e+01
  -3.737545e+02  -3.689886e+02
   3.535641e+00  -3.674427e+02
   2.234237e+02  -2.306113e+02
   1.909848e+02  -1.497192e+01
  -1.286272e+02   6.811578e+01
  -4.578887e+02  -1.435708e+02
  -1.401819e+02  -4.642756e+02
   5.001574e+02  -3.690898e+02
   8.558200e+02   8.585762e+01
   3.873883e+02   5.956506e+02
  -3.975554e+02   4.530751e+02
  -6.992076e+02  -1.069076e+02
  -2.775619e+02  -3.943882e+02
   2.997409e+02  -4.977681e+02
   5.178097e+02  -2.660151e+02
   3.635450e+02   1.973913e+02
   6.121020e+01   4.546828e+02
  -1.912295e+02   2.516884e+02
  -2.010447e+02  -2.189789e+02
   1.994639e+02  -4.234286e+02
   4.354837e+02  -3.236225e+00
   3.343049e+02   6.481487e+02
  -3.784570e+02   7.136493e+02
  -5.551247e+02  -3.839787e+01
  -2.113226e+02  -5.173546e+02
   2.537168e+02  -2.907179e+02
   3.643732e+02   3.040137e+02
  -4.894883e+01   5.353322e+02
  -5.982044e+02   1.063335e+02
  -5.498385e+02  -4.509168e+02
  -1.296187e+02  -5.624574e+02
   3.640412e+02  -3.488505e+02
   5.818631e+02   1.015974e+02
   3.828836e+02   3.666017e+02
  -1.776314e+02   3.986246e+02
  -4.219291e+02   3.278966e+00
  -2.424490e+02  -1.982348e+02
   1.227503e+02  -8.190883e+01
   1.460626e+02   1.725628e+02
  -2.148147e+02   1.334156e+02
  -3.113432e+02  -9.130228e+01
  -1.555654e+02  -3.036417e+02
   1.998874e+02  -2.032421e+02
   3.340066e+02  -5.162880e+01
   1.566318e+02   4.688278e+01
   1.949380e+01   1.999712e+02
  -1.778726e+02   3.140650e+02
  -3.090570e+02   1.880437e+02
  -2.929067e+02  -1.492468e+02
  -8.510312e+01  -4.472919e+02
   1.164459e+02  -3.617163e+02
   9.609357e+01  -1.012816e+02
   1.077246e-01   6.168014e+00
  -1.662083e+01  -7.777972e+01
   1.859451e+02  -1.262723e+02
   2.792434e+02   2.577895e+00
   1.525930e+02   2.214257e+02
  -1.142703e+02   2.532447e+02
  -2.229601e+02   4.052174e+01
  -1.820798e+02  -2.348353e+02
   4.690651e+01  -2.878017e+02
   2.792077e+02  -5.716483e+01
   3.827041e+02   1.647622e+02
   1.900140e+02   3.189935e+02
  -1.060697e+02   3.174236e+02
  -2.374467e+02   7.353060e+01
  -1.177453e+02   1.474352e+00
  -6.979074e+01   8.760649e+01
  -1.932075e+02   4.509966e+01
  -4.018297e+02  -6.859557e+01
  -2.993941e+02  -2.391751e+02
   1.116008e+01  -4.530544e+02
   3.446264e+02  -4.506635e+02
   4.575728e+02  -1.850679e+02
   2.855170e+02   1.227311e+02
   7.018663e+01   2.727924e+02
  -1.694248e+02   2.708930e+02
  -9.378655e+01   2.685481e+01
   1.034347e+02  -1.028912e+02
   2.237742e+02   1.616778e+01
   7.088892e+01   2.280158e+02
  -1.511611e+02   1.669973e+02
  -2.028098e+02  -5.409268e+01
   2.338855e+01  -1.354051e+02
   1.638442e+02  -6.562417e+01
   1.565019e+02   2.177779e+02
  -1.763623e+01   3.488415e+02
  -2.380716e+02   1.763900e+02
  -2.825912e+02  -4.767240e+01
  -2.661920e+02  -2.068756e+02
  -1.034611e+02  -2.439002e+02
   1.215892e+02  -1.649891e+02
   2.069789e+02  -3.957779e+01
   2.832344e+01   2.889031e+01
  -5.217772e+01  -4.540709e+01
  -4.516427e+01  -1.243227e+02
   1.015561e+02  -9.600200e+01
   1.653352e+02   2.256811e+01
   3.585653e+01   8.434213e+01
  -3.107420e+01  -8.279422e-01
  -2.901404e+01  -5.022364e+00
   9.432141e+01  -1.031729e+02
   2.256855e+02  -1.196028e+01
   2.398490e+02   1.432827e+02
   7.942114e+01   2.443707e+02
  -1.415272e+02   2.642549e+02
  -2.861868e+02   1.422730e+02
  -1.700334e+02  -2.482504e+01
   2.552441e+01  -1.307310e+02
   9.362426e+01  -3.283571e+00
  -3.841319e+01   1.327999e+02
  -1.559438e+02   8.464394e+01
  -2.179735e+02  -1.300899e+02
  -8.442044e+01  -1.877008e+02
   7.638135e+01  -1.813586e+02
   1.260018e+02  -2.462391e+01
   2.604594e+01   6.902228e+01
  -4.899588e+01  -1.270560e+01
  -7.011368e+01  -7.282853e+01
   5.135650e+01  -9.544629e+01
   1.669086e+02  -5.153817e+01
   2.064503e+02   8.994423e+01
   1.388987e+01   1.779398e+02
  -1.767701e+02   1.262371e+02
  -2.201119e+02  -6.404568e+00
  -9.615062e+01  -1.319101e+02
   5.297032e+01  -1.091113e+02
   5.803517e+01  -1.767766e+01
   1.999220e+01   2.041907e+01
  -4.240727e+01   4.965135e+01
  -8.419352e-01  -1.710360e+01
   7.736531e+01  -8.661164e+00
   8.237117e+01   7.592556e+01
   2.811567e+01   1.571939e+02
  -1.209007e+02   1.815669e+02
  -2.051333e+02   3.440095e+01
  -1.848083e+02  -1.210329e+02
  -6.282154e+01  -2.784085e+02
   5.664989e+01  -1.744317e+02
   1.438998e+02  -2.375242e+01
   4.275134e+01   3.063956e+01
   2.804257e+01   3.028381e+01
   8.924014e+01  -1.124794e+01
   6.870972e+01  -2.056267e+01
   2.296511e+01   7.583543e+01
  -2.022584e+01   1.189815e+02
  -9.219553e+01   7.020047e+01
  -1.009984e+02  -6.418229e+01
   6.158603e+00  -9.619846e+01
   1.438129e+02  -9.343366e+01
   1.748190e+02   3.975675e+01
   1.041835e+02   1.468761e+02
  -1.166704e+02   2.351436e+02
  -2.360074e+02   6.301214e+01
  -2.243756e+02  -6.421349e+01
  -1.041907e+02  -1.449288e+02
   1.378739e+01  -1.388317e+02
   6.813138e+01  -5.755098e+01
   7.827038e+01  -7.226013e+01
   5.054524e+01  -7.239959e+01
   6.636989e+01  -4.500666e+01
   1.313321e+02  -3.007615e+01
   1.134292e+02   1.380931e+02
   2.873240e+01   2.149367e+02
  -9.344621e+01   1.601348e+02
  -1.732351e+02  -1.580652e+01
  -1.200615e+02  -1.166665e+02
  -7.761680e+01  -1.555331e+02
   6.298020e+01  -1.251530e+02
   3.159132e+00  -1.704222e+01
  -8.130587e+00   2.739476e+01
  -7.363724e+00   2.376827e+01
   3.029405e+00   2.012902e+00
   8.632034e+01   9.348896e+00
   5.237812e+01   2.981486e+01
  -7.686276e+01   6.097347e+01
  -9.811054e+01   5.520455e+00
  -1.248393e+02  -7.325452e+01
  -8.856397e+00  -1.106613e+02
   8.384741e+01  -8.832951e+01
   1.563242e+02  -4.842157e+01
   8.068652e+01   4.050775e+01
  -5.056232e+01   4.742296e+01
  -8.853246e+01  -4.191842e+01
  -1.786658e+01  -7.139754e+01
   7.828290e+01  -5.018943e+01
   6.269663e+01   1.462853e+01
   5.573563e+00   4.425649e+01
   2.986415e+01   4.589038e+01
   4.635209e+01  -3.824393e+01
   1.011070e+01  -1.565295e+01
   6.988036e+01   6.185353e+01
  -3.492715e+01   1.662714e+02
  -9.407058e+01   1.266757e+02
  -1.387897e+02   1.878726e+01
  -1.067633e+02  -1.088340e+02
  -2.018067e+01  -1.289890e+02
   6.813159e+01  -3.840818e+01
   5.204177e+01   3.654214e+01
  -5.737650e+01   2.909656e+01
  -1.381970e+02  -3.299735e+01
  -5.354339e+01  -1.174703e+02
   9.246381e+01  -6.910566e+01
   1.334295e+02  -5.660311e+01
   1.577346e+02   1.696309e+01
   7.281241e+01   8.461039e+01
  -5.656662e+01   7.516606e+01
  -5.829193e+01   2.068532e+01
   3.228159e+01  -5.529103e+01
   7.285429e+01  -3.026876e+01
   1.248238e+01   6.061224e+01
  -6.870472e+01   1.416948e+02
  -1.488887e+02   5.186181e+01
  -1.268498e+02  -1.064210e+02
  -2.493399e+01  -1.983791e+02
   1.182993e+02  -1.493669e+02
   9.312662e+01   3.033094e+01
   3.698922e+01   1.042749e+02
   1.018092e+01   1.134343e+02
  -2.428052e+01   1.893024e+01
  -5.911921e+01  -7.144385e+01
  -4.015064e+00  -2.540639e+01
  -1.091066e+01   2.656175e+01
  -1.460035e+01   4.727690e-01
  -4.544284e+01  -7.130660e+01
  -4.217286e+01  -1.249987e+02
   5.853059e+01  -1.764160e+01
   1.099877e+02   2.419408e+01
   1.323900e+02   9.045085e+01
   2.749576e+01   5.830101e+01
  -6.434041e+01   7.074167e+00
  -4.430485e+01   1.626838e+01
  -4.511973e+01  -1.656830e+01
   5.134432e+01  -2.689635e+01
   9.869627e+00  -1.022172e+01
  -2.546370e+01  -2.237321e+00
  -9.866246e-01  -1.042747e+01
   7.952017e+01   1.036925e+01
   8.883450e+01   4.773493e+01
  -3.450127e+01   4.873103e+01
  -1.237159e+02   9.250669e+01
  -1.586187e+02   4.818556e+01
  -1.594485e+02  -7.176833e+01
  -3.702722e+01  -1.825243e+02
   7.240858e+01  -1.314919e+02
   1.036404e+02  -4.516839e+01
   9.726800e+01   1.109491e+01
   2.323556e+01   5.124697e+01
  -2.101134e+01  -1.616930e+01
   1.037363e+01  -2.951340e+00
   3.565224e+01   5.462521e+01
   3.692138e+01   1.108997e+02
  -3.773983e+01   6.961909e+01
  -8.742327e+01  -4.211273e+00
  -5.385031e+01  -8.144275e+01
  -3.054340e-01  -1.030741e+02
   1.089462e+02  -2.057617e+01
   7.995689e+01   7.754810e+01
   2.611720e+01   9.897576e+01
  -7.053560e+01   2.642091e+01
  -8.755990e+01  -4.443633e+01
  -4.371483e+01  -3.564525e+01
   4.830224e+01  -4.347489e+01
   1.588039e+01  -5.623343e+01
  -4.423859e+01  -6.194319e+00
  -4.069896e+01   2.804904e+01
   1.104432e+01  -2.459466e+01
   5.230425e+01  -4.875698e+01
   8.127861e+01  -3.523708e+01
   5.905651e+01   3.662579e+01
  -2.877563e+01   1.061039e+02
  -4.095344e+01   9.060160e+01
  -3.313907e+01  -2.293767e+01
  -3.725067e+01  -6.228855e+01
   1.320437e+01  -3.875094e+01
  -6.489453e+00   1.285569e+01
   2.869382e+01   4.560258e+01
   8.410054e+00   3.102665e+00
   2.429593e+00   2.980031e+01
  -6.907122e+01  -2.015464e+01
  -1.025796e+01  -8.956009e+00
  -1.753926e+01   4.782787e+01
   1.480163e+01  -2.001883e+01
   2.304922e+01  -3.219439e+01
   4.741000e+01  -3.705273e+01
   2.686416e+01  -1.838729e+01
   2.897068e+01   3.084996e+01
   2.262249e+00   4.228566e+01
  -9.309384e+01   2.114911e+01
  -2.084223e+01  -2.339305e+01
   2.045960e+01  -5.654410e+01
   4.105418e+01  -1.319764e+01
   5.399344e+01  -1.676514e+00
   4.969322e+01   3.583354e+01
  -2.818930e+01   2.799624e+01
  -6.763944e+01   1.266127e+01
  -3.577186e+01   5.430051e+00
   3.607026e+01  -3.484548e+00
   5.029905e+01   1.674101e+01
  -2.174805e+01   4.665982e+00
  -7.170256e+01   1.197904e+01
