
 $NMID
 id='ANONYMOUS ', fmtdat='(2E16.6)'
 volume=1.0
 tramp=1.0
 $END
  -4.371198e+03  -2.586762e+01
  -2.691918e+03  -2.721949e+03
   6.355822e+02  -2.466885e+03
   2.017646e+03  -8.460341e+02
   8.271766e+02   5.519578e+02
  -6.104392e+02   5.011833e+02
  -8.184424e+02  -5.805977e+02
   7.337627e+01  -1.019334e+03
   9.454842e+02  -7.625884e+02
   9.703870e+02   1.373326e+02
   4.275112e+02   9.101909e+02
  -2.638514e+02   7.993028e+02
  -6.701146e+02   1.009978e+02
  -3.702075e+02  -6.846628e+02
   2.868800e+02  -7.139104e+02
   6.371127e+02  -4.183853e+01
   2.750353e+02   6.976175e+02
  -3.070956e+02   6.329340e+02
  -4.915658e+02   1.336465e+02
  -3.963142e+02  -3.181112e+02
  -1.889767e+01  -3.874966e+02
   2.369944e+02  -2.817822e+02
   2.276021e+02   4.045315e+01
  -1.486589e+02   4.883087e+01
  -4.190200e+02  -1.569637e+02
  -1.285753e+02  -5.172731e+02
   5.214128e+02  -4.049332e+02
   8.290400e+02   7.775667e+01
   4.334326e+02   5.261311e+02
  -4.525764e+02   4.451163e+02
  -7.331796e+02  -5.413157e+01
  -3.610749e+02  -5.366708e+02
   2.857785e+02  -5.096464e+02
   5.522106e+02  -2.071734e+02
   4.141809e+02   2.801689e+02
   2.366363e+01   4.357537e+02
  -2.383719e+02   2.506761e+02
  -2.000470e+02  -2.196122e+02
   2.225313e+02  -4.069223e+02
   4.170925e+02   1.713473e+01
   3.150611e+02   6.732022e+02
  -2.856786e+02   6.579011e+02
  -5.911990e+02  -4.446966e+01
  -1.814849e+02  -5.949619e+02
   2.782948e+02  -3.169613e+02
   3.734664e+02   3.231872e+02
  -5.570533e+01   5.698342e+02
  -5.721351e+02   1.124742e+02
  -5.674005e+02  -3.384166e+02
  -1.348926e+02  -5.488616e+02
   4.238525e+02  -3.908562e+02
   6.002030e+02   1.309309e+02
   3.515226e+02   3.861719e+02
  -1.487423e+02   3.841619e+02
  -4.049947e+02  -5.931094e-01
  -2.424637e+02  -1.943796e+02
   1.431760e+02  -1.035628e+02
   1.581684e+02   1.855548e+02
  -1.894154e+02   1.691589e+02
  -3.171883e+02  -6.578456e+01
  -1.188755e+02  -3.509875e+02
   2.175900e+02  -2.710344e+02
   3.111961e+02  -1.018309e+02
   1.875522e+02   9.908685e+01
  -9.513748e+00   2.342466e+02
  -2.238782e+02   2.778982e+02
  -3.433029e+02   2.048421e+02
  -2.979933e+02  -1.767405e+02
  -1.175291e+02  -4.261158e+02
   1.003982e+02  -3.777440e+02
   1.410738e+02  -1.248207e+02
   3.754985e+01  -3.508299e+01
   2.279936e+01  -1.181042e+02
   1.758089e+02  -1.243837e+02
   2.637248e+02   6.558271e+01
   1.805426e+02   2.840774e+02
  -8.400625e+01   2.867818e+02
  -2.438845e+02   3.773459e+01
  -2.219662e+02  -2.204004e+02
   2.883815e-02  -2.931786e+02
   2.750568e+02  -8.238927e+01
   3.670151e+02   2.084195e+02
   1.886380e+02   3.527717e+02
  -8.207733e+01   2.789589e+02
  -1.784323e+02   1.310059e+02
  -9.662321e+01  -3.897125e+01
  -6.468119e+01   5.007840e+01
  -2.297010e+02   7.578994e+01
  -4.262013e+02  -7.156837e+01
  -3.898175e+02  -2.886600e+02
   1.106057e+01  -4.945785e+02
   3.885121e+02  -3.974616e+02
   4.460344e+02  -1.940585e+02
   3.296972e+02   7.701507e+01
   7.370731e+01   2.663604e+02
  -1.370995e+02   2.824003e+02
  -6.138386e+01   2.146140e+01
   1.270053e+02  -9.492377e+01
   2.355916e+02   9.359188e+00
   3.292926e+01   2.126623e+02
  -1.397753e+02   1.884035e+02
  -1.752200e+02  -1.907731e+01
   2.924239e+01  -1.968653e+02
   1.842200e+02  -1.928037e+01
   1.664829e+02   2.162334e+02
  -5.647407e+01   3.304123e+02
  -2.434902e+02   2.018226e+02
  -3.106722e+02  -1.952014e+01
  -3.058333e+02  -2.414651e+02
  -4.823069e+01  -2.575896e+02
   1.357027e+02  -1.029825e+02
   1.836174e+02   1.314908e+01
   7.837016e+01   6.338693e+01
  -9.541748e+01  -3.740635e+01
  -2.546282e+01  -1.112389e+02
   1.482449e+02  -9.702691e+01
   1.576108e+02   7.526520e+00
   8.414985e+01   7.828462e+01
  -9.939646e+01   1.896655e+00
  -4.607449e+01  -7.475956e+01
   1.253842e+02  -7.633044e+01
   3.005009e+02   1.296174e+01
   2.688658e+02   1.635006e+02
   3.695559e+01   2.510098e+02
  -1.974109e+02   2.562451e+02
  -3.225892e+02   1.643011e+02
  -1.649148e+02  -9.345944e+01
  -3.231173e+01  -9.417578e+01
   8.959195e+01  -2.175138e+01
  -3.829876e+01   1.287598e+02
  -2.039962e+02   4.474587e+01
  -2.019244e+02  -9.883214e+01
  -7.455307e+01  -1.995844e+02
   1.072456e+02  -1.599414e+02
   1.608435e+02  -3.909940e+01
   6.958637e+01   3.259714e+01
  -3.548337e+01   1.996573e+01
  -2.113483e+01  -4.554996e+01
   3.661318e+01  -1.059925e+02
   2.467799e+02  -3.255596e+01
   2.374634e+02   1.494660e+02
   3.969520e+01   2.649908e+02
  -1.770458e+02   1.502355e+02
  -2.037459e+02  -1.142981e+01
  -7.460849e+01  -9.187409e+01
   1.026939e+02  -1.220121e+02
   8.335156e+01  -4.093427e+01
  -1.497494e+00   4.494205e+01
  -5.807913e+01   3.654700e+01
   1.011624e+01  -8.866338e-01
   4.812425e+01   1.932708e+01
   8.606407e+01   1.178326e+02
   2.331596e+01   1.674149e+02
  -1.583007e+02   1.224867e+02
  -2.395782e+02  -9.468583e+00
  -1.932598e+02  -1.797122e+02
  -7.479401e+01  -2.556926e+02
   1.474050e+02  -1.489287e+02
   1.420096e+02  -2.690432e+01
   5.151209e+00   7.300283e+01
   2.329024e+01   5.181306e+01
   5.118512e+01  -2.678307e+01
   1.183282e+02  -1.815928e+01
   5.247648e+01   2.746820e+01
  -5.875999e+01   9.241621e+01
  -1.227167e+02   5.953732e+01
  -9.197197e+01  -2.491377e+01
   6.682415e+00  -1.131158e+02
   1.324579e+02  -9.723227e+01
   1.869956e+02   3.683266e+01
   1.084365e+02   1.714073e+02
  -8.717517e+01   2.351822e+02
  -2.329444e+02   1.110361e+02
  -2.505691e+02  -7.162471e+01
  -7.649931e+01  -1.680747e+02
   4.938862e+01  -1.514097e+02
   6.647891e+01  -1.037265e+02
   7.216722e+01  -4.526155e+01
   7.045084e+01  -1.237694e+02
   8.944122e+01  -8.775174e+01
   1.163078e+02   2.281314e+01
   1.477207e+02   1.224227e+02
   5.951456e+00   2.373342e+02
  -7.200787e+01   1.537123e+02
  -1.883090e+02   6.334161e+01
  -1.595946e+02  -9.592479e+01
   9.551379e+00  -1.685368e+02
   5.008561e+01  -1.212787e+02
   5.850786e+01  -5.966533e+00
  -7.780370e+00   4.484371e+01
  -2.731727e+00   6.177565e+01
   4.846772e+01  -7.837934e+00
   8.592523e+01   2.955557e+01
   4.587388e+01  -1.565560e+00
  -6.101260e+01   3.926968e+01
  -1.433492e+02  -2.409359e+00
  -1.139272e+02  -4.904727e+01
  -2.699846e+01  -6.029307e+01
   7.871687e+01  -9.407111e+01
   1.188405e+02  -2.611649e+01
   5.677658e+01   3.458460e+01
  -8.436955e+01   9.248541e+00
  -7.990838e+01  -5.723970e+01
  -2.824345e+01  -8.153039e+01
   4.460242e+01  -4.528596e+01
   8.778279e+01  -3.244290e+00
   7.349049e+01   5.039540e+01
   4.470933e+01   3.197696e+01
   6.401194e+01   2.431657e+01
   6.775545e+01   2.628528e+01
   7.031760e+01   5.163801e+01
  -3.846179e+01   1.275235e+02
  -1.322107e+02   1.584403e+02
  -1.826081e+02   4.023691e+01
  -1.173433e+02  -8.557747e+01
   2.273225e+00  -8.527775e+01
   5.704869e+01  -5.605565e+01
   6.804184e+01   1.898333e+01
  -6.529997e+01  -6.612899e+00
  -1.396694e+02  -2.380686e+01
  -6.874174e+01  -1.192330e+02
   1.154799e+02  -8.438511e+01
   1.947711e+02  -6.847199e+01
   1.449132e+02   2.749460e+01
   1.989179e+01   6.487406e+01
  -5.282598e+01   1.360379e+02
  -5.741078e+01  -2.133793e+01
   4.247503e+01  -4.659347e+01
   5.404148e+01   1.419185e+01
   3.645857e+01   1.342375e+02
  -5.257166e+01   1.506304e+02
  -1.571676e+02   6.880861e+01
  -1.303943e+02  -8.656403e+01
  -3.184375e+01  -1.806040e+02
   7.110978e+01  -1.580329e+02
   1.106423e+02   2.647366e+01
   4.834599e+01   5.395199e+01
   7.972579e+00   1.035745e+02
   1.111901e+00   1.223310e+01
  -1.749606e+01  -2.061609e+01
  -8.806104e-01  -3.779949e+01
  -3.015744e+01   2.432450e+01
  -3.521105e+01   5.330730e-01
  -3.830336e+01  -1.064383e+02
  -1.337079e+01  -1.254114e+02
   3.934542e+01  -2.343840e+01
   1.897630e+02   4.216548e+01
   9.495021e+01   5.101969e+01
   2.268645e+00   6.823477e+01
  -1.081861e+02   1.180978e+01
  -1.183154e+02   5.941087e+00
   1.558636e+01  -4.055592e-01
   5.358391e+01  -1.964929e+01
   2.945567e+01  -1.276708e+00
  -3.055050e+01   5.352266e+00
   2.109316e+01  -2.048259e+01
   9.470518e+01   3.654290e+01
   1.302794e+02   7.823891e+00
  -6.924548e+00   7.307129e+01
  -1.063832e+02   1.071508e+02
  -1.854777e+02   6.621887e+01
  -1.337043e+02  -7.098697e+01
  -3.295798e+01  -1.719647e+02
   2.846702e+01  -1.641683e+02
   1.049771e+02  -7.225719e+01
   5.453229e+01  -1.486237e+01
   6.835011e+01   3.107251e+01
   5.858205e+00   1.511882e+01
   3.278918e+01  -2.974647e+01
   1.579594e+01   3.770286e+01
   3.522132e+01   5.200475e+01
  -1.560883e+01   1.790431e+01
  -1.027830e+02  -1.685024e+01
  -7.326680e+01  -1.155229e+02
   4.735842e+00  -1.441368e+02
   8.911823e+01  -1.586008e+01
   1.389406e+02   6.986455e+01
   4.451299e+01   5.618292e+01
  -9.264507e+01   5.667560e+01
  -8.855086e+01  -3.209797e+00
  -5.199004e+01  -6.970770e+01
   4.246240e+01  -2.353010e+01
   2.429627e+01  -5.132699e+01
  -3.452746e+01  -1.983108e+01
  -4.711633e+01   1.147215e+01
   3.392827e+01  -2.748275e+00
   7.491126e+01  -8.100981e+01
   1.094723e+02  -7.146279e+01
   1.086395e+02   5.571064e+01
  -2.756603e+01   8.322825e+01
  -4.852921e+01   8.496181e+01
  -6.478439e+01   1.719982e+01
  -2.099692e+01  -7.117993e+01
   7.514383e+00  -6.604351e+01
   2.354350e+01   3.414355e+01
   8.320843e+00   2.676817e+01
  -3.650231e+01   6.808061e+01
  -1.305478e+01  -1.798881e+01
  -4.598024e+01  -7.514006e+01
  -7.833477e+01  -9.474523e+00
   6.766336e+00   2.806145e+01
   2.187976e+01   1.913123e+01
  -6.309680e+00  -2.932521e+01
   7.974508e+00  -5.399528e+01
   1.341724e+01  -1.266277e+01
   5.267455e+01   3.786951e+01
  -3.666021e+01   8.923673e+01
  -1.385036e+01  -5.756012e-01
  -6.257927e+01  -5.383643e+01
  -5.111116e+01  -6.297306e+01
   3.087949e+01  -4.708069e+01
   1.103602e+02   1.345808e+01
   4.623830e+01   1.089875e+01
  -6.789086e+01   1.137669e+01
  -6.605041e+01   8.992855e+00
   2.180887e+00  -3.561737e+00
   2.748905e+01  -2.304513e+01
   8.047132e+01   2.444323e+01
  -5.201559e+01   8.033600e+01
  -4.729013e+01   5.598747e+00
