
 $NMID
 id='ANONYMOUS ', fmtdat='(2E16.6)'
 volume=1.0
 tramp=1.0
 $END
  -4.446175e+03   1.740864e+02
  -2.621586e+03  -2.682349e+03
   9.242694e+02  -2.805376e+03
   2.210135e+03  -9.456097e+02
   1.091545e+03   6.850520e+02
  -7.735600e+02   6.888621e+02
  -8.969222e+02  -3.897171e+02
  -4.875953e+01  -1.261920e+03
   9.533699e+02  -8.904948e+02
   1.044635e+03   1.637513e+02
   4.325784e+02   8.986020e+02
  -3.080672e+02   7.968535e+02
  -7.599075e+02   8.416250e+01
  -3.873155e+02  -7.638959e+02
   2.876801e+02  -7.832063e+02
   6.897063e+02   3.124386e+01
   3.056217e+02   6.715888e+02
  -3.798047e+02   6.303674e+02
  -6.470757e+02   7.610994e+01
  -4.103391e+02  -4.086287e+02
   6.473440e+00  -3.960551e+02
   2.731322e+02  -2.174705e+02
   1.942174e+02  -2.869854e+01
  -1.091925e+02   9.961522e+01
  -4.516769e+02  -1.342452e+02
  -2.069472e+02  -4.871312e+02
   5.001354e+02  -3.441179e+02
   8.376189e+02   9.884198e+01
   4.435176e+02   6.148657e+02
  -4.184041e+02   5.335732e+02
  -8.486941e+02  -5.261820e+01
  -3.654943e+02  -5.300485e+02
   3.446888e+02  -5.272442e+02
   6.050997e+02  -2.025448e+02
   3.986678e+02   2.277361e+02
   5.533172e+01   4.602197e+02
  -1.561555e+02   3.183537e+02
  -2.049002e+02  -2.465434e+02
   2.447838e+02  -3.815635e+02
   4.875644e+02   3.011148e+01
   3.258405e+02   7.771895e+02
  -3.473908e+02   7.537049e+02
  -6.034407e+02   4.379461e+01
  -2.742504e+02  -5.808677e+02
   2.592561e+02  -3.251056e+02
   4.140187e+02   3.344552e+02
  -7.223013e+01   6.032091e+02
  -5.922330e+02   1.402615e+02
  -6.413514e+02  -4.165422e+02
  -1.890885e+02  -6.228058e+02
   4.075968e+02  -4.017472e+02
   6.249741e+02   7.222817e+01
   3.288693e+02   4.044280e+02
  -1.711518e+02   3.534484e+02
  -4.993941e+02   2.263547e+01
  -2.216312e+02  -2.761780e+02
   1.459800e+02  -1.062892e+02
   1.617514e+02   2.108658e+02
  -1.808826e+02   2.615469e+02
  -3.844873e+02  -8.457885e+01
  -1.645623e+02  -3.282160e+02
   1.906121e+02  -2.697755e+02
   3.698686e+02  -8.189514e+01
   1.302284e+02   7.946363e+01
  -7.874363e+00   2.011052e+02
  -2.357609e+02   3.249575e+02
  -3.500678e+02   2.499337e+02
  -3.101446e+02  -1.257573e+02
  -1.320765e+02  -5.118794e+02
   1.659285e+02  -3.809140e+02
   1.249256e+02  -1.216511e+02
   1.066079e+01   2.906289e+01
  -3.101534e+01  -8.180300e+01
   1.566794e+02  -1.567993e+02
   2.983682e+02   2.219310e+01
   2.161745e+02   2.600644e+02
  -6.506624e+01   2.556603e+02
  -2.464433e+02   4.344044e+01
  -2.164740e+02  -2.481484e+02
   3.222303e+01  -3.251366e+02
   2.827510e+02  -1.646627e+02
   3.228732e+02   1.919265e+02
   1.715756e+02   3.596964e+02
  -1.158561e+02   3.236319e+02
  -2.237751e+02   1.435816e+02
  -1.106799e+02   1.972830e+01
  -9.102467e+01   3.479573e+01
  -2.078394e+02   1.079877e+02
  -4.310362e+02  -3.726863e+01
  -2.966539e+02  -3.360175e+02
   1.233771e+01  -4.777592e+02
   3.883435e+02  -4.597562e+02
   4.508767e+02  -2.153346e+02
   3.508508e+02   9.591962e+01
   1.071312e+02   2.996467e+02
  -1.591957e+02   2.831159e+02
  -7.587712e+01   6.048715e+01
   1.184455e+02  -1.369794e+02
   1.976083e+02   1.487271e+01
   5.432775e+01   2.022390e+02
  -1.758955e+02   1.803066e+02
  -2.280099e+02  -5.030904e+01
   2.689562e+01  -1.988138e+02
   1.890831e+02  -7.203968e+01
   1.509077e+02   2.661063e+02
  -2.908976e+01   3.581244e+02
  -2.295668e+02   1.569267e+02
  -3.103780e+02  -8.931607e+01
  -2.786024e+02  -2.302917e+02
  -1.325946e+02  -2.616449e+02
   1.302777e+02  -1.489912e+02
   1.683966e+02   2.077738e+01
   7.515939e+01   3.782438e+01
  -1.019277e+02  -3.128037e+01
  -1.573912e+01  -1.174086e+02
   1.308048e+02  -9.673694e+01
   2.035611e+02  -2.851584e+01
   5.982771e+01   1.320833e+02
  -1.017026e+02   4.024766e+01
  -6.493635e+01  -6.118627e+01
   1.520457e+02  -1.094935e+02
   3.156093e+02  -5.590800e+00
   2.581298e+02   1.102508e+02
   7.845072e+01   2.368361e+02
  -1.617742e+02   2.303805e+02
  -3.405811e+02   1.086616e+02
  -1.650152e+02  -2.486559e+01
   4.296502e+01  -1.044727e+02
   1.093842e+02  -1.533757e+01
  -1.143741e+01   1.230896e+02
  -1.652128e+02   3.958000e+01
  -2.275981e+02  -1.595707e+02
  -1.188604e+02  -1.939092e+02
   1.192982e+02  -1.268052e+02
   1.582979e+02  -2.571671e+01
   1.066150e+02   4.638435e+01
  -1.664706e+01   1.461848e+01
  -5.857185e+01  -3.015471e+01
   6.536481e+01  -1.442065e+02
   1.912956e+02  -3.918979e+01
   1.742490e+02   1.116129e+02
  -8.758719e+00   2.363117e+02
  -1.366812e+02   1.709854e+02
  -2.300924e+02   4.352921e+01
  -9.491873e+01  -1.033972e+02
   5.581353e+01  -6.246866e+01
   7.860153e+01   2.212015e+01
   1.907323e+01   1.734475e+01
   1.540686e+01   4.788390e+01
   1.995470e+01  -2.554817e+01
   7.478264e+01   7.488147e+00
   5.333530e+01   9.257177e+01
   2.288436e+01   1.788492e+02
  -1.247246e+02   1.430531e+02
  -2.533898e+02  -1.757538e+01
  -2.263941e+02  -1.417694e+02
  -6.312617e+01  -2.588372e+02
   1.580775e+02  -1.642175e+02
   1.089323e+02   9.254738e+00
   6.572025e+01   5.411378e+01
   8.898970e+01   4.048321e+01
   1.060337e+02  -4.512575e+01
   3.892070e+01  -2.518766e+00
   6.456519e+01   4.270181e+01
  -6.218426e+01   7.682396e+01
  -9.809868e+01   3.772388e+01
  -6.335066e+01  -5.314735e+01
  -2.317197e+01  -9.459961e+01
   1.059175e+02  -1.044266e+02
   1.916545e+02   5.679794e+01
   1.205353e+02   2.312417e+02
  -1.221755e+02   2.302308e+02
  -2.526130e+02   7.183295e+01
  -2.534201e+02  -9.745331e+01
  -1.204447e+02  -1.421357e+02
   2.015590e+01  -1.187662e+02
   1.300798e+02  -7.502526e+01
   6.290895e+01  -8.379449e+01
   3.679610e+01  -5.969695e+01
   8.349538e+01  -1.310802e+02
   1.107951e+02   1.046017e+01
   1.253277e+02   1.597686e+02
   5.607791e+01   2.135562e+02
  -9.595770e+01   1.784989e+02
  -2.006807e+02   1.997171e+01
  -1.301790e+02  -1.415690e+02
  -1.191747e+01  -1.357548e+02
   4.237919e+01  -1.050675e+02
   6.735945e+01   1.896675e+01
   6.408880e+00  -1.488002e+01
  -9.835363e+00  -8.749507e-01
   1.612316e+01  -1.749373e+01
   9.459298e+01   1.713095e+01
   2.989772e+01   5.428559e+01
  -7.007700e+01   4.855980e+01
  -1.620940e+02  -2.369826e+01
  -1.405428e+02  -1.115794e+02
  -5.053239e+01  -1.066089e+02
   1.332686e+02  -8.700152e+01
   1.178454e+02  -5.178174e+01
   6.455105e+01   8.025371e+00
  -3.835090e+01   2.839047e+01
  -1.202862e+02  -1.225239e+01
   1.418978e+01  -5.232244e+01
   6.081210e+01  -9.495569e+01
   6.203347e+01   1.803648e+01
   5.096319e+01   4.394488e+01
   3.272374e+01   4.982026e+01
   4.281866e+01   2.666813e+01
   7.116253e+01  -1.440962e+01
   2.820885e+01   4.076387e+01
  -5.104351e+01   1.665232e+02
  -1.065229e+02   1.589334e+02
  -1.600575e+02   5.778092e+00
  -1.243819e+02  -7.015275e+01
  -1.685254e+00  -9.763974e+01
   7.675738e+01  -6.725404e+01
   5.981591e+01   1.177552e+00
  -5.324742e+01   8.845976e+00
  -1.245398e+02  -2.862498e+01
  -6.756526e+01  -1.225723e+02
   6.445884e+01  -1.226230e+02
   1.935400e+02  -3.162905e+01
   1.772615e+02   3.605376e+01
   6.607443e+01   8.619740e+01
  -3.920644e+01   5.232602e+01
  -2.230562e+01   3.918056e+01
   6.440988e+01  -6.045465e+00
   7.185477e+01   5.652706e+01
   4.788524e+01   1.082482e+02
  -8.202405e+01   1.601000e+02
  -1.936822e+02   5.855357e+01
  -1.111503e+02  -1.007462e+02
  -4.705254e+01  -2.031901e+02
   9.327949e+01  -1.493917e+02
   9.083965e+01  -3.919165e+01
   3.806967e+01   1.105346e+02
  -2.394204e+01   9.426648e+01
  -6.107932e+01   6.630808e+01
  -5.809538e+01  -4.791034e+01
  -5.461532e-01  -2.194477e+01
  -2.824749e+01   3.239110e+01
  -2.285327e-01  -3.877529e+01
  -8.583087e+01  -1.155204e+02
  -2.723569e+01  -8.713673e+01
  -1.714971e+00  -5.018015e+01
   1.439648e+02   1.038728e+01
   1.344920e+02   1.134434e+02
   2.262322e+01   4.655729e+01
  -9.937980e+01  -1.780227e+00
  -8.945124e+01   1.702131e+01
   7.190831e+00  -2.903741e+01
   3.887990e+01  -2.423666e+01
   5.539887e+01  -2.472475e+01
  -2.827201e+01  -1.448054e+00
   1.579720e+01  -1.050466e+01
   5.782002e+01   4.156012e+01
   1.003893e+02   7.419602e+01
   8.785462e+00   2.110913e+01
  -1.061847e+02   7.532078e+01
  -1.565757e+02   6.711607e+01
  -1.717913e+02  -3.145498e+01
  -8.674525e-01  -1.631485e+02
   7.219381e+01  -1.311775e+02
   1.129644e+02  -5.868232e+01
   9.499569e+01   2.092375e+01
   5.305075e+01   6.149324e+00
  -7.501783e+00   2.760533e+01
   1.142327e+01   6.028032e+00
   7.062017e+01   8.727177e+01
   3.526467e+01   5.842518e+01
  -2.642183e+01   7.593031e+01
  -6.238058e+01  -1.505468e+00
  -5.954566e+01  -1.149679e+02
  -3.631954e+01  -1.087386e+02
   4.260386e+01  -1.159975e+01
   1.220567e+02   8.040509e+01
   2.289380e+01   1.056527e+02
  -3.832944e+01   2.777829e+01
  -1.052369e+02  -1.615438e+01
  -3.585699e+01  -6.928230e+01
  -9.661290e+00  -4.462820e+01
   3.608464e+01  -2.289966e+01
  -2.270055e+01   3.607257e+00
  -4.979420e+01  -1.303473e+01
   1.307432e+01  -3.985100e+01
   6.632499e+01  -8.445371e+01
   1.192681e+02  -5.158140e+01
   5.889090e+01   1.880135e+00
  -2.897888e+01   6.709058e+01
  -2.283322e-01   5.627715e+01
  -6.516077e+01   4.433254e+01
   2.990789e+01  -5.617388e+01
   1.759028e+01  -6.519847e+00
   2.122121e+01  -4.585228e+00
   6.473610e+01   6.558999e+01
  -4.475063e+00  -6.219911e+00
  -3.673640e+01  -1.410791e-01
  -7.577975e+01  -3.952625e+01
  -5.754088e+01  -3.338644e+00
   1.394213e+01   9.889466e+00
   1.516640e+01  -8.915060e+00
  -9.185060e+00  -1.911801e+01
   2.705775e+01  -4.628939e+01
   5.280586e+01  -5.168939e+00
   7.845715e+00   6.885250e+01
  -2.651476e+01   2.200952e+01
  -7.796399e+01   5.480421e+01
  -6.117074e+01  -1.103922e+01
  -1.335462e+01  -1.123547e+02
   5.838736e+01  -6.835543e+01
   7.765451e+01   4.408356e+01
   6.215502e+01   6.700374e+01
  -1.281746e+01  -1.439793e+01
  -6.027400e+01   1.819931e+01
  -4.257077e+01  -1.835411e+01
   1.483344e+01   1.916851e+01
   4.315564e+01   1.958685e+01
  -4.147089e+01   3.456988e+01
  -1.207245e+02   3.108658e+01
