
 $NMID
 id='ANONYMOUS ', fmtdat='(2E16.6)'
 volume=1.0
 tramp=1.0
 $END
   4.633721e+03   2.179124e+01
   2.401946e+03   2.892875e+03
  -9.316111e+02   2.759982e+03
  -2.099652e+03   8.553232e+02
  -1.047236e+03  -7.883782e+02
   8.202372e+02  -6.982263e+02
   8.755894e+02   4.671439e+02
   6.639602e-01   1.198874e+03
  -1.001419e+03   8.290381e+02
  -1.091618e+03  -1.464228e+02
  -4.049625e+02  -9.459957e+02
   3.042662e+02  -8.339014e+02
   6.974490e+02  -9.461758e+01
   3.797304e+02   7.822150e+02
  -3.422736e+02   7.493090e+02
  -6.842697e+02   3.367037e+01
  -2.807400e+02  -7.065975e+02
   4.193309e+02  -6.035180e+02
   5.607750e+02  -3.461981e+01
   3.492717e+02   3.973899e+02
   1.969882e+01   4.602173e+02
  -2.692387e+02   2.188894e+02
  -2.249536e+02   2.918831e+01
   1.049742e+02  -5.373373e+01
   4.190917e+02   8.562839e+01
   2.120646e+02   4.709310e+02
  -4.718501e+02   3.764828e+02
  -9.025919e+02  -1.738505e+02
  -4.194233e+02  -6.075470e+02
   4.397428e+02  -4.933426e+02
   8.469627e+02   1.665214e+01
   2.876631e+02   5.421410e+02
  -3.476744e+02   4.874127e+02
  -6.297117e+02   2.053506e+02
  -4.280974e+02  -2.376404e+02
  -9.475799e+01  -5.082039e+02
   2.768447e+02  -3.246656e+02
   2.205458e+02   2.293621e+02
  -1.904197e+02   4.160122e+02
  -4.332262e+02  -3.037369e+01
  -3.051761e+02  -7.775575e+02
   3.862345e+02  -7.317154e+02
   6.409129e+02   9.405606e+00
   2.423702e+02   5.670856e+02
  -3.044487e+02   3.219669e+02
  -3.734252e+02  -3.214971e+02
   1.469004e+02  -5.853864e+02
   6.013217e+02  -1.395899e+02
   6.595652e+02   4.154667e+02
   1.648885e+02   6.557936e+02
  -4.086324e+02   4.105598e+02
  -6.565835e+02  -5.342573e+01
  -4.024080e+02  -4.106691e+02
   1.945218e+02  -4.110608e+02
   5.281825e+02  -3.118044e+01
   2.812867e+02   2.324295e+02
  -1.156082e+02   9.111589e+01
  -1.512096e+02  -2.097734e+02
   1.782820e+02  -1.768696e+02
   3.634174e+02   7.084085e+01
   1.565659e+02   3.058405e+02
  -2.559096e+02   2.608261e+02
  -3.231683e+02   8.000544e+01
  -2.089910e+02  -1.136988e+02
   4.908489e+00  -2.350180e+02
   1.908260e+02  -3.190879e+02
   3.892441e+02  -2.254309e+02
   3.111353e+02   1.425323e+02
   8.495915e+01   4.570577e+02
  -1.678006e+02   4.332664e+02
  -1.309792e+02   1.061564e+02
  -3.611745e+01   1.948565e+01
  -1.574625e+01   8.545687e+01
  -1.890822e+02   1.552706e+02
  -2.587030e+02  -5.888168e+01
  -1.646184e+02  -2.775545e+02
   6.069882e+01  -3.025996e+02
   2.385937e+02  -6.519861e+01
   1.896360e+02   2.183357e+02
  -1.654982e+01   3.041582e+02
  -3.088830e+02   1.178144e+02
  -3.319265e+02  -1.856329e+02
  -1.205294e+02  -3.633025e+02
   1.393483e+02  -3.185115e+02
   2.242141e+02  -1.042232e+02
   1.945446e+02   3.451687e+01
   1.144596e+02  -6.277382e+01
   2.139217e+02  -6.065244e+01
   4.268296e+02   4.724703e+01
   2.720720e+02   3.099249e+02
  -5.343150e+01   4.397606e+02
  -3.803367e+02   4.273955e+02
  -4.527712e+02   2.451130e+02
  -3.244216e+02  -9.061810e+01
  -1.208825e+02  -2.973562e+02
   1.338976e+02  -2.810292e+02
   1.035273e+02  -5.966485e+01
  -1.294390e+02   1.030647e+02
  -2.101839e+02  -3.015258e+01
  -6.050246e+01  -2.198225e+02
   1.695234e+02  -1.797603e+02
   1.916410e+02   7.595631e+01
  -7.185310e+01   1.674548e+02
  -1.775798e+02   4.277865e+01
  -1.424034e+02  -2.761036e+02
   6.638164e+01  -3.526434e+02
   2.376356e+02  -2.204884e+02
   3.493298e+02   5.267422e+01
   2.615539e+02   2.513961e+02
   7.734820e+01   2.455693e+02
  -1.613232e+02   1.947809e+02
  -1.890454e+02   2.212690e+01
  -5.480585e+01  -2.152080e+01
   6.419118e+01   7.601134e+01
   4.636347e+01   1.513472e+02
  -1.025407e+02   1.181200e+02
  -2.119248e+02  -3.191903e+01
  -8.988825e+01  -7.853027e+01
   9.881918e+01  -1.383902e+01
   5.726098e+01   8.351260e+01
  -9.747706e+01   8.860202e+01
  -2.714688e+02  -2.924806e+00
  -2.341123e+02  -1.155646e+02
  -3.854257e+01  -2.459207e+02
   2.155525e+02  -2.308484e+02
   2.807095e+02  -1.305705e+02
   2.663631e+02   3.512409e+01
  -2.087235e+00   8.911935e+01
  -1.106985e+02   1.550471e+01
   4.980477e+01  -1.176905e+02
   2.655830e+02  -7.770750e+01
   2.278619e+02   1.566636e+02
   8.499580e+01   2.384002e+02
  -1.057728e+02   1.530158e+02
  -1.568911e+02   2.894587e+01
  -4.323675e+01  -1.065409e+02
   2.843874e+01   4.452614e+01
   5.782104e+00   6.791296e+01
  -7.708083e+01   1.245796e+02
  -2.153846e+02   2.081083e+00
  -2.122960e+02  -7.777004e+01
  -2.292813e+01  -2.281360e+02
   1.794831e+02  -1.664617e+02
   2.244647e+02  -2.291492e+01
   1.024839e+02   1.331168e+02
  -8.278502e+01   8.285989e+01
  -9.157110e+01   1.987382e+01
  -6.809709e+01  -3.906772e+01
   2.354660e+01  -1.628210e+01
  -4.400748e-01  -1.874437e+01
  -1.481170e+01  -2.128740e+01
  -6.547935e+01  -8.625045e+01
  -1.631995e+01  -1.639702e+02
   1.220543e+02  -1.750653e+02
   2.657772e+02   8.938991e+00
   2.104979e+02   1.576251e+02
  -1.369405e+01   2.343831e+02
  -1.183331e+02   1.260906e+02
  -1.382682e+02   2.899372e+01
  -5.157688e+01  -7.732532e+01
  -2.963732e+01  -1.312197e+01
  -6.011139e+01   5.639938e+00
  -6.936600e+01   2.277802e+01
  -5.579685e+01  -3.126932e+01
   8.288453e+00  -1.214470e+02
   1.013341e+02  -3.708364e+01
   9.017823e+01  -1.004764e+01
  -6.491931e+00   1.081957e+02
  -1.355672e+02   8.548040e+01
  -2.157717e+02  -6.912810e+01
  -8.891129e+01  -1.778084e+02
   1.081887e+02  -2.481141e+02
   2.646336e+02  -7.487669e+01
   2.850094e+02   1.173491e+02
   6.279547e+01   1.721789e+02
  -4.363747e+01   1.583940e+02
  -1.022118e+02   1.087546e+02
  -9.008305e+01   8.958769e+01
  -9.729922e+01   1.036848e+02
  -9.504552e+01   1.054319e+02
  -1.182888e+02  -3.967792e+01
  -1.357804e+02  -1.530543e+02
  -2.384244e+01  -2.177868e+02
   9.914990e+01  -2.075675e+02
   1.969968e+02  -2.393752e+01
   1.492840e+02   1.282690e+02
   2.676658e+00   2.001913e+02
  -7.165380e+01   1.145907e+02
  -3.273015e+01   5.438662e+00
  -8.285731e+00  -1.075983e+01
  -2.062818e+01  -6.720416e+01
  -6.307850e+01  -8.803391e+00
  -8.986621e+01  -4.546304e+01
  -5.210615e+01  -2.172168e+01
   5.170317e+01  -6.262279e+01
   1.302481e+02  -1.874129e-01
   1.503353e+02   1.010860e+02
   2.839947e+01   5.213229e+01
  -1.013640e+02   8.506757e+01
  -1.361359e+02   1.723382e+01
  -7.988446e+01  -2.612827e+01
   7.043416e+01  -1.911265e+01
   8.649641e+01   3.079661e+01
   1.795885e+01   3.140957e+01
  -6.838315e+01   5.284081e+01
  -7.225477e+01  -3.736164e+01
  -6.540672e+01  -6.161654e+01
  -2.252895e+01  -4.990758e+01
  -3.447676e+01   3.998330e+00
  -6.807824e+01   3.451345e+00
  -2.515741e+01  -7.473646e+01
   7.598403e+01  -1.384998e+02
   1.854182e+02  -1.264455e+02
   1.719130e+02  -4.404860e+01
   1.427171e+02   9.884618e+01
   1.687360e+00   1.852570e+02
  -5.881509e+01   6.142844e+01
  -3.824213e+01   1.138980e+01
   2.620058e+01  -9.906801e+00
   1.425295e+02   3.980785e+01
   7.492468e+01   8.853585e+01
  -8.490754e+01   1.198637e+02
  -2.276223e+02   5.391282e+01
  -1.764778e+02  -3.034733e+01
   3.709457e+00  -1.290925e+02
   8.449459e+01  -7.840490e+01
   4.036758e+01  -1.797280e+01
  -1.791853e+01   2.442742e+01
  -5.494330e+01   1.071393e+01
   7.121493e+00  -1.513556e+02
   9.259767e+01  -1.647039e+02
   2.017159e+02  -2.045116e+01
   1.408813e+02   1.165974e+02
   1.473854e+01   1.751146e+02
  -8.672912e+01   1.536391e+02
  -1.565157e+02  -2.220242e+01
  -7.761048e+01  -1.250894e+02
  -3.633735e+00  -9.248030e+01
   4.147146e+01   3.123313e+01
   8.346067e+01   2.862261e+01
   4.267655e+01   2.562048e+01
   3.297542e+01  -1.559235e+01
   3.232054e+01  -1.423655e+01
   5.238279e+01   1.121623e+02
   4.240751e+01   1.139588e+02
  -4.614347e+01   7.186088e+01
  -1.502105e+02  -4.124471e+01
  -1.115990e+02  -8.864821e+01
  -2.009266e+01  -5.880483e+01
   1.325165e+02  -2.009026e+01
   8.419699e+01  -2.338694e+01
  -1.802531e+01   2.026539e+01
  -4.477791e+01   2.900293e+01
  -8.138061e+00   2.278438e+01
   7.312860e+00   5.375985e+00
   5.107370e+00  -8.520421e+00
  -4.901945e+01  -7.637372e-01
  -1.023370e+02  -1.557804e+01
  -2.869851e+00  -8.873463e+01
   7.672639e+01  -1.308085e+02
   2.123363e+02  -3.087023e+01
   9.477051e+01   8.032064e+01
   1.305595e+01   1.411420e+02
  -8.871243e+01   1.072892e+02
  -8.448529e+01   4.359919e+01
  -3.450082e+01   3.162580e+00
  -7.943534e+00  -3.337992e+01
   2.190981e+01  -2.231673e+01
  -1.573627e+01   2.253870e+00
  -4.004971e+01  -8.334230e+01
   1.948618e+01  -7.247215e+01
   8.342687e+01  -6.584102e+01
   8.809920e+01  -9.271708e+00
   1.909410e+01   1.360216e+02
  -2.680248e+00   1.268444e+02
  -7.833184e+01   4.054309e+01
  -1.538265e+02  -4.479993e+01
  -2.798268e+01  -8.760299e+01
   7.163808e+01  -7.657859e+01
   8.706909e+01   7.239839e+01
   2.056113e+01   3.235558e+01
  -6.831728e+01   5.718696e+01
  -2.573929e+01  -7.107076e+00
   5.937387e+01   2.455683e+01
   4.559436e+01  -3.680332e+00
  -2.408882e+01   1.199137e+01
  -6.387556e+01   7.073554e+01
  -1.369488e+02   5.019171e+01
  -8.210289e+01  -1.273279e+01
   3.334498e+01  -8.698588e+01
   3.622111e+01  -8.706480e+01
   3.929951e+01  -1.708705e+01
   5.006359e+01   4.542135e+01
  -2.413337e+01   3.909356e+01
  -5.532821e+01  -2.435526e+01
  -3.921266e+01  -1.066198e+02
   2.860553e+01  -5.718175e+01
   1.007815e+01   2.705805e+00
   4.634525e+01  -1.060529e+01
   4.904871e+01   1.963613e+01
  -7.117564e+00  -2.188396e+01
   1.443621e+00  -2.164506e+00
  -1.077709e+01   6.384067e+01
  -5.120307e+00   4.612207e+01
  -7.294241e+01  -2.022881e+01
  -1.142724e+01  -5.211517e+01
   2.009992e+01  -5.958951e+01
   4.085757e+01   2.878257e+00
   7.879240e+01   4.092434e+01
   4.079408e+01   6.742458e+01
  -4.882214e+01   4.325670e+01
  -9.192168e+01   2.901344e+01
  -6.931614e+01  -5.899541e+01
   4.348067e+01  -5.647004e+01
   9.573305e+01  -4.486591e+01
  -4.574062e-01   3.383219e+01
  -3.058850e+00  -9.333981e+00
  -4.496162e+01  -1.256507e+01
   4.965827e+00  -2.802163e+01
   1.180038e+02  -1.208954e+01
