
 $NMID
 id='ANONYMOUS ', fmtdat='(2E16.6)'
 volume=1.0
 tramp=1.0
 $END
  -4.703047e+03   7.853926e+01
  -2.369106e+03  -3.079252e+03
   8.636277e+02  -2.709004e+03
   2.082990e+03  -7.911786e+02
   1.028486e+03   7.410372e+02
  -7.406450e+02   6.195634e+02
  -8.277371e+02  -4.566275e+02
  -4.742854e+01  -1.079920e+03
   9.729123e+02  -7.828028e+02
   1.115819e+03   2.090873e+02
   3.876207e+02   8.916677e+02
  -3.133791e+02   8.943975e+02
  -7.430717e+02   1.225546e+02
  -4.243714e+02  -7.548146e+02
   3.224543e+02  -7.486542e+02
   6.866875e+02   3.481196e+00
   2.094027e+02   7.139081e+02
  -3.716656e+02   6.270042e+02
  -5.857121e+02   4.923891e+01
  -3.908014e+02  -3.762191e+02
   3.054099e+01  -4.529252e+02
   2.716252e+02  -2.826222e+02
   2.169589e+02   9.431646e+00
  -9.315312e+01   8.174027e+01
  -4.059812e+02  -1.016124e+02
  -1.874987e+02  -4.491574e+02
   4.511018e+02  -3.787500e+02
   9.227274e+02   1.538077e+02
   4.398322e+02   5.709164e+02
  -4.330897e+02   4.863798e+02
  -7.995783e+02  -3.236847e+01
  -3.436661e+02  -5.849954e+02
   3.354297e+02  -4.941998e+02
   6.507267e+02  -2.217582e+02
   4.424803e+02   2.372391e+02
   6.212052e+01   4.817872e+02
  -3.196303e+02   2.361031e+02
  -1.487508e+02  -2.745131e+02
   2.004433e+02  -4.249373e+02
   4.523903e+02   9.409087e+00
   2.751676e+02   8.067637e+02
  -3.448641e+02   7.028585e+02
  -6.762794e+02  -3.876024e+01
  -2.631433e+02  -6.278805e+02
   3.365339e+02  -3.326564e+02
   4.014186e+02   3.017646e+02
  -1.200392e+02   6.129555e+02
  -5.912555e+02   1.112532e+02
  -6.108847e+02  -4.193046e+02
  -1.878437e+02  -6.273169e+02
   4.201170e+02  -3.476813e+02
   6.531053e+02   8.413718e+01
   3.442946e+02   4.163383e+02
  -2.100680e+02   3.707820e+02
  -4.879129e+02   2.117257e+01
  -2.433185e+02  -2.331710e+02
   1.402175e+02  -9.474420e+01
   1.656456e+02   1.727060e+02
  -1.562754e+02   2.256951e+02
  -3.722745e+02  -8.678350e+01
  -1.650074e+02  -2.974057e+02
   2.263326e+02  -2.881831e+02
   3.268592e+02  -5.300104e+01
   1.769716e+02   9.234478e+01
  -1.746261e+01   2.290942e+02
  -1.962452e+02   3.323963e+02
  -3.916318e+02   2.086696e+02
  -2.726552e+02  -1.286547e+02
  -1.046297e+02  -4.348952e+02
   1.388513e+02  -4.023192e+02
   1.520990e+02  -1.241529e+02
   4.141399e+01   1.539945e+01
   1.327693e+01  -7.586569e+01
   1.678714e+02  -1.118286e+02
   2.693152e+02   3.908791e+01
   1.868887e+02   3.148678e+02
  -5.712254e+01   2.942889e+02
  -2.583210e+02  -8.674528e+00
  -2.264728e+02  -2.447065e+02
  -5.474012e+00  -3.047932e+02
   2.470638e+02  -9.902052e+01
   3.247548e+02   1.909518e+02
   1.517851e+02   3.575755e+02
  -1.411253e+02   3.165010e+02
  -1.909051e+02   7.845967e+01
  -1.381121e+02   2.160292e+01
  -1.296444e+02  -7.179794e+00
  -2.481852e+02   6.408606e+01
  -4.128123e+02  -1.669879e+01
  -3.246952e+02  -3.429376e+02
  -5.561411e+00  -4.133540e+02
   3.872437e+02  -4.024262e+02
   4.801879e+02  -2.182376e+02
   3.534111e+02   8.247063e+01
   1.169894e+02   3.041311e+02
  -1.339074e+02   2.914095e+02
  -8.848060e+01   2.150012e+01
   1.473805e+02  -1.280332e+02
   1.920940e+02  -4.191523e+00
   2.965153e+01   2.301891e+02
  -1.359833e+02   1.509628e+02
  -1.619265e+02  -4.257165e+01
   5.969295e+01  -1.914271e+02
   1.952983e+02  -3.832516e+01
   1.498925e+02   2.414813e+02
  -3.566176e+01   3.282211e+02
  -2.321681e+02   2.818794e+02
  -3.334361e+02  -8.064524e+01
  -2.513223e+02  -2.640060e+02
  -7.116145e+01  -2.385476e+02
   1.523994e+02  -1.916201e+02
   1.929447e+02  -1.079882e+01
   9.405980e+01   3.528955e+01
  -8.718647e+01  -1.841494e-02
  -1.298590e+01  -1.272567e+02
   1.478135e+02  -1.139579e+02
   1.601342e+02   2.462240e+01
   2.040493e+01   2.697597e+01
  -5.279855e+01   2.876381e+00
  -4.408938e+01  -2.746226e+01
   1.120230e+02  -1.100000e+02
   2.473940e+02   1.314815e+01
   2.496401e+02   1.034641e+02
   5.031228e+01   2.572392e+02
  -2.227744e+02   2.625274e+02
  -2.776559e+02   1.298520e+02
  -1.774384e+02  -6.162211e+01
   5.730113e+01  -6.087225e+01
   1.121231e+02  -4.828350e+01
  -4.339736e+01   1.219070e+02
  -2.193573e+02   3.871651e+01
  -2.608300e+02  -8.497895e+01
  -6.940253e+01  -2.204786e+02
   8.819504e+01  -1.735716e+02
   1.173525e+02  -6.116805e+01
   8.633615e+01   4.346069e+01
  -2.762445e+01  -7.534973e+00
  -4.100877e+00  -6.497567e+01
   5.031948e+01  -1.378422e+02
   2.460916e+02  -2.410666e+01
   2.040162e+02   1.092174e+02
   2.563661e+01   1.873804e+02
  -1.407991e+02   1.246851e+02
  -2.062159e+02   1.763179e+01
  -9.877691e+01  -1.302407e+02
   7.291610e+01  -1.396785e+02
   1.020367e+02  -9.785152e+00
   2.198058e+01   2.605460e+01
   9.543624e+00  -1.752498e+01
  -5.271128e+00   5.038424e+00
   6.336433e+01   6.271456e+01
   6.588223e+01   1.016921e+02
   1.027951e+01   1.315977e+02
  -1.231599e+02   1.219857e+02
  -2.565097e+02   2.970197e+01
  -2.047971e+02  -1.555068e+02
  -2.754177e+01  -2.276823e+02
   1.281793e+02  -1.364660e+02
   1.219779e+02  -3.151728e+01
   5.217457e+01   1.797735e+01
   1.647061e+01   8.357677e+00
   6.912786e+01  -1.985500e+01
   9.877593e+01  -3.478463e+00
   1.234839e+01   4.217582e+01
  -3.808422e+01   9.737208e+01
  -9.593567e+01   5.448395e+01
  -1.236703e+02  -6.580490e+01
  -2.986984e+01  -1.596082e+02
   1.347443e+02  -9.460783e+01
   2.368760e+02   4.486848e+01
   1.134837e+02   1.712705e+02
  -6.999439e+01   2.775172e+02
  -2.989229e+02   8.570790e+01
  -2.509572e+02  -8.501029e+01
  -1.000326e+02  -1.374620e+02
   7.437326e+01  -1.514372e+02
   8.824009e+01  -6.592101e+01
   8.993348e+01  -7.522553e+01
   8.564269e+01  -8.479055e+01
   1.194937e+02  -7.917618e+01
   1.315602e+02   3.438641e+01
   1.212265e+02   1.693828e+02
   2.166709e+01   2.277263e+02
  -9.387170e+01   1.335302e+02
  -1.856784e+02   3.340943e+01
  -1.838675e+02  -1.165656e+02
  -7.482343e+00  -1.701168e+02
   8.143182e+01  -1.090727e+02
   6.140499e+01  -1.915745e+01
  -1.473016e+01   7.127934e+01
  -2.307448e+01   3.204604e+01
   2.788308e+01   4.129957e+01
   1.026083e+02   2.660745e+01
   4.681100e+01   2.962406e+01
  -7.983794e+01   1.701778e+01
  -1.541084e+02  -1.125445e+01
  -1.150384e+02  -7.476444e+01
   2.085878e-01  -7.318632e+01
   7.868111e+01  -6.011019e+01
   1.526296e+02  -2.438956e-01
   2.373759e+01   7.544039e+01
  -5.213641e+01   6.859652e+01
  -9.265499e+01  -3.286498e+01
  -3.795972e+01  -6.552111e+01
   6.131668e+01  -4.531182e+01
   6.043061e+01   7.563770e+00
   6.666090e+01   3.048774e+01
   4.283062e+01   4.148547e+01
   4.014392e+01  -3.438177e+00
   8.878016e+01  -7.887960e+00
   4.160131e+01   5.819932e+01
  -2.424621e+01   1.467318e+02
  -1.163441e+02   1.457317e+02
  -1.839547e+02   6.975756e+01
  -1.550348e+02  -1.518007e+02
   2.516432e+01  -1.151681e+02
   4.608254e+01  -4.664209e+01
   6.159992e+01  -1.833511e+01
  -5.784604e+01   9.657394e+00
  -1.356123e+02  -5.111493e+01
  -6.310401e+01  -9.565222e+01
   9.790631e+01  -1.059639e+02
   2.022160e+02  -3.416073e+01
   1.772076e+02   4.421190e+01
   7.433299e+00   7.348967e+01
  -4.200600e+01   8.498998e+01
  -5.164513e+01  -2.260790e+01
   4.782130e+01   8.910723e+00
   9.787830e+01   2.864537e+01
   4.167620e+01   1.475738e+02
  -7.505625e+01   1.771570e+02
  -1.806655e+02   3.826961e+01
  -1.281754e+02  -1.481808e+02
  -7.847791e-01  -1.691791e+02
   8.583046e+01  -1.370941e+02
   1.020799e+02   5.357908e+00
   8.118442e+01   1.188911e+02
  -2.783302e+01   8.182872e+01
  -6.337135e+01  -2.518233e+01
  -9.056827e+01  -3.412732e+01
  -7.175102e+01  -1.794729e+01
  -4.779247e+00   2.198804e+01
   3.192372e+01  -1.689634e+01
  -7.475319e+01  -1.137634e+02
  -4.432240e+01  -1.357532e+02
   5.612481e+01  -6.842583e+01
   1.544744e+02   4.637118e+01
   1.635880e+02   8.599746e+01
   1.326441e+01   8.605564e+01
  -1.245943e+02  -2.312678e+01
  -1.055595e+02   1.045647e+01
  -5.216239e-01  -3.302633e+01
   5.789430e+01  -9.977069e+00
  -2.496011e+01  -6.356334e+01
   9.325401e+00   6.499946e+00
   4.448577e+01  -2.162564e+01
   7.146192e+01  -5.016611e+01
   8.112513e+01   4.829414e+01
   1.172108e+01   6.212860e+01
  -1.076665e+02   1.174200e+02
  -1.841685e+02   4.782093e+01
  -1.325431e+02  -7.302343e+01
  -1.755681e+01  -1.713274e+02
   8.463958e+01  -1.157074e+02
   1.494985e+02  -5.314705e+01
   8.268465e+01   2.123074e+01
   2.118841e+01   2.794464e+01
   1.015834e+01   3.520454e+00
  -5.676584e-01   3.059595e+01
   3.743945e+01   1.205447e+01
   2.316399e+01   6.946652e+01
  -6.059856e+01   8.098475e+01
  -5.306287e+01  -1.025064e+01
  -5.106759e+01  -1.257817e+02
   1.131510e+00  -1.239195e+02
   7.876564e+01  -2.835359e+01
   1.233701e+02   1.107489e+02
   4.491547e+00   8.658944e+01
  -6.054812e+01   7.045745e+01
  -7.682787e+01  -1.913782e+01
  -4.598886e+01  -2.971690e+01
   2.411964e+01  -3.974391e+01
   5.838876e+00  -1.318288e+01
  -4.400659e+01   2.725446e+01
  -7.762674e+01  -7.091534e+00
  -4.027369e+01  -1.440461e+01
   9.925094e+01  -5.655712e+01
   1.224722e+02  -6.186230e+01
   1.233543e+02   5.114586e+00
   1.017737e+01   5.605781e+01
  -5.815796e+01   7.372971e+01
  -4.580666e+01   6.363863e+00
  -2.418281e+01  -5.401645e+01
   8.342330e+00  -7.544919e+01
   2.988678e+01   3.610925e+01
   1.765538e+01   5.747086e+01
  -2.314573e+01   1.996725e+01
  -3.593556e+01  -6.356147e+01
  -2.184756e+01  -1.437896e+01
  -1.790637e+01   1.018475e+00
  -6.094156e+00   1.815981e+01
  -3.672848e+01  -2.998493e+00
  -4.565092e+00  -5.536584e+01
  -1.694550e+01  -4.623930e+01
   2.876468e+01   5.283227e+01
   2.866469e+01   4.997045e+01
   1.318287e+01   5.067168e+01
  -1.429125e+01   2.003801e+01
  -5.337585e+01  -4.167784e+01
  -6.512399e+00  -8.112272e+01
   6.138759e+01  -4.737495e+01
   1.350607e+02   2.529186e+01
   5.007447e+01   3.794693e+01
  -4.354049e+00   4.602755e+00
  -1.082287e+02   1.509250e+01
   1.301818e+01   2.547222e+01
   2.919615e+01  -3.715399e+01
   4.764434e+01   1.999211e+01
  -8.089364e+00   2.529813e+01
  -4.044048e+01   3.663728e+01
