
 $NMID
 id='ANONYMOUS ', fmtdat='(2E16.6)'
 volume=1.0
 tramp=1.0
 $END
  -3.829234e+03   1.901418e+02
  -2.124298e+03  -2.329714e+03
   4.535611e+02  -2.180174e+03
   1.702752e+03  -7.851326e+02
   6.654107e+02   4.858656e+02
  -5.998684e+02   5.518519e+02
  -6.479055e+02  -4.424716e+02
   9.585913e+00  -9.003975e+02
   7.772802e+02  -7.540422e+02
   9.311048e+02   1.308282e+02
   3.599392e+02   8.017106e+02
  -2.474771e+02   6.752867e+02
  -6.701701e+02  -2.154396e+01
  -3.724909e+02  -6.253962e+02
   2.765122e+02  -5.675618e+02
   5.300718e+02   1.293467e+01
   1.943049e+02   6.053159e+02
  -2.558080e+02   5.741979e+02
  -5.090567e+02   5.658673e+01
  -3.286240e+02  -3.029456e+02
   2.705828e+00  -3.496565e+02
   2.396405e+02  -2.423345e+02
   1.825664e+02  -1.064291e+01
  -1.375612e+02   7.121176e+01
  -3.057835e+02  -1.279131e+02
  -1.937351e+02  -3.783749e+02
   4.467993e+02  -2.997177e+02
   7.844685e+02   4.940188e+01
   3.376580e+02   3.575216e+02
  -3.371740e+02   4.251057e+02
  -6.810875e+02   2.329570e+01
  -2.724134e+02  -4.173406e+02
   2.348300e+02  -4.464925e+02
   4.575038e+02  -1.949536e+02
   3.715106e+02   1.877333e+02
   7.280197e+01   4.121732e+02
  -2.015933e+02   2.158202e+02
  -1.992392e+02  -2.200326e+02
   1.260301e+02  -3.315951e+02
   3.381794e+02   6.963576e+01
   2.356462e+02   5.356883e+02
  -1.763469e+02   5.925960e+02
  -5.248081e+02  -5.223549e+01
  -2.062638e+02  -5.210009e+02
   3.366269e+02  -2.597076e+02
   3.237545e+02   2.677681e+02
  -5.806143e+01   4.615171e+02
  -4.349901e+02   1.259914e+02
  -5.232454e+02  -3.787638e+02
  -7.088687e+01  -5.255546e+02
   3.503995e+02  -3.019200e+02
   4.886448e+02   4.722486e+01
   3.394156e+02   2.352709e+02
  -1.858821e+02   3.744367e+02
  -4.079575e+02   4.601897e+01
  -1.649881e+02  -2.000220e+02
   1.269724e+02  -9.797007e+01
   1.546515e+02   1.836565e+02
  -1.428665e+02   1.658335e+02
  -3.059334e+02  -2.812626e+00
  -1.607959e+02  -2.410829e+02
   1.557692e+02  -1.775298e+02
   2.537930e+02  -5.573833e+01
   1.524779e+02   8.027051e+01
  -2.676526e+01   1.980234e+02
  -1.621497e+02   2.586958e+02
  -2.863639e+02   1.903685e+02
  -2.321983e+02  -1.239464e+02
  -8.627923e+01  -3.359476e+02
   6.998578e+01  -3.188624e+02
   1.494171e+02  -9.236087e+01
   2.002438e+01   9.110192e+00
   3.612093e+01  -8.474330e+01
   1.096932e+02  -1.445332e+02
   2.397848e+02  -4.569011e+01
   1.816539e+02   2.328790e+02
  -2.554738e+01   2.566598e+02
  -2.325105e+02   6.242976e+00
  -1.514559e+02  -1.957193e+02
  -1.325545e+01  -2.452965e+02
   2.651017e+02  -9.779194e+01
   3.131411e+02   1.279908e+02
   1.782736e+02   3.234194e+02
  -1.058341e+02   2.924560e+02
  -1.815708e+02   6.116397e+01
  -1.090260e+02   8.215228e+00
  -7.027105e+01   3.735228e+01
  -2.300517e+02   7.054378e+01
  -3.225875e+02  -5.318906e+01
  -2.785739e+02  -2.005389e+02
   2.328779e+01  -3.458069e+02
   3.250096e+02  -3.621386e+02
   3.864029e+02  -1.715560e+02
   2.801727e+02   9.270591e+01
   4.089779e+01   2.610061e+02
  -6.122896e+01   1.900930e+02
  -4.064155e+01   3.782102e+01
   9.458777e+01  -1.191998e+02
   2.002521e+02  -2.872182e+01
   2.232130e+01   2.116213e+02
  -1.555916e+02   1.545773e+02
  -1.812705e+02  -2.073353e+01
  -4.753783e+00  -2.214539e+02
   1.750229e+02  -1.955147e+01
   1.349810e+02   1.998155e+02
  -1.892538e+01   3.012021e+02
  -1.731567e+02   1.536935e+02
  -3.086765e+02  -1.767235e+01
  -2.179689e+02  -2.086363e+02
  -7.484902e+01  -1.811629e+02
   8.035570e+01  -1.685140e+02
   1.468657e+02  -1.773246e+01
   6.206646e+01   4.608348e+01
  -1.158666e+02  -2.223711e+01
  -9.544846e+00  -1.303273e+02
   1.051609e+02  -8.422348e+01
   1.131045e+02   3.373042e+00
   6.632903e+01   8.746628e+01
  -5.964841e+01   1.044193e+01
  -6.133016e+01  -8.303338e+01
   1.164047e+02  -6.074432e+01
   2.188391e+02  -5.644755e+00
   2.309066e+02   7.656399e+01
   5.797790e+01   2.054965e+02
  -1.546166e+02   2.274862e+02
  -2.520057e+02   8.408168e+01
  -1.608977e+02  -3.950399e+01
   5.340231e+01  -8.156850e+01
   8.538541e+01  -1.975618e+00
  -4.082378e+01   6.874910e+01
  -1.695217e+02   9.237950e+00
  -1.805041e+02  -1.062959e+02
  -2.622729e+01  -1.345527e+02
   7.928996e+01  -1.350833e+02
   1.153037e+02  -2.341191e+01
   5.719428e+01   1.401608e+01
  -4.196622e+01   5.826686e+00
  -3.470102e+01  -1.017551e+02
   3.212109e+01  -7.117397e+01
   1.262832e+02  -2.130325e+01
   1.523419e+02   7.426528e+01
   5.706073e+01   1.743766e+02
  -1.104160e+02   1.416107e+02
  -1.412244e+02  -4.365807e+00
  -6.719451e+01  -7.566708e+01
   4.686032e+01  -9.732283e+01
   4.764306e+01  -3.585071e+01
   2.124237e+01   4.445540e+01
  -5.140760e+01  -3.642595e+01
  -1.022961e+00   1.399386e+00
   2.422761e+01   1.078945e+01
   6.779131e+01   8.265593e+01
   4.591168e+01   9.962439e+01
  -1.373052e+02   1.399202e+02
  -2.049429e+02   6.384768e+01
  -1.649808e+02  -1.065513e+02
  -8.105885e+00  -1.772055e+02
   5.315557e+01  -1.107593e+02
   1.451790e+02  -6.593093e+01
   6.839084e+01   6.955814e+01
   1.399252e+01   2.550427e+00
   3.823779e+01   1.877440e+01
   5.069800e+01  -2.379879e+01
   1.738348e+01   4.107232e+01
  -5.987094e+01   5.783224e+01
  -1.046526e+02   2.762121e+01
  -6.656102e+01  -3.006592e+01
   2.331057e+01  -7.745501e+01
   8.758314e+01  -7.081501e+01
   1.846700e+02   4.248486e+01
   8.562063e+01   1.476838e+02
  -6.709165e+01   2.039452e+02
  -2.385142e+02   1.075493e+02
  -2.375291e+02  -5.377940e+01
  -8.359106e+01  -1.081996e+02
   1.869294e+01  -9.237547e+01
   9.244895e+01  -3.530508e+01
   6.442978e+01  -6.615413e+01
   7.138390e+01  -5.134664e+01
   8.935697e+01  -4.786435e+01
   1.095895e+02   1.534412e+01
   1.161280e+02   1.368130e+02
   4.481431e+01   1.798246e+02
  -9.620951e+01   1.566131e+02
  -1.165934e+02   8.057226e+00
  -9.790125e+01  -5.871338e+01
  -4.053165e+01  -1.259870e+02
   5.929318e+01  -1.053356e+02
   4.287825e+01  -2.116341e+01
   1.200878e+01   2.763600e+01
   1.518394e-01   3.576760e+01
   2.232094e+01   3.852481e+01
   5.324264e+01   6.132128e+01
  -1.359896e+00   6.764657e+01
  -5.886661e+01   1.966577e+01
  -1.366432e+02  -3.201674e+01
  -7.306635e+01  -3.929915e+01
  -7.203218e+01  -8.268303e+01
   9.976093e+01  -1.102192e+02
   1.373554e+02   1.144431e+00
   5.284010e+01   3.579392e+01
  -2.615992e+01   3.977947e+01
  -1.093362e+02  -8.693344e+00
  -3.804936e+01  -4.901770e+01
   4.968648e+01  -6.316181e+01
   3.348090e+01  -2.077837e+01
   7.461786e+01   5.631736e+01
   3.896750e+01   1.148266e+01
   3.325776e+01   2.600354e+01
   8.943321e+01  -2.253843e+01
   8.171777e-01   7.386108e+01
  -2.987941e+00   9.840807e+01
  -7.348881e+01   1.350100e+02
  -1.227559e+02   3.187465e+01
  -7.025893e+01  -5.353747e+01
  -2.348450e+01  -8.531547e+01
   6.789878e+01  -3.554984e+01
   3.937897e+01   9.965690e+00
  -3.099159e+01   3.833749e+01
  -1.495722e+02   4.510123e+00
  -8.323381e+01  -6.235752e+01
   4.981920e+01  -6.500520e+01
   1.962257e+02  -6.076461e+01
   1.552635e+02   4.318006e+01
   2.849567e+01   8.882199e+01
  -4.842627e+01   1.158238e+01
  -6.564079e+01   5.349187e+00
   3.231743e+01  -7.411378e+00
   5.675328e+01   9.043206e+00
   4.775260e+01   1.004560e+02
  -1.032687e+02   1.096088e+02
  -1.599876e+02   4.629711e+01
  -1.074924e+02  -1.024725e+02
   3.019125e+01  -1.885732e+02
   5.960735e+01  -9.836769e+01
   6.473726e+01   1.338586e+01
   4.660083e+01   9.940972e+01
  -2.378047e+01   8.355307e+01
  -1.276569e+01  -1.352137e+00
  -3.271889e+01  -1.349908e+01
   1.134794e+01  -1.921576e+00
  -7.310040e+00   1.016780e+01
  -1.773139e+01   4.475376e+00
  -4.510038e+00  -6.956306e+01
  -6.816901e+01  -1.035866e+02
   4.424652e+01  -7.252227e-02
   1.102616e+02   8.839568e+01
   9.441193e+01   7.422591e+01
   4.517139e+01   4.094204e+01
  -7.389125e+01  -1.191708e+01
  -7.564288e+01   1.558156e+01
  -3.100744e+01  -2.836010e+01
   3.374071e+01  -3.017577e+01
   1.083460e+01  -3.672985e+00
  -1.920412e+01   1.699883e+01
  -3.739833e+01   3.668734e+01
   4.622213e+01   9.676899e+00
   8.798877e+01   2.330379e+01
   3.437057e+01   1.856419e+01
  -8.805567e+01   9.152824e+01
  -1.708017e+02   4.842855e+01
  -1.301803e+02  -5.091430e+01
  -5.479984e+00  -1.580172e+02
   3.296356e+01  -1.078368e+02
   1.050105e+02  -4.582610e+01
   6.771163e+01   3.031451e+01
   4.244902e+01   3.514492e+01
   1.359259e+00  -1.141302e+01
   4.645901e+00   8.478887e+00
   6.607624e+00  -2.370262e+00
   2.937163e+01   5.200071e+01
  -2.232172e+01   5.567842e+01
  -9.602572e+01  -3.264628e+01
  -1.630930e+01  -7.512825e+01
   3.525750e+00  -8.805985e+01
   2.574819e+01  -3.166861e+01
   8.717011e+01   2.458121e+01
  -1.346786e+01   6.500299e+01
  -5.881128e+01   1.713560e+01
  -1.086552e+02   3.126909e+01
  -5.613775e+01  -4.177362e+01
   1.186815e+01  -8.508823e+01
  -4.042221e+01  -1.431345e+01
  -3.393942e+01   1.077598e+01
  -8.014838e+01  -7.558041e+00
  -5.015193e+01  -2.937862e+01
   5.547498e+01  -6.332916e+01
   1.270434e+02  -9.195659e+01
   4.897714e+01   7.673766e+00
  -3.967362e+01   5.484544e+01
  -3.534262e+01   4.545096e+01
  -2.723689e+01  -9.027173e-01
  -2.490862e+01  -1.009380e+01
   9.223973e-02  -2.381892e+01
   5.012117e+01   7.476000e-01
   2.463974e+01   2.596993e+01
  -1.138935e+00  -6.956480e+00
  -5.183077e+01  -2.352857e+01
  -4.357770e+01  -6.192939e+01
  -8.478822e+00  -1.955882e+01
   5.236386e+00   2.224209e+01
   3.576530e+01   2.104706e+00
   6.988496e-01  -2.458884e+01
   2.793533e+00  -4.624148e+01
   3.597851e+01   4.722715e+01
   5.937461e+01   2.183394e+01
  -3.735423e+00   7.074960e+01
  -4.436919e+01   2.894713e+01
  -3.519440e+01  -2.079400e+01
   3.802710e+00  -5.352073e+01
   9.235628e+01  -2.246678e+01
   8.521841e+01   3.162971e+01
   3.293115e+01  -3.058968e+01
  -5.052842e+01   5.103195e+01
  -5.798072e+01   1.869519e+01
  -4.003324e+01  -2.210520e+01
   3.801684e+01  -6.949357e+00
   1.860304e+01   2.990236e+01
  -2.908461e+01   1.771266e+01
  -7.100297e+01   5.555400e+00
