
 $NMID
 id='ANONYMOUS ', fmtdat='(2E16.6)'
 volume=1.0
 tramp=1.0
 $END
  -3.922106e+03   1.358818e+02
  -2.298258e+03  -2.212227e+03
   5.943338e+02  -2.264363e+03
   1.610835e+03  -9.230247e+02
   8.523583e+02   3.301807e+02
  -4.719306e+02   5.137315e+02
  -6.330038e+02  -2.809338e+02
   1.075999e+01  -8.721697e+02
   7.332315e+02  -6.839293e+02
   8.813489e+02   2.958891e+01
   4.717905e+02   7.668390e+02
  -1.916918e+02   6.749086e+02
  -6.092734e+02   8.302556e+01
  -3.018300e+02  -6.099706e+02
   2.004158e+02  -5.959109e+02
   4.876956e+02  -1.533906e+01
   2.385859e+02   6.109292e+02
  -2.618025e+02   5.511307e+02
  -5.051762e+02  -5.660495e-01
  -3.436776e+02  -3.468912e+02
  -3.540089e+01  -3.129096e+02
   2.250588e+02  -2.311610e+02
   2.637638e+02  -2.824705e+01
  -7.786793e+01   6.579587e+01
  -2.572111e+02  -1.097432e+02
  -1.179999e+02  -3.604454e+02
   3.393603e+02  -2.859223e+02
   7.534625e+02   1.850570e+01
   4.021279e+02   4.330675e+02
  -2.827723e+02   5.559966e+02
  -6.539789e+02  -3.975307e-01
  -2.510835e+02  -4.030033e+02
   2.193244e+02  -4.406049e+02
   4.875883e+02  -2.205495e+02
   3.725888e+02   1.567094e+02
   7.826737e+01   4.288659e+02
  -1.650577e+02   2.561612e+02
  -2.095248e+02  -2.185298e+02
   1.464959e+02  -3.608742e+02
   3.727958e+02  -4.986816e+00
   2.843630e+02   5.365553e+02
  -1.985352e+02   6.131297e+02
  -4.842626e+02  -4.461118e+00
  -1.889506e+02  -4.896868e+02
   2.858761e+02  -2.648958e+02
   3.014851e+02   2.239096e+02
  -3.359433e+01   5.039965e+02
  -4.510929e+02   1.348467e+02
  -5.284127e+02  -3.624377e+02
  -1.400853e+02  -4.357406e+02
   3.572137e+02  -2.988627e+02
   5.523975e+02   3.864287e+01
   2.760371e+02   3.330792e+02
  -1.742059e+02   3.814647e+02
  -4.240255e+02   2.937554e+01
  -1.764386e+02  -1.851065e+02
   4.584226e+01  -1.002510e+02
   1.418288e+02   1.272995e+02
  -1.721483e+02   1.677635e+02
  -3.262689e+02  -8.366844e+01
  -1.399565e+02  -2.651284e+02
   1.483794e+02  -1.946795e+02
   2.704942e+02  -7.713276e+01
   1.582748e+02   7.447873e+01
  -2.515308e+01   1.836937e+02
  -1.850391e+02   2.155442e+02
  -2.914082e+02   2.010114e+02
  -2.856716e+02  -1.275099e+02
  -1.017189e+02  -3.445664e+02
   6.454130e+01  -3.498090e+02
   9.989802e+01  -7.499605e+01
   8.091559e+00  -2.135145e+01
  -1.482058e+00  -1.039984e+02
   1.579275e+02  -1.366633e+02
   2.256546e+02   1.351620e+01
   1.738187e+02   2.368761e+02
  -9.570423e+00   2.213033e+02
  -1.693738e+02   2.163808e+01
  -1.457882e+02  -1.726514e+02
  -1.075019e+00  -2.027330e+02
   1.786859e+02  -8.635889e+01
   2.997257e+02   1.153818e+02
   1.683008e+02   2.964783e+02
  -8.726829e+01   2.614810e+02
  -2.094507e+02   9.023410e+01
  -1.165448e+02   1.146214e+01
  -7.643505e+01   4.768728e+01
  -1.971448e+02   5.432957e+01
  -3.595164e+02  -3.847439e+01
  -2.954481e+02  -2.372421e+02
   1.869909e+00  -3.143748e+02
   3.219377e+02  -3.121747e+02
   4.082556e+02  -1.653882e+02
   2.957105e+02   4.131385e+01
   3.574615e+01   2.847505e+02
  -6.042238e+01   2.021426e+02
  -5.465343e+01   7.132669e+01
   8.554762e+01  -1.050723e+02
   1.692647e+02   9.829277e+00
   6.162243e+01   1.796789e+02
  -1.661302e+02   1.977494e+02
  -1.515993e+02  -4.450509e+01
   2.934818e+01  -1.383986e+02
   1.375421e+02  -1.650068e+01
   1.292795e+02   2.168906e+02
  -2.083073e+01   3.001725e+02
  -2.009294e+02   1.606803e+02
  -2.823354e+02  -3.860081e+01
  -2.317213e+02  -2.157082e+02
  -9.201598e+01  -1.825301e+02
   6.588942e+01  -1.311345e+02
   1.515436e+02  -5.353787e+01
   9.161830e+01   1.231448e+01
  -3.634892e+01  -5.136313e+01
  -2.192343e+01  -1.237823e+02
   1.318649e+02  -8.935639e+01
   1.076978e+02   1.250593e+01
   6.702567e+01   5.168291e+01
  -7.753067e+01   3.882914e+01
  -5.441386e+01  -7.265697e+01
   8.489411e+01  -7.619902e+01
   2.328115e+02  -4.902006e+01
   1.782018e+02   9.513432e+01
   1.192271e+02   2.472330e+02
  -1.205349e+02   2.548370e+02
  -2.004916e+02   1.235420e+02
  -1.712882e+02  -6.790727e+01
   2.539158e+01  -1.184207e+02
   5.371644e+01  -1.992692e+01
  -3.491134e+01   8.389708e+01
  -1.724556e+02   2.110309e+01
  -2.071713e+02  -7.702491e+01
  -5.541837e+01  -1.573198e+02
   7.907224e+01  -1.179361e+02
   1.293666e+02   1.387816e+01
   8.503774e+01   1.524691e+01
  -3.949021e+01   1.603305e+01
  -3.038396e+01  -5.694492e+01
   5.441844e+01  -7.954715e+01
   1.458847e+02  -2.699316e+01
   1.686646e+02   9.141589e+01
   6.717303e+01   1.701228e+02
  -1.929012e+02   9.318699e+01
  -1.416736e+02   2.496491e+01
  -4.979083e+01  -1.022849e+02
   6.121284e+01  -1.150224e+02
   9.756366e+01  -1.746448e+01
   3.933027e+01   2.399180e+01
  -3.443254e+01   1.953226e+01
  -8.083555e+00   7.783899e+00
   5.179044e+01   1.857099e+01
   4.669394e+01   4.301448e+01
   1.123410e+01   1.496733e+02
  -1.023879e+02   9.588151e+01
  -1.783097e+02   1.181189e+01
  -1.716886e+02  -1.248508e+02
  -3.181405e+01  -2.127003e+02
   7.907889e+01  -9.507187e+01
   1.167245e+02  -2.760611e+01
   5.584654e+01   2.232651e+01
   1.064189e+01   1.315044e+01
   2.887849e+01   2.130751e+01
   3.559828e+01  -4.175052e+01
   2.804301e+01   3.638010e+01
  -4.581138e+01   5.243435e+01
  -7.660800e+01   5.071596e+01
  -5.842233e+01  -2.011638e+01
   5.543649e+00  -1.089631e+02
   1.132724e+02  -8.223917e+01
   1.699791e+02   2.736612e+01
   1.192667e+02   1.553376e+02
  -4.895892e+01   2.405345e+02
  -2.219956e+02   7.180595e+01
  -2.112334e+02  -4.476198e+01
  -1.041142e+02  -1.516095e+02
   7.916313e+00  -1.397462e+02
   7.879059e+01  -6.433461e+01
   7.097095e+01  -2.717830e+01
   5.191435e+01  -7.107781e+01
   6.847452e+01  -4.570573e+01
   9.697810e+01   3.656088e+01
   1.017338e+02   1.180501e+02
   2.278851e+01   1.623980e+02
  -9.890351e+01   1.452725e+02
  -1.181685e+02  -2.973159e+00
  -1.282592e+02  -9.250409e+01
   2.712722e+00  -1.749106e+02
   7.607102e+01  -9.685542e+01
   4.150909e+01  -1.063003e+01
  -1.848855e+01   3.955258e+00
  -1.717588e+01   3.869032e+01
   5.444424e+01   8.711664e+00
   1.030546e+02   1.534621e+00
   2.220414e+01   2.831328e+01
  -5.233619e+01   3.883277e+01
  -1.544352e+02   1.417250e+01
  -8.761498e+01  -3.716177e+01
  -3.924066e+01  -8.729822e+01
   7.587310e+01  -6.753246e+01
   1.296551e+02  -3.412856e+00
   5.680969e+01  -7.188419e+00
  -2.252880e+01   2.192255e+01
  -5.428761e+01   1.951857e+01
  -2.522339e+01  -3.358783e+01
   4.344065e+01  -4.708724e+01
   1.009185e+01  -7.919909e+00
   2.358345e+01   5.740857e+01
   2.527742e+01   4.765544e+01
   9.900864e+01   4.397726e+00
   6.621221e+01   8.059115e+00
   2.863661e+01   7.599942e+01
   4.167178e-01   1.213822e+02
  -1.058937e+02   1.136771e+02
  -1.277988e+02   7.832947e+01
  -1.066411e+02  -9.479003e+01
   1.326626e+00  -1.116350e+02
   3.780625e+01  -3.537748e+01
   5.890647e+01   6.048441e+01
  -2.910408e+01   2.458660e+01
  -1.322523e+02  -2.884871e+01
  -9.799434e+01  -1.055726e+02
   4.545819e+01  -9.227817e+01
   1.545862e+02  -6.485010e+01
   9.353866e+01   4.742184e+01
   4.838908e+01   7.074515e+01
  -7.468165e+01   2.753035e+01
  -3.136599e+01   2.434334e+01
   2.375061e+01  -1.340527e+01
   7.985536e+01  -2.350715e+00
   4.325449e+01   9.819402e+01
  -5.542673e+01   1.405101e+02
  -1.467436e+02   3.306964e+01
  -1.150869e+02  -1.093604e+02
  -1.553085e+00  -1.590552e+02
   7.435771e+01  -1.463020e+02
   8.806508e+01   1.678190e+01
   2.860992e+01   1.047076e+02
   2.421571e+01   8.940974e+01
  -2.823255e+01   1.602021e+01
  -8.330794e+01  -2.506853e+00
  -2.951650e+01  -4.202024e+01
   1.208941e+01   3.472515e+01
   5.361955e+00   3.120204e+01
  -4.420615e+01  -4.257609e+01
  -1.392615e+01  -8.614610e+01
   1.465065e+01  -5.215402e+01
   1.382535e+02   4.685043e+01
   8.057896e+01   6.746149e+01
   1.326876e+01   2.060986e+01
  -7.242862e+01  -7.978193e-01
  -4.533128e+01   2.421039e+01
   3.537610e+01  -9.725411e+00
   4.267694e+01  -4.589954e+01
  -8.113201e+00  -3.576463e+01
   1.160482e+01   2.829862e+01
   1.754293e+00   1.040229e+01
   8.907411e+01  -3.522653e+01
   5.948250e+01   5.910331e+01
  -9.046265e+00   1.024754e+02
  -1.105028e+02   1.020461e+02
  -1.363731e+02   9.167351e+01
  -1.413306e+02  -2.940223e+01
  -1.883499e+01  -1.357123e+02
   4.123106e+01  -1.202485e+02
   9.598725e+01  -2.365827e+01
   6.084125e+01  -4.664222e+01
   1.875843e+01   1.871549e+01
   8.993137e+00   7.594697e-02
  -1.001955e+01   1.188851e+01
   5.592363e+01   1.267735e+01
   5.989366e+01   6.203881e+01
  -2.550919e+01   5.007741e+01
  -8.838203e+01  -1.200911e+01
  -6.609839e+01  -9.888445e+01
   8.937760e+00  -1.325663e+02
   6.174583e+01  -2.302682e+01
   9.659386e+01   1.998398e+01
  -6.617028e+00   9.894767e+01
  -7.301657e+01   7.370862e+01
  -9.904770e+01   2.567162e+01
  -2.359346e+01  -3.663888e+01
  -7.063746e+00  -6.574650e+01
  -2.768715e+01  -1.902148e+01
  -3.121135e+01  -3.867501e-01
  -2.768726e+01   2.408826e+01
   5.398401e+00  -2.333577e+01
   9.327268e+01  -3.407277e+01
   1.018089e+02  -4.706752e+01
   6.008824e+01   3.238071e+01
  -7.980469e+00   4.940180e+01
  -5.487193e+01   9.483048e+01
  -1.300288e+01   2.082810e+01
  -1.068922e+01  -4.241064e+01
   2.217532e+01  -5.192803e+00
   4.042111e+00   3.039476e+01
   8.139227e+00   2.302027e+01
   1.074074e+01   2.873486e+01
  -3.697544e+01  -1.872538e+01
  -4.105258e+01  -4.255731e+01
   1.628060e+00  -2.239149e+01
   1.007080e+01   4.544933e+00
   1.213558e+01  -1.340542e+01
  -2.565061e+00   1.237868e+00
   1.854478e+01  -5.404333e+01
   8.674799e+00   4.505291e-01
   3.642576e+01   8.271024e+01
   7.941546e+00   4.482636e+01
  -3.309949e+01   1.590504e+01
  -5.010176e+01  -1.635548e+01
  -3.541365e+01  -4.428237e+01
   4.537523e+01  -4.043554e+01
   1.086590e+02   3.114169e+01
   6.413011e+00   3.558923e+01
  -3.418523e+01   4.182058e+01
  -4.741319e+01  -2.368625e+01
  -1.706555e+01   1.680575e+01
   7.779683e+01  -4.995466e+00
   1.275171e+01   1.372909e+01
  -1.276956e+01  -4.233177e+00
  -7.994517e+01   1.466718e+01
