
 $NMID
 id='ANONYMOUS ', fmtdat='(2E16.6)'
 volume=1.0
 tramp=1.0
 $END
   4.244600e+03  -2.086449e+00
   2.241359e+03   2.198304e+03
  -7.568507e+02   2.287378e+03
  -1.733757e+03   8.695680e+02
  -9.029504e+02  -3.587108e+02
   5.577161e+02  -4.748031e+02
   7.087233e+02   2.340419e+02
   8.464713e+01   8.523141e+02
  -7.719713e+02   7.305088e+02
  -9.287399e+02  -7.551441e+01
  -4.368871e+02  -7.483927e+02
   1.942907e+02  -7.116853e+02
   6.221890e+02  -1.546234e+02
   3.414068e+02   6.865756e+02
  -2.717805e+02   6.630180e+02
  -5.555649e+02   6.813704e+00
  -2.254446e+02  -6.406035e+02
   3.239620e+02  -6.232262e+02
   5.213796e+02  -9.253972e+00
   3.708657e+02   3.539400e+02
   4.966642e+01   3.098518e+02
  -2.444872e+02   2.659960e+02
  -2.054737e+02   4.011375e+01
   8.752625e+01  -6.759334e+01
   2.981894e+02   1.254762e+02
   1.372092e+02   4.043578e+02
  -3.540599e+02   3.059668e+02
  -7.901465e+02  -1.930747e+01
  -3.641823e+02  -4.549877e+02
   3.406254e+02  -4.709453e+02
   6.700597e+02  -1.149135e+01
   2.689855e+02   4.437968e+02
  -2.180742e+02   4.257853e+02
  -5.365862e+02   2.414374e+02
  -3.611243e+02  -2.107119e+02
  -5.252549e+01  -3.876595e+02
   2.110167e+02  -2.419353e+02
   2.067990e+02   2.155723e+02
  -1.658791e+02   3.751587e+02
  -3.697015e+02  -1.227746e+01
  -2.483603e+02  -6.222548e+02
   2.575264e+02  -6.417515e+02
   5.224925e+02  -3.368458e+01
   2.350611e+02   4.558225e+02
  -3.086114e+02   2.925253e+02
  -3.216832e+02  -2.485071e+02
   4.813027e+01  -5.074263e+02
   5.080570e+02  -1.107315e+02
   5.797754e+02   3.842143e+02
   1.138248e+02   4.972254e+02
  -3.874196e+02   3.210623e+02
  -5.665811e+02  -4.579230e+01
  -3.088240e+02  -3.503589e+02
   1.619090e+02  -3.316924e+02
   4.243548e+02  -1.431075e+01
   2.051152e+02   1.902106e+02
  -8.325437e+01   1.376633e+02
  -1.522669e+02  -1.205841e+02
   8.878331e+01  -2.075047e+02
   3.187779e+02   8.997714e+01
   1.443542e+02   2.719188e+02
  -1.491798e+02   2.098013e+02
  -2.927118e+02   7.277852e+01
  -1.641090e+02  -6.284739e+01
   2.209148e+01  -2.072748e+02
   1.849985e+02  -3.096576e+02
   2.827432e+02  -1.667149e+02
   3.021128e+02   1.285183e+02
   7.101849e+01   3.448278e+02
  -1.201669e+02   3.614567e+02
  -1.382809e+02   8.783903e+01
  -9.088601e+01   1.037793e+01
  -5.177473e+01   1.075875e+02
  -1.351108e+02   9.548351e+01
  -2.103557e+02  -3.692400e+01
  -1.874357e+02  -2.614657e+02
   7.941585e+01  -2.525646e+02
   2.082324e+02  -5.004762e+01
   1.985458e+02   1.933723e+02
   2.582359e+01   2.861915e+02
  -1.867558e+02   9.128107e+01
  -3.171367e+02  -1.338993e+02
  -1.733984e+02  -3.151952e+02
   8.343578e+01  -2.892047e+02
   2.278227e+02  -9.165230e+01
   1.133930e+02   9.577766e+00
   1.016637e+02  -1.247700e+01
   1.636577e+02  -1.129085e+01
   3.834733e+02   3.848383e+01
   2.485183e+02   2.520908e+02
   4.086241e+01   3.805550e+02
  -3.222089e+02   3.454745e+02
  -4.276852e+02   1.717577e+02
  -2.976391e+02  -8.305057e+01
  -5.875619e+01  -2.824272e+02
   1.046545e+02  -2.146640e+02
   6.544433e+01   1.671084e+01
  -8.939803e+01   1.289299e+02
  -1.642773e+02   7.340025e+00
  -5.551610e+01  -1.878319e+02
   1.938463e+02  -1.563985e+02
   1.890250e+02   3.264881e+01
  -4.324546e+01   1.933737e+02
  -2.064318e+02   2.884801e+01
  -8.652588e+01  -1.969565e+02
  -1.189274e+01  -3.041478e+02
   1.686540e+02  -1.743386e+02
   2.929925e+02   8.718635e+01
   2.355846e+02   1.529253e+02
   8.402684e+01   2.375018e+02
  -1.297718e+02   1.543005e+02
  -1.628257e+02   1.488961e+01
  -4.293032e+01  -2.066045e+01
   1.220364e+02   3.422235e+01
   3.137171e+01   9.247704e+01
  -6.449711e+01   9.132139e+01
  -2.056077e+02  -4.422339e+01
  -5.780431e+01  -7.403226e+01
   7.158211e+01  -1.187073e+01
   4.104771e+01   6.122870e+01
  -1.072663e+02   8.246441e+01
  -2.008554e+02   2.350012e+01
  -2.329560e+02  -1.295829e+02
  -8.661383e+01  -1.854723e+02
   1.758378e+02  -2.321078e+02
   2.377916e+02  -9.203694e+01
   1.262229e+02   1.998434e+01
   3.187973e+01   1.485506e+02
  -9.545408e+01  -1.192203e+01
   2.960227e+01  -5.223870e+01
   2.090351e+02  -6.146957e+01
   2.073613e+02   7.758130e+01
   8.480348e+01   1.602561e+02
  -8.905534e+01   1.229252e+02
  -1.161306e+02   3.473669e+01
  -7.532868e+01  -5.586032e+00
   9.985253e+00  -1.307395e+01
   3.737337e+00   1.136585e+02
  -7.949291e+01   7.959723e+01
  -1.931363e+02   6.416897e+01
  -1.790683e+02  -8.977835e+01
  -4.639999e+01  -1.842153e+02
   1.365004e+02  -1.149661e+02
   1.345239e+02   2.119228e+01
   8.584824e+01   7.901359e+01
  -2.789192e+01   1.198065e+02
  -1.234115e+02   6.477705e+00
  -6.087549e+00  -5.420628e+01
   4.597185e+01  -1.866117e+00
   1.447148e+01   5.718387e-01
  -6.856333e+01  -1.885662e+01
  -5.865732e+01  -4.669887e+01
  -4.728370e+01  -1.574277e+02
   1.231441e+02  -1.381815e+02
   1.698527e+02  -1.381051e+01
   1.738903e+02   9.131816e+01
   3.387912e+01   1.859603e+02
  -7.538135e+01   1.797618e+02
  -1.346541e+02   1.605025e+01
  -5.934286e+01  -3.728960e+01
   7.913825e+00  -1.461254e-01
  -1.625504e+01  -1.403827e+00
  -7.996459e+01  -1.344209e+01
  -3.116529e+01  -5.519439e+01
   7.217845e+01  -1.195846e+01
   1.134474e+02  -5.066561e+01
   7.916468e+01   2.537032e+01
   1.661340e+01   8.721688e+01
  -1.593320e+02   1.171753e+02
  -1.858059e+02  -2.806175e+01
  -1.153122e+02  -1.502581e+02
   9.152068e+01  -2.048194e+02
   2.330426e+02  -1.065576e+02
   2.473931e+02   3.119377e+01
   1.209697e+02   1.524289e+02
  -4.777887e+01   1.199852e+02
  -1.005884e+02   8.389963e+01
  -7.452759e+01   3.838158e+01
  -2.049195e+01   8.438489e+01
  -6.114712e+01   7.340252e+01
  -1.081859e+02  -6.058408e+01
  -1.000917e+02  -1.401629e+02
  -2.413106e+01  -1.536926e+02
   1.166782e+02  -1.417121e+02
   1.407554e+02  -3.997439e+01
   1.350837e+02   1.053202e+02
   2.786291e+01   1.492881e+02
  -9.090618e+01   5.610658e+01
  -4.906368e+01   1.498176e+01
   5.102922e+01  -4.811161e+01
  -6.140181e+00  -4.170534e+01
  -4.191221e+01  -9.258092e+00
  -4.172359e+01   1.696196e+01
  -6.110251e+01  -2.948311e+01
   5.835247e+01  -1.452050e+01
   1.240319e+02   8.210602e-01
   1.303897e+02   5.941401e+01
   2.834931e+01   6.004352e+01
  -8.381853e+01   5.926443e+01
  -1.169882e+02  -5.584766e+00
  -4.168279e+01  -2.754989e+01
   6.916929e+01  -7.893582e+01
   8.426742e+01   3.635654e+01
   6.095548e+00   8.426798e+01
  -4.310274e+01   4.906881e+01
  -5.866321e+01  -6.719876e-01
  -2.125113e+01  -3.389459e+01
  -3.263598e+01  -5.952869e+01
  -5.806225e+01  -1.544015e+01
  -5.898006e+01  -1.134836e+00
   2.037086e+01  -5.678265e+01
   3.175553e+01  -8.883481e+01
   1.207661e+02  -1.494222e+02
   1.301921e+02  -1.985042e+01
   9.504831e+01   8.706575e+01
   3.011726e+01   1.499343e+02
  -7.103820e+01   5.704283e+01
  -2.155622e+01  -6.073551e+00
   4.371170e+01  -2.394458e+01
   1.271548e+02   5.560497e+01
   1.035546e+02   5.967742e+01
  -6.776724e+01   7.979821e+01
  -1.623288e+02   4.662214e+01
  -1.379992e+02  -1.439201e+01
  -4.594263e+01  -8.588894e+01
   7.593446e+01  -7.339220e+01
   5.137573e+01  -3.495521e+01
   3.931567e+00  -2.389073e+01
  -8.865486e+01   2.646480e+01
  -3.631649e+01  -1.201375e+02
   3.914624e+01  -1.405041e+02
   1.665100e+02  -9.516520e+01
   9.775464e+01   1.215432e+02
   1.423997e+01   1.657558e+02
  -9.826102e+01   1.615155e+02
  -7.351324e+01  -3.233705e+01
  -7.195851e+01  -1.016465e+02
  -3.774356e+00  -6.927442e+01
   3.969483e+01  -3.179178e+01
   7.144122e+01   1.492014e+00
   1.519512e+00   2.870043e+01
  -4.652514e+01  -8.928614e+00
   6.874148e+00   1.969155e+01
   3.065057e+01   6.099999e+01
   5.966123e+01   1.339029e+02
  -1.988595e+01   5.576735e+01
  -1.188896e+02  -7.502690e+01
  -1.098413e+02  -9.201956e+01
   4.097136e+00  -2.809432e+01
   7.092035e+01  -1.320490e+01
   6.213636e+01   1.727388e+01
   1.840240e+01  -2.087420e+01
  -3.356081e+01   3.597444e+01
  -2.367172e+01   5.704174e+01
   2.749483e+01  -1.302901e+00
  -2.305866e+01   3.598677e+00
  -8.120261e+01   2.404665e+01
  -9.809570e+01  -7.800668e+00
   9.248500e+00  -4.630149e+01
   7.416867e+01  -1.621324e+02
   1.415982e+02  -4.971953e+01
   9.304117e+01   4.002121e+01
   3.320135e+01   9.673925e+01
  -6.231463e+01   1.347122e+02
  -1.120778e+02   3.942351e+01
  -8.910450e+01   5.398864e+00
  -4.237784e+01  -1.611441e+01
  -7.217721e+00   9.085744e+00
  -4.103613e+01  -1.797143e+01
  -4.903036e+01  -2.372511e+00
  -2.446382e+01  -7.953581e+01
   3.197803e+01  -5.432710e+01
   8.769908e+01   2.923652e+01
   5.267635e+01   7.687928e+01
   1.216913e+01   8.612635e+01
  -5.737775e+01   1.927648e+00
  -5.485955e+01  -8.238993e+01
  -6.092577e+01  -6.617557e+01
   9.678879e+01  -6.134550e+01
   8.828083e+01   2.264399e+01
   8.077185e+00   1.952496e+01
  -8.460945e+00   4.724449e+01
  -3.257086e+01   2.876161e+01
   2.353670e+01  -2.231421e+00
   1.833577e+01  -3.638644e+01
   2.472188e+01   2.291296e+01
  -6.984434e+01   5.402897e+01
  -9.148125e+01   8.320544e+01
  -6.522312e+01  -1.422693e+01
   2.145064e+01  -7.418079e+01
   8.961882e+01  -1.061859e+02
   3.873163e+01   1.041651e+01
  -6.837774e+00   4.520017e+01
  -3.540398e+01   3.872631e+01
  -2.381648e+01  -5.313335e+00
  -4.101502e+01  -1.852783e+01
  -1.034651e+01  -1.815299e+00
   6.449924e+01   3.021662e+01
   3.228540e+01  -6.441995e+00
   6.305385e+00   4.178953e+01
  -1.077606e+01   1.794767e+01
  -6.540785e+00   3.737733e+01
   5.755517e+00   2.777237e+01
   1.753345e+01   4.361900e+01
  -1.533164e+00  -4.013418e+01
  -2.542100e+01  -5.359293e+01
   2.132784e+01  -5.574278e+01
   5.117761e+01  -1.017010e+01
   3.548575e+01   3.286387e+01
  -1.077383e+01   6.312485e+01
  -5.442590e+01  -1.282224e+00
  -1.250350e+02  -1.346931e+01
  -1.236924e+01  -5.420590e+01
   5.531632e+01  -3.857121e+01
   2.897550e+01   5.342245e+00
   2.852803e+01   1.824656e+01
  -3.181166e+01   2.370866e+01
  -1.650185e+00   1.542093e+01
   5.804554e+00  -2.222229e+01
   8.075367e+01  -6.484652e+01
