
 $NMID
 id='ANONYMOUS ', fmtdat='(2E16.6)'
 volume=1.0
 tramp=1.0
 $END
   4.914706e+03   6.041142e+02
   2.381018e+03   2.872341e+03
  -7.913909e+02   2.829360e+03
  -2.348731e+03   7.723416e+02
  -9.389977e+02  -7.590611e+02
   7.600557e+02  -5.317759e+02
   9.026657e+02   4.145246e+02
   5.626861e+01   1.092402e+03
  -9.835585e+02   7.881724e+02
  -1.003553e+03  -1.689788e+02
  -3.602721e+02  -9.638579e+02
   2.783683e+02  -9.644217e+02
   7.056719e+02  -1.471952e+02
   2.525850e+02   7.842082e+02
  -2.984465e+02   8.616652e+02
  -6.916194e+02  -7.581672e+01
  -2.247638e+02  -7.904706e+02
   3.776931e+02  -5.203143e+02
   5.742267e+02  -2.338389e+01
   3.444192e+02   4.073287e+02
   1.994894e+01   4.761601e+02
  -3.128277e+02   2.501208e+02
  -2.294416e+02   2.367711e+01
   9.322718e+01  -1.058710e+02
   3.668397e+02   4.318198e+01
   2.073216e+02   3.949282e+02
  -4.150429e+02   4.544652e+02
  -8.927319e+02  -5.985770e+01
  -3.981543e+02  -6.219058e+02
   4.450787e+02  -5.503825e+02
   8.053096e+02  -9.604189e+00
   3.882903e+02   4.981837e+02
  -2.843913e+02   5.679970e+02
  -5.768706e+02   1.856154e+02
  -4.144864e+02  -3.041359e+02
  -5.536850e+01  -4.683532e+02
   2.696477e+02  -3.373128e+02
   1.965636e+02   3.131563e+02
  -1.592326e+02   4.488834e+02
  -5.004677e+02  -1.112074e+01
  -2.179211e+02  -6.957955e+02
   3.693854e+02  -6.778569e+02
   6.779695e+02  -7.252126e+00
   3.190465e+02   5.226039e+02
  -3.479151e+02   3.569038e+02
  -3.685470e+02  -3.386117e+02
   8.343862e+01  -5.878062e+02
   5.852994e+02  -1.412810e+02
   5.971039e+02   4.075168e+02
   1.577524e+02   6.257965e+02
  -4.460299e+02   3.423345e+02
  -6.119762e+02  -1.097008e+02
  -3.373831e+02  -4.085148e+02
   2.096880e+02  -4.046045e+02
   4.675879e+02  -4.019007e+01
   2.568242e+02   2.492026e+02
  -1.159748e+02   1.464259e+02
  -2.046002e+02  -2.496243e+02
   1.743177e+02  -2.397039e+02
   4.125349e+02   1.002982e+02
   3.991216e+01   3.430769e+02
  -1.703007e+02   2.167079e+02
  -3.074870e+02   6.455924e+01
  -1.931098e+02  -8.420805e+01
   2.169716e+01  -2.224273e+02
   2.368157e+02  -3.379419e+02
   3.305571e+02  -2.354173e+02
   3.194792e+02   1.346211e+02
   5.568103e+01   4.387505e+02
  -1.690074e+02   3.664769e+02
  -1.622182e+02   8.664341e+01
   3.024150e+01  -5.242147e+01
  -2.596977e+01   7.786593e+01
  -1.103266e+02   1.697429e+02
  -2.338845e+02  -3.417184e+01
  -1.100895e+02  -2.710548e+02
   2.462478e+01  -2.351109e+02
   2.425196e+02  -5.442255e+01
   1.993640e+02   2.544253e+02
   5.711226e+00   3.011836e+02
  -2.823589e+02   1.264764e+02
  -2.833535e+02  -1.714167e+02
  -1.772822e+02  -3.932835e+02
   1.403473e+02  -2.936162e+02
   2.133101e+02  -1.361201e+02
   1.393873e+02   1.531842e+01
   9.723417e+01  -4.811947e+01
   2.022798e+02  -9.096290e+01
   3.519057e+02   4.597008e+01
   3.327701e+02   2.966225e+02
   4.424474e+00   4.431244e+02
  -3.368181e+02   3.557219e+02
  -4.904740e+02   1.759553e+02
  -3.450290e+02  -8.983147e+01
  -4.685696e+01  -2.768431e+02
   1.360669e+02  -2.429793e+02
   1.132299e+02  -3.463640e+01
  -8.397076e+01   1.270735e+02
  -2.206189e+02  -4.435090e+01
  -3.826413e+01  -2.090749e+02
   1.783424e+02  -1.857959e+02
   1.783608e+02   4.337557e+01
  -2.248022e+01   2.057041e+02
  -1.935202e+02   2.288489e+01
  -1.180564e+02  -2.347224e+02
  -2.158123e+00  -3.241400e+02
   2.529960e+02  -1.593914e+02
   2.839689e+02   8.334330e+01
   2.450715e+02   2.264247e+02
   1.040178e+02   2.608907e+02
  -7.866432e+01   1.597684e+02
  -1.816091e+02   1.577337e+01
  -6.054139e+01  -2.193550e+01
   8.611837e+01   2.962488e+01
   2.466148e+01   1.100679e+02
  -8.133909e+01   1.174868e+02
  -1.586682e+02  -6.300421e+01
  -4.023328e+01  -2.554262e+01
   8.081123e+01  -1.339777e+01
   4.135052e+01   8.211098e+01
  -1.462187e+02   7.137495e+01
  -2.891398e+02  -2.157388e+01
  -3.061251e+02  -1.374176e+02
  -5.964853e+01  -2.427252e+02
   1.839430e+02  -2.947353e+02
   2.429720e+02  -1.182102e+02
   1.730374e+02   4.950476e+01
  -1.034513e+01   1.428518e+02
  -9.174479e+01   1.533384e+01
   1.325981e+01  -1.274607e+02
   1.518809e+02  -7.046213e+01
   2.196683e+02   1.226893e+02
   1.027001e+02   2.249657e+02
  -1.057585e+02   1.389530e+02
  -1.251880e+02   3.412616e+01
  -7.965599e+01  -6.941700e+01
   1.241312e+01  -1.600285e+01
   4.058220e+01   3.711712e+01
  -3.854717e+01   1.136425e+02
  -1.951054e+02   3.153080e+01
  -2.184695e+02  -9.322019e+01
  -1.810119e+01  -2.764870e+02
   1.563147e+02  -1.491733e+02
   1.696800e+02   2.909701e+00
   3.901639e+01   1.155298e+02
  -9.575473e+01   1.260401e+02
  -9.118402e+01   2.382601e+01
  -3.674414e+01  -4.427699e+01
   4.801288e+01  -9.520205e+00
   1.002080e+01   1.913379e+01
  -8.900769e+01  -1.395831e+01
  -6.215079e+01  -6.086284e+01
  -5.032243e-01  -2.052829e+02
   1.110671e+02  -1.585887e+02
   2.007530e+02  -2.752922e+01
   1.589745e+02   1.143066e+02
   4.864559e+01   2.241181e+02
  -1.301961e+02   1.424985e+02
  -1.429668e+02   1.757300e+01
  -5.274140e+01  -5.018923e+01
   6.970648e-01  -5.542409e+01
  -5.510611e+01  -8.740930e+00
  -8.009609e+01   1.111254e+01
  -1.517526e+01  -5.503040e+01
   3.688401e+01  -4.909428e+01
   9.490835e+01  -3.515561e+01
   9.171970e+01   4.875006e+01
   3.997753e+01   1.740404e+02
  -1.795839e+02   9.302140e+01
  -2.076394e+02  -6.325463e+01
  -1.025963e+02  -1.807279e+02
   1.453689e+02  -2.214876e+02
   2.743167e+02  -1.298352e+02
   2.620634e+02   8.393652e+01
   1.587547e+02   2.057123e+02
  -3.982032e+01   1.613439e+02
  -1.251598e+02   8.578189e+01
  -5.516952e+01   8.853485e+01
  -8.356688e+01   8.982923e+01
  -9.138260e+01   7.308458e+01
  -1.528477e+02  -3.905138e+01
  -1.013663e+02  -1.965955e+02
  -1.350789e+01  -2.530707e+02
   1.044811e+02  -1.761503e+02
   1.613327e+02   1.745199e+01
   1.178372e+02   1.389539e+02
   1.756453e+00   1.365799e+02
  -4.423150e+01   5.945069e+01
  -4.637388e+01   1.298681e+01
  -2.424810e+01  -1.077346e+01
  -2.130934e+01  -7.352184e+01
  -5.011744e+01  -1.510278e+01
  -2.939569e+01  -2.911965e+01
  -2.589135e+01  -5.270141e+01
   6.924421e+01  -5.621689e+01
   1.447456e+02   2.240821e+01
   1.199248e+02   4.355709e+01
   1.252781e+01   1.067897e+02
  -1.468586e+02   8.949641e+01
  -1.477790e+02   1.456403e+01
  -1.874538e+01  -3.237344e+01
   6.132159e+01  -2.835762e+01
   4.123263e+01   1.424795e+01
   2.573769e+01   6.686808e+01
  -6.696801e+01   7.618239e+01
  -5.668337e+01  -1.655275e+01
  -5.297066e+01  -5.751389e+01
  -4.900321e+01  -2.244069e+01
  -7.365503e+01  -2.996984e+01
  -4.210182e+01  -3.288833e+01
  -4.180447e+01  -3.768719e+01
   3.415487e+01  -1.481202e+02
   1.111848e+02  -9.684253e+01
   1.659776e+02  -2.518316e+01
   9.180527e+01   1.084078e+02
   6.817009e+01   1.355384e+02
  -1.001879e+02   4.510471e+01
  -3.211939e+01   5.959821e+00
   4.021784e+01   1.994045e+01
   1.219862e+02   6.697664e+01
   9.199685e+01   1.064996e+02
  -5.011175e+01   1.048813e+02
  -1.907540e+02   1.765011e+01
  -1.527066e+02  -3.816337e+01
  -2.700951e+01  -6.725843e+01
   6.364085e+01  -6.659975e+01
   1.667665e+01  -1.558800e+00
  -1.291482e+01   1.063140e+01
  -9.126938e+01  -2.145389e+01
  -2.326256e+01  -1.126001e+02
   7.997578e+01  -1.526797e+02
   1.894412e+02  -5.900153e+01
   1.353099e+02   9.355822e+01
  -9.231434e+00   1.879989e+02
  -9.442034e+01   1.266656e+02
  -1.047991e+02   2.472437e+01
  -5.344404e+01  -1.056704e+02
  -3.102751e+00  -1.085089e+02
   3.818172e+01  -2.476961e+01
   7.668315e+01   2.411722e+01
   2.660719e+01   1.230371e+01
   3.846855e+00  -9.592414e+00
   3.624749e+01   1.200858e+01
   3.780377e+01   7.371499e+01
   1.810651e+01   1.065688e+02
  -6.479301e+01   4.969374e+01
  -1.831655e+02  -4.477337e+00
  -1.421791e+02  -6.113291e+01
  -1.845207e+01  -6.180904e+01
   6.593399e+01  -3.039269e+01
   9.433333e+01   1.474669e+01
   1.068314e+01  -1.299364e+01
  -2.449131e+01   1.194818e+01
  -2.167131e+01   6.751379e+00
   1.951245e+01  -1.725099e+01
  -3.269467e+01   7.920601e+00
  -9.086669e+01   2.674178e+01
  -9.131623e+01  -7.283385e+01
   7.545521e+00  -8.688011e+01
   1.300698e+02  -1.048038e+02
   1.844188e+02  -3.339949e+01
   1.203928e+02   8.727093e+01
   2.956893e+01   1.771154e+02
  -8.296495e+01   1.128897e+02
  -1.162177e+02   3.197642e+01
  -7.381052e+01  -2.684541e+01
  -1.579623e+01   5.517710e+00
  -1.689163e+01  -1.996011e+01
   1.446872e+01   4.411619e+01
  -4.943214e+01  -4.751753e+01
  -4.076723e+01  -1.054634e+02
   1.687584e+01  -5.054586e+01
   1.023481e+02   4.448223e+01
   5.800262e+01   1.193853e+02
  -2.531234e+01   9.477192e+01
  -4.565783e+01   4.148996e+01
  -1.353335e+02  -1.039417e+02
   2.546662e+00  -1.139347e+02
   8.057619e+01  -6.009143e+01
   7.074218e+01  -2.707385e+01
  -1.628467e+00   2.826061e+01
   7.845677e-01   5.143225e+01
  -4.682984e+01   2.015095e+01
   2.736481e+01  -1.453037e+01
   5.527641e+01   3.639415e+01
  -3.612836e+01   3.213548e+01
  -6.119519e+01   6.332875e+01
  -1.182129e+02   7.089792e+01
  -6.186550e+01  -2.324649e+01
   2.693648e+01  -6.758478e+01
   4.695132e+01  -4.448356e+01
   4.328377e+01  -3.347440e+01
  -1.007067e+00   1.026079e+02
  -2.528527e+01   1.724716e+01
  -4.351484e+01  -4.722137e+01
  -3.286780e+01  -7.190961e+01
   4.035489e+00  -1.936413e+01
   5.984453e+01  -3.054497e+01
   4.140687e+01   4.789564e+01
  -5.729368e+00   2.924963e+01
   1.963934e+00  -1.366748e-01
  -8.787321e-01  -1.594260e+01
  -3.603365e+00   6.710352e+01
  -1.374321e+01   7.834714e+00
  -5.932364e+01  -1.642125e+01
   3.822548e+00  -4.272605e+01
   2.460496e+01  -4.116114e+01
   3.349201e+01  -4.288291e+01
   6.520908e+01   4.979837e+01
   8.095757e+00   8.701372e+01
  -2.545785e+01   6.749761e+01
  -9.962719e+01  -1.009571e+01
  -3.469063e+01  -3.370949e+01
   4.318795e+00  -4.171395e+01
   4.738392e+01  -9.071944e+00
   2.228509e+01  -6.716569e+00
  -1.800415e+01  -8.211145e+00
  -2.548421e+01  -1.344590e+01
   3.488217e+01  -3.196530e+01
   1.020587e+02  -2.733628e+01
