
 $NMID
 id='ANONYMOUS ', fmtdat='(2E16.6)'
 volume=1.0
 tramp=1.0
 $END
  -4.622485e+03  -6.508993e+01
  -2.857229e+03  -2.693005e+03
   5.525102e+02  -3.090335e+03
   2.320294e+03  -9.716436e+02
   1.085240e+03   7.746082e+02
  -7.471412e+02   6.598270e+02
  -9.772957e+02  -3.447377e+02
  -6.667017e+01  -1.229593e+03
   9.920543e+02  -8.347206e+02
   1.018161e+03   1.349410e+02
   5.027351e+02   8.816300e+02
  -2.085148e+02   9.682086e+02
  -7.510445e+02   1.878566e+02
  -4.578036e+02  -7.777281e+02
   2.829220e+02  -8.429014e+02
   6.508393e+02   6.743651e+01
   3.061155e+02   7.201547e+02
  -2.543582e+02   7.054562e+02
  -5.431589e+02   1.338412e+02
  -4.050120e+02  -3.957556e+02
  -1.654786e+01  -5.415904e+02
   2.739084e+02  -2.994969e+02
   2.136574e+02  -4.232793e+01
  -1.066508e+02   1.361381e+02
  -4.415938e+02  -8.989153e+01
  -2.406973e+02  -4.130388e+02
   4.367922e+02  -4.788556e+02
   9.550769e+02  -1.635936e+01
   4.416397e+02   5.386693e+02
  -3.613435e+02   6.299040e+02
  -8.192897e+02   3.932771e+01
  -4.040857e+02  -4.647167e+02
   2.882965e+02  -5.341190e+02
   5.615470e+02  -1.991134e+02
   4.343809e+02   2.442440e+02
   7.842964e+01   4.934255e+02
  -2.163632e+02   3.662590e+02
  -1.893847e+02  -2.495588e+02
   1.232168e+02  -4.201240e+02
   4.825378e+02   7.319371e+00
   3.173630e+02   7.395706e+02
  -2.969380e+02   7.870958e+02
  -6.178169e+02   2.342184e+01
  -3.720284e+02  -5.416512e+02
   2.910954e+02  -4.092986e+02
   4.689550e+02   2.813585e+02
  -5.119981e+01   5.796984e+02
  -5.655433e+02   1.926605e+02
  -6.110943e+02  -4.229620e+02
  -1.631251e+02  -6.508053e+02
   3.629198e+02  -3.606482e+02
   7.118463e+02   1.152211e+02
   3.973490e+02   3.991618e+02
  -1.480327e+02   3.972228e+02
  -4.827132e+02   1.068364e+02
  -3.204083e+02  -2.167411e+02
   1.099866e+02  -1.467919e+02
   2.104072e+02   1.862945e+02
  -1.679354e+02   1.885369e+02
  -4.072398e+02  -8.371055e+01
  -1.565863e+02  -3.250942e+02
   2.089946e+02  -2.735375e+02
   3.343186e+02  -2.898352e+01
   2.010941e+02   8.293108e+01
  -3.577955e+01   2.305496e+02
  -2.108916e+02   3.575069e+02
  -3.373306e+02   2.291712e+02
  -2.784256e+02  -1.344620e+02
  -5.675603e+01  -4.697316e+02
   1.212089e+02  -4.453494e+02
   1.486481e+02  -9.650500e+01
   2.744891e+01   1.422008e+01
   2.170207e+01  -4.063660e+01
   1.500863e+02  -1.712069e+02
   2.874881e+02   2.760168e+01
   2.248782e+02   2.731367e+02
  -6.089396e+01   3.133916e+02
  -2.583148e+02   7.588233e+01
  -2.126279e+02  -2.537459e+02
  -1.349945e+01  -3.001611e+02
   2.995325e+02  -1.517372e+02
   3.978461e+02   2.032244e+02
   2.148551e+02   3.444321e+02
  -9.364734e+01   3.364370e+02
  -2.414153e+02   1.309118e+02
  -1.882062e+02   2.693239e+00
  -1.230836e+02   1.534791e+01
  -2.260884e+02   9.253656e+01
  -4.049873e+02  -5.215500e+01
  -3.233270e+02  -2.606001e+02
  -6.833506e+00  -4.255553e+02
   3.359978e+02  -4.340125e+02
   4.691361e+02  -2.131631e+02
   3.849935e+02   9.608264e+01
   3.155828e+01   2.758061e+02
  -1.430001e+02   2.383309e+02
  -7.160858e+01   5.153112e+01
   1.030443e+02  -1.236192e+02
   1.943010e+02   1.896906e+01
   1.259889e+02   2.053736e+02
  -1.303234e+02   1.752034e+02
  -2.333904e+02  -5.958985e+01
   5.168891e-01  -1.997620e+02
   1.923953e+02  -4.359434e+01
   1.361322e+02   2.558558e+02
  -4.521172e+01   3.618310e+02
  -2.109831e+02   2.381143e+02
  -3.104972e+02  -1.084656e+02
  -3.149423e+02  -2.497499e+02
  -1.740384e+02  -2.638877e+02
   6.952973e+01  -1.922363e+02
   1.851655e+02  -1.841447e+01
   7.094953e+01   4.878035e+01
  -8.172333e+01  -3.380776e+01
  -5.881947e+01  -1.079524e+02
   1.147296e+02  -1.425639e+02
   1.947050e+02   5.669960e+00
   7.908027e+01   4.895674e+01
  -6.350272e+01   1.520750e+01
  -8.026114e+01  -6.051763e+01
   1.626286e+02  -8.831129e+01
   2.916731e+02   3.030994e+00
   2.384264e+02   1.407020e+02
   6.922013e+01   2.677103e+02
  -1.961967e+02   2.502260e+02
  -2.997816e+02   1.361016e+02
  -2.183005e+02  -5.199654e+01
   5.571577e+00  -1.149256e+02
   8.729207e+01  -1.977121e+01
  -4.255208e+01   1.218816e+02
  -2.257783e+02   5.843098e+01
  -2.557931e+02  -6.059930e+01
  -1.100430e+02  -2.559045e+02
   7.761650e+01  -1.394944e+02
   1.393694e+02  -5.432467e+01
   7.358063e+01   4.400837e+01
  -5.998224e+00   9.838695e+00
  -6.115155e+01  -9.273847e+01
   7.621751e+01  -1.198666e+02
   1.788022e+02  -3.234490e+01
   1.856549e+02   1.148591e+02
   2.353295e+01   2.352121e+02
  -1.821202e+02   1.754162e+02
  -2.194592e+02   4.167799e+01
  -7.764012e+01  -9.981641e+01
   4.444280e+01  -1.354288e+02
   5.891423e+01  -4.533030e+01
   3.336057e+01   3.285276e+01
  -2.961789e+01   2.193728e+01
   2.018396e+01   1.319578e+01
   9.826518e+01   3.345736e+00
   6.176915e+01   5.987923e+01
   9.337562e+00   1.518289e+02
  -1.560673e+02   1.649026e+02
  -2.405073e+02   1.903799e+01
  -2.130723e+02  -1.383184e+02
  -5.035954e+01  -2.205454e+02
   1.504234e+02  -1.694312e+02
   9.710151e+01  -1.883355e+01
   1.000373e+02   8.420058e+01
   1.230777e+01   1.730122e+01
   3.850198e+01  -3.378701e+01
   1.035214e+02   2.143798e+01
   1.064128e+01   6.659843e+01
  -3.102933e+01   8.220920e+01
  -1.360669e+02   5.419103e+01
  -1.051132e+02  -2.452949e+01
  -1.822167e+00  -1.015681e+02
   1.501155e+02  -5.675076e+01
   2.060831e+02   4.966559e+01
   9.965101e+01   2.000034e+02
  -7.307591e+01   2.527010e+02
  -3.355550e+02   1.396177e+02
  -2.589105e+02  -1.049275e+02
  -1.066648e+02  -1.768640e+02
   5.740490e+01  -1.358980e+02
   1.048395e+02  -7.650887e+01
   8.989847e+01  -9.932159e+01
   1.149663e+02  -7.283409e+01
   9.266137e+01  -6.185205e+01
   9.438358e+01   2.697362e+01
   1.374615e+02   1.309464e+02
   2.661303e+01   2.631880e+02
  -9.862999e+01   1.842804e+02
  -1.982416e+02   7.991531e+00
  -1.004933e+02  -1.351358e+02
  -1.365157e+01  -1.622352e+02
   7.925177e+01  -1.237728e+02
   6.327288e+01   7.224018e-01
  -2.225994e+00   7.603028e+01
  -1.659658e+01   4.317420e+01
   5.030273e+01   2.626529e+01
   9.326102e+01  -2.612376e+00
   6.738746e+01   1.193078e+01
  -9.243021e+01   4.956627e+01
  -1.478893e+02  -8.682743e+00
  -1.526508e+02  -5.052650e+01
   1.025034e+01  -4.641849e+01
   1.295961e+02  -7.954644e+01
   1.367773e+02  -8.113755e+00
   2.909615e+01   2.885654e+01
  -5.669624e+01   4.374180e+01
  -8.575719e+01  -3.346489e+01
  -5.642547e+01  -6.092626e+01
   6.278024e+01  -5.658673e+01
   9.164090e+01   8.834182e+00
   4.423224e+01   4.819140e+01
   6.539682e+01   6.495787e+01
   7.279144e+01  -9.494556e-01
   9.696196e+01   3.534020e+00
   1.426079e+01   7.402049e+01
  -1.621611e+01   1.486466e+02
  -1.118826e+02   8.735162e+01
  -1.787821e+02   2.884192e+01
  -1.012195e+02  -1.383227e+02
  -8.472655e+00  -1.229642e+02
   4.494156e+01  -8.752474e+01
   5.877223e+01   2.936090e+01
  -2.768739e+01   6.448064e+01
  -1.269738e+02  -1.634525e+01
  -8.840847e+01  -9.570689e+01
   1.056012e+02  -1.184685e+02
   2.208235e+02  -2.723903e+01
   1.583748e+02   9.139492e+00
   2.700419e+01   8.864113e+01
  -7.795292e+01   1.011031e+02
  -4.069066e+01  -3.651230e+01
   5.339974e+01  -3.262965e+01
   7.229166e+01   5.048088e+01
   3.875100e+01   1.288948e+02
  -7.905012e+01   1.644851e+02
  -1.980936e+02   5.218182e+01
  -1.709239e+02  -8.033085e+01
  -3.699400e+01  -1.896843e+02
   8.582332e+01  -1.449356e+02
   9.919542e+01  -2.289592e-01
   5.870542e+01   1.322464e+02
   3.194003e+01   9.870235e+01
  -4.922818e+01   3.460045e+01
  -4.935239e+01   4.409682e-01
   3.367889e+01  -5.784552e+00
   3.430196e+01   6.086842e+00
  -4.552715e+01  -5.512660e+01
  -6.899775e+01  -1.048422e+02
  -2.126536e+01  -1.424189e+02
   6.078427e+01  -6.709309e+01
   1.589689e+02   8.343184e+00
   1.164133e+02   7.352382e+01
   2.107464e+01   8.764989e+01
  -8.107285e+01   7.266449e+01
  -9.832350e+01   2.021024e+01
  -2.089248e+01   1.492513e+01
   6.597114e+01  -4.099511e+01
  -1.723485e+01  -3.996663e+01
  -5.605689e+01  -1.372802e+01
   1.619660e+00  -1.797594e+01
   1.069165e+02   3.690460e+01
   1.212071e+02   3.715999e+01
   1.035814e+01   6.908467e+01
  -1.258380e+02   1.183851e+02
  -2.056499e+02   5.085095e+01
  -1.534826e+02  -6.366316e+01
  -3.743955e+01  -1.516314e+02
   7.625551e+01  -1.868443e+02
   8.939430e+01  -4.582521e+01
   9.033949e+01   4.200171e+00
   4.926208e+01   3.519853e+01
   1.933449e+00  -2.461583e+01
   6.512362e-02   3.514674e+01
   2.215597e+01   2.405924e+01
   2.064782e+01   1.102512e+02
  -4.458288e+00   8.791893e+01
  -8.742102e+01  -7.516285e+01
  -1.076868e+02  -9.886338e+01
  -1.499586e+01  -9.652008e+01
   1.064612e+02  -3.819773e+01
   1.125935e+02   1.024493e+02
   2.790950e+01   8.718744e+01
  -5.286418e+01   1.045893e+02
  -5.944059e+01   3.276486e-01
   7.422498e+00  -7.224812e+01
   4.477730e+01  -8.063364e+01
   3.046848e+01  -1.732015e+01
  -5.771867e+01   2.944885e+01
  -5.760646e+01   1.124568e+01
  -3.027119e+01  -4.506749e+01
   8.090518e+01  -5.388500e+01
   8.013742e+01  -7.785244e+01
   7.661873e+01   6.645373e-01
   4.270992e+00   7.277434e+01
  -5.978190e+01   5.799010e+01
  -5.482654e+01   4.210249e+01
   1.308018e+00  -5.131646e+01
   4.301488e+01  -6.086955e+01
   3.833459e+01   6.502563e+00
   2.854487e+01   1.518444e+01
   1.974989e+00   8.586713e-01
  -2.443452e+01  -2.341995e+01
  -3.289427e+01   6.512434e+00
   9.378856e+00   9.796675e+00
   1.916548e+01   1.174755e+01
  -2.963357e+00  -1.480765e+01
  -2.706329e+01  -2.576989e+01
  -9.625631e+00  -3.693816e+01
   2.580823e+01  -1.583956e+01
   7.354893e+01   2.951971e+01
   1.153524e+00   5.939311e+01
  -2.101643e+01  -6.937124e+00
  -5.394367e+01  -3.479274e+01
  -1.387224e+01  -6.820046e+01
   5.625364e+01  -5.315116e+01
   1.069139e+02   3.840922e+01
   4.892254e+01   6.571619e+01
  -1.883571e+01   3.338364e+01
  -7.969794e+01   4.904789e+01
  -4.709651e+01   3.440152e+01
   3.441619e+01  -7.911287e+00
   7.091656e+01   4.492948e+01
  -3.613427e+01   8.366212e+01
  -8.006251e+01   3.796106e+01
