
 $NMID
 id='ANONYMOUS ', fmtdat='(2E16.6)'
 volume=1.0
 tramp=1.0
 $END
   4.666360e+03   5.792802e+01
   2.942328e+03   2.860642e+03
  -5.589785e+02   3.188314e+03
  -2.449071e+03   9.860037e+02
  -1.060252e+03  -8.208343e+02
   8.271022e+02  -6.981237e+02
   9.835317e+02   4.123629e+02
   8.208705e+01   1.213923e+03
  -9.189877e+02   8.156661e+02
  -1.019715e+03  -1.062027e+02
  -5.825007e+02  -9.272756e+02
   2.118034e+02  -1.005706e+03
   7.074710e+02  -2.107699e+02
   4.625720e+02   8.212455e+02
  -3.127536e+02   8.043918e+02
  -7.140893e+02  -5.682400e+01
  -2.796153e+02  -7.443638e+02
   3.520263e+02  -6.943779e+02
   6.387395e+02  -1.092993e+02
   4.396303e+02   3.965978e+02
   5.514849e+01   5.028282e+02
  -3.179966e+02   2.967276e+02
  -2.572581e+02  -9.652508e-01
   8.209505e+01  -1.192428e+02
   4.246191e+02   4.205548e+01
   2.477069e+02   3.875793e+02
  -4.867810e+02   4.964346e+02
  -9.174833e+02  -1.808026e+01
  -4.741103e+02  -5.233520e+02
   3.994016e+02  -5.883873e+02
   8.512974e+02  -5.630599e+01
   3.652803e+02   5.278164e+02
  -2.846539e+02   5.528190e+02
  -5.558327e+02   2.459185e+02
  -4.474008e+02  -2.194589e+02
  -1.346801e+02  -5.148569e+02
   2.414796e+02  -3.492589e+02
   1.936780e+02   2.544840e+02
  -1.088514e+02   4.377148e+02
  -4.992611e+02   2.819835e+01
  -2.656316e+02  -7.235001e+02
   2.793337e+02  -8.103209e+02
   6.562551e+02  -1.009957e+01
   3.710499e+02   5.557850e+02
  -2.777369e+02   3.997779e+02
  -4.495464e+02  -3.187927e+02
   5.506672e+01  -6.051301e+02
   5.825485e+02  -2.226238e+02
   6.618371e+02   3.968601e+02
   1.965597e+02   6.525780e+02
  -3.901924e+02   3.653296e+02
  -6.656740e+02  -9.934713e+01
  -4.331602e+02  -4.088590e+02
   1.585806e+02  -4.066894e+02
   4.609969e+02  -9.749920e+01
   2.501382e+02   2.275773e+02
  -8.432841e+01   1.159943e+02
  -1.774632e+02  -1.491514e+02
   1.209553e+02  -2.406096e+02
   3.838368e+02   5.341867e+01
   1.431199e+02   3.180506e+02
  -2.024562e+02   2.857595e+02
  -3.707115e+02   6.938567e+01
  -2.411745e+02  -7.373683e+01
   2.815755e+01  -2.621922e+02
   2.637594e+02  -3.904369e+02
   3.396878e+02  -2.751831e+02
   2.973296e+02   1.873651e+02
   7.767886e+01   4.890493e+02
  -1.332030e+02   3.982766e+02
  -9.763771e+01   1.152974e+02
  -7.760715e+01  -1.805481e+01
  -2.202229e+01   8.830123e+01
  -2.043467e+02   1.689467e+02
  -3.231617e+02  -4.547960e+01
  -1.900000e+02  -3.054451e+02
   4.479409e+01  -2.792130e+02
   2.561405e+02  -2.705791e+01
   2.446914e+02   3.170935e+02
  -4.037176e+01   3.269865e+02
  -2.599960e+02   1.425971e+02
  -3.921592e+02  -1.899932e+02
  -2.150936e+02  -3.680599e+02
   1.024710e+02  -3.268078e+02
   2.362823e+02  -1.445020e+02
   1.789389e+02   1.410322e+01
   8.430484e+01  -1.011089e+01
   2.321479e+02  -7.322637e+01
   4.116152e+02   1.402027e+01
   3.394837e+02   3.124307e+02
  -1.843177e+00   4.119346e+02
  -3.947063e+02   4.155305e+02
  -4.919584e+02   2.156986e+02
  -3.390433e+02  -9.612654e+01
  -4.963709e+01  -3.267140e+02
   1.295424e+02  -2.710062e+02
   8.219986e+01  -4.039531e+01
  -1.043931e+02   1.334736e+02
  -1.903211e+02  -2.355946e+00
  -8.794910e+01  -2.212358e+02
   1.453948e+02  -1.931849e+02
   2.522770e+02   5.780298e+01
   3.674289e+00   2.018165e+02
  -1.800561e+02   3.242697e+01
  -2.109553e+02  -2.752363e+02
   4.667318e+01  -3.567228e+02
   2.372903e+02  -2.097471e+02
   3.361649e+02   7.301401e+01
   3.116998e+02   2.897564e+02
   1.140765e+02   2.801783e+02
  -1.150083e+02   1.106985e+02
  -1.900287e+02   1.856971e+01
  -9.812826e+01  -3.298006e+01
   4.245445e+01   7.431607e+01
   4.877481e+01   9.765919e+01
  -1.356777e+02   8.277321e+01
  -1.727848e+02   5.711252e+00
  -7.878721e+01  -5.285531e+01
   9.014309e+01  -3.840852e+01
   5.507231e+01   5.893015e+01
  -1.353813e+02   1.288525e+02
  -2.766124e+02   3.212517e+01
  -2.601296e+02  -1.558717e+02
  -6.906417e+01  -2.614808e+02
   1.543281e+02  -2.892450e+02
   2.540325e+02  -1.175828e+02
   1.887584e+02   9.041773e+01
   5.115860e+00   1.178313e+02
  -5.618094e+01   4.592579e+00
   1.945943e+01  -1.446317e+02
   2.209544e+02  -2.456858e+01
   2.325816e+02   8.509127e+01
   1.072571e+02   2.429096e+02
  -7.821582e+01   1.464136e+02
  -1.467909e+02   5.050277e+01
  -9.429972e+01  -4.505570e+01
  -3.647317e+00   1.758661e+01
   4.323912e+01   7.332242e+01
  -9.557614e+01   9.265355e+01
  -2.144682e+02   6.719286e+01
  -2.092771e+02  -1.334759e+02
  -4.864186e+01  -2.409657e+02
   1.794741e+02  -1.713323e+02
   1.961308e+02   3.416365e+01
   5.719508e+01   1.167277e+02
  -1.103622e+02   1.237888e+02
  -6.937203e+01   2.937953e+01
  -2.953526e+01  -2.701143e+01
   2.698325e+01   1.532055e+01
   2.688305e+00   1.383234e+01
  -6.862393e+01   5.187739e+00
  -6.150891e+01  -4.202031e+01
  -1.362159e+01  -1.761961e+02
   1.419471e+02  -1.690819e+02
   2.686511e+02  -3.844524e+01
   1.664616e+02   1.633402e+02
   4.448703e+01   2.284113e+02
  -9.909385e+01   1.857218e+02
  -1.145615e+02   3.742083e+01
  -6.006459e+01  -7.530944e+01
  -3.443563e+01  -3.104114e+01
  -9.408651e+01   1.906673e+01
  -6.112538e+01   1.857782e+01
  -2.121585e+01  -6.018849e+01
   2.890625e+01  -7.695047e+01
   8.395047e+01  -6.161289e+01
   7.722503e+01   5.897272e+01
  -7.305396e+00   8.774789e+01
  -1.386052e+02   7.031115e+01
  -2.204045e+02  -3.146811e+01
  -1.174363e+02  -1.952401e+02
   1.281496e+02  -2.504694e+02
   2.903995e+02  -1.234910e+02
   2.599825e+02   9.102012e+01
   1.092821e+02   1.871391e+02
  -2.301603e+01   1.307039e+02
  -7.318685e+01   1.118184e+02
  -6.765272e+01   9.017690e+01
  -1.066775e+02   6.161880e+01
  -3.412830e+01   6.397855e+01
  -1.569987e+02  -5.852481e+01
  -1.181144e+02  -1.595691e+02
  -4.882418e+01  -1.892134e+02
   7.914975e+01  -1.838551e+02
   1.525605e+02  -3.343983e+01
   1.466690e+02   1.164543e+02
   4.274339e+01   1.828339e+02
  -1.737345e+01   9.412056e+01
  -4.227767e+01   1.020614e+01
  -2.593595e+01  -4.600747e+01
   3.329556e+01  -5.657536e+01
  -1.657058e+01  -1.147357e+01
  -7.794014e+01   1.732674e+01
  -8.171089e+01  -6.250948e+01
   5.051584e+01  -3.474001e+01
   1.687023e+02   2.917973e+01
   1.441465e+02   3.202900e+01
   4.890243e+01   8.488827e+01
  -1.160880e+02   8.785197e+01
  -1.699792e+02   9.154527e+00
  -6.132844e+01  -5.956869e+01
   5.889341e+01  -3.969430e+01
   8.131526e+01   2.750025e+01
   1.032704e+01   6.563130e+01
  -4.095078e+01   3.690480e+01
  -6.391028e+01  -5.617464e+01
  -4.081851e+01  -4.349650e+01
  -4.282758e+01  -4.485239e+01
  -7.735513e+01   8.848762e-01
  -9.987926e+01   2.586104e+01
  -3.372713e+01  -4.269082e+01
   4.864463e+01  -1.154264e+02
   1.160935e+02  -1.571236e+02
   1.650038e+02  -5.665399e+01
   1.301401e+02   1.171920e+02
   4.720217e+01   1.533254e+02
  -3.785375e+01   6.319927e+01
  -7.018897e+01  -1.963158e+01
   5.336654e+01  -1.918472e+01
   1.263732e+02   6.746336e+01
   3.818031e+01   1.487084e+02
  -6.730811e+01   1.083631e+02
  -1.872954e+02   7.829608e+01
  -2.080913e+02   2.322107e+01
  -4.885899e+01  -1.093904e+02
   3.431276e+01  -7.878334e+01
   5.656282e+01  -6.207810e+00
  -3.422062e+01   6.558283e+01
  -1.033118e+02  -5.196770e+00
  -4.126375e+01  -1.237713e+02
   1.054001e+02  -1.839463e+02
   1.620075e+02  -7.317259e+01
   1.669079e+02   7.942402e+01
  -8.523044e+00   2.118932e+02
  -7.574663e+01   1.586398e+02
  -7.732366e+01  -1.156022e+01
  -6.858920e+01  -1.296145e+02
   1.988376e-01  -1.324897e+02
   3.100207e+01  -5.340096e+01
   7.641332e+01   1.112623e+01
   7.946126e+01  -1.260214e+01
   2.314888e+01  -2.743160e+01
   6.830196e+00   4.248773e+01
   4.094688e+01   1.125924e+02
   1.380932e+01   1.496397e+02
  -8.710880e+01   1.202655e+01
  -1.768752e+02  -4.510649e+01
  -1.344575e+02  -7.467216e+01
  -3.598966e+00  -1.817492e+01
   1.037657e+02  -2.908019e+01
   7.649805e+01  -3.947881e+01
   1.718611e+00   4.055433e+01
  -3.263795e+01   1.321498e+01
  -2.907679e+01  -1.264107e+01
   5.284036e+01   1.452523e+01
  -5.264762e-01   1.840356e+01
  -6.340055e+01  -2.517789e+01
  -1.042662e+02  -3.459206e+01
  -2.694078e+01  -7.386616e+01
   1.208159e+02  -1.521692e+02
   1.760402e+02  -4.245442e+01
   1.411953e+02   9.182539e+01
   5.466559e+01   1.873042e+02
  -9.615807e+01   1.860998e+02
  -1.209376e+02   6.066297e+01
  -5.199551e+01  -1.744834e+01
  -1.507063e+01  -7.337585e+01
  -8.697406e+00  -9.719325e+00
  -5.663454e+00  -3.231244e+01
   2.562261e+01  -2.205886e+01
  -6.467771e+01  -8.812751e+01
   5.405459e+01  -5.101185e+01
   9.226933e+01   4.109443e+01
   5.612881e+01   1.214799e+02
   2.321508e+01   1.436262e+02
  -1.100727e+02   2.039859e+01
  -9.509299e+01  -5.993378e+01
  -8.151012e+01  -1.118923e+02
   8.345293e+01  -7.087295e+01
   1.097175e+02  -4.890472e+00
   2.731754e+01   4.455120e+01
   5.908949e+00   1.056765e+02
  -1.418349e+01   2.288425e+01
   5.478442e+01   3.508260e+01
   4.785631e+01  -4.594191e+01
   4.706547e+01   4.209195e+00
  -6.892746e+01   7.456914e+01
  -1.236621e+02   6.751591e+01
  -8.973538e+01   1.957393e+00
   4.171944e+01  -5.212644e+01
   7.763070e+01  -9.016822e+01
   5.396641e+01  -7.256033e-01
  -3.290677e+01   6.704060e+01
  -2.950125e+01   7.566521e+01
  -8.448640e+01  -3.327749e+01
  -1.357138e+01  -5.069130e+01
   1.124959e+01  -6.949949e+01
   1.665047e+01  -3.236256e+01
   4.248255e+01   2.586329e+01
   3.978922e+01  -8.606044e+00
  -3.132093e+01  -1.095428e+01
   1.812496e+01   1.531739e+00
  -2.841740e+01   3.040528e+01
  -1.316509e+01   3.113422e+01
  -7.793241e+00   1.257148e+01
  -3.268238e+01  -8.256397e+01
  -7.839886e+00  -3.277902e+01
   3.601761e+01   1.330731e+01
   5.117393e+01   3.751368e+01
   3.558375e+01   7.019498e+01
  -6.711710e+01   5.417608e+01
  -5.146620e+01  -8.861301e+01
  -4.071831e+01  -4.587850e+01
   1.490404e+01  -5.534969e+01
   3.099875e+01   1.940237e+00
   1.978970e+01   2.411320e+01
  -2.139818e+01  -6.961038e+00
  -6.404753e+01  -4.043681e+01
   1.944472e+01  -4.298235e+01
   9.748144e+01  -1.332257e+01
