
 $NMID
 id='ANONYMOUS ', fmtdat='(2E16.6)'
 volume=1.0
 tramp=1.0
 $END
   4.508923e+03   1.656324e+02
   2.691217e+03   2.905440e+03
  -5.946733e+02   3.013313e+03
  -2.467015e+03   8.437083e+02
  -1.055518e+03  -8.112726e+02
   7.090676e+02  -6.690580e+02
   9.220141e+02   3.643532e+02
   1.309052e+02   1.159311e+03
  -8.723339e+02   7.639560e+02
  -1.044293e+03  -1.205837e+02
  -5.468725e+02  -9.291456e+02
   1.935275e+02  -1.009491e+03
   7.230156e+02  -1.497885e+02
   4.408179e+02   7.642466e+02
  -2.809164e+02   8.008597e+02
  -6.884725e+02  -4.250513e+01
  -3.000696e+02  -7.176906e+02
   3.059072e+02  -6.761232e+02
   6.084098e+02  -9.675947e+01
   4.178628e+02   3.668203e+02
   4.314536e+01   4.943497e+02
  -2.653282e+02   2.608533e+02
  -2.149259e+02   1.845063e+01
   1.047303e+02  -6.479721e+01
   4.139873e+02   6.574736e+01
   2.208863e+02   3.923836e+02
  -3.889501e+02   4.994182e+02
  -9.463747e+02  -5.941924e+01
  -4.940450e+02  -6.034624e+02
   4.061686e+02  -5.670599e+02
   8.801469e+02  -2.767168e+01
   3.649684e+02   4.966838e+02
  -2.683020e+02   5.462197e+02
  -5.811149e+02   2.319742e+02
  -4.355675e+02  -2.419680e+02
  -1.065714e+02  -5.260832e+02
   2.309992e+02  -2.781109e+02
   2.194867e+02   2.707510e+02
  -5.590220e+01   4.833786e+02
  -4.125167e+02   6.933487e+00
  -2.911396e+02  -7.626680e+02
   3.741206e+02  -8.042958e+02
   6.086469e+02  -2.455819e+01
   3.218618e+02   5.195046e+02
  -3.197959e+02   3.485136e+02
  -4.195658e+02  -3.549279e+02
   6.742900e+01  -5.550888e+02
   5.533393e+02  -1.965043e+02
   6.471386e+02   3.864185e+02
   1.750902e+02   6.278512e+02
  -4.121925e+02   3.566719e+02
  -6.438055e+02  -1.035599e+02
  -3.887753e+02  -3.809788e+02
   2.145134e+02  -3.556282e+02
   4.624836e+02  -9.620630e+01
   2.324641e+02   2.609576e+02
  -1.161759e+02   1.271287e+02
  -1.914594e+02  -1.788307e+02
   1.768850e+02  -2.124272e+02
   4.193542e+02   1.154932e+02
   1.791348e+02   3.346746e+02
  -2.041782e+02   2.675219e+02
  -3.135421e+02   3.275548e+01
  -1.910358e+02  -1.063499e+02
   3.055509e+01  -2.365217e+02
   1.979380e+02  -3.824571e+02
   3.520009e+02  -2.415003e+02
   2.936630e+02   1.642426e+02
   1.088537e+02   4.992637e+02
  -1.336237e+02   4.021620e+02
  -1.369196e+02   1.123964e+02
   2.559207e+00  -1.505619e+01
   1.072343e+01   1.063661e+02
  -2.385627e+02   1.342521e+02
  -2.974822e+02  -1.334421e+01
  -1.838507e+02  -3.121517e+02
   8.595856e+01  -3.033158e+02
   2.324412e+02  -5.468964e+01
   2.918763e+02   2.719190e+02
   1.661498e+01   3.239789e+02
  -2.782109e+02   1.338409e+02
  -3.562345e+02  -1.766358e+02
  -2.602870e+02  -3.405564e+02
   9.925084e+01  -3.093694e+02
   2.713175e+02  -1.559190e+02
   1.387699e+02   1.464855e+01
   1.014331e+02   1.312680e+01
   2.530234e+02  -8.095267e+01
   3.912938e+02   6.661838e+00
   3.366527e+02   2.799262e+02
   1.025290e+00   4.728827e+02
  -3.488897e+02   4.455300e+02
  -5.247314e+02   2.263893e+02
  -3.623489e+02  -8.340783e+01
  -6.563056e+01  -3.052996e+02
   1.355552e+02  -2.763608e+02
   9.593357e+01  -5.456859e+01
  -1.171542e+02   1.267764e+02
  -2.119280e+02   1.747064e+01
  -7.456878e+01  -2.052195e+02
   1.714079e+02  -1.654356e+02
   1.812688e+02   4.641149e+01
  -2.015411e+01   1.563146e+02
  -2.254158e+02   4.725274e+01
  -2.374099e+02  -2.898109e+02
   2.935497e+01  -3.417120e+02
   1.861545e+02  -1.647189e+02
   3.483349e+02   4.803335e+01
   2.776483e+02   2.260384e+02
   1.290318e+02   2.280651e+02
  -8.350796e+01   1.885572e+02
  -1.959639e+02   4.749436e+01
  -9.096657e+01  -6.548755e+00
   1.171304e+02   3.253976e+01
   4.508332e+01   1.171451e+02
  -1.202106e+02   1.213220e+02
  -1.699718e+02  -1.590458e+01
  -6.039513e+01  -2.405570e+01
   5.045509e+01  -4.776358e+01
   7.424151e+01   8.683794e+01
  -1.326498e+02   7.613060e+01
  -2.651244e+02   5.902840e+01
  -2.435585e+02  -1.390930e+02
  -8.506717e+01  -2.635274e+02
   1.511860e+02  -2.920020e+02
   3.022788e+02  -1.321967e+02
   1.779453e+02   4.639657e+01
  -6.263002e+01   9.846318e+01
  -1.273182e+02   2.069156e+01
   3.098775e+01  -1.284821e+02
   1.879292e+02  -1.062096e+02
   2.086785e+02   5.926652e+01
   7.131386e+01   2.412612e+02
  -4.163955e+01   2.143217e+02
  -1.604961e+02   7.562797e+01
  -7.592400e+01  -3.118537e+01
   1.630814e+01  -2.040843e+01
   7.082250e+01   2.413141e+01
  -8.642710e+01   8.840001e+01
  -2.105221e+02   6.398094e+01
  -1.914743e+02  -1.216905e+02
  -3.091088e+01  -2.572690e+02
   1.556247e+02  -2.087899e+02
   2.009475e+02  -1.800506e+01
   1.051277e+02   1.206231e+02
  -8.346016e+01   1.317942e+02
  -1.133129e+02   5.181072e+01
   1.714394e+01  -5.458586e+00
   5.526533e+01  -1.759874e+01
  -4.512282e+00   4.045135e+01
  -7.880602e+01  -1.200540e+01
  -1.122783e+02  -7.923561e+01
  -4.502393e+01  -1.705376e+02
   1.284117e+02  -1.505398e+02
   2.818306e+02  -3.164655e+01
   2.198297e+02   1.183410e+02
   5.581917e+01   2.542383e+02
  -9.410945e+01   1.746772e+02
  -1.434085e+02   1.871153e+01
  -8.392878e+01  -5.085734e+01
  -6.842739e+01  -2.006360e+01
  -8.253841e+01   2.186580e+01
  -8.343459e+01   9.797638e+00
  -7.756592e+01  -5.366811e+01
   5.033930e+01  -9.735319e+01
   1.235803e+02  -6.056837e+01
   1.066721e+02   7.527493e+01
  -1.184993e+00   9.537275e+01
  -1.166135e+02   8.883047e+01
  -1.916360e+02  -1.286030e+01
  -1.052336e+02  -2.602739e+02
   9.427159e+01  -2.376022e+02
   2.763976e+02  -1.178403e+02
   2.802836e+02   1.225134e+02
   1.564809e+02   1.836406e+02
  -4.357926e+01   1.191732e+02
  -7.688696e+01   5.256069e+01
  -5.866627e+01   9.179098e+01
  -3.662924e+01   1.005309e+02
  -1.000228e+02   6.371920e+01
  -8.835373e+01  -2.467539e+01
  -1.286635e+02  -1.314680e+02
  -2.464726e+01  -2.248456e+02
   8.328924e+01  -1.779644e+02
   1.974967e+02  -3.361786e+01
   1.389772e+02   9.623250e+01
   3.725884e+01   1.805843e+02
  -7.169869e+01   9.655789e+01
  -8.232934e+01  -1.783099e+01
   1.528651e+01  -9.075963e+01
   2.899372e+01  -1.551867e+00
  -9.259984e+00  -1.833074e+01
  -8.617983e+01   4.303360e+00
  -6.354957e+01  -3.345916e+01
   2.914221e+01  -7.350004e+01
   1.688539e+02  -2.943572e+01
   1.404020e+02   4.209932e+01
  -1.389136e+00   7.614559e+01
  -1.014424e+02   1.012694e+02
  -1.371800e+02  -9.455679e+00
  -4.555268e+01  -7.711489e+01
   8.190174e+01  -5.342465e+01
   9.051620e+01   5.594219e+01
   1.422994e+01   7.376334e+01
  -3.390183e+01   3.221298e+01
  -9.516264e+01   5.497595e+00
  -1.242835e+01  -4.671280e+01
  -6.349797e+01  -7.355383e+01
  -3.364973e+01   1.297660e+01
  -5.699634e+01  -1.702547e+01
  -3.887796e+01  -7.673426e+01
   4.692488e+01  -1.316638e+02
   1.262716e+02  -1.401280e+02
   1.791699e+02  -3.745263e+01
   1.329195e+02   8.688601e+01
   1.155227e+00   1.007313e+02
  -5.860747e+01   4.502393e+01
  -7.828611e+01  -1.314801e+01
   5.935084e+01  -6.832405e+00
   1.427008e+02   3.623582e+01
   6.080508e+01   1.169035e+02
  -9.672180e+01   9.369996e+01
  -2.110064e+02   4.348178e+01
  -1.779468e+02  -6.008528e+01
  -3.497382e+01  -9.379764e+01
   6.433706e+01  -8.548647e+01
   2.187214e+01  -1.618457e+01
  -9.851796e+01   2.357128e+01
  -9.492711e+01  -2.888154e+00
  -4.404290e+01  -1.131086e+02
   1.055872e+02  -1.820738e+02
   1.925763e+02  -8.517280e+01
   1.627301e+02   1.129030e+02
   3.041147e+01   1.917899e+02
  -4.098824e+01   1.508416e+02
  -8.986160e+01  -4.559186e+01
  -4.488045e+01  -1.431627e+02
   1.305871e+01  -1.156122e+02
   1.622158e+01  -4.352059e+00
   6.264471e+01   6.890071e+01
   5.429426e+01   8.520224e+00
  -2.039864e+01   8.460064e+00
  -3.149404e+01   4.164959e+01
   7.769632e+01   9.146611e+01
   4.902991e+01   1.061428e+02
  -2.780867e+01   3.778668e+01
  -1.791537e+02  -3.879116e+01
  -1.556601e+02  -7.366056e+01
   8.179365e+00  -2.417259e+01
   7.385890e+01  -4.538427e+01
   6.778591e+01  -1.995227e+01
  -1.138904e+00   3.163683e+01
  -7.726068e+00   2.034198e+01
   6.433659e+00   2.120601e+00
   6.048003e+00   1.933774e+01
   7.082275e+00   2.356046e+01
  -7.750582e+01   2.817977e+00
  -1.465488e+02   8.982450e+00
  -2.345046e+01  -6.393051e+01
   1.083469e+02  -8.532155e+01
   1.737902e+02  -5.587280e+01
   1.295663e+02   1.205086e+02
   2.930229e+01   1.403082e+02
  -7.809342e+01   1.440927e+02
  -5.757069e+01   9.673971e+01
  -7.210503e+01   1.740304e+01
  -3.213941e+01  -3.221893e+01
   1.579621e+01   1.518203e+00
  -1.303448e+01   3.133402e+00
  -3.359271e+01  -3.703652e+01
   1.192105e+01  -1.068710e+02
   3.015255e+01  -8.869867e+01
   9.522064e+01   5.063813e+01
   7.054792e+01   1.481069e+02
  -7.748968e+00   9.654520e+01
  -7.602352e+01   3.361540e+01
  -6.271691e+01  -8.145492e+01
  -6.302251e+01  -1.113952e+02
   4.010447e+00  -5.982656e+01
   7.497142e+01   2.434914e+01
   6.054046e+01   6.023871e+01
  -3.243846e+00   4.156170e+01
  -5.632400e+01   1.128433e+01
   4.737611e+01   4.499822e+00
   4.936960e+01  -4.134195e+00
  -2.535828e+00   1.126058e+01
  -9.808626e+01   3.600126e+01
  -6.040075e+01   1.121663e+01
  -1.154540e+02   8.354190e+00
  -6.124002e+00  -9.961686e+01
   1.962246e+01  -1.150920e+02
   6.572163e+01   2.322731e+01
   2.765423e+01   5.168256e+01
  -8.010706e+00   6.263722e+01
  -3.869360e+01  -4.043815e+01
  -3.331648e+00  -3.218669e+01
  -2.588694e+01  -2.274669e+01
   3.567173e+01   1.328139e+01
   5.130793e+01   5.728749e+00
   5.744448e+00  -4.494169e+01
  -1.491228e+01  -2.952197e+01
   3.036643e+01   2.090426e+00
  -5.168319e+00   3.409450e+01
  -1.604962e+01   7.718789e+01
  -2.438607e+01   6.344050e+00
  -4.023518e+01  -2.812403e+01
   8.303284e+00  -1.689737e+01
   7.766370e+01  -1.286247e-01
   7.392216e+01   5.389404e+01
   3.462678e+01   5.921348e+01
  -6.920059e+01   5.892449e+01
  -7.301481e+01  -3.607281e+01
  -9.827934e+01  -3.126180e+01
   1.306240e+01  -3.201418e+01
   3.118653e+01  -6.088142e+01
   2.079611e+01  -1.038236e+01
  -5.646890e+01  -2.772064e+01
  -4.575716e+01  -6.521676e+01
   7.869777e+01  -4.305528e+01
   7.460769e+01  -2.243192e+01
