
 $NMID
 id='ANONYMOUS ', fmtdat='(2E16.6)'
 volume=1.0
 tramp=1.0
 $END
   4.517477e+03   1.737886e+02
   2.461848e+03   2.924262e+03
  -7.914169e+02   3.118404e+03
  -2.256975e+03   8.575647e+02
  -1.176567e+03  -7.341175e+02
   7.310022e+02  -6.568127e+02
   9.978108e+02   4.067283e+02
   4.400242e+01   1.184812e+03
  -9.072715e+02   7.930179e+02
  -9.948916e+02  -1.899141e+02
  -4.232720e+02  -9.307574e+02
   2.015917e+02  -1.051483e+03
   7.295962e+02  -1.061951e+02
   4.030306e+02   8.023339e+02
  -3.210252e+02   8.300818e+02
  -6.619805e+02  -7.046740e+01
  -2.765330e+02  -7.394236e+02
   3.774188e+02  -6.281838e+02
   5.806589e+02  -1.325275e+02
   3.971346e+02   4.213952e+02
   7.705658e+01   4.646788e+02
  -3.356781e+02   2.929639e+02
  -2.183545e+02  -4.039401e+01
   1.053941e+02  -9.860818e+01
   3.558853e+02   1.012789e+02
   2.333257e+02   4.228364e+02
  -4.808495e+02   4.627074e+02
  -9.306260e+02  -1.190345e+02
  -4.799483e+02  -6.297647e+02
   4.697739e+02  -5.634251e+02
   8.808116e+02   4.223580e+00
   3.772775e+02   4.803436e+02
  -2.413657e+02   5.335042e+02
  -6.192301e+02   1.987081e+02
  -4.034047e+02  -2.433002e+02
  -1.153445e+02  -5.369217e+02
   2.656138e+02  -3.339480e+02
   2.276373e+02   3.026057e+02
  -1.197498e+02   4.829843e+02
  -5.299343e+02  -6.624719e+00
  -2.605004e+02  -8.082781e+02
   3.334894e+02  -8.155628e+02
   6.055619e+02   8.647160e+00
   3.227331e+02   5.134829e+02
  -3.065696e+02   3.054953e+02
  -4.519651e+02  -3.428267e+02
   4.977585e+01  -6.064562e+02
   5.985647e+02  -2.058096e+02
   6.876704e+02   3.631310e+02
   1.643753e+02   6.126248e+02
  -4.257654e+02   3.490712e+02
  -6.840052e+02  -6.888327e+01
  -3.954708e+02  -3.852724e+02
   1.898974e+02  -3.897359e+02
   4.504536e+02  -8.114138e+01
   2.292890e+02   2.571549e+02
  -1.224936e+02   1.310426e+02
  -2.089018e+02  -1.718333e+02
   1.456501e+02  -2.388396e+02
   4.003085e+02   8.456802e+01
   1.269834e+02   3.433819e+02
  -2.057568e+02   3.116696e+02
  -3.149294e+02   8.679285e+01
  -2.196757e+02  -9.578198e+01
   2.905982e+01  -2.156083e+02
   1.775298e+02  -2.977956e+02
   3.247877e+02  -2.132097e+02
   2.507306e+02   1.466803e+02
   6.673060e+01   4.591452e+02
  -1.148578e+02   3.752537e+02
  -1.508193e+02   9.587649e+01
  -1.784931e+01  -1.815075e+01
   1.967982e+00   9.219830e+01
  -2.137903e+02   1.383913e+02
  -3.199487e+02  -1.329916e+01
  -1.269275e+02  -2.773559e+02
   5.819992e+01  -3.157367e+02
   2.462093e+02   9.730851e+00
   2.216948e+02   2.491354e+02
   2.196582e+01   3.098137e+02
  -3.069753e+02   8.662447e+01
  -3.789851e+02  -1.594654e+02
  -1.968128e+02  -3.852230e+02
   9.838503e+01  -2.781539e+02
   2.722204e+02  -1.646991e+02
   1.876426e+02  -1.286107e-01
   1.023953e+02  -5.079881e+01
   2.548421e+02  -8.456613e+01
   4.097898e+02   4.584438e+01
   3.748998e+02   2.572065e+02
  -2.610888e+01   4.250795e+02
  -3.467285e+02   4.443021e+02
  -5.129507e+02   2.125067e+02
  -3.780736e+02  -7.370361e+01
  -4.305376e+01  -3.309354e+02
   1.617279e+02  -2.537932e+02
   1.010606e+02  -6.786878e+01
  -9.938550e+01   1.194274e+02
  -2.313152e+02  -1.845083e+00
  -1.545005e+01  -2.075009e+02
   1.480691e+02  -1.833480e+02
   2.449564e+02   4.560662e+01
  -3.209634e+01   2.204472e+02
  -2.219080e+02   1.574919e+01
  -2.250040e+02  -2.300039e+02
   1.689521e+01  -3.661377e+02
   2.033928e+02  -1.923238e+02
   3.467578e+02   8.160043e+01
   2.673140e+02   2.183980e+02
   1.114369e+02   2.473077e+02
  -6.936343e+01   1.716175e+02
  -1.644014e+02   4.049544e+01
  -8.118025e+01  -5.616384e+01
   7.442438e+01   2.695017e+01
   2.804885e+01   8.504194e+01
  -1.474244e+02   1.357683e+02
  -1.693565e+02   2.189957e+01
  -5.954580e+01  -7.254737e+01
   8.493463e+01   5.168254e+00
   5.176569e+01   8.237049e+01
  -9.331347e+01   7.309526e+01
  -3.053907e+02   1.296608e+01
  -2.614226e+02  -1.471945e+02
  -6.243962e+01  -2.445952e+02
   1.764750e+02  -2.969701e+02
   3.259234e+02  -7.716327e+01
   1.787454e+02   5.724523e+01
  -3.856564e+01   1.032375e+02
  -1.349939e+02   1.686989e+01
   3.231194e+01  -7.590308e+01
   1.924425e+02  -5.856002e+01
   2.087730e+02   9.908666e+01
   6.568586e+01   2.237561e+02
  -1.287002e+02   1.686965e+02
  -1.618673e+02   2.221757e+01
  -8.444474e+01  -3.117997e+01
   4.100433e+01  -3.172532e+01
   7.790478e+01   8.026917e+01
  -4.533644e+01   1.075026e+02
  -1.764497e+02   1.178128e+01
  -2.021025e+02  -8.843050e+01
   2.973664e+01  -2.381715e+02
   1.765436e+02  -1.852158e+02
   1.737910e+02  -4.479517e+01
   6.692412e+01   6.340407e+01
  -8.480634e+01   1.312215e+02
  -7.531886e+01   5.117187e+01
  -1.769428e+00  -3.550057e+01
   3.055331e+01   1.443432e+01
  -2.125724e+01  -1.362232e+01
  -8.641494e+01   1.855854e+01
  -4.595089e+01  -1.016868e+02
  -3.310050e+01  -1.331129e+02
   1.406757e+02  -1.733918e+02
   2.357957e+02   1.968616e+01
   2.040551e+02   1.288486e+02
   1.035743e+02   2.234395e+02
  -8.501567e+01   1.517564e+02
  -1.392652e+02   2.833032e+01
  -6.548692e+01  -5.733414e+01
  -3.113059e+01  -6.353357e+01
  -5.270982e+01   1.595212e+01
  -8.230317e+01   2.196754e+01
  -2.693096e+01  -6.303433e+01
   4.887177e+01  -9.738415e+01
   7.667204e+01  -7.327495e+01
   1.014964e+02   2.035344e+01
   1.505354e+00   1.077523e+02
  -1.187809e+02   6.567007e+01
  -1.564111e+02  -2.735644e+01
  -1.096466e+02  -1.991993e+02
   8.875639e+01  -2.688337e+02
   2.930560e+02  -1.025714e+02
   2.801571e+02   7.621139e+01
   1.574783e+02   1.596807e+02
  -4.232547e+01   1.449041e+02
  -9.161958e+01   7.023568e+01
  -5.298640e+01   5.564473e+01
  -7.363627e+01   8.869927e+01
  -1.149109e+02   9.325718e+01
  -1.312352e+02  -2.800282e+01
  -1.193655e+02  -1.463606e+02
  -1.523268e+01  -2.612371e+02
   8.424498e+01  -1.704680e+02
   2.011509e+02  -4.166039e+01
   1.438558e+02   8.750278e+01
   1.161258e+01   1.621117e+02
  -4.213148e+01   1.009466e+02
  -5.337238e+01  -1.470548e+01
  -3.117790e+01  -2.041203e+01
  -3.334905e+01  -1.581089e+01
  -6.389214e+01  -1.883274e+01
  -6.359856e+01  -1.707716e+01
  -4.244397e+01  -3.721714e+01
   5.004204e+01  -3.157606e+01
   1.595691e+02  -1.959834e+01
   1.246163e+02  -7.431906e+00
   5.155857e+00   9.610209e+01
  -1.228264e+02   7.676261e+01
  -1.480300e+02   2.333214e+01
  -3.045538e+01  -4.759691e+01
   4.754518e+01  -3.700986e+01
   6.962602e+01   5.366174e+01
  -3.152232e+01   8.469650e+01
  -7.279516e+01   5.364798e+01
  -7.657929e+01  -1.438567e+01
  -7.949643e+01  -5.270265e+01
   1.172969e+01  -4.933860e+01
  -9.236335e+01   3.455177e+01
  -1.035374e+02   9.729232e+00
  -4.582216e+01  -7.813173e+01
   8.542299e+01  -1.269198e+02
   9.937028e+01  -1.479234e+02
   1.857339e+02  -1.755581e+01
   1.569673e+02   5.940340e+01
  -7.795442e-01   1.315824e+02
  -8.058964e+01   2.234987e+01
  -4.452270e+01  -1.153351e+01
   6.824251e+01   3.345199e+01
   1.419133e+02   5.543223e+01
   7.978174e+01   1.582836e+02
  -6.756277e+01   1.345300e+02
  -2.067473e+02   2.447248e+01
  -1.938508e+02  -2.781612e+01
  -6.113785e+01  -8.169744e+01
   4.542332e+01  -3.562513e+01
   4.750173e+01   1.539846e+01
   1.841416e+00   1.106300e+01
  -9.818458e+01  -6.798832e+01
  -3.002087e+01  -1.041915e+02
   1.401134e+02  -1.763826e+02
   1.639820e+02  -6.749559e+01
   1.286532e+02   7.732491e+01
  -4.390768e+00   1.978508e+02
  -8.858234e+01   1.222801e+02
  -1.010265e+02  -3.109215e+01
  -6.886665e+01  -9.231322e+01
  -8.813303e+00  -1.396376e+02
   3.394820e+01   2.483946e+01
   6.100808e+01   1.964378e+01
   3.314658e+01   1.724772e+01
  -3.952652e+01  -1.298125e+01
   4.250782e+01   2.704736e+01
   2.918426e+01   9.281561e+01
   3.937707e+01   1.127926e+02
  -5.213184e+01   4.806438e+01
  -1.600370e+02  -5.100772e+01
  -1.393800e+02  -5.259104e+01
  -2.986295e+01  -3.926916e+01
   4.634983e+01   2.506101e+01
   8.775584e+01  -2.436377e+01
   4.963553e+01  -2.111492e+01
  -3.866799e+01   4.074570e+01
  -1.129400e+01   1.594333e+01
   3.487006e+01  -1.008550e+01
   1.945019e+00  -1.723709e+01
  -5.589496e+01  -2.333029e+01
  -7.838725e+01  -1.185341e+01
  -5.923534e+01  -5.434075e+01
   1.389267e+02  -1.230134e+02
   1.581416e+02  -7.739167e+01
   1.352230e+02   8.620935e+01
   5.575871e+01   2.042256e+02
  -1.040585e+02   1.351930e+02
  -9.589614e+01   6.098939e+01
  -5.575949e+01  -2.667662e+00
  -3.540359e+01  -3.734220e+01
   2.086060e+01  -7.482033e+00
  -2.957441e+01  -2.137791e+01
  -3.666209e+01  -7.870745e+01
  -5.416649e+00  -7.132754e+01
   1.900960e+01  -9.180393e+01
   6.652607e+01  -1.264280e+01
   9.402569e+01   4.986153e+01
  -2.500123e+01   1.080829e+02
  -8.862705e+01   1.369483e+00
  -9.824191e+01  -6.629215e+01
  -1.444512e+01  -1.290069e+02
   9.293739e+01  -4.792487e+01
   9.097684e+01   1.369889e+01
   3.237839e+01   2.910863e+01
  -3.436716e+01   4.799339e+01
  -3.122343e+01   5.433740e+00
   2.887703e+01   1.274152e+01
   7.514613e+01  -4.346908e+01
  -5.622479e+00   2.191249e+01
  -8.012858e+01   5.198333e+01
  -1.078817e+02   2.141516e+01
  -8.213858e+01  -2.494888e+00
  -1.671261e+01  -8.024616e+01
   5.463711e+01  -5.204979e+01
   6.000523e+01   2.793648e+01
   5.901920e+01   5.081737e+01
  -3.050337e+01   4.953849e+01
  -3.133753e+01   3.666091e+00
   6.368653e+00  -2.185098e+01
  -5.522540e+00  -2.044220e+01
   9.775209e+00  -5.636701e+00
   3.066027e+01  -2.037598e+01
   4.715249e+01   1.603336e+01
  -3.231168e+00  -1.310796e+01
  -1.962633e+00   5.526877e+01
  -5.591984e+01   3.299892e+01
   1.895362e-01   6.704217e+01
  -4.447899e+01  -3.811690e+00
  -6.900106e+01  -4.210713e+01
  -1.631529e+00  -5.350630e+01
   5.703676e+01   3.503105e+01
   3.740150e+01   2.688254e+01
   1.151870e+01   6.772769e+01
  -4.211769e+01   5.170593e+01
  -1.000965e+02  -4.217411e+01
  -5.071576e+01  -5.544847e+01
   4.205720e+01  -2.027398e+01
   6.252714e+01  -1.811288e+01
   3.153510e+01   1.819598e+01
  -6.362543e+01   1.468085e+01
  -2.799193e+01  -2.699160e+01
   3.004291e+01  -1.200728e+01
   1.087495e+02  -4.109509e+01
