
 $NMID
 id='ANONYMOUS ', fmtdat='(2E16.6)'
 volume=1.0
 tramp=1.0
 $END
  -4.500273e+03  -2.059734e+02
  -2.735492e+03  -3.197001e+03
   9.666883e+02  -3.115113e+03
   2.395213e+03  -9.180901e+02
   1.005750e+03   1.080296e+03
  -8.936723e+02   7.654146e+02
  -1.146310e+03  -4.347991e+02
  -4.572292e+01  -1.230121e+03
   1.022906e+03  -7.869136e+02
   9.844225e+02   2.144765e+02
   3.379203e+02   1.110912e+03
  -2.980273e+02   9.677332e+02
  -7.320092e+02   9.848448e+01
  -4.073589e+02  -8.316341e+02
   3.287776e+02  -7.946312e+02
   6.098151e+02   3.027630e+01
   1.932136e+02   7.872690e+02
  -3.923093e+02   6.901849e+02
  -7.045803e+02   5.017023e+01
  -3.873763e+02  -3.399386e+02
   1.704308e+01  -4.965885e+02
   2.661559e+02  -2.062023e+02
   2.377879e+02  -2.169309e+01
  -5.989267e+01   6.915699e+01
  -3.998792e+02  -2.532239e+01
  -3.021244e+02  -4.359425e+02
   3.884770e+02  -4.849766e+02
   9.099642e+02   6.983852e+01
   4.985353e+02   5.484201e+02
  -4.275964e+02   4.712704e+02
  -7.583682e+02  -5.020176e+01
  -3.953567e+02  -5.508358e+02
   2.712435e+02  -5.960604e+02
   6.121389e+02  -2.031093e+02
   4.544884e+02   1.992465e+02
   8.418272e+01   4.878420e+02
  -3.121121e+02   2.705419e+02
  -2.100008e+02  -3.030376e+02
   1.494780e+02  -5.158700e+02
   4.998573e+02  -2.039984e+01
   3.032466e+02   7.401586e+02
  -4.305926e+02   7.814847e+02
  -7.220035e+02   1.413708e+01
  -3.115833e+02  -6.027629e+02
   3.344596e+02  -3.530391e+02
   4.079004e+02   3.042863e+02
  -9.240749e+01   5.311790e+02
  -5.758952e+02   1.504997e+02
  -5.527181e+02  -4.116860e+02
  -2.039916e+02  -5.965955e+02
   4.504294e+02  -3.730253e+02
   6.511319e+02   7.989195e+01
   3.414483e+02   4.071081e+02
  -2.467179e+02   4.155977e+02
  -4.487905e+02   1.312654e+01
  -2.286008e+02  -2.920316e+02
   1.537689e+02  -1.597173e+02
   1.361281e+02   1.888840e+02
  -1.810896e+02   2.041003e+02
  -3.785756e+02  -8.724926e+01
  -8.435340e+01  -3.323123e+02
   2.216732e+02  -2.821015e+02
   3.525841e+02  -4.276491e+01
   1.482738e+02   7.162290e+01
  -6.480198e+01   1.693329e+02
  -2.196272e+02   3.105169e+02
  -2.702169e+02   1.963231e+02
  -2.792441e+02  -1.205287e+02
  -8.482175e+01  -4.623805e+02
   1.558507e+02  -4.297597e+02
   1.840734e+02  -1.288207e+02
   6.810678e+01   6.297137e+01
   6.620657e+01  -5.965694e+01
   2.298925e+02  -1.314927e+02
   2.729449e+02   4.816085e+01
   1.771464e+02   3.269314e+02
  -1.268137e+02   2.916203e+02
  -2.137018e+02   4.585464e+01
  -2.052273e+02  -2.535772e+02
   2.525092e+01  -2.721099e+02
   2.810569e+02  -1.320982e+02
   3.822756e+02   1.637549e+02
   1.842521e+02   3.173177e+02
  -1.037503e+02   3.077444e+02
  -2.499606e+02   1.347213e+02
  -1.667351e+02  -4.720179e+01
  -1.208815e+02  -1.328966e+01
  -2.422587e+02   9.869031e+01
  -4.009884e+02  -4.518572e+01
  -3.324234e+02  -3.119751e+02
   4.538587e+01  -4.502000e+02
   3.958816e+02  -4.001756e+02
   4.933242e+02  -1.221921e+02
   3.240066e+02   1.006521e+02
   7.063628e+01   3.132671e+02
  -1.380749e+02   2.065420e+02
  -7.753809e+01   1.237875e+01
   1.004153e+02  -1.098199e+02
   2.274341e+02   4.589237e+01
   5.258969e+01   1.821380e+02
  -1.918911e+02   1.914672e+02
  -1.553731e+02  -4.784612e+01
   7.036495e+01  -2.002373e+02
   1.851178e+02  -4.415364e+01
   1.864616e+02   2.197740e+02
  -7.405836e+01   3.759991e+02
  -2.149916e+02   1.967041e+02
  -3.374227e+02  -5.286839e+01
  -2.374383e+02  -2.260495e+02
  -1.160716e+02  -2.515529e+02
   1.127158e+02  -1.177019e+02
   2.155591e+02   5.442019e+00
   7.440643e+01   3.418524e+01
  -6.846462e+01  -3.708162e+01
  -6.357089e+01  -1.210853e+02
   1.466642e+02  -8.726771e+01
   2.385605e+02   5.599069e+01
   7.980747e+01   6.527289e+01
  -6.536988e+01   5.898286e+01
  -7.934422e+01  -6.264767e+01
   1.005233e+02  -7.456815e+01
   2.743058e+02   2.268458e+01
   2.427726e+02   1.382219e+02
   6.012695e+01   2.463103e+02
  -1.540638e+02   2.784363e+02
  -2.743436e+02   1.743459e+02
  -1.961007e+02  -6.006412e+01
   3.418259e+01  -1.075984e+02
   6.186780e+01   8.359630e+00
   5.238291e+00   1.067413e+02
  -2.042354e+02   7.726488e+01
  -1.791349e+02  -1.030499e+02
  -8.090190e+01  -2.066839e+02
   6.217162e+01  -1.493227e+02
   1.820693e+02  -7.459381e+01
   7.814662e+01   5.092297e+01
  -3.562663e+01   1.990125e+00
  -4.981881e+01  -6.411654e+01
   5.381359e+01  -1.076062e+02
   2.060757e+02  -3.210061e+01
   1.699370e+02   1.547011e+02
   2.041587e+01   1.899236e+02
  -1.677616e+02   1.886931e+02
  -1.860965e+02   6.132911e+01
  -4.236943e+01  -1.044742e+02
   6.998854e+01  -1.319380e+02
   8.492443e+01  -4.711693e+01
   1.842028e+01   1.531166e+01
  -5.489360e-01   2.099183e+01
  -2.372808e+00  -6.189743e+01
   9.066176e+01  -3.188654e+00
   6.862963e+01   6.129481e+01
  -1.767399e+00   1.239617e+02
  -9.023547e+01   1.028617e+02
  -2.201001e+02  -1.226090e+00
  -2.215192e+02  -1.824173e+02
  -3.637690e+01  -2.563373e+02
   1.124059e+02  -1.907493e+02
   1.472019e+02  -4.884242e+01
   7.748054e+01   1.049591e+02
   3.424326e+01   2.595180e+01
   9.229902e+01  -8.546140e+00
   7.478095e+01   7.437117e+00
   3.095490e+01   8.348643e+01
  -7.729879e+01   4.166166e+01
  -7.406721e+01   6.510228e+01
  -6.136188e+01  -3.523023e+01
   5.975317e+00  -1.563760e+02
   1.689787e+02  -4.659691e+01
   1.897763e+02   6.788393e+01
   9.580718e+01   2.050492e+02
  -8.802431e+01   2.013435e+02
  -3.003035e+02   1.099927e+02
  -2.986797e+02  -1.080125e+02
  -1.312744e+02  -1.923282e+02
   5.003478e+01  -1.883865e+02
   1.160368e+02  -8.117221e+01
   6.657538e+01  -8.142047e+01
   7.053577e+01  -9.112428e+01
   1.174166e+02  -7.582635e+01
   1.285357e+02   3.705094e+01
   1.390752e+02   1.852729e+02
   1.699973e+01   2.729406e+02
  -1.225457e+02   1.609460e+02
  -1.718255e+02   2.903335e+01
  -1.307597e+02  -1.308256e+02
  -4.887852e+01  -1.414250e+02
   7.395170e+01  -1.275002e+02
   6.699108e+01   1.217211e+01
  -9.758810e+00   3.606547e+01
   2.813334e+01   4.298354e+01
   3.159357e+01  -7.378747e+00
   5.810343e+01   3.883020e+00
   5.788026e+01   3.129013e+01
  -5.727942e+01  -2.691276e+00
  -1.369866e+02   1.573539e+01
  -1.030250e+02  -5.274284e+01
   2.441833e+01  -1.119174e+02
   1.199331e+02  -7.575587e+01
   1.375738e+02  -1.499362e+01
   4.696157e+01   4.791812e+00
  -8.800951e+01   4.153166e+01
  -8.106813e+01   2.059441e+00
   9.955785e+00  -6.856672e+01
   6.024818e+01  -8.380013e+01
   4.042821e+01  -1.421105e+01
   3.392131e+01   6.417337e+01
   5.566347e+01   1.633001e+01
   6.785710e+01  -2.619561e+01
   4.571683e+01   1.273008e+01
   4.653067e+01   7.838224e+01
  -5.682628e+01   1.479495e+02
  -1.690626e+02   1.499207e+02
  -1.660169e+02   1.059064e+00
  -1.541955e+02  -1.342779e+02
  -2.261754e+01  -1.207728e+02
   7.987998e+01  -6.060020e+01
   2.853301e+01   4.242654e+01
  -5.089682e+01   3.141698e+01
  -1.202840e+02  -6.442288e+01
  -5.995527e+01  -1.048606e+02
   7.310576e+01  -1.123151e+02
   2.049974e+02  -6.812028e+01
   1.765349e+02   3.053797e+01
   4.476252e+01   8.830014e+01
  -8.491183e+01   6.277498e+01
  -6.038307e+01   3.175093e+01
   4.885384e+01  -1.511286e+01
   9.311076e+01   4.381142e+01
   1.664735e+01   1.365686e+02
  -7.640995e+01   1.581494e+02
  -1.900728e+02   6.531775e+01
  -1.344902e+02  -1.299219e+02
  -2.163859e+01  -2.352607e+02
   8.524768e+01  -1.490541e+02
   6.986308e+01   2.485049e+01
   3.417177e+01   1.067767e+02
  -1.216327e+00   1.124416e+02
  -3.801901e+01   2.422020e+01
  -3.495258e+01  -2.111300e+01
  -1.489764e+01   5.723306e+00
  -1.449890e+00   7.961576e+00
   1.086811e+01  -1.433662e+01
  -4.215687e+01  -7.348158e+01
  -8.395640e+00  -1.270959e+02
   3.968024e+01  -2.679277e+01
   1.219735e+02   4.508619e+01
   1.150876e+02   1.132150e+02
   2.674145e+01   3.074488e+01
  -1.369828e+02  -1.142193e+01
  -9.147051e+01  -6.939118e+00
  -8.239106e+00   1.846641e+01
   7.073260e+01  -3.657257e+01
   5.063354e+01  -5.432181e+01
  -1.281012e+01   1.577443e+01
   1.791666e+01   1.486702e+01
   5.901223e+01   4.288071e+00
   1.047154e+02   1.140565e+01
  -1.429391e+01   1.070285e+02
  -1.252662e+02   8.685374e+01
  -1.909758e+02   1.613465e+01
  -1.073167e+02  -6.486040e+01
   4.292016e+00  -1.366601e+02
   7.867506e+01  -1.224730e+02
   1.143123e+02  -7.407575e+01
   7.654867e+01   1.413310e+01
   2.875019e+01   6.405066e+01
   6.261500e+00   1.292610e+00
   3.265111e+01  -1.590574e+01
   4.808873e+00   6.024346e+01
   4.915556e+01   7.235869e+01
  -2.211970e+01   5.102953e+01
  -9.901085e+01  -1.159029e+01
  -1.067485e+02  -1.071799e+02
  -9.825058e+00  -1.522381e+02
   1.093967e+02  -4.883101e+01
   1.402801e+02   8.772777e+01
   3.801399e+01   1.135133e+02
  -5.529603e+01   3.440386e+01
  -7.756977e+01   3.434065e+00
  -6.193293e+01  -1.656477e+01
   4.613993e+01  -4.166677e+00
   5.073454e+01  -2.009035e+01
  -1.025012e+01  -1.010123e+01
  -6.320941e+01   1.271509e+01
  -2.878729e+01  -4.907382e+01
   1.040891e+02  -7.416682e+01
   1.185806e+02  -6.888973e+01
   7.840460e+01  -1.872134e+01
  -1.665819e+01   7.566501e+01
  -2.521759e+01   6.731509e+01
  -4.741134e+01  -3.750863e+00
   1.013456e+01  -4.211983e+01
   2.660418e+01  -5.088840e+01
   8.033406e+00   5.652185e+01
   1.283396e+01   4.775840e+01
  -7.103952e+00   5.031600e+01
  -5.967187e+01  -2.727836e+01
  -4.906744e+01  -7.055791e+01
  -8.259053e-01   4.303038e+00
   2.034783e+01   5.568950e+01
   6.536543e+00  -2.417165e+00
  -4.414594e+00  -5.893186e+01
   1.028572e+01  -6.320868e+01
   3.886983e+01  -3.237034e+01
  -2.320231e+00   5.300301e+01
   5.446300e-01   5.377675e+01
  -7.145436e+01   1.707865e+01
  -5.553264e+01  -3.118917e+01
   1.712640e+01  -5.027659e+01
   5.712475e+01  -2.989204e+01
   5.417312e+01   7.025807e+00
   3.013045e+01   9.090287e+01
   6.520084e+00   3.092337e+01
  -8.378745e+01   3.849725e+01
   2.179994e+01   6.656199e+01
   1.932271e+01  -1.108097e+01
   4.760838e+01  -4.475165e+00
  -2.125914e+01   4.766385e+01
  -1.016072e+02   2.577649e+01
