
 $NMID
 id='ANONYMOUS ', fmtdat='(2E16.6)'
 volume=1.0
 tramp=1.0
 $END
  -4.411491e+03  -5.608292e+01
  -2.894150e+03  -3.100055e+03
   7.862236e+02  -3.192116e+03
   2.481967e+03  -1.012989e+03
   1.133079e+03   8.992414e+02
  -7.079739e+02   8.209064e+02
  -1.157523e+03  -4.867633e+02
  -8.812099e+01  -1.141217e+03
   9.080935e+02  -8.208011e+02
   1.019435e+03   1.272305e+02
   5.109738e+02   1.029681e+03
  -2.172407e+02   1.008368e+03
  -8.017425e+02   1.312278e+02
  -4.633308e+02  -8.663420e+02
   2.702672e+02  -8.162954e+02
   6.995174e+02   3.615813e+01
   2.886872e+02   7.798924e+02
  -3.793244e+02   7.228373e+02
  -6.323918e+02   1.034892e+02
  -3.754330e+02  -3.638029e+02
   2.219332e+01  -4.796890e+02
   2.998925e+02  -3.110981e+02
   3.130687e+02  -8.194069e+01
  -5.513177e+01   1.117134e+02
  -4.118927e+02  -5.219758e+01
  -2.588187e+02  -3.606416e+02
   4.209648e+02  -5.197452e+02
   9.209880e+02   6.120959e+01
   4.658732e+02   4.808615e+02
  -3.656333e+02   4.981892e+02
  -7.491712e+02  -1.404057e+01
  -4.105690e+02  -4.440876e+02
   2.450539e+02  -6.285900e+02
   6.049489e+02  -2.679313e+02
   4.702022e+02   2.483777e+02
   1.115348e+02   5.034302e+02
  -2.274584e+02   3.270076e+02
  -2.322590e+02  -2.429795e+02
   5.429783e+01  -4.573253e+02
   4.569748e+02  -8.993317e+01
   2.850539e+02   6.721712e+02
  -3.869439e+02   7.260676e+02
  -7.232355e+02   4.510424e+01
  -3.923099e+02  -5.751284e+02
   2.594472e+02  -4.094214e+02
   4.776064e+02   2.846984e+02
  -4.029518e+01   5.258562e+02
  -5.345031e+02   1.789956e+02
  -5.965683e+02  -3.577271e+02
  -1.974137e+02  -5.624912e+02
   3.816429e+02  -3.705132e+02
   6.308123e+02   5.090235e+01
   3.937792e+02   3.845443e+02
  -1.581952e+02   4.323231e+02
  -4.526191e+02   1.155939e+02
  -2.843740e+02  -2.332720e+02
   1.080095e+02  -1.800898e+02
   1.831575e+02   1.980817e+02
  -1.690624e+02   2.663853e+02
  -3.531909e+02  -5.520591e+01
  -1.588155e+02  -2.757427e+02
   1.971883e+02  -2.521917e+02
   3.900653e+02  -1.041199e+02
   1.827976e+02   9.996769e+01
  -6.242592e+01   2.356429e+02
  -2.077632e+02   3.425287e+02
  -3.120217e+02   2.262785e+02
  -2.963027e+02  -1.134418e+02
  -7.134776e+01  -5.145448e+02
   1.585919e+02  -4.240682e+02
   1.410221e+02  -9.367544e+01
   4.902141e+01   9.119703e+01
   8.151604e+00  -8.526757e+01
   1.929140e+02  -1.557177e+02
   3.205152e+02   3.619108e+00
   1.842750e+02   2.795229e+02
  -7.627053e+01   2.932225e+02
  -2.591693e+02   1.392884e+01
  -2.069566e+02  -2.223872e+02
  -1.016377e+01  -3.015793e+02
   2.438645e+02  -1.214859e+02
   3.951467e+02   1.540057e+02
   2.108517e+02   3.553533e+02
  -1.237510e+02   2.939480e+02
  -2.579349e+02   1.461519e+02
  -1.644372e+02  -3.800609e+01
  -1.186476e+02  -8.222179e+00
  -2.071277e+02   7.386859e+01
  -3.443166e+02  -7.137304e+01
  -3.423233e+02  -2.763770e+02
  -6.862518e+00  -4.548139e+02
   3.707152e+02  -4.058827e+02
   5.064065e+02  -2.047461e+02
   3.443789e+02   6.370062e+01
   8.826387e+01   3.117165e+02
  -1.410959e+02   2.639371e+02
  -1.004395e+02   1.526635e+01
   7.142919e+01  -9.099957e+01
   1.891365e+02  -8.738386e+00
   6.701198e+01   2.115771e+02
  -1.690589e+02   1.827599e+02
  -2.020027e+02  -5.212768e+01
   1.405743e+01  -2.225428e+02
   2.016617e+02  -5.273054e+01
   1.741287e+02   2.055136e+02
   1.118366e+00   3.707689e+02
  -2.305063e+02   2.210588e+02
  -3.244627e+02  -1.584668e+01
  -2.572424e+02  -2.590099e+02
  -1.178537e+02  -2.736880e+02
   7.787918e+01  -9.954148e+01
   1.951161e+02  -3.568591e+01
   2.881611e+01   2.826997e+01
  -8.465802e+01  -7.989056e+00
  -2.396925e+01  -1.110109e+02
   1.410883e+02  -8.830284e+01
   2.159322e+02   1.237633e+01
   4.851262e+01   6.336685e+01
  -6.496539e+01   2.811161e+01
  -6.690921e+01  -5.371554e+01
   1.133576e+02  -7.800763e+01
   2.671859e+02  -8.530377e+00
   2.346050e+02   1.342222e+02
   6.831143e+01   2.843373e+02
  -1.699061e+02   2.659433e+02
  -2.901431e+02   1.374985e+02
  -1.784976e+02  -7.251620e+01
   1.874559e+01  -1.526584e+02
   1.065913e+02  -7.197183e+01
  -2.763343e+01   9.977717e+01
  -2.113997e+02   4.740824e+01
  -2.384378e+02  -1.365921e+02
  -8.043319e+01  -1.993690e+02
   8.509067e+01  -1.821461e+02
   1.515143e+02  -4.645857e+01
   7.132189e+01   1.912727e+01
  -1.633189e+01   4.169860e+00
  -1.460162e+01  -1.159256e+02
   5.409487e+01  -1.356796e+02
   1.915387e+02  -3.978289e+01
   1.884744e+02   9.784778e+01
   5.894474e-01   1.834104e+02
  -1.519516e+02   1.757018e+02
  -1.886241e+02   2.288705e+01
  -6.798439e+01  -8.516756e+01
   6.137585e+01  -9.979428e+01
   7.394665e+01  -7.248972e+01
   5.443715e+00   3.101162e+01
  -1.158818e+01   2.708874e+01
   3.266921e+00   1.219900e+01
   7.768666e+01   1.764253e+01
   6.815632e+01   7.663490e+01
   2.008416e+01   1.438741e+02
  -1.518005e+02   1.583764e+02
  -2.032092e+02   3.108746e+01
  -2.055476e+02  -1.632104e+02
  -3.791906e+01  -1.999306e+02
   1.170571e+02  -1.275178e+02
   1.431928e+02  -3.827879e+01
   3.987006e+01   6.998564e+01
   2.706011e+01   4.590158e+01
   6.571566e+01  -2.349328e+01
   7.523703e+01  -1.216123e+01
   5.907894e+01   3.686860e+01
  -5.134885e+01   6.208507e+01
  -8.250883e+01   1.021779e+02
  -8.952794e+01  -3.527245e+01
   3.252121e+01  -1.359850e+02
   1.485678e+02  -9.651377e+01
   2.297470e+02   7.056472e+01
   7.439746e+01   2.107748e+02
  -7.385177e+01   2.297245e+02
  -2.728497e+02   9.913405e+01
  -2.805595e+02  -7.061846e+01
  -1.189199e+02  -1.540029e+02
   4.749731e+01  -1.415585e+02
   9.626326e+01  -1.092542e+02
   6.338714e+01  -8.873780e+01
   3.679252e+01  -4.868600e+01
   1.123367e+02  -1.029167e+02
   1.418405e+02   7.842472e+00
   1.241718e+02   1.453552e+02
   5.750648e+01   2.704701e+02
  -1.034475e+02   1.986397e+02
  -1.629388e+02   1.955137e+00
  -1.887139e+02  -1.195220e+02
  -3.391956e+00  -1.614828e+02
   9.221403e+01  -1.252756e+02
   6.717407e+01  -1.598487e-01
  -7.753270e+00   4.538701e+01
   1.671567e+01   2.070151e+01
   3.032005e+01   3.043373e+01
   7.632945e+01   2.363287e+00
   4.999801e+01   7.210765e+01
  -4.165255e+01   5.947149e+01
  -1.582837e+02  -3.213685e+01
  -1.582593e+02  -6.294057e+01
  -1.988960e+01  -6.506852e+01
   1.136961e+02  -7.619438e+01
   1.527725e+02  -5.612340e+01
   6.368945e+01   4.739588e+01
  -7.928804e+01   2.912336e+01
  -8.416059e+01  -4.572464e+01
   1.535151e+01  -9.792660e+01
   4.697541e+01  -5.927243e+01
   5.349080e+01   2.398711e+01
   1.540050e+01   6.809887e+01
   2.701863e+01   5.138235e+01
   5.973679e+01  -2.040916e+01
   5.681142e+01   1.898133e+01
   6.333315e+01   8.650633e+01
  -4.819804e+01   1.335828e+02
  -1.159736e+02   5.681327e+01
  -1.633135e+02   1.884184e+01
  -1.518668e+02  -1.086204e+02
  -1.822907e+01  -1.628983e+02
   7.674377e+01  -9.366504e+01
   5.723614e+01   2.246481e+01
  -5.943372e+01   2.210708e+01
  -1.571629e+02  -1.852341e+01
  -2.929230e+01  -1.232991e+02
   7.387109e+01  -1.652412e+02
   1.935783e+02  -7.754144e+01
   1.562231e+02   1.673730e+01
   2.185312e+01   9.762739e+01
  -5.259768e+01   6.864574e+01
  -5.071380e+01   1.678426e+01
   2.922396e+01  -6.421124e+01
   6.318893e+01   3.163213e+01
   6.216056e+01   1.382133e+02
  -1.132459e+02   1.406879e+02
  -1.702895e+02   5.366112e+01
  -1.255571e+02  -9.579921e+01
  -1.361839e+01  -2.015369e+02
   9.544865e+01  -1.585408e+02
   1.209725e+02   3.236839e+01
   2.951693e+01   8.993617e+01
  -5.351475e+00   1.033921e+02
  -3.838963e+01  -6.761686e+00
  -5.523120e+01  -3.583483e+01
  -1.004347e+01  -3.950054e+01
  -1.159041e+01  -7.504641e-01
  -3.146470e+01  -2.003446e+01
  -5.783319e+01  -8.816665e+01
  -5.998146e+01  -8.557208e+01
   3.332216e+01  -6.534310e+01
   1.296474e+02   2.504618e+01
   1.244120e+02   8.283426e+01
   1.143967e+01   9.102897e+00
  -1.146211e+02   3.000140e+01
  -8.766939e+01   1.047896e+01
   1.189545e+01  -6.701640e+00
   4.540485e+01  -3.910892e+01
   2.097443e+01  -3.286993e+00
  -2.820884e+01  -8.478914e+00
   2.437073e+01   1.328020e+01
   6.323611e+01  -4.061913e+00
   7.036680e+01  -8.372656e+00
   6.393932e+00   7.826842e+01
  -1.142858e+02   1.410321e+02
  -1.995769e+02   3.586518e+01
  -1.474679e+02  -7.112965e+01
  -2.473763e+01  -1.460016e+02
   1.132115e+02  -1.320575e+02
   1.107743e+02  -8.418979e+01
   7.051856e+01   2.333651e+01
  -7.572702e+00   1.508868e+01
   1.769171e+01   4.519765e+01
   8.333520e-01  -2.699232e+00
   5.622574e+01   2.278146e+01
   3.050239e+00   1.070575e+02
  -3.810848e+01   6.523219e+01
  -8.068010e+01  -5.724492e+00
  -8.866359e+01  -1.067932e+02
  -5.990517e+00  -8.580389e+01
   9.497437e+01   2.715604e+00
   1.340834e+02   6.175638e+01
   1.197819e+01   1.481218e+02
  -9.924089e+01   1.109310e+02
  -1.149068e+02   6.373131e+00
  -2.288283e+01  -2.187443e+01
   7.017320e+01  -5.979807e+01
   3.787884e+01   6.483754e+00
  -4.375722e+01  -1.799655e+01
  -7.854259e+01  -8.978794e+00
  -2.710437e+01   2.303309e+00
   6.515779e+01  -8.142343e+01
   1.122610e+02  -7.640981e+01
   4.509787e+01   2.844079e+01
  -2.023697e+01   8.485894e+01
  -6.064226e+01   7.999340e+01
  -6.490431e+01  -1.806932e+01
  -2.567292e+01  -8.229421e+01
   3.986111e+01  -5.852362e+01
   3.595188e+01   5.225545e+01
   3.555556e+01   4.670700e+01
  -2.312275e+01   5.227878e+01
   4.922293e+00  -1.382233e+01
  -4.572265e+01  -8.639513e+00
   7.327821e+00  -3.019650e+01
  -5.294439e+00   1.418609e+01
   5.206118e+00   1.947841e+01
   4.498700e+00  -3.177264e+01
  -3.934023e+00  -1.301642e+01
   3.696808e+01  -2.029097e+01
   3.625616e+01   7.232747e+01
  -2.665734e+01   8.363802e+01
  -9.090164e+01  -1.845463e+01
  -1.019138e+01  -3.132796e+01
  -5.630504e+00  -4.424680e+01
   8.213006e+01  -1.376508e+00
   7.656366e+01   2.372299e+01
   5.947108e+01   5.337773e+01
  -4.885740e+01   1.295697e+01
  -1.008333e+02  -1.551966e+00
  -4.950368e+01  -2.134775e+01
   7.861704e+00  -3.692021e+01
   1.163613e+01   1.575152e+01
  -1.684016e+01   5.989820e+01
  -5.171842e+01   2.160941e+01
