
 $NMID
 id='ANONYMOUS ', fmtdat='(2E16.6)'
 volume=1.0
 tramp=1.0
 $END
   4.506454e+03   4.746921e+01
   2.870945e+03   3.149348e+03
  -8.052514e+02   3.097355e+03
  -2.526928e+03   1.088514e+03
  -1.096187e+03  -1.011544e+03
   7.793117e+02  -8.111402e+02
   1.181907e+03   4.796683e+02
   8.292028e+01   1.203297e+03
  -8.918045e+02   7.982701e+02
  -1.035514e+03  -1.304555e+02
  -4.572113e+02  -1.070510e+03
   2.653228e+02  -1.006784e+03
   7.590409e+02  -1.346385e+02
   4.335580e+02   8.121009e+02
  -3.336832e+02   8.501321e+02
  -7.102714e+02  -4.503131e+00
  -2.556507e+02  -8.183776e+02
   4.605404e+02  -6.742859e+02
   6.472065e+02  -7.311832e+01
   3.322688e+02   4.006662e+02
   7.466469e+00   4.891136e+02
  -2.733634e+02   2.333959e+02
  -2.836233e+02   4.547793e+01
   5.342592e+01  -1.295668e+02
   4.138600e+02   4.654742e+01
   2.351853e+02   4.309626e+02
  -4.078906e+02   5.432233e+02
  -9.067583e+02  -1.270371e+01
  -4.577565e+02  -5.139601e+02
   4.137715e+02  -4.975504e+02
   8.184367e+02   3.560175e+01
   4.248360e+02   4.984290e+02
  -2.688299e+02   5.616211e+02
  -6.002033e+02   2.041916e+02
  -4.426823e+02  -1.850445e+02
  -1.348592e+02  -4.639444e+02
   3.145702e+02  -3.232264e+02
   2.163958e+02   2.417442e+02
  -8.944152e+01   5.481667e+02
  -5.218949e+02   7.204392e+01
  -3.138360e+02  -7.188735e+02
   3.910989e+02  -7.904734e+02
   7.184882e+02  -5.376074e+01
   3.890000e+02   6.368589e+02
  -2.409923e+02   4.058798e+02
  -4.490486e+02  -3.004558e+02
   6.210604e+01  -5.426122e+02
   5.270797e+02  -1.987054e+02
   5.508472e+02   3.752987e+02
   1.932100e+02   5.983638e+02
  -4.548693e+02   3.757373e+02
  -6.490135e+02  -3.649021e+01
  -3.623541e+02  -3.691055e+02
   2.145213e+02  -3.976705e+02
   4.430689e+02  -3.247323e+01
   2.735087e+02   2.922718e+02
  -7.763510e+01   1.724183e+02
  -1.895406e+02  -2.158017e+02
   1.308340e+02  -2.425615e+02
   3.802457e+02   8.504310e+01
   1.096826e+02   2.760609e+02
  -2.422965e+02   2.847893e+02
  -4.079808e+02   4.186144e+01
  -1.561177e+02  -1.418949e+02
   3.321159e+01  -1.801740e+02
   2.282610e+02  -2.856288e+02
   2.947956e+02  -2.438349e+02
   3.034920e+02   9.242649e+01
   8.735568e+01   4.799177e+02
  -1.618879e+02   4.272469e+02
  -1.815992e+02   1.095113e+02
  -4.486732e+01  -3.828943e+01
  -2.339750e+01   1.147301e+02
  -1.848979e+02   1.596724e+02
  -3.082751e+02  -5.687431e+01
  -1.548023e+02  -2.629958e+02
   6.778668e+01  -3.139577e+02
   2.647524e+02  -4.117341e+01
   1.646315e+02   2.440693e+02
   1.368538e+01   2.657498e+02
  -3.015665e+02   9.853723e+01
  -3.725621e+02  -1.457024e+02
  -1.706282e+02  -3.155045e+02
   1.649891e+02  -3.123036e+02
   2.352686e+02  -9.785915e+01
   1.722610e+02   4.155399e+01
   9.726698e+01  -3.490776e+01
   2.327296e+02  -5.006013e+01
   4.068889e+02   6.482396e+01
   3.278042e+02   3.289930e+02
  -2.521473e+01   4.733274e+02
  -3.242356e+02   3.991491e+02
  -4.845165e+02   1.969471e+02
  -2.978421e+02  -8.443462e+01
  -9.285405e+01  -2.878118e+02
   1.123913e+02  -2.238661e+02
   8.312222e+01  -8.217996e+01
  -7.150749e+01   7.701836e+01
  -2.031190e+02  -2.617262e+01
  -1.006596e+02  -2.154632e+02
   1.705428e+02  -2.048772e+02
   1.534707e+02   6.681042e+01
  -8.935757e+00   2.182548e+02
  -2.007253e+02   6.115711e+01
  -1.388578e+02  -2.627720e+02
   2.549807e+01  -3.476705e+02
   2.341726e+02  -1.826289e+02
   3.688498e+02   4.042233e+00
   2.634808e+02   2.666260e+02
   1.088850e+02   2.823150e+02
  -1.054094e+02   1.397890e+02
  -2.105228e+02   1.753868e+01
  -9.978782e+01  -5.927797e+01
   8.510355e+01   4.286612e+01
   3.498469e+01   1.003331e+02
  -1.099357e+02   9.210159e+01
  -2.131388e+02  -1.078492e+01
  -8.611884e+01  -7.844591e+01
   6.446658e+01  -1.761804e+01
   5.779802e+01   1.036636e+02
  -1.642797e+02   1.188581e+02
  -2.536611e+02   1.039268e+01
  -2.661836e+02  -1.484012e+02
  -8.769094e+01  -2.813675e+02
   1.937720e+02  -2.934006e+02
   3.405407e+02  -1.311383e+02
   1.487207e+02   2.557314e+01
  -1.053444e+01   1.323728e+02
  -9.051348e+01   1.498015e+01
   1.516781e+01  -1.234181e+02
   2.051728e+02  -4.978017e+01
   2.249930e+02   1.595037e+02
   1.026631e+02   2.138369e+02
  -7.495210e+01   1.705825e+02
  -1.282969e+02   1.972603e+01
  -4.515014e+01  -3.676997e+01
   2.717037e+01  -5.014268e+00
   4.987266e+01   8.934756e+01
  -4.395179e+01   1.346576e+02
  -1.613428e+02   5.376565e+01
  -1.883333e+02  -1.520416e+02
   1.114279e+01  -1.789270e+02
   1.560807e+02  -1.667256e+02
   1.713417e+02  -1.424938e+01
   8.374254e+01   1.189193e+02
  -7.890913e+01   1.103141e+02
  -6.237030e+01   1.822859e+01
  -3.998478e+00  -3.503958e+01
  -3.567369e+00  -3.496414e+01
  -6.862291e+00   1.164060e+01
  -6.671217e+01   4.614133e-03
  -9.326108e+01  -6.374783e+01
   7.946416e+00  -1.260180e+02
   1.041594e+02  -1.566825e+02
   1.921942e+02  -6.710620e+01
   1.956233e+02   1.759957e+02
   5.322219e+01   2.393641e+02
  -1.441921e+02   1.603118e+02
  -1.396694e+02   3.138162e+01
  -4.258747e+01  -9.592668e+01
  -3.462736e+01  -4.988868e+01
  -5.961131e+01   3.234802e+01
  -5.510128e+01  -5.590334e+00
  -2.977561e+01  -6.481506e+01
   5.310847e+01  -8.567554e+01
   1.139863e+02  -6.410832e+01
   9.326049e+01   1.303850e+01
  -7.012861e+00   1.054471e+02
  -1.842743e+02   8.008097e+01
  -2.008097e+02  -4.827535e+01
  -1.022569e+02  -1.597158e+02
   9.834217e+01  -2.283702e+02
   2.644098e+02  -6.884442e+01
   2.715906e+02   8.727118e+01
   1.144281e+02   1.893284e+02
  -4.510150e+01   1.453108e+02
  -8.510695e+01   1.036055e+02
  -6.565591e+01   5.738768e+01
  -9.772960e+01   8.604749e+01
  -9.901993e+01   1.185592e+02
  -1.169294e+02  -7.459226e+00
  -1.480626e+02  -1.910223e+02
  -4.980376e+01  -2.510935e+02
   6.681547e+01  -1.858534e+02
   1.991829e+02  -3.383304e+01
   1.528964e+02   1.289818e+02
   6.768485e+01   1.683346e+02
  -9.737240e+01   8.764037e+01
  -5.699056e+01   9.561818e+00
   2.243742e+01  -4.562496e+01
   2.227843e+01  -1.223810e+01
  -2.654341e+01  -3.275316e+01
  -5.700715e+01  -1.968723e+01
  -1.846456e+01  -9.014525e+01
   8.745419e+01  -5.048582e+01
   1.615331e+02  -5.956108e-01
   1.200935e+02   2.910054e+01
  -1.152364e+01   1.250459e+02
  -1.144473e+02   5.286962e+01
  -1.489376e+02   2.621897e+01
  -7.278325e+01  -3.417107e+01
   3.760468e+01  -4.119489e+01
   1.035070e+02  -1.089891e+00
   2.917238e+00   9.037267e+01
  -5.498598e+01   2.802099e+01
  -7.301824e+01   7.882102e+00
  -3.740815e+01  -3.243602e+01
  -3.029293e+01  -4.876981e+01
  -6.131019e+01   9.563384e+00
  -9.441112e+01   1.349142e+01
  -3.425251e-01  -3.663419e+01
   5.739338e+01  -1.447729e+02
   7.493821e+01  -1.172079e+02
   1.543960e+02   9.648053e-01
   1.533269e+02   9.736548e+01
   1.521329e+01   1.139738e+02
  -1.073524e+02   5.110189e+01
  -5.823240e+01  -4.245643e+01
   4.997139e+01  -1.375245e+01
   1.052574e+02   3.764946e+01
   9.035967e+01   1.123392e+02
  -6.141514e+01   1.126086e+02
  -2.242756e+02   5.566476e+01
  -1.656385e+02   1.894491e+00
  -9.888007e+00  -7.507227e+01
   6.787211e+01  -4.519062e+01
   4.766576e+01  -5.824771e+00
  -4.024880e+01   3.722508e+01
  -9.032153e+01  -2.829932e+01
  -1.979828e+01  -1.328532e+02
   1.306039e+02  -1.164875e+02
   1.816341e+02  -6.182602e+01
   1.158041e+02   1.324075e+02
  -1.024223e+01   2.015759e+02
  -1.330821e+02   1.419956e+02
  -1.115177e+02   1.022145e+01
  -1.464166e+01  -1.415259e+02
  -3.234398e+01  -1.117355e+02
   3.313536e+01  -1.818068e+01
   6.663702e+01   3.721112e+01
   1.724191e+01   2.728286e+00
   5.278868e+01  -7.351363e+01
   3.783627e+01   1.662382e+00
   2.834204e+01   6.697014e+01
   4.803809e+01   7.686306e+01
  -9.358547e+01   1.662802e+01
  -1.569123e+02  -3.598567e+01
  -8.272469e+01  -7.607399e+01
  -3.245263e+01  -5.127188e+01
   1.190062e+02   2.735481e+00
   1.078238e+02  -2.567673e+01
  -7.310110e+00   3.058901e+01
  -3.445458e+01   2.869938e+00
  -1.080619e+01  -7.794254e+00
   1.734779e+01   7.756969e+00
   2.238625e+01  -1.135999e+01
  -2.904543e+01  -4.669336e+01
  -9.471354e+01  -1.818202e+01
   1.002395e+01  -8.582319e+01
   1.339290e+02  -9.657245e+01
   1.957209e+02  -2.649890e+01
   1.534364e+02   8.239757e+01
   3.346949e+01   1.928707e+02
  -8.383139e+01   1.483301e+02
  -1.412472e+02   8.257884e+01
  -8.935215e+01  -4.583658e+00
  -2.111871e+01  -2.395415e+01
  -3.816523e+01   7.496773e+00
   5.067461e-01   2.057801e+01
  -4.337950e+01  -4.682230e+01
  -5.923341e+01  -1.496291e+02
   5.179725e+01  -5.624510e+01
   6.140033e+01   2.093407e+01
   9.504893e+01   1.276528e+02
   4.060286e+00   1.014057e+02
  -1.184384e+02  -6.874015e+00
  -1.401118e+02  -5.407634e+01
  -2.960092e+01  -1.152796e+02
   9.215211e+01  -6.188891e+01
   8.339285e+01  -3.558319e+01
   6.240081e-01   5.960785e+01
  -6.383650e+01   2.821906e+01
  -2.672369e+01   5.791629e+01
   2.036214e+01  -7.247975e+00
   9.175517e+01   1.595288e+01
   1.291432e+01   5.538057e+01
  -5.924616e+01   7.797030e+01
  -1.137950e+02   5.359680e+01
  -7.249134e+01  -5.431658e+00
   2.239070e+01  -8.299340e+01
   5.201914e+01  -7.586776e+01
   6.017356e+01  -1.877130e+01
  -2.556057e+00   1.013532e+02
  -3.929879e+01   4.613303e+01
  -4.768943e+01  -4.647233e+01
  -4.212750e+01  -3.941813e+01
   1.867516e+01  -3.161838e+01
   3.698739e+01   1.950987e+01
   7.933646e+01   3.239926e+01
  -3.364846e+00  -8.723646e-01
  -1.203068e+01  -2.827815e+01
   2.584214e+01   1.627223e+01
  -2.215144e+01   2.309107e+00
  -3.196961e+01   4.367942e+01
  -3.711753e+01   2.263456e+00
  -2.534409e+01  -7.174577e+01
   2.351158e+01  -6.150084e+01
   4.605161e+01  -3.034059e+01
   2.550528e+01   2.212931e+01
   3.206445e+01   7.062566e+01
  -4.452286e+01   3.488166e+01
  -8.525202e+01  -1.182344e+01
  -4.896050e+01  -5.865554e+01
   2.313444e+01  -5.522077e+01
   5.841858e+01  -3.167049e+01
   2.197186e+01   6.507921e+00
  -3.241042e+01  -6.169122e+00
  -4.487991e+01  -2.514900e+01
   4.129186e+01  -2.246108e+01
   1.035033e+02  -3.217572e+01
