
 $NMID
 id='ANONYMOUS ', fmtdat='(2E16.6)'
 volume=1.0
 tramp=1.0
 $END
  -4.659715e+03  -1.323078e+02
  -2.695051e+03  -2.679700e+03
   8.504549e+02  -3.154468e+03
   2.607745e+03  -1.033911e+03
   1.178552e+03   9.178696e+02
  -7.507879e+02   8.920391e+02
  -1.159628e+03  -3.673073e+02
  -1.963882e+01  -1.201934e+03
   8.016674e+02  -7.071752e+02
   9.793925e+02   1.519720e+02
   5.146941e+02   1.015593e+03
  -2.741919e+02   1.080255e+03
  -6.122801e+02   8.038580e+01
  -4.446688e+02  -8.095676e+02
   2.161057e+02  -8.188203e+02
   6.556610e+02   4.071317e+01
   2.812556e+02   8.131802e+02
  -3.965870e+02   7.182202e+02
  -7.029492e+02   1.144447e+02
  -3.536582e+02  -4.250903e+02
  -3.170530e+01  -4.998259e+02
   2.857212e+02  -2.320865e+02
   2.224222e+02  -3.589181e+01
  -7.562236e+01   7.599271e+01
  -4.327792e+02  -2.911664e+01
  -2.388603e+02  -4.152600e+02
   4.232078e+02  -5.150903e+02
   8.743585e+02   7.632776e+01
   5.087313e+02   5.962753e+02
  -3.446379e+02   5.181562e+02
  -7.794259e+02  -2.166826e+01
  -4.226914e+02  -4.771336e+02
   2.400119e+02  -6.075936e+02
   6.579008e+02  -2.503610e+02
   4.854488e+02   2.160102e+02
   6.565809e+01   5.422583e+02
  -2.693359e+02   3.620197e+02
  -2.156915e+02  -2.220325e+02
   8.656252e+01  -5.107024e+02
   4.411018e+02  -6.291088e+01
   3.217279e+02   7.144587e+02
  -3.956375e+02   8.243442e+02
  -6.897538e+02   1.007883e+02
  -3.530446e+02  -5.880979e+02
   2.336772e+02  -3.648443e+02
   3.871613e+02   2.623132e+02
  -1.409492e+01   5.895201e+02
  -5.878367e+02   2.037503e+02
  -5.931512e+02  -3.886900e+02
  -2.201579e+02  -6.073055e+02
   4.172681e+02  -3.356353e+02
   6.721940e+02   4.505418e+00
   4.067390e+02   4.083043e+02
  -2.195336e+02   4.789684e+02
  -4.701996e+02   1.140512e+02
  -2.964329e+02  -2.545301e+02
   9.834467e+01  -1.657216e+02
   1.771868e+02   1.625363e+02
  -1.734714e+02   2.247817e+02
  -3.807722e+02  -6.628003e+01
  -1.422737e+02  -3.666014e+02
   2.536282e+02  -3.025775e+02
   3.495607e+02  -6.134403e+01
   1.724942e+02   1.308582e+02
  -1.028065e+02   1.537929e+02
  -2.089779e+02   3.368785e+02
  -3.164219e+02   2.030792e+02
  -2.813697e+02  -1.523661e+02
  -1.154793e+02  -4.734655e+02
   1.294640e+02  -4.348537e+02
   1.358550e+02  -1.076659e+02
   2.707693e+01   7.788736e+01
   4.830138e+01  -4.525810e+01
   2.109529e+02  -1.385284e+02
   2.607276e+02   1.259355e+01
   2.265073e+02   2.418897e+02
  -7.392886e+01   3.073113e+02
  -2.303491e+02   4.949198e+01
  -2.208722e+02  -2.446373e+02
  -6.698376e+00  -3.000188e+02
   2.675907e+02  -9.889691e+01
   4.157926e+02   2.011774e+02
   1.997034e+02   3.438088e+02
  -1.037413e+02   3.157560e+02
  -2.912867e+02   1.497341e+02
  -1.894973e+02  -3.247263e+01
  -7.490833e+01   5.419704e+00
  -2.478712e+02   8.353762e+01
  -3.943954e+02  -5.572659e+01
  -3.163861e+02  -2.753234e+02
  -1.156594e+01  -4.244704e+02
   3.706938e+02  -4.161583e+02
   5.177659e+02  -1.465202e+02
   3.003018e+02   5.805124e+01
   6.345401e+01   3.130114e+02
  -1.251251e+02   2.707800e+02
  -1.055440e+02   4.699633e+01
   1.020801e+02  -1.424627e+02
   1.915820e+02  -8.712671e+00
   6.772353e+01   1.927042e+02
  -1.626842e+02   2.125948e+02
  -1.795338e+02  -5.669216e+01
  -8.165273e+00  -1.583332e+02
   1.821682e+02  -3.515517e+01
   1.563166e+02   2.710873e+02
  -4.714442e+01   3.154620e+02
  -2.225697e+02   1.933026e+02
  -3.027911e+02  -2.789157e+01
  -2.498038e+02  -2.491854e+02
  -1.273236e+02  -2.665566e+02
   8.958065e+01  -1.924160e+02
   1.978165e+02  -2.863831e+00
   7.596703e+01   2.276261e+01
  -5.316290e+01  -3.540118e+01
  -5.232290e+01  -1.471293e+02
   7.053746e+01  -1.250033e+02
   1.928903e+02   4.283254e+01
   5.907505e+01   6.641547e+01
  -7.039119e+01   6.315067e+00
  -6.059568e+01  -6.746529e+01
   1.421197e+02  -9.132186e+01
   2.688670e+02   3.619880e+01
   2.458757e+02   1.374604e+02
   6.771580e+01   2.038883e+02
  -1.489122e+02   3.159959e+02
  -2.826179e+02   1.312205e+02
  -1.225798e+02  -8.914930e+01
   2.096220e+01  -1.009582e+02
   7.982399e+01  -4.592906e+00
  -1.637574e+01   9.236554e+01
  -1.536927e+02  -5.385083e+00
  -2.081346e+02  -1.021834e+02
  -8.825476e+01  -2.086818e+02
   9.995775e+01  -1.677919e+02
   1.606534e+02  -4.568980e+01
   7.552244e+01   2.626241e+01
   1.880186e+01   3.534662e+01
  -3.919978e+01  -2.583605e+01
   6.685197e+01  -9.149832e+01
   1.843261e+02  -4.277873e+01
   2.134487e+02   9.000512e+01
   5.922469e+01   2.072378e+02
  -1.282435e+02   1.427939e+02
  -1.992234e+02  -7.184699e+00
  -1.055397e+02  -1.455063e+02
   5.654505e+01  -1.149601e+02
   8.881480e+01  -6.427105e+01
   1.451675e+01   3.170387e+01
  -9.135210e+00  -4.610060e+00
   1.604343e+01   6.669649e+00
   7.369950e+01   2.154109e+01
   4.525286e+01   7.940642e+01
   3.139556e+01   1.535391e+02
  -1.084034e+02   1.365849e+02
  -2.252386e+02   4.770641e+01
  -1.978681e+02  -1.198248e+02
  -9.986470e+01  -2.766079e+02
   1.277172e+02  -1.057724e+02
   1.138877e+02  -2.985448e+01
   4.816595e+01   9.001910e+01
   5.672732e+00   4.305447e+01
   1.371250e+01   2.003131e+01
   9.521050e+01   6.561769e+00
   2.415896e+01   6.299735e+01
  -5.383282e+01   6.796538e+01
  -7.112422e+01   3.141440e+01
  -6.844197e+01  -3.482294e+01
  -5.747130e+00  -1.008377e+02
   1.317042e+02  -7.618281e+01
   1.900523e+02   4.617280e+01
   1.363888e+02   2.013370e+02
  -7.646950e+01   2.039613e+02
  -3.149581e+02   9.301297e+01
  -2.445387e+02  -1.027070e+02
  -9.604851e+01  -1.739955e+02
   6.295087e+01  -1.873071e+02
   1.321288e+02  -8.593412e+01
   8.948473e+01  -3.610570e+01
   4.988456e+01  -8.577107e+01
   1.001089e+02  -5.070515e+01
   1.556043e+02   3.555356e+01
   1.374678e+02   1.566907e+02
  -1.920502e+01   2.017708e+02
  -8.223091e+01   1.467572e+02
  -1.616448e+02  -3.445218e+00
  -1.352880e+02  -1.171173e+02
   5.373573e+00  -9.169707e+01
   5.203236e+01  -1.018107e+02
   8.155008e+01   2.957408e+01
   3.994540e+01   1.993430e+01
   1.373542e+01   3.816648e+01
   3.780054e+01   6.072587e+01
   9.529703e+01   6.534987e+00
   7.531372e+01   6.929661e+01
  -6.185477e+01   1.644083e+01
  -1.376520e+02  -5.463203e+00
  -1.614495e+02  -6.994947e+01
  -3.653280e+01  -6.975063e+01
   1.207939e+02  -7.644144e+01
   1.606827e+02  -6.030156e+01
   5.929223e+01   5.496579e+01
  -5.612605e+01   6.413877e+00
  -8.031426e+01  -5.989248e+01
   1.224011e+01  -8.351226e+01
   6.138100e+01  -4.357801e+01
   7.523275e+01  -8.078562e+00
   6.043594e+01   8.059791e+01
   5.100397e+01   5.405346e+01
   8.973546e+01  -3.096055e-01
   6.633114e+01   3.507745e+01
   2.066937e+01   4.765010e+01
  -2.666109e+01   1.318885e+02
  -1.061849e+02   1.643581e+02
  -1.578126e+02   1.828031e+01
  -1.470258e+02  -8.855143e+01
   1.021646e+01  -1.118244e+02
   1.224608e+02  -4.650080e+01
   8.328139e+01   4.930860e+01
  -6.759312e+01   1.609509e+01
  -1.357498e+02  -4.684814e+01
  -9.495784e+01  -1.150608e+02
   8.513845e+01  -8.740284e+01
   2.206350e+02  -5.934393e+01
   1.835067e+02   3.247482e+01
   5.986431e+01   9.184568e+01
  -2.793894e+01   1.060607e+02
  -6.462161e+01  -2.069264e+01
   3.564655e+01  -1.351506e+01
   9.058197e+01   5.787421e+00
   2.030906e+01   1.154895e+02
  -9.638307e+01   1.669152e+02
  -1.952508e+02   8.371015e+01
  -1.439490e+02  -1.425605e+02
   1.726719e-01  -1.736954e+02
   1.176451e+02  -1.541595e+02
   8.979767e+01   4.425676e+01
   2.546275e+01   1.431211e+02
   2.225374e+01   1.438678e+02
  -5.245916e+01   2.516769e+01
  -6.499603e+01   6.155786e+00
  -2.124178e+01  -7.803357e+00
   1.634671e+01  -2.273380e+00
  -2.424162e+01  -5.011544e+00
  -4.433610e+01  -5.721927e+01
  -2.344129e+01  -1.351600e+02
   4.081801e+01  -3.162668e+01
   1.479188e+02   5.444885e+01
   1.211155e+02   4.810284e+01
   8.402039e+00   3.116241e+01
  -6.695115e+01   2.793658e+01
  -8.432055e+01  -1.051479e+01
  -2.706426e+01   1.988362e+01
   3.773779e+01  -1.848541e+01
   4.976844e+01  -2.670271e+01
  -2.122667e+01   1.808331e+01
   3.805391e+01   1.215915e+01
   5.976202e+01   2.220196e-01
   6.375689e+01   4.545622e+01
   1.104432e+01   5.808468e+01
  -8.846153e+01   1.270406e+02
  -1.861983e+02   7.493460e+01
  -1.728295e+02  -4.104491e+01
  -3.472601e+01  -1.781109e+02
   7.568710e+01  -8.476297e+01
   1.273966e+02  -5.571383e+01
   6.542541e+01  -7.567525e+00
  -9.747467e-01   4.024772e+01
  -2.077044e+01   5.481923e+00
   2.835285e+01   1.009544e+01
   3.140907e+01   7.642349e+01
   2.626593e+01   9.663467e+01
  -5.531449e+01   5.071700e+01
  -8.066744e+01   1.774226e+01
  -6.633772e+01  -1.292871e+02
  -1.580916e+01  -1.271893e+02
   9.364717e+01  -2.185277e+01
   1.263373e+02   4.690141e+01
   3.435107e+01   8.179512e+01
  -5.930961e+01   3.965495e+01
  -8.854233e+01  -2.132784e+01
  -2.089281e+01  -3.465481e+01
   3.904071e+01  -5.019628e+01
  -2.222998e+01  -3.632700e+01
  -1.149992e+01  -6.489415e+00
  -6.011484e+01  -5.566435e-02
   8.906817e+00  -2.078342e+01
   8.584677e+01  -6.181548e+01
   8.796098e+01  -7.288732e+01
   3.444938e+01   3.324033e+01
   7.332053e-01   1.130651e+02
  -5.706529e+01   8.432098e+01
  -4.984248e+01  -3.696235e+01
   3.271819e+01  -7.472680e+01
   5.632569e+01  -2.840200e+01
   3.641549e+01   1.810520e+01
   1.597169e+01   6.637445e+01
  -3.305741e+01   6.003493e+01
  -3.585380e+01  -1.675373e+01
  -3.577651e+01   1.301400e+01
  -5.985609e+01   5.112985e+00
   2.777618e+01   1.271491e+01
   3.897504e+01   1.201773e+01
   3.717409e+01  -2.641869e+01
   2.911663e+01  -4.875020e+01
   9.610450e+00  -1.767469e+01
   2.573574e+01   8.664924e+01
  -1.645212e+01   8.252816e+01
  -5.797926e+01   3.790880e+01
  -3.959844e+01  -6.723814e+01
   8.934901e-01  -8.084343e+01
   6.922732e+01  -5.307888e+01
   1.109369e+02  -8.809801e+00
   5.255426e+01   4.655990e+01
  -4.862447e+01   4.739223e+01
  -5.289098e+01   2.189838e+01
  -4.860465e+01  -2.117278e+01
   7.970927e+01   2.984245e+01
   1.526349e+01   8.105889e+00
  -6.158961e+01   5.688423e+01
  -9.227065e+01   3.844746e+01
