
 $NMID
 id='ANONYMOUS ', fmtdat='(2E16.6)'
 volume=1.0
 tramp=1.0
 $END
   3.714494e+03  -5.497854e+02
   2.404239e+03   1.798454e+03
  -2.971435e+01   2.462677e+03
  -1.517487e+03   1.418039e+03
  -1.032494e+03  -2.847814e+01
   1.125503e+02  -5.138665e+02
   7.063184e+02   1.067560e+02
   1.173900e+02   6.903134e+02
  -5.660830e+02   7.758554e+02
  -7.336149e+02   1.139823e+02
  -5.883061e+02  -5.815330e+02
   4.389965e+01  -7.963211e+02
   3.956316e+02  -1.529279e+02
   3.179003e+02   4.282762e+02
  -1.132358e+02   7.127987e+02
  -4.207006e+02   1.421223e+02
  -3.508157e+02  -5.147454e+02
   1.748695e+02  -6.894777e+02
   5.359509e+02  -2.594437e+02
   4.414297e+02   2.013017e+02
   1.305824e+02   4.441468e+02
  -1.631770e+02   2.879972e+02
  -1.307741e+02   1.067121e+02
   8.395490e+01   7.453824e+00
   2.675894e+02   1.816906e+02
   9.541156e+01   3.691507e+02
  -4.299439e+02   2.628047e+02
  -7.157708e+02  -9.225610e+01
  -3.557182e+02  -3.275250e+02
   3.438830e+02  -2.604168e+02
   5.636178e+02   8.317484e+01
   2.865209e+02   3.748319e+02
  -2.296788e+02   4.226589e+02
  -5.014825e+02   2.272408e+02
  -4.324172e+02  -1.390687e+02
  -1.268247e+02  -3.772001e+02
   9.041639e+01  -2.347158e+02
   4.256700e+01   8.310655e+01
  -1.174578e+02   2.695555e+02
  -2.816875e+02  -3.866846e+01
  -1.245218e+02  -5.553960e+02
   2.144682e+02  -5.092768e+02
   4.747034e+02  -1.128322e+02
   1.795377e+02   4.396745e+02
  -1.498423e+02   2.655749e+02
  -2.627867e+02  -2.436468e+02
   1.007755e+02  -4.316072e+02
   4.255776e+02  -3.138665e+01
   5.601634e+02   3.806246e+02
   1.826029e+02   5.096035e+02
  -2.798009e+02   3.970510e+02
  -5.498280e+02  -3.780339e+01
  -4.112419e+02  -2.530663e+02
   4.092015e+01  -3.103225e+02
   3.613303e+02  -4.925851e+01
   2.137012e+02   9.662401e+01
  -7.396009e+01   8.107899e+01
  -8.400455e+01  -9.427980e+01
   7.955573e+01  -1.246757e+02
   2.989501e+02   4.659576e+01
   1.238357e+02   2.103168e+02
  -1.731110e+02   2.651598e+02
  -3.310000e+02   9.249523e+01
  -2.436657e+02  -1.069905e+02
   4.671171e+01  -3.237870e+02
   2.796097e+02  -3.708790e+02
   3.315168e+02  -1.515251e+02
   2.595373e+02   1.026181e+02
   8.805532e+01   3.698666e+02
  -3.450010e+01   3.906213e+02
  -2.071669e+01   1.706524e+02
  -1.614795e+01   3.134075e+01
  -9.527836e+01   1.023849e+02
  -2.165453e+02   1.163577e+02
  -2.182403e+02  -8.522465e+01
  -1.224550e+02  -2.865523e+02
   7.032229e+01  -2.034843e+02
   1.910052e+02   2.975224e+01
   1.354649e+02   2.438290e+02
  -5.181995e+00   2.727393e+02
  -2.267989e+02   1.023603e+02
  -3.129771e+02  -1.818431e+02
  -2.164004e+02  -3.174874e+02
   2.735246e+01  -3.358170e+02
   2.053023e+02  -1.400848e+02
   1.583915e+02  -5.477198e+01
   1.587317e+02  -2.106986e+01
   2.588250e+02  -4.277249e+01
   4.784578e+02   6.816696e+01
   3.167268e+02   2.990195e+02
   5.298354e+00   4.414570e+02
  -3.470145e+02   4.149950e+02
  -4.534253e+02   2.443326e+02
  -2.779076e+02  -9.280326e+01
  -6.882340e+01  -2.336283e+02
   7.576789e+01  -2.489106e+02
   1.775093e+01  -3.872989e+01
  -8.796636e+01   4.342023e+01
  -1.299919e+02  -5.509510e+00
  -3.901648e+01  -1.285016e+02
   1.151914e+02  -1.773373e+02
   1.574519e+02   5.123470e+01
   1.460149e+01   1.637786e+02
  -1.881598e+02   6.236055e+01
  -1.407979e+02  -2.284050e+02
   2.860967e+01  -3.152318e+02
   2.526517e+02  -2.005335e+02
   3.588325e+02   7.323420e+01
   2.921277e+02   2.262753e+02
   1.116733e+02   2.642716e+02
  -1.033221e+02   1.382506e+02
  -1.660214e+02   2.149923e+01
  -4.878976e+01  -2.855321e+01
   9.751992e+01   9.810729e+01
   1.077671e+00   9.025916e+01
  -1.451034e+02   6.722722e+01
  -1.381056e+02  -1.144219e+01
  -3.902036e+01  -7.643671e+01
   1.014494e+02   2.160184e+01
   1.266945e+01   8.605464e+01
  -1.388479e+02   9.335096e+01
  -3.318962e+02  -3.363494e+01
  -2.417880e+02  -1.367372e+02
  -3.672085e+01  -2.685826e+02
   1.869008e+02  -2.125964e+02
   2.356275e+02  -1.400762e+02
   1.657736e+02   6.060331e+01
  -4.130259e+01   7.541553e+01
  -5.391346e+01  -9.959909e-01
   7.397008e+01  -8.520913e+01
   1.961816e+02  -4.089635e+01
   1.940668e+02   7.186780e+01
   7.726986e+01   1.518795e+02
  -6.125891e+01   1.880167e+02
  -1.593928e+02   3.634546e+00
  -5.684779e+01  -3.267583e+01
   4.689362e+01   2.824067e+01
   6.466694e+01   8.781939e+01
  -8.693118e+01   1.312464e+02
  -2.314551e+02   3.232255e+01
  -1.994396e+02  -1.132672e+02
  -9.050584e+00  -2.608679e+02
   1.813016e+02  -1.287052e+02
   1.604870e+02  -4.024314e+01
   5.715560e+01   6.462873e+01
  -6.123185e+01   1.132168e+02
  -1.279164e+02   1.377994e+01
  -6.332153e-01  -2.679490e+01
   1.352415e+01  -2.076789e+01
  -8.456641e+00   4.584232e+01
  -1.195157e+02   2.368082e+01
  -1.237309e+02  -1.092478e+02
  -8.360480e+00  -1.945492e+02
   1.013799e+02  -1.664976e+02
   2.159334e+02  -3.088707e+01
   1.675216e+02   1.787602e+02
   2.009580e+01   2.745706e+02
  -1.056943e+02   1.493761e+02
  -1.332003e+02  -1.238859e+01
  -4.224193e+01  -1.487349e+01
  -5.129457e+01  -1.783583e+01
  -7.188259e+01   1.453584e+01
  -6.354178e+01  -2.377553e+01
  -2.480106e+01  -5.109083e+01
   5.146650e+01  -6.769686e+01
   1.233447e+02  -1.149711e+01
   1.244378e+02   1.082337e+02
   1.046409e-01   9.937500e+01
  -1.259630e+02   9.938737e+01
  -1.797094e+02  -5.523086e+01
  -1.268524e+02  -2.036094e+02
   1.110589e+02  -2.040974e+02
   2.512713e+02  -7.828413e+01
   2.827974e+02   6.856178e+01
   1.061201e+02   1.363843e+02
  -5.030618e+01   1.383961e+02
  -6.801145e+01   9.826396e+01
  -6.803158e+01   8.898188e+01
  -3.596189e+01   1.279430e+02
  -7.640584e+01   6.835345e+01
  -1.412817e+02  -7.101151e+00
  -1.178863e+02  -1.548069e+02
  -6.570279e+01  -1.955029e+02
   1.048293e+02  -1.704113e+02
   1.328036e+02  -3.707420e+01
   1.562242e+02   1.430609e+02
   2.026469e+01   1.930650e+02
  -5.739239e+01   1.083352e+02
  -7.436063e+01  -2.302057e+01
  -1.574932e+00  -4.251714e+01
   5.281782e+01  -2.324316e+01
  -3.727445e+01   1.160975e+01
  -3.486113e+01  -3.466237e+01
  -2.520377e+01  -4.847174e+00
   6.035636e+01  -8.886827e+01
   1.853069e+02  -1.235874e+00
   1.311981e+02   4.742368e+01
   1.673564e+01   1.209209e+02
  -1.230589e+02   2.068404e+01
  -1.093122e+02  -9.975386e+00
  -5.884233e+01  -4.747104e+01
   8.528025e+01  -2.167818e+01
   6.746205e+01   6.963528e+00
   4.786949e+01   7.742618e+01
  -5.560999e+01   4.965897e+01
  -9.552211e+01  -1.058460e+01
  -7.268050e+01  -7.433828e+01
  -8.564538e+01  -5.177776e+01
  -6.165844e+01   1.529369e+01
  -5.765450e+01   9.876310e+00
  -1.812192e+01  -9.989655e+01
   6.156376e+01  -9.536736e+01
   1.004915e+02  -1.428022e+02
   1.569165e+02  -7.723011e+01
   8.597481e+01   1.164898e+02
   8.016479e+00   7.324718e+01
  -7.531577e+01   8.162764e+01
  -3.764419e+01  -8.336497e+00
   6.812006e+01   1.430175e+01
   1.397330e+02   3.084803e+01
   1.446694e+02   7.898032e+01
  -5.499700e+01   7.849752e+01
  -2.002225e+02   3.925872e+01
  -1.485329e+02  -2.734929e+01
  -4.267564e+01  -6.237380e+01
   5.909019e+01  -7.884352e+01
   2.854790e+01   8.891612e+00
  -3.679046e+01   2.748690e+01
  -5.563999e+01  -2.603163e+01
  -6.133916e+01  -1.236334e+02
   6.385186e+01  -1.797361e+02
   1.423711e+02  -5.891148e+01
   1.605042e+02   7.571923e+01
  -8.980613e+00   2.439927e+02
  -7.915803e+01   1.371044e+02
  -1.377400e+02   1.770498e+01
  -5.146674e+01  -1.281767e+02
   4.005488e+01  -7.607845e+01
   6.129071e+01  -9.415237e+00
   3.487323e+01   3.637549e+01
   3.387297e+01  -1.033481e+01
   1.008730e+01  -9.039723e+00
   9.009358e+00   4.399934e+00
   6.518919e+01   9.287170e+01
   5.370334e+01   7.841498e+01
  -4.270217e+01   3.368153e+01
  -1.378866e+02  -3.952437e+01
  -1.485508e+02  -6.834967e+01
  -1.904049e+01  -8.153824e+01
   9.724551e+01  -2.400109e+01
   8.370524e+01  -1.935983e+01
   3.711258e+00  -3.383704e+01
  -4.975372e+01   2.940168e+01
  -3.072356e+01   9.727070e+00
  -5.553300e+00   6.547686e+00
  -2.527878e+01   7.364996e+00
  -5.928330e+01   4.058785e+01
  -9.082475e+01  -4.526244e+01
  -2.727069e+01  -8.371534e+01
   1.080565e+02  -1.286271e+02
   1.986963e+02  -5.777973e+01
   1.845959e+02   6.587672e+01
   2.044419e+01   1.724986e+02
  -2.683753e+01   1.854593e+02
  -1.115953e+02  -1.114722e+01
  -8.480698e+01  -1.077791e+01
  -4.976260e+01  -2.596359e+01
   5.184153e+00   6.547493e+00
   3.948257e+00  -5.626237e+01
  -7.586215e+01  -1.395150e+01
  -1.469200e+01  -1.061289e+02
   1.559128e+01  -8.896907e+01
   7.168996e+01   2.325926e+01
   7.550692e+01   9.443502e+01
  -3.800493e+01   8.857821e+01
  -1.197157e+02   1.210546e+01
  -1.112630e+02  -1.045697e+02
  -6.649427e+01  -9.629331e+01
   2.716529e+01  -1.037976e+02
   7.246168e+01  -1.571544e+00
   5.887873e+01   5.423447e+01
  -2.356265e+01   3.847752e+01
  -1.789160e+01   2.200656e+01
   4.549199e+01  -2.349319e+01
   6.869180e+01  -6.605319e+00
   2.525371e+01  -1.406922e+01
  -3.425605e+01   8.414785e+01
  -1.138816e+02   6.039285e+01
  -8.963805e+01   1.536474e+01
  -2.001461e+01  -8.261792e+01
   2.994635e+01  -8.228696e+01
   5.156397e+01   4.366015e+00
   2.118049e+01   5.113384e+01
  -7.145837e+00   4.631935e+01
  -5.926044e+01  -1.393617e+01
  -3.498087e+01  -3.193669e+01
  -5.062525e+01   1.001878e+01
   4.946295e+01   1.882344e+01
   1.973154e+01   4.438123e+01
   3.407201e+01   8.868111e+00
  -2.619697e+01  -2.668261e+01
  -1.415133e+01  -1.508911e+01
  -1.504294e+01  -1.477122e+01
  -7.413498e-01   4.416850e+01
  -1.920576e+01   6.822922e+01
  -7.915324e+01  -5.992585e+01
  -2.901390e+01  -5.195786e+01
   2.507727e+01  -1.196712e+01
   8.181863e+01   7.156206e+01
   2.929489e+01   3.989768e+01
  -6.765325e+01   2.649831e+01
  -9.765292e+01  -4.814144e+01
  -1.097446e+02  -4.465215e+01
   4.435530e+01  -5.794175e+01
   9.288770e+01  -5.044354e+01
   4.812887e+01   3.310621e+01
  -2.828466e+01  -1.125362e+01
  -3.474801e+01  -7.371014e+00
   3.977400e+01   3.784976e+00
   7.363705e+01  -2.103683e+01
