
 $NMID
 id='ANONYMOUS ', fmtdat='(2E16.6)'
 volume=1.0
 tramp=1.0
 $END
  -4.263740e+03   5.222365e+02
  -2.614615e+03  -2.368859e+03
   5.161895e+02  -2.803737e+03
   2.018089e+03  -1.169808e+03
   9.798335e+02   3.393371e+02
  -5.172667e+02   6.398797e+02
  -1.007669e+03  -3.298417e+02
  -5.930180e+01  -1.014174e+03
   7.576260e+02  -8.379413e+02
   8.945050e+02  -9.183685e+00
   5.269110e+02   8.189829e+02
  -1.785741e+02   8.879631e+02
  -5.228074e+02   6.780583e+01
  -3.896908e+02  -6.771325e+02
   1.551993e+02  -8.387108e+02
   5.423253e+02  -8.958349e+01
   3.278292e+02   6.483635e+02
  -2.540942e+02   6.913497e+02
  -6.334255e+02   1.470540e+02
  -4.306096e+02  -3.452157e+02
  -4.993671e+01  -4.233744e+02
   1.486748e+02  -3.109151e+02
   2.161187e+02  -5.089687e+01
  -7.433175e+01   3.468398e+01
  -3.871659e+02  -1.054819e+02
  -1.844322e+02  -4.344849e+02
   4.238087e+02  -4.017212e+02
   8.053199e+02   1.361590e+02
   5.319072e+02   5.430302e+02
  -3.931734e+02   4.914319e+02
  -6.747370e+02  -5.041516e+01
  -3.793627e+02  -4.071133e+02
   2.754584e+02  -5.142038e+02
   5.172848e+02  -2.800478e+02
   4.692229e+02   2.080710e+02
   1.182912e+02   4.225305e+02
  -1.643929e+02   2.509833e+02
  -1.384464e+02  -1.712533e+02
   1.133768e+02  -4.254178e+02
   3.833689e+02  -2.824476e+01
   2.082584e+02   6.109336e+02
  -2.975645e+02   6.768953e+02
  -5.348433e+02   1.060171e+02
  -2.677739e+02  -5.344846e+02
   2.274934e+02  -3.660289e+02
   3.904089e+02   2.845099e+02
  -6.094309e+01   5.169137e+02
  -5.730140e+02   1.361979e+02
  -6.212782e+02  -3.721297e+02
  -1.984860e+02  -5.054866e+02
   3.421939e+02  -4.457630e+02
   6.022410e+02   3.353088e+01
   4.247688e+02   3.240474e+02
  -7.168339e+01   3.373802e+02
  -4.461776e+02   4.003809e+01
  -2.045888e+02  -1.676567e+02
   9.040503e+01  -1.229180e+02
   1.092679e+02   1.377539e+02
  -1.293455e+02   2.020998e+02
  -2.854816e+02  -5.370464e+01
  -1.874424e+02  -3.080676e+02
   1.947412e+02  -3.191768e+02
   2.617185e+02  -7.236737e+01
   2.194903e+02   6.896975e+01
  -1.275452e+01   2.278015e+02
  -2.386319e+02   3.230882e+02
  -3.454624e+02   2.155971e+02
  -2.825716e+02  -9.340604e+01
  -6.401516e+01  -4.390487e+02
   7.115070e+01  -3.947549e+02
   1.145600e+02  -1.266004e+02
   4.786993e+01  -8.024151e+00
   6.059836e+01  -8.011009e+01
   1.744903e+02  -1.243533e+02
   3.064347e+02   4.476993e+01
   1.697317e+02   2.366834e+02
  -4.974089e+01   2.533386e+02
  -2.118581e+02   3.316564e+01
  -1.386082e+02  -2.439247e+02
   1.177764e+01  -2.937488e+02
   2.106365e+02  -1.147082e+02
   3.771036e+02   1.665863e+02
   2.224702e+02   3.435301e+02
  -1.027882e+02   2.969813e+02
  -1.960260e+02   1.452227e+02
  -1.608791e+02   4.656344e+00
  -1.009635e+02   9.852571e+00
  -2.563125e+02  -1.126973e+01
  -4.174109e+02  -3.866518e+01
  -3.384143e+02  -2.737813e+02
  -4.193974e+01  -4.779566e+02
   3.194462e+02  -4.160052e+02
   4.629040e+02  -3.029319e+02
   3.086937e+02   1.060203e+02
   9.895393e+01   2.585865e+02
  -7.090103e+01   2.399868e+02
  -7.614947e+01   6.190741e+01
   8.426029e+01  -1.043481e+02
   1.789074e+02  -6.739594e+00
   6.881214e+01   1.678622e+02
  -1.092208e+02   2.245583e+02
  -2.160797e+02  -3.773844e+01
  -6.965726e+01  -2.014715e+02
   2.004087e+02  -8.765551e+01
   1.715965e+02   2.278625e+02
  -2.129052e+01   3.582363e+02
  -2.138169e+02   2.163349e+02
  -3.322683e+02  -6.828106e+01
  -2.547514e+02  -2.609112e+02
  -1.385032e+02  -3.090735e+02
   1.114110e+02  -1.875099e+02
   1.681498e+02  -5.403539e+01
   6.816989e+01   1.895388e+01
  -1.122827e+02  -4.769713e+01
  -5.370211e+01  -1.129468e+02
   1.549902e+02  -9.924364e+01
   1.285865e+02   2.736023e+01
   4.130199e+01   3.526638e+00
  -1.075272e+02   1.741578e+01
  -1.911079e+01  -1.016027e+02
   1.429627e+02  -1.275806e+02
   2.971999e+02  -2.028068e+01
   2.577666e+02   1.042730e+02
   6.989810e+01   2.388626e+02
  -2.081725e+02   2.821865e+02
  -2.146745e+02   1.532710e+02
  -1.581705e+02  -2.359032e+01
   7.722121e+00  -1.422665e+02
   9.128548e+01  -1.937729e+01
  -3.840283e+01   8.754370e+01
  -1.783771e+02   5.407617e+01
  -1.987653e+02  -1.117751e+02
  -8.016213e+01  -2.090101e+02
   5.598792e+01  -1.293545e+02
   1.489384e+02  -3.340430e+01
   8.957168e+01   2.113407e+01
  -1.374561e+01   2.265840e+01
  -3.800991e+01  -1.225908e+02
   7.959820e+01  -1.116544e+02
   2.231040e+02  -1.485879e+01
   1.699869e+02   1.184480e+02
   5.112626e+01   2.361488e+02
  -1.700601e+02   1.829156e+02
  -1.582364e+02   2.855572e+01
  -6.760653e+01  -9.920618e+01
   5.097694e+00  -1.202740e+02
   1.187467e+02  -2.848771e+01
   5.285023e+00   5.077792e+00
  -1.707673e+01   1.286052e+01
   4.743930e+01   6.266174e+00
   6.805289e+01   2.232564e+01
   1.071992e+02   5.955777e+01
   3.281072e+01   1.644680e+02
  -1.390170e+02   1.448949e+02
  -2.400876e+02   2.850667e+01
  -1.732895e+02  -1.437256e+02
  -3.235322e+01  -2.344974e+02
   1.059361e+02  -1.393964e+02
   1.047428e+02  -4.354199e+01
   8.527898e+01   4.408584e+01
   6.475685e+00   4.771836e+01
   6.965219e+01  -5.140900e+00
   9.271922e+01  -3.208929e+01
   9.901367e+01   1.184804e+02
  -1.633107e+01   7.024417e+01
  -1.112044e+02   5.504578e+01
  -1.142075e+02  -4.753648e+01
   3.061339e+01  -1.222768e+02
   1.348006e+02  -1.024319e+02
   2.098209e+02   8.496452e+01
   1.329941e+02   2.057279e+02
  -1.437012e+02   2.398556e+02
  -2.619970e+02   1.163852e+02
  -2.490455e+02  -8.431843e+01
  -8.584136e+01  -1.632991e+02
   9.711708e+01  -1.204551e+02
   7.001121e+01  -1.298636e+02
   5.435308e+01  -8.525553e+01
   4.010020e+01  -1.121837e+02
   8.920247e+01  -7.887565e+01
   1.002099e+02   2.490026e+01
   1.229673e+02   1.691105e+02
   5.859391e+01   2.299818e+02
  -8.985957e+01   1.424112e+02
  -1.591941e+02   1.722240e+01
  -1.183637e+02  -1.017407e+02
  -2.899462e+01  -1.757344e+02
   9.176234e+01  -1.086367e+02
   4.294936e+01  -1.438299e+01
  -4.958739e+00   3.769196e+01
  -2.221028e+01   3.493051e+01
   2.823634e+01   1.641008e+00
   6.054451e+01   3.563226e+01
   3.535040e+01   4.316651e+01
  -2.772582e+01   1.106721e+01
  -1.852440e+02   2.339629e+01
  -1.551665e+02  -7.543902e+01
  -7.714985e+00  -9.044008e+01
   1.320375e+02  -9.136421e+01
   1.483116e+02  -3.501642e+01
   6.025453e+01   6.566965e+01
  -6.840813e+01   3.145926e+01
  -6.816216e+01  -1.624561e+01
   2.525940e+01  -8.443781e+01
   5.029175e+01  -2.512567e+01
   5.800303e+01   1.238710e+01
   5.104612e+01   5.273349e+01
   6.313489e+01   1.102543e+01
   8.170124e+01  -2.447921e+00
   1.043736e+02   1.315178e+01
   8.877461e+00   7.323802e+01
  -9.505194e-01   1.803720e+02
  -1.199928e+02   1.615335e+02
  -1.382335e+02  -3.521706e+00
  -1.607770e+02  -7.629812e+01
   9.231669e+00  -8.855920e+01
   9.071288e+01  -1.595740e+01
   7.272191e+01  -7.375395e+00
  -3.360748e+01   1.755615e+01
  -1.107594e+02  -5.159653e+01
  -7.262201e+01  -1.005465e+02
   5.783128e+01  -1.066302e+02
   1.750235e+02  -8.697725e+01
   1.902369e+02   4.585578e+01
   2.866306e+01   8.249305e+01
  -3.463661e+01   8.270510e+01
  -5.457736e+01  -2.893361e+01
   4.212074e+01  -3.063998e+01
   1.194609e+02   4.413584e+01
   4.818278e+01   9.202219e+01
  -6.374277e+01   1.653297e+02
  -1.875228e+02   7.717687e+01
  -1.418946e+02  -8.632380e+01
  -2.791049e+01  -2.156311e+02
   8.665572e+01  -1.693759e+02
   1.298090e+02  -9.990200e+00
   7.560789e+01   1.266800e+02
  -3.165448e+01   8.000803e+01
  -1.837106e+01   3.479164e+01
  -8.307787e+01  -2.928478e+01
  -1.486743e+01   2.012293e+01
   8.100117e+00   3.656142e+01
  -8.288955e+00   2.642604e+00
  -4.778985e+01  -7.956481e+01
  -2.566952e+01  -9.502301e+01
   1.672367e+01  -3.089937e+01
   1.193437e+02   5.808587e+01
   1.262640e+02   7.361542e+01
   1.993278e+01   6.949667e+01
  -9.272799e+01   1.246816e+01
  -9.410456e+01   1.467562e+01
   1.970144e+01  -3.145088e+01
   3.273878e+01  -4.391257e+01
   2.536781e+01  -2.562905e+01
  -5.575334e+01   1.186334e+00
   3.721582e+00  -3.319070e+01
   9.748970e+01  -2.542101e+00
   7.482765e+01   5.739793e+01
   2.690822e+00   9.634812e+01
  -1.331737e+02   1.199292e+02
  -1.974005e+02   5.828733e+01
  -1.159504e+02  -5.161067e+01
  -3.025130e+01  -1.706242e+02
   3.696979e+01  -1.622766e+02
   7.951304e+01  -5.944635e+01
   5.629634e+01  -1.755633e+00
  -1.308132e+01   4.148702e+01
  -1.363690e+01   2.611107e+01
   1.906749e+01  -2.864327e+01
   5.748701e+01   2.395262e+01
  -8.585844e+00   6.918314e+01
  -3.678799e+01   6.687546e+01
  -6.018957e+01  -6.625674e+01
  -1.241314e+02  -9.322979e+01
  -2.725786e+01  -9.421997e+01
   8.630389e+01  -2.401962e+01
   8.410085e+01   8.539247e+01
   2.383573e+01   5.278742e+01
  -7.511350e+01   6.684097e+01
  -8.622782e+01   2.235330e+01
  -6.097255e+01  -8.684388e+01
   2.498622e+01  -5.213226e+01
   2.434598e+01   8.058177e-01
  -4.112434e+01   2.150021e+01
  -1.074503e+02   9.673699e+00
  -2.768779e+01  -2.198867e+01
   3.595610e+01  -2.503276e+01
   8.986802e+01  -9.448491e+01
   8.274513e+01   5.020285e+00
  -4.301325e+01   8.603375e+01
  -7.817173e+01   1.012967e+02
  -3.487038e+01   2.899727e+01
   7.499860e+00  -6.013858e+01
   4.206752e+01  -1.928113e+01
   3.209032e+01  -7.758433e+00
  -7.847698e+00   4.524941e+01
   1.163651e+00   5.861507e+01
  -1.927354e+01   1.616579e+01
  -2.660597e+01  -2.131912e+01
  -4.234415e+01  -3.521572e+01
   2.083754e+01   3.091106e+01
   5.966163e+01  -3.576800e+00
  -4.278674e+00  -3.145729e+01
   2.074124e+01  -5.366059e+01
   8.303921e+01  -3.002371e+01
   6.412569e+01   6.383210e+01
   1.674537e+01   5.626640e+01
  -6.184463e+01   1.074165e+01
  -5.988319e+01  -2.899057e+01
   6.409260e+00  -5.444663e+01
   5.265088e+01  -3.276197e+01
   9.911755e+01  -2.429948e+01
   8.007411e+01   2.313338e+01
  -3.234097e+01   1.050029e+01
  -8.642461e+01   4.799088e+01
  -1.679753e+00  -1.270105e+01
   3.320321e+01  -1.932503e+01
   2.792134e+01   2.328481e+01
  -5.896571e+01   3.811007e+00
  -1.108931e+02   1.402041e+01
