
 $NMID
 id='ANONYMOUS ', fmtdat='(2E16.6)'
 volume=1.0
 tramp=1.0
 $END
   4.545413e+03  -4.026824e+02
   2.520787e+03   2.398914e+03
  -8.542969e+02   2.984413e+03
  -2.197521e+03   9.641735e+02
  -1.042660e+03  -5.791923e+02
   6.435793e+02  -6.881572e+02
   1.047181e+03   3.732463e+02
   3.771490e+01   1.110146e+03
  -7.906501e+02   9.448878e+02
  -9.605490e+02  -2.019694e+01
  -4.815146e+02  -8.524918e+02
   2.840591e+02  -9.479605e+02
   5.824236e+02  -8.867452e+01
   3.616993e+02   7.261367e+02
  -1.723921e+02   8.888724e+02
  -6.171682e+02   3.256676e+01
  -3.719549e+02  -6.963480e+02
   3.479051e+02  -6.616533e+02
   6.658540e+02  -1.076235e+02
   4.290250e+02   3.420730e+02
   3.177167e+01   4.594121e+02
  -2.340241e+02   2.514493e+02
  -2.023497e+02   7.095270e+01
   8.084949e+01  -7.254023e+01
   3.869094e+02   7.507984e+01
   1.991603e+02   4.517671e+02
  -4.280896e+02   4.338382e+02
  -8.693794e+02  -3.882495e+01
  -5.169971e+02  -5.184992e+02
   3.976593e+02  -5.160255e+02
   7.445065e+02   4.709355e+01
   4.214314e+02   4.560286e+02
  -2.686315e+02   5.764561e+02
  -5.444129e+02   2.602949e+02
  -4.560952e+02  -1.961973e+02
  -1.164666e+02  -5.109806e+02
   2.362719e+02  -2.916224e+02
   1.935716e+02   1.649869e+02
  -8.413454e+01   5.038910e+02
  -4.546517e+02   1.329871e+02
  -2.905973e+02  -6.591042e+02
   3.129971e+02  -7.488989e+02
   6.358092e+02  -1.163298e+02
   3.132138e+02   5.681104e+02
  -2.416707e+02   4.006572e+02
  -4.460240e+02  -2.635046e+02
   6.633252e+01  -5.474796e+02
   5.812370e+02  -8.279075e+01
   6.321733e+02   3.405306e+02
   2.192780e+02   5.701323e+02
  -4.203800e+02   4.705792e+02
  -6.514048e+02  -3.444239e+00
  -4.520907e+02  -4.071520e+02
   1.218316e+02  -3.618091e+02
   5.185146e+02  -6.211091e+01
   2.149760e+02   2.182296e+02
  -1.079154e+02   1.514299e+02
  -1.239031e+02  -1.547423e+02
   1.662376e+02  -2.114667e+02
   3.342114e+02   1.001472e+02
   1.636529e+02   2.839679e+02
  -2.088899e+02   3.016185e+02
  -3.456976e+02   7.866803e+01
  -1.837465e+02  -7.934953e+01
   1.555307e+01  -2.196316e+02
   1.940841e+02  -3.645709e+02
   3.336488e+02  -1.982935e+02
   3.057612e+02   1.150293e+02
   4.395096e+01   3.963046e+02
  -1.305642e+02   4.085610e+02
  -8.330704e+01   1.328034e+02
  -6.488534e+01   1.016841e+01
  -5.497879e+01   7.495113e+01
  -1.476511e+02   1.872240e+02
  -2.865026e+02  -1.996299e+01
  -1.847058e+02  -2.679719e+02
   9.581190e+01  -2.880825e+02
   2.056232e+02  -2.472973e+01
   2.169759e+02   2.172326e+02
   2.665769e+01   3.371503e+02
  -2.106068e+02   1.471223e+02
  -3.693328e+02  -1.172117e+02
  -2.480783e+02  -3.102637e+02
   7.713907e+01  -3.269280e+02
   2.581471e+02  -1.035494e+02
   1.760001e+02  -9.151935e+00
   8.899709e+01  -3.396495e+01
   2.029112e+02  -3.396410e+01
   4.346898e+02   6.277311e-01
   3.330861e+02   2.873285e+02
   3.923313e+00   4.406706e+02
  -3.586942e+02   4.364386e+02
  -4.677831e+02   3.018793e+02
  -3.392667e+02  -7.797771e+01
  -1.193458e+02  -2.576961e+02
   9.452974e+01  -2.477234e+02
   1.158592e+02  -3.636208e+01
  -1.272567e+02   9.602033e+01
  -1.843729e+02   1.803582e+01
  -8.749554e+01  -1.961456e+02
   1.390325e+02  -2.188501e+02
   2.144976e+02   5.174586e+01
   2.008073e+01   2.259936e+02
  -1.863124e+02   7.442956e+01
  -1.781302e+02  -2.312353e+02
   2.079038e+01  -3.292934e+02
   2.428800e+02  -1.804965e+02
   2.868051e+02   9.477095e+01
   2.855806e+02   2.156531e+02
   1.092250e+02   2.776264e+02
  -8.492049e+01   1.519003e+02
  -2.057469e+02   2.553449e+01
  -7.416854e+01  -3.216583e+01
   1.098826e+02   3.515481e+01
   3.692869e+01   1.297060e+02
  -1.494667e+02   6.653156e+01
  -2.130182e+02   2.260730e+01
  -3.428646e+01  -2.784378e+01
   4.944338e+01   2.776851e+01
   1.069075e+02   5.795962e+01
  -1.188662e+02   6.264808e+01
  -2.931171e+02   1.286712e+01
  -2.910210e+02  -8.551616e+01
  -8.115466e+01  -2.571956e+02
   2.021434e+02  -2.413686e+02
   2.707723e+02  -1.642489e+02
   2.012919e+02   5.492423e+01
   7.968516e-01   9.268192e+01
  -9.939006e+01   2.224971e+01
   3.434205e+01  -1.459464e+02
   1.711024e+02  -6.087737e+01
   2.524713e+02   1.010280e+02
   7.791452e+01   1.897029e+02
  -7.013285e+01   1.500315e+02
  -1.273340e+02   1.907114e+01
  -7.477160e+01  -6.083853e+01
  -1.981637e+00  -3.217836e+01
   6.219297e+01   8.143612e+01
  -9.149553e+01   1.102339e+02
  -1.744787e+02   6.098260e+01
  -1.943079e+02  -1.270488e+02
  -3.252274e+01  -1.926457e+02
   1.671570e+02  -1.391930e+02
   1.891632e+02  -5.998925e+01
   5.487869e+01   1.290453e+02
  -2.495924e+01   1.397502e+02
  -6.787875e+01   5.167343e+01
  -2.820687e+01   8.648859e+00
   1.749401e+01  -2.619904e+01
  -4.572083e+01   2.429643e+01
  -7.213410e+01  -6.023146e+00
  -8.033967e+01  -7.242810e+01
  -2.518385e+01  -1.784453e+02
   1.110238e+02  -1.434155e+02
   2.228973e+02  -5.493287e+01
   1.821593e+02   1.922026e+02
   8.377150e+01   2.374272e+02
  -9.641504e+01   1.818334e+02
  -1.621110e+02   5.841664e+01
  -1.094286e+02  -4.248304e+01
  -1.449965e+01  -5.839447e+01
   2.978881e+00   3.644839e+01
  -1.037619e+02  -2.464706e+01
  -3.884633e+01  -3.234253e+01
   4.325208e+01  -1.071497e+02
   1.193888e+02  -5.676534e+01
   9.953258e+01   1.750222e+01
  -4.951968e+00   1.354694e+02
  -1.210198e+02   1.125911e+02
  -1.891349e+02  -6.268298e+01
  -8.347892e+01  -1.569882e+02
   1.105733e+02  -2.563125e+02
   2.723466e+02  -7.938798e+01
   2.688758e+02   5.970260e+01
   1.218876e+02   1.902379e+02
  -2.865585e+01   1.447141e+02
  -1.071058e+02   1.104885e+02
  -7.481192e+01   8.885336e+01
  -9.970385e+01   8.402836e+01
  -9.545218e+01   8.192404e+01
  -1.262549e+02  -4.165334e+01
  -1.250967e+02  -1.770180e+02
  -3.448001e+01  -2.123878e+02
   6.283752e+01  -1.925586e+02
   1.557148e+02  -5.313397e+01
   1.308572e+02   1.165464e+02
  -2.793763e+00   1.872919e+02
  -6.969345e+01   6.622119e+01
  -6.149216e+01   1.740339e+01
  -2.161732e+01  -6.650496e+01
  -2.593585e+01  -3.282144e+01
  -1.965831e+01  -6.368091e+01
  -6.795092e+01  -3.755622e+01
  -2.431980e+01  -4.278218e+01
   5.517218e+01  -5.657243e+01
   1.617866e+02  -1.589606e+01
   1.431475e+02   5.216356e+01
   3.316681e+01   7.028999e+01
  -1.299387e+02   9.335123e+01
  -1.704381e+02   1.350091e+01
  -5.976882e+01  -9.448672e+00
   4.018598e+01  -1.681989e+01
   9.545391e+01  -6.214602e+00
   1.044104e+01   7.087562e+01
  -5.148789e+01   6.771012e+01
  -5.109650e+01   3.272150e+01
  -6.225157e+01  -8.169163e+01
  -7.791447e+01  -2.989337e+01
  -4.267225e+01  -2.883607e+01
  -7.118891e+01  -1.233943e+01
  -2.281641e+01  -4.719188e+01
   4.132197e+01  -1.608348e+02
   1.248497e+02  -1.400449e+02
   1.695166e+02  -6.173478e+01
   1.024837e+02   9.051936e+01
   2.178448e+01   1.440250e+02
  -8.814675e+01   7.134046e+01
  -4.509879e+01  -3.609518e+01
   3.972724e+01  -8.926115e+00
   1.806026e+02   5.509030e+01
   1.270878e+02   7.811831e+01
  -7.605580e+01   1.382092e+02
  -1.649929e+02   8.510102e+01
  -1.398714e+02  -6.176124e+01
  -8.593379e+01  -7.890057e+01
   3.239409e+01  -5.386960e+01
   3.506200e+01   3.817142e+00
  -4.442137e+01  -2.279709e+01
  -1.215518e+02  -6.607168e+01
  -3.877739e+01  -9.642201e+01
   7.032580e+01  -1.423202e+02
   1.749845e+02  -6.398828e+01
   1.313211e+02   8.768236e+01
   2.519505e+01   1.929395e+02
  -8.610809e+01   1.372301e+02
  -1.229851e+02  -4.001090e+00
  -8.023249e+01  -8.475542e+01
   6.426574e+00  -1.453867e+02
   3.088394e+01  -1.393897e+01
   2.930685e+01   1.035132e+01
   2.719631e+01  -3.338819e+01
   2.413073e+01  -5.741977e+01
   3.091643e+01   3.144032e+01
   6.782069e+01   7.499529e+01
   6.664660e+01   1.297615e+02
  -3.697585e+01   4.726628e+01
  -1.377224e+02  -3.106785e+01
  -1.398545e+02  -9.581107e+01
   1.177405e+01  -8.047509e+01
   9.450828e+01  -3.904378e+01
   8.631885e+01  -5.836687e+00
  -6.312894e+00  -1.401371e+01
  -3.277511e+01   2.816348e+01
  -1.922422e+01  -7.322930e+00
   1.210712e+01  -7.416577e+00
  -1.046716e+01  -7.696190e+00
  -8.786228e+01  -3.859825e+00
  -8.875868e+01  -4.694952e+01
   1.228567e+00  -6.146516e+01
   1.234420e+02  -1.496357e+02
   1.692850e+02  -5.992162e+01
   1.771677e+02   3.166153e+01
   4.492210e+00   1.607398e+02
  -9.028016e+01   1.378646e+02
  -1.406295e+02   8.418532e+01
  -8.396620e+01  -1.476837e+01
  -4.513159e+01  -8.576667e+01
   2.099453e+01   1.787451e+01
   1.412436e+01  -1.037278e+01
  -3.541131e+01  -4.046567e+01
  -4.721346e+01  -1.031848e+02
   1.619040e+01  -3.194905e+01
   5.211022e+01  -1.917421e+01
   5.908868e+01   1.185932e+02
   2.617079e+01   1.133037e+02
  -1.175835e+02   1.866143e+01
  -8.562291e+01  -9.247578e+01
  -5.137150e+01  -9.486266e+01
   7.489691e+01  -1.004554e+02
   6.727081e+01   2.032963e+00
   3.920058e+01   5.743769e+01
  -3.261263e+01   2.598597e+01
   1.324696e+00   3.276461e+01
   3.162354e+01  -3.741778e+00
   5.413676e+01  -5.209457e+00
  -1.596098e+01   8.498198e+00
  -9.891504e+01   8.848483e+01
  -1.162933e+02   5.717261e+01
  -4.935374e+01  -1.964141e+01
   1.637857e+01  -9.067212e+01
   3.127488e+01  -6.988058e+01
   1.265277e+01   1.955191e+01
   3.362233e+00   5.319171e+01
  -4.330026e+01   4.437867e+01
  -5.372186e+01  -1.043564e+01
  -4.928519e+00  -5.437846e+01
  -1.761724e-01  -4.829621e+01
   7.314838e+00  -1.263595e+01
   1.726146e+01   1.965135e+01
   1.512481e+01   2.470143e+01
   1.550174e+00   7.643564e+00
  -2.853536e+01  -3.869522e+00
   3.394250e+01   3.176448e+01
  -2.232065e+01   1.048226e+02
  -3.823436e+01   2.356340e+01
  -5.637348e+01  -7.496840e+01
  -1.273723e+01  -7.971209e+01
   3.035653e+01  -1.964128e+01
   6.409066e+01   3.379224e+01
   1.517180e+01   5.314983e+01
  -4.237102e+01   2.409422e+01
  -9.901048e+01  -3.356702e+01
  -4.816993e+01  -2.197831e+01
   3.078887e+01  -4.389550e+01
   2.668412e+01   4.573114e-02
   3.456907e+01  -1.130393e+01
  -6.098473e+01  -9.291473e+00
  -3.069180e+01   3.005487e+01
   4.404105e+01   5.442965e+00
   1.115109e+02  -7.230405e+00
