
 $NMID
 id='ANONYMOUS ', fmtdat='(2E16.6)'
 volume=1.0
 tramp=1.0
 $END
   4.529151e+03  -2.787089e+02
   2.625455e+03   2.599913e+03
  -8.682488e+02   3.054634e+03
  -2.169520e+03   1.034856e+03
  -1.095383e+03  -6.986806e+02
   6.691313e+02  -6.729596e+02
   9.957319e+02   3.527424e+02
   9.539731e+01   1.171553e+03
  -7.663447e+02   8.022008e+02
  -9.800881e+02  -2.593033e+01
  -5.335037e+02  -8.364629e+02
   3.030316e+02  -9.990327e+02
   6.133532e+02  -1.274195e+02
   4.340669e+02   8.027214e+02
  -2.228454e+02   7.757906e+02
  -6.727424e+02   5.110186e+01
  -3.178027e+02  -7.003945e+02
   3.718266e+02  -6.761641e+02
   6.569886e+02  -9.552066e+01
   4.120968e+02   3.265982e+02
   4.143948e+01   4.366602e+02
  -2.653550e+02   2.901208e+02
  -2.401875e+02   1.013989e+02
   8.483769e+01  -9.709372e+01
   4.102747e+02   3.316343e+01
   2.085702e+02   4.556782e+02
  -3.579363e+02   4.816683e+02
  -8.814424e+02  -3.462013e+01
  -5.659713e+02  -5.341625e+02
   4.463082e+02  -5.116013e+02
   7.947732e+02   5.603900e+01
   4.037994e+02   4.492369e+02
  -2.897174e+02   5.644589e+02
  -5.874988e+02   2.017595e+02
  -4.274567e+02  -1.963255e+02
  -8.642326e+01  -5.366005e+02
   1.562555e+02  -2.608058e+02
   1.808382e+02   2.110120e+02
  -1.214163e+02   4.869292e+02
  -4.188451e+02   1.138869e+02
  -3.130005e+02  -6.555549e+02
   3.505999e+02  -7.455966e+02
   6.760677e+02  -8.947920e+01
   2.626236e+02   5.641967e+02
  -2.489656e+02   3.765282e+02
  -4.318909e+02  -3.139910e+02
   5.704557e+01  -5.602036e+02
   6.272650e+02  -1.355679e+02
   6.694393e+02   3.835810e+02
   1.660232e+02   5.987374e+02
  -3.919294e+02   3.767759e+02
  -6.626354e+02  -5.583509e+01
  -4.736878e+02  -4.365557e+02
   1.148766e+02  -4.267767e+02
   5.038625e+02  -3.179673e+01
   2.227720e+02   2.410940e+02
  -1.383594e+02   1.184645e+02
  -1.336805e+02  -1.435760e+02
   1.951998e+02  -2.044851e+02
   3.392189e+02   9.988455e+01
   1.676128e+02   2.733220e+02
  -1.622278e+02   2.515232e+02
  -2.939342e+02   9.568936e+01
  -1.484208e+02  -5.838919e+01
   2.595345e+01  -1.963591e+02
   2.167648e+02  -4.028635e+02
   3.272924e+02  -2.502411e+02
   3.164987e+02   8.206598e+01
   9.667667e+01   4.681646e+02
  -1.598775e+02   4.113496e+02
  -1.350444e+02   1.733349e+02
  -3.336485e+01  -8.514879e+01
  -6.400096e+01   9.538528e+01
  -1.686585e+02   1.004299e+02
  -3.073941e+02  -5.783412e+01
  -2.054081e+02  -2.506176e+02
   7.867144e+01  -2.639701e+02
   2.003733e+02  -4.419973e+01
   1.905113e+02   2.297213e+02
   5.886329e+01   3.318718e+02
  -2.177681e+02   2.075422e+02
  -3.711022e+02  -1.664513e+02
  -2.520145e+02  -3.614272e+02
   1.113823e+02  -3.433825e+02
   2.357329e+02  -1.309858e+02
   1.564568e+02   6.185624e+01
   7.985080e+01  -3.661701e+01
   2.188332e+02  -8.992359e+01
   4.163392e+02   3.634030e+01
   3.375431e+02   2.534377e+02
  -1.397529e+01   4.716578e+02
  -3.326145e+02   4.515522e+02
  -5.119473e+02   2.594314e+02
  -3.252126e+02  -5.943947e+01
  -8.995494e+01  -3.414780e+02
   1.072682e+02  -2.694624e+02
   1.260927e+02  -4.551701e+01
  -1.242799e+02   1.133085e+02
  -1.989881e+02   3.184657e+01
  -7.177984e+01  -2.036415e+02
   1.269041e+02  -1.769356e+02
   1.996032e+02   5.511478e+01
   5.332829e+01   1.702191e+02
  -2.102406e+02   7.359735e+01
  -1.176952e+02  -2.432428e+02
  -1.826615e+01  -3.210997e+02
   2.111608e+02  -1.797763e+02
   2.887187e+02   1.107785e+02
   3.028466e+02   2.072416e+02
   1.044481e+02   2.396712e+02
  -1.259498e+02   1.675484e+02
  -1.766762e+02   9.468622e+00
  -8.425362e+01   4.479015e+00
   7.567777e+01   1.131083e+01
   4.855489e+01   1.437506e+02
  -1.246249e+02   8.215441e+01
  -2.163904e+02   1.734492e+01
  -8.061060e+01  -1.068974e+02
   7.574314e+01   1.964960e+00
   7.159119e+01   6.853673e+01
  -1.127296e+02   1.178970e+02
  -2.826527e+02   6.554470e+01
  -2.743833e+02  -1.018241e+02
  -8.059561e+01  -2.897750e+02
   1.726709e+02  -2.238241e+02
   3.061045e+02  -1.549413e+02
   1.695518e+02   3.087982e+01
  -5.346851e+01   1.275273e+02
  -1.052471e+02   5.326349e-01
  -5.825512e+00  -1.046149e+02
   1.881827e+02  -1.124267e+02
   2.157049e+02   8.288559e+01
   9.242897e+01   2.056950e+02
  -7.553407e+01   1.909097e+02
  -1.576205e+02   5.164678e+00
  -8.500869e+01  -6.716218e+01
   4.549001e+01  -3.208228e+00
   4.780237e+01   4.648376e+01
  -6.673918e+01   1.228417e+02
  -2.113023e+02   4.600952e+01
  -1.971750e+02  -1.087011e+02
  -4.520873e+01  -2.194929e+02
   1.663158e+02  -1.402710e+02
   2.139268e+02  -5.187561e+01
   7.587529e+01   1.025867e+02
  -6.721736e+01   1.151411e+02
  -7.403223e+01   4.001663e+01
  -5.185087e+01   1.149081e+01
   3.607655e+01  -3.090736e+01
  -7.156187e+00   2.704405e+00
  -8.725874e+01  -1.809264e+00
  -6.203166e+01  -6.262426e+01
  -4.861960e+01  -1.358848e+02
   9.525576e+01  -1.535141e+02
   2.256533e+02  -4.195897e+01
   2.187451e+02   1.373433e+02
   3.954431e+01   2.330014e+02
  -3.341064e+01   1.788588e+02
  -1.119822e+02   3.746989e+01
  -8.508340e+01  -1.823770e+01
  -1.363290e+01  -3.374956e+01
  -7.496169e+01  -2.118802e+01
  -7.891718e+01   1.568275e+01
  -1.745479e+01  -3.579932e+01
   2.899588e+01  -1.032804e+02
   1.144859e+02  -4.847007e+01
   1.100849e+02   6.363159e+01
  -3.528844e+01   1.019656e+02
  -1.313884e+02   1.009228e+02
  -1.758655e+02  -6.559903e+01
  -9.149900e+01  -2.095143e+02
   1.270560e+02  -2.315346e+02
   3.082000e+02  -9.855374e+01
   2.857018e+02   3.883141e+01
   8.980947e+01   1.964041e+02
  -5.574563e+00   1.248293e+02
  -8.638656e+01   1.036940e+02
  -7.494631e+01   7.820872e+01
  -3.892373e+01   1.268020e+02
  -8.730694e+01   9.183432e+01
  -1.352692e+02  -5.700935e+01
  -8.190591e+01  -1.646505e+02
  -5.182113e+01  -1.797294e+02
   1.050256e+02  -1.608938e+02
   1.524180e+02  -1.630207e+01
   1.153616e+02   5.702879e+01
   1.004529e+01   1.592219e+02
  -5.832000e+01   7.737320e+01
  -5.854307e+01  -3.002512e+00
  -2.921953e+01  -5.948866e+01
   6.094774e+00  -2.962563e+01
  -4.753356e+01   1.227326e+01
  -9.733485e+01  -1.603043e+01
  -5.262989e+01  -7.866339e+01
   5.683712e+01  -3.984927e+01
   1.585978e+02   1.263461e+01
   1.231447e+02   6.889712e+01
   2.758127e+01   1.153088e+02
  -1.041081e+02   6.940279e+01
  -1.478123e+02   3.971654e+01
  -3.709992e+01  -3.167858e+01
   2.094257e+01  -5.049646e+01
   9.159690e+01   2.258607e+01
  -3.638467e+00   6.603522e+01
  -6.004645e+01   5.608220e+01
  -8.099250e+01  -2.041014e+01
  -4.167928e+01  -6.149990e+01
  -3.076687e+01   7.181180e+00
  -5.791309e+01  -1.810378e+01
  -5.965018e+01   1.991588e+01
  -4.432042e+01  -4.832658e+01
   1.112915e+01  -1.967939e+02
   1.690694e+02  -1.835624e+02
   1.068368e+02  -2.698426e+01
   1.190700e+02   6.949908e+01
   4.174111e+00   1.180714e+02
  -8.761606e+01   7.635817e+01
  -5.917253e+01   9.232130e+00
   1.092984e+02   1.131764e+00
   1.262523e+02   1.337144e+01
   1.091918e+02   7.958879e+01
  -4.768356e+01   1.120670e+02
  -1.352400e+02   7.503941e+01
  -1.526593e+02  -4.064650e+01
  -2.125546e+01  -6.158092e+01
   6.283968e+01  -9.698686e+01
   1.001880e+01  -3.501238e+01
  -6.809090e+01   3.605601e+01
  -8.873402e+01   8.914561e+00
  -3.442941e+01  -1.015295e+02
   4.384971e+01  -1.820930e+02
   1.578120e+02  -5.384077e+01
   1.548491e+02   7.756825e+01
  -1.191106e+01   1.660245e+02
  -8.122903e+01   1.521713e+02
  -1.116528e+02  -1.211162e+01
  -5.117397e+01  -1.237229e+02
  -9.735285e+00  -1.099615e+02
   8.202979e+01   1.383180e+01
   4.261356e+01   3.505132e+01
   1.960837e+01  -1.460854e+01
   1.605992e+00   5.245407e+00
   1.213670e+01   8.603590e+00
   6.714404e+01   4.331758e+01
   2.803558e+01   8.081152e+01
  -3.389954e+01   6.074027e+01
  -1.561901e+02  -3.913814e+01
  -9.892328e+01  -1.242092e+02
  -4.583644e+01  -1.036806e+01
   5.876677e+01  -3.606613e+01
   7.469361e+01  -1.649824e+01
   7.257637e+00   1.635910e+01
  -4.092002e+01   4.004336e+01
  -4.862698e+01  -2.400104e+00
  -1.264984e+01   2.072745e+00
  -1.036049e+01  -4.298348e+00
  -7.541742e+01  -6.409098e+00
  -7.387260e+01  -3.323278e+00
  -2.224713e+01  -7.385457e+01
   1.036467e+02  -1.454355e+02
   1.822258e+02  -9.527948e+01
   1.312472e+02   7.253095e+01
   5.355715e+01   1.669424e+02
  -6.990297e+01   1.623997e+02
  -8.131658e+01   8.707592e+01
  -1.184162e+02  -3.062868e+01
  -1.231426e+00  -3.382979e+01
  -5.518684e+00   2.726938e+01
   8.638781e+00   2.247111e+00
  -5.697944e+01  -9.441203e+01
  -1.056577e+01  -1.101222e+02
   5.176680e+01  -8.219807e+01
   9.638406e+01   2.147534e+01
   1.170768e+02   1.101775e+02
   1.894353e+01   8.640764e+01
  -7.257105e+01   6.077014e+00
  -1.106810e+02  -1.984843e+01
  -3.388203e+01  -1.041385e+02
   8.467968e+01  -8.793738e+01
   1.065081e+02  -9.026371e+00
   5.608794e+01  -5.329417e+00
  -9.207415e+01   2.687203e+01
  -1.224950e+01  -2.145466e+01
  -2.235601e+01  -7.572470e+00
   3.161511e+01  -8.776571e+00
   5.621766e+00  -8.570329e+00
  -6.805522e+01   6.467197e+01
  -1.012722e+02   9.059287e+01
  -5.505445e+01   1.614067e+01
   1.379676e+01  -9.388757e+01
   6.923988e+01  -5.300333e+01
   6.597103e+01   3.274179e+01
   8.913800e-01   5.577758e+01
  -3.348215e+01   1.663819e+01
  -3.588436e+01   3.564833e+01
  -1.488497e+00  -8.491523e+01
  -2.920506e+01  -2.003418e+01
   5.818025e+01   4.588248e+01
   1.955787e+01   1.018508e+01
   1.709060e+01   8.274951e+01
   5.798294e-01   1.008645e+00
  -2.200156e+01   2.773702e+01
   1.013963e+01   5.084129e+01
   2.213870e+01   5.269946e+01
   2.466829e+01   2.911522e+00
  -4.113972e+00  -7.170999e+01
   1.271481e+01  -8.222328e+01
   2.405779e+01  -3.364663e+01
   3.694808e+01   8.631406e+00
   1.308011e+01   2.283138e+01
  -2.505890e+01   3.900277e+01
  -6.424464e+01   1.038512e+01
  -4.553576e+01  -2.053433e+01
   2.794546e+01  -6.333731e+01
   3.309765e+01  -6.463717e+01
   9.176393e+00  -5.854138e-01
  -2.082980e+01   4.115071e+00
  -3.194216e+01  -6.119450e+01
   1.741799e+01  -5.287782e+01
   8.908474e+01  -2.541386e+01
