
 $NMID
 id='ANONYMOUS ', fmtdat='(2E16.6)'
 volume=1.0
 tramp=1.0
 $END
   4.364280e+03  -2.861350e+02
   2.702181e+03   2.674749e+03
  -9.824853e+02   3.197219e+03
  -2.451162e+03   9.961987e+02
  -1.179412e+03  -8.053864e+02
   7.408235e+02  -7.954576e+02
   1.117248e+03   4.922016e+02
   1.186584e+02   1.198833e+03
  -7.619551e+02   8.885892e+02
  -9.888535e+02  -1.060900e+02
  -4.386455e+02  -9.799664e+02
   2.718212e+02  -1.028696e+03
   6.378029e+02  -6.409250e+01
   4.571910e+02   7.699302e+02
  -2.110335e+02   8.135971e+02
  -6.850338e+02   6.929272e+01
  -2.634361e+02  -7.272852e+02
   3.803805e+02  -7.197893e+02
   6.970580e+02  -1.416403e+02
   3.732649e+02   3.801647e+02
  -6.207347e+00   4.909660e+02
  -3.173716e+02   2.435863e+02
  -2.359436e+02   8.305351e+01
   4.267328e+01  -9.886873e+01
   4.275530e+02   5.252674e+01
   2.091112e+02   4.700004e+02
  -4.441492e+02   4.533986e+02
  -8.835938e+02   9.748797e-01
  -5.506186e+02  -4.849029e+02
   4.334200e+02  -5.226324e+02
   7.522782e+02   6.064760e+01
   3.832302e+02   4.373450e+02
  -2.969099e+02   5.402857e+02
  -6.003484e+02   2.175140e+02
  -4.325545e+02  -2.249556e+02
  -1.053654e+02  -5.506709e+02
   1.758048e+02  -3.598047e+02
   1.797591e+02   2.299883e+02
  -1.720328e+02   4.841899e+02
  -5.321355e+02   4.763030e+01
  -3.348906e+02  -6.891284e+02
   3.236504e+02  -7.524706e+02
   6.631618e+02  -1.102989e+02
   3.061625e+02   5.930125e+02
  -2.374422e+02   3.857348e+02
  -4.380443e+02  -2.803978e+02
   2.372402e+01  -5.702283e+02
   6.606750e+02  -1.151520e+02
   6.562127e+02   3.815140e+02
   2.345726e+02   6.032099e+02
  -3.759500e+02   3.721871e+02
  -7.006080e+02  -7.288856e+01
  -4.157568e+02  -4.258949e+02
   1.495903e+02  -4.228909e+02
   5.540508e+02  -6.089941e+01
   2.737738e+02   2.500406e+02
  -1.293513e+02   1.856614e+02
  -1.299131e+02  -1.251510e+02
   1.647665e+02  -2.198845e+02
   3.765364e+02   1.057408e+02
   1.883270e+02   2.554813e+02
  -1.803950e+02   2.688253e+02
  -3.396249e+02   5.716767e+01
  -1.985855e+02  -1.327507e+02
   8.997181e+01  -2.158226e+02
   2.159238e+02  -3.437218e+02
   3.422018e+02  -2.167188e+02
   2.907445e+02   1.135976e+02
   1.122624e+02   4.744730e+02
  -1.494382e+02   4.186176e+02
  -1.077197e+02   1.473376e+02
  -3.490402e+01  -2.919773e+01
  -3.845800e+01   8.401689e+01
  -1.745715e+02   1.539537e+02
  -2.689847e+02  -3.910893e+01
  -1.883401e+02  -2.499889e+02
   4.534244e+01  -2.808962e+02
   2.169989e+02  -6.093324e+01
   2.222944e+02   2.326452e+02
   3.813695e+00   3.173217e+02
  -2.279563e+02   1.459633e+02
  -3.606869e+02  -1.312533e+02
  -2.021437e+02  -3.402968e+02
   1.338781e+02  -2.910107e+02
   2.687994e+02  -1.263569e+02
   1.366447e+02   1.254056e+01
   1.455158e+02  -1.309654e+01
   2.129995e+02  -8.616266e+01
   4.285738e+02   4.405869e+01
   3.456592e+02   2.937181e+02
  -2.504073e+01   4.805011e+02
  -3.140682e+02   4.478748e+02
  -5.172978e+02   2.244243e+02
  -3.659988e+02  -5.850422e+01
  -1.001174e+02  -2.990282e+02
   1.356399e+02  -2.906818e+02
   8.706251e+01  -3.122521e+01
  -1.482497e+02   9.712125e+01
  -2.100226e+02  -6.268226e+00
  -8.156872e+01  -1.929628e+02
   1.465438e+02  -2.048988e+02
   1.511653e+02   1.561110e+01
   3.846180e+01   1.870605e+02
  -1.821124e+02   8.513496e+01
  -1.745240e+02  -2.538143e+02
   5.589038e+01  -3.616125e+02
   2.301094e+02  -2.019529e+02
   3.572462e+02   8.798240e+01
   3.092422e+02   2.046847e+02
   1.230606e+02   2.886984e+02
  -1.344405e+02   1.677398e+02
  -1.490459e+02   3.961167e+01
  -3.917167e+01  -3.518838e+01
   6.738402e+01   3.968507e+01
   2.928134e+01   1.395308e+02
  -1.061488e+02   9.900728e+01
  -2.054752e+02  -4.462988e+01
  -9.541575e+01  -7.598527e+01
   8.473844e+01   3.083478e+00
   1.061444e+02   9.131048e+01
  -9.710272e+01   9.641985e+01
  -3.222007e+02   2.749102e+01
  -2.661997e+02  -1.225209e+02
  -7.474614e+01  -2.502712e+02
   2.229088e+02  -2.771750e+02
   2.921496e+02  -1.782491e+02
   1.500449e+02   6.232081e+01
  -3.468876e+00   1.202314e+02
  -1.247981e+02  -9.033082e+00
   4.528674e+01  -9.722963e+01
   1.917525e+02  -7.733466e+01
   2.171187e+02   9.068881e+01
   8.127676e+01   2.580617e+02
  -1.421091e+02   2.111919e+02
  -1.585697e+02   1.866742e+01
  -9.072001e+01  -4.485072e+01
  -4.538293e+00  -5.758547e+00
   5.251612e+01   5.826803e+01
  -5.582549e+01   8.020210e+01
  -1.867886e+02   2.057662e+01
  -1.984744e+02  -1.428472e+02
  -6.676408e+01  -2.218512e+02
   1.905849e+02  -1.826449e+02
   1.899310e+02  -2.730492e+01
   7.438728e+01   1.286879e+02
  -6.722310e+01   1.198709e+02
  -1.041114e+02   1.347629e+01
  -3.224737e+01  -2.509944e+00
   1.727180e+01   5.066873e+00
  -6.238376e+00   2.670892e+01
  -3.482599e+01  -8.042754e+00
  -8.390787e+01  -9.982840e+01
  -3.966152e+01  -1.417551e+02
   1.321550e+02  -1.387636e+02
   2.172931e+02  -3.026979e+01
   1.634572e+02   1.985689e+02
   5.350055e+01   2.475710e+02
  -1.088600e+02   1.730698e+02
  -1.294728e+02   4.324906e+01
  -8.951899e+01  -4.757525e+01
  -2.407463e+01  -2.579940e+01
  -1.983033e+01  -1.200218e+01
  -7.026945e+01   1.978359e+00
  -2.160082e+01  -3.830372e+01
   2.396946e+01  -2.369538e+01
   1.004296e+02  -4.405447e+01
   8.814677e+01   9.315611e+00
  -2.607989e+01   8.304209e+01
  -1.444538e+02   7.778227e+01
  -1.877425e+02  -8.234360e+01
  -1.492245e+02  -1.713439e+02
   1.341755e+02  -2.352796e+02
   2.802919e+02  -1.081025e+02
   3.039167e+02   2.997257e+01
   1.162865e+02   1.603959e+02
  -7.200520e+01   1.501421e+02
  -1.032247e+02   6.072495e+01
  -9.225882e+01   4.097662e+01
  -1.043791e+02   7.164482e+01
  -1.121207e+02   1.016209e+02
  -1.205415e+02  -3.459932e+01
  -9.233687e+01  -1.780669e+02
  -1.742850e+01  -2.046007e+02
   1.328454e+02  -1.763210e+02
   2.115713e+02   1.724756e+01
   1.562112e+02   9.490744e+01
  -2.172790e+00   2.052811e+02
  -8.675182e+01   9.691024e+01
  -7.730623e+01   9.986168e+00
   4.156829e+00  -3.901834e+01
   1.913117e+01  -3.536716e+01
  -1.044187e+01  -2.456091e+00
  -6.256169e+01  -4.595202e+01
  -4.524681e+01  -3.992965e+01
   2.813864e+01  -4.675071e-01
   1.349238e+02  -1.610067e+00
   1.037967e+02   9.458334e+01
  -3.497511e+00   5.618092e+01
  -9.573678e+01   5.735056e+01
  -1.326437e+02   3.358131e+01
  -7.872700e+01  -4.915638e+01
   6.109201e+01  -5.096650e+01
   8.093394e+01   1.856370e+01
  -2.514984e+01   2.727312e+01
  -4.508239e+01   6.928515e+01
  -3.518840e+01   1.392372e+00
  -5.195750e+01  -2.853904e+01
  -5.581257e+01  -6.014350e+01
  -6.385080e+01  -8.395173e+00
  -3.953335e+01   1.667454e+01
  -3.011010e+01  -4.286618e+01
   1.940489e+01  -1.264661e+02
   1.046961e+02  -1.500327e+02
   1.403504e+02  -5.044956e+01
   1.387124e+02   4.037121e+01
   1.129921e+01   1.730331e+02
  -3.958216e+01   5.816858e+01
  -7.518904e+01  -2.791946e+01
   5.353449e+01  -6.297810e+01
   1.571074e+02   2.764982e+01
   9.558660e+01   1.410115e+02
  -1.092343e+02   1.231120e+02
  -1.896738e+02   7.654914e+01
  -1.557926e+02  -4.937404e+01
  -7.434794e+01  -9.462390e+01
   8.883379e+01  -6.974320e+01
   4.279430e+01   1.142173e+01
  -3.493404e+01   2.589595e+01
  -1.426285e+02  -6.821276e+01
  -2.552458e+01  -1.375389e+02
   1.006879e+02  -1.658461e+02
   1.622852e+02  -7.732766e+01
   1.523571e+02   9.028737e+01
  -3.868679e+00   1.690650e+02
  -6.762346e+01   1.197023e+02
  -9.983567e+01  -1.165982e+01
  -7.866358e+01  -1.320840e+02
  -1.025705e+01  -1.132083e+02
   5.283520e+01   2.852303e+00
   7.324337e+01   2.056562e+01
   3.943548e+01  -2.370399e+01
   3.042556e+01  -1.952729e+01
  -1.295057e+01  -7.034488e+00
   7.230329e+01   5.695556e+01
   4.668725e+01   1.326126e+02
  -4.476786e+01   4.511930e+01
  -1.506166e+02  -4.821063e+01
  -1.447967e+02  -8.005130e+01
  -2.765368e+01  -5.989008e+01
   9.258255e+01   1.052925e+01
   7.749464e+01  -2.043918e+01
   3.106674e+01  -4.688219e+00
  -2.924094e+01   1.471777e+01
  -2.530891e+01   3.781876e+01
  -7.732550e+00  -2.498123e+00
  -6.523332e+00  -2.725279e+00
  -1.026259e+02  -2.145652e+01
  -9.956790e+01  -5.996641e-01
  -2.540494e+01  -9.379211e+01
   1.237772e+02  -1.030914e+02
   2.059665e+02  -5.332968e+01
   1.387571e+02   6.831694e+01
   1.774885e+01   1.650103e+02
  -8.626331e+01   1.172939e+02
  -1.014407e+02   7.434008e+01
  -8.811414e+01  -2.640150e+01
  -5.349262e+01  -3.431029e+01
   3.969350e+01  -2.883007e+01
  -5.040489e+00  -8.965206e-02
  -4.552958e+00  -2.096797e+01
  -5.505062e+01  -7.148118e+01
   8.259911e+00  -6.582618e+01
   9.979745e+01   3.343265e+01
   7.289384e+01   1.139605e+02
  -3.272900e+01   1.610363e+02
  -1.033086e+02   2.927119e+01
  -1.187448e+02  -5.879392e+01
  -8.863524e+00  -1.056542e+02
   8.443725e+01  -6.096237e+01
   1.062459e+02   4.159841e+01
   5.043094e+01   3.554678e+01
  -4.570716e+01   4.030153e+01
   6.145546e+00   1.124762e+01
   3.456039e+01   4.383963e+01
   5.447903e+01  -4.687314e+01
   1.617089e+01   1.903209e+00
  -6.786636e+01   5.922390e+01
  -1.343443e+02   3.951531e+01
  -4.119868e+01  -9.874027e+00
   3.395013e+01  -7.994971e+01
   2.564472e+01  -5.469595e+01
   3.759322e+01  -7.922022e-01
   4.339515e+00   2.921507e+01
  -3.927730e+01   3.170178e+01
  -2.029843e+01  -4.461399e+01
  -4.090093e+01  -4.297264e+01
   1.907330e+01  -6.270451e+01
   5.345798e+01   1.094299e+01
   4.884796e+01  -1.555063e+01
  -2.929141e+00   2.519704e+01
   2.270643e-01  -6.399419e+01
   1.010139e+01   2.805243e+01
  -1.638876e+01   2.016064e+01
  -4.624445e+01   3.176406e+01
  -5.803589e+00   3.172786e+01
  -3.224838e+00  -1.601809e+01
   5.622814e+00  -4.887048e+01
   6.509284e+01  -3.723548e+01
   5.727835e+01   7.198513e+00
   1.736592e+01   7.048549e+01
  -3.535994e+01   2.593401e+01
  -1.047537e+02  -5.144772e+00
  -5.537261e+01  -2.071949e+01
   3.620971e+01  -4.102302e+01
   5.232308e+01  -1.195490e+01
   3.978056e+01  -1.196602e+01
  -4.558379e+01   1.947153e+01
  -3.575529e+01   3.993662e+00
   6.149816e+01  -7.727968e+01
   1.480688e+02  -2.038080e+01
