
 $NMID
 id='ANONYMOUS ', fmtdat='(2E16.6)'
 volume=1.0
 tramp=1.0
 $END
  -4.334688e+03   2.002721e+02
  -2.650244e+03  -2.689489e+03
   9.618462e+02  -3.113885e+03
   2.350082e+03  -9.654327e+02
   1.121026e+03   7.953791e+02
  -6.579982e+02   8.785859e+02
  -1.069935e+03  -5.072635e+02
  -5.934868e+01  -1.195570e+03
   7.552403e+02  -7.748973e+02
   8.782245e+02   5.364982e+01
   4.525261e+02   8.519748e+02
  -3.249819e+02   8.722773e+02
  -6.585436e+02   4.263591e+01
  -4.095398e+02  -7.683016e+02
   2.240353e+02  -7.901122e+02
   6.918189e+02  -4.190056e+01
   2.523027e+02   7.173934e+02
  -3.939626e+02   6.911011e+02
  -6.354979e+02   1.083065e+02
  -3.883651e+02  -3.711941e+02
   1.630149e+01  -5.210589e+02
   3.026244e+02  -2.877557e+02
   2.581117e+02  -2.841360e+01
  -6.445144e+01   1.132537e+02
  -3.879147e+02  -5.268682e+01
  -1.742982e+02  -4.552160e+02
   4.629076e+02  -4.384767e+02
   8.654392e+02   2.328641e+01
   4.846387e+02   4.994233e+02
  -4.527740e+02   4.664146e+02
  -7.515856e+02  -1.175699e+02
  -3.376024e+02  -5.385053e+02
   3.022557e+02  -5.230050e+02
   5.878331e+02  -2.200204e+02
   5.243793e+02   1.652770e+02
   7.471085e+01   5.202066e+02
  -1.792701e+02   3.367149e+02
  -1.948659e+02  -2.213252e+02
   1.243058e+02  -5.098959e+02
   5.021964e+02  -1.537414e+01
   2.738257e+02   6.838971e+02
  -3.544896e+02   7.241963e+02
  -6.584822e+02   8.362465e+01
  -2.416731e+02  -6.340341e+02
   2.736030e+02  -3.523538e+02
   5.074614e+02   3.458575e+02
  -2.274500e+01   5.637362e+02
  -6.254257e+02   1.270493e+02
  -6.546885e+02  -3.827075e+02
  -1.915445e+02  -6.210013e+02
   3.953939e+02  -3.244481e+02
   6.575900e+02   6.691165e+01
   4.493612e+02   4.346869e+02
  -1.422641e+02   3.557447e+02
  -5.118390e+02   2.799865e+01
  -2.602454e+02  -2.192494e+02
   1.101646e+02  -1.457183e+02
   1.234517e+02   1.575120e+02
  -1.334470e+02   2.329800e+02
  -3.803117e+02  -9.873425e+01
  -1.781744e+02  -3.170463e+02
   2.407215e+02  -2.427179e+02
   3.697406e+02  -5.543535e+01
   1.916512e+02   6.367069e+01
  -8.411124e+01   1.994642e+02
  -2.649093e+02   2.877204e+02
  -3.096855e+02   1.959854e+02
  -2.753004e+02  -1.316602e+02
  -1.024396e+02  -4.296718e+02
   1.603750e+02  -3.946425e+02
   1.448738e+02  -8.655380e+01
   2.609340e+01   7.794474e+01
   3.923225e+01  -9.010330e+01
   1.803701e+02  -1.307902e+02
   2.738049e+02   6.948438e+01
   1.862471e+02   2.855721e+02
  -7.333398e+01   2.743237e+02
  -2.363203e+02   2.040592e+01
  -1.729000e+02  -2.952503e+02
   1.289082e+01  -2.427920e+02
   2.709796e+02  -1.849339e+02
   4.052491e+02   1.581900e+02
   2.069828e+02   3.596023e+02
  -9.999568e+01   3.239422e+02
  -2.989086e+02   1.109702e+02
  -1.498613e+02   1.449194e-01
  -1.000234e+02   2.415874e+01
  -2.439505e+02   5.949766e+01
  -4.405927e+02  -9.300133e+01
  -3.470038e+02  -2.948244e+02
   4.799917e+01  -4.429431e+02
   4.070227e+02  -4.269730e+02
   5.327918e+02  -1.872623e+02
   3.298228e+02   6.581324e+01
   5.982808e+01   3.060157e+02
  -1.233073e+02   2.786800e+02
  -1.239811e+02   2.882594e+01
   1.351871e+02  -8.224603e+01
   2.221911e+02   3.672308e+01
   9.720599e+01   2.094842e+02
  -1.782485e+02   1.826731e+02
  -1.985103e+02  -6.654309e+01
   2.832285e+01  -2.066277e+02
   2.456034e+02  -7.542268e+01
   1.814664e+02   2.729646e+02
  -5.055686e+01   3.797045e+02
  -2.154082e+02   1.857761e+02
  -3.565257e+02  -1.353923e+02
  -2.680307e+02  -2.437832e+02
  -8.777531e+01  -2.826139e+02
   1.297440e+02  -1.323306e+02
   1.617544e+02  -6.005268e+01
   4.613298e+01   5.006587e+01
  -7.366978e+01  -5.591067e+01
  -3.399658e+01  -1.145644e+02
   1.258867e+02  -1.039743e+02
   2.096659e+02   1.034054e+01
   5.378154e+01   7.144662e+01
  -1.192031e+02  -4.881596e+00
  -4.087910e+01  -7.658938e+01
   1.463580e+02  -1.138010e+02
   3.046438e+02   1.331405e+01
   2.359798e+02   1.025501e+02
   5.145251e+01   2.433185e+02
  -1.866331e+02   2.720891e+02
  -3.068013e+02   1.533673e+02
  -1.539349e+02  -2.881984e+01
   2.358684e+01  -9.786451e+01
   8.323018e+01   1.046016e+01
  -4.725427e+01   1.324934e+02
  -2.261877e+02   7.011068e+01
  -2.248444e+02  -8.732263e+01
  -4.044363e+01  -1.898999e+02
   1.280089e+02  -1.579433e+02
   1.457078e+02  -3.767912e+01
   9.717796e+01   4.420944e+01
  -2.138688e+01   2.388917e+01
  -8.128929e+00  -7.079871e+01
   4.680368e+01  -1.534481e+02
   1.858639e+02  -5.059779e+01
   1.830977e+02   1.204832e+02
   3.207185e+01   2.723453e+02
  -1.707872e+02   1.716088e+02
  -1.866665e+02   3.518551e+01
  -9.414532e+01  -9.195840e+01
   1.183180e+02  -1.258264e+02
   3.949645e+01  -2.504134e+01
   4.438148e+01   7.743711e+00
   3.537893e+00   4.221786e+00
   8.025597e+00  -4.153347e+00
   4.121080e+01   5.872131e+00
   4.904141e+01   7.374936e+01
   1.154158e+00   1.331679e+02
  -1.598376e+02   1.758347e+02
  -2.279405e+02   4.247926e+01
  -2.157486e+02  -1.201791e+02
  -3.610683e+01  -2.418783e+02
   1.029074e+02  -1.325030e+02
   1.635689e+02  -6.113970e+01
   4.256111e+01   5.162892e+01
  -1.670212e+00   1.704902e+01
   3.368408e+01  -1.616286e+01
   8.740932e+01  -2.000999e+01
   1.838163e+01   4.462078e+01
  -2.981362e+01   6.376194e+01
  -1.357086e+02   3.505200e+01
  -3.990491e+01  -1.172079e+01
   4.648857e+01  -1.077722e+02
   1.334074e+02  -1.070393e+02
   1.528163e+02   5.841081e+01
   1.249705e+02   2.123212e+02
  -1.379849e+02   1.940110e+02
  -2.914509e+02   9.746092e+01
  -2.565521e+02  -4.598121e+01
  -1.091128e+02  -1.615119e+02
   6.437210e+01  -1.501941e+02
   1.163789e+02  -9.948304e+01
   1.120687e+02  -4.806834e+01
   6.947345e+01  -7.985020e+01
   8.514183e+01  -7.356396e+01
   1.422276e+02   2.248320e+01
   5.851704e+01   1.451043e+02
   3.795520e+01   2.131995e+02
  -1.501914e+02   1.950656e+02
  -1.863233e+02   4.001224e+01
  -1.780870e+02  -1.071274e+02
   1.617350e+01  -1.500509e+02
   5.790364e+01  -6.893078e+01
   7.707786e+01   1.628158e+01
  -4.075745e+00   6.235870e+01
  -4.023566e+00   2.168660e+01
  -2.289286e+00  -3.259064e+00
   8.482631e+01   4.282259e+01
   5.518052e+01   6.203775e+01
  -5.885265e+01   3.010833e+01
  -9.537023e+01   1.457795e+01
  -1.219247e+02  -9.120304e+01
  -8.146817e+00  -1.189430e+02
   1.662710e+02  -4.386528e+01
   1.412369e+02  -2.047772e+01
   2.734449e+01   1.378278e+01
  -6.049921e+01   2.026307e+01
  -6.060151e+01  -1.291807e+01
  -6.251145e+00  -6.887118e+01
   9.284220e+01  -9.417243e+01
   2.250647e+01  -6.917022e+00
   5.209776e+01   5.778122e+01
   6.535944e+01   3.673945e+01
   4.684278e+01   2.110603e+01
   5.746925e+01   4.139362e+01
   2.139438e+01   6.541345e+01
  -1.304026e+01   1.031723e+02
  -1.020539e+02   1.139671e+02
  -1.522387e+02   2.369876e+01
  -1.521461e+02  -1.266508e+02
  -3.278006e+00  -1.116060e+02
   9.834172e+01  -5.989409e+01
   3.423682e+01   5.472713e+01
  -5.841624e+01  -6.699617e+00
  -1.367019e+02  -3.878857e+01
  -1.199605e+02  -9.483736e+01
   7.438777e+01  -1.078048e+02
   2.187031e+02  -8.613841e+01
   1.953236e+02   4.153362e+01
   7.518326e+01   1.192784e+02
  -7.863282e+01   6.654809e+01
  -6.810582e+01   2.083901e+01
   5.585649e+01  -1.685324e+01
   8.948368e+01   6.494815e+01
   3.216673e+01   1.759228e+02
  -9.531615e+01   1.379934e+02
  -1.734393e+02   6.805097e+01
  -1.232501e+02  -7.125436e+01
  -2.761663e+01  -2.226316e+02
   7.613209e+01  -1.364735e+02
   1.248973e+02   4.030706e+01
   4.051376e+01   1.230628e+02
   8.519445e+00   1.335800e+02
  -5.643827e+01   4.104373e+01
  -4.636465e+01  -1.405545e+01
  -2.378603e+01  -1.731982e+01
   1.945791e+01   9.181322e+00
   4.825461e+00  -1.389554e+01
  -4.838975e+01  -9.161034e+01
  -5.090332e+01  -1.090363e+02
   5.143298e+01  -6.915921e+01
   1.463025e+02   5.005128e+01
   1.321305e+02   9.606693e+01
  -3.599652e+00   8.343364e+01
  -1.150958e+02  -2.288983e+01
  -8.360162e+01  -4.956660e+00
  -7.689001e+00  -2.680496e+01
   4.699598e+01   3.193148e+01
  -2.186092e+01  -1.911943e+01
   1.594491e+01  -1.791503e+01
   3.163102e+01   4.742873e+00
   7.359074e+01  -9.161721e+00
   1.018156e+02   6.222510e+01
  -1.831473e+00   6.716396e+01
  -1.280097e+02   1.186315e+02
  -1.631686e+02   5.657751e+01
  -1.251813e+02  -8.129777e+01
  -3.835232e+01  -1.877990e+02
   6.031202e+01  -1.743409e+02
   1.107532e+02  -4.370194e+01
   9.281129e+01   4.292710e+01
   4.398391e+01   5.150682e+01
  -3.467183e+00   3.010676e+01
   1.682596e+01   1.749167e+01
   2.956504e+01   5.315233e+01
   4.030854e+01   1.123893e+02
  -4.954726e+01   4.929086e+01
  -9.704321e+01  -6.395271e+01
  -2.896890e+01  -1.054595e+02
   4.520704e+01  -1.542492e+02
   1.010715e+02  -2.376688e+01
   1.337689e+02   3.050540e+01
   2.474575e+01   1.301875e+02
  -5.959774e+01   3.714919e+01
  -9.783069e+01  -1.367830e+01
  -5.403975e+01  -3.465437e+01
   2.434773e+01  -5.136668e+01
   7.218692e+01  -2.997983e+01
  -3.299601e+01  -3.646241e+01
  -4.474471e+01   1.572016e+01
  -4.941887e+01  -9.582561e+00
   8.679068e+01  -7.630442e+01
   1.229702e+02  -6.493268e+01
   1.217722e+02   2.343232e+01
  -3.745455e+01   6.258248e+01
  -1.945784e+01   5.404048e+01
  -1.774908e+01   1.256716e+01
  -1.951577e+01  -4.462603e+01
   2.605079e+01  -4.438098e+01
   6.228423e+01   4.165813e+01
   2.711857e+00   5.464568e+01
  -4.159724e+01   2.255518e+01
  -6.581597e+01  -6.492158e+00
  -3.758069e+01  -1.942474e+01
  -2.668208e+01   8.195857e+00
   1.750943e+01   4.792279e+01
   2.457958e+01   2.583748e+00
   5.069780e+01  -3.039345e+01
   8.486846e+00  -1.940035e+01
   2.652563e+00  -3.780423e+01
   4.446375e+01   8.593791e+01
  -2.779454e+01   5.427213e+01
  -4.742564e+01  -2.681454e+01
  -7.237910e+01  -2.926552e+01
  -6.216671e+00  -7.467699e+01
   4.280348e+01  -6.498084e+00
   9.328214e+01   4.197742e+01
   2.875842e+01   7.772979e+01
  -3.131201e+01   3.835627e+01
  -7.416914e+01   1.475765e+00
  -2.258618e+01  -9.303045e+00
   2.378939e+01   6.099848e+00
   4.512945e+01  -3.304803e+01
  -5.992649e+01   6.554536e+01
  -1.145984e+02   2.733820e+01
