
 $NMID
 id='ANONYMOUS ', fmtdat='(2E16.6)'
 volume=1.0
 tramp=1.0
 $END
   4.431516e+03   4.415909e+01
   2.398468e+03   2.874501e+03
  -9.771679e+02   3.084302e+03
  -2.367077e+03   9.192190e+02
  -1.031266e+03  -8.208623e+02
   6.792317e+02  -8.262227e+02
   9.538942e+02   4.388435e+02
  -6.670545e+00   1.177940e+03
  -8.490099e+02   7.609562e+02
  -9.218755e+02  -9.222645e+01
  -4.278145e+02  -8.840958e+02
   3.125032e+02  -9.164142e+02
   6.401604e+02  -4.141985e+00
   3.715294e+02   8.165003e+02
  -2.615751e+02   8.034607e+02
  -6.237609e+02  -1.906374e+01
  -2.625690e+02  -6.844330e+02
   3.875572e+02  -7.150088e+02
   6.702642e+02  -6.197659e+01
   4.101470e+02   3.423168e+02
  -3.253700e+01   4.599725e+02
  -2.821823e+02   2.460374e+02
  -2.768047e+02   1.446992e+01
   8.127830e+01  -1.090882e+02
   4.395036e+02   9.831135e+01
   1.532565e+02   4.517016e+02
  -4.498762e+02   4.653325e+02
  -8.324401e+02  -1.691249e+02
  -5.162975e+02  -5.724325e+02
   4.988699e+02  -4.400014e+02
   8.015806e+02   8.466017e+01
   3.590873e+02   5.073566e+02
  -3.495650e+02   5.037610e+02
  -6.463085e+02   1.590920e+02
  -4.335809e+02  -2.323187e+02
  -9.803785e+01  -5.315774e+02
   2.574457e+02  -2.831774e+02
   1.536940e+02   2.670766e+02
  -2.541175e+02   4.800477e+02
  -4.875720e+02   2.026987e+01
  -2.725507e+02  -6.925774e+02
   3.920555e+02  -7.411500e+02
   6.756211e+02  -4.004123e+01
   2.865715e+02   6.576413e+02
  -3.356502e+02   3.262024e+02
  -4.811201e+02  -3.596400e+02
   9.087451e+01  -6.289534e+02
   5.970217e+02  -7.781444e+01
   6.655618e+02   4.457093e+02
   1.569890e+02   6.513471e+02
  -4.372215e+02   3.475356e+02
  -6.829182e+02  -1.086742e+02
  -3.954714e+02  -4.202255e+02
   1.689509e+02  -4.029516e+02
   5.181628e+02   6.052378e-03
   2.158048e+02   2.444689e+02
  -1.690742e+02   1.299771e+02
  -9.780054e+01  -1.585695e+02
   1.564721e+02  -1.734628e+02
   3.682305e+02   1.109922e+02
   1.454333e+02   2.969145e+02
  -1.863147e+02   2.805825e+02
  -3.637579e+02   8.641717e+01
  -2.076134e+02  -1.196838e+02
   3.636030e+01  -1.933573e+02
   2.538131e+02  -3.434876e+02
   3.422193e+02  -2.473679e+02
   3.296480e+02   1.499946e+02
   7.484494e+01   4.467813e+02
  -9.708047e+01   4.252012e+02
  -1.050831e+02   1.112114e+02
  -1.233010e+01  -6.527048e+01
  -2.517514e+01   1.106331e+02
  -1.685910e+02   1.568250e+02
  -3.147623e+02  -6.304430e+01
  -1.774996e+02  -2.416791e+02
   5.680977e+01  -2.798006e+02
   2.616765e+02  -2.022832e+01
   2.129029e+02   2.522358e+02
  -5.198906e+01   2.669488e+02
  -2.577737e+02   1.348956e+02
  -3.898138e+02  -1.725026e+02
  -1.961135e+02  -3.608611e+02
   8.785078e+01  -3.103217e+02
   2.102352e+02  -1.176086e+02
   1.485685e+02   3.401366e+00
   9.664829e+01  -3.227158e+01
   2.143390e+02  -4.922237e+01
   4.372400e+02   1.135872e+02
   3.194664e+02   3.006090e+02
  -1.736253e+01   4.196601e+02
  -3.706978e+02   4.673005e+02
  -4.814832e+02   1.990253e+02
  -3.542715e+02  -1.150656e+02
  -6.304005e+01  -3.091392e+02
   1.395156e+02  -3.113531e+02
   9.980011e+01  -3.396435e+01
  -1.292391e+02   9.556970e+01
  -1.714498e+02  -4.804435e+00
  -4.271287e+01  -2.325620e+02
   1.949976e+02  -1.712513e+02
   1.886600e+02   9.358912e+01
   1.143574e+01   2.267114e+02
  -2.237509e+02   4.515645e+01
  -1.853203e+02  -2.854842e+02
   6.632143e+01  -3.669052e+02
   2.064439e+02  -2.029475e+02
   3.338016e+02   1.059111e+02
   2.759646e+02   1.992938e+02
   8.265019e+01   2.586463e+02
  -1.046428e+02   1.708908e+02
  -1.786718e+02   3.196415e+01
  -6.983954e+01  -7.355853e+01
   8.763198e+01   5.656222e+01
   4.514837e+01   1.210379e+02
  -1.091171e+02   1.119295e+02
  -1.691606e+02  -3.657523e+01
  -7.864714e+01  -6.163350e+01
   7.922481e+01  -7.963021e+00
   4.821055e+01   6.148484e+01
  -1.435887e+02   7.408200e+01
  -3.005070e+02  -1.476133e+01
  -2.414116e+02  -1.595902e+02
  -5.411296e+01  -2.603826e+02
   2.104488e+02  -2.738011e+02
   2.629779e+02  -1.581636e+02
   1.595218e+02   6.863479e+01
  -3.365687e+01   1.378103e+02
  -1.034630e+02  -2.636194e+01
   1.252674e+01  -1.347677e+02
   1.873477e+02  -3.839536e+01
   2.434085e+02   1.037380e+02
   2.058507e+01   2.021314e+02
  -1.208824e+02   1.222151e+02
  -1.346537e+02  -3.539227e+00
  -5.965104e+01  -4.685476e+01
   3.449071e+01  -2.844506e+01
   4.401699e+01   4.470734e+01
  -7.778810e+01   1.026721e+02
  -1.813864e+02   5.023401e+01
  -1.981116e+02  -1.025450e+02
  -3.090028e+01  -2.595775e+02
   2.047177e+02  -1.945185e+02
   2.002923e+02  -3.973221e+01
   5.418243e+01   1.070449e+02
  -7.544393e+01   1.256972e+02
  -1.008519e+02   1.942477e+01
  -3.704220e+01  -9.470096e+00
   3.600087e+01  -6.196015e+00
   2.347411e+01   1.177641e+01
  -7.388992e+01   9.779336e+00
  -4.556109e+01  -4.626590e+01
  -3.609833e+01  -1.453840e+02
   1.388112e+02  -1.797223e+02
   2.320234e+02  -1.761710e+00
   1.824079e+02   1.791927e+02
   3.564195e+01   2.518654e+02
  -1.151603e+02   1.513131e+02
  -1.145423e+02   3.686024e+01
  -6.892358e+01  -6.163287e+01
  -4.080277e+01  -1.596540e+01
  -4.719048e+01   4.387049e+00
  -9.847427e+01   4.235466e+01
  -2.429598e+01  -5.161369e+01
   8.534166e+01  -1.216634e+02
   9.843838e+01  -3.404000e+01
   8.482690e+01   4.595353e+01
  -4.413509e+01   1.496581e+02
  -1.436608e+02   8.221480e+01
  -1.987133e+02  -6.626827e+01
  -9.736084e+01  -2.084630e+02
   1.378341e+02  -2.167950e+02
   3.082049e+02  -3.718056e+01
   2.712369e+02   5.501734e+01
   1.354978e+02   1.816270e+02
  -8.046375e+01   1.369238e+02
  -1.302828e+02   9.290250e+01
  -8.678076e+01   9.622994e+01
  -5.514226e+01   5.880157e+01
  -6.208729e+01   8.782709e+01
  -1.121375e+02  -2.336964e+00
  -7.365408e+01  -1.519010e+02
  -5.121637e+01  -2.079794e+02
   1.006544e+02  -1.508877e+02
   1.962193e+02  -1.170433e+01
   1.425301e+02   1.199107e+02
   2.896992e+01   1.403452e+02
  -1.095790e+02   7.570418e+01
  -2.216130e+01   4.130869e+00
   9.905818e+00   3.224647e+00
  -2.001603e+01  -4.063055e+01
  -5.621449e+01  -1.914263e+01
  -7.543988e+01  -4.470963e+01
  -8.612237e+01  -2.870660e+01
   5.703353e+01  -2.074645e+01
   1.603521e+02   2.229066e+01
   1.476333e+02   6.947302e+01
  -9.969872e+00   5.898163e+01
  -1.345666e+02   7.255376e+01
  -1.447729e+02   1.381166e+01
  -5.473661e+01  -1.520362e+01
   2.994266e+01  -5.466247e+01
   7.676428e+01   4.452734e+00
  -2.129646e+01   8.797823e+01
  -6.514206e+01   3.035542e+01
  -7.116174e+01  -1.498446e+01
  -2.374871e+01  -6.975719e+01
  -6.432400e+01  -1.354092e+01
  -8.048741e+01   1.141441e+01
  -6.593156e+01   5.342908e+00
  -3.353992e+01  -7.078863e+01
   4.220359e+01  -1.074534e+02
   1.360052e+02  -1.544068e+02
   1.879109e+02   1.588725e+01
   1.500179e+02   1.283117e+02
   3.177356e+01   1.313600e+02
  -9.715157e+01   6.907742e+01
  -2.440451e+01  -3.060870e+01
   6.224311e+01  -2.596106e+01
   1.169816e+02   6.213089e+01
   1.070959e+02   1.358017e+02
  -7.817953e+01   1.020237e+02
  -1.777684e+02   3.613994e+01
  -1.991768e+02  -3.816145e+01
  -2.720786e+01  -8.587286e+01
   5.954182e+01  -6.946807e+01
   5.233621e+01  -1.278896e+01
  -6.332929e+01   2.858220e+01
  -1.127274e+02  -5.751091e+01
  -3.854697e+01  -1.115166e+02
   1.221989e+02  -1.940446e+02
   1.583352e+02  -7.742030e+01
   8.765844e+01   1.264070e+02
   2.499748e+01   1.786404e+02
  -7.873611e+01   1.525930e+02
  -9.586536e+01  -8.799917e+00
  -7.309522e+01  -1.423256e+02
  -8.063074e+00  -1.019918e+02
   7.260907e+01  -5.523251e+01
   2.896355e+01   5.652263e+01
   4.644446e+01  -1.713645e+01
   1.035035e+01  -1.814940e+01
   1.776597e+01   2.702195e+01
   2.586515e+01   8.529026e+01
   3.903708e+01   8.043040e+01
  -5.168477e+01   4.921611e+01
  -1.538812e+02  -1.666454e+01
  -1.307225e+02  -1.225439e+02
  -3.282486e+00  -6.819324e+01
   1.236711e+02  -1.776499e+01
   1.071577e+02  -1.789738e+01
   3.484687e+01  -2.294914e+01
  -5.171218e+01  -1.097931e+01
   1.897041e+00   2.578725e+01
   5.355111e+01   1.815881e+01
   1.679959e+01  -3.782405e+01
  -1.037752e+02  -2.594077e+00
  -1.148784e+02  -1.523353e+01
  -2.030587e+01  -9.864979e+01
   1.290714e+02  -1.305891e+02
   1.628835e+02  -9.278320e+01
   1.230431e+02   1.008422e+02
   1.113603e+01   1.392018e+02
  -7.741635e+01   1.432511e+02
  -1.146338e+02   6.725680e+01
  -5.175336e+01  -2.626545e+01
  -1.208576e+01  -6.418791e+01
   4.880111e-01  -2.560798e+01
  -4.128123e+01  -3.698892e+01
  -3.797222e+01  -2.173664e+01
  -3.067177e+01  -7.651582e+01
   2.814640e+01  -4.722642e+01
   6.871640e+01   3.872517e+01
   7.940849e+01   9.639562e+01
   9.808505e+00   1.332337e+02
  -6.005780e+01   1.757737e+01
  -1.321619e+02  -2.728240e+01
  -1.163458e+01  -8.235037e+01
   8.789935e+01  -1.991185e+01
   1.273189e+02   8.496244e+00
   2.572857e+01   3.543850e+01
  -5.594493e+01   6.464269e+01
  -2.555577e+01   5.292944e+01
   2.221203e+01  -3.990998e-01
   1.060862e+02  -3.334967e+01
   7.795202e+00   1.830848e+01
  -9.203669e+01   4.069867e+01
  -1.337311e+02   9.821300e+01
  -5.737982e+01   1.710290e+01
   2.145976e+01  -5.280129e+01
   4.886585e+01  -6.490516e+01
   2.775538e+01   4.584110e+01
   6.355362e-01   4.553627e+01
  -2.203366e+01   3.762949e+01
  -3.795460e+01  -3.145403e+01
  -1.340325e+01  -3.455233e+01
   5.022702e+00  -2.952196e+01
   4.050828e+01   1.128647e+01
   3.404196e+01   3.794156e+01
   4.356872e+00  -1.919184e+01
   2.753188e+01   1.485632e+00
  -3.297852e+01   2.100099e+01
  -1.086633e+01   5.114807e+01
  -1.177496e+01   4.085902e+01
  -3.551878e+01   4.088138e+01
  -7.236715e+00  -5.448309e+01
   2.011203e+01  -7.479572e+01
   5.127913e+01  -3.870456e+01
   6.124555e+01   2.339533e+01
   5.316894e+01   6.637550e+01
  -6.615568e+01  -6.213621e+00
  -7.788435e+01  -7.381564e+00
  -4.579993e+01  -6.554278e+01
   9.330119e+00  -3.856433e+01
   6.824661e+01  -2.822947e+01
   5.418123e+00   1.516395e+01
  -6.206753e+01  -4.322911e+01
  -5.427040e+01  -7.359907e+00
   2.561358e+01  -3.695432e+01
   1.008535e+02  -5.735532e+01
