
 $NMID
 id='ANONYMOUS ', fmtdat='(2E16.6)'
 volume=1.0
 tramp=1.0
 $END
   4.216566e+03   7.691093e+01
   2.318316e+03   2.156888e+03
  -5.890193e+02   2.534003e+03
  -1.789723e+03   9.212288e+02
  -8.176540e+02  -4.289744e+02
   5.571378e+02  -4.654417e+02
   7.395265e+02   3.670637e+02
   3.098275e+00   9.361122e+02
  -8.526669e+02   7.071321e+02
  -8.331367e+02  -5.158143e+01
  -4.280021e+02  -7.694358e+02
   2.134417e+02  -8.613517e+02
   4.944111e+02  -1.952208e+02
   3.158598e+02   6.325643e+02
  -2.651401e+02   7.684813e+02
  -5.335288e+02   1.132697e+01
  -2.606255e+02  -5.893800e+02
   2.987929e+02  -5.760082e+02
   5.567564e+02  -6.116398e+01
   3.819855e+02   3.523244e+02
   4.522106e+01   4.330011e+02
  -2.261382e+02   3.082950e+02
  -1.970596e+02  -1.461265e+01
   1.663436e+02  -8.720783e+01
   3.887792e+02   2.018607e+02
   1.820109e+02   4.574808e+02
  -4.252113e+02   3.367866e+02
  -7.818970e+02  -8.214905e+01
  -3.730019e+02  -5.491862e+02
   4.078149e+02  -4.665394e+02
   7.391544e+02   3.567457e+01
   3.083804e+02   4.864266e+02
  -2.261932e+02   4.434094e+02
  -5.536222e+02   1.336548e+02
  -4.125275e+02  -2.255618e+02
  -5.489460e+01  -4.460403e+02
   1.479705e+02  -2.722950e+02
   1.289454e+02   2.146125e+02
  -2.185507e+02   3.894008e+02
  -4.409947e+02  -6.269573e+01
  -1.989301e+02  -5.306674e+02
   2.749283e+02  -5.276538e+02
   4.843459e+02  -1.892414e+01
   2.567362e+02   5.675477e+02
  -2.796662e+02   3.502838e+02
  -3.929973e+02  -3.194985e+02
   9.180619e+01  -4.419998e+02
   5.661705e+02  -1.546409e+02
   5.391519e+02   4.106753e+02
   1.743363e+02   5.924084e+02
  -3.495544e+02   3.087079e+02
  -6.553561e+02  -1.355262e+02
  -3.492569e+02  -3.576284e+02
   1.032371e+02  -3.131431e+02
   4.338032e+02  -5.302623e+00
   1.961553e+02   1.594977e+02
  -7.885817e+01   1.289323e+02
  -9.053283e+01  -1.289791e+02
   1.554138e+02  -1.673326e+02
   3.449158e+02   4.152052e+01
   1.103956e+02   2.874809e+02
  -1.748373e+02   2.314670e+02
  -3.099668e+02   4.791857e+01
  -2.217049e+02  -1.127190e+02
   5.661818e+01  -2.084349e+02
   2.353873e+02  -3.726486e+02
   3.765307e+02  -2.294953e+02
   2.426126e+02   1.814801e+02
   3.944032e+01   3.775390e+02
  -1.186175e+02   2.895565e+02
  -5.223640e+01   1.126716e+02
  -4.614979e+01   4.859560e+01
  -8.809553e+01   6.978472e+01
  -2.058943e+02   1.331401e+02
  -2.335142e+02  -3.409340e+01
  -1.419411e+02  -2.743164e+02
   7.510456e+01  -2.436188e+02
   2.182701e+02   3.022602e+01
   1.608659e+02   2.386058e+02
  -1.155747e+01   3.338620e+02
  -2.452495e+02   8.731473e+01
  -3.401817e+02  -1.402158e+02
  -1.981280e+02  -4.055251e+02
   1.085448e+02  -2.684743e+02
   2.119493e+02  -1.184828e+02
   1.438821e+02  -9.014201e+00
   9.676811e+01  -7.411132e+01
   2.503492e+02  -5.494268e+01
   4.094364e+02   4.755728e+01
   3.709710e+02   2.887736e+02
   8.232547e+00   4.081487e+02
  -3.718731e+02   4.012464e+02
  -5.175658e+02   1.385336e+02
  -3.346443e+02  -8.948304e+01
  -2.960532e+01  -3.065822e+02
   1.367840e+02  -2.325826e+02
   9.589361e+01  -6.261966e+01
  -1.086412e+02   7.963228e+01
  -1.815368e+02  -5.164663e+01
   1.572253e+01  -1.685859e+02
   1.489270e+02  -1.887705e+02
   1.625252e+02   4.695850e+01
  -3.040998e+01   1.536362e+02
  -1.703650e+02   1.714459e+01
  -1.333318e+02  -2.608635e+02
   9.478658e+00  -3.309217e+02
   1.981017e+02  -1.403614e+02
   3.089337e+02   8.675651e+01
   2.818645e+02   2.260439e+02
   1.135186e+02   2.510270e+02
  -1.149270e+02   1.741060e+02
  -1.445010e+02   3.991927e+01
  -5.093822e+01  -1.763877e+01
   8.900039e+01   6.362594e+01
   2.256752e+01   1.307141e+02
  -8.829692e+01   9.457328e+01
  -1.687100e+02   1.040519e+00
  -2.684307e+01  -2.357489e+01
   1.118096e+02   2.533522e+01
   3.560997e+01   8.210735e+01
  -1.398038e+02   1.050818e+02
  -3.048004e+02   1.696527e+01
  -2.582180e+02  -1.591934e+02
  -1.506741e+01  -2.900686e+02
   1.716915e+02  -2.395703e+02
   2.554716e+02  -9.528924e+01
   1.561826e+02   2.740025e+01
  -3.141583e+01   7.938005e+01
  -1.310123e+02   6.624065e+00
   7.515573e+01  -1.185878e+02
   2.033103e+02  -4.355659e+01
   2.000595e+02   1.062015e+02
   8.010289e+01   1.622860e+02
  -1.035910e+02   1.625444e+02
  -1.447263e+02   2.014543e+01
  -6.468729e+01  -4.354103e+01
   4.196504e+01  -2.047600e+01
   6.446368e+01   8.610781e+01
  -7.689267e+01   8.776348e+01
  -1.929137e+02   4.117513e+01
  -1.632022e+02  -1.098463e+02
  -9.680722e-01  -2.519923e+02
   1.571412e+02  -1.483039e+02
   1.842513e+02  -5.777980e+00
   6.206950e+01   1.044416e+02
  -7.017964e+01   6.748054e+01
  -1.346952e+02   7.189430e+01
  -5.444102e+01  -6.620233e+00
   3.782506e+01  -8.868856e+00
  -1.660355e+01   2.077069e+01
  -6.358075e+01  -3.460313e+00
  -7.191520e+01  -1.068569e+02
  -1.390928e+01  -1.464402e+02
   1.348724e+02  -1.184412e+02
   2.741593e+02  -2.888071e+01
   1.626143e+02   1.692505e+02
   6.540145e+01   2.209231e+02
  -1.372958e+02   1.829876e+02
  -1.164750e+02   1.764971e+01
  -5.053509e+01  -6.653702e+01
   1.205713e+00  -4.463489e+01
  -8.071855e+01  -3.324286e+00
  -8.992564e+01  -1.099105e+01
  -6.479952e+01  -3.232390e+01
   3.751454e+01  -7.511839e+01
   1.030329e+02  -6.301359e+01
   5.764003e+01   4.274240e+01
  -1.262283e+01   1.176767e+02
  -1.533950e+02   7.812156e+01
  -1.952440e+02  -7.413002e+01
  -9.673714e+01  -2.135051e+02
   8.217276e+01  -2.323115e+02
   2.398337e+02  -1.332317e+02
   2.494733e+02   1.187689e+02
   1.050155e+02   1.827827e+02
  -6.035227e+00   1.404308e+02
  -9.954913e+01   7.775104e+01
  -6.451214e+01   7.220689e+01
  -6.484270e+01   5.742923e+01
  -7.470281e+01   8.405311e+01
  -1.380442e+02  -1.950223e+01
  -1.516830e+02  -2.022476e+02
  -2.677295e+01  -2.310460e+02
   7.042254e+01  -1.652899e+02
   1.429919e+02   5.746085e+00
   1.354203e+02   1.458425e+02
   4.442694e+01   1.749935e+02
  -1.119319e+02   6.425355e+01
  -4.317326e+01  -8.144736e+00
   2.770577e+01  -2.376409e+01
   3.027902e+00  -5.491616e+01
  -2.197855e+01  -1.547957e+01
  -1.116539e+02  -1.412386e+01
  -7.112880e+01  -5.407764e+01
   2.924361e+01  -4.550493e+01
   1.434454e+02   1.874411e+01
   1.219168e+02   3.996078e+01
  -7.188732e+00   9.636054e+01
  -1.613220e+02   4.832717e+01
  -1.164504e+02   1.621446e+01
  -8.247253e+01  -4.520495e+01
   6.097801e+01  -4.167534e+01
   9.742230e+01   4.858169e+01
   2.280163e+01   4.132290e+01
  -5.992712e+01   6.162557e+01
  -7.886358e+01   8.535868e+00
  -4.282230e+01  -6.281996e+01
  -2.635878e+01  -5.117098e+01
  -2.986566e+01  -6.560594e+00
  -4.604633e+01  -8.854235e+00
  -2.022577e+01  -4.488378e+01
   5.630370e+01  -1.615115e+02
   1.080377e+02  -1.142707e+02
   1.899306e+02  -2.031449e+01
   1.371556e+02   1.077652e+02
  -6.282540e+00   1.314684e+02
  -7.648881e+01   5.442791e+01
  -6.947762e+01  -4.890302e+01
   4.469381e+01  -3.706024e+00
   1.264661e+02   3.592640e+01
   1.035510e+02   1.045246e+02
  -6.994109e+01   9.342976e+01
  -1.831126e+02   6.830375e+01
  -1.783391e+02  -2.857010e+00
  -4.258274e+01  -9.433902e+01
   1.159997e+01  -5.159509e+01
   5.944288e+01  -7.275295e+00
  -9.681261e+01   1.928348e+01
  -4.197084e+01  -1.987727e+01
   6.006872e+00  -1.092617e+02
   8.340963e+01  -1.435976e+02
   1.935213e+02  -7.548540e+01
   1.232720e+02   7.621996e+01
   3.313288e+01   1.980396e+02
  -9.246268e+01   1.268730e+02
  -1.224009e+02  -1.704621e+01
  -5.605133e+01  -1.463601e+02
   4.773940e+00  -1.336888e+02
   3.005408e+01   2.197780e+00
   2.834424e+01   8.344499e+01
   1.196507e+01  -4.532497e+00
   4.524516e+01  -3.204279e+01
   9.091845e+00   1.556503e+01
   6.906680e+01   1.031901e+02
   5.086055e+01   1.402831e+02
  -3.967402e+01   5.272993e+01
  -1.451625e+02  -1.890257e+01
  -1.516794e+02  -7.007810e+01
  -1.863260e+01  -6.513403e+01
   5.635211e+01  -2.798904e+01
   9.200078e+01  -2.279430e+01
   4.029887e+01   6.409233e+00
  -5.619162e+01   3.849413e+01
  -7.684883e+00  -1.446065e+01
   5.251813e+01   2.717378e+00
  -1.938204e+01   1.494384e+01
  -7.636691e+01  -2.277092e+01
  -8.397099e+01  -1.450504e+01
  -2.651116e+01  -6.020551e+01
   9.771220e+01  -1.285712e+02
   2.222852e+02  -7.254156e+01
   1.565429e+02   5.523787e+01
   7.145589e+00   1.446401e+02
  -6.917568e+01   1.796412e+02
  -1.208293e+02   5.000873e+01
  -9.028405e+01   1.250315e+01
  -2.048654e+01  -3.899933e+01
   4.713566e+01  -2.587461e+01
   1.342351e+01  -1.589044e+01
   2.054676e+01  -3.510917e+01
  -2.234379e+01  -9.550703e+01
   8.726274e+00  -6.310369e+01
   7.748645e+01  -2.265242e+00
   9.839152e+01   1.154223e+02
   1.709029e+01   1.098662e+02
  -7.029659e+01   2.665567e+01
  -1.090187e+02  -7.487227e+01
  -5.695508e+01  -6.754799e+01
   6.014302e+01  -7.179713e+01
   1.071482e+02  -1.426050e+01
   3.725823e+01   5.488862e+01
  -3.447932e+01   5.367509e+01
  -1.992842e+00   2.662789e-01
   4.707159e+01  -2.499176e+01
   6.653620e+01  -1.105255e+01
   2.097384e+01   4.620084e+01
  -7.356903e+01   6.480361e+01
  -1.069347e+02   5.033577e+01
  -2.751668e+01   3.877202e+01
   8.050548e+00  -9.453925e+01
   1.110157e+02  -1.166950e+02
   3.300597e+01   7.405207e+00
   2.080300e+01   4.389419e+01
  -1.261363e+01   2.945454e+01
  -4.868445e+01   1.060918e+01
  -3.716205e+01  -9.420801e+00
   2.920320e-01  -2.716043e+01
   2.325439e+01   2.877514e+01
   5.059314e+01   4.683728e+01
   1.945742e+01   9.483827e+00
  -3.243874e+01   1.977071e+01
   2.125957e+00   5.729054e+00
   8.408904e+00   1.945893e+00
   7.659933e+00   5.701272e+01
  -1.396528e+01  -3.854005e+00
  -4.504737e+01  -7.416509e+01
   3.465734e+00  -8.448207e+01
   2.529909e+01   1.313272e+01
   6.112046e+01   4.557169e+01
  -3.445188e+00   4.987344e+01
  -8.158327e+01   5.802057e+01
  -7.270200e+01  -3.851615e+01
  -5.111210e+01  -1.012682e+02
   2.443905e+01  -4.009928e+01
   6.298215e+01  -4.093622e+01
   1.910040e+01  -4.224796e+01
  -4.999143e+01   1.871726e+01
  -2.891583e+01   8.922260e+00
   2.315871e+01   1.191176e+01
   9.517962e+01  -2.135872e+01
