
 $NMID
 id='ANONYMOUS ', fmtdat='(2E16.6)'
 volume=1.0
 tramp=1.0
 $END
   4.364537e+03  -1.680273e+01
   2.230430e+03   2.282107e+03
  -3.493128e+02   2.754580e+03
  -2.059867e+03   8.656093e+02
  -9.591458e+02  -5.805901e+02
   6.547033e+02  -4.998866e+02
   8.059894e+02   4.606239e+02
   3.393447e+01   1.121858e+03
  -8.194756e+02   7.571420e+02
  -9.687456e+02  -1.455911e+02
  -4.082864e+02  -7.451147e+02
   2.391055e+02  -9.298373e+02
   5.977085e+02  -1.184358e+02
   3.536544e+02   5.928550e+02
  -2.915474e+02   7.706595e+02
  -5.699101e+02  -1.110785e+01
  -3.084385e+02  -5.987092e+02
   3.449431e+02  -6.232762e+02
   6.149395e+02  -1.219677e+02
   4.358447e+02   3.849397e+02
   2.698823e+01   4.828508e+02
  -2.386292e+02   2.842688e+02
  -2.098067e+02   1.594496e+01
   1.476484e+02  -6.253688e+01
   3.276957e+02   1.421684e+02
   2.251200e+02   4.225050e+02
  -4.335205e+02   4.111100e+02
  -8.544559e+02  -8.136446e+01
  -4.625019e+02  -5.596337e+02
   4.577918e+02  -5.049903e+02
   7.505643e+02   7.245817e+01
   3.623484e+02   5.104485e+02
  -2.360550e+02   4.917248e+02
  -5.200980e+02   1.686102e+02
  -3.709841e+02  -2.712437e+02
  -1.111127e+02  -5.059360e+02
   1.619550e+02  -2.063184e+02
   6.188174e+01   1.909021e+02
  -1.294310e+02   4.454030e+02
  -5.061531e+02  -5.283835e+01
  -1.546797e+02  -6.116171e+02
   2.627567e+02  -6.132849e+02
   6.309715e+02   2.391478e+01
   2.776710e+02   5.865601e+02
  -3.490179e+02   3.267689e+02
  -3.934747e+02  -2.876231e+02
   7.123379e+01  -5.561842e+02
   5.668533e+02  -1.313024e+02
   7.031854e+02   4.298182e+02
   1.857695e+02   6.406096e+02
  -3.420847e+02   3.375419e+02
  -6.955227e+02  -3.557556e+01
  -3.736014e+02  -3.979690e+02
   1.129151e+02  -3.034393e+02
   4.711106e+02  -1.607826e+02
   2.717375e+02   1.368481e+02
  -9.906954e+01   1.175548e+02
  -1.273621e+02  -1.119643e+02
   1.317765e+02  -1.859867e+02
   3.594049e+02   3.303220e+01
   1.688248e+02   2.815599e+02
  -1.589192e+02   2.202910e+02
  -2.819024e+02   7.445935e+01
  -2.056202e+02  -1.331150e+02
   5.674502e+01  -1.748975e+02
   2.459747e+02  -3.712585e+02
   3.259597e+02  -2.366073e+02
   2.942042e+02   1.349053e+02
   6.066882e+01   4.291127e+02
  -5.900427e+01   3.669824e+02
  -9.863032e+01   1.529585e+02
  -3.778325e+00  -1.568074e+01
  -8.745833e+01   8.669828e+01
  -2.227204e+02   9.521834e+01
  -2.551028e+02  -7.673667e+01
  -1.002103e+02  -2.188154e+02
   7.758422e+01  -2.579526e+02
   2.304782e+02  -5.812207e+00
   1.266477e+02   2.622025e+02
  -3.139919e+01   3.120460e+02
  -2.447111e+02   1.082918e+02
  -3.582622e+02  -1.846608e+02
  -1.865204e+02  -3.877354e+02
   6.620118e+01  -2.853578e+02
   2.138407e+02  -1.561652e+02
   1.648418e+02  -4.152377e+01
   1.051456e+02  -2.480030e+00
   2.448218e+02  -7.921011e+01
   3.741745e+02   5.125187e+01
   3.907268e+02   3.016437e+02
   2.517334e+01   4.358276e+02
  -3.484509e+02   4.116889e+02
  -5.162577e+02   1.751237e+02
  -3.312086e+02  -1.582281e+02
  -5.867708e+01  -2.971622e+02
   1.316936e+02  -2.597493e+02
   6.633686e+01  -1.002697e+01
  -9.588309e+01   1.273136e+02
  -1.196048e+02  -2.754400e+00
  -2.428056e+01  -2.348035e+02
   1.880360e+02  -1.482305e+02
   1.598041e+02   2.382960e+01
  -2.798346e+01   1.455644e+02
  -1.936558e+02   1.842157e+01
  -1.339451e+02  -2.627050e+02
   3.023995e+01  -2.901158e+02
   2.547854e+02  -1.930327e+02
   3.786523e+02   4.558476e+01
   2.669371e+02   2.320670e+02
   8.547223e+01   2.621344e+02
  -1.209999e+02   2.070233e+02
  -1.317543e+02   2.667304e+01
  -5.424333e+01  -1.420401e+01
   9.620497e+01   3.145824e+01
   4.461637e+01   1.416561e+02
  -1.180345e+02   7.233714e+01
  -1.872208e+02  -3.217586e+01
  -6.892422e+01  -5.624469e+01
   1.259358e+02  -3.341625e+01
   3.811557e+01   8.668297e+01
  -9.578200e+01   9.848644e+01
  -2.537022e+02   1.673742e+00
  -3.228460e+02  -1.509276e+02
  -6.568693e+01  -2.047602e+02
   1.752970e+02  -2.536990e+02
   2.876933e+02  -1.426947e+02
   1.698368e+02   8.654817e+01
  -1.634129e+01   1.082069e+02
  -9.694211e+01   2.941870e+01
   4.341522e+01  -9.852243e+01
   2.203393e+02  -4.339935e+01
   2.302071e+02   6.505293e+01
   2.328566e+01   2.127337e+02
  -8.116967e+01   2.082473e+02
  -1.193270e+02   1.321215e+01
  -8.783985e+01  -2.836071e+01
   5.531535e+01  -1.137681e+01
   1.051752e+01   7.236310e+01
  -6.563582e+01   1.128980e+02
  -1.761374e+02   7.552901e+00
  -1.689351e+02  -8.979243e+01
  -6.001515e+01  -2.506200e+02
   1.938562e+02  -1.525605e+02
   1.652654e+02  -1.019892e+00
   7.037813e+01   1.223069e+02
  -6.582920e+01   1.192877e+02
  -6.615705e+01   3.690538e+01
  -1.565004e+01  -6.636739e+01
   5.633235e+01   1.397394e+01
  -2.997379e+01  -1.620989e+01
  -8.813854e+01  -9.611729e-01
  -1.080539e+02  -7.881056e+01
   2.636232e+01  -1.455838e+02
   1.177180e+02  -1.751208e+02
   2.618129e+02  -7.353781e+00
   2.156738e+02   1.166594e+02
   2.156665e+01   2.068536e+02
  -1.157288e+02   1.792436e+02
  -1.541311e+02   3.069962e+01
  -4.618113e+01  -8.442927e+01
  -2.095849e+01  -1.341765e+01
  -6.711288e+01   2.110760e+01
  -1.222485e+02   3.073328e+01
  -4.093572e+01  -2.865806e+01
   4.845782e+01  -1.112849e+02
   9.372170e+01  -6.690430e+01
   9.518690e+01   3.833838e-01
  -6.950851e+00   9.151055e+01
  -1.545226e+02   9.335437e+01
  -1.753663e+02  -5.896031e+01
  -1.016792e+02  -2.111406e+02
   1.755273e+02  -2.190666e+02
   2.790306e+02  -1.004890e+02
   2.892212e+02   7.206302e+01
   1.466545e+02   1.768632e+02
  -5.361724e+01   1.221996e+02
  -9.860871e+01   9.567721e+01
  -9.583622e+01   2.463511e+01
  -9.531801e+01   6.876717e+01
  -1.091736e+02   7.142171e+01
  -1.521850e+02  -1.302059e+01
  -1.494783e+02  -1.433623e+02
  -5.124360e+01  -2.291708e+02
   1.017267e+02  -1.634074e+02
   1.202012e+02  -3.522075e+01
   1.109258e+02   1.312526e+02
   1.088077e+01   1.884090e+02
  -3.252446e+01   6.792734e+01
  -8.348676e+01  -1.120844e+01
   2.345777e+01  -6.989423e+01
  -1.108640e+01  -5.398269e+01
  -3.662673e+01  -2.947544e+01
  -7.638151e+01  -4.172002e+00
  -3.856672e+01  -1.916741e+01
   8.406408e+01  -4.924279e+01
   1.652267e+02   1.165750e+01
   1.572327e+02   4.856568e+01
   2.796037e+01   8.649465e+01
  -1.488310e+02   7.193204e+01
  -1.494697e+02   3.063349e+01
  -5.742000e+01  -6.674888e+01
   8.166141e+01  -5.829182e+01
   6.881946e+01   2.726327e+01
  -1.897192e+00   9.242429e+01
  -6.067337e+01   7.074442e+01
  -8.220120e+01  -9.701373e+00
  -4.206346e+01  -5.434638e+01
  -3.956717e+01  -5.151843e+01
  -7.261506e+01   1.913391e+01
  -6.255497e+01  -5.566895e+00
  -3.290018e+01  -4.760748e+01
   1.437394e+01  -1.396972e+02
   9.959677e+01  -1.095363e+02
   1.619663e+02  -2.753376e+01
   1.254881e+02   7.876838e+01
   4.197158e+01   1.115271e+02
  -1.195066e+02   6.325296e+01
  -6.015422e+00  -1.686222e+01
   7.881465e+01  -6.054383e+01
   1.412225e+02   5.984855e+01
   7.547631e+01   1.110286e+02
  -4.107560e+01   1.219201e+02
  -1.928867e+02   4.388104e+01
  -1.921599e+02  -1.570843e+01
  -1.717536e-01  -7.218538e+01
   5.138965e+01  -8.348236e+01
   1.808518e+01  -1.825660e+01
  -7.165831e+01   3.248570e+01
  -1.246530e+02  -3.173641e+01
  -3.275061e+01  -1.016912e+02
   9.349073e+01  -1.718966e+02
   1.318833e+02  -6.693307e+01
   7.657410e+01   1.099981e+02
   4.563384e+00   2.093838e+02
  -1.120575e+02   1.707269e+02
  -1.186609e+02  -1.517245e+01
  -7.686877e+01  -1.091103e+02
  -9.295060e-01  -1.207408e+02
   4.218271e+01  -5.675686e+01
   6.670540e+01   4.508837e+00
   5.535710e+01   2.597633e+01
  -6.447973e+00  -2.601737e+01
   6.740568e+01   5.660096e+01
   5.593745e+01   8.908021e+01
   4.044695e+01   1.416429e+02
  -2.253025e+01   4.739797e+01
  -1.396617e+02  -7.009399e+01
  -1.378319e+02  -1.090298e+02
  -2.216185e+01  -1.110429e+02
   5.489993e+01  -2.423678e+01
   1.070076e+02  -2.448864e+01
   1.354789e+01   3.503716e-01
  -3.016235e+01   3.978049e+01
  -1.261051e+01   2.250293e+01
   9.353174e+00   6.217672e+00
   3.760600e+00  -1.901958e+00
  -5.170576e+01   1.076277e+01
  -1.032594e+02  -3.348597e+01
  -3.947034e+01  -1.174990e+02
   8.783454e+01  -9.612025e+01
   2.180627e+02  -3.362865e+01
   1.931789e+02   8.639482e+01
   5.696771e+01   1.578953e+02
  -9.506953e+01   1.810816e+02
  -1.351993e+02   8.783969e+01
  -6.664325e+01  -1.827356e+01
  -5.712668e+01  -1.240573e+01
   2.596499e+01  -2.600705e+01
   4.755305e+00  -2.657639e+01
  -6.441442e+01  -6.543262e+01
  -5.121439e+01  -7.792762e+01
   3.635863e+01  -5.660686e+01
   8.085435e+01   5.134574e+00
   6.352882e+01   9.625789e+01
  -6.823021e+00   7.463220e+01
  -6.611437e+01   2.089714e+01
  -1.071730e+02  -5.941013e+01
  -3.929028e+01  -9.593921e+01
   7.725207e+01  -1.002214e+02
   1.235990e+02   1.399830e+01
   4.768670e+01   4.997093e+01
  -3.433300e+01   4.594520e+01
  -6.587405e+01   4.013641e+01
   2.699455e+01  -2.078984e+01
   1.147670e+02  -6.272442e+00
   9.349806e+00   1.132817e+01
  -8.104830e+01   1.074053e+02
  -1.361105e+02   5.898141e+01
  -6.079592e+01  -1.388691e+01
  -2.114208e+01  -8.045639e+01
   3.425909e+01  -7.954018e+01
   3.017160e+01  -1.475521e+01
  -9.683717e+00   3.509105e+01
  -1.799450e+01   8.982100e+01
  -3.125176e+00  -3.560252e+01
  -9.354304e-01  -6.873989e+01
   1.907174e+01  -6.066372e+01
   3.907903e+01  -6.484864e+00
   1.284327e+01   2.007465e+01
   4.182594e+01  -2.650457e+01
   3.419832e+01  -2.050159e+01
  -1.204327e+01  -2.349349e+01
  -8.310631e+00   3.789336e+01
  -1.535636e+01   6.522351e+01
  -4.687638e+01   2.585454e+00
  -5.469221e+01  -4.931189e+01
  -1.010081e+01  -4.001221e+01
   4.937899e+01  -5.483348e+01
   8.473525e+01   2.159284e+01
   5.821465e+01   6.617992e+01
  -7.050536e+01   3.743520e+01
  -3.104171e+01  -3.072468e+01
  -2.755781e+01  -4.575182e+01
   3.772718e+01  -2.375175e+01
   9.421265e+01  -3.848677e+00
   3.591429e+01  -1.800964e+00
  -6.681139e+01   4.386180e+00
  -3.132373e+01  -4.695481e+01
   4.398380e+01  -6.476084e+01
   9.497121e+01   8.458019e+00
