
 $NMID
 id='ANONYMOUS ', fmtdat='(2E16.6)'
 volume=1.0
 tramp=1.0
 $END
  -3.570528e+03   6.136809e+00
  -1.993866e+03  -1.880720e+03
   1.178454e+02  -2.273548e+03
   1.384644e+03  -8.984507e+02
   8.882438e+02   1.420902e+02
  -2.398992e+02   2.867097e+02
  -5.393340e+02  -2.630510e+02
  -5.706961e+01  -7.857330e+02
   6.221399e+02  -6.699102e+02
   7.126910e+02   7.969672e+01
   4.097409e+02   5.563257e+02
  -1.292197e+02   7.817636e+02
  -4.060603e+02   1.627152e+02
  -3.040021e+02  -4.515614e+02
   1.669240e+02  -6.116579e+02
   4.458180e+02  -2.847248e+01
   2.738871e+02   4.672044e+02
  -2.114234e+02   6.431854e+02
  -5.470245e+02   1.881307e+02
  -4.855192e+02  -2.856923e+02
  -1.182686e+02  -4.038302e+02
   1.675645e+02  -2.900405e+02
   1.656792e+02  -1.349814e+01
  -1.498129e+02  -3.860459e+01
  -3.329170e+02  -2.031651e+02
  -1.854193e+02  -4.014989e+02
   4.219461e+02  -2.381195e+02
   7.005440e+02   1.479223e+02
   3.410097e+02   4.181863e+02
  -4.029558e+02   3.523739e+02
  -6.338946e+02  -9.762135e+01
  -2.490959e+02  -4.366192e+02
   2.464398e+02  -4.328641e+02
   5.149276e+02  -1.568220e+02
   3.352433e+02   1.928773e+02
   8.359590e+01   4.472311e+02
  -2.986732e+01   1.884547e+02
   6.976622e+00  -1.182133e+02
   1.599781e+02  -2.537631e+02
   3.607330e+02   1.787185e+02
   9.045205e+01   4.824011e+02
  -2.397494e+02   4.907563e+02
  -4.360413e+02   1.444754e+00
  -1.903988e+02  -4.350218e+02
   2.939509e+02  -2.774071e+02
   2.634301e+02   2.728093e+02
  -9.873085e+01   4.669483e+02
  -5.126743e+02   1.448912e+02
  -6.191348e+02  -3.898218e+02
  -1.807871e+02  -5.985804e+02
   2.779052e+02  -3.079434e+02
   6.142311e+02   8.230558e+01
   3.485137e+02   3.152307e+02
  -6.716464e+01   2.277124e+02
  -3.696205e+02   1.230523e+02
  -2.731913e+02  -3.923927e+01
   5.896590e+01  -6.684775e+01
   5.539931e+01   1.086786e+02
  -1.178941e+02   1.660312e+02
  -2.955184e+02  -6.098077e+01
  -1.237258e+02  -2.630416e+02
   1.604776e+02  -2.435461e+02
   3.257873e+02  -1.329809e+02
   2.439367e+02   7.360707e+01
  -1.800315e+01   2.435609e+02
  -2.587274e+02   3.645499e+02
  -3.460999e+02   1.790610e+02
  -2.764221e+02  -1.662580e+02
  -6.955901e+01  -3.771343e+02
   8.228002e+01  -3.003281e+02
   3.534099e+01  -1.596562e+02
   5.120002e+01  -6.208631e+01
   1.188114e+02  -1.224390e+02
   2.250386e+02  -8.339812e+01
   2.164037e+02   6.506983e+01
   7.050476e+01   2.238820e+02
  -8.698331e+01   2.315133e+02
  -2.211935e+02  -1.904157e+01
  -1.359793e+02  -2.638324e+02
   2.975146e+01  -2.729098e+02
   2.544525e+02  -4.859359e+01
   2.991410e+02   1.797074e+02
   1.903420e+02   3.871316e+02
  -6.929013e+01   2.912061e+02
  -2.248780e+02   1.609340e+02
  -1.457369e+02   6.669636e+01
  -1.199093e+02   4.040735e+01
  -2.497076e+02   2.782007e+01
  -3.790036e+02  -3.921958e+01
  -3.156940e+02  -2.911870e+02
   9.309574e-01  -4.593379e+02
   3.808170e+02  -3.594325e+02
   4.534267e+02  -1.870813e+02
   3.459887e+02   9.741171e+01
   3.914741e+01   2.774330e+02
  -8.042966e+01   2.212680e+02
  -5.645152e+01   4.879430e+01
   6.604709e+01  -2.356169e+01
   1.576274e+02   2.712264e+01
  -1.767569e+01   2.049332e+02
  -1.110662e+02   1.301672e+02
  -1.087490e+02  -6.974195e+01
   1.000098e+01  -1.587359e+02
   1.752018e+02   6.021668e+00
   1.953048e+02   2.354197e+02
  -2.339692e+01   3.357972e+02
  -2.559209e+02   2.003851e+02
  -3.420472e+02  -1.011027e+02
  -2.886942e+02  -2.232542e+02
  -6.324874e+01  -2.397124e+02
   1.409639e+02  -1.341705e+02
   1.594015e+02  -1.378534e+01
   2.141618e+01   4.446463e+01
  -7.150482e+01  -1.372266e+01
  -9.249804e+00  -9.368497e+01
   9.806324e+01  -1.172934e+02
   1.534336e+02   2.018533e+01
   1.941388e+01   4.404399e+01
  -1.030796e+02  -3.584523e+01
  -5.067431e+01  -8.067577e+01
   1.258829e+02  -9.294013e+01
   2.661537e+02   3.023064e+01
   3.028899e+02   1.489654e+02
   4.726350e+01   2.440529e+02
  -1.860265e+02   2.147579e+02
  -2.970480e+02   9.776157e+01
  -1.382331e+02  -5.007372e+01
   2.085316e+01  -8.711201e+01
   7.237745e+01  -5.122971e+00
  -8.496861e+01   6.942382e+01
  -2.189715e+02   5.766502e+01
  -1.413955e+02  -7.036598e+01
   1.219389e+01  -1.646143e+02
   1.091945e+02  -1.482967e+02
   1.364212e+02  -2.905278e+01
   3.878723e+01   6.280631e+01
  -9.533421e+00   1.458940e+01
  -4.010855e+01  -6.536005e+01
   8.781561e+01  -8.852801e+01
   2.048420e+02   1.036637e+01
   1.802617e+02   1.391490e+02
   9.832667e+00   2.507635e+02
  -1.624799e+02   1.571780e+02
  -1.494479e+02   1.371779e+01
  -7.160384e+01  -8.016054e+01
   8.438715e+01  -9.627577e+01
   6.909149e+01  -3.517867e+01
  -2.253219e+01   4.719361e+01
  -3.871894e+01  -4.519917e+00
  -4.290311e+01  -2.879788e+01
   6.142165e+01  -3.624400e+01
   8.050605e+01   4.651778e+01
  -2.309507e-01   1.538687e+02
  -1.520764e+02   1.647881e+02
  -2.421808e+02  -2.296681e+01
  -1.768334e+02  -1.077439e+02
  -6.015880e+01  -2.059242e+02
   1.073178e+02  -1.954850e+02
   1.248597e+02  -1.068313e+01
   6.310292e+01   1.960977e+01
   5.505240e+01   3.093615e+01
   3.186069e+01  -1.624477e+01
   7.695579e+01   2.452034e+01
   7.056598e+01   3.407996e+01
  -5.673842e+01   1.063817e+02
  -1.390727e+02   9.546327e+01
  -1.220246e+02  -5.234344e+01
   1.831354e+01  -8.766989e+01
   1.261458e+02  -8.622212e+01
   1.786158e+02   8.433135e+01
   3.629039e+01   2.323665e+02
  -9.884140e+01   2.395898e+02
  -2.137925e+02   1.383145e+02
  -2.491253e+02  -8.927878e+01
  -9.792717e+01  -1.822430e+02
   2.392111e+01  -1.306648e+02
   6.180380e+01  -8.204275e+01
   3.385765e+01  -8.790863e+01
   9.087631e+01  -6.048955e+01
   7.560814e+01  -8.296920e+01
   1.575569e+02   1.895900e+01
   1.137279e+02   1.641668e+02
   3.703392e+01   2.287242e+02
  -1.110463e+02   1.476762e+02
  -1.858759e+02   3.659521e+01
  -1.223472e+02  -8.948032e+01
   2.024376e+01  -1.486430e+02
   1.048586e+02  -4.767016e+01
   6.916940e+01   5.267817e+01
  -3.828739e+01   5.695996e+01
  -4.123859e+01   3.243244e+01
   5.129424e+01  -1.267691e+01
   1.032958e+02   2.499520e+01
   8.237598e+01   2.601825e+01
  -5.076930e+01   5.620605e+01
  -1.588615e+02  -3.139434e+01
  -1.732274e+02  -4.847474e+01
  -5.199596e+00  -8.337058e+01
   1.635967e+02  -5.625060e+01
   1.154047e+02  -1.221236e+00
   7.595259e+01   4.176788e+01
  -2.321295e+01   1.453188e+00
  -5.783165e+01  -5.118266e+01
  -3.370039e+00  -4.625574e+01
   2.784387e+01  -1.049723e+02
   7.694654e+01   2.177187e+01
   4.261507e+01   7.933723e+01
   2.781911e+01   6.594523e+01
   6.833163e+01  -9.559396e+00
   3.026975e+01   3.262146e+01
   1.223332e+01   3.388150e+01
  -2.302390e+01   1.910380e+02
  -1.528401e+02   1.124204e+02
  -1.796795e+02   4.422268e+01
  -1.511950e+02  -8.085919e+01
  -1.017188e+00  -1.345189e+02
   9.900991e+01  -5.261716e+01
   2.999393e+01   2.370712e+01
  -7.499891e+01   1.444642e+00
  -1.420563e+02  -1.953309e+01
  -5.561098e+01  -8.753982e+01
   1.143635e+02  -1.157694e+02
   2.329392e+02  -3.962922e+01
   1.576402e+02   2.511683e+01
   3.517132e+01   6.560974e+01
  -3.223235e+01   5.242251e+01
  -6.759322e+01  -1.100602e+01
   5.379365e+01   7.461366e+00
   1.010245e+02   1.575868e+01
   2.497215e+01   1.124190e+02
  -1.168736e+02   1.447151e+02
  -1.488421e+02   1.058897e+02
  -1.381035e+02  -9.255453e+01
   9.107182e+00  -2.042678e+02
   1.035559e+02  -1.258628e+02
   1.113923e+02  -5.986105e+00
   5.305543e+01   7.455924e+01
  -4.723128e+01   6.207933e+01
  -1.116291e+02  -7.435522e+00
  -5.863871e+01  -2.559188e+01
  -3.612382e+01   3.162339e+01
  -1.109334e+01   3.579878e+01
  -1.249076e+00  -2.046312e+01
  -7.024009e+01  -6.766596e+01
  -4.491980e+01  -1.449357e+02
   2.808315e+01  -4.940202e+01
   1.738487e+02   5.920110e+01
   1.486945e+02   9.164553e+01
   2.390343e+01   1.960294e+01
  -9.061676e+01  -5.878826e+00
  -6.584431e+01   3.036849e+01
  -4.851316e+01  -3.516095e+01
   5.114285e+01  -1.697856e+01
  -1.365878e+00  -3.047669e+00
  -1.211287e+01   2.519671e+01
   1.834887e+01  -8.822714e+00
   9.572603e+01  -1.037139e+01
   6.395356e+01   4.848444e+01
   4.925441e+01   7.404625e+01
  -8.170034e+01   1.321977e+02
  -1.948754e+02   2.857450e+01
  -1.439420e+02  -3.918917e+01
  -4.333110e+01  -1.714958e+02
   9.566083e+01  -1.706980e+02
   9.357867e+01  -7.254520e+01
   6.895991e+01   5.379643e+01
   2.061359e+01   3.784538e+01
   1.961651e+01   5.480752e+01
  -1.167963e+01   2.896405e+01
   2.956577e+01   8.244685e+01
   4.337339e+01   9.558988e+01
  -1.668301e+01   3.233994e+01
  -9.933461e+01  -3.237457e+01
  -7.878943e+01  -8.945946e+01
   2.917715e+00  -1.461208e+02
   3.673294e+01  -3.120863e+01
   1.174425e+02   6.993196e+01
   1.706136e+01   1.055403e+02
  -1.029680e+02   5.274651e+01
  -1.017427e+02   1.360400e+01
  -3.390518e+01  -3.396090e+01
   2.161902e+01  -2.258763e+01
   2.277277e+01  -2.741591e+01
  -5.550404e+01  -1.416601e+00
  -5.296332e+01  -1.950711e+01
  -1.497309e+01  -4.153763e+01
   8.267277e+01  -3.984412e+01
   9.121319e+01  -3.480356e+01
   6.688000e+01   3.284888e+01
   2.458143e+01   5.087968e+01
  -3.444489e+01   9.186947e+01
  -6.098083e+01   2.105305e+01
  -2.430881e+00  -6.302814e+01
   4.117926e+01  -5.229379e+01
   1.655494e+01  -2.622516e+00
   1.834317e+01   3.217147e+01
  -9.239891e+00   5.454612e+01
  -1.254828e+01   1.411514e+01
  -8.753769e+00  -2.861767e+00
  -4.358464e+01   1.227607e+01
  -3.735893e-01   5.079006e+01
   4.499005e+01   6.613248e+00
   1.895522e+01  -4.729623e+00
   6.323273e+00  -2.219144e+01
   2.365301e+01  -1.730465e+00
   3.815208e+01   5.421307e+01
   1.618454e+01   5.821104e+01
  -2.486156e+01  -4.285096e+00
  -8.618909e+01  -7.012501e+00
  -9.702117e+00  -4.083695e+01
   4.367660e+01  -5.623586e+01
   1.032900e+02   1.953382e+01
   3.526482e+01   3.207226e+01
  -9.656453e+00   9.824045e+00
  -5.197822e+01   4.521078e+01
  -1.629335e+01   3.613110e+01
   1.495534e+01  -1.305941e+01
   3.688333e+01  -3.784306e+00
  -1.669634e+01   1.450539e+01
  -8.074376e+01   6.061542e+01
