
 $NMID
 id='ANONYMOUS ', fmtdat='(2E16.6)'
 volume=1.0
 tramp=1.0
 $END
  -4.383683e+03  -5.629339e+01
  -2.487866e+03  -2.220996e+03
   6.764478e+02  -2.934898e+03
   2.295657e+03  -9.847641e+02
   1.073010e+03   7.628126e+02
  -6.288175e+02   7.875234e+02
  -9.567395e+02  -3.781161e+02
   1.860499e+01  -1.144895e+03
   8.438575e+02  -8.740749e+02
   9.929318e+02   1.040760e+02
   4.903833e+02   8.047251e+02
  -2.737872e+02   9.295168e+02
  -6.727786e+02   1.745071e+02
  -3.894335e+02  -6.501008e+02
   2.843971e+02  -8.570979e+02
   6.844459e+02  -1.317348e+01
   3.032266e+02   6.734720e+02
  -3.634319e+02   5.888993e+02
  -6.784454e+02  -2.076646e+01
  -4.461302e+02  -3.588848e+02
  -2.411837e+01  -5.150208e+02
   2.298694e+02  -2.816753e+02
   2.469964e+02   2.506935e+00
  -1.143944e+02   1.094699e+02
  -4.581396e+02  -1.394259e+02
  -2.321744e+02  -4.231748e+02
   4.129853e+02  -4.016813e+02
   8.331412e+02   6.170383e+01
   4.992889e+02   5.892343e+02
  -3.929185e+02   5.106582e+02
  -7.473813e+02  -1.042917e+01
  -4.545814e+02  -5.024652e+02
   2.867331e+02  -5.257730e+02
   5.253245e+02  -1.683879e+02
   4.273653e+02   2.538403e+02
   6.411373e+01   5.461800e+02
  -1.266983e+02   3.521851e+02
  -1.822944e+02  -2.186335e+02
   1.231482e+02  -4.424958e+02
   4.943079e+02  -3.045432e+00
   2.665616e+02   6.580515e+02
  -2.643459e+02   6.322163e+02
  -6.373614e+02  -1.244815e+01
  -2.998467e+02  -5.784349e+02
   3.188195e+02  -4.242057e+02
   4.125378e+02   3.147944e+02
  -3.851991e+01   5.748410e+02
  -5.887230e+02   1.949026e+02
  -6.854779e+02  -4.768955e+02
  -1.946404e+02  -6.701072e+02
   3.785554e+02  -3.616742e+02
   6.834584e+02   1.174704e+02
   3.884450e+02   3.890830e+02
  -1.220323e+02   3.477583e+02
  -4.855678e+02   1.981123e+01
  -2.574768e+02  -2.116463e+02
   1.328263e+02  -1.754002e+02
   1.201167e+02   1.239009e+02
  -1.770140e+02   1.676110e+02
  -3.382771e+02  -9.989536e+00
  -1.349178e+02  -3.051616e+02
   2.131600e+02  -2.865841e+02
   3.197750e+02  -6.562673e+01
   1.850420e+02   1.124964e+02
  -5.113678e+01   1.887717e+02
  -2.740564e+02   3.206699e+02
  -3.542034e+02   2.287378e+02
  -2.817080e+02  -1.432418e+02
  -8.795520e+01  -4.394755e+02
   1.024233e+02  -3.669269e+02
   1.096701e+02  -1.666672e+02
   4.837031e+01   3.772820e+01
   5.340565e+01  -6.643559e+01
   1.966072e+02  -1.078030e+02
   1.981393e+02   4.271901e+01
   1.432954e+02   2.967354e+02
  -7.057562e+01   2.588627e+02
  -2.586627e+02   1.769809e+01
  -2.239213e+02  -2.829360e+02
   1.670354e+01  -3.382882e+02
   2.663506e+02  -1.382817e+02
   4.212190e+02   1.449588e+02
   2.026521e+02   4.141811e+02
  -8.871188e+01   3.399835e+02
  -2.452847e+02   1.123356e+02
  -1.544122e+02   2.015290e+00
  -1.127102e+02   4.821708e+01
  -2.477526e+02   7.138667e+01
  -4.028600e+02  -6.576021e+01
  -3.278032e+02  -3.211581e+02
   1.037159e+01  -4.755082e+02
   3.657110e+02  -4.359346e+02
   5.336406e+02  -2.073368e+02
   3.610438e+02   5.486188e+01
   5.402589e+01   3.117586e+02
  -1.193969e+02   2.467636e+02
  -8.272987e+01   4.369512e+01
   1.188865e+02  -1.137284e+02
   1.962327e+02  -1.874044e+01
   5.140037e+01   2.120678e+02
  -1.659773e+02   1.719513e+02
  -1.524248e+02  -7.589714e+01
   3.734259e+01  -1.818820e+02
   2.342281e+02  -3.779676e+01
   1.820826e+02   2.884099e+02
  -3.218760e+01   3.770283e+02
  -2.499595e+02   1.915588e+02
  -3.048215e+02  -7.208426e+01
  -2.625796e+02  -2.503886e+02
  -8.925030e+01  -2.626855e+02
   1.286098e+02  -1.501508e+02
   1.388611e+02  -6.670281e+01
   7.737063e+01   1.266823e+01
  -7.758460e+01  -7.617106e+01
  -3.421901e+01  -1.623136e+02
   1.323452e+02  -1.143744e+02
   1.805992e+02  -2.352990e+00
   1.111068e+02   1.112092e+02
  -4.968149e+01   1.078829e+01
  -6.642608e+01  -6.204666e+01
   1.246872e+02  -3.990259e+01
   2.650937e+02   4.160753e+00
   2.647014e+02   1.327468e+02
   4.498736e+01   2.248205e+02
  -1.971519e+02   2.555929e+02
  -3.249001e+02   1.255787e+02
  -1.704280e+02  -4.292652e+01
   7.064174e+00  -1.160472e+02
   1.121169e+02   1.324435e+01
  -1.375053e+01   8.322652e+01
  -1.926744e+02   4.062202e+01
  -2.128834e+02  -1.043487e+02
  -7.742372e+01  -2.103546e+02
   1.420507e+02  -1.622871e+02
   1.698725e+02  -2.658881e+01
   1.046747e+02   5.103366e+01
  -2.304603e+01  -3.192462e-01
  -7.684672e+01  -8.092802e+01
   6.313156e+01  -1.093670e+02
   1.834618e+02  -5.688870e+01
   1.922020e+02   1.270843e+02
   4.094394e+01   2.426028e+02
  -1.544594e+02   1.657107e+02
  -2.131078e+02   1.040641e+01
  -7.153306e+01  -1.133720e+02
   7.118534e+01  -1.034854e+02
   8.473550e+01  -3.927893e+01
   7.201405e+00   6.556988e+01
   2.273331e+01   1.758590e+01
   3.604960e+00  -3.847609e+01
   8.122549e+01   1.875776e+01
   9.568960e+01   7.508175e+01
   9.430782e+00   1.512403e+02
  -1.318368e+02   1.416989e+02
  -2.046977e+02   3.805879e+01
  -1.842847e+02  -1.432469e+02
  -2.691571e+01  -2.293562e+02
   1.182377e+02  -1.839927e+02
   1.282905e+02  -5.389298e+01
   4.691462e+01   7.676550e+01
   2.933538e+01   1.182770e+01
   6.796594e+00  -1.737156e+01
   9.805091e+01  -2.254694e+01
   1.923096e+01   5.469214e+01
  -6.527871e+01   8.453279e+01
  -9.102033e+01   3.149526e+01
  -7.053824e+01  -2.432263e+01
  -2.228006e+01  -8.117557e+01
   1.521094e+02  -7.356067e+01
   1.565626e+02   6.320918e+01
   1.125211e+02   2.530483e+02
  -8.129041e+01   2.431861e+02
  -2.645674e+02   1.402351e+02
  -2.973876e+02  -7.811524e+01
  -8.703807e+01  -1.852736e+02
   2.328591e+01  -1.482510e+02
   1.254267e+02  -7.386490e+01
   1.111331e+02  -5.629845e+01
   6.481997e+01  -1.172264e+02
   5.921003e+01  -6.135065e+01
   1.902692e+02   1.490065e+01
   1.310822e+02   1.126594e+02
   8.524992e+00   2.289695e+02
  -9.547063e+01   1.695671e+02
  -1.763720e+02   3.541073e+01
  -1.205778e+02  -1.008448e+02
  -4.721238e+01  -1.540464e+02
   6.923443e+01  -9.599317e+01
   4.319556e+01   3.937062e+00
   9.099608e+00   3.745678e+01
   3.235175e+01   4.038228e+01
   4.541999e+01   1.725286e+01
   7.782671e+01   2.802034e+00
   8.368606e+01   4.784852e+01
  -6.461012e+01   3.152226e+01
  -1.294844e+02  -2.253594e+01
  -1.446353e+02  -1.045581e+02
  -2.639438e+01  -5.542792e+01
   1.151080e+02  -3.011271e+01
   1.213076e+02   7.323167e+00
   4.646087e+01   4.437214e+01
  -4.686313e+01   6.123626e+01
  -7.990007e+01   2.207692e+01
  -1.890587e+01  -7.340647e+01
   2.425506e+01  -4.336878e+01
   9.842293e+01  -1.241447e+01
   3.224094e+01   3.364874e+01
   2.936902e+01   6.623378e+01
   5.255233e+01   8.488059e+00
   1.187747e+02  -4.740791e+01
   3.441079e+01   7.000746e+01
  -1.619886e+01   1.683353e+02
  -9.920329e+01   1.515487e+02
  -1.613639e+02   2.028462e+01
  -8.141407e+01  -1.206803e+02
   1.174629e+00  -1.797040e+02
   8.233302e+01  -5.053227e+01
   6.827811e+01   8.845372e+00
  -5.518580e+01  -1.789686e+01
  -1.202059e+02  -6.863476e+01
  -8.771380e+01  -1.263086e+02
   4.804371e+01  -5.468750e+01
   1.777697e+02  -4.774852e+01
   1.756278e+02  -3.976226e+01
   3.729547e+01   7.164104e+01
  -6.610347e+01   8.099722e+01
  -6.826686e+01   2.950369e+01
  -1.973877e+01  -3.882471e+01
   1.454696e+02   4.969071e+01
   6.364251e+01   1.151887e+02
  -9.940285e+01   1.765777e+02
  -1.458021e+02   9.659988e+01
  -1.236982e+02  -1.473483e+02
  -2.189346e+01  -1.998588e+02
   9.207389e+01  -1.714094e+02
   1.113930e+02  -2.197752e+01
   5.014095e+01   1.047473e+02
  -4.630577e+01   7.503231e+01
  -6.304167e+01   3.020605e+01
  -5.738180e+01  -2.594640e+01
  -1.819492e+01   1.109181e+01
   2.690743e+01   1.650377e+01
  -3.631826e+01  -8.025692e+00
  -6.014977e+01  -1.019288e+02
  -3.045856e+01  -1.452536e+02
   4.414074e+01  -2.077520e+01
   1.427743e+02   2.862992e+01
   1.343878e+02   7.294506e+01
  -2.177093e+01   3.456024e+01
  -3.890935e+01   4.084806e+01
  -7.791095e+01   1.019327e+01
  -4.153646e+01  -2.792453e+01
   5.107418e+01  -6.984109e-02
   3.162066e+00  -4.841098e+00
  -3.901402e+01   4.403389e+01
   2.573670e+01   6.776753e+00
   5.810392e+01   2.407324e+01
   1.190537e+02  -9.557197e+00
   2.807503e+01   7.770059e+01
  -9.650952e+01   1.447999e+02
  -2.126110e+02   4.957954e+01
  -1.697770e+02  -5.937993e+01
  -2.697192e+01  -1.581302e+02
   5.515055e+01  -1.295588e+02
   1.129830e+02  -4.169838e+01
   7.909525e+01   2.519948e+01
   3.007778e+01   6.062669e+01
   7.887047e+00   1.881048e+01
   3.751145e+01   1.845312e+00
   3.891224e+01   7.732228e+01
   2.076917e+01   1.072089e+02
  -7.234308e+01   2.093495e+01
  -1.092534e+02  -2.751699e+01
  -8.188910e+01  -9.305888e+01
  -1.615887e+01  -8.165743e+01
   9.428009e+01  -1.929190e+01
   9.759736e+01   1.013326e+02
   3.315171e+00   5.245291e+01
  -4.546558e+01   7.115731e+01
  -1.087314e+02  -2.898244e+01
  -6.051364e+01  -8.102807e+01
   3.287056e+01  -4.696795e+01
   1.098945e-01  -3.516552e+01
  -2.742313e+01  -3.269907e+01
  -8.026744e+01   6.597802e+01
  -1.193608e+01  -8.146151e+00
   5.157419e+01  -6.464215e+01
   1.359689e+02  -6.436125e+01
   8.479090e+01   2.473946e+01
  -3.960348e+01   7.267560e+01
  -4.559538e+01   8.425710e+01
  -5.535211e+01   2.123744e+01
  -1.130020e+01  -7.290746e+01
   1.595416e+01  -1.746624e+01
   4.329591e+01  -8.070423e+00
   3.241441e+01   4.971234e+01
  -3.617539e+00  -3.151726e+00
  -5.558917e-01  -2.191160e+00
  -4.825388e+01  -3.492395e+01
   2.456189e+00   1.633474e+01
  -1.089759e+01   4.226132e+01
  -2.283381e+01  -2.683019e+01
   9.294138e-01  -3.346084e+01
   3.792751e+01   1.678590e+01
   4.175133e+01  -9.704555e+00
   2.967757e+01   5.677658e+01
   1.952671e+01   6.794966e+01
  -2.111719e+01   5.359880e+01
  -5.611550e+01  -4.984547e+01
  -2.904355e+01  -7.532422e+01
   5.615949e+01  -6.150784e+01
   8.399368e+01   5.358321e+01
   4.413571e+01   6.632657e+01
   2.986865e+01   3.607257e+01
  -7.404138e+01   1.758316e+01
  -3.031686e+01  -1.102044e+01
   3.017718e+01  -4.393758e+00
   8.233466e+01   2.257161e+01
  -2.591988e+01   5.807954e+00
  -1.295826e+02   2.262357e+01
