
 $NMID
 id='ANONYMOUS ', fmtdat='(2E16.6)'
 volume=1.0
 tramp=1.0
 $END
   4.361865e+03   1.167906e+02
   2.450664e+03   2.217370e+03
  -5.785359e+02   2.743995e+03
  -2.197017e+03   1.005048e+03
  -8.981470e+02  -7.181175e+02
   7.304671e+02  -6.715247e+02
   9.046379e+02   4.403110e+02
  -3.537105e+01   1.146220e+03
  -8.182217e+02   8.168697e+02
  -9.440430e+02  -8.374852e+01
  -3.866167e+02  -7.457577e+02
   2.322176e+02  -8.674356e+02
   5.862096e+02  -1.547884e+02
   3.161263e+02   6.252992e+02
  -2.588064e+02   8.203359e+02
  -6.310088e+02  -1.922175e+01
  -2.588275e+02  -6.181940e+02
   2.892386e+02  -6.140828e+02
   6.148374e+02  -3.689723e+01
   4.295948e+02   3.825406e+02
  -9.043217e+00   4.625930e+02
  -2.326213e+02   2.683149e+02
  -2.202473e+02   3.887231e+00
   1.062061e+02  -1.023109e+02
   4.546197e+02   1.344057e+02
   1.814685e+02   4.458559e+02
  -4.562155e+02   4.041646e+02
  -8.136138e+02  -9.958590e+01
  -3.744694e+02  -5.600009e+02
   3.523168e+02  -4.311172e+02
   7.619657e+02   4.660878e+01
   4.237861e+02   4.978466e+02
  -3.325514e+02   4.831983e+02
  -5.531523e+02   1.809138e+02
  -4.006410e+02  -2.859613e+02
  -4.241949e+01  -5.180907e+02
   1.759113e+02  -2.921491e+02
   9.155284e+01   1.493626e+02
  -1.729637e+02   4.427866e+02
  -4.617296e+02  -1.182359e+01
  -1.848580e+02  -7.086609e+02
   3.019044e+02  -5.872209e+02
   5.807151e+02  -1.233838e+00
   2.826917e+02   5.360421e+02
  -2.757218e+02   3.491030e+02
  -4.653959e+02  -3.183860e+02
   9.260988e+01  -5.284412e+02
   5.921539e+02  -1.493021e+02
   6.482667e+02   4.893616e+02
   1.931152e+02   6.660709e+02
  -3.375090e+02   2.851902e+02
  -6.764545e+02  -1.194258e+02
  -3.559581e+02  -4.400276e+02
   1.234558e+02  -2.925072e+02
   4.718981e+02  -2.343872e+01
   2.381188e+02   1.637189e+02
  -1.731434e+02   1.148809e+02
  -9.630071e+01  -1.040783e+02
   2.030414e+02  -1.845777e+02
   3.229732e+02   1.205954e+02
   1.176523e+02   3.157663e+02
  -1.848649e+02   2.409553e+02
  -3.151032e+02   5.238195e+01
  -2.346333e+02  -1.371702e+02
   8.316086e+01  -2.294161e+02
   3.037396e+02  -3.490430e+02
   4.130799e+02  -2.169446e+02
   3.446769e+02   1.389703e+02
   3.964785e+01   4.488593e+02
  -1.065409e+02   3.255660e+02
  -6.351471e+01   1.346740e+02
  -2.721305e+00   5.586719e+00
  -3.895621e+01   1.069179e+02
  -2.120713e+02   8.554314e+01
  -2.495613e+02  -5.644177e+01
  -1.406284e+02  -2.884791e+02
   7.785281e+01  -2.407915e+02
   2.082879e+02   3.450005e+01
   2.277677e+02   2.869680e+02
  -2.388654e+01   3.234587e+02
  -2.686985e+02   1.342866e+02
  -3.582576e+02  -1.963871e+02
  -2.131032e+02  -3.732622e+02
   1.168813e+02  -3.315191e+02
   2.172212e+02  -8.970281e+01
   1.421105e+02   3.338594e+01
   1.072535e+02  -4.399079e+00
   2.483076e+02  -6.597900e+01
   4.018774e+02   6.559025e+01
   3.567250e+02   3.072766e+02
  -1.313366e+01   4.222126e+02
  -3.906760e+02   3.857753e+02
  -5.343133e+02   1.756438e+02
  -3.737220e+02  -8.061764e+01
  -8.448019e+01  -3.204432e+02
   1.469791e+02  -2.649227e+02
   6.643824e+01  -4.500196e+01
  -1.043317e+02   9.192616e+01
  -1.967533e+02   9.376998e+00
  -4.714612e+01  -2.318961e+02
   1.522163e+02  -1.636561e+02
   1.802057e+02   7.227318e+01
   1.044796e+01   2.387357e+02
  -2.282983e+02  -7.966360e+00
  -1.635793e+02  -2.464721e+02
   4.612605e+01  -3.465095e+02
   2.461632e+02  -2.358074e+02
   3.811913e+02   6.026783e+01
   2.685688e+02   2.914127e+02
   6.460713e+01   2.717100e+02
  -1.168875e+02   1.794960e+02
  -1.721058e+02   1.559339e+01
  -7.573482e+01  -1.223474e+01
   5.749802e+01   5.326676e+01
  -4.183403e+00   1.234976e+02
  -1.100463e+02   7.860905e+01
  -1.487620e+02  -1.023310e+01
  -7.051572e+01  -6.023775e+01
   7.949585e+01  -1.910743e+01
   2.993113e+01   9.362378e+01
  -1.268662e+02   7.013797e+01
  -2.794439e+02  -2.789219e+00
  -2.406569e+02  -1.550214e+02
  -4.896507e+01  -2.761876e+02
   1.663348e+02  -2.358740e+02
   2.892173e+02  -1.301602e+02
   1.557838e+02   4.914889e+01
  -2.967323e+01   8.688532e+01
  -7.396299e+01  -2.254416e+01
   4.049713e+01  -9.836766e+01
   2.296647e+02  -7.940843e+01
   1.738111e+02   8.607562e+01
   7.286739e+01   1.840071e+02
  -1.152572e+02   1.827766e+02
  -1.620013e+02   5.226080e+01
  -4.857259e+01  -4.994432e+01
   1.440077e+01   2.253900e+00
   4.309259e+01   6.909659e+01
  -4.378379e+01   1.033712e+02
  -2.236067e+02   6.099849e+01
  -1.555259e+02  -1.209841e+02
  -1.765314e+00  -2.052700e+02
   1.524994e+02  -1.869474e+02
   1.976006e+02  -2.664447e+00
   7.981720e+01   1.204864e+02
  -1.291868e+02   1.201445e+02
  -1.054318e+02   3.491622e+01
  -2.268656e+01  -2.887429e+01
   5.254112e+01  -2.468963e+01
   6.454275e+00   2.073245e+01
  -5.798745e+01  -1.419278e+01
  -6.418278e+01  -9.285810e+01
  -4.065395e+01  -1.219204e+02
   1.457989e+02  -1.416239e+02
   2.115297e+02  -4.165239e+01
   2.071332e+02   1.451494e+02
   2.663197e+01   2.473752e+02
  -1.297521e+02   1.707708e+02
  -1.431255e+02   4.950573e+01
  -2.952945e+01  -3.956933e+01
  -7.835068e+01  -4.077400e+01
  -6.383162e+01   2.064489e+01
  -6.731089e+01  -9.605524e+00
  -4.379463e+01  -3.322191e+01
   6.461043e+01  -1.073959e+02
   1.002116e+02  -7.141389e+01
   9.538455e+01   2.498975e+01
  -2.781536e+01   1.463461e+02
  -1.525047e+02   9.447549e+01
  -2.005610e+02  -2.596747e+01
  -1.289550e+02  -2.038364e+02
   1.188880e+02  -2.376007e+02
   2.839402e+02  -1.526278e+02
   2.694500e+02   8.579284e+01
   8.322709e+01   2.048114e+02
   1.073466e+01   1.708533e+02
  -1.007637e+02   9.184984e+01
  -9.219360e+01   9.936703e+01
  -4.427411e+01   8.910389e+01
  -1.037704e+02   6.033222e+01
  -1.299547e+02  -3.464542e+01
  -1.066695e+02  -1.789383e+02
  -1.190345e+01  -2.375438e+02
   6.458839e+01  -1.506435e+02
   1.958714e+02  -5.960114e+01
   1.468625e+02   1.441158e+02
   6.517448e+01   1.896543e+02
  -5.717167e+01   7.400364e+01
  -7.334020e+01  -1.565344e+01
   2.131088e+01  -2.166816e+01
   9.834486e+00  -2.058142e+01
  -6.756732e+01  -3.322427e+01
  -7.133566e+01  -5.059853e+01
  -4.547883e+01  -5.941490e+01
   7.040880e+01   8.677349e-01
   1.241222e+02   2.678997e+01
   1.219303e+02   3.623021e+01
   1.235221e+01   8.053209e+01
  -1.235806e+02   4.739142e+01
  -1.588181e+02   4.864387e+01
  -3.181937e+01  -4.345274e+01
   7.380059e+01  -2.178256e+01
   9.617959e+01   2.243789e+01
  -4.101990e+00   3.397592e+01
  -1.051860e+01   7.997348e+01
  -6.717065e+01   1.338887e+01
  -6.376381e+01  -7.592457e+01
  -5.123735e+01  -9.093295e+01
  -4.207411e+01  -2.174813e+01
  -6.676358e+01  -2.623829e+01
  -7.144628e+00  -7.561124e+01
   7.453768e+01  -2.040986e+02
   9.560849e+01  -1.618386e+02
   1.226285e+02   4.463575e+00
   1.221602e+02   8.121749e+01
   2.304137e+01   1.186340e+02
  -6.855022e+01   9.164346e+01
  -6.170229e+01  -2.053577e+01
   3.180934e+01  -1.966919e+01
   1.227274e+02   4.131604e+01
   1.098172e+02   1.306261e+02
  -8.968977e+01   9.885150e+01
  -1.957538e+02   3.440441e+01
  -2.017553e+02  -2.557424e+01
   3.615377e+00  -8.504583e+01
   7.996827e+01  -3.101211e+01
   7.045753e+01  -2.200184e+01
  -4.129325e+01   8.107759e+00
  -1.092885e+02  -7.336110e+00
   6.446633e+00  -1.313898e+02
   9.661613e+01  -1.174553e+02
   1.431445e+02  -9.056583e+01
   1.294036e+02   8.372133e+01
   7.326753e+00   1.961980e+02
  -7.432846e+01   1.260184e+02
  -9.170244e+01  -1.070145e+01
  -2.406319e+01  -1.057896e+02
  -7.642640e+00  -1.212956e+02
   6.889747e+01  -2.072184e+00
   2.884272e+01   4.572374e+01
   3.196881e+01  -3.878969e+00
   8.544267e+00   1.712152e-01
   2.797847e+01   5.170142e+01
   3.819810e+01   6.582464e+01
   2.941692e+01   8.621250e+01
  -6.140981e+01   6.701726e+01
  -1.454945e+02  -3.062503e+01
  -1.474148e+02  -6.285241e+01
  -1.872013e+00  -4.795932e+01
   1.296459e+02  -2.059302e+01
   9.946662e+01   1.587891e+01
  -2.255976e+01  -1.846463e+01
  -2.985580e+01   2.507245e+01
  -2.195314e+01   2.488176e+01
   2.323731e+01   3.724779e+00
   3.741604e+00  -1.082342e+01
  -6.086021e+01  -3.383706e+00
  -6.708035e+01  -9.268396e+00
  -1.629348e+00  -9.415948e+01
   1.481597e+02  -1.052801e+02
   1.882255e+02  -1.994219e+01
   1.787624e+02   9.539857e+01
   3.968638e+01   1.624058e+02
  -5.014873e+01   1.379397e+02
  -1.592216e+02   4.561430e+01
  -8.217737e+01  -7.758456e+00
   3.634133e+00  -3.209138e+01
  -2.333869e+01  -1.432105e+01
  -2.482452e+01  -5.995605e+00
  -5.303524e+01  -6.588496e+01
   1.747856e+01  -7.743411e+01
   1.183071e+01  -4.485218e+01
   1.296975e+02   3.554758e+01
   9.823044e+01   9.108529e+01
   1.795331e+01   1.073848e+02
  -8.394602e+01   3.354653e+01
  -7.738252e+01  -7.910793e+01
  -9.256176e+00  -9.476927e+01
   8.609959e+01  -8.538260e+01
   8.682510e+01   4.791353e+00
   3.884763e+01   2.232203e+01
  -1.499154e+01   8.606398e+01
  -9.042593e+00   4.742581e+01
   4.090331e+01   3.315604e+01
   6.435626e+01   1.412750e+01
  -2.407962e+00   2.791535e+01
  -8.607717e+01   6.771458e+01
  -9.747343e+01   7.931883e+01
  -6.198051e+01   8.437800e+00
   8.403567e+00  -5.497695e+01
   2.813218e+01  -7.883745e+01
   3.249634e+01   4.737534e+00
  -2.860631e+01   8.941619e+01
  -3.150772e+01   3.754312e+01
  -4.865792e+01  -6.676155e+01
  -2.663286e+01  -5.012669e+01
   3.387972e+00  -2.142327e+01
   1.793084e+01   3.145015e+01
   4.512356e+01   2.083581e+01
   1.484389e-01  -3.424612e+01
  -2.052083e+01  -2.117609e+01
   1.985909e+01  -1.993160e+01
  -1.441361e+00   4.381375e+01
  -2.845617e+01   8.271960e+01
  -1.337708e+01   9.113505e+00
  -7.509810e+00  -2.058782e+01
   9.187426e+00  -4.927465e+01
   6.012088e+01  -4.364254e+01
   7.174688e+01   5.135684e+01
  -1.911428e+01   6.690173e+01
  -5.067218e+01   5.099610e+01
  -6.504041e+01  -4.672307e-01
  -3.854827e+01  -7.696400e+01
   3.121751e+01  -5.544600e+01
   5.901896e+01  -1.737882e+01
   1.475756e+01   2.584646e+01
  -4.549004e+01  -3.016926e+01
  -7.498724e+01  -2.545082e+01
   5.348460e+01  -4.621464e+01
   9.113772e+01  -1.118185e+01
