
 $NMID
 id='ANONYMOUS ', fmtdat='(2E16.6)'
 volume=1.0
 tramp=1.0
 $END
  -4.469073e+03  -1.934755e+02
  -2.467220e+03  -2.367344e+03
   8.483757e+02  -2.799526e+03
   2.323616e+03  -9.667767e+02
   8.579973e+02   7.509414e+02
  -8.620284e+02   6.424696e+02
  -9.250709e+02  -4.732595e+02
   1.180902e+02  -1.180563e+03
   9.448079e+02  -8.031087e+02
   9.796550e+02   9.156722e+01
   3.706993e+02   8.219718e+02
  -2.421622e+02   8.997794e+02
  -6.190165e+02   9.598589e+01
  -3.830861e+02  -6.741814e+02
   3.245422e+02  -8.999829e+02
   5.973742e+02   4.119524e+01
   2.456439e+02   6.188138e+02
  -3.124941e+02   6.281436e+02
  -6.395166e+02  -4.172173e+00
  -3.464231e+02  -3.776689e+02
   1.875095e+00  -4.520130e+02
   2.726633e+02  -2.746179e+02
   1.948766e+02  -1.927117e+01
  -1.597264e+02   1.005999e+02
  -4.441447e+02  -1.190332e+02
  -2.097022e+02  -4.780782e+02
   5.022138e+02  -4.220351e+02
   8.152337e+02   1.237796e+02
   4.417944e+02   6.056992e+02
  -4.093624e+02   5.047596e+02
  -7.513537e+02  -7.294004e+01
  -3.672007e+02  -5.736185e+02
   3.195351e+02  -4.927399e+02
   5.246089e+02  -1.870969e+02
   4.412338e+02   2.483666e+02
   5.479896e+01   4.965864e+02
  -2.263514e+02   2.858052e+02
  -1.281781e+02  -1.448314e+02
   2.240265e+02  -4.608937e+02
   4.809140e+02  -1.719867e+01
   1.783861e+02   7.117295e+02
  -3.637121e+02   6.470300e+02
  -6.143124e+02  -3.443603e+01
  -2.708412e+02  -6.463963e+02
   3.043393e+02  -3.126916e+02
   4.233826e+02   3.545266e+02
  -5.819011e+01   5.932256e+02
  -5.469760e+02   1.332615e+02
  -6.556923e+02  -5.058947e+02
  -1.603725e+02  -6.858739e+02
   3.651338e+02  -2.986590e+02
   7.109189e+02   1.012534e+02
   3.941869e+02   4.146436e+02
  -1.003655e+02   3.028779e+02
  -5.073633e+02   1.170828e+01
  -2.584388e+02  -1.912070e+02
   1.672024e+02  -1.000695e+02
   1.234005e+02   1.522343e+02
  -1.928853e+02   2.186934e+02
  -3.277535e+02  -8.712581e+01
  -1.511621e+02  -3.373734e+02
   1.978150e+02  -2.476936e+02
   3.486357e+02  -6.717583e+01
   2.355716e+02   9.130136e+01
  -2.678747e+01   2.112881e+02
  -2.668182e+02   3.364144e+02
  -3.858621e+02   2.347386e+02
  -3.028403e+02  -1.261345e+02
  -3.386191e+01  -4.529558e+02
   7.456568e+01  -3.900012e+02
   8.378732e+01  -1.189793e+02
   2.070803e+01   3.454092e+01
   3.681008e+01  -1.025379e+02
   2.098763e+02  -1.109735e+02
   2.893998e+02   5.264531e+01
   1.649512e+02   2.966174e+02
  -1.159434e+02   2.540131e+02
  -2.299067e+02   3.115175e+00
  -2.124267e+02  -2.965910e+02
   2.959300e+01  -3.100925e+02
   2.524148e+02  -1.265378e+02
   3.663377e+02   1.883152e+02
   1.769820e+02   3.588904e+02
  -1.000776e+02   2.735751e+02
  -2.257670e+02   1.342018e+02
  -1.004432e+02  -5.008628e+00
  -1.733610e+02  -1.015491e+00
  -2.255423e+02   6.123012e+01
  -4.005521e+02  -4.659253e+01
  -3.380511e+02  -3.072690e+02
  -2.375010e+01  -4.637755e+02
   3.063333e+02  -4.101927e+02
   5.056746e+02  -2.114248e+02
   3.546309e+02   8.955774e+01
   1.921122e+01   2.907255e+02
  -1.275878e+02   2.694249e+02
  -1.072296e+02   2.024374e+01
   1.009448e+02  -9.541404e+01
   1.254802e+02   1.627837e+01
   4.610066e+01   1.625590e+02
  -1.700219e+02   1.533187e+02
  -1.886713e+02  -8.885609e+01
   6.002178e+01  -2.115505e+02
   2.344529e+02  -4.166940e+01
   2.033251e+02   2.928781e+02
  -5.442332e+01   3.974908e+02
  -2.385429e+02   1.702683e+02
  -3.128665e+02  -8.891204e+01
  -3.057478e+02  -2.153948e+02
  -6.143079e+01  -2.625039e+02
   1.434811e+02  -2.109440e+02
   1.800431e+02   2.096860e+01
   6.740799e+01   3.968835e+01
  -7.991425e+01  -9.778437e+01
  -3.893811e+01  -1.171848e+02
   1.497778e+02  -1.112204e+02
   1.640609e+02   2.568547e+01
   8.241899e+01   8.787104e+01
  -7.283144e+01   1.709058e+01
  -5.327802e+01  -7.328423e+01
   1.572980e+02  -8.151688e+01
   2.788004e+02   2.179847e+01
   2.685602e+02   1.609543e+02
   6.789596e+01   2.406374e+02
  -1.651847e+02   2.741755e+02
  -3.071701e+02   1.325114e+02
  -2.148240e+02  -7.750213e+01
   5.631942e+01  -1.113658e+02
   1.144800e+02  -1.041660e+01
  -6.167141e+01   7.889453e+01
  -1.776350e+02   2.466321e+01
  -2.411894e+02  -7.927423e+01
  -1.096164e+02  -1.889922e+02
   8.587541e+01  -1.485100e+02
   1.487001e+02  -1.402513e+01
   1.197554e+02   5.359377e+01
  -4.863401e+01  -6.351537e+00
  -3.926096e+01  -5.993647e+01
   8.174891e+01  -1.388731e+02
   1.787401e+02  -6.808756e+01
   1.714784e+02   1.015757e+02
   6.742931e-01   2.164927e+02
  -1.531762e+02   1.859009e+02
  -2.003105e+02  -2.229099e+01
  -9.352731e+01  -1.381618e+02
   8.826744e+01  -1.225876e+02
   1.064882e+02  -2.236731e+01
   5.349752e+01   5.380307e+01
  -2.394074e+01   2.156653e+01
   3.159671e+01  -4.233819e+01
   6.362015e+01   4.033615e+01
   5.252880e+01   8.562061e+01
   2.383761e+01   1.790937e+02
  -1.574975e+02   1.535269e+02
  -2.107332e+02   4.127098e+00
  -1.815336e+02  -1.387758e+02
  -5.649997e+01  -2.814995e+02
   1.216921e+02  -1.543946e+02
   1.337244e+02  -1.524434e+01
   8.977209e+01   8.261372e+01
   1.250500e+01   4.796895e+01
   7.254870e+01  -9.178653e+00
   7.799247e+01   8.786036e+00
   2.993109e+01   2.854660e+01
  -5.175543e+01   7.567636e+01
  -1.195986e+02   7.508296e+01
  -6.799513e+01  -4.221635e+01
   1.659043e+01  -1.228597e+02
   1.499592e+02  -3.387738e+01
   2.153088e+02   6.625446e+01
   9.201124e+01   2.035272e+02
  -1.034514e+02   2.783924e+02
  -2.908681e+02   1.506898e+02
  -2.558309e+02  -8.465161e+01
  -9.807458e+01  -2.019064e+02
   2.549046e+01  -1.932010e+02
   1.124225e+02  -8.982109e+01
   6.972223e+01  -9.394157e+01
   6.667240e+01  -1.040092e+02
   8.862985e+01  -7.629655e+01
   1.653127e+02   4.845657e+01
   1.169103e+02   1.650412e+02
   2.819960e+01   1.919285e+02
  -7.821007e+01   1.586124e+02
  -1.700031e+02   3.365041e+01
  -1.197676e+02  -1.074663e+02
  -6.368710e+01  -1.752310e+02
   5.569559e+01  -1.040956e+02
   7.045491e+01   1.194542e+01
   3.172876e+01   5.490766e+01
   3.187710e+01   2.120058e+01
   3.846831e+01   3.490850e+01
   8.622702e+01  -2.174056e+01
   4.316163e+01   3.966032e+01
  -4.115859e+01   4.728758e+01
  -1.529650e+02  -1.521756e+01
  -1.153498e+02  -6.059778e+01
  -5.610165e+01  -9.409264e+01
   1.027938e+02  -5.926340e+01
   1.524786e+02  -4.490416e+01
   5.494600e+01   5.060959e+01
  -7.279193e+01   1.908056e+01
  -8.752940e+01  -1.768867e+01
  -3.855614e+01  -6.278359e+01
   3.411880e+01  -2.271777e+01
   6.539196e+01   1.194807e+01
   2.779990e+01   1.002661e+02
   3.009780e+01   7.638416e+01
   4.178115e+01  -2.960303e+01
   9.092853e+01  -5.279591e+00
   6.327325e+01   5.930424e+01
  -4.389876e+01   1.647518e+02
  -1.156952e+02   1.267819e+02
  -1.571751e+02  -1.354937e+01
  -1.316970e+02  -6.890033e+01
   1.072651e+01  -1.332077e+02
   1.252415e+02  -6.820797e+01
   6.413313e+01   1.768231e+01
  -4.649332e+01   3.343672e+01
  -8.987208e+01  -4.476600e+01
  -9.245169e+01  -1.441972e+02
   7.386511e+01  -7.289769e+01
   1.719681e+02  -4.602886e+01
   1.749052e+02   2.114699e+01
   4.050759e+01   7.077681e+01
  -8.067330e+01   8.045592e+01
  -8.676455e+01   5.822366e+00
   5.537635e+01  -6.774412e+00
   1.187091e+02   2.958126e+01
   3.115848e+01   9.851758e+01
  -8.101801e+01   1.794244e+02
  -1.621312e+02   7.400489e+01
  -1.411522e+02  -7.018272e+01
  -1.112790e+01  -1.963840e+02
   1.037046e+02  -1.585219e+02
   1.093323e+02  -1.971158e+00
   3.883061e+01   9.549552e+01
   1.027862e+01   1.059430e+02
  -6.808442e+01   5.323823e+01
  -5.332183e+01  -3.343326e+01
  -5.017844e+00   2.017069e+01
   3.968792e+01   1.270128e+01
  -2.565819e+01  -1.177919e+01
  -1.960676e+01  -9.584036e+01
  -1.290261e+01  -8.849950e+01
   5.012184e+01  -4.052744e+01
   1.344172e+02   4.045351e+01
   1.650305e+02   7.152253e+01
   2.076213e+01   5.552595e+01
  -7.278488e+01   1.863620e+01
  -9.993572e+01  -2.214139e+01
  -1.404450e+01  -1.946785e+00
   6.734081e+01  -3.168636e+01
  -2.555170e+01   1.365448e+01
  -2.757866e+01  -9.212110e+00
  -2.661154e+00  -6.361402e+00
   4.120419e+01   1.173910e+00
   9.096047e+01   2.449870e+01
  -2.976048e+01   1.094020e+02
  -9.879380e+01   6.698286e+01
  -1.663082e+02   2.973861e+01
  -1.230253e+02  -8.416294e+01
   3.875174e+00  -1.758757e+02
   9.250663e+01  -1.244552e+02
   1.395391e+02  -2.076754e+01
   9.468261e+01   3.528536e+01
   8.084997e+00   2.338453e+01
  -5.050057e+00   1.770887e+01
   2.994206e+01   1.291228e+01
   5.372580e+01   5.030396e+01
   5.488400e+01   3.598032e+01
  -9.637580e+00   6.963558e+01
  -7.416131e+01  -2.974978e+01
  -1.114272e+02  -1.275229e+02
  -9.543316e+00  -1.361237e+02
   6.235538e+01  -3.390243e+01
   1.253056e+02   5.676378e+01
   4.839912e+01   1.012666e+02
  -7.133599e+01   9.553927e+01
  -7.840016e+01  -2.783020e+01
  -4.040319e+01  -3.776372e+01
   9.295464e+00  -4.316457e+01
   2.307944e+01  -5.244706e+01
  -1.961265e+01   9.166912e+00
  -7.829909e+01   5.572310e+00
  -3.080392e+01  -5.002689e+01
   6.412402e+01  -7.625026e+01
   1.237827e+02  -2.431107e+01
   8.897793e+01  -2.400708e+01
  -3.405982e+01   4.554267e+01
  -3.934619e+01   8.575870e+01
  -1.883613e+01   4.259218e+00
   1.459267e+01  -5.612148e+01
   5.283184e+01  -6.259141e+01
   3.016814e+01   3.456583e+01
   3.109322e+01   6.715685e+01
  -3.783899e+01   1.528380e+01
  -4.266150e+01   7.212265e+00
  -4.218768e+01   2.877048e+00
  -4.324491e+01   5.462646e+00
   1.686787e+01   1.679881e+01
  -2.286757e+01   1.048454e+01
   7.244212e+01  -3.561894e+01
  -5.536082e+00  -2.313268e+01
   3.102174e+01  -4.707039e+01
   4.845198e+01   6.465870e+01
   3.280013e+00   3.013894e+01
  -5.462604e+01   4.396709e+01
  -1.527866e+01  -5.696760e+01
   5.872653e+00  -4.298089e+01
   2.657674e+01  -3.001018e+01
   8.935911e+01   2.156260e+01
   3.512008e+01   5.701001e+01
   8.383206e+00   5.780571e+01
  -8.019646e+01   1.108297e+01
  -3.076971e+01  -2.012601e-01
   2.271846e+01   1.807333e+00
   5.237733e+01   2.934297e+01
  -3.202677e+01   5.108981e+00
  -1.015120e+02   1.689175e+01
