
 $NMID
 id='ANONYMOUS ', fmtdat='(2E16.6)'
 volume=1.0
 tramp=1.0
 $END
  -4.181536e+03  -3.780524e+02
  -2.585464e+03  -2.402102e+03
   6.297946e+02  -2.671593e+03
   1.927723e+03  -7.401500e+02
   8.213839e+02   4.543671e+02
  -5.969802e+02   4.221030e+02
  -7.919714e+02  -4.961266e+02
   3.178377e+01  -8.916385e+02
   8.008249e+02  -6.565109e+02
   9.209032e+02   1.237384e+02
   4.698935e+02   8.892599e+02
  -2.235945e+02   8.425869e+02
  -5.064848e+02   2.132860e+02
  -3.116259e+02  -7.075077e+02
   3.457913e+02  -6.440825e+02
   5.198859e+02   3.193102e+01
   2.332565e+02   7.294639e+02
  -2.965827e+02   5.807738e+02
  -5.364483e+02   1.007694e+02
  -3.179520e+02  -3.089957e+02
  -3.404505e+01  -3.930272e+02
   1.944932e+02  -2.079792e+02
   1.945172e+02   2.134865e-01
  -1.423491e+02   4.456024e+01
  -4.023284e+02  -1.321597e+02
  -1.539007e+02  -5.122500e+02
   5.148700e+02  -3.799682e+02
   8.103604e+02   1.759388e+02
   3.042222e+02   5.341869e+02
  -3.451012e+02   3.674446e+02
  -5.873516e+02  -6.201099e+01
  -2.982337e+02  -5.320221e+02
   2.791345e+02  -4.597007e+02
   5.947828e+02  -1.614273e+02
   3.675252e+02   2.512224e+02
   7.722856e-01   4.350635e+02
  -1.634336e+02   2.405563e+02
  -8.284085e+01  -2.167362e+02
   2.656460e+02  -3.832255e+02
   3.927773e+02   1.559607e+02
   1.453487e+02   7.085715e+02
  -3.401749e+02   6.657148e+02
  -6.028761e+02  -3.517435e+01
  -2.684964e+02  -5.673987e+02
   3.169990e+02  -2.285643e+02
   3.022208e+02   2.988939e+02
  -1.388231e+02   4.849600e+02
  -5.885639e+02   1.405008e+02
  -5.403592e+02  -4.173348e+02
  -1.304151e+02  -5.392877e+02
   4.311590e+02  -2.953046e+02
   5.095902e+02   1.239651e+02
   3.645868e+02   3.813257e+02
  -1.708365e+02   3.496344e+02
  -3.929903e+02   4.043600e+01
  -2.230757e+02  -1.216521e+02
   1.022130e+02  -6.894931e+01
   1.309537e+02   1.607886e+02
  -1.704057e+02   1.125484e+02
  -2.712508e+02  -6.265915e+01
  -1.245578e+02  -2.594037e+02
   1.953354e+02  -1.886537e+02
   3.643871e+02  -1.145915e+02
   2.070197e+02   7.770726e+01
  -2.492834e+01   2.482474e+02
  -2.207132e+02   3.390547e+02
  -3.228671e+02   2.385554e+02
  -2.841835e+02  -2.176159e+02
  -4.687759e+01  -4.269695e+02
   1.421513e+02  -3.665187e+02
   1.091142e+02  -1.219709e+02
   4.472209e+01   2.863310e+00
   5.997103e+01  -1.005552e+02
   2.371785e+02  -5.999428e+01
   2.911296e+02   1.057982e+02
   1.090061e+02   2.983050e+02
  -7.032322e+01   2.275240e+02
  -2.179558e+02  -2.051660e+01
  -1.836697e+02  -2.483431e+02
   5.973747e+01  -3.263623e+02
   2.422777e+02  -4.618290e+01
   4.157004e+02   1.548134e+02
   1.256554e+02   3.998294e+02
  -1.392566e+02   2.912921e+02
  -1.698938e+02   1.367721e+02
  -1.417201e+02   1.239223e+01
  -8.670540e+01   7.363801e+01
  -2.712457e+02   3.917936e+01
  -3.865029e+02  -5.231461e+01
  -3.147187e+02  -3.109402e+02
   1.641723e+01  -4.768192e+02
   3.742572e+02  -4.024331e+02
   5.157465e+02  -1.612997e+02
   3.370532e+02   9.589074e+01
  -2.052161e+00   3.018356e+02
  -1.303040e+02   2.070019e+02
  -8.962445e+01   4.405084e+01
   1.582928e+02  -7.583555e+01
   2.079396e+02   3.534686e+01
  -1.071531e+01   1.536063e+02
  -1.977690e+02   1.352295e+02
  -1.648857e+02  -4.746756e+01
   3.576843e+01  -1.848918e+02
   1.805393e+02  -1.902358e+01
   1.490281e+02   2.347900e+02
  -3.364884e+01   3.478587e+02
  -2.810726e+02   1.858694e+02
  -3.505704e+02  -7.603951e+01
  -2.589782e+02  -2.495730e+02
  -9.427568e+01  -2.731285e+02
   1.315989e+02  -1.124757e+02
   1.695623e+02  -1.404427e+01
   7.036430e+01   6.045756e+01
  -3.942511e+01  -4.712398e+01
  -1.798405e+01  -1.446730e+02
   1.476160e+02  -9.467632e+01
   2.244372e+02   4.496030e+01
   6.804374e+01   8.269439e+01
  -8.524365e+01   7.944261e+00
  -8.681708e+01  -1.030490e+02
   1.570646e+02  -8.948939e+01
   2.967806e+02   6.800682e+01
   2.547555e+02   1.869851e+02
   1.373422e+01   2.993392e+02
  -2.009881e+02   2.483089e+02
  -2.730021e+02   1.133761e+02
  -1.498823e+02  -5.975859e+01
   6.023875e+01  -8.364326e+01
   7.340387e+01   2.217479e+00
  -6.238647e+01   9.114081e+01
  -2.002478e+02   6.470112e+01
  -1.700316e+02  -1.306685e+02
  -8.751459e+01  -1.963228e+02
   1.271692e+02  -1.411757e+02
   1.370905e+02  -2.389834e+01
   5.372705e+01   3.775134e+01
  -2.918305e+01   1.451919e+01
  -2.659439e+01  -1.114632e+02
   5.848638e+01  -9.892100e+01
   2.121697e+02  -1.027500e+01
   1.814532e+02   1.103223e+02
  -2.726133e+01   2.079208e+02
  -1.613448e+02   1.631233e+02
  -1.914299e+02  -1.369335e+01
  -5.539982e+01  -1.330773e+02
   4.564326e+01  -1.268624e+02
   6.659171e+01  -2.216255e+01
   1.917574e+01   5.874264e+01
  -4.938160e+01   2.094980e+01
   1.219544e+01  -1.094380e+01
   1.030819e+02  -9.619741e+00
   7.015335e+01   9.608275e+01
   3.139725e+01   1.649445e+02
  -1.440038e+02   1.267620e+02
  -2.435165e+02   2.349508e+01
  -2.002038e+02  -1.020653e+02
  -5.556825e+01  -2.447535e+02
   9.500385e+01  -1.297907e+02
   1.598287e+02   1.554818e+01
   5.925911e+01   9.111457e+01
   2.300872e+01   3.600987e+01
   7.643548e+01  -3.032934e+01
   8.916473e+01   9.993531e+00
   2.927922e+01   4.289874e+01
  -3.646911e+01   7.272552e+01
  -1.138696e+02   6.122903e+01
  -1.026066e+02  -5.401510e+01
   1.575045e+01  -1.659165e+02
   1.310788e+02  -6.220150e+01
   2.243613e+02   4.636378e+01
   7.778899e+01   2.380371e+02
  -1.008612e+02   2.172965e+02
  -2.600879e+02   7.280307e+01
  -2.514869e+02  -1.105657e+02
  -1.070515e+02  -2.096971e+02
   2.732679e+00  -1.485644e+02
   8.688293e+01  -8.605828e+01
   7.426834e+01  -2.678086e+01
   1.173261e+02  -6.700369e+01
   1.520673e+02  -3.754335e+01
   1.061454e+02   1.450102e+01
   1.313906e+02   1.706599e+02
   1.527038e+01   2.243016e+02
  -9.936916e+01   1.818826e+02
  -1.913294e+02  -2.705270e+01
  -1.573400e+02  -1.811077e+02
  -4.277479e+01  -1.505445e+02
   7.110137e+01  -9.107029e+01
   3.411299e+01   4.013979e+01
   3.307182e-01   2.792173e+01
  -6.757866e+00   2.796432e+01
   4.111991e+01   1.751485e+00
   6.319317e+01   3.102909e+01
   3.301008e+01   5.959394e+01
  -7.921957e+01   7.797432e+01
  -1.655496e+02  -1.780564e+01
  -1.347528e+02  -5.883840e+01
  -2.961056e+01  -1.266949e+02
   8.924298e+01  -4.161202e+01
   1.741428e+02   1.903194e+01
   3.167447e+01   6.944438e+01
  -4.005692e+01   4.390802e+01
  -1.312156e+02  -2.232416e+00
   8.878764e+00  -6.421125e+01
   8.124659e+01  -5.424571e+01
   4.337925e+01   3.740898e+00
   7.162388e+01   6.976951e+01
   9.738971e+01   3.810105e+01
   4.825126e+01   2.994743e+01
   5.526829e+01  -3.814366e+01
   5.466181e+01   8.910137e+01
  -4.537921e+01   1.189023e+02
  -1.370751e+02   1.573206e+02
  -2.004360e+02   1.702270e+01
  -1.089529e+02  -9.485684e+01
   6.278219e-01  -1.654331e+02
   9.555044e+01  -1.873141e+00
   5.945129e+01   2.231806e+01
  -6.629710e+01   5.463107e+01
  -1.271034e+02  -7.101967e+01
  -6.105205e+01  -1.142815e+02
   8.334611e+01  -8.688186e+01
   2.096831e+02  -5.561938e+01
   1.771391e+02   1.002991e+01
   2.166389e+01   1.074281e+02
  -7.452044e+01   4.500987e+01
  -3.723526e+01   9.578946e-01
   1.007713e+01  -2.321059e+01
   7.724133e+01   5.277332e+00
  -5.228689e+00   1.455760e+02
  -9.019505e+01   1.184881e+02
  -1.574442e+02   2.636673e+01
  -1.291270e+02  -1.121698e+02
   1.358462e+01  -1.682750e+02
   9.062419e+01  -1.619662e+02
   8.161082e+01  -2.449875e+01
   1.634927e+01   1.274481e+02
   1.167280e+01   1.349198e+02
  -5.612460e+01   1.091880e+01
  -6.571350e+01   3.285704e+00
  -1.805090e+01  -1.190663e+01
   2.674106e+01   1.353802e+01
   2.284339e+00  -3.746565e+01
  -2.706924e+01  -6.041507e+01
  -2.787934e+01  -1.175264e+02
   3.218379e+01  -2.021895e+01
   1.096089e+02   5.396002e+01
   1.105541e+02   7.877941e+01
   7.323715e+01   2.832960e+01
  -7.429894e+01   4.389416e+01
  -7.945388e+01   2.095247e+01
  -4.529957e+01   6.203621e+00
   4.899263e+01  -9.284692e+00
   1.016213e+01  -6.732439e+00
  -9.717987e-01  -9.215278e-01
   1.651614e+01   2.310171e+01
   4.637026e+01   2.330318e+01
   1.095817e+02   2.111198e+01
   2.083287e+01   7.633899e+01
  -1.215916e+02   1.249030e+02
  -2.000473e+02   3.385508e+01
  -1.649038e+02  -8.411139e+01
  -3.974867e+01  -2.025925e+02
   9.092740e+01  -1.321287e+02
   1.259237e+02  -5.063509e+01
   9.271896e+01   1.000996e+01
   8.904913e+00   2.840765e+01
  -7.240224e+00  -1.443379e+01
   9.226754e+00  -1.927868e+01
   4.280008e+00   7.458876e+01
   1.635622e+00   7.884379e+01
  -2.425627e+01   8.340499e+01
  -7.611737e+01  -3.122179e+01
  -8.463956e+01  -8.882107e+01
  -3.014393e+01  -9.872245e+01
   6.074212e+01  -3.577194e+01
   6.915067e+01   8.091216e+01
   1.485267e+01   9.563663e+01
  -8.299945e+01   5.064292e+01
  -1.201676e+02  -5.488470e+00
  -1.026598e+01  -8.724033e+01
   3.732135e+01   1.227058e+01
   1.302691e+01  -9.099766e+00
  -2.313393e+01   6.055298e+00
  -3.834546e+01  -3.296031e+01
  -3.118007e+01  -4.487304e+01
   7.486849e+01  -7.077477e+01
   1.269416e+02  -8.909070e+01
   5.000753e+01  -7.526480e+00
   3.963341e+01   6.487008e+01
  -3.508852e+01   9.712031e+01
  -5.350554e+01   5.686064e+00
   3.042978e-01  -8.450303e+01
   7.569941e+01  -6.407042e+01
   6.410497e+01   1.612099e+01
   6.162711e+01   4.514830e+01
   1.735477e+01   5.129575e+01
  -1.492481e+01   2.440735e+01
  -4.439796e+01  -3.812592e+01
   2.091220e+01   3.068094e+01
  -2.091551e+01   2.918775e+00
   4.428421e+01   2.870669e+00
  -1.743429e+01   7.528507e+00
   1.288387e+01  -5.269528e+01
   2.497192e+01   5.786714e+00
   4.616167e+01   6.244311e+01
   8.116447e-01   5.700480e+01
  -2.012258e+01  -4.177359e+01
  -1.013386e+02  -4.647104e+01
  -2.694444e+01  -6.239122e+01
   5.092829e+01  -5.724290e+01
   9.329499e+01   3.751685e+01
   4.921288e+01   3.706836e+01
  -5.092040e+01   6.517601e+01
  -4.912630e+01   1.220260e+01
  -3.184746e+01   5.128531e+01
   5.770964e+01   6.966230e+00
   2.285071e+01   7.744249e+01
  -8.424149e+01   2.974781e+01
  -7.727418e+01   3.266124e+01
