
 $NMID
 id='ANONYMOUS ', fmtdat='(2E16.6)'
 volume=1.0
 tramp=1.0
 $END
  -4.376906e+03  -2.901889e+02
  -2.748951e+03  -2.825617e+03
   9.843950e+02  -3.034739e+03
   2.370131e+03  -7.516438e+02
   8.621472e+02   9.238756e+02
  -9.080620e+02   5.248265e+02
  -8.994686e+02  -6.594152e+02
   3.166439e+01  -1.207966e+03
   8.883166e+02  -6.875489e+02
   9.253808e+02   1.240374e+02
   4.501339e+02   9.439508e+02
  -3.175151e+02   9.498803e+02
  -6.021992e+02   1.163616e+02
  -4.598399e+02  -8.655402e+02
   3.310979e+02  -7.293268e+02
   6.266441e+02   5.368767e+01
   2.966790e+02   7.238287e+02
  -4.113206e+02   6.147647e+02
  -6.294062e+02   5.915638e+01
  -3.935116e+02  -4.134566e+02
   3.613417e+01  -4.170825e+02
   2.351979e+02  -2.727246e+02
   2.335642e+02   4.509980e+01
  -1.428435e+02   1.417003e+02
  -4.823578e+02  -1.152086e+02
  -3.102700e+02  -4.562247e+02
   4.420966e+02  -5.105139e+02
   9.005859e+02   2.706768e+01
   4.721442e+02   7.000447e+02
  -3.800653e+02   5.915399e+02
  -7.894199e+02   8.896199e+01
  -3.545527e+02  -4.872998e+02
   2.665086e+02  -6.200565e+02
   6.367122e+02  -1.875074e+02
   4.007249e+02   2.421417e+02
   7.854025e+01   5.262530e+02
  -1.966744e+02   3.398489e+02
  -2.034784e+02  -2.569388e+02
   2.153646e+02  -5.408643e+02
   5.562510e+02   5.978265e+01
   2.780296e+02   7.422732e+02
  -3.170983e+02   7.982463e+02
  -7.085271e+02  -7.773628e+01
  -2.435558e+02  -6.279574e+02
   3.244512e+02  -3.352303e+02
   4.702377e+02   3.107004e+02
  -5.923535e+01   5.816339e+02
  -6.467437e+02   2.054889e+02
  -5.808791e+02  -4.373115e+02
  -1.277987e+02  -5.831805e+02
   3.950529e+02  -4.150489e+02
   6.340674e+02   1.462087e+02
   4.277278e+02   4.607330e+02
  -1.148140e+02   4.303839e+02
  -4.931186e+02   3.647543e+01
  -2.531343e+02  -2.282029e+02
   1.368390e+02  -1.345787e+02
   2.032809e+02   1.203151e+02
  -2.213589e+02   1.802034e+02
  -3.667473e+02  -2.068316e+01
  -1.301237e+02  -3.408287e+02
   2.657566e+02  -2.720994e+02
   3.854530e+02  -4.121322e+01
   1.709173e+02   9.436871e+01
  -9.472937e+00   2.614648e+02
  -1.902900e+02   2.963505e+02
  -3.265606e+02   2.376785e+02
  -3.091277e+02  -1.370323e+02
  -1.174500e+02  -4.461897e+02
   1.168332e+02  -4.286509e+02
   1.162626e+02  -1.032756e+02
  -1.254963e+01   6.022644e+01
  -2.293520e+01  -7.244496e+01
   2.042764e+02  -1.529402e+02
   2.693901e+02   9.698689e+01
   1.395896e+02   2.392446e+02
  -4.520297e+01   2.764694e+02
  -1.902593e+02   5.474011e+01
  -2.235814e+02  -2.271597e+02
   2.895322e+01  -3.297213e+02
   2.595935e+02  -1.027875e+02
   3.712154e+02   1.831693e+02
   1.843241e+02   3.717571e+02
  -3.914116e+01   3.207391e+02
  -2.517931e+02   1.037326e+02
  -1.437533e+02  -1.241416e+01
  -3.896408e+01   8.941022e+00
  -2.312501e+02   1.052167e+02
  -4.705472e+02  -1.495915e+00
  -3.831527e+02  -2.663698e+02
  -5.851346e+00  -4.335670e+02
   3.887463e+02  -4.646595e+02
   5.138181e+02  -2.326864e+02
   3.700947e+02   9.734404e+01
   6.282822e+01   3.228799e+02
  -1.588375e+02   2.382100e+02
  -1.326696e+02   3.007478e+01
   1.250942e+02  -1.499575e+02
   1.939646e+02   2.489580e+01
   1.395168e+01   1.183634e+02
  -1.633696e+02   1.850217e+02
  -1.629424e+02  -6.941524e+01
   1.388330e+01  -1.909525e+02
   2.210534e+02  -3.447253e+01
   1.673058e+02   2.876069e+02
   1.178865e+01   3.397858e+02
  -2.046184e+02   1.801946e+02
  -3.544206e+02  -8.226483e+00
  -2.778940e+02  -2.378664e+02
  -1.127185e+02  -2.632947e+02
   8.307584e+01  -1.496106e+02
   1.772644e+02  -5.263031e+00
   4.702007e+01   3.868751e+01
  -4.666721e+01  -1.908041e+01
  -6.044192e+01  -1.503283e+02
   1.327376e+02  -1.197785e+02
   2.057301e+02  -1.799832e+01
   8.648057e+01   8.744072e+01
  -7.714538e+01   4.592618e+01
  -7.255693e+01  -6.683282e+01
   1.011490e+02  -1.122127e+02
   2.981926e+02   1.577308e+01
   2.572339e+02   1.145192e+02
   3.344666e+01   2.494732e+02
  -1.831999e+02   2.767956e+02
  -3.405715e+02   1.379851e+02
  -1.821861e+02  -7.353466e+01
   6.729601e+01  -1.030394e+02
   1.311596e+02   2.804486e+01
  -2.077589e+01   1.253815e+02
  -2.098352e+02   1.010376e+02
  -2.412778e+02  -8.961261e+01
  -7.803455e+01  -1.973329e+02
   8.259971e+01  -1.699083e+02
   1.692585e+02  -3.971204e+01
   1.017243e+02   4.829042e+01
  -1.524859e+01   2.876433e+01
  -2.882270e+01  -5.563754e+01
   9.872020e+01  -1.169044e+02
   1.752992e+02  -3.702317e+01
   2.129387e+02   1.293640e+02
   5.388268e+01   2.397392e+02
  -2.015483e+02   2.120118e+02
  -2.203611e+02  -8.839648e+00
  -8.857672e+01  -6.980051e+01
   8.028701e+01  -9.322696e+01
   4.386598e+01  -1.662496e+01
   9.891207e+00   3.429554e+01
  -2.101714e+01  -9.142109e+00
   6.373558e+00   2.550715e+01
   4.845555e+01  -3.896397e+00
   7.910503e+01   4.533603e+01
   3.103328e-02   2.038838e+02
  -9.256953e+01   1.375490e+02
  -2.263177e+02   5.180942e+01
  -2.051790e+02  -1.064141e+02
  -2.945989e+01  -2.682846e+02
   1.118192e+02  -1.915414e+02
   1.447112e+02  -3.557348e+01
   4.145140e+01   8.845041e+01
   2.675330e+01   4.166291e+00
   5.086023e+01   2.150824e+01
   4.153405e+01  -1.685845e+01
   4.882431e+01  -1.704297e+00
  -7.637092e+01   1.009568e+02
  -7.500877e+01   6.565216e+01
  -6.532624e+01  -3.031549e+01
   3.330617e+01  -1.211677e+02
   1.213132e+02  -6.071631e+01
   2.078027e+02   6.276426e+01
   1.107108e+02   1.946046e+02
  -1.123548e+02   2.061717e+02
  -2.802496e+02   1.365391e+02
  -2.333668e+02  -1.032459e+02
  -1.210128e+02  -1.762904e+02
   3.987142e+01  -1.497573e+02
   1.436409e+02  -4.943197e+01
   8.902492e+01  -8.525499e+01
   1.005445e+02  -1.240556e+02
   6.348683e+01  -7.026229e+01
   1.305773e+02  -1.493867e+01
   1.668084e+02   1.116168e+02
   2.582403e+01   2.513639e+02
  -1.109338e+02   1.913731e+02
  -2.139716e+02   2.573696e+01
  -1.366728e+02  -1.203553e+02
  -1.392596e+01  -1.822632e+02
   7.180876e+01  -1.070648e+02
   3.520736e+01  -1.930245e+01
  -6.130992e+00   7.203414e+01
  -3.009725e+01   5.264942e+01
   3.735666e+01   3.598348e+01
   5.164609e+01  -1.434750e+01
   2.082597e+01   3.995266e+01
  -6.821371e+01   4.593202e+01
  -1.540270e+02   2.120780e+01
  -1.565306e+02  -3.573122e+01
  -4.491890e+01  -1.003878e+02
   1.139101e+02  -8.550025e+01
   1.571377e+02  -3.011189e+01
   5.098076e+01  -9.877820e-01
  -8.721773e+01   3.629897e+01
  -3.994772e+01  -3.972863e+01
   1.680457e+01  -8.447554e+01
   5.571346e+01  -8.264030e+01
   5.882558e+01  -2.906070e+01
   6.572032e+01   4.525752e+01
   3.931538e+01   4.552024e+00
   7.745732e+01  -7.229839e+00
   9.180875e+01  -3.507660e+01
   3.120008e+01   5.804258e+01
  -8.622776e+00   1.552250e+02
  -1.333910e+02   1.554312e+02
  -2.142151e+02  -1.309518e+00
  -1.239506e+02  -8.503450e+01
  -5.516269e+01  -1.299792e+02
   8.845755e+01  -8.449359e+01
   8.991243e+01   3.759410e+01
  -7.213748e+01   5.633361e+01
  -1.663932e+02  -5.950156e+01
  -8.062488e+01  -9.317172e+01
   1.044042e+02  -1.208040e+02
   2.337495e+02  -6.619936e+01
   1.776494e+02   2.054520e+01
   8.939945e-01   7.076858e+01
  -9.281467e+01   5.781413e+01
  -2.619011e+01  -4.361126e+00
   2.684114e+01  -2.750542e+01
   6.637370e+01   2.916795e+01
   3.126797e+01   1.049092e+02
  -1.162821e+02   1.457770e+02
  -1.368914e+02   7.995458e+01
  -1.393776e+02  -6.087150e+01
  -2.512324e+00  -2.210059e+02
   7.539863e+01  -1.275279e+02
   1.439167e+02  -9.365710e+00
   6.688570e+01   1.229190e+02
   8.870587e+00   1.393336e+02
  -5.391006e+01   7.073027e+00
  -4.187070e+01  -2.620604e+01
  -3.614497e+01  -2.357669e+01
  -2.206115e+01   1.661806e+01
  -6.779087e+01  -4.074221e+01
  -2.323659e+01  -1.011542e+02
   5.116724e+00  -7.840160e+01
   3.884236e+01  -5.511431e+01
   1.562402e+02   2.437221e+01
   1.459293e+02   8.685676e+01
   1.804257e+01   5.201796e+01
  -3.359923e+01   5.029643e+00
  -8.253063e+01   3.525151e+00
   1.116301e+01   6.087208e+00
   3.604327e+01  -1.258978e+01
   3.479681e+01  -7.820492e-01
   1.667974e+01   1.653748e+01
   1.654037e+01   2.087615e+01
   9.341154e+01   2.296147e+01
   6.887236e+01   4.530747e+01
   1.551614e+01   1.203178e+02
  -1.213129e+02   7.601796e+01
  -1.347493e+02   3.956700e+01
  -1.563360e+02  -8.238003e+01
  -4.279172e+01  -1.384978e+02
   7.261214e+01  -1.597794e+02
   7.634066e+01  -6.393665e+01
   6.610550e+01   3.671759e+00
   2.187531e+01   5.123568e+01
   1.284183e+01  -2.858289e+01
   6.396731e+00  -2.995523e+01
   3.057345e+01   5.652810e+01
   3.334867e+01   1.040099e+02
  -1.910457e+01   3.698123e+01
  -8.729550e+01  -1.519609e+01
  -6.404205e+01  -1.302119e+02
   1.273632e+01  -1.092656e+02
   8.974453e+01   8.069128e+00
   1.109422e+02   1.183744e+02
   2.399393e+00   1.097906e+02
  -6.496964e+01   8.706005e+01
  -1.082176e+02  -3.311330e+01
  -2.717669e+01  -6.683321e+01
   2.594213e+00  -5.817575e+01
   1.316018e+01  -4.848030e+01
   2.940829e+00  -4.876158e+00
  -7.260311e+01   4.004830e+01
   2.834473e+01  -4.605588e+00
   7.214234e+01  -3.857213e+01
   1.108973e+02  -5.224158e+01
   7.830456e+01   2.668781e+01
   1.696615e+01   8.537925e+01
  -1.368228e+01   7.838919e+01
  -1.367949e+01   5.649494e+00
   2.194147e+01  -6.978543e+01
   1.112852e+00  -2.196868e+01
   6.017790e+01  -7.434764e+00
   2.102984e+01   6.294529e+01
   1.150667e+01   8.273245e+00
  -5.803260e-02  -3.984447e+00
  -4.596938e+01  -1.909077e+01
  -3.784176e+01  -1.956867e+01
   1.554030e+01   3.649826e+01
   1.840124e+01  -2.843503e+01
  -7.809080e+01  -5.422134e+01
   3.709931e+01  -4.354578e+01
   6.537880e+01   6.074407e-01
   2.489556e+01   7.379967e+01
   2.086024e+01   3.183960e+01
  -4.135288e+01   1.546113e+01
  -5.423625e+01  -6.500260e+01
  -3.839607e+01  -4.104415e+01
   5.075490e+01  -3.422499e+01
   7.611164e+01   7.597631e+01
   6.049712e+01   3.675743e+01
   2.848044e+01   6.036652e+00
  -1.052657e+02   4.566848e+00
  -3.228791e+01   4.848730e+00
   1.363280e+01   2.005788e+01
   9.050062e+01   4.518827e+01
  -3.619144e+01   4.173061e+01
  -1.126959e+02   7.812152e+01
