
 $NMID
 id='ANONYMOUS ', fmtdat='(2E16.6)'
 volume=1.0
 tramp=1.0
 $END
  -4.667846e+03  -3.033135e+02
  -2.896549e+03  -2.846055e+03
   8.234732e+02  -2.747102e+03
   2.465923e+03  -7.118745e+02
   9.769289e+02   1.010320e+03
  -8.994974e+02   5.383980e+02
  -1.187678e+03  -6.082619e+02
   6.096310e+01  -1.213423e+03
   9.097694e+02  -8.876958e+02
   1.097565e+03   1.347719e+02
   5.079449e+02   9.151682e+02
  -4.121937e+02   9.280787e+02
  -7.129359e+02   1.984976e+02
  -4.514468e+02  -7.547623e+02
   3.468656e+02  -8.243664e+02
   7.145534e+02   6.262924e+01
   3.012742e+02   7.216823e+02
  -4.084592e+02   5.876447e+02
  -6.108226e+02  -9.179152e+00
  -3.782418e+02  -4.144984e+02
   6.868388e+01  -4.252054e+02
   2.902564e+02  -2.621896e+02
   2.773640e+02   2.858350e+01
  -7.003440e+01   1.158836e+02
  -4.401088e+02  -3.381459e+01
  -2.780455e+02  -4.431909e+02
   4.924007e+02  -5.773967e+02
   8.992145e+02   7.263185e+01
   3.594125e+02   7.074752e+02
  -3.750024e+02   5.017482e+02
  -7.840015e+02   3.652440e+01
  -3.692407e+02  -5.530506e+02
   2.943295e+02  -6.013322e+02
   5.976102e+02  -1.913920e+02
   5.000121e+02   3.137587e+02
   2.959977e+01   5.449385e+02
  -2.159651e+02   3.687197e+02
  -2.338169e+02  -2.514510e+02
   1.450299e+02  -4.848777e+02
   5.730741e+02   5.261721e+00
   2.505757e+02   8.242478e+02
  -3.191051e+02   7.457657e+02
  -6.985968e+02  -4.288033e+01
  -3.464846e+02  -6.248503e+02
   3.635181e+02  -3.260651e+02
   4.117238e+02   3.295594e+02
  -6.890174e+01   6.012779e+02
  -5.957788e+02   2.038162e+02
  -6.375602e+02  -4.754339e+02
  -1.495804e+02  -6.269693e+02
   3.537821e+02  -3.900497e+02
   6.521872e+02   1.392106e+02
   3.399354e+02   4.417491e+02
  -2.120118e+02   4.409978e+02
  -4.794532e+02   6.531591e+01
  -2.388313e+02  -2.096223e+02
   1.433206e+02  -1.453182e+02
   2.165304e+02   1.570520e+02
  -2.094382e+02   2.119053e+02
  -3.902069e+02  -8.883678e+01
  -1.549370e+02  -3.224800e+02
   2.158341e+02  -2.616103e+02
   3.344875e+02  -5.541972e+01
   1.931994e+02   1.082259e+02
  -2.877374e+01   2.196914e+02
  -2.208592e+02   2.742572e+02
  -2.824499e+02   2.430340e+02
  -3.237577e+02  -1.569567e+02
  -7.104815e+01  -5.044709e+02
   1.354204e+02  -4.143887e+02
   1.709558e+02  -1.217274e+02
   1.328281e+01   3.110394e+01
   4.814354e+01  -6.631745e+01
   1.877146e+02  -1.115474e+02
   3.066911e+02   3.255961e+01
   1.833722e+02   2.777552e+02
  -2.670423e+01   2.590349e+02
  -2.403127e+02   1.005844e+01
  -2.277602e+02  -2.505000e+02
   2.029381e+01  -3.187706e+02
   2.665095e+02  -1.265644e+02
   3.589457e+02   1.627366e+02
   1.545854e+02   3.588111e+02
  -1.330458e+02   3.209826e+02
  -2.152261e+02   9.559086e+01
  -1.581252e+02  -3.013643e+01
  -9.959638e+01   4.260575e+01
  -2.338341e+02   6.659657e+01
  -4.409426e+02  -6.807002e+01
  -3.332254e+02  -2.643850e+02
  -6.604671e+01  -4.338572e+02
   3.933761e+02  -4.641886e+02
   5.346100e+02  -1.842519e+02
   3.462194e+02   4.417240e+01
   6.176225e+01   3.375685e+02
  -1.489812e+02   2.361517e+02
  -1.074923e+02   3.560977e+01
   8.642104e+01  -1.543311e+02
   1.767756e+02  -1.449471e+00
   7.407373e+01   2.151614e+02
  -2.089869e+02   1.615672e+02
  -1.937521e+02  -7.627503e+01
   4.882557e+01  -2.411991e+02
   2.070309e+02  -4.482363e+01
   2.028189e+02   2.411208e+02
  -1.176112e+01   3.575163e+02
  -2.431542e+02   1.818234e+02
  -3.440691e+02  -7.061424e+01
  -3.096251e+02  -2.136684e+02
  -8.798093e+01  -2.449523e+02
   1.268762e+02  -1.438541e+02
   1.863580e+02  -4.438490e+01
   9.571768e+01   3.626893e+01
  -5.933545e+01  -2.990760e+01
  -1.241320e+01  -1.205562e+02
   1.220276e+02  -1.052155e+02
   1.778074e+02  -1.888226e+01
   4.916944e+01   7.574253e+01
  -5.136279e+01   2.874526e+01
  -6.686687e+01  -4.059986e+01
   1.438722e+02  -1.100489e+02
   2.836172e+02   7.010077e-01
   2.614257e+02   1.776200e+02
   6.808767e+01   2.364521e+02
  -1.845077e+02   2.820530e+02
  -3.259374e+02   1.700008e+02
  -2.101784e+02  -5.524252e+01
   3.189767e+01  -1.126592e+02
   1.188071e+02  -1.706193e+01
  -3.536519e+01   1.421069e+02
  -2.079988e+02   3.060085e+01
  -2.106175e+02  -1.061048e+02
  -8.959961e+01  -1.995501e+02
   9.591616e+01  -1.865502e+02
   1.805321e+02  -1.166916e+01
   6.224323e+01   5.539196e+01
  -6.916793e+00  -2.501476e+01
  -5.173145e+01  -1.023112e+02
   8.767970e+01  -1.296342e+02
   1.922917e+02  -5.965393e+01
   2.117106e+02   1.260035e+02
   1.443207e+01   2.162463e+02
  -1.691495e+02   1.581438e+02
  -2.044083e+02   3.369601e+00
  -5.374527e+01  -1.528986e+02
   8.003995e+01  -1.510432e+02
   9.317453e+01  -3.710056e+00
   1.865859e+01   2.858049e+01
   1.230759e+00   5.134725e+01
   2.107956e+01   3.486511e-01
   1.021352e+02   2.840777e+00
   7.681957e+01   9.577247e+01
   1.062950e+01   1.305556e+02
  -1.056749e+02   1.450044e+02
  -2.401274e+02   7.383515e+01
  -2.155246e+02  -1.521800e+02
  -1.243149e+01  -2.434005e+02
   1.354400e+02  -1.610029e+02
   1.652914e+02  -3.396004e+01
   5.829139e+01   1.137593e+02
   3.821157e+01   5.260241e+01
   6.407997e+01  -1.425812e+01
   8.011655e+01   4.355394e+01
   5.655271e+01   4.324010e+01
  -3.629030e+01   7.300804e+01
  -1.409378e+02   3.832918e+01
  -6.880286e+01  -5.515319e+00
   1.109178e+01  -1.080977e+02
   1.493807e+02  -5.182180e+01
   1.833006e+02   3.161488e+01
   9.837982e+01   1.973989e+02
  -5.645915e+01   2.439982e+02
  -3.005207e+02   9.025153e+01
  -2.810514e+02  -7.541556e+01
  -1.254633e+02  -1.557960e+02
   2.596455e+01  -1.365027e+02
   1.094979e+02  -8.212338e+01
   7.802534e+01  -5.304520e+01
   5.073574e+01  -7.482339e+01
   9.559325e+01  -7.403220e+01
   1.031674e+02   3.354864e+01
   1.378658e+02   1.464115e+02
   3.220227e+01   2.171723e+02
  -5.869116e+01   2.252740e+02
  -2.043756e+02   5.697380e-01
  -1.238906e+02  -9.883416e+01
  -4.716706e+01  -1.857163e+02
   9.645672e+01  -1.059115e+02
   6.840939e+01   1.787602e+01
   3.838049e+01   3.075354e+01
   1.385025e+01   5.296757e+00
   3.099695e+01   4.325503e+00
   3.066554e+01   4.934307e+01
   7.921509e+01   4.488149e+01
  -7.251388e+01   3.847079e+01
  -1.643946e+02   2.290584e+01
  -1.334698e+02  -4.574810e+01
  -1.936281e+01  -9.959929e+01
   1.205865e+02  -8.331621e+01
   1.739930e+02  -1.371167e+01
   2.401344e+01   5.934722e+01
  -1.069541e+02   6.758449e+01
  -6.819409e+01  -2.349335e+01
  -3.082596e+01  -6.862246e+01
   6.958473e+01  -6.793393e+01
   8.851464e+01   1.453460e+01
   1.761296e+01   7.547586e+01
   3.979268e+01   4.692590e+01
   6.033486e+01  -1.849400e+01
   6.016543e+01   2.110107e+01
   5.126773e+01   4.873127e+01
  -1.628645e+01   1.387675e+02
  -1.236259e+02   1.766803e+02
  -1.702506e+02   5.468670e+01
  -1.672022e+02  -9.396229e+01
  -1.362302e+01  -9.988350e+01
   1.323648e+02  -3.975509e+01
   3.309304e+01   2.250665e+01
  -8.282207e+01  -3.914597e+00
  -1.219467e+02  -5.097951e+01
  -6.726762e+01  -1.230612e+02
   6.338933e+01  -1.340075e+02
   1.955819e+02  -4.990620e+01
   1.916856e+02   5.604971e+01
   2.808202e+01   8.281722e+01
  -4.302772e+01   6.034688e+01
  -3.575058e+01   2.468621e+01
   5.730121e+00  -3.148025e+01
   1.261610e+02   7.064033e+01
   4.092895e+01   1.079238e+02
  -1.296686e+02   1.453280e+02
  -1.632430e+02   4.799666e+01
  -1.304214e+02  -6.437079e+01
  -3.092804e+01  -1.645863e+02
   1.210074e+02  -1.479479e+02
   1.150408e+02   2.598670e+01
   5.661666e+01   1.322834e+02
   1.033015e+01   8.906768e+01
  -4.990592e+01   1.796302e+01
  -6.646964e+01  -1.305138e+01
  -7.178560e+00  -4.023439e+01
   1.913451e+01   2.985931e+01
  -2.112084e+01  -3.276151e+01
  -6.156192e+01  -8.156835e+01
  -3.762164e+01  -1.025301e+02
   2.818753e+01   3.330577e+00
   1.018916e+02   1.734761e+01
   1.324509e+02   6.537926e+01
   1.243310e+01   2.893268e+01
  -9.411976e+01   5.076766e+01
  -9.742992e+01   9.317903e+00
  -2.412248e+01  -2.358397e+01
  -8.457033e+00  -3.166064e+01
   4.583933e+01  -3.401723e+01
  -2.709274e+01   1.535699e+01
   2.350918e+01   2.037266e+01
   6.340584e+01   4.873957e+01
   8.419972e+01   5.963981e+01
  -4.516786e+01   7.915998e+01
  -1.361232e+02   1.195690e+02
  -2.186884e+02   8.373616e+01
  -1.671624e+02  -8.133630e+01
  -3.102848e+01  -1.820934e+02
   7.074615e+01  -1.623610e+02
   1.032471e+02  -1.055988e+02
   7.207413e+01   3.350664e+01
   2.548809e+01   9.228579e+01
   1.440063e+01   3.795945e+01
   1.778837e+01   1.570300e+01
   4.984598e+00   4.516462e+01
   4.553691e+01   1.202733e+02
  -5.863323e+01   5.164890e+01
  -7.423200e+01  -2.348126e+01
  -7.094005e+01  -1.117773e+02
   5.345972e+01  -9.002846e+01
   8.754506e+01  -3.354155e+01
   8.348415e+01   8.750249e+01
  -3.760922e+00   7.401716e+01
  -6.522941e+01   4.951884e+01
  -1.127003e+02  -1.758231e+01
  -3.821755e+01  -6.631973e+01
   8.952128e+00  -2.763561e+01
  -5.544587e+00  -1.497162e+01
  -2.401666e+01  -1.983475e+00
  -7.135317e+01   2.844626e+01
   1.474932e+01  -3.171120e+00
   6.173218e+01  -8.363879e+01
   1.416373e+02  -1.015758e+02
   6.981243e+01   3.726963e+01
  -1.235783e+01   6.752506e+01
  -7.585815e+01   9.917681e+01
  -5.040534e+01  -2.050626e+01
   5.506747e+00  -7.487036e+01
   7.424579e+01  -3.132288e+01
   4.123891e+01   7.950468e+00
   3.346321e+01   1.216708e+01
  -3.191553e+00   3.699251e+01
  -4.708205e+01  -2.037729e+01
  -4.666666e-01  -1.988060e+01
  -2.226489e+00  -2.671665e+01
   1.840494e+00   1.985269e+01
  -3.427480e+00  -2.654417e+01
   1.813778e+01  -7.073755e+01
   3.037085e+01  -4.104807e+01
   3.602120e+01   2.945743e+01
  -1.062207e+01   4.957715e+01
  -4.495589e+01   3.170346e+01
  -7.122240e+01   3.145779e+01
  -2.987633e+01  -5.089270e+01
  -2.369718e+01  -1.044204e+02
   7.605769e+01  -2.123588e+01
   9.969118e+01   2.617158e+01
   1.979423e+01   7.510855e+01
  -1.623347e+01   6.381567e+01
  -3.099814e+01   5.011780e+01
  -3.489599e+01   1.336207e+01
   8.968674e+01  -2.276482e+01
  -7.559292e+00   2.319505e+01
  -6.784527e+01   5.222214e+01
  -1.045207e+02   5.573767e+01
