
 $NMID
 id='ANONYMOUS ', fmtdat='(2E16.6)'
 volume=1.0
 tramp=1.0
 $END
   4.549624e+03  -1.298774e+02
   2.560169e+03   2.718055e+03
  -9.891413e+02   2.970708e+03
  -2.263165e+03   8.459099e+02
  -9.068469e+02  -7.961720e+02
   8.222575e+02  -5.390633e+02
   9.608264e+02   5.846111e+02
  -6.478839e+01   1.169513e+03
  -7.920743e+02   7.382261e+02
  -9.196197e+02  -9.980396e+01
  -4.947279e+02  -8.811009e+02
   3.604515e+02  -8.938624e+02
   6.244836e+02  -8.195265e+01
   4.432018e+02   8.334855e+02
  -3.076379e+02   7.395560e+02
  -6.278440e+02   2.791727e+01
  -2.336336e+02  -7.345206e+02
   3.372225e+02  -6.676023e+02
   6.077334e+02  -7.532158e+01
   4.053115e+02   3.648979e+02
  -6.371477e+01   4.646670e+02
  -2.964509e+02   2.670163e+02
  -2.093207e+02  -4.560276e+01
   1.451142e+02  -9.352182e+01
   4.997049e+02   1.880206e+02
   2.168460e+02   5.049639e+02
  -5.614067e+02   4.767972e+02
  -9.159701e+02  -6.894860e+01
  -3.872956e+02  -5.884018e+02
   4.240659e+02  -4.658635e+02
   7.944827e+02  -2.838528e+00
   3.289171e+02   4.947320e+02
  -3.421159e+02   5.529018e+02
  -6.120136e+02   2.402551e+02
  -4.061640e+02  -2.362940e+02
  -1.179534e+01  -4.867077e+02
   2.213467e+02  -3.044278e+02
   2.227588e+02   2.385013e+02
  -2.348937e+02   4.634124e+02
  -4.559360e+02  -8.555539e+01
  -2.437075e+02  -7.544667e+02
   3.229866e+02  -8.670139e+02
   5.941402e+02   1.360273e+01
   1.874480e+02   6.011115e+02
  -3.353547e+02   3.440731e+02
  -4.408020e+02  -3.701603e+02
   6.641693e+01  -5.516442e+02
   6.184186e+02  -1.134414e+02
   6.337983e+02   4.248206e+02
   1.223652e+02   6.161891e+02
  -3.957588e+02   4.112674e+02
  -6.410486e+02  -9.665373e+01
  -3.480410e+02  -4.576179e+02
   1.989837e+02  -3.923362e+02
   4.480131e+02   8.137925e+00
   2.666982e+02   2.728475e+02
  -1.510719e+02   1.041667e+02
  -1.617337e+02  -2.235172e+02
   2.348886e+02  -2.299748e+02
   3.679865e+02   6.317406e+01
   1.553149e+02   3.076980e+02
  -2.252740e+02   2.461405e+02
  -3.253795e+02   5.867289e+01
  -2.559487e+02  -8.612927e+01
  -1.327943e+01  -2.219643e+02
   2.374969e+02  -3.250482e+02
   3.401853e+02  -2.309440e+02
   3.443573e+02   1.690359e+02
   5.309518e+01   5.016954e+02
  -1.372326e+02   4.102000e+02
  -1.556060e+02   9.851522e+01
  -2.824378e+01   6.944445e-01
  -2.960453e+01   8.156531e+01
  -1.915106e+02   1.304502e+02
  -2.925568e+02  -4.610042e+01
  -1.870420e+02  -2.460818e+02
   9.946296e+01  -2.996308e+02
   2.041188e+02  -6.199520e+01
   1.940870e+02   2.448528e+02
   1.833090e+01   3.195598e+02
  -2.992425e+02   6.016004e+01
  -3.387806e+02  -1.758067e+02
  -1.465785e+02  -3.544983e+02
   1.011509e+02  -3.037650e+02
   2.702908e+02  -1.188198e+02
   1.553043e+02  -2.514021e+00
   6.789202e+01  -5.084847e+01
   2.747032e+02  -5.836800e+01
   4.370051e+02   9.203598e+01
   3.328966e+02   3.029069e+02
   3.668523e+01   4.129049e+02
  -3.868614e+02   4.864820e+02
  -5.303247e+02   2.238426e+02
  -3.472926e+02  -9.920311e+01
  -4.137710e+01  -2.958485e+02
   1.186554e+02  -2.369155e+02
   7.318896e+01  -4.537566e+01
  -1.303521e+02   1.314997e+02
  -2.463040e+02  -5.008612e+00
  -8.702158e+01  -2.315972e+02
   1.593589e+02  -2.192663e+02
   1.986732e+02   7.705474e+01
  -1.218989e+01   2.403802e+02
  -2.202758e+02   2.275174e+01
  -1.570744e+02  -2.298189e+02
   5.571000e+01  -3.731000e+02
   2.407750e+02  -1.654212e+02
   3.239507e+02   6.929597e+01
   3.204023e+02   2.307291e+02
   9.532488e+01   2.859034e+02
  -1.162242e+02   1.418319e+02
  -2.205340e+02   3.388647e+01
  -5.978789e+01  -4.273801e+01
   5.740846e+01   7.154300e+01
   2.072177e+01   1.392519e+02
  -1.592530e+02   1.019115e+02
  -1.856084e+02  -1.053879e+01
  -6.909113e+01  -4.095516e+01
   7.651809e+01  -3.604095e+01
   5.180357e+01   4.734434e+01
  -1.307016e+02   1.068201e+02
  -2.562452e+02   1.720748e+00
  -2.962191e+02  -1.249370e+02
  -9.595189e+01  -2.322018e+02
   2.341875e+02  -2.613992e+02
   2.712045e+02  -1.109630e+02
   2.056547e+02   8.451145e+01
  -4.873407e+01   1.272897e+02
  -8.697038e+01   1.006242e+01
   6.222351e+01  -1.287097e+02
   2.352442e+02  -8.092548e+01
   2.255091e+02   8.875719e+01
   5.992937e+01   2.245822e+02
  -8.563694e+01   1.385776e+02
  -1.568156e+02   5.020476e+01
  -5.397319e+01  -5.454316e+01
   1.003115e+01   1.870437e+01
   2.535863e+01   8.404280e+01
  -1.197553e+02   1.116202e+02
  -1.514501e+02   8.295261e+00
  -2.297442e+02  -1.166897e+02
   2.983725e+00  -2.151108e+02
   1.904593e+02  -1.233129e+02
   1.811758e+02  -2.817414e+01
   8.925304e+01   1.328490e+02
  -4.142847e+01   1.103084e+02
  -7.514477e+01   4.389935e+01
  -1.733711e+01  -3.960926e+01
   3.721083e+01  -8.037928e+00
   1.028554e+01   1.145570e+01
  -5.045300e+01   2.574426e+01
  -7.174073e+01  -1.029748e+02
  -1.145561e+01  -1.509961e+02
   1.208735e+02  -1.430198e+02
   2.778884e+02  -7.665975e+00
   2.161176e+02   2.008329e+02
   7.680968e+01   2.733388e+02
  -1.070720e+02   1.864267e+02
  -1.563681e+02   5.416798e+01
  -6.530160e+01  -5.303234e+01
  -6.563175e+01  -4.223184e+00
  -9.571042e+01  -1.931794e+01
  -9.440954e+01   1.843879e+01
  -3.495588e+01  -4.015042e+01
   3.016724e+01  -8.183062e+01
   1.205682e+02  -5.625350e+01
   6.488551e+01   4.725604e+01
  -3.642214e+01   1.334476e+02
  -1.414551e+02   6.600553e+01
  -1.906141e+02  -4.542024e+01
  -8.590087e+01  -1.896451e+02
   1.119057e+02  -2.692508e+02
   2.872862e+02  -7.559635e+01
   2.696680e+02   5.497810e+01
   1.202313e+02   1.848540e+02
  -7.702854e+01   1.727208e+02
  -1.255894e+02   7.862726e+01
  -6.311298e+01   8.315323e+01
  -6.617447e+01   1.010469e+02
  -5.809117e+01   7.482468e+01
  -8.345054e+01  -2.474537e+01
  -1.249839e+02  -1.527207e+02
  -3.159096e+01  -2.571549e+02
   1.216232e+02  -1.806817e+02
   1.813671e+02  -4.509594e+01
   1.681184e+02   1.696985e+02
   4.763791e+00   1.659511e+02
  -1.039714e+02   7.161212e+01
  -4.685780e+01   1.643725e+01
  -8.559016e+00  -7.844760e+01
  -2.035527e+01  -7.047022e+01
  -7.990897e+01  -2.993233e+01
  -1.104633e+02  -2.308228e+01
  -8.141241e+01  -6.839093e+01
   9.506030e+01  -6.266780e+01
   1.701853e+02   1.936875e+01
   1.406882e+02   5.836853e+01
  -2.520792e+01   1.038892e+02
  -1.661622e+02   6.129068e+01
  -1.372205e+02  -1.194134e+01
  -4.689715e+01  -1.907182e+01
   8.341319e+01  -1.738599e+01
   1.042952e+02   2.116984e+01
  -1.926414e+01   1.028920e+02
  -5.694945e+01   8.237200e+01
  -6.094041e+01  -1.469549e+01
  -4.741477e+01  -7.944994e+01
  -8.656940e+01  -7.441006e+01
  -7.519936e+01  -1.634436e+01
  -9.352012e+01   1.198868e+01
  -4.776790e+01  -6.893148e+01
   3.478326e+01  -1.634929e+02
   1.096638e+02  -1.422365e+02
   1.584544e+02  -1.440947e+01
   9.404282e+01   1.100110e+02
  -8.269361e+00   1.240629e+02
  -6.434260e+01   5.264770e+01
  -6.522320e+01  -1.732095e+01
   7.730414e+01  -6.318634e+00
   1.592572e+02   5.547666e+01
   8.184147e+01   9.605402e+01
  -1.554460e+02   1.141116e+02
  -1.723886e+02   8.162444e+01
  -2.033988e+02  -4.881509e+01
  -3.833513e+01  -5.364738e+01
   6.082526e+01  -7.530765e+01
   3.436322e+01   8.822083e+00
  -3.599378e+01   2.714299e+01
  -5.721519e+01  -6.927135e+01
  -7.695567e+01  -1.281533e+02
   1.134699e+02  -9.992140e+01
   2.018912e+02  -7.919815e+01
   1.322429e+02   9.861839e+01
   1.687283e+01   2.544482e+02
  -7.253795e+01   1.235005e+02
  -9.665225e+01  -9.520901e+00
  -1.305640e+01  -1.160709e+02
   1.373716e+01  -7.748063e+01
   4.966624e+01   3.779355e+00
   7.816299e+01   1.394758e+01
   5.618209e+01   3.141280e+01
  -8.107018e+00   1.087397e+00
  -3.763137e+01   1.668886e+01
   4.965848e+01   7.886938e+01
   4.122951e+01   1.201626e+02
  -3.751597e+01   6.158028e+01
  -1.123010e+02  -6.096614e+01
  -1.365102e+02  -7.194507e+01
  -3.056817e+01  -6.567874e+01
   1.025815e+02  -2.372900e+01
   1.088492e+02   2.342462e+00
   1.586560e+01  -3.748590e+00
  -3.700987e+01   5.290205e+01
   1.948442e+00   2.054562e+01
   3.849470e+01   7.002323e+00
  -8.023729e+00   7.841158e+00
  -8.383338e+01   1.271450e+01
  -1.132547e+02  -1.189249e+01
   1.260839e+01  -8.896318e+01
   1.236537e+02  -1.274457e+02
   1.876995e+02  -9.201632e+01
   1.817064e+02   5.566855e+01
   7.259328e+00   1.492321e+02
  -2.823082e+01   1.682202e+02
  -1.035013e+02   4.589972e+01
  -8.763944e+01  -4.793031e+01
  -3.000216e+01   2.112872e+01
   2.446402e+01  -9.606359e+00
  -1.065489e+01  -2.063733e+01
  -3.372542e+00  -7.461646e+01
  -2.493046e+01  -5.414890e+01
   4.852921e+01  -6.175014e+01
   6.984040e+01  -1.150818e+01
   8.247219e+01   1.005402e+02
   1.731404e+01   1.138706e+02
  -6.767110e+01   2.493677e+01
  -7.779150e+01  -8.641274e+01
  -1.180077e+01  -1.202581e+02
   7.042880e+01  -5.864901e+01
   1.167575e+02  -2.422335e+01
   5.115579e+01   9.423821e+00
  -3.027683e+01   4.391865e+01
  -2.874069e+01  -2.149554e+00
   1.314549e+01   1.334865e+01
   7.034974e+01   3.230255e+00
   3.046945e+01   5.536067e+01
  -1.648448e+01   5.469789e+01
  -1.499148e+02   5.009157e+01
  -6.787352e+01  -1.274926e+01
  -1.821994e+00  -5.373216e+01
   7.202142e+01  -7.017244e+01
   1.040584e+01  -1.057885e+01
  -2.450973e+01   9.394237e+01
  -2.274844e+00   2.920496e+01
  -2.362183e+01  -1.870883e+01
  -2.283852e+01  -8.826203e+01
  -6.308688e-01  -1.767502e+01
   3.959442e+01   2.564288e+01
   3.277844e+01   5.306259e+01
   3.722345e+01   1.128210e+01
  -1.478130e+01  -1.037870e+01
  -4.103113e+00   4.442201e+01
   2.537092e+00   7.055021e+01
  -4.116438e+01   6.174751e+01
  -4.404782e+01   8.841010e+00
  -5.273755e+00  -4.577447e+01
   8.845552e+00  -6.310845e+01
   9.794160e+01  -6.896605e+01
   5.156460e+01   2.253739e+01
   6.159365e+00   3.272374e+01
  -8.882692e+01   6.123731e+01
  -1.312544e+02   7.589620e+00
  -3.130955e+01  -6.859048e+01
   4.674980e+01  -3.693068e+01
   7.368447e+01  -1.311611e+01
   4.858025e+01  -3.701290e+01
   2.495009e-01  -2.916424e+01
  -5.621102e+01  -1.517763e+01
   2.387953e+01  -2.019755e+01
   1.210989e+02  -3.158497e+01
