
 $NMID
 id='ANONYMOUS ', fmtdat='(2E16.6)'
 volume=1.0
 tramp=1.0
 $END
  -4.382038e+03   1.180890e+02
  -2.626114e+03  -2.671512e+03
   8.809999e+02  -2.806129e+03
   2.226415e+03  -9.471760e+02
   9.379369e+02   6.816358e+02
  -6.620804e+02   4.704181e+02
  -8.481953e+02  -5.308543e+02
   1.157124e+02  -1.069644e+03
   6.881292e+02  -7.119454e+02
   8.966871e+02   5.366098e+01
   4.602920e+02   8.225675e+02
  -3.722657e+02   8.874720e+02
  -5.945573e+02   1.354970e+02
  -4.296446e+02  -7.821680e+02
   3.540576e+02  -7.225006e+02
   6.259284e+02  -3.584518e+01
   2.519322e+02   6.802647e+02
  -3.182200e+02   6.253680e+02
  -6.079923e+02   9.133359e+01
  -4.305305e+02  -3.494301e+02
  -8.989361e+00  -4.228458e+02
   2.348353e+02  -2.730126e+02
   1.658860e+02  -6.738684e+00
  -1.140222e+02   5.004800e+01
  -4.527905e+02  -1.192385e+02
  -1.392991e+02  -5.284288e+02
   5.824377e+02  -4.078156e+02
   8.529237e+02   9.421118e+01
   4.206079e+02   5.965975e+02
  -4.519491e+02   4.061771e+02
  -7.300304e+02  -8.007788e+01
  -2.961791e+02  -5.114402e+02
   3.745772e+02  -5.582129e+02
   6.079125e+02  -2.348975e+02
   3.898221e+02   2.098932e+02
   2.594913e+01   5.014102e+02
  -2.297593e+02   2.778847e+02
  -8.883404e+01  -1.890211e+02
   2.664169e+02  -4.428622e+02
   4.334442e+02   6.706758e+01
   2.350310e+02   6.949628e+02
  -3.563729e+02   7.646389e+02
  -5.630247e+02  -5.837600e+01
  -1.856379e+02  -5.849071e+02
   2.907040e+02  -2.425798e+02
   3.627948e+02   3.498042e+02
  -6.946146e+01   5.571484e+02
  -6.137592e+02   9.714045e+01
  -5.823544e+02  -4.559557e+02
  -1.471466e+02  -5.601995e+02
   4.453315e+02  -3.316252e+02
   5.802291e+02   1.118957e+02
   3.931170e+02   3.915764e+02
  -1.408917e+02   3.877817e+02
  -4.168399e+02  -4.129120e+01
  -2.671232e+02  -2.270882e+02
   9.275341e+01  -7.085169e+01
   1.146073e+02   1.761202e+02
  -2.133008e+02   1.258437e+02
  -3.599872e+02  -1.112969e+02
  -1.997728e+02  -3.402734e+02
   1.766143e+02  -2.951970e+02
   3.468920e+02  -1.079901e+02
   2.214831e+02   1.155931e+02
  -2.884167e+01   2.276285e+02
  -2.619332e+02   3.509667e+02
  -3.469024e+02   2.327481e+02
  -2.934084e+02  -1.437099e+02
  -1.008096e+02  -4.601595e+02
   8.985759e+01  -4.426814e+02
   1.400467e+02  -8.865862e+01
   2.743764e+01   3.032261e+01
   3.868701e+01  -7.150482e+01
   1.774049e+02  -1.369993e+02
   2.850358e+02   5.278580e+01
   1.484373e+02   2.271604e+02
  -7.947815e+01   2.605632e+02
  -2.216252e+02  -3.286046e-02
  -1.511777e+02  -2.637739e+02
   6.024867e+01  -2.898081e+02
   2.753386e+02  -8.530383e+01
   3.719053e+02   1.894757e+02
   1.850770e+02   3.590174e+02
  -7.269474e+01   3.167747e+02
  -2.407453e+02   1.538856e+02
  -1.109626e+02   1.204297e+01
  -1.376267e+02   3.935827e+01
  -2.550401e+02   1.559895e+01
  -4.515519e+02  -8.548854e+01
  -3.145907e+02  -3.225542e+02
   3.246500e+00  -4.893819e+02
   3.807620e+02  -3.816389e+02
   4.905679e+02  -1.798371e+02
   3.639112e+02   8.812630e+01
   4.925270e+01   2.914357e+02
  -1.225033e+02   2.442977e+02
  -7.974772e+01   2.834756e+01
   1.340880e+02  -1.365944e+02
   2.275737e+02   1.019298e+01
   4.075808e+01   2.223171e+02
  -1.778020e+02   1.984333e+02
  -1.936680e+02  -9.111171e+01
   3.498172e+01  -1.909418e+02
   2.110000e+02  -3.362030e+01
   1.664705e+02   2.623676e+02
  -6.462013e+01   3.455815e+02
  -2.315528e+02   1.884849e+02
  -3.501444e+02  -1.057410e+02
  -2.939465e+02  -1.956604e+02
  -8.610945e+01  -2.935330e+02
   1.396944e+02  -1.432366e+02
   1.912575e+02   9.337254e+00
   3.539746e+01   3.271389e+01
  -5.755623e+01  -5.211931e+01
   2.844221e+00  -1.288450e+02
   1.453510e+02  -1.089557e+02
   2.232867e+02  -1.264977e+01
   4.386536e+01   1.038469e+02
  -1.345679e+02  -9.287615e+00
  -4.739851e+01  -7.797232e+01
   1.127436e+02  -8.172717e+01
   2.910465e+02  -1.545842e+01
   3.269375e+02   1.524783e+02
   5.409293e+01   2.378112e+02
  -2.483901e+02   2.624798e+02
  -3.158507e+02   1.434069e+02
  -1.682083e+02  -6.226325e+01
   5.357972e+01  -1.106747e+02
   8.636659e+01  -4.671197e+01
  -5.286223e+01   1.343702e+02
  -2.278974e+02   3.836474e+01
  -2.348440e+02  -7.530446e+01
  -1.494147e+01  -2.228522e+02
   1.197660e+02  -1.743305e+02
   1.732043e+02  -3.229669e+01
   7.002294e+01  -1.056728e+01
  -5.167969e+01   1.351442e+01
  -2.388452e+01  -8.616234e+01
   9.234063e+01  -1.077340e+02
   2.086998e+02  -3.235932e+01
   1.713457e+02   1.518346e+02
   6.985901e+00   1.999337e+02
  -1.677750e+02   1.482854e+02
  -1.587437e+02   4.984513e+00
  -5.078134e+01  -1.119257e+02
   4.456558e+01  -1.188994e+02
   7.941337e+01  -3.010481e+01
   3.170240e+01   2.925065e+01
  -3.329280e+01   3.569010e+01
   1.262887e+01   3.112629e+01
   8.210673e+01   3.807138e+01
   1.021072e+02   6.708650e+01
   1.391824e+01   1.643795e+02
  -1.143456e+02   1.727225e+02
  -2.672745e+02   3.737718e+01
  -1.836409e+02  -1.409126e+02
  -7.962455e+01  -2.764441e+02
   1.067741e+02  -1.719152e+02
   1.740932e+02  -2.595155e+01
   9.495921e+01   7.116626e+01
   5.936507e-01   2.956550e+01
   6.047711e+01  -1.905618e+01
   8.681720e+01  -1.505782e+01
   4.854595e+01   5.839663e+01
  -3.005956e+01   1.224058e+02
  -1.237614e+02   4.377073e+01
  -8.169325e+01  -1.467055e+01
   3.903944e+00  -1.230997e+02
   1.511774e+02  -1.197482e+02
   1.843450e+02   5.294245e+01
   1.120088e+02   2.082366e+02
  -8.663596e+01   2.409902e+02
  -2.668704e+02   8.722571e+01
  -2.419583e+02  -5.634767e+01
  -1.309716e+02  -1.894103e+02
   5.095681e+01  -1.592408e+02
   7.421020e+01  -7.612461e+01
   4.272808e+01  -7.874517e+01
   5.040752e+01  -6.345144e+01
   1.083782e+02  -6.458407e+01
   9.523138e+01  -3.075303e+00
   1.275738e+02   1.199543e+02
   9.474359e+00   2.231148e+02
  -8.495558e+01   1.911558e+02
  -1.847112e+02   2.949682e+01
  -1.710040e+02  -1.266014e+02
  -1.841289e+01  -1.797085e+02
   7.855250e+01  -9.690720e+01
   7.167250e+01   1.653624e+01
   1.110303e+01   6.336653e+01
  -1.331439e+01   1.038993e+01
   3.679889e+01   3.942190e+01
   9.468839e+01   1.772047e+01
   3.537126e+01   2.301673e+01
  -8.131372e+01   4.173301e+01
  -1.655391e+02  -3.134090e+01
  -1.491314e+02  -1.047458e+02
  -2.364767e+01  -7.519425e+01
   1.366830e+02  -6.410670e+01
   1.437955e+02   1.282452e+01
   6.241891e+01   1.363480e+01
  -8.631771e+01   1.007060e+01
  -8.218318e+01  -2.814136e+01
   2.605765e+01  -4.982600e+01
   8.192171e+01  -5.254508e+01
   7.814580e+01   1.726194e+01
   5.968492e+01   3.933056e+01
   3.642732e+01   6.917930e+01
   7.410352e+01  -2.115991e+00
   1.039787e+02   3.481221e+01
   4.743292e+00   7.745739e+01
  -2.550187e+01   2.000694e+02
  -1.412172e+02   1.255907e+02
  -1.950918e+02   5.011091e+01
  -1.798685e+02  -8.491002e+01
  -1.678286e+01  -1.614147e+02
   7.857167e+01  -6.212835e+01
   6.092730e+01   2.040994e+01
  -7.632522e+01   2.389650e+01
  -1.530389e+02  -4.131452e+01
  -9.797234e+01  -1.035302e+02
   7.219031e+01  -1.646277e+02
   1.862905e+02  -7.003059e+01
   1.542550e+02   3.053613e+01
  -3.269692e+01   9.892105e+01
  -5.894463e+01   6.275643e+01
  -6.788560e+01  -8.346607e+00
   6.790630e+01  -4.245930e+01
   7.596163e+01   4.531864e+01
   7.784207e+01   1.142268e+02
  -1.175239e+02   1.607468e+02
  -1.801307e+02   5.631142e+01
  -1.272013e+02  -1.079254e+02
  -3.562317e+01  -2.216667e+02
   5.210005e+01  -1.147184e+02
   1.147790e+02   2.673719e+01
   7.348507e+01   1.223810e+02
  -1.964144e+01   1.096589e+02
  -3.832109e+01   3.269361e+01
  -5.897348e+01  -4.048606e+01
  -4.196173e+01  -2.718452e-01
   5.701291e+00   3.006299e+01
   3.558147e+01   5.295262e+00
  -9.789815e+00  -1.054677e+02
  -2.563788e+01  -1.374900e+02
   1.700685e+01  -4.973171e+01
   1.649783e+02   4.073304e+01
   1.525421e+02   5.330071e+01
   1.066743e+00   4.619202e+01
  -8.126685e+01   2.479045e+00
  -8.301746e+01   3.111324e+01
  -1.677409e+01  -3.628680e+01
   3.294784e+01  -4.378173e+01
  -2.451743e+01  -1.003636e+01
  -3.157160e+01  -8.919276e+00
   9.659324e+00   2.794803e+01
   8.690670e+01  -1.010159e+01
   1.220517e+02   3.667742e+01
  -4.025155e+00   1.093455e+02
  -1.094489e+02   1.452546e+02
  -1.901409e+02   6.979484e+01
  -1.484105e+02  -5.238146e+01
  -1.850924e+01  -1.686416e+02
   4.899456e+01  -1.165857e+02
   9.386204e+01  -5.883844e+01
   5.980055e+01  -5.162091e+00
   2.487719e+01   8.139567e+01
  -3.499572e+00   2.135516e+01
   4.204894e+00  -4.916778e-01
   4.183662e+01   6.172528e+01
   2.923639e+01   8.783689e+01
  -6.729947e+01   2.119105e+01
  -9.133708e+01   6.559828e+00
  -6.984685e+01  -1.164985e+02
   1.180605e+01  -1.325982e+02
   8.823320e+01  -4.243422e+01
   1.075019e+02   9.908525e+01
   3.377711e+01   6.811484e+01
  -1.839726e+01   4.599365e+01
  -1.035167e+02  -7.176143e+00
  -5.057094e+01  -2.533931e+01
   2.470916e+01  -6.644681e+01
   4.982432e+01  -3.141382e+01
  -3.476284e+01   1.103771e+01
  -7.932715e+01   1.723876e+01
  -4.558560e+00  -6.737280e+00
   7.697418e+01  -6.644515e+01
   9.916748e+01  -6.682759e+01
   6.107723e+01   5.857198e+00
   1.883690e+01   1.133087e+02
  -6.257965e+01   4.668015e+01
  -3.848206e+01   2.879719e+01
   2.319737e+01  -3.238923e+01
   3.610493e+01  -3.238311e+01
   6.035416e+01   3.533250e+01
   1.453601e+01   5.672355e+01
  -2.836198e+01   3.173711e+01
  -3.153993e+01  -9.721625e+00
  -5.745983e+01  -3.516747e+01
   2.522572e+01   2.328228e+00
  -6.433035e+00  -2.564983e+00
   1.863814e+01   1.521031e+00
   1.175306e+01   6.390374e-01
   3.433719e+01  -4.869447e+01
   4.173300e+01  -1.957559e+01
   3.652083e+01   6.855404e+01
  -2.503706e+00   7.889053e+01
  -1.028123e+01   2.471873e+00
  -6.854490e+01  -2.566246e+01
  -1.675638e+01  -7.188980e+01
   8.735694e+01  -3.117104e+01
   1.222560e+02   1.021229e+01
   4.976419e+01   3.412255e+01
  -7.139129e+01  -2.333245e+01
  -5.986977e+01   2.354033e+01
  -1.041171e+01  -2.618990e+01
   3.070897e+01  -5.628821e+00
   6.766098e+01   1.316442e+01
  -2.518691e+01   2.757863e+01
  -9.805760e+01   9.934931e+00
