
 $NMID
 id='ANONYMOUS ', fmtdat='(2E16.6)'
 volume=1.0
 tramp=1.0
 $END
   4.400528e+03   8.425012e+01
   2.589639e+03   2.548889e+03
  -9.962017e+02   2.651474e+03
  -2.095721e+03   9.210701e+02
  -9.241687e+02  -5.964221e+02
   6.352866e+02  -4.790761e+02
   7.600177e+02   5.824475e+02
  -5.364118e+01   1.027776e+03
  -7.015524e+02   6.802626e+02
  -8.591592e+02  -5.139296e+01
  -4.011108e+02  -8.551979e+02
   3.625518e+02  -8.615230e+02
   5.226567e+02  -6.531033e+01
   4.310744e+02   7.945801e+02
  -3.283611e+02   6.725554e+02
  -6.099462e+02   9.535114e+01
  -2.363326e+02  -6.900099e+02
   3.252202e+02  -6.884028e+02
   5.282465e+02  -5.587040e+01
   4.136099e+02   3.125233e+02
   7.635433e+00   4.127186e+02
  -2.204223e+02   2.639050e+02
  -1.409508e+02   1.025288e+01
   1.615392e+02  -6.798484e+01
   4.286122e+02   2.076012e+02
   1.058666e+02   5.137939e+02
  -5.694090e+02   3.967285e+02
  -8.415240e+02  -1.152594e+02
  -4.739618e+02  -6.261300e+02
   3.989392e+02  -4.146010e+02
   7.406348e+02   1.259350e+02
   2.819013e+02   5.214753e+02
  -3.870165e+02   5.281917e+02
  -5.672959e+02   1.919657e+02
  -3.993817e+02  -2.178088e+02
  -1.448021e+01  -4.548247e+02
   1.875654e+02  -2.810585e+02
   1.387838e+02   2.233673e+02
  -2.772004e+02   4.407808e+02
  -4.302658e+02  -9.370028e+01
  -2.332764e+02  -6.560821e+02
   3.458549e+02  -7.701614e+02
   5.605343e+02   6.847377e+01
   1.687280e+02   5.921032e+02
  -2.884999e+02   2.147864e+02
  -3.522278e+02  -3.441683e+02
   1.109767e+02  -5.957252e+02
   6.062796e+02  -6.038897e+01
   5.626083e+02   4.522306e+02
   1.588625e+02   6.133700e+02
  -3.784452e+02   3.360020e+02
  -6.255903e+02  -5.609751e+01
  -3.804195e+02  -4.298674e+02
   1.811533e+02  -3.592688e+02
   4.067996e+02  -2.203038e+01
   2.429218e+02   1.870570e+02
  -1.202654e+02   1.027294e+02
  -1.413331e+02  -1.857145e+02
   1.780087e+02  -1.751222e+02
   3.547388e+02   8.476195e+01
   1.430519e+02   3.323211e+02
  -1.752426e+02   2.777341e+02
  -3.238173e+02   1.026111e+02
  -1.813856e+02  -9.663998e+01
   1.418975e+01  -2.715231e+02
   2.638251e+02  -3.748950e+02
   3.643722e+02  -1.938359e+02
   2.896984e+02   1.732687e+02
   8.177428e+01   4.676645e+02
  -1.322328e+02   4.021670e+02
  -1.162242e+02   1.146648e+02
  -5.174559e+01  -3.519424e+00
  -5.899240e+01   9.493657e+01
  -1.972145e+02   1.244742e+02
  -3.002104e+02  -6.981802e+01
  -1.598136e+02  -2.958520e+02
   8.798132e+01  -2.681164e+02
   2.129659e+02   4.401213e+01
   1.817448e+02   2.117210e+02
  -1.431839e+01   3.184605e+02
  -3.081599e+02   1.180796e+02
  -3.894207e+02  -1.822410e+02
  -1.494979e+02  -3.740418e+02
   1.031220e+02  -2.892308e+02
   2.473068e+02  -7.672508e+01
   1.576329e+02  -1.922615e+01
   9.096600e+01  -2.533707e+01
   2.225686e+02  -7.633217e+01
   4.146704e+02   7.261829e+01
   3.246115e+02   3.279868e+02
  -1.637089e+01   4.514303e+02
  -3.695220e+02   4.057357e+02
  -4.576898e+02   2.125902e+02
  -3.717289e+02  -8.329899e+01
  -3.231214e+01  -3.167766e+02
   1.266474e+02  -2.477807e+02
   1.149569e+02  -3.626139e+01
  -1.261040e+02   9.576045e+01
  -2.028525e+02   7.752618e-01
  -4.593391e+01  -1.872821e+02
   1.728117e+02  -1.707882e+02
   1.633841e+02   9.416216e+01
  -4.653379e+01   2.136978e+02
  -1.892481e+02  -2.213057e+00
  -1.515558e+02  -2.188514e+02
   1.612509e+01  -3.347679e+02
   2.586766e+02  -1.779641e+02
   3.666881e+02   1.331913e+02
   3.353909e+02   2.815365e+02
   1.043225e+02   2.622687e+02
  -1.512825e+02   1.757755e+02
  -1.810562e+02   1.054627e+01
  -5.469668e+01  -7.155338e+01
   9.497599e+01   4.944384e+01
   1.038135e+01   1.469092e+02
  -1.570322e+02   7.419894e+01
  -2.388919e+02  -9.480139e+00
  -1.445243e+01  -6.802098e+01
   7.269596e+01   3.559002e+00
   6.622514e+01   9.676784e+01
  -1.674365e+02   1.147522e+02
  -2.852710e+02  -3.792663e+00
  -2.821401e+02  -1.262940e+02
  -7.519202e+01  -2.825083e+02
   2.176144e+02  -2.645577e+02
   2.837261e+02  -1.258708e+02
   1.638726e+02   8.753314e+01
  -4.347455e+01   1.083959e+02
  -1.027200e+02  -8.309982e+00
   4.865098e+01  -1.138552e+02
   2.290597e+02  -3.407579e+01
   1.852230e+02   7.495989e+01
   4.616300e+01   2.348164e+02
  -1.182645e+02   1.764036e+02
  -1.474675e+02   4.000990e+01
  -5.924180e+01  -1.927117e+01
   5.759978e+01   4.978716e+00
   2.199674e+01   5.608085e+01
  -1.025604e+02   1.070878e+02
  -1.915958e+02   3.577960e+01
  -1.888683e+02  -1.505268e+02
  -1.372827e+01  -2.040290e+02
   2.044801e+02  -1.652239e+02
   1.562364e+02   1.784239e+00
   5.305940e+01   1.077481e+02
  -8.081566e+01   1.075896e+02
  -8.495923e+01  -4.021236e+00
  -1.080258e+01  -3.603272e+01
   2.611806e+01  -1.157023e+01
   1.407151e+01   2.579961e+01
  -6.877364e+01  -2.823262e+01
  -1.002844e+02  -1.111000e+02
  -7.777122e+00  -2.117378e+02
   1.622314e+02  -1.614447e+02
   2.544888e+02  -3.904669e+01
   2.166636e+02   1.443090e+02
   3.319488e+01   2.392568e+02
  -9.668134e+01   1.727567e+02
  -1.332383e+02   4.183309e+01
  -9.592211e+01  -3.145507e+01
  -9.914871e+00  -2.987180e+01
  -7.466172e+00   1.167999e+01
  -6.444852e+01   1.726448e+01
  -2.676504e+01  -5.242254e+01
   3.310193e+01  -8.817453e+01
   1.210258e+02  -8.074348e+01
   9.190827e+01   2.933090e+00
  -3.897577e+01   1.651531e+02
  -1.910459e+02   9.335897e+01
  -1.621788e+02  -8.716576e+01
  -7.779356e+01  -1.935694e+02
   1.400087e+02  -2.377427e+02
   2.702500e+02  -5.415976e+01
   2.454069e+02   8.740197e+01
   1.102495e+02   2.055898e+02
  -2.076510e+01   1.561636e+02
  -9.810701e+01   7.633009e+01
  -9.692523e+01   1.142210e+02
  -6.719760e+01   1.103194e+02
  -8.523194e+01   7.363825e+01
  -1.301323e+02  -2.304356e+01
  -9.856108e+01  -1.570262e+02
  -4.954366e+01  -2.514634e+02
   1.220939e+02  -1.638621e+02
   2.234791e+02   6.913141e+00
   1.287872e+02   1.255836e+02
   5.006346e+01   1.377524e+02
  -8.123924e+01   1.037716e+02
  -4.809714e+01  -3.905622e+01
  -1.201718e+01  -5.564731e+01
  -7.527730e+00  -9.207677e+00
  -1.894297e+01  -2.710928e+01
  -1.284371e+02  -2.493206e+01
  -4.850210e+01  -4.853875e+01
   7.945949e+01  -4.391118e+01
   1.929398e+02  -7.615925e+00
   1.502571e+02   7.110651e+01
   3.744971e+01   6.581756e+01
  -1.162395e+02   6.911244e+01
  -1.383897e+02   2.040029e+01
  -3.422242e+01  -3.248795e+01
   7.653490e+01  -2.570216e+01
   5.651117e+01   1.503863e+01
  -2.131660e+00   1.014012e+02
  -3.898909e+01   4.124216e+01
  -6.031028e+01   2.472587e+01
  -2.134626e+01  -5.461841e+01
  -6.603216e+01  -3.559639e+01
  -5.221483e+01   2.701715e+01
  -7.461080e+01  -2.816358e+01
  -2.176756e+01  -8.341011e+01
   2.675527e+01  -1.498693e+02
   1.417469e+02  -1.874991e+02
   2.077437e+02  -2.824475e+01
   1.563834e+02   1.353331e+02
   5.348333e+01   1.621199e+02
  -1.414876e+02   4.449196e+01
  -9.667198e+01  -1.457554e+01
   8.326218e+01  -2.577794e+00
   1.407886e+02   8.474614e+01
   1.095501e+02   1.214665e+02
  -8.552248e+01   1.254338e+02
  -2.021608e+02   6.429482e+01
  -1.862049e+02  -2.568979e+01
  -2.033949e+01  -4.858159e+01
   8.161884e+01  -9.418625e+01
   6.867613e+01  -4.194807e+00
  -3.099171e+01   6.446575e+01
  -9.521913e+01  -2.506268e+01
  -2.981283e+01  -1.251812e+02
   1.245360e+02  -1.588169e+02
   1.769933e+02  -6.152579e+01
   1.385664e+02   1.443827e+02
  -5.808484e+00   2.310394e+02
  -8.302975e+01   1.590300e+02
  -6.089988e+01  -5.213108e+00
  -6.061094e+01  -1.318325e+02
  -9.363940e+00  -1.540196e+02
   5.333403e+01   1.437046e+01
   4.692745e+01   4.780362e+01
   5.494646e+01  -3.303249e+01
   1.559417e+01   3.848361e+00
  -7.888796e+00   1.470946e+01
   1.504984e+01   6.099029e+01
   1.307856e+01   1.070873e+02
  -2.790530e+01   7.576083e+01
  -1.372010e+02  -3.812403e+01
  -1.356110e+02  -7.493959e+01
  -1.675029e+01  -4.680118e+01
   1.077687e+02   4.526145e+00
   9.671340e+01  -2.150577e+00
   4.420165e+01  -9.903230e+00
  -3.145711e+01   1.234575e+01
   2.723508e+01   1.031151e+01
  -8.577121e+00   2.622959e+00
   1.853205e+01   1.422825e+01
  -9.531230e+01  -5.136744e-01
  -9.604280e+01  -3.166790e+01
  -2.615461e+00  -9.117950e+01
   1.040067e+02  -9.202955e+01
   1.580749e+02  -6.983611e+01
   1.395718e+02   5.494404e+01
   2.652206e+01   1.878016e+02
  -4.665309e+01   1.468628e+02
  -1.374479e+02   9.652928e+01
  -1.086877e+02  -4.285098e+01
  -3.805451e+01  -7.629764e+01
   8.747839e+00  -2.593025e+01
   1.890245e+01   1.363795e+01
  -5.656860e+01  -9.596733e+01
  -2.955591e+01  -1.233751e+02
   3.175597e+01  -8.045081e+01
   9.671110e+01   3.832688e+01
   6.235237e+01   1.030653e+02
  -6.612299e+00   1.144752e+02
  -8.290750e+01   2.345159e+01
  -1.044773e+02  -3.081207e+01
  -6.898765e+01  -1.075024e+02
   3.669285e+01  -7.315904e+01
   6.629038e+01   1.504850e+01
   4.337919e+01   2.443089e+01
  -6.137487e+01   6.698831e+01
  -5.887184e+01   2.429923e+01
   5.773018e+01   1.910319e+01
   5.869386e+01  -2.848202e+01
  -1.424285e+01   4.699155e+01
  -7.844752e+01   6.676108e+01
  -1.016597e+02   5.828441e+01
  -4.765520e+01   4.937384e+01
   2.090720e+01  -9.272442e+01
   6.029644e+01  -1.167179e+02
   5.241124e+01  -2.185481e+00
   2.605546e+01   4.399608e+01
  -6.369155e+01   4.588229e+01
  -3.463977e+01  -1.519419e+01
  -3.132223e+01  -3.250422e+01
   1.596643e+01  -6.378467e+01
  -1.048540e+01   2.905177e+01
   3.201974e+01   2.808104e+01
   2.055346e+01  -2.156819e+01
  -3.730805e+00  -1.786113e+01
   7.951674e+00   1.606454e+00
  -2.016580e+01   1.827987e+01
  -1.651673e+01   4.412815e+01
  -3.885763e+01   7.376284e+00
  -2.412335e+01  -4.639031e+01
   8.795659e+00  -7.210661e+01
   4.257483e+01  -3.649921e+01
   3.849194e+01   5.327069e+01
   3.681523e+01   1.662336e+01
  -9.396659e+01   6.722004e+01
  -1.332075e+02   1.275598e+01
  -6.117943e+01  -4.606880e+01
   2.011454e+01  -4.114583e+01
   4.374029e+01  -2.625548e+01
   5.839785e+00  -4.612583e+01
  -6.471980e+01   1.309863e+01
  -1.041171e+01   5.370503e+00
   2.460362e+01  -3.748526e+01
   1.006613e+02  -1.057994e+01
