
 $NMID
 id='ANONYMOUS ', fmtdat='(2E16.6)'
 volume=1.0
 tramp=1.0
 $END
  -4.558491e+03   5.604402e+02
  -2.998226e+03  -3.047039e+03
   9.778426e+02  -2.955291e+03
   2.438260e+03  -8.281957e+02
   8.240117e+02   9.550707e+02
  -8.110241e+02   5.644091e+02
  -1.096156e+03  -5.764697e+02
   3.984284e+00  -1.143481e+03
   8.451138e+02  -8.579852e+02
   1.021542e+03   6.882882e+01
   5.927229e+02   1.009612e+03
  -3.169747e+02   8.943710e+02
  -7.713053e+02   1.059610e+02
  -4.517753e+02  -7.951619e+02
   3.497100e+02  -7.719583e+02
   7.021608e+02  -5.729614e+00
   3.840419e+02   7.650620e+02
  -3.409647e+02   6.555313e+02
  -6.054314e+02   3.457237e+01
  -3.790268e+02  -3.383391e+02
   6.128853e+00  -4.522630e+02
   2.594379e+02  -2.979591e+02
   2.273431e+02   2.189351e+01
  -1.116402e+02   1.451963e+02
  -4.623223e+02  -9.462256e+01
  -2.399797e+02  -4.334332e+02
   4.987194e+02  -5.296184e+02
   9.285531e+02   2.042814e+01
   4.181223e+02   5.020271e+02
  -3.114215e+02   5.232366e+02
  -7.736571e+02  -1.841407e+01
  -4.043997e+02  -5.539681e+02
   3.612826e+02  -5.363995e+02
   5.549887e+02  -2.691133e+02
   4.295058e+02   2.293757e+02
   3.068045e+01   4.858675e+02
  -2.518151e+02   3.680249e+02
  -2.107168e+02  -2.350004e+02
   2.233947e+02  -5.471725e+02
   4.391872e+02  -3.941612e+01
   3.082824e+02   6.833937e+02
  -3.273306e+02   7.612779e+02
  -6.888896e+02  -6.742784e+01
  -2.825574e+02  -6.668926e+02
   3.657707e+02  -3.713203e+02
   4.631050e+02   3.626959e+02
  -2.828133e+01   5.660445e+02
  -5.960421e+02   1.266649e+02
  -5.325032e+02  -3.739045e+02
  -1.371192e+02  -6.267083e+02
   3.540617e+02  -4.395568e+02
   6.978910e+02   4.763379e+01
   3.668850e+02   4.078417e+02
  -1.666142e+02   4.152613e+02
  -4.134766e+02   2.048749e+01
  -3.211667e+02  -2.178951e+02
   1.435076e+02  -1.297579e+02
   1.918752e+02   2.066753e+02
  -1.616498e+02   2.698568e+02
  -3.152172e+02  -7.470410e+01
  -1.225326e+02  -3.366443e+02
   2.200682e+02  -2.659459e+02
   3.733789e+02  -4.552386e+01
   1.972849e+02   5.972699e+01
  -3.563269e+01   1.794645e+02
  -1.711542e+02   3.308683e+02
  -3.535627e+02   1.977896e+02
  -3.256293e+02  -1.738699e+02
  -9.795312e+01  -4.946345e+02
   1.443929e+02  -4.277810e+02
   1.876678e+02  -1.106499e+02
   1.042067e+01   5.710546e+01
   2.164642e+01  -7.772772e+01
   1.647932e+02  -1.632190e+02
   3.041674e+02   4.756897e+01
   1.604763e+02   2.536426e+02
  -5.201433e+01   2.465458e+02
  -2.586992e+02   2.672190e+01
  -2.441930e+02  -2.547316e+02
   2.440480e-01  -3.113688e+02
   3.183297e+02  -1.314231e+02
   3.566793e+02   1.829183e+02
   1.811122e+02   3.754021e+02
  -8.342347e+01   3.240804e+02
  -2.580462e+02   1.007610e+02
  -1.653619e+02  -1.809958e+00
  -9.221707e+01   3.811509e+01
  -2.491483e+02   5.225035e+01
  -4.346124e+02  -4.770916e+01
  -3.428610e+02  -2.664470e+02
   9.485992e+00  -4.453919e+02
   3.338210e+02  -4.470158e+02
   4.957749e+02  -2.131715e+02
   3.170166e+02   7.270401e+01
   9.569659e+01   2.869169e+02
  -1.348819e+02   2.442743e+02
  -1.607023e+02   3.808516e+01
   1.104498e+02  -1.090703e+02
   2.141438e+02  -5.300047e+01
   1.193122e+02   1.862424e+02
  -1.662078e+02   2.140637e+02
  -1.879556e+02  -7.149375e+01
   2.043382e+01  -2.250580e+02
   2.179678e+02  -2.746770e+01
   1.988165e+02   2.343751e+02
  -1.669015e+01   3.505336e+02
  -2.227788e+02   1.902670e+02
  -2.886702e+02  -1.038141e+02
  -2.860936e+02  -2.485396e+02
  -1.153631e+02  -2.466929e+02
   9.372067e+01  -1.602156e+02
   1.872510e+02  -5.485184e+01
   6.320544e+01   1.595425e+01
  -3.719127e+01  -3.057051e+01
  -9.687069e+00  -1.491411e+02
   1.305131e+02  -1.070170e+02
   1.781694e+02   8.153419e-01
   4.436502e+01   7.538834e+01
  -9.448827e+01   3.981845e+00
  -6.108771e+01  -5.203547e+01
   1.298919e+02  -3.646875e+01
   2.926995e+02  -4.759900e+00
   3.083985e+02   1.142915e+02
   5.108760e+01   2.589516e+02
  -1.751226e+02   2.911985e+02
  -2.598029e+02   1.394584e+02
  -1.571342e+02  -3.454087e+01
   5.490922e+01  -1.185026e+02
   1.240350e+02  -1.172551e+01
  -5.945248e+01   9.300000e+01
  -1.530409e+02   9.475559e+01
  -2.114876e+02  -7.615045e+01
  -7.999945e+01  -2.198576e+02
   1.109398e+02  -1.819553e+02
   1.460411e+02  -4.428160e+01
   7.451318e+01   5.868312e+01
  -3.171350e+01   3.846657e+00
  -1.793645e+01  -7.636838e+01
   6.415530e+01  -1.088238e+02
   2.109323e+02  -6.330964e+01
   2.108851e+02   1.307903e+02
   5.931796e-01   2.297276e+02
  -1.660202e+02   1.635857e+02
  -1.913585e+02   1.964215e+01
  -7.047160e+01  -1.037705e+02
   6.243016e+01  -9.494932e+01
   6.763258e+01  -1.760647e+01
  -1.472126e+01  -1.978717e+00
  -1.212778e+01   3.550483e+01
   1.727344e+01  -1.977459e+01
   2.843363e+01  -1.789701e+01
   7.505502e+01   5.423271e+01
   3.522468e+00   1.791879e+02
  -8.590350e+01   1.724574e+02
  -2.163532e+02   4.274123e+01
  -2.083926e+02  -1.565908e+02
  -3.488568e+01  -2.403805e+02
   1.209278e+02  -1.988333e+02
   1.692960e+02  -3.702418e+01
   8.100953e+01   1.161175e+01
   5.572704e+01   2.127021e+01
   2.907458e+01  -2.605614e+01
   8.610405e+01  -3.860205e+01
   3.746217e+01   2.897454e+01
  -7.838462e+01   1.010216e+02
  -1.041108e+02   5.141926e+01
  -9.077792e+01  -4.955688e+01
   1.653365e+01  -1.343946e+02
   1.258494e+02  -8.310987e+01
   1.803957e+02   3.073543e+01
   8.137510e+01   1.850364e+02
  -1.387539e+02   2.308168e+02
  -2.566328e+02   6.959097e+01
  -2.647897e+02  -5.588111e+01
  -1.314856e+02  -1.903618e+02
   5.314926e+01  -1.585137e+02
   9.368636e+01  -7.642276e+01
   1.109036e+02  -8.880323e+01
   3.564015e+01  -8.220440e+01
   6.202355e+01  -8.778494e+01
   1.168954e+02   8.843207e+00
   1.014386e+02   1.616682e+02
   1.937123e+01   2.146005e+02
  -9.711234e+01   1.775711e+02
  -1.531858e+02   1.134834e+00
  -1.484877e+02  -1.105288e+02
  -3.512698e+00  -1.507229e+02
   9.785571e+01  -9.344237e+01
   6.169991e+01   1.115402e+01
   7.853075e-01   7.166349e+01
   1.942082e+01   1.650297e+01
   5.055018e+01   4.110543e+00
   4.859267e+01   4.791970e+01
   8.199017e+01   1.728357e+01
  -8.472406e+01   1.214930e+01
  -1.601498e+02   1.395975e+01
  -1.325597e+02  -6.187115e+01
   4.707771e+00  -6.129291e+01
   8.972679e+01  -1.100773e+02
   1.446823e+02  -5.918352e+00
   6.174308e+01   7.664096e+01
  -5.544291e+01   1.824190e+01
  -6.714747e+01  -3.386774e+01
  -9.095479e+00  -1.208086e+02
  -9.806394e+00  -5.012758e+01
   7.960780e+01   7.242079e+00
   4.928891e+01   9.083579e+01
   5.084102e+01   1.240737e+01
   1.150013e+02  -1.780813e+01
   5.472776e+01  -2.804177e+01
   2.067071e+01   4.338655e+01
   6.910531e+00   1.385072e+02
  -1.515933e+02   9.838057e+01
  -1.769487e+02   4.190272e+01
  -1.421264e+02  -1.043118e+02
  -1.369724e+01  -1.344770e+02
   1.198221e+02  -8.080909e+01
   4.690870e+01   4.527446e+01
  -8.122697e+01   1.047313e+01
  -1.186981e+02  -3.328354e+01
  -9.432125e+01  -8.978127e+01
   6.567289e+01  -1.222660e+02
   2.032360e+02  -6.331027e+01
   1.862952e+02   6.725251e+01
   1.972328e+01   1.383200e+02
  -4.475560e+01   7.762621e+01
  -5.429615e+01   1.079050e+01
   6.792711e+01  -1.425828e+01
   1.320327e+02   2.288548e+01
   2.736968e+01   8.964959e+01
  -6.844334e+01   1.444576e+02
  -1.785641e+02   6.648971e+01
  -1.071046e+02  -9.122041e+01
   5.573966e+00  -1.864971e+02
   6.407460e+01  -1.671763e+02
   1.036972e+02  -1.268489e+01
   1.157465e+02   1.274160e+02
  -1.719520e+00   1.058566e+02
  -6.456240e+01   3.765641e-01
  -4.952154e+01  -5.947751e+01
  -4.635310e+01   1.190752e+00
   2.343578e+00   2.450242e+01
  -4.964874e+00  -1.543876e+01
  -7.950854e+01  -8.614781e+01
  -3.895606e+01  -1.183500e+02
   3.006667e+01  -2.674939e+01
   1.649529e+02   8.496936e+01
   1.289797e+02   5.585041e+01
   5.714358e+00   5.439706e+01
  -1.111529e+02   3.951319e+01
  -1.123284e+02   3.183965e+01
  -5.930162e+00  -1.207974e+01
   7.395016e+01  -5.335516e+01
  -3.547316e+00  -3.059879e+01
   1.590060e+01  -2.683002e+01
   8.750730e+00  -1.693124e+01
   5.413487e+01  -1.128294e+00
   5.345890e+01   4.177036e+01
   1.744275e+00   1.024136e+02
  -9.891938e+01   1.576528e+02
  -1.761114e+02   9.468564e+01
  -1.482474e+02  -1.165547e+02
  -2.207116e+01  -1.435549e+02
   6.904142e+01  -1.469544e+02
   1.339230e+02  -9.155879e+01
   9.557197e+01   3.583071e+01
   2.923990e+01   2.241653e+01
   2.459501e+01   3.989729e+01
  -3.107472e+01   3.399743e+00
   2.029741e+01   5.514130e+01
   4.348376e+01   1.098956e+02
  -4.862330e+01   1.132536e+02
  -9.066769e+01  -2.093511e+01
  -6.792056e+01  -1.306688e+02
   7.881339e+00  -1.438841e+02
   5.128581e+01  -3.077565e+01
   1.224026e+02   7.435578e+01
   5.569855e+01   8.548465e+01
  -4.927712e+01   5.809260e+01
  -8.563000e+01  -6.124958e+01
  -3.006544e+01  -3.302786e+01
   4.728219e+01  -6.801124e+01
   7.741866e+01  -1.901641e+01
  -2.368058e+01  -1.174117e+00
  -3.238003e+01  -7.119253e+00
  -2.033373e+01  -1.071680e+01
   1.030128e+02  -8.356764e+01
   1.186915e+02  -7.553392e+01
   4.155748e+01  -3.339304e+00
  -1.031072e+01   8.470458e+01
  -3.065363e+01   6.582890e+01
  -2.511666e+00   6.325884e+00
   8.521259e+00  -4.585585e+01
   4.040529e+01  -4.959633e+01
   4.989455e+01   3.359966e+01
   3.830688e+01   7.395756e+01
   1.272673e-01   5.402222e+01
  -9.307602e+00  -9.310606e+00
  -8.442993e+01  -5.769127e+01
   1.810026e+01  -2.425422e+01
  -1.692131e+01  -3.578161e+00
   2.271427e+01  -2.931576e+01
  -1.090199e+01  -6.655893e+01
   4.617820e+01  -1.312257e+01
   5.295876e+01   2.183137e+01
   5.769090e+01   2.412308e+01
  -4.544296e+01   5.622825e+01
  -4.936085e+01   4.911331e+01
  -6.455618e+01  -4.533753e+01
  -3.493325e-01  -8.167126e+01
   1.918632e+01  -2.831062e+01
   8.132226e+01  -2.122671e+01
   8.566728e+01   2.125165e+01
  -1.166874e+01   7.163917e+01
  -4.301681e+01   9.365455e+00
  -1.614642e+01  -2.860445e+01
   3.844335e+01   8.723711e+00
   3.644709e+01  -4.106326e+00
  -4.664786e+01   7.906668e+00
  -6.419835e+01   3.475052e+01
