
 $NMID
 id='ANONYMOUS ', fmtdat='(2E16.6)'
 volume=1.0
 tramp=1.0
 $END
  -4.462396e+03   5.519840e+02
  -2.772537e+03  -2.958539e+03
   9.931215e+02  -3.028169e+03
   2.281312e+03  -5.210068e+02
   7.738256e+02   7.303546e+02
  -8.787329e+02   4.527395e+02
  -8.842903e+02  -5.794090e+02
   1.284319e+02  -1.086492e+03
   8.245387e+02  -8.650627e+02
   9.456067e+02   7.740297e+01
   5.266457e+02   9.402310e+02
  -2.887923e+02   9.167019e+02
  -7.523847e+02   1.515353e+02
  -4.202863e+02  -7.950005e+02
   3.020694e+02  -7.399362e+02
   6.414817e+02   2.306410e+01
   2.972803e+02   7.475404e+02
  -2.972101e+02   6.415999e+02
  -5.734430e+02   3.152283e+01
  -3.855585e+02  -2.812243e+02
   6.018176e+01  -4.555732e+02
   2.593940e+02  -2.968901e+02
   2.161952e+02   3.395256e+00
  -1.498693e+02   1.423488e+02
  -5.102130e+02  -1.500250e+02
  -2.094701e+02  -3.979822e+02
   4.943152e+02  -5.146613e+02
   8.955816e+02  -8.016009e+00
   4.543606e+02   5.403786e+02
  -3.152140e+02   5.566668e+02
  -8.231596e+02  -6.444415e+00
  -3.907559e+02  -5.542643e+02
   3.167829e+02  -5.449481e+02
   5.981732e+02  -2.205620e+02
   3.920407e+02   2.535134e+02
   5.334376e+01   4.683362e+02
  -2.027741e+02   3.202941e+02
  -1.985032e+02  -2.413028e+02
   2.811828e+02  -5.294249e+02
   5.085774e+02   2.923180e+01
   2.635398e+02   7.595648e+02
  -2.575010e+02   8.181679e+02
  -6.701675e+02   2.032210e+01
  -2.088974e+02  -6.742231e+02
   3.668588e+02  -3.137817e+02
   4.058931e+02   3.814904e+02
  -9.113216e+01   5.328106e+02
  -6.103767e+02   7.706776e+01
  -5.868350e+02  -4.008832e+02
  -1.432776e+02  -6.136054e+02
   4.119853e+02  -4.449250e+02
   6.462352e+02   9.927923e+01
   3.900403e+02   3.662351e+02
  -1.331766e+02   4.036389e+02
  -4.596991e+02   3.781617e+01
  -2.303759e+02  -2.693376e+02
   2.138971e+02  -8.837431e+01
   1.177873e+02   1.823338e+02
  -2.166957e+02   2.086391e+02
  -3.626578e+02  -6.904211e+01
  -1.895071e+02  -3.259405e+02
   2.322928e+02  -2.829633e+02
   3.500286e+02  -4.295455e+01
   1.912708e+02   6.037038e+01
   3.722741e+01   1.932749e+02
  -1.744781e+02   3.405790e+02
  -3.477105e+02   2.190821e+02
  -2.794088e+02  -8.648232e+01
  -6.741531e+01  -5.103782e+02
   1.414452e+02  -4.225961e+02
   1.853162e+02  -1.651521e+02
   3.350353e+01   6.723053e+01
   3.493106e+01  -8.583826e+01
   1.775393e+02  -1.682656e+02
   2.647589e+02   4.296972e+01
   1.886542e+02   2.860266e+02
  -4.115792e+01   2.892455e+02
  -2.348956e+02  -1.792802e+01
  -2.335252e+02  -2.216412e+02
  -2.463999e+00  -3.101040e+02
   2.633088e+02  -1.588623e+02
   3.863976e+02   1.820418e+02
   2.390272e+02   3.647340e+02
  -1.051424e+02   3.311704e+02
  -2.648727e+02   1.129720e+02
  -1.323164e+02  -1.395695e+01
  -4.538481e+01   2.975016e+01
  -1.966349e+02   5.793976e+01
  -3.651961e+02  -5.055815e+01
  -3.208286e+02  -2.774086e+02
  -1.023699e+01  -4.154906e+02
   3.290076e+02  -4.643392e+02
   4.702027e+02  -2.564220e+02
   3.107361e+02   1.162947e+02
   5.476764e+01   3.054223e+02
  -1.272636e+02   2.328517e+02
  -9.254001e+01  -3.365127e+01
   8.180478e+01  -1.180561e+02
   2.341140e+02  -1.920602e+01
   4.920188e+01   1.900433e+02
  -1.730522e+02   1.759020e+02
  -2.379372e+02  -7.016901e+01
  -3.862207e+01  -2.075024e+02
   1.895246e+02  -6.095320e+01
   1.382806e+02   2.490800e+02
  -2.477797e+01   3.867667e+02
  -2.322136e+02   2.088061e+02
  -3.339375e+02  -1.223874e+02
  -2.935002e+02  -1.686006e+02
  -8.693887e+01  -2.872777e+02
   9.555988e+01  -1.506301e+02
   1.964468e+02  -4.045136e+01
   5.447701e+01   4.292160e+01
  -7.316233e+01  -2.577162e+01
  -4.606267e+01  -9.671550e+01
   1.664272e+02  -7.716780e+01
   1.793327e+02   4.001992e+01
   5.898709e+01   6.657100e+01
  -1.037472e+02   4.762561e+01
  -4.871542e+01  -7.040630e+01
   9.583534e+01  -7.172537e+01
   3.209593e+02  -1.167026e+01
   2.641619e+02   1.153546e+02
   1.193995e+02   2.449237e+02
  -1.312295e+02   2.785673e+02
  -2.819687e+02   1.432985e+02
  -1.444815e+02  -3.919591e+01
   2.622395e+01  -1.044207e+02
   1.323145e+02   2.214988e+01
  -3.377547e+01   1.324908e+02
  -2.063351e+02   7.018416e+01
  -1.988318e+02  -8.368105e+01
  -1.209678e+02  -2.034429e+02
   1.161292e+02  -1.790030e+02
   1.248930e+02  -5.251535e+01
   9.173758e+01   3.523302e+01
  -8.670044e+00   3.859147e+01
  -2.809145e+01  -1.018108e+02
   3.497894e+01  -9.894868e+01
   1.953036e+02  -5.138102e+01
   1.735910e+02   8.898457e+01
   3.335943e+01   2.321381e+02
  -1.758126e+02   1.884221e+02
  -2.136740e+02  -1.456067e+01
  -1.203405e+02  -1.357238e+02
   2.517856e+01  -1.783203e+02
   1.422988e+02  -1.207615e+01
  -1.491281e+01   9.870201e+00
  -2.536099e+01   1.284041e+01
   5.506328e+01  -2.775835e+01
   9.083309e+01  -3.853219e+01
   6.101500e+01   1.159804e+01
   3.943383e+01   1.592961e+02
  -1.453558e+02   1.302344e+02
  -1.952469e+02   7.156659e+00
  -2.010310e+02  -1.285654e+02
  -6.786268e+01  -2.683472e+02
   1.043966e+02  -1.851140e+02
   1.219674e+02  -3.161582e+01
   1.802664e+01   7.876949e+01
   4.907595e+01  -1.274885e+01
   8.887359e+01  -3.053359e+01
   8.304906e+01   2.393569e+01
   3.719988e+01   3.149948e+01
  -3.226781e+01   8.761115e+01
  -1.036951e+02   4.182013e+01
  -8.340203e+01  -4.690528e+01
   4.075677e+01  -1.124381e+02
   1.582359e+02  -6.722679e+01
   2.111040e+02   1.823782e+01
   1.123694e+02   1.861092e+02
  -5.070836e+01   1.997479e+02
  -2.530765e+02   1.149004e+02
  -2.535390e+02  -7.609490e+01
  -1.223376e+02  -1.643917e+02
   5.339033e+01  -1.468124e+02
   1.195878e+02  -4.057305e+01
   7.528789e+01  -1.042182e+02
   3.972372e+01  -1.043721e+02
   4.406094e+01  -7.585079e+01
   1.195268e+02   2.797833e+00
   9.336139e+01   1.615433e+02
   4.300910e+01   2.387116e+02
  -9.909888e+01   1.738598e+02
  -1.686450e+02   4.285657e+01
  -1.496318e+02  -1.368242e+02
  -8.970970e+01  -1.939746e+02
   4.647702e+01  -7.146308e+01
   6.381942e+01  -1.048393e+01
  -3.234300e+01   2.635192e+01
   6.386579e+00   3.477930e+01
   5.452197e+01   3.537329e+01
   7.021675e+01   1.082566e+01
   9.753920e+01   6.068111e+01
  -5.572962e+01   2.077654e+01
  -1.345515e+02   4.448352e+01
  -1.293580e+02  -6.944199e+01
  -7.805350e+00  -8.782987e+01
   1.242367e+02  -9.770316e+01
   1.377568e+02  -1.105980e+01
   4.779541e+01   5.790231e+01
  -6.159322e+01   3.752995e+01
  -5.995369e+01  -2.606933e+01
   4.453976e+00  -9.039503e+01
   3.911296e+01  -5.196534e+01
   6.173563e+01   6.703031e+00
   5.250934e+01   3.163208e+01
   4.418926e+01   5.669255e+00
   8.068045e+01  -3.902070e+01
   6.063612e+01   1.960487e+01
   7.460410e+01   9.813621e+01
  -1.558506e+01   1.360722e+02
  -1.221014e+02   1.510629e+02
  -1.603813e+02   5.970482e+01
  -1.048826e+02  -7.841198e+01
  -2.357834e+01  -1.406079e+02
   8.137181e+01  -6.264985e+01
   9.075778e+01   5.231418e+01
  -6.281779e+01   5.275061e+01
  -1.667750e+02  -6.376624e+01
  -1.118339e+02  -9.490675e+01
   9.147662e+01  -1.067603e+02
   2.011402e+02  -1.100814e+02
   1.552415e+02   3.373252e+01
   3.684468e+01   7.279276e+01
  -8.410829e+01   8.933452e+01
  -8.890007e+01  -1.771469e+01
   5.103659e+01  -5.248121e+01
   9.398321e+01   9.825081e+00
   4.237320e+01   8.586584e+01
  -5.850764e+01   1.209259e+02
  -1.620587e+02   6.341977e+01
  -1.701743e+02  -9.912803e+01
  -3.260868e+01  -1.924940e+02
   6.465181e+01  -1.237354e+02
   6.578666e+01  -4.549400e+00
   5.097510e+01   1.286071e+02
  -1.597658e+01   1.406029e+02
  -6.815015e+01   6.123494e+01
  -6.968601e+01  -4.032816e+01
  -3.712633e+01   3.257842e+01
  -3.811672e+00   4.407078e+01
   1.942246e+00  -3.858017e+00
  -6.869838e+01  -8.754642e+01
  -2.958937e+01  -1.357550e+02
   5.749831e+01  -3.983735e+01
   1.404218e+02   1.678774e+01
   1.204475e+02   1.193374e+02
   5.730873e+00   4.537374e+01
  -8.922886e+01   4.889353e+01
  -7.650429e+01   1.638254e+01
  -2.916870e+01  -2.789019e+01
   5.167218e+01  -2.251847e+01
  -8.784386e+00  -3.316686e+01
  -6.201783e+01  -7.438333e+00
  -1.265754e+01   1.376649e+01
   6.443486e+01  -1.231300e+01
   7.295454e+01  -9.259904e+00
   3.253884e-01   6.652526e+01
  -1.140407e+02   1.081745e+02
  -1.862364e+02   7.601422e+01
  -1.337401e+02  -5.372505e+01
  -5.234802e+01  -1.776577e+02
   3.312103e+01  -1.299291e+02
   1.206415e+02  -7.098437e+01
   1.265158e+02   1.882103e+01
   2.228840e+01   4.160710e+01
  -5.602232e+01  -7.787945e+00
   1.464586e+01   3.481379e+00
   2.779290e+01   1.048058e+01
   3.349810e+01   1.066385e+02
  -9.484400e+00   7.651361e+01
  -6.429662e+01  -2.740838e+01
  -6.734569e+01  -1.026365e+02
   1.005636e+01  -8.256120e+01
   5.164795e+01  -1.870986e+01
   1.009844e+02   7.231984e+01
   2.253855e+01   9.352766e+01
  -3.553199e+01   4.800501e+01
  -9.093092e+01  -3.239618e+01
  -1.565368e+01  -5.032616e+01
  -8.069939e+00  -7.423936e+01
   1.133765e+01  -1.568895e+01
  -5.823639e+01  -3.179765e+01
  -4.673771e+01   3.918860e+01
   1.418318e+01  -2.580320e+01
   7.629792e+01  -4.038029e+01
   1.100807e+02  -6.369266e+01
   8.932745e+01  -8.958869e-01
  -3.531307e+01   7.811120e+01
  -3.679262e+01   8.591395e+01
  -7.290234e+01  -3.434363e+01
   2.005205e+01  -6.716530e+01
   1.839328e+01  -4.237285e+01
   6.269525e+01   2.811343e+01
   9.314078e+01   5.186748e+01
  -2.988602e+01   5.182691e+01
  -4.683940e+01  -4.144166e+01
  -3.829476e+01  -1.004514e+01
  -2.217900e+01  -1.969875e+01
   3.134160e+01   2.708256e+01
  -6.184881e+00   3.813996e+01
  -3.340948e+00  -5.619173e+01
  -1.599314e+00  -2.957008e+01
   6.163003e+01  -5.222657e+00
   4.075339e+01   2.319146e+01
  -2.070198e+01   5.007311e+01
  -1.393208e+01   2.215657e+01
  -2.768654e+01  -6.100393e+01
   1.764711e+01  -6.804068e+01
   5.939485e+01  -5.994997e+01
   8.748049e+01   4.543519e+00
   7.372516e+01   8.408557e+00
  -1.503721e+01   2.963439e+01
  -4.643189e+01   4.675788e+01
  -1.236467e+00   8.789695e+00
   5.262410e+01   3.228034e+01
   5.309632e+01   8.753003e+00
  -3.848778e+01   2.197750e+01
  -6.973341e+01  -4.796644e+00
