
 $NMID
 id='ANONYMOUS ', fmtdat='(2E16.6)'
 volume=1.0
 tramp=1.0
 $END
  -4.549740e+03  -2.198235e+01
  -2.642777e+03  -2.905046e+03
   1.068036e+03  -2.765264e+03
   2.065245e+03  -7.577764e+02
   7.421354e+02   7.580004e+02
  -8.254347e+02   5.018508e+02
  -7.443279e+02  -5.781061e+02
   2.141762e+02  -1.094095e+03
   8.922947e+02  -7.665164e+02
   1.013587e+03   2.044207e+02
   3.864517e+02   9.323381e+02
  -2.883085e+02   8.382353e+02
  -7.133372e+02   2.055143e+01
  -3.619292e+02  -7.966061e+02
   2.762152e+02  -7.809521e+02
   6.660832e+02  -3.899421e+01
   2.219510e+02   7.317734e+02
  -2.987258e+02   5.260704e+02
  -5.553958e+02   8.567133e+01
  -3.897737e+02  -4.334181e+02
  -1.204957e+01  -5.071094e+02
   2.453825e+02  -2.704848e+02
   2.079210e+02   4.337687e+01
  -1.119126e+02   7.295883e+01
  -4.560497e+02  -1.516269e+02
  -1.507100e+02  -4.448314e+02
   5.312013e+02  -4.122458e+02
   9.149819e+02   1.313697e+02
   4.055999e+02   5.588932e+02
  -4.857768e+02   5.158345e+02
  -8.189886e+02  -6.613527e+01
  -3.406118e+02  -4.978228e+02
   3.103794e+02  -5.315999e+02
   5.955639e+02  -1.840228e+02
   4.008853e+02   2.620234e+02
   3.287411e+01   5.481673e+02
  -1.746417e+02   2.615643e+02
  -1.773067e+02  -2.238118e+02
   2.314188e+02  -3.817307e+02
   4.858825e+02   6.041095e+01
   2.968947e+02   7.413345e+02
  -4.320797e+02   7.488046e+02
  -5.866451e+02  -2.791946e+01
  -1.916946e+02  -6.569109e+02
   3.087719e+02  -3.333705e+02
   4.085394e+02   3.711346e+02
  -6.734156e+01   6.190541e+02
  -5.555547e+02   6.204820e+01
  -6.456434e+02  -4.890076e+02
  -1.670927e+02  -6.576421e+02
   3.721298e+02  -3.664487e+02
   6.856531e+02   5.281330e+01
   3.656893e+02   3.878375e+02
  -1.873994e+02   3.946496e+02
  -4.745012e+02   3.097396e+01
  -2.475591e+02  -2.947324e+02
   1.475304e+02  -1.016985e+02
   1.289978e+02   1.925480e+02
  -1.874293e+02   1.726243e+02
  -4.434981e+02  -9.294663e+01
  -1.594321e+02  -3.084704e+02
   2.361312e+02  -2.883661e+02
   3.451371e+02  -5.311986e+01
   2.187039e+02   8.737140e+01
  -3.577225e+01   2.468652e+02
  -2.123452e+02   3.550219e+02
  -4.080535e+02   2.099015e+02
  -2.958073e+02  -1.340832e+02
  -1.065678e+02  -4.562886e+02
   1.196602e+02  -3.565466e+02
   1.300020e+02  -1.162944e+02
   1.810279e+01  -9.419234e+00
   1.773154e+01  -1.006590e+02
   2.323742e+02  -1.126480e+02
   3.005222e+02   5.376604e+01
   1.993236e+02   2.656325e+02
  -8.415061e+01   2.668013e+02
  -2.585826e+02   3.041884e+01
  -2.514121e+02  -2.871480e+02
   4.032786e+01  -3.072621e+02
   2.242416e+02  -1.207479e+02
   3.979791e+02   1.577203e+02
   1.634774e+02   3.737755e+02
  -1.100591e+02   3.288606e+02
  -2.680815e+02   1.127369e+02
  -1.579000e+02   3.273916e+01
  -1.044092e+02   4.895020e+01
  -2.500357e+02   6.940190e+01
  -3.834847e+02  -6.522063e+01
  -3.179100e+02  -2.281294e+02
  -1.296938e+01  -4.645821e+02
   3.507484e+02  -4.335294e+02
   5.201041e+02  -2.045539e+02
   4.007184e+02   1.819130e+02
   7.149292e+01   2.951609e+02
  -9.593233e+01   2.424884e+02
  -7.282545e+01   4.382990e+01
   1.057005e+02  -1.593950e+02
   1.914700e+02  -8.650708e+00
   7.250334e+01   2.012259e+02
  -1.362739e+02   1.968904e+02
  -1.907705e+02  -6.034178e+01
   2.887888e+01  -1.965864e+02
   1.909529e+02  -6.179561e+01
   1.371766e+02   2.575728e+02
  -3.039669e+01   3.785569e+02
  -2.376604e+02   1.942724e+02
  -3.404069e+02  -7.487658e+01
  -2.900023e+02  -2.566251e+02
  -1.176767e+02  -2.795740e+02
   1.461742e+02  -1.488749e+02
   1.867944e+02  -8.394933e+00
   8.579491e+01   7.742632e+01
  -8.472663e+01  -8.929131e+01
  -5.247841e+01  -1.305364e+02
   1.493201e+02  -8.839960e+01
   1.972527e+02   2.600147e+00
   4.237581e+01   7.428902e+01
  -6.992124e+01   3.201548e+01
  -8.246155e+01  -6.275614e+01
   1.106778e+02  -1.161153e+02
   3.012947e+02   4.228725e+00
   2.882063e+02   1.142834e+02
   8.170942e+01   2.769873e+02
  -2.174839e+02   2.408315e+02
  -2.848678e+02   1.144136e+02
  -1.951944e+02  -7.544157e+01
  -2.242899e+01  -1.040862e+02
   1.129822e+02  -4.698899e+01
  -1.244083e+01   1.065726e+02
  -2.515248e+02   6.991875e+01
  -2.145029e+02  -1.499960e+02
  -5.553824e+01  -2.016539e+02
   9.008223e+01  -1.617000e+02
   1.365714e+02  -2.029157e+01
   8.667099e+01   4.284327e+01
  -4.016315e+01  -1.436762e+01
   4.377706e+00  -7.616863e+01
   5.562769e+01  -1.198144e+02
   1.980482e+02  -6.793926e+00
   2.171900e+02   9.575651e+01
   5.539159e+01   2.327014e+02
  -1.968570e+02   1.647589e+02
  -2.025610e+02   7.443470e+01
  -4.951332e+01  -9.364397e+01
   8.115897e+01  -8.203289e+01
   9.032941e+01  -5.600220e+01
   1.775456e+01   1.923000e+01
  -5.775664e+01   2.637990e+01
   2.873796e+01  -1.505867e+01
   7.613924e+01   7.116893e+00
   1.316765e+02   5.489869e+01
   3.801597e+01   1.784898e+02
  -1.290372e+02   1.590262e+02
  -2.430263e+02   2.595898e+01
  -1.790700e+02  -1.378532e+02
  -1.255769e+01  -2.611365e+02
   1.211470e+02  -1.829430e+02
   1.523916e+02  -1.867372e+01
   5.014651e+01   8.860965e+01
   2.905212e+01   4.371759e+01
   5.275332e+01  -2.261440e+01
   8.210095e+01  -3.493981e+01
   2.874650e+01   4.857621e+01
  -3.722789e+01   6.171567e+01
  -1.037749e+02   6.970839e+01
  -8.908381e+01   5.152984e+00
   5.328479e+01  -1.223751e+02
   1.050310e+02  -9.352860e+01
   1.633666e+02   5.409655e+01
   8.209120e+01   2.106952e+02
  -8.900900e+01   2.101052e+02
  -2.777429e+02   1.701314e+02
  -2.669697e+02  -6.913848e+01
  -1.035574e+02  -1.628212e+02
   1.091787e+01  -1.504369e+02
   1.153308e+02  -1.247623e+02
   1.009880e+02  -6.918885e+01
   6.753479e+01  -1.202457e+02
   8.073724e+01  -4.748185e+01
   8.485529e+01   5.147810e+01
   1.123605e+02   1.128024e+02
   4.420706e+01   2.295486e+02
  -1.000753e+02   1.599522e+02
  -1.660058e+02  -1.581703e+01
  -1.321732e+02  -1.343865e+02
   3.108655e+00  -1.704331e+02
   7.053617e+01  -7.752254e+01
   8.821149e+01   1.045020e+01
   3.428233e+01   4.611434e+01
  -2.442550e+01   2.049044e+01
   4.439771e+01   6.506655e+00
   6.241194e+01   2.872994e+01
   2.229232e+01   3.085922e+01
  -5.808559e+01   3.593827e+01
  -1.680929e+02  -2.296085e+01
  -1.631544e+02  -3.863383e+01
  -3.369602e+01  -8.769628e+01
   1.281889e+02  -8.903860e+01
   1.498545e+02  -3.676447e+00
   7.759453e+01   2.662651e+01
  -2.241131e+01   6.540588e+01
  -5.435499e+01  -3.447475e+01
  -9.885000e+00  -6.973234e+01
   7.265323e+01  -8.928932e+01
   5.836948e+01  -1.522593e+01
   3.340462e-01   3.759386e+01
   4.421678e+01   6.302984e+01
   8.565030e+01   1.150371e+01
   3.272908e+01   3.407659e-01
   7.379671e+01   5.474642e+01
  -3.391215e+01   1.622677e+02
  -1.108752e+02   1.436629e+02
  -1.811472e+02   1.732007e+01
  -8.435039e+01  -1.147665e+02
   4.255180e+01  -1.450631e+02
   9.193392e+01  -5.178993e+01
   5.216359e+01   4.417264e+01
  -6.365837e+01   3.294413e+01
  -1.465501e+02  -2.229447e+01
  -4.063240e+01  -9.205828e+01
   6.209780e+01  -1.269273e+02
   1.703370e+02  -5.169420e+01
   1.966040e+02   5.956153e+01
   4.093939e+01   6.179613e+01
  -6.297170e+01   5.414600e+01
  -1.461013e+01   1.891212e+01
   3.302656e+01  -1.457505e+01
   7.373423e+01   4.712038e+01
   7.476823e+01   1.120535e+02
  -7.752397e+01   1.859498e+02
  -1.940546e+02   4.692208e+01
  -1.038882e+02  -7.681591e+01
  -2.417303e+01  -1.690630e+02
   8.101502e+01  -1.522218e+02
   6.465185e+01   3.275799e+01
   9.748603e+01   1.160377e+02
  -2.005170e+01   8.645993e+01
  -2.028618e+01   4.325008e+00
  -5.834751e+01  -3.081028e+01
  -2.830670e+01  -2.220124e+01
   8.289101e+00  -4.712978e+00
  -2.055631e+01  -1.341200e+01
  -4.190908e+01  -9.840910e+01
  -3.123848e+01  -6.860059e+01
   3.445983e+01  -6.089612e+01
   1.406619e+02   1.941551e+01
   1.647076e+02   9.266719e+01
   3.440951e+01   3.974913e+01
  -1.060976e+02  -3.724345e+00
  -9.702445e+01   4.890932e+00
  -6.976067e+00  -2.552163e+01
   7.881287e+01  -1.960070e+01
  -1.000487e+01   1.241998e+01
  -4.768600e+01  -2.039107e+01
  -3.887113e+00   1.403083e+01
   4.349165e+01   2.148409e+01
   9.531869e+01   2.270439e+01
  -1.422082e+00   1.033741e+02
  -1.043820e+02   1.182120e+02
  -2.017382e+02   6.373017e+00
  -1.411199e+02  -9.034418e+01
  -2.954474e+01  -1.632642e+02
   1.021214e+02  -1.376883e+02
   7.549397e+01  -4.902270e+01
   6.609735e+01  -1.095182e+00
   2.401269e+01   3.404350e+01
   1.060860e+00   4.921160e+01
   1.685196e+01  -3.545666e+00
   4.784967e+01   3.359354e+01
   3.367960e+01   1.015525e+02
  -4.403273e+01   3.975168e+01
  -6.949294e+01   5.021061e+00
  -6.262850e+01  -7.939782e+01
   8.751314e+00  -1.097854e+02
   9.662347e+01   7.488889e+00
   9.716854e+01   1.123919e+02
  -8.249902e+00   1.375133e+02
  -7.605522e+01   6.652414e+01
  -1.043376e+02  -2.727509e+01
  -5.985737e+01  -4.804605e+01
   7.140705e+01  -4.294418e+01
   2.719359e+01  -2.707207e+01
  -6.602228e+01  -1.602686e+01
  -1.033878e+02  -1.839422e+01
  -1.066748e+01  -3.503294e+01
   1.018174e+02  -8.207275e+01
   8.936692e+01  -4.263560e+01
   4.424879e+01  -2.265814e+01
   9.989018e+00   1.224051e+02
  -5.681233e+01   5.558552e+01
  -4.732417e+01  -2.219385e-01
  -5.161179e+01  -5.694818e+01
   1.415174e+01  -2.740715e+01
   4.910289e+01   2.872021e+01
   8.664718e+00   6.482363e+01
  -1.323977e+01   4.902825e+01
   3.993708e+00   6.151976e+00
  -2.501027e+01  -2.254955e+01
  -1.349019e+01   1.955822e+01
  -6.372952e+00  -2.635248e+00
   6.536718e+01  -3.032440e+00
  -1.347112e+00  -3.457190e+01
   1.945183e+01  -6.331992e+01
   4.430980e+01   7.779415e+00
   1.362288e+01   4.305954e+01
  -6.848237e+01   3.428553e+01
  -5.358752e+01   1.204993e+01
  -9.388017e+01  -9.324567e+00
  -1.825135e+01  -6.512582e+01
   8.103111e+01  -5.072001e+01
   1.269193e+02   1.128310e+01
   5.619058e+01   7.550080e+01
  -4.628533e+01   3.428436e+01
  -6.160267e+01   2.444191e+01
   2.728741e+01  -5.397969e+00
   2.423448e+01   2.731731e+01
   4.843702e+01   1.435377e+01
  -5.525911e+01   3.780380e+01
  -9.629872e+01   1.171462e+01
