
 $NMID
 id='ANONYMOUS ', fmtdat='(2E16.6)'
 volume=1.0
 tramp=1.0
 $END
   4.449567e+03  -2.292046e+02
   2.616361e+03   2.617369e+03
  -9.345538e+02   2.636391e+03
  -2.143784e+03   7.163904e+02
  -9.514905e+02  -8.210879e+02
   7.062134e+02  -4.856225e+02
   8.132094e+02   4.546336e+02
  -9.430388e+01   1.095985e+03
  -8.934454e+02   8.267254e+02
  -1.021059e+03  -1.337638e+02
  -4.868815e+02  -9.179113e+02
   2.849423e+02  -9.591495e+02
   7.320142e+02  -1.375544e+02
   3.560877e+02   7.651497e+02
  -2.660621e+02   7.972774e+02
  -6.505807e+02   5.319119e+01
  -3.141973e+02  -7.206206e+02
   3.266345e+02  -6.087674e+02
   5.837620e+02  -4.136950e+01
   3.864311e+02   3.919920e+02
   7.187257e+01   4.767323e+02
  -2.441045e+02   2.728611e+02
  -1.787149e+02   2.114573e+01
   1.345374e+02  -8.460678e+01
   4.196734e+02   6.425600e+01
   2.059345e+02   5.497004e+02
  -4.682566e+02   4.753585e+02
  -9.111769e+02  -7.208338e+01
  -4.367027e+02  -5.022458e+02
   4.477727e+02  -5.039376e+02
   8.893879e+02   8.187947e+01
   3.875120e+02   4.978309e+02
  -3.289252e+02   4.939073e+02
  -5.890224e+02   1.632946e+02
  -4.472040e+02  -2.627914e+02
  -7.796509e+01  -5.110644e+02
   2.175125e+02  -3.353300e+02
   2.060383e+02   2.315629e+02
  -1.957131e+02   4.447813e+02
  -4.666607e+02  -2.155312e+01
  -2.966599e+02  -7.002187e+02
   4.107870e+02  -7.252629e+02
   5.773104e+02  -5.089730e+01
   2.297106e+02   5.659966e+02
  -3.263547e+02   3.395279e+02
  -3.724482e+02  -4.256216e+02
   1.304761e+01  -6.020343e+02
   6.675214e+02  -1.111962e+02
   5.650949e+02   5.341937e+02
   2.048289e+02   6.667001e+02
  -3.865865e+02   3.754688e+02
  -7.032343e+02  -7.761654e+01
  -3.993121e+02  -4.220392e+02
   1.526242e+02  -3.650799e+02
   4.533475e+02  -4.436032e+01
   2.542907e+02   2.371037e+02
  -1.455404e+02   1.262143e+02
  -1.452896e+02  -2.199500e+02
   1.845711e+02  -1.571032e+02
   3.712192e+02   8.393252e+01
   1.761670e+02   3.381931e+02
  -1.991200e+02   2.857592e+02
  -3.199613e+02   6.902192e+01
  -2.204459e+02  -1.059308e+02
   3.360143e+01  -2.288687e+02
   2.716324e+02  -3.294431e+02
   3.722688e+02  -2.493043e+02
   2.660886e+02   1.602685e+02
   1.171340e+02   4.609981e+02
  -1.310218e+02   4.025889e+02
  -1.640933e+02   1.022733e+02
   6.561492e+00  -2.610032e+01
  -2.199605e+01   1.086442e+02
  -2.019164e+02   1.703270e+02
  -2.719292e+02  -3.725005e+01
  -1.463287e+02  -2.474232e+02
   6.322138e+01  -2.382006e+02
   2.210038e+02  -1.136889e+01
   2.367690e+02   2.532051e+02
  -3.070502e+01   3.177774e+02
  -2.658384e+02   1.483430e+02
  -3.784672e+02  -1.134105e+02
  -1.419356e+02  -4.196122e+02
   9.819602e+01  -3.592742e+02
   2.306870e+02  -1.621641e+02
   1.534872e+02  -2.616129e+00
   1.306061e+02  -3.286879e+01
   1.853950e+02  -5.672117e+01
   3.791708e+02   1.406443e+02
   3.342384e+02   3.250273e+02
  -4.322620e+01   4.227662e+02
  -3.667558e+02   3.894678e+02
  -5.042169e+02   2.320848e+02
  -3.642960e+02  -1.143096e+02
  -7.601020e+01  -3.468245e+02
   1.259764e+02  -2.837839e+02
   1.180418e+02  -4.755418e+01
  -1.189966e+02   1.215764e+02
  -1.940959e+02  -1.972958e+01
  -5.233746e+01  -1.517094e+02
   1.897984e+02  -1.526651e+02
   1.923979e+02   7.988032e+01
  -1.350808e+01   1.937067e+02
  -2.077748e+02   1.210798e+01
  -1.685996e+02  -2.419776e+02
   3.223033e+01  -3.408838e+02
   2.146657e+02  -2.160004e+02
   3.821462e+02   7.852183e+01
   3.012837e+02   2.258525e+02
   9.994584e+01   2.835191e+02
  -1.317061e+02   1.805110e+02
  -1.618220e+02   3.610108e+01
  -5.414639e+01  -2.704197e+01
   9.988923e+01   4.703353e+01
   3.401514e+00   1.268942e+02
  -1.044934e+02   6.873001e+01
  -1.802674e+02  -2.839561e+01
  -3.482968e+01  -1.079845e+02
   1.083766e+02  -3.367081e+01
   4.385455e+01   4.942720e+01
  -1.168791e+02   1.114118e+02
  -3.064039e+02   1.067461e+01
  -2.986267e+02  -1.198342e+02
  -5.515093e+01  -2.611533e+02
   1.986022e+02  -2.472676e+02
   2.893749e+02  -1.565124e+02
   1.700370e+02   4.734708e+01
  -2.892281e+01   1.154655e+02
  -8.925789e+01   3.324116e+01
   3.523592e+01  -1.076213e+02
   2.097401e+02  -7.074216e+01
   2.407278e+02   8.400862e+01
   3.473693e+01   2.280342e+02
  -8.756377e+01   1.700341e+02
  -1.641750e+02   2.705819e+00
  -4.655585e+01  -2.138703e+01
   5.011231e+01  -1.493323e+01
   3.412873e-01   7.702779e+01
  -2.338414e+01   1.509202e+02
  -2.023635e+02   5.188812e+01
  -2.028865e+02  -1.279170e+02
   3.114198e+01  -2.162511e+02
   1.669172e+02  -1.650641e+02
   2.162789e+02   2.124117e-01
   3.329235e+01   1.223970e+02
  -5.355344e+01   1.143544e+02
  -6.697401e+01   1.326797e+01
  -7.730456e+00  -4.709779e+01
   2.934888e+01  -2.029387e+01
   6.241948e+00   2.202584e+01
  -8.516612e+01  -3.609075e+01
  -8.542743e+01  -7.635411e+01
   1.369343e+01  -1.448688e+02
   1.270796e+02  -1.552566e+02
   2.279622e+02  -3.161266e+01
   2.062429e+02   1.309891e+02
   2.078888e+01   2.457129e+02
  -1.163757e+02   1.891233e+02
  -1.471137e+02   6.919282e+01
  -8.785638e+01  -6.447663e+01
  -4.033935e+01  -5.868967e+01
  -2.505014e+01   1.405494e+01
  -1.085808e+02   8.790637e+00
  -4.330080e+01  -4.434887e+01
   7.679505e+01  -7.357423e+01
   9.059400e+01  -4.226813e+01
   7.182515e+01   7.576758e-01
  -1.759302e+01   1.201191e+02
  -1.325609e+02   9.280697e+01
  -1.813460e+02  -6.493307e+01
  -4.810001e+01  -1.535209e+02
   9.764305e+01  -2.394123e+02
   2.801728e+02  -1.009564e+02
   2.103482e+02   9.649431e+01
   9.253212e+01   1.838262e+02
  -3.914093e+01   1.699586e+02
  -1.107260e+02   1.016805e+02
  -7.219826e+01   1.223650e+02
  -5.651798e+01   9.606178e+01
  -9.763564e+01   7.859323e+01
  -1.684120e+02  -1.735314e+00
  -1.354083e+02  -1.575004e+02
  -5.766538e+01  -2.701484e+02
   1.181804e+02  -1.847096e+02
   1.317936e+02   1.068746e+01
   1.411940e+02   9.203490e+01
   3.143804e+01   1.707053e+02
  -6.055743e+01   9.946269e+01
  -3.345594e+01   2.989782e+00
  -2.232584e+01  -7.951883e+01
  -3.961094e+00  -1.558835e+01
  -2.010554e+01  -4.302819e+01
  -8.550931e+01  -2.119818e+01
  -2.950815e+01  -2.629828e+01
   4.938422e+01  -3.697141e+01
   1.667460e+02  -4.533739e+00
   1.610728e+02   5.557803e+01
   3.506839e+00   7.463576e+01
  -1.199288e+02   8.553492e+01
  -1.585076e+02   6.873829e+00
  -5.564019e+01  -1.152761e+01
   3.770324e+01  -6.089110e+01
   8.248671e+01  -1.817572e+00
  -4.011062e+01   5.314197e+01
  -1.009060e+02   7.651401e+01
  -5.483481e+01  -9.298633e-01
  -2.824967e+01  -6.904023e+01
  -4.550979e+01  -2.871314e+01
  -4.326682e+01   3.349182e+00
  -7.533171e+01  -1.227941e+01
  -4.871070e+01  -4.291637e+01
   5.361915e+01  -1.871986e+02
   1.307523e+02  -1.729146e+02
   1.051189e+02  -3.558899e+01
   1.135609e+02   1.192984e+02
   1.655859e+01   1.075594e+02
  -8.795200e+01   9.200755e+01
  -4.088213e+01  -5.602677e+01
   4.649895e+01   1.894327e+01
   1.775428e+02   3.113641e+01
   8.606640e+01   1.333284e+02
  -9.050777e+01   1.418980e+02
  -2.211780e+02   9.753705e+01
  -1.457245e+02  -5.056130e+01
  -4.478890e+01  -7.678508e+01
   6.964976e+01  -7.020747e+01
   4.219046e+01  -2.727042e+01
  -4.479253e+01  -7.582070e+00
  -5.858216e+01  -3.494026e+01
  -2.922345e+01  -1.018115e+02
   8.673038e+01  -1.696041e+02
   1.685329e+02  -8.985329e+01
   1.459860e+02   1.267944e+02
   1.791544e+01   1.911750e+02
  -1.031159e+02   1.599314e+02
  -8.552493e+01   1.072268e+01
  -7.434483e+01  -7.811939e+01
  -8.508066e+00  -7.171446e+01
   3.410173e+01  -7.457469e+00
   8.443951e+01   4.664049e+01
   1.767161e+01   3.875110e+01
  -2.333411e+01  -3.877833e+01
   1.945388e+00   5.221628e+01
   5.182780e+01   9.390570e+01
   4.362509e+01   8.048469e+01
  -4.012595e+01   6.791040e+01
  -1.713808e+02  -4.949528e+01
  -1.562983e+02  -8.255863e+01
  -4.677900e+01  -4.776071e+01
   1.020064e+02   6.270885e+00
   1.090815e+02  -1.059063e+01
  -6.712851e+00   6.624548e+00
  -3.527996e+01   4.481177e+01
  -2.257006e+01   2.274683e+01
   2.183587e+01   4.870725e+00
   1.343634e+01   1.479648e+01
  -7.608325e+01  -5.341961e+00
  -9.174893e+01   7.789154e+00
   1.676764e+01  -1.144106e+02
   1.418122e+02  -1.066133e+02
   1.912661e+02  -4.512525e+01
   1.598944e+02   7.705215e+01
   2.263228e+01   1.324199e+02
  -7.014536e+01   1.370502e+02
  -1.068722e+02   3.685645e+01
  -9.906313e+01  -3.305945e+01
  -3.094759e+01  -5.623640e+01
  -4.974247e+01   1.682248e+01
  -2.091245e+00  -1.848794e+01
  -3.038117e+01  -8.010775e+01
  -5.687056e+01  -7.086331e+01
   3.597726e+01  -8.112382e+01
   4.757996e+01   1.193377e+00
   8.785466e+01   1.000931e+02
  -9.380102e-01   1.080411e+02
  -5.126267e+01   3.004489e+01
  -6.010316e+01  -9.392829e+01
  -4.473414e+01  -8.113548e+01
   9.485220e+01  -5.597861e+01
   1.150292e+02   8.003863e+00
   2.210518e+01   1.010899e+02
  -3.941439e+01   5.770635e+01
  -2.047812e+00  -7.683731e+00
   2.518702e+01   4.307700e+01
   4.917658e+01  -1.266608e+01
  -4.812158e+01   3.673702e+01
  -6.214147e+01   8.117430e+01
  -9.382439e+01   7.192667e+01
  -6.505226e+01  -4.376753e+01
   2.614263e+01  -8.415605e+01
   5.021680e+01  -5.013203e+01
   3.703472e+01   1.778462e+00
  -1.026706e+01   5.997754e+01
   1.065559e+01   2.377293e+01
  -1.363699e+01  -5.413182e+00
  -2.664074e+01  -8.845159e+01
  -1.748524e+01  -3.703209e+01
   1.246400e+01   1.769422e+01
   6.565191e+01  -2.178524e+01
   3.561136e+00  -1.069263e+00
  -1.800469e+01  -3.402234e+01
   3.180526e+01   4.295136e+01
  -1.507595e+01   3.004589e+01
  -5.544219e+01   4.510978e+01
  -1.756633e+01  -1.069494e+01
   2.711437e+01  -5.990245e+01
   4.585552e+00  -6.717670e+01
   8.411452e+01  -3.783044e+01
   6.716383e+01   2.452028e+01
  -8.768437e+00   7.045747e+01
  -2.600437e+00   6.369741e+01
  -1.340063e+02  -8.988744e-01
  -4.330894e+01  -4.750405e+01
   1.921881e+01   9.079921e-01
   7.106572e+01  -2.983448e+01
   6.859103e+01  -1.490783e+01
  -3.313793e+01  -2.296548e+01
  -5.262458e+01  -1.399224e+01
   2.355984e+01  -5.304492e+01
   9.498006e+01  -5.002491e+00
