
 $NMID
 id='ANONYMOUS ', fmtdat='(2E16.6)'
 volume=1.0
 tramp=1.0
 $END
  -4.866925e+03   2.364855e+02
  -2.541139e+03  -2.487126e+03
   1.048021e+03  -2.658318e+03
   2.082971e+03  -7.699586e+02
   7.981857e+02   8.195809e+02
  -7.471125e+02   5.265052e+02
  -8.489134e+02  -4.227549e+02
   1.920163e+02  -1.031285e+03
   8.806814e+02  -8.693711e+02
   9.905271e+02   1.998326e+02
   4.872257e+02   9.590964e+02
  -3.313433e+02   9.107043e+02
  -6.783138e+02   6.489609e+01
  -4.196154e+02  -7.269744e+02
   2.444544e+02  -8.133597e+02
   6.097906e+02   3.224626e+01
   2.100480e+02   7.553289e+02
  -3.743697e+02   6.595806e+02
  -5.744195e+02   4.333367e+01
  -4.214251e+02  -4.250400e+02
   1.291545e+01  -4.119599e+02
   2.871759e+02  -2.550471e+02
   2.394498e+02  -1.478874e+01
  -9.498447e+01   1.127164e+02
  -3.966460e+02  -1.262134e+02
  -2.237822e+02  -4.363043e+02
   4.395352e+02  -3.827361e+02
   9.250267e+02   3.722562e+01
   4.905938e+02   5.845476e+02
  -4.152244e+02   5.261348e+02
  -8.081694e+02  -2.120162e+01
  -3.220044e+02  -5.342761e+02
   3.217961e+02  -5.294678e+02
   5.782171e+02  -2.898357e+02
   4.028610e+02   2.256470e+02
   8.505497e+01   4.603253e+02
  -2.409838e+02   2.973257e+02
  -2.775991e+02  -2.140150e+02
   1.870050e+02  -4.667040e+02
   4.443348e+02  -1.154506e+01
   2.935196e+02   6.705165e+02
  -3.696223e+02   7.106866e+02
  -5.699261e+02  -1.376766e+01
  -2.391198e+02  -6.061228e+02
   2.847218e+02  -3.472081e+02
   4.066278e+02   3.720956e+02
  -6.445204e+01   5.817697e+02
  -5.982324e+02   1.361597e+02
  -6.167482e+02  -4.727943e+02
  -1.289363e+02  -5.797285e+02
   4.083871e+02  -3.472187e+02
   6.970611e+02   5.512386e+01
   3.679230e+02   3.916600e+02
  -1.633321e+02   4.184782e+02
  -4.723983e+02   1.927482e+01
  -2.678609e+02  -2.376444e+02
   1.056109e+02  -1.066557e+02
   1.970732e+02   1.623960e+02
  -2.469619e+02   1.862282e+02
  -4.127686e+02  -8.188249e+01
  -1.629790e+02  -3.115360e+02
   2.417242e+02  -2.622560e+02
   2.690549e+02  -3.547604e+01
   1.754210e+02   6.912551e+01
   1.656192e+01   2.194626e+02
  -2.337523e+02   3.306284e+02
  -3.577429e+02   1.860398e+02
  -3.397366e+02  -9.695160e+01
  -9.973843e+01  -4.152326e+02
   1.465152e+02  -4.290155e+02
   1.928402e+02  -1.072052e+02
   3.047084e+00   3.899646e+01
   6.429408e+00  -8.359129e+01
   1.767401e+02  -1.623499e+02
   3.053060e+02   1.188097e+01
   2.010972e+02   2.439347e+02
  -8.641353e+01   2.537657e+02
  -1.877633e+02  -2.938413e+00
  -1.913615e+02  -2.597123e+02
  -2.252950e+01  -3.076634e+02
   2.703092e+02  -8.948238e+01
   3.333093e+02   1.284964e+02
   1.917163e+02   4.000848e+02
  -1.277410e+02   2.947261e+02
  -2.253523e+02   1.265597e+02
  -1.558115e+02  -6.165396e+00
  -1.075396e+02   1.852246e+01
  -2.275082e+02   4.952214e+01
  -3.809078e+02  -9.089984e+01
  -3.536664e+02  -2.585634e+02
  -2.237690e+00  -4.433704e+02
   3.195899e+02  -3.729545e+02
   4.649830e+02  -1.672842e+02
   3.706676e+02   9.737461e+01
   4.229449e+01   2.871901e+02
  -9.399679e+01   2.556333e+02
  -8.228799e+01  -2.670731e+00
   1.177896e+02  -1.053264e+02
   1.883952e+02   8.490936e-01
   8.206772e+01   2.076355e+02
  -1.397418e+02   1.597227e+02
  -1.964919e+02  -7.405977e+01
  -1.636956e+01  -2.143989e+02
   2.114408e+02  -3.947418e+01
   1.687228e+02   1.910191e+02
  -5.872486e+01   3.092143e+02
  -2.439620e+02   2.251743e+02
  -2.958743e+02  -5.054791e+00
  -2.345999e+02  -1.958355e+02
  -1.041651e+02  -2.404853e+02
   1.052822e+02  -1.878819e+02
   2.122990e+02  -5.535330e+00
   6.844646e+01   3.705714e+01
  -8.330452e+01  -4.674018e+01
  -3.557009e+01  -1.297992e+02
   1.691142e+02  -1.300721e+02
   2.175624e+02   1.564921e+01
   9.370867e+01   1.273027e+02
  -3.155994e+01   4.270055e+01
  -6.743971e+01  -9.732920e+01
   1.247707e+02  -7.074974e+01
   2.546691e+02  -2.412840e+01
   2.629663e+02   1.379122e+02
   3.509750e+01   2.475745e+02
  -1.587652e+02   2.941705e+02
  -2.816708e+02   1.298989e+02
  -1.330535e+02  -1.721637e+01
   3.962499e+01  -1.443285e+02
   9.411488e+01  -8.202747e-03
  -1.710966e+01   1.128155e+02
  -2.135879e+02   9.335257e+01
  -2.136839e+02  -8.753173e+01
  -4.561411e+01  -2.165257e+02
   9.578972e+01  -1.826847e+02
   1.199510e+02  -2.240409e+01
   7.284225e+01   5.433562e+01
  -8.282574e+00   4.555459e+01
  -1.237234e+01  -7.199545e+01
   7.387668e+01  -1.146095e+02
   1.830236e+02  -6.203040e+00
   1.897086e+02   1.351663e+02
   1.583938e+01   2.326286e+02
  -1.867096e+02   1.936024e+02
  -1.837537e+02  -2.877422e+00
  -1.230243e+02  -8.481864e+01
   7.666655e+01  -1.609823e+02
   1.138740e+02  -3.420842e+01
   1.506611e+01   6.077935e+00
  -8.588929e+00  -5.980457e+00
   1.520568e+01  -3.760166e+01
   4.197352e+01  -1.978313e+01
   6.568406e+01   9.597932e+01
  -3.982148e-01   1.509067e+02
  -1.060048e+02   1.479227e+02
  -2.040205e+02   4.225979e+01
  -1.975975e+02  -1.477645e+02
  -1.494806e+00  -2.461231e+02
   8.402108e+01  -1.718783e+02
   1.582978e+02  -5.133102e+01
   7.814821e+01   3.181484e+01
   3.383220e+01   3.868901e+01
   2.769975e+01   6.668565e+00
   7.330958e+01   8.014031e+00
   3.938687e+01   6.328404e+01
  -6.193195e+01   7.674295e+01
  -1.171182e+02   3.757453e+01
  -7.055432e+01  -3.848605e+01
   2.591750e+01  -9.390363e+01
   1.358372e+02  -9.576240e+01
   1.786133e+02   4.342204e+01
   1.355619e+02   2.121630e+02
  -6.471428e+01   1.973214e+02
  -2.960025e+02   1.306698e+02
  -2.561729e+02  -1.056936e+02
  -8.227122e+01  -2.049912e+02
   4.470544e+01  -1.545305e+02
   1.098248e+02  -9.103664e+01
   6.785278e+01  -1.364277e+02
   8.275519e+01  -8.082618e+01
   6.250515e+01  -3.109309e+01
   1.592416e+02   1.188650e+01
   6.608525e+01   1.563988e+02
   4.314597e+01   2.062143e+02
  -1.151738e+02   1.562769e+02
  -1.604631e+02   1.240213e+01
  -1.497596e+02  -1.130940e+02
  -5.798491e+01  -1.436736e+02
   4.923186e+01  -7.500764e+01
   7.218565e+01  -8.421622e+00
   7.751093e+00   5.300274e+01
   9.527095e+00   6.039860e+01
   5.599507e+01   6.133601e+00
   8.994121e+01   2.508964e+01
   1.827654e+01   4.931508e+01
  -3.279399e+01   1.381636e+01
  -1.422865e+02   5.606716e+01
  -1.250420e+02  -8.404985e+01
  -2.396972e+01  -9.859648e+01
   1.022093e+02  -1.083563e+02
   1.529334e+02  -2.913585e+01
   7.316835e+01   6.392083e+01
  -7.396984e+01   1.415545e+01
  -9.199951e+01  -3.296302e+01
   3.506925e+01  -8.357457e+01
   4.455785e+01  -5.772934e+01
   6.924294e+01  -9.189625e+00
   6.856066e+01   4.298343e+01
   4.994554e+01   4.201373e+01
   5.925438e+01   3.183014e+01
   9.533434e+01  -1.707538e+01
   5.885473e-01   5.537146e+01
  -4.464331e+01   1.618601e+02
  -1.161095e+02   1.525437e+02
  -1.437057e+02   2.714063e+01
  -1.141276e+02  -1.128505e+02
  -5.026493e+01  -1.549655e+02
   4.671153e+01  -5.854443e+01
   4.753569e+01   7.999640e+00
  -5.127802e+01   3.742098e+01
  -1.810468e+02  -4.241622e+01
  -8.687677e+01  -1.606982e+02
   7.262432e+01  -9.395287e+01
   2.010807e+02  -6.745941e+01
   1.437067e+02   4.686064e+01
   5.557902e+01   9.236067e+01
  -3.074103e+01   7.054442e+01
  -2.504491e+01   3.375892e+01
   4.708249e+01   2.587613e+01
   1.174425e+02  -1.469906e+01
   1.472878e+01   1.394839e+02
  -1.028190e+02   1.213034e+02
  -1.645360e+02   2.305329e+01
  -8.835842e+01  -1.117940e+02
  -2.251510e+01  -1.600812e+02
   8.863813e+01  -1.376650e+02
   8.376340e+01  -2.796535e+01
   7.635392e+01   1.059162e+02
  -1.213226e+01   8.831755e+01
  -6.946549e+01   4.992993e+01
  -3.491420e+01  -4.167362e+01
  -2.399661e+00  -2.442649e+01
  -7.430324e+00   1.698058e+01
  -4.011401e+01   3.185915e+00
  -6.847424e+01  -7.297527e+01
  -7.385429e+01  -1.449715e+02
   2.695004e+01  -5.859980e+01
   1.426922e+02   4.257957e+01
   1.198866e+02   6.232858e+01
   3.436841e+01   1.088878e+01
  -1.255735e+02  -5.876512e+00
  -8.776376e+01   1.850174e+01
  -2.694678e+01   6.734352e+00
   4.763418e+01  -3.784967e+01
  -1.914690e+01  -7.700284e+00
  -3.928324e+01  -3.803489e+00
   2.398620e+01   2.606363e+01
   9.475937e+01  -3.188456e+01
   1.140306e+02   1.787240e+01
  -1.256845e+01   4.168314e+01
  -9.235007e+01   1.015752e+02
  -2.073160e+02   4.977593e+01
  -1.437673e+02  -1.208327e+02
  -5.002257e+01  -1.471900e+02
   3.381764e+01  -1.946183e+02
   1.067071e+02  -2.742014e+01
   3.005421e+01   1.946231e+01
   2.381813e+01   2.344862e+01
  -2.065463e+01   1.755314e+01
   2.770007e+01   2.912281e+01
   3.996204e+01   5.482606e+01
   1.503686e+01   9.293320e+01
  -7.096466e+00   9.694817e+01
  -9.138053e+01  -4.271711e+01
  -4.270129e+01  -1.193635e+02
  -2.216378e+00  -1.097427e+02
   7.392684e+01  -2.231388e+01
   7.635075e+01   8.369794e+01
   2.908952e+01   9.054232e+01
  -7.087889e+01   7.268178e+01
  -9.313545e+01  -3.428349e+01
  -6.537178e+01  -6.806933e+01
   4.598223e+01  -3.012601e+01
   2.889793e+01  -6.379294e+01
  -1.685161e+01   3.089640e+01
  -4.263555e+01  -2.332909e+01
   1.818166e+01  -1.150845e+01
   3.365400e+01  -3.088419e+01
   1.055604e+02  -4.263962e+01
   6.629264e+01   2.534808e+00
   6.574074e+00   5.232165e+01
  -5.608281e+01   7.182137e+01
  -6.409154e+01  -1.208507e+01
   4.562942e+00  -5.292477e+01
   7.633739e+00  -5.911633e+01
   2.411808e+01   1.323218e+01
   2.867806e+01   2.016618e+01
   4.053956e+01   2.786836e+01
  -1.827788e+01   3.797570e+01
  -3.949154e+01   7.424920e+00
  -5.393945e+00  -5.844320e+00
   3.556908e+01   8.710109e+00
   2.567939e+01  -2.231055e+01
  -3.914382e+00  -4.133634e+01
   3.133077e+01  -8.508086e+00
   2.391075e+01   2.796127e+00
  -1.828737e+01   1.898752e+01
   2.703583e+01   3.370460e+01
  -4.417288e+01   3.683708e+00
  -4.989899e+01  -5.159932e+01
   1.392767e+01  -6.012035e+01
   3.451985e+01  -3.339619e+01
   8.939833e+01   4.009749e+01
   5.375832e+01  -3.484494e+01
  -3.315465e+01   2.804879e+01
  -5.610090e+01   3.376566e+01
  -2.761269e+01  -1.132310e+01
   3.063008e+01  -3.859933e+01
   5.085749e+01   4.454906e+01
  -4.460895e+01   2.719489e+01
  -9.063934e+01   4.914508e+01
