
 $NMID
 id='ANONYMOUS ', fmtdat='(2E16.6)'
 volume=1.0
 tramp=1.0
 $END
   4.553547e+03   3.789179e+02
   2.548746e+03   2.856018e+03
  -6.723459e+02   2.848378e+03
  -2.057630e+03   1.023837e+03
  -9.107979e+02  -6.080741e+02
   7.304527e+02  -6.838036e+02
   8.453639e+02   3.983004e+02
  -4.439238e+01   1.077984e+03
  -9.933851e+02   8.670980e+02
  -1.065413e+03  -1.971011e+02
  -4.937232e+02  -9.035436e+02
   1.447972e+02  -9.053584e+02
   6.662457e+02  -8.031048e+01
   4.388855e+02   8.080268e+02
  -2.973607e+02   7.680904e+02
  -6.763861e+02  -4.892311e+01
  -2.710372e+02  -7.254485e+02
   3.504015e+02  -6.737255e+02
   5.933007e+02  -1.105177e+02
   3.882891e+02   3.306490e+02
   2.015176e+01   4.462001e+02
  -2.577302e+02   3.383782e+02
  -2.221730e+02   3.862142e+01
   1.093114e+02  -1.271008e+02
   4.326220e+02   1.711058e+02
   1.798374e+02   3.695131e+02
  -5.053830e+02   4.414000e+02
  -9.203466e+02  -3.123236e+01
  -4.287373e+02  -5.813228e+02
   3.931059e+02  -5.334936e+02
   7.703067e+02  -8.732498e+01
   3.901557e+02   5.115931e+02
  -2.794179e+02   4.988410e+02
  -6.195197e+02   2.753811e+02
  -4.420179e+02  -2.349376e+02
  -8.802359e+01  -4.499616e+02
   1.928240e+02  -2.679440e+02
   2.117673e+02   2.247181e+02
  -1.468706e+02   4.056830e+02
  -4.663657e+02  -4.201627e+01
  -2.448412e+02  -8.084878e+02
   3.507289e+02  -7.365723e+02
   6.486539e+02   4.750685e+01
   3.177043e+02   5.818508e+02
  -3.097933e+02   3.414386e+02
  -3.434713e+02  -3.123380e+02
   4.672445e+01  -6.503867e+02
   5.411973e+02  -1.636582e+02
   6.380192e+02   4.479837e+02
   1.633533e+02   6.527162e+02
  -3.802839e+02   3.597014e+02
  -6.594405e+02  -7.882363e+01
  -3.728885e+02  -3.871528e+02
   1.571501e+02  -3.710542e+02
   4.795163e+02  -9.186593e+01
   3.205142e+02   2.077599e+02
  -1.607970e+02   1.132168e+02
  -1.692228e+02  -1.015149e+02
   1.909593e+02  -1.904672e+02
   3.749255e+02   6.720490e+01
   1.430553e+02   3.285730e+02
  -1.649875e+02   3.074341e+02
  -3.274960e+02   1.088860e+02
  -1.771524e+02  -8.154812e+01
   3.155943e+01  -2.182118e+02
   1.902935e+02  -3.196902e+02
   3.515565e+02  -2.383726e+02
   2.959353e+02   1.165222e+02
   7.061492e+01   4.272944e+02
  -9.501113e+01   3.981505e+02
  -1.398951e+02   7.615923e+01
   2.664894e+00   9.147755e+00
  -3.093634e+01   7.742415e+01
  -1.549909e+02   1.138461e+02
  -2.863240e+02  -4.083005e+01
  -1.856151e+02  -2.790286e+02
   6.713728e+01  -2.639005e+02
   2.643866e+02  -2.982476e+01
   2.027006e+02   2.644194e+02
  -3.513554e-01   3.023818e+02
  -2.740065e+02   1.149146e+02
  -3.622419e+02  -1.934772e+02
  -2.154984e+02  -3.718176e+02
   1.177637e+02  -3.494694e+02
   1.799740e+02  -1.430664e+02
   1.493300e+02  -4.479776e+00
   9.294447e+01   6.124136e+00
   2.506711e+02  -6.934507e+01
   4.440569e+02   5.676909e+01
   3.792679e+02   2.738618e+02
   3.094356e+01   4.775548e+02
  -3.879259e+02   4.329860e+02
  -5.254432e+02   1.769802e+02
  -3.562490e+02  -9.339828e+01
  -7.526768e+01  -2.993524e+02
   1.451051e+02  -2.799774e+02
   1.058193e+02  -3.001527e+01
  -1.515269e+02   9.632371e+01
  -2.291008e+02   2.877937e+01
  -6.746332e+01  -1.859810e+02
   1.708611e+02  -1.951937e+02
   2.196782e+02   6.562798e+01
   9.767697e-01   1.957046e+02
  -1.866575e+02   3.114527e+01
  -1.856041e+02  -2.377564e+02
   9.294344e+00  -3.268319e+02
   2.221975e+02  -2.293383e+02
   3.306761e+02   6.305658e+01
   2.810759e+02   2.758901e+02
   1.195396e+02   2.810710e+02
  -1.206013e+02   1.920446e+02
  -1.539826e+02   2.185146e+00
  -6.522911e+01  -5.214136e+01
   9.191038e+01   6.293528e+01
   2.722482e+01   1.209230e+02
  -1.078141e+02   7.814815e+01
  -2.109082e+02  -1.469600e+01
  -5.067474e+01  -5.630504e+01
   7.573446e+01  -6.159639e+01
   7.949000e+01   3.748551e+01
  -1.402035e+02   7.421964e+01
  -2.558405e+02   5.579923e+01
  -2.873554e+02  -1.341421e+02
  -6.883315e+01  -2.620528e+02
   2.048143e+02  -2.415154e+02
   2.721408e+02  -1.778125e+02
   2.192677e+02   2.318282e+01
  -9.054344e+00   1.336745e+02
  -1.154829e+02   2.493295e+01
   9.334701e+00  -1.120795e+02
   1.948042e+02  -1.126593e+02
   2.500172e+02   1.225641e+02
   5.624178e+01   1.960792e+02
  -9.670244e+01   1.737665e+02
  -1.341211e+02   5.459572e+01
  -7.115047e+01  -1.782440e-01
   1.906597e+01  -2.816938e+01
   5.166527e+01   7.527556e+01
  -4.764579e+01   8.674029e+01
  -1.753860e+02   2.032252e+01
  -2.202153e+02  -1.370050e+02
  -2.825474e+01  -2.534065e+02
   1.397421e+02  -1.216201e+02
   2.059601e+02  -4.853032e+01
   9.760510e+01   1.520952e+02
  -6.017177e+01   9.504345e+01
  -1.291925e+02   2.855201e+01
  -4.258586e+01  -1.462319e+01
   6.086907e+01  -3.273408e+01
   8.427757e+00   3.621536e+00
  -7.968042e+01  -1.963646e+01
  -6.110087e+01  -7.840033e+01
   1.372317e+01  -1.439786e+02
   1.214408e+02  -1.354994e+02
   2.255999e+02  -7.074805e+01
   2.462692e+02   1.577590e+02
   7.292132e+01   1.933970e+02
  -1.453581e+02   1.727848e+02
  -1.143058e+02   5.827629e+01
  -7.720949e+01  -7.351717e+01
  -4.919415e+01  -4.830810e+01
  -5.049019e+01   1.745205e-01
  -9.187008e+01   1.301839e+01
  -6.827144e+00   2.562441e+00
   6.818161e+01  -1.104110e+02
   7.521380e+01  -8.735706e+01
   8.958306e+01   2.575017e+01
  -6.043432e+00   9.945359e+01
  -1.197431e+02   9.304113e+01
  -1.969606e+02  -5.178116e+01
  -1.229549e+02  -2.205242e+02
   1.128441e+02  -2.141283e+02
   2.778293e+02  -1.135848e+02
   2.685543e+02   1.026563e+02
   1.465852e+02   1.491841e+02
  -3.026316e+01   1.627719e+02
  -1.153783e+02   5.944276e+01
  -8.791052e+01   7.175816e+01
  -4.627837e+01   1.076292e+02
  -1.122009e+02   7.979898e+01
  -1.235092e+02  -3.803206e+01
  -9.530107e+01  -1.415158e+02
  -1.292432e+01  -2.157659e+02
   1.145825e+02  -1.790624e+02
   1.670372e+02  -3.070106e+01
   1.012509e+02   9.670686e+01
   3.557209e+01   1.348124e+02
  -3.013078e+01   1.079207e+02
  -4.309712e+01   6.639139e+00
   3.036102e+01  -5.596409e+01
   9.740831e+00  -6.650135e+00
  -3.417657e+01  -1.155131e+01
  -1.395267e+02  -3.914972e+00
  -5.423200e+01  -5.686340e+01
   7.561457e+01  -3.796089e+01
   1.448678e+02  -2.234497e+00
   1.172273e+02   3.809464e+01
   1.988128e+01   9.232251e+01
  -1.202811e+02   5.136091e+01
  -1.506023e+02   4.600640e+00
  -2.179718e+01   7.362665e+00
   5.369648e+01  -3.274287e+01
   6.486886e+01   2.703162e+01
  -2.020419e+01   3.847193e+01
  -4.896127e+01   6.649909e+01
  -7.980623e+01  -1.931207e+01
  -2.302303e+01  -4.015605e+01
   2.166630e+01  -1.702349e+01
  -6.298840e+01  -4.498243e+00
  -5.756828e+01   3.539973e+00
  -6.664502e+00  -5.541661e+01
   1.639413e+01  -1.525935e+02
   1.462810e+02  -1.609751e+02
   1.932055e+02  -3.930935e+01
   1.283332e+02   1.130850e+02
   6.950850e+00   1.100907e+02
  -6.995798e+01   5.462924e+01
  -5.120374e+01  -5.884605e+00
   6.076967e+01  -1.843185e+01
   1.597265e+02   1.642880e+01
   6.787635e+01   7.900352e+01
  -7.465811e+01   1.423583e+02
  -1.995635e+02   5.351009e+01
  -1.380650e+02  -4.742870e+01
  -2.013987e+01  -9.069416e+01
   7.596736e+01  -1.040550e+02
   4.877821e+01   1.398437e+01
  -2.963450e+01   2.769896e+01
  -9.205318e+01  -1.376101e+01
  -4.825554e+01  -1.497008e+02
   1.331495e+02  -1.819377e+02
   1.742208e+02  -3.403057e+01
   1.207774e+02   1.027009e+02
   8.318666e+00   1.913408e+02
  -8.412061e+01   1.397732e+02
  -1.065624e+02   9.816996e+00
  -6.059655e+01  -9.834204e+01
  -1.462365e+00  -8.909832e+01
   1.802314e+01  -3.401912e+01
   5.890265e+01   1.576290e+01
   5.821785e+01   1.378990e+01
   5.617615e-01  -3.435421e+01
  -2.072419e+01   7.276118e-01
   2.724496e+01   5.458721e+01
   3.683723e+01   1.271823e+02
  -3.137190e+00   4.792174e+01
  -1.302949e+02  -1.632089e+01
  -1.293433e+02  -9.202185e+01
  -8.039843e+01  -3.878599e+01
   1.257643e+02  -1.354434e+01
   1.100144e+02   1.976576e+01
   5.630812e+00   7.936334e+00
  -3.461392e+01   1.933487e+00
  -8.581213e+00   1.978332e+01
   2.473767e+01  -1.027548e+01
  -1.654447e+01   8.414879e-01
  -4.264258e+01  -1.701833e+01
  -9.911507e+01  -3.950793e+01
   1.010192e+01  -1.182183e+02
   1.389856e+02  -9.354880e+01
   2.084729e+02  -7.644994e+01
   1.620505e+02   5.110531e+01
   4.203014e+01   1.347531e+02
  -9.534561e+01   1.161282e+02
  -1.267084e+02   9.087197e+01
  -7.681710e+01  -6.028509e+01
  -1.794166e+00  -3.115005e+01
  -5.378337e+00   1.041925e+01
  -1.387018e+01  -2.109322e+01
  -3.816121e+01  -6.440347e+01
   1.533520e+01  -1.032580e+02
   2.870129e+01  -6.142443e+01
   5.182183e+01   3.249879e+01
   6.342235e+01   1.222691e+02
   2.567249e+01   1.061376e+02
  -7.761044e+01   4.431274e+01
  -3.562087e+01  -7.877001e+01
  -5.663521e+00  -8.559466e+01
   5.492907e+01  -5.261414e+01
   8.673392e+01   3.028108e+01
  -4.791531e+00   2.054900e+01
  -4.176223e+01   3.674860e+01
  -3.567547e+01   3.183925e+01
   5.462459e+01   7.984059e+00
   1.046886e+02  -3.234590e+00
   4.791380e+01   5.350390e+01
  -8.646417e+01   4.741814e+01
  -9.092430e+01   9.288734e+01
  -4.251560e+01   3.006778e+01
   4.598334e+01  -1.012245e+02
   2.231728e+01  -7.031844e+01
   2.764591e+01   4.157149e+01
  -1.269776e+01   7.808548e+01
  -3.183541e+01   7.683705e+01
   3.943137e+00  -5.646465e+00
  -4.548311e+01  -7.103356e+01
  -4.238065e+00   2.654437e+00
   2.913680e+01  -5.132501e-02
  -5.123203e+00  -1.455137e+01
   3.008744e+01   1.265010e+01
   8.620066e-01  -4.526114e+00
   3.344915e+00   2.880697e+00
  -6.231072e+01   5.096416e+01
  -5.385238e+00   4.154293e+01
  -1.526684e+01  -2.306030e+01
   3.004421e+00  -7.525970e+01
   2.904580e+01  -6.035600e+01
   2.745548e+01   4.648147e+00
   2.484503e+01   7.606715e+00
   3.153692e+01   7.812611e+01
  -7.051164e+01   4.093907e+01
  -8.678048e+01  -1.260899e+01
  -3.349140e+01  -2.865050e+01
  -1.488030e+01  -3.766849e+01
   9.353005e+01  -4.311835e+01
   4.257945e+01  -2.360340e+00
  -2.283827e+01  -1.584204e+01
  -5.105665e+01  -2.618791e+01
   2.820923e+01  -2.144078e+01
   9.305251e+01  -1.579621e+01
