
 $NMID
 id='ANONYMOUS ', fmtdat='(2E16.6)'
 volume=1.0
 tramp=1.0
 $END
  -4.470272e+03  -1.451200e+02
  -2.829186e+03  -2.675623e+03
   7.191169e+02  -2.586361e+03
   2.129583e+03  -8.346166e+02
   8.610826e+02   5.996827e+02
  -7.320583e+02   5.543845e+02
  -8.662480e+02  -4.587794e+02
   2.366576e+01  -1.068805e+03
   9.223021e+02  -8.277449e+02
   1.057743e+03   1.370344e+02
   4.364235e+02   9.277212e+02
  -1.970208e+02   8.685036e+02
  -6.840735e+02   1.308609e+02
  -3.952217e+02  -7.372032e+02
   2.092667e+02  -7.665190e+02
   6.282251e+02   2.288376e+01
   2.557409e+02   6.540348e+02
  -3.625909e+02   6.528600e+02
  -5.397538e+02   7.717852e+01
  -4.084758e+02  -4.045120e+02
  -6.502148e+01  -4.143040e+02
   2.968710e+02  -2.632383e+02
   2.395145e+02  -2.149801e+01
  -8.901675e+01   6.410216e+01
  -3.795566e+02  -6.592916e+01
  -2.255540e+02  -4.224575e+02
   4.266480e+02  -3.886464e+02
   9.206656e+02   4.419016e+01
   3.878466e+02   5.303948e+02
  -4.114925e+02   5.543560e+02
  -7.597311e+02  -1.183457e+01
  -3.617498e+02  -4.580581e+02
   3.192190e+02  -4.768780e+02
   5.910052e+02  -1.726680e+02
   4.061320e+02   2.386506e+02
   6.268003e+01   5.023381e+02
  -1.871572e+02   3.341750e+02
  -2.283882e+02  -2.306555e+02
   1.408347e+02  -4.235305e+02
   4.063769e+02   2.553584e+01
   2.496779e+02   7.374170e+02
  -3.442771e+02   7.238477e+02
  -5.892026e+02   3.443539e+01
  -2.859277e+02  -5.522624e+02
   2.620680e+02  -3.787067e+02
   3.537675e+02   3.543768e+02
  -5.471416e+01   5.811948e+02
  -5.480278e+02   1.507262e+02
  -5.910533e+02  -4.146874e+02
  -1.864905e+02  -5.712454e+02
   3.826258e+02  -3.612334e+02
   6.402112e+02   7.306750e+01
   3.746023e+02   3.906060e+02
  -1.329324e+02   3.785442e+02
  -4.548267e+02   7.708759e+01
  -2.789149e+02  -2.070674e+02
   1.042237e+02  -1.067791e+02
   1.563072e+02   1.566503e+02
  -1.902250e+02   1.719531e+02
  -3.416922e+02  -1.198349e+02
  -1.364881e+02  -3.172910e+02
   1.929105e+02  -2.632676e+02
   3.117988e+02  -6.693671e+01
   1.695888e+02   1.066528e+02
  -7.413607e+01   2.233283e+02
  -1.902592e+02   2.452420e+02
  -3.257864e+02   1.986727e+02
  -2.543189e+02  -1.060251e+02
  -6.045500e+01  -4.485999e+02
   1.537262e+02  -3.787675e+02
   1.322573e+02  -1.235588e+02
   1.231457e+01  -2.794151e+01
   2.161783e+01  -9.909728e+01
   1.610187e+02  -1.285396e+02
   2.776473e+02   4.212152e+01
   1.694960e+02   2.664193e+02
  -8.088838e+01   2.833505e+02
  -2.496905e+02   5.390376e+01
  -2.060929e+02  -2.541173e+02
   5.931817e+01  -3.274923e+02
   2.766469e+02  -1.279234e+02
   3.561599e+02   1.959378e+02
   2.251762e+02   3.283566e+02
  -1.143661e+02   3.207528e+02
  -2.026758e+02   1.506443e+02
  -1.246870e+02  -1.097343e+01
  -8.169015e+01   3.642140e+00
  -1.930967e+02   5.769397e+01
  -4.231649e+02  -8.267469e+01
  -3.270283e+02  -2.561710e+02
   2.273763e+01  -4.319848e+02
   3.822534e+02  -4.006579e+02
   4.861343e+02  -1.695111e+02
   3.292991e+02   5.633237e+01
   1.730452e+01   3.021538e+02
  -1.457170e+02   2.935151e+02
  -5.830925e+01   4.230915e+01
   1.305438e+02  -1.189776e+02
   1.903696e+02   1.049078e+01
   1.099094e+02   2.280765e+02
  -1.567608e+02   1.911859e+02
  -1.808154e+02  -4.416611e+01
   4.642785e+01  -2.214688e+02
   1.475543e+02  -7.523130e+00
   1.999585e+02   2.429096e+02
  -2.474998e+01   3.446641e+02
  -2.373374e+02   2.024588e+02
  -3.338719e+02  -4.999179e+01
  -3.214878e+02  -2.211390e+02
  -9.782862e+01  -2.872024e+02
   1.391394e+02  -1.243966e+02
   1.490325e+02  -4.008656e+01
   7.158829e+01   6.467714e+01
  -5.248258e+01  -6.050259e+01
  -5.451105e+01  -1.569770e+02
   1.602143e+02  -7.180700e+01
   1.717514e+02  -1.666864e+01
   4.346966e+01   9.403371e+01
  -6.173794e+01   5.424935e+01
  -3.734967e+01  -2.543349e+01
   9.852481e+01  -6.481131e+01
   2.270180e+02  -2.590812e+01
   2.598927e+02   1.413585e+02
   5.801981e+01   2.735911e+02
  -1.655406e+02   2.731717e+02
  -2.443837e+02   1.535828e+02
  -1.850109e+02  -1.739973e+01
   5.253766e+01  -1.181385e+02
   1.143331e+02  -2.213954e+01
  -1.041928e+01   1.017223e+02
  -1.888770e+02   4.802741e+01
  -2.205491e+02  -1.352223e+02
  -5.377843e+01  -1.926840e+02
   5.785125e+01  -2.115906e+02
   1.347713e+02  -1.891270e+01
   8.805642e+01   5.758016e+00
  -1.846250e+01   2.572299e+01
  -2.497162e+01  -7.485270e+01
   9.597019e+01  -1.298161e+02
   1.527618e+02  -2.353414e+01
   1.750353e+02   1.003095e+02
   3.995844e+01   2.229277e+02
  -1.367331e+02   1.152511e+02
  -1.796056e+02  -1.892105e+01
  -6.703771e+01  -9.294842e+01
   3.664740e+01  -1.045034e+02
   1.220484e+02  -6.306610e+01
   1.888654e+01   2.391663e+01
  -2.222767e+01   2.244416e+01
   8.656727e+00   1.132894e-02
   4.880307e+01  -1.070654e+01
   1.026489e+02   1.111418e+02
   4.828191e+01   1.579017e+02
  -9.475566e+01   1.202330e+02
  -2.108508e+02   5.673444e+01
  -1.785048e+02  -1.477691e+02
   2.711241e+00  -2.125739e+02
   1.126379e+02  -1.702244e+02
   1.443299e+02   3.707456e+01
   7.482419e+01   4.444064e+01
   5.951287e+01   7.324013e+01
   5.833217e+01  -1.500615e+01
   6.227280e+01  -2.408648e+01
   5.023901e+01   7.915162e+01
  -4.976418e+01   1.048896e+02
  -1.269306e+02   6.184098e+01
  -1.341968e+02   2.065732e+01
   3.509838e+01  -1.046663e+02
   1.383908e+02  -6.378140e+01
   2.270868e+02   4.315664e+01
   6.237734e+01   1.865156e+02
  -1.083920e+02   2.052855e+02
  -2.374596e+02   1.427027e+02
  -2.831603e+02  -6.132485e+01
  -1.228646e+02  -1.746125e+02
   6.157141e+00  -1.161627e+02
   9.189622e+01  -4.830661e+01
   5.810000e+01  -1.031546e+02
   1.138141e+02  -5.566010e+01
   1.356764e+02  -4.741370e+01
   1.203425e+02   3.167811e+01
   1.153361e+02   1.353818e+02
   9.278020e+00   2.396926e+02
  -8.812351e+01   2.088951e+02
  -2.289446e+02   6.672742e+01
  -1.186186e+02  -1.035719e+02
  -5.246805e+01  -1.895294e+02
   6.811629e+01  -9.265204e+01
   4.373568e+01   9.384845e+00
  -1.404784e+01   8.337397e+01
  -3.020946e+00   2.314291e+01
   3.153040e+01   2.609652e+01
   6.372743e+01   3.659146e+01
   4.135565e+01   3.351426e+01
  -7.412891e+01   4.096200e+01
  -1.798206e+02  -8.248106e+00
  -1.455259e+02  -7.234194e+01
  -3.783434e+01  -7.051666e+01
   8.571856e+01  -5.174073e+01
   1.081779e+02  -4.655652e+01
   4.669050e+01   1.758517e+01
  -6.925692e+01   6.184228e+01
  -8.935991e+01  -2.160136e+01
  -5.191968e+01  -6.698480e+01
   9.985401e+01  -6.764907e+01
   8.858493e+01  -8.702158e+00
   3.981853e+01   5.436165e+01
   3.360484e+01   4.744422e+01
   6.464047e+01   2.537525e+01
   5.527524e+01   2.537371e+01
   3.088169e+01   6.431706e+01
  -9.743859e+00   1.677611e+02
  -1.188452e+02   1.563238e+02
  -1.235256e+02   5.191201e+01
  -9.670702e+01  -5.655874e+01
   1.197558e+01  -1.103817e+02
   8.911955e+01  -8.058248e+01
   2.011315e+01   7.184890e+00
  -8.721417e+01   3.408657e+01
  -1.588228e+02  -5.140991e+01
  -7.794500e+01  -1.246168e+02
   6.971405e+01  -1.313784e+02
   1.522645e+02  -6.766624e+01
   1.007708e+02   3.594517e+01
   2.268073e+01   9.309206e+01
  -5.488031e+01   9.389511e+01
  -6.963916e+01   2.670367e-01
   4.870945e+01  -4.214298e+01
   7.261504e+01  -1.536138e+01
   6.188454e+01   9.837371e+01
  -8.029844e+01   1.528108e+02
  -1.783329e+02   1.185734e+02
  -1.107292e+02  -8.330058e+01
  -3.035883e+01  -2.207009e+02
   1.082352e+02  -1.362897e+02
   1.203609e+02   1.277845e+01
   5.797798e+01   1.440939e+02
   1.581965e+01   1.127089e+02
  -6.649219e+01   1.987952e+01
  -4.682975e+01  -4.337275e+01
  -1.533568e+01  -9.536163e-01
   1.376350e+01   1.741279e+01
  -2.985515e+01  -1.628284e+01
  -5.326772e+01  -1.215641e+02
  -4.042807e+01  -1.090071e+02
   4.190875e+01  -6.289861e+01
   1.504254e+02   3.391095e+01
   1.566983e+02   4.431285e+01
   4.928394e+01   5.589121e+01
  -7.923189e+01   5.903641e+00
  -1.156467e+02  -2.004434e+01
  -2.202834e+01   2.461627e+01
   2.008077e+01  -1.580202e+01
   1.999519e+01   2.630356e+00
  -1.473386e+01  -2.653656e+01
   2.116167e+01   8.474514e-01
   4.223244e+01  -1.987159e+01
   6.769452e+01   5.446700e+01
  -7.101654e+00   6.960465e+01
  -1.388007e+02   1.012723e+02
  -1.776315e+02   5.129353e+01
  -1.407465e+02  -6.758626e+01
   1.023204e+01  -1.569512e+02
   5.077060e+01  -1.434439e+02
   1.417437e+02  -8.623756e+01
   6.955132e+01   1.792247e+01
   3.556460e+00   5.635496e+01
  -3.369788e+01   4.002332e+01
   7.017320e+00  -6.097942e+00
   6.155646e-01   1.504898e+01
   1.866249e+01   9.204315e+01
  -4.506736e+01   4.309467e+01
  -1.835915e+01  -2.283715e+01
  -8.966937e+01  -7.253211e+01
   3.230075e+01  -1.395639e+02
   8.079175e+01  -4.048210e+01
   8.838925e+01   8.373875e+01
   5.734449e+01   1.402236e+02
  -9.605284e+01   3.677930e+01
  -1.155543e+02  -2.672977e+00
  -2.977066e+01  -3.126134e+01
   4.590400e+01  -6.471389e+01
   3.521495e+01  -1.822212e+01
  -1.372653e+01  -2.387908e+01
  -6.686043e+01  -5.010137e+00
   3.888229e+01  -3.133147e+01
   7.580969e+01  -8.964763e+01
   1.365421e+02  -7.558013e+01
   5.009279e+01   2.898978e+01
  -2.509278e+00   6.738531e+01
  -6.503083e+01   6.353771e+01
  -8.202155e+01   7.377235e+00
  -5.067648e+00  -2.717625e+01
   1.883553e+01  -7.793263e+01
   1.407308e+01   2.255082e+01
   1.466420e+01   4.353746e+01
  -4.004002e+01  -6.742062e+00
  -1.631792e+01   1.494750e+01
  -5.406817e+01  -2.247186e+01
  -7.538532e+00  -2.110911e+01
   5.384142e+00   2.795632e+01
  -3.813383e+00   1.980938e-01
   1.386770e+01  -4.703450e+01
   2.756413e+01  -5.091150e+01
   1.754371e+01  -1.953595e+01
   7.515956e+00   5.163591e+01
   4.768777e+00   5.029073e+01
  -4.488221e+01   5.682725e+01
  -4.050025e+01  -5.396940e+01
  -1.304089e+00  -5.988479e+01
   3.023675e+01  -6.050542e+01
   6.006481e+01   2.596550e+01
   2.882048e+01   1.952548e+01
   1.228693e+01   3.071650e+01
  -5.018341e+01   1.723779e+00
  -7.793430e+00  -7.336980e+00
   2.341675e+01   6.773599e+00
   4.350415e+01  -1.638780e+00
  -5.340205e+01   4.376277e+01
  -6.378994e+01   4.516450e+00
