
 $NMID
 id='ANONYMOUS ', fmtdat='(2E16.6)'
 volume=1.0
 tramp=1.0
 $END
  -4.623516e+03  -2.631840e+02
  -2.363136e+03  -2.794992e+03
   6.610218e+02  -2.829270e+03
   2.160231e+03  -9.715556e+02
   9.386047e+02   5.669895e+02
  -7.530128e+02   5.792038e+02
  -1.025489e+03  -3.386244e+02
   1.038164e+01  -1.094813e+03
   1.045654e+03  -8.553207e+02
   1.072796e+03   2.180578e+02
   4.379077e+02   8.649567e+02
  -1.161440e+02   9.054950e+02
  -7.228440e+02   7.188536e+01
  -4.208986e+02  -7.858373e+02
   2.731995e+02  -7.702674e+02
   6.353959e+02   4.583831e+01
   2.734968e+02   7.112041e+02
  -3.300402e+02   7.285605e+02
  -6.222226e+02   1.053569e+02
  -3.538911e+02  -3.813230e+02
  -9.372697e+00  -4.406355e+02
   2.574657e+02  -2.553382e+02
   2.405646e+02  -3.897268e+01
  -1.523018e+02   1.095104e+02
  -3.683905e+02  -1.428963e+02
  -2.328179e+02  -4.006752e+02
   4.800537e+02  -4.365266e+02
   8.956266e+02   1.243605e+01
   4.192592e+02   5.597945e+02
  -4.065973e+02   5.368210e+02
  -8.565018e+02   8.068926e+01
  -3.438462e+02  -5.147933e+02
   2.865003e+02  -5.458124e+02
   6.151695e+02  -2.468234e+02
   4.401901e+02   2.847895e+02
   1.087044e+02   5.268990e+02
  -2.383150e+02   3.528706e+02
  -1.870304e+02  -2.415422e+02
   1.508635e+02  -4.392941e+02
   4.414251e+02   3.053011e+01
   2.854453e+02   7.686363e+02
  -2.885470e+02   7.603977e+02
  -6.226283e+02  -1.013541e+01
  -3.109907e+02  -5.934596e+02
   3.516114e+02  -3.194188e+02
   3.963163e+02   3.115590e+02
  -2.010795e+01   6.051873e+02
  -5.736273e+02   1.725314e+02
  -6.881207e+02  -4.537890e+02
  -2.020252e+02  -5.776662e+02
   3.994495e+02  -3.843593e+02
   6.533590e+02   7.910090e+01
   4.108720e+02   4.175009e+02
  -1.444630e+02   3.615184e+02
  -4.669702e+02   6.293335e+01
  -2.244553e+02  -2.061815e+02
   1.325679e+02  -1.745113e+02
   1.848294e+02   1.422843e+02
  -1.278817e+02   2.259786e+02
  -3.484653e+02  -6.459340e+01
  -1.498145e+02  -3.023074e+02
   1.695070e+02  -3.163503e+02
   3.277097e+02  -7.132790e+01
   1.838897e+02   5.566433e+01
  -1.694882e+01   2.288793e+02
  -1.881675e+02   3.654480e+02
  -3.455923e+02   2.464672e+02
  -2.797087e+02  -1.618327e+02
  -9.476250e+01  -4.997980e+02
   1.398485e+02  -4.066898e+02
   1.155174e+02  -1.163683e+02
   5.345329e+01   3.248234e+01
  -1.539356e+01  -1.109250e+02
   1.932950e+02  -1.412088e+02
   3.017851e+02   6.349006e+01
   1.789298e+02   3.001868e+02
  -7.875612e+01   2.723515e+02
  -2.639754e+02   3.038518e+01
  -2.013957e+02  -2.523761e+02
   3.409363e-01  -2.599714e+02
   2.817098e+02  -1.396450e+02
   3.682700e+02   2.000794e+02
   2.064124e+02   3.608844e+02
  -1.233970e+02   3.732636e+02
  -2.093949e+02   1.645126e+02
  -1.823486e+02   8.383890e+00
  -1.155545e+02   3.693844e+01
  -2.191984e+02   5.590705e+01
  -4.149684e+02  -5.385786e+01
  -3.684129e+02  -2.328281e+02
  -3.226202e+01  -4.409838e+02
   3.384726e+02  -4.010172e+02
   4.928269e+02  -2.013520e+02
   3.682860e+02   9.677960e+01
   4.788043e+01   3.145545e+02
  -1.344632e+02   3.019539e+02
  -9.084929e+01   8.587411e+01
   1.030630e+02  -1.435712e+02
   2.002884e+02   2.773870e+00
   6.748724e+01   2.326425e+02
  -1.939783e+02   2.035926e+02
  -1.688871e+02  -5.519684e+01
   2.249511e+01  -1.993481e+02
   1.977447e+02  -1.549748e+01
   1.705843e+02   2.642003e+02
   1.254481e+01   3.519011e+02
  -2.022752e+02   2.227269e+02
  -3.048917e+02  -7.508926e+01
  -3.057857e+02  -2.550550e+02
  -1.048667e+02  -2.521647e+02
   1.218086e+02  -2.098767e+02
   1.675907e+02  -1.203673e+01
   5.905540e+01   1.370622e+01
  -8.606336e+01  -2.127368e+01
  -3.801580e+01  -8.632061e+01
   1.174929e+02  -1.067938e+02
   2.292286e+02   6.476229e+01
   6.659122e+01   8.612028e+01
  -9.757987e+01   4.612505e+01
  -7.425073e+01  -8.904122e+01
   1.507212e+02  -8.657289e+01
   2.759667e+02  -1.864261e+01
   2.677237e+02   1.138404e+02
   8.279817e+01   2.671313e+02
  -1.672080e+02   2.853078e+02
  -2.940795e+02   1.731672e+02
  -1.796603e+02  -2.939389e+01
  -6.575479e+00  -1.257036e+02
   1.132815e+02   1.796388e+01
  -5.909777e+00   1.066665e+02
  -2.054288e+02   6.937720e+01
  -2.152305e+02  -1.073156e+02
  -9.587834e+01  -1.884580e+02
   8.430816e+01  -1.804209e+02
   1.600933e+02  -3.633816e+01
   3.638493e+01   3.198309e+01
  -9.550648e+00   2.165921e+01
  -6.482075e+01  -8.353855e+01
   8.114449e+01  -1.233143e+02
   1.557449e+02  -6.077373e+01
   2.186585e+02   1.270027e+02
   2.999026e+01   2.196074e+02
  -1.313707e+02   1.786371e+02
  -1.816097e+02   2.303501e+00
  -9.243343e+01  -1.519424e+02
   8.216448e+01  -1.068848e+02
   1.052802e+02  -3.267981e+01
   1.406658e+01   4.842146e+01
   1.813860e+01   4.320789e+00
   1.684458e+01   9.505658e+00
   7.933720e+01   1.344586e+01
   8.061493e+01   7.441732e+01
  -3.114447e+01   1.643366e+02
  -1.131979e+02   1.656871e+02
  -2.494317e+02   4.877747e+01
  -2.324421e+02  -1.337891e+02
  -3.889621e+01  -2.277746e+02
   1.104814e+02  -1.772877e+02
   1.282614e+02  -4.664275e+01
   6.132561e+01   6.828867e+01
   3.795364e+01   4.229988e+01
   6.570924e+01  -8.721441e+00
   1.030351e+02  -3.358899e+01
   5.219872e+01   2.717151e+01
  -4.613817e+01   9.729538e+01
  -7.789747e+01   9.215879e+01
  -6.436205e+01  -2.328076e+01
   2.546709e+01  -1.240923e+02
   1.574214e+02  -9.196935e+01
   1.761926e+02   5.004739e+01
   1.021626e+02   2.086808e+02
  -3.248568e+01   2.276697e+02
  -2.262612e+02   8.725049e+01
  -2.463203e+02  -1.356306e+02
  -1.154900e+02  -1.480245e+02
   3.822598e+01  -1.348532e+02
   1.069695e+02  -8.057153e+01
   1.012535e+02  -5.083346e+01
   4.029189e+01  -1.167488e+02
   7.917123e+01  -4.963553e+01
   1.260950e+02   1.939350e+00
   1.118044e+02   1.315760e+02
  -1.497463e+01   2.165327e+02
  -7.829290e+01   2.085982e+02
  -1.894825e+02   3.858010e+01
  -1.310785e+02  -1.066124e+02
  -3.121125e+01  -1.875315e+02
   6.556989e+01  -7.498511e+01
   7.706292e+01  -1.144708e+01
  -1.385105e+01   3.600444e+01
  -1.184541e+01   3.475758e+01
   1.564854e+01  -2.547195e+01
   8.596558e+01   2.318202e+01
   9.213879e+01   8.933750e+00
  -5.893303e+01   3.410785e+01
  -1.731416e+02  -3.416023e+01
  -1.161885e+02  -1.887572e+01
  -2.175100e+01  -5.000418e+01
   1.260950e+02  -1.007859e+02
   1.586823e+02  -4.900864e+01
   1.703167e+01   2.608816e+01
  -8.179432e+01   5.791411e+01
  -9.791416e+01  -1.034442e+01
  -2.399365e+01  -5.363567e+01
   4.476906e+01  -8.061684e+01
   2.645141e+01  -2.102522e+01
   3.488814e+01   3.512443e+01
   4.837739e+01   8.541812e+01
   4.999948e+01   2.232718e+01
   5.172068e+01   2.153073e+01
  -3.316926e+00   9.946269e+01
  -1.905632e+01   1.323849e+02
  -1.387287e+02   1.312281e+02
  -1.874580e+02   2.478744e+01
  -1.321314e+02  -9.808616e+01
   3.190151e+01  -1.177412e+02
   5.879930e+01  -3.952113e+01
   3.175848e+01   1.632509e+01
  -8.046047e+01   2.231458e+01
  -1.092969e+02  -8.755978e+00
  -7.545975e+01  -1.033632e+02
   9.130206e+01  -1.462177e+02
   1.981502e+02  -6.713703e+01
   1.686068e+02   1.990751e+01
   7.568642e+01   1.350798e+02
  -6.701933e+01   5.437037e+01
  -8.445965e+01   1.895737e+01
   2.542854e+01  -2.869678e+01
   1.020006e+02   4.259183e+01
   2.494298e+01   1.419574e+02
  -1.040750e+02   1.378352e+02
  -1.714866e+02   4.084006e+01
  -1.081384e+02  -9.058020e+01
  -4.473099e+01  -1.774689e+02
   6.882420e+01  -1.964109e+02
   8.411508e+01   2.175972e+01
   6.580883e+01   1.386475e+02
  -1.353854e+01   8.890732e+01
  -4.577008e+01   9.036217e+00
  -4.689644e+01  -3.081764e+01
   5.887891e-01  -5.956720e-01
  -6.881318e+00   5.429644e+01
   7.262864e+00  -1.833349e+01
  -4.009034e+01  -1.168929e+02
  -4.541950e+01  -1.124594e+02
   3.876102e+01   1.050341e+00
   1.176183e+02   2.409700e+01
   1.219982e+02   8.331243e+01
   5.867185e+01   5.765523e+01
  -1.332440e+02   2.985740e+01
  -7.104423e+01   3.951653e+01
  -2.819431e-01  -3.536031e+00
   3.045023e+01  -1.543269e+01
   2.253395e+01   7.138694e+00
  -3.033520e+01  -1.096461e+01
  -2.410582e+01   8.339198e+00
   1.064078e+02  -1.297400e+01
   8.321817e+01   1.720802e+01
  -1.996790e+01   1.025359e+02
  -1.402835e+02   1.145221e+02
  -1.678174e+02   1.038952e+02
  -1.356840e+02  -5.029017e+01
  -4.011408e+01  -1.448094e+02
   9.762769e+01  -1.494078e+02
   1.090096e+02  -8.191477e+01
   8.051908e+01   6.439984e+00
   2.180390e+01   2.978038e+01
   8.952869e-01  -9.649747e+00
   4.687625e+01  -3.782497e+01
  -6.630240e+00   6.095436e+01
   2.356770e+01   1.089407e+02
   5.621684e+00   9.114415e+01
  -9.564164e+01  -7.691440e+01
  -4.017024e+01  -1.064092e+02
   3.537565e+01  -1.166751e+02
   8.972214e+01  -2.707753e+01
   1.225410e+02   7.655472e+01
   4.533214e+01   8.735225e+01
  -6.844861e+01   5.269602e+01
  -7.489886e+01  -2.199186e+01
  -6.852534e+00  -1.904887e+01
   4.559120e+01  -4.559608e+01
   2.005536e+01  -5.462399e+01
  -3.683862e+01  -3.853557e+00
  -5.464101e+01  -6.000748e+00
   6.023829e+00  -2.842442e+01
   1.053816e+02  -5.428627e+01
   1.178943e+02  -9.357553e+01
   3.922620e+01  -2.897053e+00
  -1.793671e+01   9.878777e+01
  -6.374393e+01   7.592675e+01
  -1.699957e+01  -1.409208e+01
  -1.898140e+01  -4.327412e+01
   3.424813e+01  -5.939752e+01
   6.975399e+01   1.017844e+01
   1.074813e+01   8.570025e+01
  -2.608302e+01   5.131352e+01
   6.800683e+00   1.408109e+01
  -4.214846e+01  -4.339515e+01
  -2.769130e+01  -1.067979e+01
  -1.074811e+01   8.520382e+00
   4.389354e+00  -2.677115e-01
   2.872845e+01  -1.321344e+01
   2.129829e+01  -6.029029e+01
   2.425864e+01  -1.375582e+01
   4.287148e+01   3.442422e+01
   1.556454e+00   8.181461e+01
  -6.646324e+01   8.347494e+00
  -5.141816e+01  -7.490315e+01
  -4.240008e+01  -7.697538e+01
   4.614889e+01  -2.778149e+01
   9.332962e+01   3.673149e+01
   4.475641e+01   2.669207e+01
  -2.959466e+01   9.002407e+01
  -4.966964e+01   2.565824e+01
  -3.445969e+01  -2.808157e+01
   5.001818e+01  -1.859345e+01
  -3.615151e+00   2.658668e+01
  -1.015527e+01   1.509673e+01
  -7.471843e+01   8.312146e+01
