
 $NMID
 id='ANONYMOUS ', fmtdat='(2E16.6)'
 volume=1.0
 tramp=1.0
 $END
  -3.997261e+03  -3.152050e+01
  -1.897864e+03  -2.356709e+03
   5.206761e+02  -2.222917e+03
   1.554340e+03  -6.071649e+02
   6.131843e+02   5.358632e+02
  -5.664473e+02   4.150255e+02
  -7.619328e+02  -2.662880e+02
   9.528028e+01  -8.853133e+02
   8.743337e+02  -6.687261e+02
   8.938368e+02   2.128723e+02
   3.787234e+02   7.874276e+02
  -1.273201e+02   7.025605e+02
  -6.219247e+02   1.386658e+02
  -3.447577e+02  -6.544411e+02
   2.797047e+02  -6.003647e+02
   5.111084e+02   4.612584e+01
   2.047046e+02   6.199153e+02
  -3.032857e+02   5.218151e+02
  -5.217396e+02   7.192511e+01
  -3.170261e+02  -3.778774e+02
  -2.274182e+01  -3.418319e+02
   2.089255e+02  -2.019251e+02
   1.399850e+02  -9.591986e+00
  -6.779248e+01   5.184292e+01
  -2.877954e+02  -1.074954e+02
  -1.693626e+02  -3.618450e+02
   3.517827e+02  -3.132444e+02
   7.591995e+02   7.595794e+01
   3.345923e+02   4.890410e+02
  -4.154013e+02   4.422583e+02
  -6.708366e+02  -2.854798e+00
  -3.099334e+02  -4.318722e+02
   2.224304e+02  -3.710152e+02
   5.492070e+02  -2.056620e+02
   3.393887e+02   2.331784e+02
   7.029306e+01   3.854012e+02
  -1.870329e+02   2.357920e+02
  -1.707604e+02  -2.478399e+02
   5.731913e+01  -3.667912e+02
   3.447307e+02   1.450697e+01
   2.074389e+02   5.880526e+02
  -3.583204e+02   5.575912e+02
  -5.053039e+02   2.252310e+01
  -3.017113e+02  -4.789656e+02
   2.465549e+02  -2.148274e+02
   2.643354e+02   2.645124e+02
  -6.474024e+01   4.516577e+02
  -4.614335e+02   1.082325e+02
  -5.474958e+02  -3.525344e+02
  -1.629615e+02  -4.418665e+02
   3.551685e+02  -3.641430e+02
   5.095381e+02   5.013163e+01
   2.824722e+02   3.165701e+02
  -2.202077e+02   3.433806e+02
  -3.957636e+02   4.142272e+01
  -1.533663e+02  -1.832903e+02
   6.163996e+01  -9.335364e+01
   1.315615e+02   1.851094e+02
  -1.094977e+02   1.210097e+02
  -2.668853e+02  -8.757876e+01
  -1.326931e+02  -3.211320e+02
   1.728995e+02  -1.930172e+02
   2.618211e+02  -6.026382e+01
   1.567623e+02   9.985983e+01
  -5.387266e+01   1.384047e+02
  -1.495643e+02   2.629010e+02
  -2.853597e+02   1.482534e+02
  -2.085024e+02  -1.366491e+02
  -5.249877e+01  -3.801175e+02
   1.359552e+02  -3.088713e+02
   9.598593e+01  -5.187304e+01
   2.396938e+01  -2.515584e+01
   2.252410e+01  -9.613818e+01
   1.322693e+02  -8.005955e+01
   2.532984e+02   6.313899e+01
   1.164405e+02   2.229175e+02
  -1.387922e+01   2.446691e+02
  -2.237412e+02  -1.756570e+01
  -1.671265e+02  -1.884989e+02
   3.845427e+01  -2.703740e+02
   2.078806e+02  -7.599270e+01
   3.325373e+02   1.643809e+02
   1.459301e+02   3.099060e+02
  -8.822629e+01   2.437313e+02
  -1.871858e+02   1.152619e+02
  -1.033890e+02   6.264439e+00
  -6.260389e+01   1.381118e+01
  -2.013348e+02   6.670140e+01
  -3.688585e+02  -8.590080e+01
  -2.679613e+02  -2.517887e+02
   6.234929e+00  -3.686552e+02
   3.378918e+02  -3.205285e+02
   4.144035e+02  -1.068547e+02
   2.799725e+02   5.103479e+01
   4.915833e+01   2.598893e+02
  -1.101031e+02   1.999710e+02
  -1.078977e+02   4.746001e+01
   9.429212e+01  -1.300238e+02
   1.735688e+02   9.040141e+00
   5.263063e+01   1.690025e+02
  -1.580485e+02   1.675699e+02
  -2.097006e+02  -8.240968e+01
   3.826712e+01  -1.699505e+02
   1.463836e+02  -3.691409e+00
   1.332999e+02   2.047229e+02
  -1.814842e+01   2.588998e+02
  -2.270321e+02   1.229624e+02
  -2.248619e+02  -4.498628e+01
  -2.009008e+02  -2.113428e+02
  -1.015065e+02  -2.527244e+02
   1.369450e+02  -1.395888e+02
   1.988934e+02   7.431711e+00
   6.544655e+01   5.262412e+01
  -3.302078e+01  -4.095971e+01
  -1.349512e+01  -8.660753e+01
   1.221662e+02  -1.026668e+02
   1.545288e+02  -7.432366e+00
   5.442737e+01   5.946149e+01
  -3.780338e+01   3.691554e+00
  -7.672988e+01  -3.255293e+01
   1.110099e+02  -4.608109e+01
   2.416063e+02  -3.211077e+01
   1.695375e+02   1.477855e+02
   4.084918e+01   2.025163e+02
  -1.527674e+02   2.013159e+02
  -2.599537e+02   1.058965e+02
  -1.206721e+02  -6.186579e+01
   1.515927e+01  -1.169749e+02
   9.116639e+01  -2.564603e+01
  -3.021873e+01   6.041140e+01
  -1.820550e+02   5.841719e+01
  -1.640888e+02  -1.089301e+02
  -3.570073e+01  -1.024753e+02
   7.822370e+01  -1.388026e+02
   8.779192e+01  -4.547627e+01
   7.605527e+01   5.111199e+01
  -2.407978e+01  -6.348799e+01
  -3.283779e+01  -5.868185e+01
   5.279580e+01  -4.578262e+01
   1.854236e+02  -1.344313e+01
   1.405526e+02   8.074369e+01
   3.853001e+01   1.610204e+02
  -1.273832e+02   1.559656e+02
  -1.307042e+02  -1.416713e+01
  -5.671237e+01  -6.516004e+01
   5.996096e+01  -9.605943e+01
   4.641766e+01   5.280721e+00
   1.174661e+01   1.491764e+00
  -3.954989e+01   2.020792e+01
   2.619012e+00   2.484844e+01
   2.703435e+01   2.650957e+01
   5.609530e+01   4.582577e+01
  -4.005079e+00   1.126843e+02
  -1.143705e+02   1.382017e+02
  -2.026121e+02   1.126179e+01
  -1.464861e+02  -1.230738e+02
  -5.297016e+01  -1.933765e+02
   8.383624e+01  -1.491365e+02
   1.037326e+02  -2.177602e+00
   3.670289e+01   4.988158e+01
   5.598548e+01   3.214505e+01
   5.454178e+01  -1.478461e+01
   7.822007e+01   1.442234e+01
   4.610523e+01   3.471307e+01
  -6.006179e+01   5.987578e+01
  -7.371680e+01   5.107311e+01
  -9.686457e+01  -4.618935e+01
   2.844562e+01  -9.725067e+01
   8.391188e+01  -6.039528e+01
   1.429718e+02   1.959358e+01
   8.251419e+01   1.821234e+02
  -1.024091e+02   1.475624e+02
  -2.266891e+02   8.392093e+01
  -2.362448e+02  -1.098026e+02
  -4.718022e+01  -1.720946e+02
   9.599532e+00  -1.364767e+02
   9.449113e+01  -3.571683e+01
   5.777214e+01  -5.256190e+01
   8.973882e+01  -5.456490e+01
   1.047652e+02  -4.239026e+01
   1.282037e+02   2.363061e+01
   7.101622e+01   1.332355e+02
   1.082057e+01   1.760266e+02
  -8.673330e+01   1.276845e+02
  -1.662861e+02  -1.858562e+01
  -1.249044e+02  -9.147288e+01
  -2.429886e+00  -1.555070e+02
   7.778156e+01  -1.035371e+02
   7.269136e+01  -1.196795e+00
   1.064333e+01   3.472373e+01
  -2.582111e+00   5.251286e+01
   3.417775e+01  -1.187726e+01
   4.499743e+01   6.832042e+01
   5.248002e+01   5.784606e+01
  -3.852607e+01   3.982245e+01
  -8.664311e+01  -1.993511e+01
  -1.224910e+02  -6.898567e+01
  -7.322436e+00  -7.223535e+01
   8.063688e+01  -3.562173e+01
   8.753731e+01  -3.542695e+01
   6.056175e+01   8.154699e+01
  -4.983953e+01   1.676057e+01
  -5.417907e+01  -2.881448e+01
  -3.014899e+01  -9.788898e+01
   6.135961e+01  -5.254230e+01
   4.684911e+01   2.546138e+01
   4.761285e+01   3.536718e+01
   2.297564e+01   3.066040e+01
   3.096583e+01  -4.228333e+00
   6.909972e+01   5.777225e+00
   2.572498e+01   8.632004e+01
  -4.132075e+01   1.563296e+02
  -8.562892e+01   1.322127e+02
  -1.397928e+02   4.738945e+01
  -1.449005e+02  -8.531238e+01
  -5.436423e+01  -6.360218e+01
   6.167932e+01  -2.230965e+01
   4.415164e+01   9.932742e+00
  -6.343540e+01  -3.197961e-01
  -1.018692e+02  -5.174336e+01
  -4.669140e+01  -1.083395e+02
   6.035654e+01  -1.353866e+02
   1.597429e+02  -3.292968e+01
   1.252731e+02   1.755379e+01
   4.276821e+01   7.118556e+01
  -5.752122e+01   4.328542e+01
  -3.651678e+01  -3.745243e+01
   3.496693e+01   4.294574e+01
   8.977824e+01   6.996355e+00
   3.794380e+00   1.409676e+02
  -5.501951e+01   7.446720e+01
  -1.531180e+02   7.022394e+01
  -7.307700e+01  -7.873384e+01
  -7.531499e+00  -1.977690e+02
   1.113007e+02  -1.279739e+02
   1.310170e+02   1.081799e+01
   8.335500e+01   8.239706e+01
   2.200217e+01   1.311090e+02
  -1.591297e+01   2.674578e+01
  -2.665194e+01  -9.367976e+00
   1.213159e+00   4.181874e+00
   2.133830e+01  -1.658407e+01
  -2.502334e+01  -7.114115e+00
  -5.835813e+01  -5.760859e+01
  -4.461551e+01  -1.114670e+02
   5.518225e+01  -3.053479e+01
   1.066657e+02   3.853130e+01
   7.402443e+01   4.465410e+01
   4.123771e+01   4.975673e+01
  -7.477982e+01   1.814749e+01
  -9.303444e+01   1.260446e+01
  -2.214036e+01  -8.546563e+00
   1.773145e+01   8.669863e-01
   4.481560e+01  -1.781465e+01
  -1.701658e+01   9.969554e+00
  -1.320194e+01   3.488652e+01
   7.128053e+01  -2.629571e+01
   6.138481e+01   3.766194e+01
   7.216937e+00   7.310634e+01
  -9.064342e+01   1.031840e+02
  -1.637678e+02   6.363184e+01
  -8.291037e+01  -4.342067e+01
  -3.416481e+01  -1.401902e+02
   1.014454e+02  -1.206653e+02
   8.740144e+01  -3.400073e+01
   7.070214e+01   3.319018e+01
   1.568885e+01  -8.887920e-01
  -2.684071e+01  -2.056145e-01
  -1.393230e+01  -1.106922e+01
   1.520696e+01   8.648104e+00
   1.031426e+01   6.060969e+01
  -1.508181e+01   4.629628e+01
  -6.630385e+01  -2.574023e+01
  -4.580658e+01  -7.133187e+01
   1.351445e+01  -9.388539e+01
   5.612467e+01  -1.670267e+01
   6.242115e+01   3.540289e+01
   3.610975e+01   6.004033e+01
  -4.316181e+01   2.492445e+01
  -9.759395e+01  -4.173683e+01
  -3.434212e+01  -3.864736e+01
   1.144518e+01  -2.704764e+01
   5.533145e+01  -4.552945e+01
  -1.534450e+01  -3.490980e+01
  -4.776807e+01   6.002696e+00
  -5.131527e+00  -8.504156e+00
   6.719467e+01  -4.231286e+01
   9.108218e+01  -5.591481e+01
   6.080106e+01   4.918043e+01
  -1.159181e+01   7.823225e+01
  -5.003060e+01   5.501756e+01
  -2.524795e+01  -1.020321e+01
  -8.201107e+00  -2.638745e+01
   3.125908e+01  -1.060234e+01
   1.595380e+01   1.865383e+01
   3.500573e+01   7.790271e+00
  -6.359578e+00   1.239791e+01
  -4.800115e+01  -1.022318e+01
  -4.578139e+01  -1.242404e+00
  -2.486086e+01  -1.169411e+00
  -4.043813e+00   4.018650e+00
   7.524265e+00  -1.750893e+01
   2.249591e+01  -5.259570e+01
   1.583862e+01  -3.897629e+01
   5.499349e+01   2.890888e+01
   2.460840e+01   2.229927e+01
   3.361348e+00   2.771514e+01
  -1.094259e+01   3.564451e+01
  -1.521998e+01  -7.690635e+01
  -2.851944e+01  -4.063615e+01
   1.506991e+01  -3.597590e+01
   6.131228e+01  -1.125317e+01
   4.096895e+01   3.664753e+01
  -1.821666e+01   1.470700e+01
  -2.998951e+01  -2.905525e+01
  -4.803819e+00   3.021103e+01
   5.281168e-01  -4.539310e+01
   2.016771e+01   5.713215e+01
  -5.623918e+01   2.712865e+01
  -6.310314e+01   1.861177e+01
