
 $NMID
 id='ANONYMOUS ', fmtdat='(2E16.6)'
 volume=1.0
 tramp=1.0
 $END
   4.138687e+03   1.401656e+02
   1.949997e+03   2.430675e+03
  -5.913300e+02   2.352967e+03
  -1.773014e+03   6.192872e+02
  -7.629022e+02  -6.177395e+02
   5.750818e+02  -4.668054e+02
   8.267348e+02   3.438845e+02
  -5.232526e+01   8.452664e+02
  -9.100752e+02   7.041420e+02
  -8.863067e+02  -2.188607e+02
  -3.797587e+02  -8.637877e+02
   2.158802e+02  -7.498780e+02
   6.072007e+02  -1.490066e+02
   3.249757e+02   6.830566e+02
  -3.128208e+02   6.158952e+02
  -5.159039e+02  -1.882680e+01
  -2.271825e+02  -6.287596e+02
   3.275865e+02  -5.650648e+02
   4.943656e+02  -8.467842e+01
   3.270841e+02   3.528113e+02
   1.338927e+01   3.438083e+02
  -2.459375e+02   2.058222e+02
  -1.924109e+02  -3.680301e+01
   1.001733e+02  -6.525357e+01
   2.938971e+02   4.267054e+01
   2.006907e+02   3.837751e+02
  -3.264667e+02   3.262483e+02
  -8.226019e+02  -4.794973e+01
  -3.330274e+02  -4.723837e+02
   3.693593e+02  -4.527085e+02
   6.948911e+02   4.734415e+01
   2.753543e+02   4.627747e+02
  -2.392022e+02   4.075141e+02
  -5.926955e+02   2.039409e+02
  -3.451138e+02  -2.158085e+02
  -6.610228e+01  -4.532401e+02
   1.492680e+02  -3.003793e+02
   1.805452e+02   2.385060e+02
  -1.562666e+02   3.908112e+02
  -3.605943e+02   2.824121e+01
  -2.235613e+02  -6.414748e+02
   3.422040e+02  -5.989116e+02
   4.926865e+02  -6.303234e+01
   2.969504e+02   4.508636e+02
  -2.220347e+02   3.054518e+02
  -3.160664e+02  -2.642405e+02
   8.812498e+01  -5.040234e+02
   4.843988e+02  -1.009685e+02
   5.641360e+02   4.108587e+02
   1.426899e+02   4.879540e+02
  -3.902368e+02   3.390087e+02
  -5.432545e+02  -6.491893e+01
  -3.258339e+02  -2.937525e+02
   2.314761e+02  -3.507710e+02
   3.951793e+02   1.070141e+01
   2.167007e+02   1.808884e+02
  -9.344790e+01   1.202275e+02
  -1.392150e+02  -1.582909e+02
   1.864057e+02  -1.239280e+02
   3.146586e+02   8.693189e+01
   1.544361e+02   2.874381e+02
  -2.069396e+02   2.393454e+02
  -2.786021e+02   1.037790e+02
  -1.529976e+02  -9.023025e+01
   4.166058e+01  -1.699643e+02
   1.766266e+02  -2.515073e+02
   3.616095e+02  -2.044693e+02
   2.735644e+02   1.502179e+02
   7.344485e+01   3.344384e+02
  -1.528504e+02   3.181526e+02
  -1.369269e+02   8.065758e+01
  -7.610572e+00   9.409095e+00
  -2.031921e+01   9.963745e+01
  -1.718259e+02   1.166052e+02
  -2.339184e+02  -3.233534e+01
  -1.569135e+02  -2.321941e+02
   4.763945e+01  -2.592311e+02
   2.088540e+02  -4.327041e+01
   1.322499e+02   1.893942e+02
  -4.227045e+01   2.406427e+02
  -2.137171e+02   6.331152e+01
  -3.280747e+02  -1.284213e+02
  -1.280339e+02  -3.033745e+02
   9.060960e+01  -2.516323e+02
   2.476467e+02  -1.288064e+02
   1.507382e+02   2.895676e+01
   5.990725e+01  -7.177182e+00
   1.884456e+02  -9.481703e+01
   3.682785e+02   2.763416e+01
   2.779765e+02   2.545572e+02
  -4.006768e+01   3.874644e+02
  -3.080211e+02   3.227153e+02
  -4.816655e+02   8.212236e+01
  -2.886095e+02  -8.996018e+01
  -5.395904e+01  -2.538567e+02
   1.144161e+02  -2.188593e+02
   1.002492e+02  -1.928863e+01
  -1.053494e+02   1.258198e+02
  -1.863470e+02  -2.906627e+01
  -1.387055e+01  -2.086899e+02
   1.153091e+02  -2.125595e+02
   1.290309e+02   6.032461e+01
  -4.409102e+01   1.552232e+02
  -1.522793e+02   2.481068e+01
  -1.402416e+02  -1.942800e+02
   3.686022e+01  -3.064973e+02
   2.238972e+02  -1.238052e+02
   2.638283e+02   2.067569e+01
   2.693450e+02   2.114877e+02
   8.186828e+01   2.617444e+02
  -1.293109e+02   1.663385e+02
  -1.468267e+02   2.975535e+01
  -3.598419e+01  -3.161464e+01
   6.736231e+01   5.160346e+01
   4.602732e+01   9.256356e+01
  -1.007654e+02   1.342426e+02
  -1.391143e+02  -4.625476e+01
  -4.094445e+01  -6.975432e+01
   2.698888e+01  -3.725961e+01
   4.017318e+01   6.332924e+01
  -9.116455e+01   6.318126e+01
  -2.019567e+02  -2.051414e+01
  -2.122743e+02  -1.461939e+02
  -2.523818e+01  -2.143462e+02
   1.438744e+02  -2.211261e+02
   2.194044e+02  -8.815875e+01
   1.600064e+02   4.849794e+01
  -1.763468e+01   7.227055e+01
  -9.420350e+01   4.092160e+01
   3.853183e+01  -1.231629e+02
   1.560468e+02  -5.943917e+01
   1.620010e+02   8.069638e+01
   4.582997e+01   1.662502e+02
  -1.108541e+02   1.314711e+02
  -1.313941e+02   5.663360e+00
  -6.248830e+01  -4.638027e+01
   2.560007e+01  -2.082930e+00
   2.058701e+01   6.279200e+01
  -6.744949e+01   1.251931e+02
  -2.067158e+02   4.831095e+00
  -1.453790e+02  -1.154833e+02
  -1.191555e+01  -1.887711e+02
   1.516441e+02  -1.084913e+02
   1.758469e+02  -5.313674e+00
   3.569488e+01   1.139575e+02
  -5.268906e+01   9.940015e+01
  -8.609235e+01   3.915557e+01
  -1.738117e+00   1.058004e+01
   2.214919e+01  -1.181889e+01
   2.320705e+01   1.661859e+01
  -8.017996e+01  -2.213480e+01
  -5.680389e+01  -6.429846e+01
   5.262664e-01  -1.038510e+02
   8.549236e+01  -1.394667e+02
   2.335054e+02   1.970930e+01
   1.588727e+02   1.258793e+02
   3.368228e+01   2.158991e+02
  -1.085593e+02   1.100722e+02
  -1.077581e+02   3.122582e+01
  -6.266662e+01  -6.267784e+01
  -1.798626e+01  -8.555536e+01
  -5.109967e+01   2.447919e+01
  -7.857322e+01   2.736486e+01
  -1.900183e+01  -4.465984e+01
   6.167246e+01  -6.162924e+01
   8.637617e+01  -5.693576e+01
   1.033739e+02   2.207609e+01
  -3.806855e+01   1.034034e+02
  -1.250351e+02   6.783770e+01
  -1.427459e+02  -8.776361e+01
  -8.341739e+01  -1.577464e+02
   4.392058e+01  -2.141557e+02
   2.026416e+02  -8.983008e+01
   1.998369e+02   6.720808e+01
   4.241937e+01   1.422964e+02
  -3.680771e+01   9.322574e+01
  -8.106578e+01   4.698921e+01
  -3.555403e+01   7.796890e+01
  -6.944144e+01   6.868968e+01
  -8.842261e+01   5.811137e+01
  -1.141719e+02  -4.448819e+01
  -9.058007e+01  -1.416533e+02
   2.052696e+01  -2.043601e+02
   8.823979e+01  -1.574437e+02
   1.908398e+02  -2.686000e+00
   7.672988e+01   1.413296e+02
  -3.090462e+01   1.785941e+02
  -8.269545e+01   8.431004e+01
  -4.384400e+01  -3.973991e+00
  -1.569391e+01  -3.559074e+01
  -8.416306e+00  -4.524712e+00
  -8.118973e+01   1.848480e+01
  -7.295493e+01  -1.445450e+01
  -3.330929e+01  -1.112764e+01
   6.079520e+01  -5.678039e+00
   1.514588e+02   1.875745e+01
   1.205652e+02   2.148891e+01
  -5.367662e+00   6.704303e+01
  -8.504463e+01   8.070253e+01
  -1.438440e+02  -2.722197e+01
  -3.946369e+01  -4.299195e+01
   3.480876e+01  -6.663867e+01
   5.486871e+01  -4.879064e+00
   2.836837e+01   3.828787e+01
  -5.020851e+01   5.257185e+01
  -3.738697e+01  -2.756626e+01
  -3.838106e+01  -6.834234e+01
  -2.220374e+01  -6.518549e+01
  -5.671958e+01  -3.568865e+01
  -7.695801e+01  -8.510378e+00
  -2.669057e+01  -5.512994e+01
   3.812362e+01  -1.156810e+02
   1.225041e+02  -1.391542e+02
   1.176901e+02  -3.424393e+01
   1.146532e+02   8.243407e+01
   7.173941e+00   7.653692e+01
  -8.725623e+01   3.577418e+01
  -3.983108e+01  -1.832938e+01
   1.865601e+01   4.002580e-02
   1.101704e+02   3.592828e+01
   7.938983e+01   1.355536e+02
  -8.018816e+01   6.134748e+01
  -1.505392e+02   1.282422e+01
  -1.355239e+02  -3.496376e+01
  -3.519268e+01  -7.986092e+01
   7.553238e+01  -3.431095e+01
   2.524305e+01   2.051049e+01
  -3.153513e+01   1.182608e+01
  -5.430205e+01  -1.663796e+01
  -1.235531e+01  -1.016167e+02
   5.046490e+01  -1.270857e+02
   1.325278e+02  -4.925537e+01
   6.058820e+01   9.300160e+01
  -7.160745e+00   1.790934e+02
  -8.054822e+01   1.234996e+02
  -1.342567e+02  -6.300939e+01
  -5.384674e+01  -1.286194e+02
  -2.099271e+00  -6.714029e+01
   7.766962e+01  -5.123837e+01
   3.570364e+01   7.766197e+00
   3.434146e+01  -2.303860e+01
  -4.499406e+01   1.461172e+00
   4.223873e+01   1.590718e+01
   3.678442e+01   9.703834e+01
   2.148245e+01   1.376620e+02
  -3.060604e+01   8.794518e+01
  -1.187086e+02  -5.999766e+01
  -1.029698e+02  -8.238208e+01
  -3.839196e+01  -6.441171e+01
   8.009418e+01  -4.783179e+00
   9.423294e+01  -2.362615e+01
   2.782128e+01   2.949232e+01
  -2.884332e+01   2.360724e+01
   1.808248e+01   5.299554e+00
   4.763884e+01   3.266844e+01
   1.538947e+01  -3.061931e+01
  -6.291917e+01  -5.267061e+00
  -9.151113e+01  -8.774876e+00
   1.431055e+00  -5.753647e+01
   1.158626e+02  -6.809996e+01
   1.705485e+02  -5.021310e+01
   1.211137e+02   1.097356e+02
   5.640889e+01   1.139776e+02
  -1.059258e+02   1.340700e+02
  -8.875968e+01   1.980158e+01
  -5.892753e+01  -3.159855e+01
  -5.208373e+01  -6.180105e+00
  -2.047174e+01   7.440149e-01
  -1.055902e+01   5.349847e+01
  -3.088348e+01  -3.583208e+01
   2.323352e+01  -1.091442e+02
  -1.601214e+01  -1.086446e+02
   1.087525e+02   1.387481e+01
   8.062841e+01   6.195374e+01
  -1.379960e+01   9.048913e+01
  -4.452978e+01  -5.452347e+00
  -1.028329e+02  -6.280924e+01
  -6.933336e+00  -9.142726e+01
   9.455948e+01  -4.482474e+01
   1.100273e+02   2.662689e+01
   3.357998e+01   5.929074e+01
  -7.560856e+01   5.629944e+01
   4.768775e+00   2.729195e+01
   9.760423e+00  -2.697244e+01
   6.696653e+01  -1.043818e+01
   4.640537e+01  -1.041879e+00
  -5.960338e+01   5.281300e+01
  -1.267273e+02   4.442300e+01
  -7.471447e+01   3.075688e+01
  -5.592300e+00  -8.703162e+01
   2.092207e+01  -6.090744e+01
   2.784090e+01   8.738211e+00
  -2.752919e+01   3.262561e+01
  -4.121786e+01   2.695704e+01
  -4.714160e+01  -2.743786e+00
  -1.542840e+01  -2.403876e+01
  -1.548390e+01  -3.198089e+01
   6.418600e+01   2.032411e+01
   3.229630e+01   3.014760e+01
   4.363086e+01   3.368184e+01
   9.505226e+00  -9.697886e+00
   9.090124e+00   3.137927e+01
  -3.574778e+01   3.154364e+00
   1.753497e+01   5.140745e+01
  -6.618171e+00  -1.837556e+01
  -6.689878e+01  -3.255017e+01
   5.539731e+00  -4.136391e+01
   7.590462e+01  -2.257049e+01
   5.857743e+01   3.575143e+01
  -2.376760e+01   6.474349e+01
  -1.551270e+01   4.226364e+00
  -7.944264e+01  -4.039843e+00
  -3.283140e+00  -4.232969e+01
   9.899851e+00  -8.045082e+00
   1.908844e+01  -2.380449e+01
   2.988114e+00   3.885727e+01
  -2.835445e+01  -8.281192e+00
  -1.349468e+01  -4.149061e+01
   3.156380e+01  -2.096437e+01
   9.905654e+01  -6.011909e+01
