
 $NMID
 id='ANONYMOUS ', fmtdat='(2E16.6)'
 volume=1.0
 tramp=1.0
 $END
  -3.696174e+03  -1.752777e+02
  -2.227813e+03  -2.357175e+03
   5.672018e+02  -2.285987e+03
   1.783950e+03  -9.198526e+02
   8.984996e+02   4.154396e+02
  -4.805086e+02   4.725138e+02
  -8.278649e+02  -3.468999e+02
  -2.145067e+02  -8.454356e+02
   7.727871e+02  -6.819309e+02
   8.010774e+02   7.211104e+01
   3.946365e+02   8.536827e+02
  -1.949605e+02   7.812177e+02
  -5.648374e+02   1.104337e+02
  -2.422894e+02  -6.752478e+02
   2.178747e+02  -6.440536e+02
   5.680669e+02   3.407156e+01
   1.948090e+02   6.394629e+02
  -3.023791e+02   5.426869e+02
  -4.960594e+02   6.403100e+01
  -3.139037e+02  -3.469816e+02
  -3.358451e+01  -3.354497e+02
   2.254332e+02  -1.613836e+02
   2.055101e+02  -6.758078e+01
  -8.942566e+01   1.016357e+02
  -3.542902e+02  -4.887069e+01
  -1.898062e+02  -3.260623e+02
   3.740524e+02  -2.976588e+02
   7.590337e+02   1.053067e+02
   3.092890e+02   4.876034e+02
  -3.028801e+02   4.782811e+02
  -6.287247e+02  -3.275508e+01
  -2.901212e+02  -3.896786e+02
   2.274395e+02  -3.809490e+02
   4.688614e+02  -1.386081e+02
   3.151555e+02   2.208429e+02
   3.792704e+01   3.629109e+02
  -2.169601e+02   2.132579e+02
  -1.928783e+02  -2.263334e+02
   1.284813e+02  -3.802807e+02
   3.825992e+02  -3.254886e+01
   1.548131e+02   6.179168e+02
  -2.722738e+02   6.497111e+02
  -4.777604e+02   2.768333e+01
  -2.695632e+02  -4.352000e+02
   2.372972e+02  -2.103691e+02
   3.245592e+02   2.294245e+02
  -7.544321e+01   5.113200e+02
  -4.406920e+02   1.254264e+02
  -5.015093e+02  -3.418013e+02
  -1.477432e+02  -5.201584e+02
   3.715034e+02  -2.678637e+02
   5.522508e+02   5.852550e+01
   3.576188e+02   3.579218e+02
  -1.516791e+02   2.956866e+02
  -4.097936e+02  -7.760024e+00
  -1.971449e+02  -1.656709e+02
   5.983405e+01  -1.076017e+02
   1.079097e+02   1.447218e+02
  -1.250714e+02   1.855954e+02
  -2.929710e+02  -7.017740e+01
  -1.003261e+02  -2.792700e+02
   1.822270e+02  -2.132191e+02
   3.154323e+02  -5.849151e+01
   1.829869e+02   8.794987e+01
  -4.743305e+01   1.786445e+02
  -1.918159e+02   2.832587e+02
  -2.721882e+02   1.818667e+02
  -1.830569e+02  -9.546171e+01
  -1.108394e+02  -3.650224e+02
   8.430008e+01  -3.516321e+02
   1.044787e+02  -7.584741e+01
  -2.029789e+00  -2.355377e+00
   4.966326e+01  -4.675147e+01
   1.517301e+02  -1.291549e+02
   2.423955e+02   7.135532e+01
   1.510930e+02   2.170171e+02
  -4.310676e+01   2.438153e+02
  -1.888658e+02  -7.689484e+00
  -1.450598e+02  -1.911043e+02
   1.821319e+01  -2.280304e+02
   2.444738e+02  -8.359488e+01
   2.940148e+02   1.641263e+02
   1.364914e+02   3.089958e+02
  -1.071305e+02   1.817792e+02
  -1.833791e+02   8.157975e+01
  -1.094347e+02  -3.175057e+01
  -8.630314e+01   1.596728e+01
  -1.951533e+02   6.673927e+01
  -3.291382e+02  -7.282534e+01
  -2.612965e+02  -2.664116e+02
  -6.328864e+00  -4.038926e+02
   3.333711e+02  -3.412732e+02
   3.915954e+02  -1.463992e+02
   3.090619e+02   4.287896e+01
   4.760274e+01   2.167261e+02
  -9.007049e+01   1.800914e+02
  -8.142742e+01   6.446709e+01
   1.166260e+02  -1.152779e+02
   1.683983e+02  -5.638306e+00
   5.909240e+01   1.990146e+02
  -1.553399e+02   1.121317e+02
  -1.579730e+02  -5.005278e+01
   4.419670e+01  -1.369376e+02
   1.812548e+02  -5.496051e+01
   1.414008e+02   2.150305e+02
  -1.859015e+01   3.114702e+02
  -2.465901e+02   1.589797e+02
  -2.082448e+02  -8.012521e+01
  -2.158943e+02  -2.430530e+02
  -1.026613e+02  -2.239911e+02
   1.168061e+02  -6.712236e+01
   1.508937e+02   8.177567e+00
   6.982712e+01   4.201615e+01
  -4.647057e+01  -3.514938e+01
  -3.034749e+01  -1.110242e+02
   7.742287e+01  -9.965161e+01
   1.528092e+02  -3.202820e+01
   1.224808e+02   9.029794e+01
  -3.855706e+01  -1.717332e+01
  -7.642678e+01  -7.079006e+01
   1.426324e+02  -6.558332e+01
   2.313477e+02  -2.666445e+01
   2.479652e+02   1.090693e+02
   5.698869e+01   2.184239e+02
  -1.284934e+02   2.148191e+02
  -2.387381e+02   6.279910e+01
  -1.521443e+02  -4.382971e+01
   4.460349e+01  -1.193839e+02
   7.042151e+01   1.923279e+01
  -1.920771e+01   5.489185e+01
  -1.599009e+02   5.720057e+01
  -1.980503e+02  -5.889831e+01
  -7.252507e+01  -1.648652e+02
   9.484082e+01  -1.184125e+02
   1.207407e+02  -1.761826e+01
   8.111050e+01   2.068349e+01
   9.623900e+00  -1.372872e+01
   1.578802e+01  -4.697120e+01
   3.016482e+01  -8.023628e+01
   1.613395e+02  -2.580156e+01
   1.842091e+02   1.216039e+02
   1.684451e+01   1.708676e+02
  -1.184706e+02   1.755344e+02
  -1.908389e+02   1.383391e+01
  -2.550621e+01  -9.416065e+01
   6.200033e+01  -7.092893e+01
   6.027683e+01  -2.502169e+01
   2.717723e+01   5.082726e+01
   8.582084e+00   2.002777e+01
   3.818333e+01   2.167877e+01
   3.589346e+01   2.307960e+01
   1.011277e+02   1.218272e+02
   7.245944e+01   1.266264e+02
  -8.023044e+01   1.181781e+02
  -2.321594e+02   5.340732e+00
  -1.857508e+02  -1.261081e+02
  -3.138731e+01  -2.487030e+02
   7.848284e+01  -1.066933e+02
   1.645872e+02   6.510698e+00
   3.932351e+01   7.446912e+01
   1.869177e+01   5.365106e+01
   4.011856e+01  -1.875501e+01
   5.448072e+01  -1.256814e+00
   2.838042e+01   6.127903e+01
  -9.809476e+01   8.313448e+01
  -8.531934e+01   4.742705e+01
  -3.880203e+01   9.423236e-01
   2.639785e+01  -1.084393e+02
   9.348558e+01  -6.314046e+01
   1.756433e+02   8.692057e+01
   6.232215e+01   1.473050e+02
  -9.752024e+01   2.144376e+02
  -2.157153e+02   7.787975e+01
  -2.138355e+02  -7.667322e+01
  -9.597432e+01  -1.510336e+02
   3.681782e+01  -1.005217e+02
   6.248748e+01  -5.440283e+01
   3.879641e+01  -1.955161e+01
   4.380415e+01  -7.805655e+01
   6.075495e+01  -5.188436e+01
   1.370569e+02  -5.804221e+00
   1.435691e+02   1.278834e+02
   4.680320e+01   2.132631e+02
  -9.665483e+01   1.466892e+02
  -1.386883e+02   2.262003e+01
  -1.155558e+02  -1.381582e+02
  -1.001430e+01  -1.465979e+02
   3.580464e+00  -6.243427e+01
   4.923545e+01  -1.601730e+01
   1.753633e+01   8.047314e+01
  -1.770212e+01   5.291187e+01
  -4.861730e-02  -4.658938e+00
   3.187452e+01   1.830166e+01
   2.657047e+01   4.393815e+01
  -5.116907e+01   1.163692e+01
  -1.287279e+02  -4.293561e+01
  -1.047479e+02  -3.817403e+01
  -4.036977e+01  -7.058187e+01
   1.116604e+02  -5.054099e+01
   1.327698e+02  -2.213478e+01
   4.571216e+01   9.855890e+01
  -3.483179e+01   5.100102e+01
  -4.811613e+01  -2.934896e+01
  -5.134528e+01  -9.794743e+01
   4.884442e+01  -6.954528e+01
   8.385745e+01  -1.188554e+01
   4.161523e+01   3.027399e+01
   3.074798e+01   4.455558e+00
   2.773624e+01  -1.846366e+00
   6.110912e+01   9.027538e+00
   1.743515e+01   4.810995e+01
  -5.632630e+01   1.189901e+02
  -8.273203e+01   1.707202e+02
  -1.489761e+02   4.037600e+01
  -1.053001e+02  -9.035907e+01
  -1.008739e+01  -1.455823e+02
   7.307335e+01   3.968901e+00
   7.373446e+01   6.999868e+00
  -4.614662e+01   3.343901e+01
  -1.310444e+02  -3.817207e+01
  -1.005044e+02  -8.185459e+01
   7.521938e+01  -9.980538e+01
   1.502189e+02  -5.645880e+01
   1.244060e+02   2.359164e+01
   5.362295e+01   6.894790e+01
  -4.225755e+01   7.283076e+01
  -3.734967e+01  -2.653407e+00
   7.006546e+01  -5.690519e+00
   7.885308e+01   2.641999e+01
   9.193710e+00   1.026179e+02
  -9.120283e+01   1.160304e+02
  -1.091584e+02   6.784536e+01
  -1.241930e+02  -5.403531e+01
  -5.042965e+01  -2.039543e+02
   1.219450e+02  -6.469550e+01
   4.749614e+01  -2.780297e+01
   4.820440e+01   9.502200e+01
  -2.333481e+01   7.618271e+01
  -3.499219e+01   1.877965e+01
  -5.593714e+01  -6.370634e+00
  -2.949924e+01   1.384566e+01
   3.616432e+00  -1.156938e+01
  -1.700052e+01   1.854816e+01
  -7.939694e+01  -9.393279e+01
  -1.447396e+01  -1.027782e+02
   6.817765e+01  -1.762002e+00
   9.952898e+01   4.594419e+01
   1.144077e+02   7.186594e+01
   4.158936e+00   3.290891e+01
  -8.728927e+01   1.848773e+01
  -9.158649e+01  -1.384354e+01
   1.276570e+01  -1.178190e+01
   8.605059e+00  -1.363226e+01
   2.681173e+01  -3.052017e+01
  -3.041785e+01  -6.233329e+00
   3.867489e+00  -2.845770e+01
   9.436198e+01  -7.202261e+00
   8.349500e+01   3.811616e+00
   3.311123e-02   5.891448e+01
  -1.313138e+02   1.028300e+02
  -1.513658e+02   4.902284e+01
  -1.212770e+02  -8.033388e+01
  -3.366761e+01  -1.596072e+02
   6.397693e+01  -9.948158e+01
   1.188622e+02  -3.808603e+01
   8.864830e+01   1.550084e+00
   1.799845e+01   1.578254e+01
   6.006575e+00   2.089765e+01
   1.451175e+00   3.408210e+01
   4.668558e+00  -2.264257e+01
   3.575507e+01   4.820745e+01
   6.789254e+00   6.028657e+01
  -4.654193e+01  -1.747857e+01
  -4.330898e+01  -9.422105e+01
   2.258058e+01  -1.008008e+02
   4.924340e+01  -6.806132e+00
   1.133346e+02   4.771236e+01
  -1.074627e+01   5.676884e+01
  -8.423296e+01   2.830146e+01
  -8.759379e+01   1.411710e+01
  -5.892870e+00  -1.192373e+01
   4.786581e+01  -3.095366e+01
   5.039934e+01  -4.651912e+00
  -1.986359e+01  -4.411393e+00
  -5.713329e+01   8.858660e+00
  -6.355983e+01  -1.297269e+01
   8.140060e+01  -4.617439e+01
   1.304320e+02  -5.496354e+01
   9.772085e+01   1.643846e+01
  -2.770541e+01   6.925532e+01
  -1.473827e+01   5.124411e+01
  -2.679065e+00  -2.075616e+00
   1.710004e+00  -1.035187e+02
   4.484310e+01  -1.017807e+01
   3.637699e+01  -2.985319e+00
   1.284798e+01   2.853059e+01
   1.493061e+00  -2.004415e+01
  -3.104254e+01  -1.950091e+01
  -8.583846e+01  -2.000423e+01
  -8.035596e+01   5.317207e+01
   6.484977e+01   1.831398e+00
   8.725487e+00  -1.119501e+00
  -3.700513e+00  -6.276741e+01
   8.863345e+00  -1.956903e-01
   1.235956e+01   2.488959e+01
   2.827926e+01   6.246254e+00
   6.083593e+00   7.076294e+01
  -5.673723e+00  -2.930917e+00
  -2.489774e+01  -5.390207e+01
  -5.441387e+00  -5.809238e+01
   1.566191e+01  -1.114277e+01
   1.098681e+02   1.189687e+01
   3.361954e+01   4.552959e+01
  -1.300401e+01  -2.765233e+01
  -4.267914e+01   2.661202e+01
   8.989310e+00  -2.197015e+01
  -6.787059e+00   5.142371e+00
   3.540888e+01   2.767136e+01
  -6.766116e+01   3.821331e+01
  -8.840982e+01   3.331703e+01
