
 $NMID
 id='ANONYMOUS ', fmtdat='(2E16.6)'
 volume=1.0
 tramp=1.0
 $END
   4.562651e+03  -2.722699e+02
   2.642081e+03   2.832566e+03
  -7.356796e+02   2.701384e+03
  -2.254644e+03   8.779628e+02
  -1.009461e+03  -6.579277e+02
   6.067905e+02  -5.368114e+02
   9.900428e+02   4.023544e+02
   4.746406e+01   1.052066e+03
  -8.731028e+02   9.051952e+02
  -9.683097e+02  -9.649060e+01
  -4.699029e+02  -9.665191e+02
   2.378585e+02  -9.567309e+02
   6.753882e+02  -1.265035e+02
   4.210939e+02   7.278782e+02
  -2.650669e+02   7.704143e+02
  -6.369674e+02  -5.187550e+01
  -3.032381e+02  -8.227153e+02
   3.444039e+02  -6.712516e+02
   6.050389e+02  -1.024983e+02
   3.746228e+02   3.422479e+02
  -2.444410e+00   4.208505e+02
  -2.536161e+02   2.102586e+02
  -2.180744e+02   7.824777e+00
   9.340214e+01  -5.638870e+01
   4.373064e+02   1.130407e+02
   2.253182e+02   3.659608e+02
  -4.461991e+02   3.644148e+02
  -8.905106e+02  -1.969691e+02
  -4.184356e+02  -5.426739e+02
   3.369634e+02  -5.275145e+02
   7.885827e+02   3.920329e+01
   3.394703e+02   5.206386e+02
  -2.927301e+02   5.148825e+02
  -5.870352e+02   2.415148e+02
  -4.152501e+02  -2.211064e+02
  -4.408917e+01  -4.658764e+02
   2.393295e+02  -3.196616e+02
   1.680692e+02   2.310539e+02
  -1.613728e+02   3.852669e+02
  -4.412530e+02   1.013230e+01
  -2.077486e+02  -7.121283e+02
   3.054228e+02  -7.178031e+02
   6.954503e+02   4.476211e+01
   3.600282e+02   4.839871e+02
  -3.015084e+02   3.306239e+02
  -4.165635e+02  -3.377395e+02
   1.102386e+02  -6.305242e+02
   5.258778e+02  -1.496165e+02
   5.763769e+02   4.173058e+02
   1.396136e+02   6.231101e+02
  -4.355575e+02   3.656837e+02
  -6.159823e+02  -8.895760e+01
  -3.751980e+02  -4.080888e+02
   1.245263e+02  -3.332727e+02
   3.734336e+02  -7.559432e+01
   2.336578e+02   1.969132e+02
  -1.157050e+02   1.642107e+02
  -1.406371e+02  -1.438435e+02
   1.310286e+02  -1.815972e+02
   3.139859e+02   9.579233e+01
   1.494223e+02   3.111577e+02
  -1.732309e+02   3.050354e+02
  -3.630460e+02   5.488384e+01
  -1.602470e+02  -1.011115e+02
   4.562292e+01  -2.465393e+02
   2.005104e+02  -3.401461e+02
   3.185190e+02  -2.263325e+02
   2.855659e+02   1.286514e+02
   8.150857e+01   4.991029e+02
  -9.808436e+01   3.948535e+02
  -6.125725e+01   6.508341e+01
  -3.838884e+01  -4.876045e+01
  -4.564479e+01   9.542719e+01
  -2.149365e+02   1.520203e+02
  -3.462409e+02  -4.727152e+01
  -1.947506e+02  -2.504260e+02
   6.088603e+01  -2.662957e+02
   2.597783e+02  -1.521649e+01
   1.825515e+02   2.284996e+02
   7.553905e+00   2.590326e+02
  -2.343878e+02   1.447268e+02
  -3.822306e+02  -1.699390e+02
  -1.927791e+02  -3.560211e+02
   1.097620e+02  -2.756794e+02
   2.149247e+02  -1.559714e+02
   1.717629e+02   4.627855e+00
   1.052718e+02  -1.610655e+01
   2.046657e+02  -8.627411e+01
   4.334872e+02   3.395048e+01
   3.266227e+02   2.843008e+02
   4.445122e+01   4.310636e+02
  -3.441268e+02   4.175752e+02
  -4.638971e+02   2.086709e+02
  -3.359177e+02  -7.794569e+01
  -5.483744e+01  -2.985132e+02
   1.357598e+02  -2.428352e+02
   7.821680e+01  -2.375878e+01
  -9.584965e+01   1.102626e+02
  -2.125827e+02   2.697923e+01
  -4.724136e+01  -2.163390e+02
   1.623794e+02  -1.530686e+02
   2.020606e+02   5.403133e+01
  -2.002297e+01   2.276854e+02
  -1.766305e+02   5.004123e+01
  -1.706635e+02  -2.844141e+02
   5.663888e+00  -3.191796e+02
   2.879290e+02  -2.150702e+02
   2.955999e+02   6.592639e+01
   3.094474e+02   2.380949e+02
   8.518964e+01   2.870950e+02
  -1.274108e+02   2.070621e+02
  -1.610377e+02   3.013458e+01
  -5.005696e+01  -3.738309e+01
   6.221903e+01   6.482153e+01
   3.378504e+01   1.241977e+02
  -1.259475e+02   6.881639e+01
  -1.618067e+02  -1.684931e+01
  -3.727622e+01  -7.644786e+01
   6.965982e+01   1.083383e+01
   2.513589e+01   5.995162e+01
  -1.510915e+02   9.773084e+01
  -2.882444e+02   1.389038e+01
  -2.204992e+02  -1.460043e+02
  -8.512305e+01  -2.760466e+02
   2.306152e+02  -2.661720e+02
   3.421347e+02  -1.402791e+02
   1.770918e+02   5.384942e+01
  -3.867284e+01   7.942312e+01
  -7.358457e+01   1.015611e+01
   4.479594e+01  -8.468955e+01
   1.957043e+02  -7.757404e+01
   2.075779e+02   9.747574e+01
   7.024840e+01   1.906722e+02
  -1.067482e+02   1.292409e+02
  -1.496780e+02   1.403751e+01
  -8.023505e+01  -4.440709e+01
   2.521135e+01  -2.472545e+01
  -2.102775e+00   9.182884e+01
  -9.325993e+01   1.096864e+02
  -1.867950e+02   5.737208e+01
  -2.019735e+02  -1.368080e+02
  -2.719349e+01  -1.943316e+02
   1.801875e+02  -1.812215e+02
   1.716276e+02  -3.566596e+01
   8.563808e+01   1.055015e+02
  -6.085295e+01   1.153569e+02
  -9.358639e+01   1.673822e+01
  -3.418819e+01  -4.282848e+01
   4.758167e+01  -3.895603e+01
   1.594080e+00  -3.906294e+01
  -5.874821e+01   3.485478e+00
  -6.532194e+01  -8.033288e+01
   6.718042e+00  -1.840396e+02
   1.376083e+02  -1.308340e+02
   2.524282e+02  -4.508005e+01
   2.234684e+02   1.269859e+02
   2.016514e+01   2.488741e+02
  -1.187298e+02   1.536913e+02
  -1.456356e+02   1.117613e+01
  -6.348595e+01  -7.246546e+01
  -3.092159e+01  -4.137728e+01
  -2.642840e+00   5.598133e+00
  -7.240659e+01   2.980021e+01
  -3.698647e+01  -4.592744e+01
   2.519820e+01  -8.983510e+01
   8.740652e+01  -6.769020e+01
   5.013535e+01   1.937979e+01
  -1.533872e+01   9.502789e+01
  -1.737473e+02   9.872345e+01
  -1.509263e+02  -3.806761e+01
  -1.015321e+02  -1.873038e+02
   1.155294e+02  -2.489348e+02
   2.423452e+02  -7.024172e+01
   2.478292e+02   9.002414e+01
   1.090623e+02   1.536637e+02
  -4.320060e+01   1.841777e+02
  -9.350784e+01   6.417187e+01
  -6.900624e+01   7.640643e+01
  -5.010212e+01   1.221595e+02
  -4.794950e+01   5.499409e+01
  -9.432414e+01  -4.101827e+01
  -1.383375e+02  -1.242904e+02
  -4.143889e+01  -2.377099e+02
   7.579642e+01  -1.904038e+02
   1.728582e+02  -6.379500e+01
   1.431570e+02   1.234627e+02
  -2.162781e+01   1.489287e+02
  -4.019924e+01   7.341690e+01
  -8.654308e+01  -7.415055e-01
  -1.382810e+01  -6.917203e+01
   6.227437e+01  -5.492429e+01
  -4.365389e+01  -2.040855e+01
  -8.556668e+01   2.258574e+00
  -8.460135e+01  -3.087759e+01
   8.678241e+01  -2.910356e+01
   1.395286e+02  -2.912120e+01
   1.090566e+02   4.108762e+01
  -3.777673e+01   7.040105e+01
  -8.980741e+01   6.517161e+01
  -1.390337e+02   3.851451e+00
  -5.039697e+01  -1.002652e+01
   5.447739e+01  -1.212711e+01
   6.867049e+01  -1.239349e+01
   1.827498e+01   8.283237e+01
  -5.711120e+01   7.755850e+01
  -4.923166e+01  -4.842459e+00
  -4.091935e+01  -6.215710e+01
  -4.403424e+01  -2.927493e+01
  -5.774966e+01   9.623504e+00
  -1.053316e+02   1.258824e+01
  -4.158187e+01  -7.392380e+01
   4.587234e+01  -1.120516e+02
   1.341595e+02  -1.089939e+02
   1.655595e+02  -4.039946e+01
   1.332998e+02   6.836166e+01
   1.070338e+01   1.295169e+02
  -7.879343e+01   7.312434e+01
  -6.962089e+01  -9.348827e+00
   6.971337e+01   1.311979e+01
   1.226728e+02   4.970759e+01
   6.768461e+01   1.573320e+02
  -1.004122e+02   1.202949e+02
  -1.851741e+02   7.375265e+01
  -1.430542e+02  -3.840909e+01
  -3.273884e+01  -9.815196e+01
   1.588818e+01  -4.828594e+01
   4.866571e+01  -4.489713e+01
  -5.618737e+01   2.663275e+01
  -9.700410e+01  -3.981197e+01
  -5.771491e+01  -8.090727e+01
   1.032899e+02  -1.112984e+02
   1.615068e+02  -2.933466e+01
   8.787461e+01   1.025704e+02
  -1.280839e+01   2.067400e+02
  -9.721903e+01   2.033299e+02
  -8.872309e+01  -1.246830e+01
  -2.543386e+01  -1.531741e+02
  -1.962225e+01  -8.514886e+01
   3.576253e+01  -3.995063e+01
   6.244448e+01   3.281716e+01
   3.219240e+01  -6.482513e+00
  -6.813678e+00  -3.137264e+01
   3.884979e+01  -1.312944e+01
   1.086769e+01   1.401571e+02
   2.899141e+01   1.178299e+02
  -4.777385e+01   6.102982e+01
  -1.441257e+02  -5.241523e+01
  -1.777330e+02  -9.940746e+01
  -1.936437e+01  -4.134163e+01
   1.169318e+02  -1.474148e+01
   9.888662e+01   1.310339e+01
  -1.326405e+01  -1.231123e+01
  -3.984006e+01   2.146606e+01
   2.401675e+01   2.943610e+01
   5.261204e+01  -1.086104e+01
  -4.377603e+00   2.490442e+01
  -8.494440e+01  -1.747771e+01
  -7.587354e+01  -9.029076e+00
   1.370331e+01  -8.645596e+01
   7.707863e+01  -9.792664e+01
   1.688412e+02  -7.090027e+01
   9.320847e+01   5.226569e+01
   2.750164e+01   1.914275e+02
  -1.105952e+02   1.923419e+02
  -5.419535e+01   6.999078e+01
  -8.216152e+01  -5.893732e+00
  -2.183996e+01  -4.698114e+01
   3.984559e+00   9.363609e+00
   1.911397e+01  -1.187769e+01
  -5.714933e+01  -4.193973e+01
  -5.336579e+00  -1.179754e+02
   7.356589e+01  -4.571870e+01
   7.076539e+01   4.674292e+00
   1.019929e+02   1.415037e+02
  -1.933305e+01   1.494092e+02
  -9.128196e+01   7.539801e+01
  -8.554101e+01  -8.345344e+01
  -5.525618e+01  -8.418161e+01
   5.890870e+01  -3.889308e+01
   1.033732e+02   1.195202e+01
   6.635565e+01   2.707543e+01
  -2.957195e-01   5.264745e+01
  -1.012954e+01   9.446940e+01
   5.686679e+01  -2.771769e+01
   9.359752e+01  -2.907337e+01
   4.215566e+01   2.702890e+01
  -8.119509e+01   1.015471e+02
  -1.127860e+02   6.536082e+01
  -4.779206e+01  -2.768679e+01
   3.020387e+01  -8.240567e+01
   8.018555e+01  -5.540407e+01
   3.264892e+01  -3.059757e+01
  -1.533219e+01   4.251867e+01
  -4.213494e+01   8.061550e+01
  -1.513689e+01  -4.037950e+01
  -2.884459e+01  -8.600614e+01
  -2.277800e+01  -1.547616e+01
   6.562770e+01  -2.120704e+01
   4.847700e+01   2.243087e+01
   2.980793e+01   1.567477e+01
  -2.892324e+00  -4.003686e+01
   5.111005e+00   6.256121e+00
  -3.770529e+01   6.760906e+01
   7.158996e+00   3.647916e+01
  -2.308735e+01  -3.027836e+00
  -8.777860e+00  -5.832105e+01
   1.821685e+01  -7.133645e+01
   6.242800e+01  -8.429754e+00
   5.375109e+01   2.773347e+01
   2.374394e+01   6.241379e+01
  -2.609280e+01   1.554390e+01
  -1.042577e+02  -1.663942e+01
  -7.004034e+01  -5.807147e+01
   3.892221e+01   5.611996e+00
   1.054050e+02   1.020148e+00
   4.411100e+01  -6.277196e+01
  -2.966562e+01  -9.553181e+00
  -3.049126e+01  -1.478601e+00
   3.780573e+01  -4.022102e+01
   1.169732e+02  -3.490181e+01
