
 $NMID
 id='ANONYMOUS ', fmtdat='(2E16.6)'
 volume=1.0
 tramp=1.0
 $END
   4.355803e+03  -9.751802e+01
   2.441033e+03   2.539556e+03
  -6.008422e+02   2.630382e+03
  -2.047249e+03   1.157233e+03
  -1.091699e+03  -4.889122e+02
   5.629774e+02  -4.760483e+02
   8.147316e+02   3.240210e+02
   1.465536e+02   9.892644e+02
  -8.580300e+02   7.986665e+02
  -9.270856e+02  -4.985693e+01
  -5.129764e+02  -8.856422e+02
   1.235600e+02  -9.219086e+02
   6.156462e+02  -1.765084e+02
   3.828378e+02   7.541001e+02
  -2.277540e+02   7.109862e+02
  -6.316680e+02  -6.953880e+00
  -3.813360e+02  -6.801145e+02
   2.985999e+02  -6.250389e+02
   5.893223e+02  -1.170144e+02
   3.407655e+02   3.377692e+02
   2.189756e+01   4.560268e+02
  -2.175424e+02   2.991885e+02
  -1.847296e+02   5.346382e+01
   1.184606e+02  -1.348715e+01
   4.185444e+02   1.266570e+02
   1.832266e+02   3.739906e+02
  -4.220191e+02   3.845336e+02
  -8.169761e+02  -8.749810e+01
  -4.443029e+02  -4.885240e+02
   3.908232e+02  -4.615778e+02
   7.232593e+02   3.935795e+00
   2.540048e+02   4.703101e+02
  -2.489145e+02   4.847564e+02
  -5.484879e+02   1.704180e+02
  -4.018988e+02  -2.229467e+02
  -8.459005e+01  -4.400926e+02
   1.805752e+02  -2.497017e+02
   1.341946e+02   2.269937e+02
  -1.082440e+02   3.461220e+02
  -3.602527e+02  -1.807839e+01
  -1.744767e+02  -6.478457e+02
   3.370636e+02  -7.296925e+02
   5.253528e+02  -4.957512e+01
   2.323984e+02   4.793655e+02
  -2.868250e+02   3.092025e+02
  -3.855827e+02  -3.135465e+02
   1.076044e+02  -5.850834e+02
   5.331216e+02  -1.315685e+02
   5.436563e+02   3.670612e+02
   1.732507e+02   5.947475e+02
  -3.605749e+02   3.436076e+02
  -5.756797e+02  -1.088398e+02
  -4.075786e+02  -4.197636e+02
   1.694437e+02  -3.837807e+02
   4.081934e+02  -1.227084e+02
   2.081248e+02   1.760186e+02
  -1.242116e+02   1.262960e+02
  -1.442775e+02  -8.978709e+01
   7.716912e+01  -1.995049e+02
   3.127566e+02   4.154436e+01
   1.669566e+02   2.698120e+02
  -2.454524e+02   2.564392e+02
  -3.218166e+02   7.330167e+01
  -1.835911e+02  -1.132304e+02
   9.666226e-01  -2.435227e+02
   1.661107e+02  -3.065753e+02
   3.179395e+02  -1.745289e+02
   2.693584e+02   1.207516e+02
   1.416597e+02   4.664796e+02
  -1.008765e+02   3.754053e+02
  -1.118526e+02   1.053235e+02
  -5.007884e+01   7.894699e+00
  -2.674010e+01   7.567050e+01
  -1.953319e+02   1.348830e+02
  -2.514875e+02  -9.305090e+01
  -1.524650e+02  -2.882729e+02
   3.064389e+01  -2.467736e+02
   2.208050e+02  -2.002349e+01
   2.095959e+02   1.957414e+02
   2.541629e+01   3.035282e+02
  -2.248253e+02   6.664658e+01
  -3.464214e+02  -1.727500e+02
  -1.511258e+02  -3.283577e+02
   8.995127e+01  -2.883996e+02
   2.210102e+02  -1.261454e+02
   1.862934e+02  -5.407860e+01
   1.103899e+02  -3.146596e+01
   2.414138e+02  -5.936515e+01
   3.722726e+02   2.425355e+01
   3.588884e+02   2.749719e+02
  -2.374632e+01   4.828215e+02
  -3.606741e+02   4.166458e+02
  -4.698222e+02   2.015893e+02
  -3.237113e+02  -8.531365e+01
  -6.346443e+01  -2.558906e+02
   1.386994e+02  -2.938031e+02
   7.707840e+01  -2.522191e+01
  -1.069891e+02   1.409958e+02
  -2.184831e+02   1.091586e+01
  -2.977979e+01  -2.231088e+02
   1.629032e+02  -1.593813e+02
   1.667916e+02   6.471062e+01
  -5.928847e+01   1.744465e+02
  -1.506561e+02   8.307014e+01
  -1.654188e+02  -2.529170e+02
   3.546278e+01  -3.544269e+02
   2.340869e+02  -2.156895e+02
   3.358132e+02   6.473404e+01
   2.483379e+02   2.473802e+02
   7.552369e+01   2.714137e+02
  -1.240130e+02   1.175099e+02
  -1.724641e+02   3.713509e+01
  -1.130869e+02  -1.534306e+01
   8.354358e+01   1.453617e+01
   3.340216e+01   1.307995e+02
  -1.114395e+02   8.392415e+01
  -1.724406e+02  -6.396218e+01
  -3.636582e+01  -8.781478e+01
   6.589982e+01  -1.160183e+01
   3.604763e+01   7.711623e+01
  -1.124362e+02   9.906803e+01
  -2.955957e+02  -4.313589e+01
  -2.795465e+02  -1.621533e+02
  -8.216994e+01  -2.365241e+02
   1.865551e+02  -2.482692e+02
   2.608949e+02  -1.391505e+02
   1.753040e+02   4.477558e+01
  -3.859306e+01   1.231340e+02
  -9.094955e+01  -5.350863e+00
   3.143340e+01  -8.175777e+01
   1.960097e+02  -7.312218e+01
   1.966972e+02   9.430048e+01
   7.129014e+01   2.011989e+02
  -8.290664e+01   1.943388e+02
  -1.646682e+02   3.530421e+01
  -6.092633e+01  -2.172317e+01
   4.926930e+01   1.523374e+00
   3.899213e+01   8.751148e+01
  -4.543184e+01   1.327164e+02
  -1.524977e+02   4.059453e+01
  -2.315464e+02  -1.110841e+02
  -2.115975e+01  -1.852042e+02
   2.100709e+02  -1.904887e+02
   1.931348e+02  -2.944365e+01
   1.072832e+02   7.941550e+01
  -5.819949e+01   1.007716e+02
  -7.258919e+01   6.503999e+01
  -3.748564e+01  -4.603455e+01
   2.194237e+01  -3.726732e+01
   3.726564e+01  -2.108879e+00
  -4.172192e+01   1.377812e+01
  -9.981124e+01  -1.017767e+02
   2.354292e+01  -1.775926e+02
   9.370662e+01  -1.439737e+02
   2.179539e+02  -2.309627e+01
   2.083455e+02   1.078267e+02
   2.018246e+00   2.519790e+02
  -1.318892e+02   1.787661e+02
  -1.006454e+02   3.051961e+01
  -5.286560e+01  -5.416545e+01
  -6.251291e+01  -3.343571e+01
  -4.718170e+01   1.917683e+00
  -8.482433e+01   1.099871e+00
  -4.895058e+00  -6.479720e+01
   6.927984e+01  -7.456320e+01
   9.520719e+01  -1.180363e+01
   1.055405e+02   3.521615e+01
  -2.630436e+00   1.062466e+02
  -1.702366e+02   8.146274e+01
  -2.081988e+02  -4.858252e+01
  -1.175057e+02  -1.683283e+02
   7.449734e+01  -2.222935e+02
   2.671246e+02  -1.267033e+02
   2.556166e+02   8.509114e+01
   1.225481e+02   1.711607e+02
  -1.416809e+01   1.170705e+02
  -1.045516e+02   9.169036e+01
  -7.659844e+01   3.654566e+01
  -7.852037e+01   8.227970e+01
  -8.647530e+01   4.815787e+01
  -1.390154e+02  -2.387317e+01
  -1.077455e+02  -1.439008e+02
  -2.969265e+00  -1.966696e+02
   1.202641e+02  -1.819482e+02
   1.458518e+02  -9.731819e+00
   1.399846e+02   1.374157e+02
   2.197099e+01   1.788914e+02
  -6.498295e+01   5.269870e+01
  -7.473543e+01  -5.997495e+00
   2.089098e+00  -5.578949e+01
   4.776842e+01  -1.850924e+01
  -4.851867e+01   7.231431e+00
  -9.393460e+01  -7.747533e+00
  -7.200598e+01  -1.965006e+01
   6.755308e+01  -2.319625e+01
   1.472311e+02   6.245101e+00
   1.455156e+02   2.423820e+01
  -1.616203e+01   1.082358e+02
  -1.127125e+02   4.677232e+01
  -1.622767e+02   6.415101e+00
  -1.880486e+01  -2.783256e+01
   6.189930e+01  -4.781179e+01
   7.649720e+01  -1.894382e+01
   2.655150e+00   8.187787e+01
  -3.012967e+01   8.987849e+01
  -8.530253e+01  -2.227670e+01
  -9.482660e+01  -7.249882e+01
  -3.216249e+01  -3.979135e+01
  -5.756569e+01  -1.510137e+00
  -7.701310e+01   2.509815e+01
  -2.995811e+01  -3.756252e+01
   2.401271e+01  -1.394112e+02
   8.975524e+01  -1.238534e+02
   1.978171e+02   1.560046e+01
   1.183132e+02   7.617315e+01
   2.827073e+01   1.200759e+02
  -8.224934e+01   1.423908e+01
  -8.341240e+01  -1.035997e+01
   5.518968e+01   4.885323e+00
   8.288074e+01   6.854569e+01
   4.271735e+01   1.340049e+02
  -8.251707e+01   1.330550e+02
  -2.134393e+02   5.891319e+01
  -1.559359e+02  -1.090790e+01
   1.947127e+01  -1.122826e+02
   5.334977e+01  -7.064742e+01
   5.663503e+01  -4.080260e+00
  -4.492814e+01   7.052449e+00
  -7.296207e+01  -6.233214e+00
  -8.908364e+01  -1.405310e+02
   6.572900e+01  -1.724800e+02
   1.488733e+02  -7.706772e+01
   1.426008e+02   9.464343e+01
   5.786162e+01   1.964728e+02
  -6.516679e+01   1.719778e+02
  -1.281721e+02   5.165576e+00
  -6.161607e+01  -8.464243e+01
  -2.013033e+01  -9.969553e+01
   6.437165e+01  -2.546896e+00
   3.581345e+01   8.275596e+01
   3.531071e+00   2.353884e+01
  -5.516870e-01  -5.935931e+01
   3.378422e+01   8.340111e-01
   2.989596e+01   8.546123e+01
   6.978170e+01   9.329002e+01
  -3.247681e+01   3.895971e+01
  -9.276550e+01  -4.707053e+01
  -1.153450e+02  -6.395012e+01
   1.265117e+01  -6.423582e+01
   1.031041e+02  -5.645691e+01
   6.406234e+01   1.296321e+01
   1.676433e+01   2.905090e+01
  -1.128865e+01   2.972275e+00
  -9.799112e-01   8.905894e+00
   3.229942e+01  -1.203913e+00
  -4.586328e+00   1.182702e+01
  -5.669374e+01   1.088436e+01
  -6.940781e+01  -3.524165e+01
   1.891911e+01  -1.234768e+02
   1.029731e+02  -9.527865e+01
   1.942909e+02  -5.435027e+01
   1.556168e+02   6.378610e+01
   6.406416e+01   2.004267e+02
  -9.783154e+01   1.364478e+02
  -9.728357e+01   7.174844e+01
  -9.339465e+01  -3.633828e+01
   2.831562e+01  -6.837341e+00
  -8.131844e+00   1.850748e+01
  -1.468320e+01   2.938456e+00
  -2.662034e+01  -3.095786e+01
  -5.658483e+01  -1.110353e+02
   4.167234e+01  -1.173438e+02
   4.376710e+01   2.910997e+01
   5.191182e+01   1.629223e+02
  -1.591603e-01   1.207153e+02
  -9.624186e+01   3.080247e+01
  -1.176144e+02  -7.361113e+01
   1.305237e+01  -1.427188e+02
   7.299890e+01  -8.702851e+01
   6.309053e+01   1.019077e+01
   3.572852e+01   1.539387e+01
  -4.396402e+01   5.632812e+01
  -5.811998e+01   7.442602e+00
   3.639069e+01   5.319885e+00
   6.616044e+01  -6.750608e-01
   1.889762e+01   2.070859e+01
  -7.241342e+01   4.384805e+01
  -1.048866e+02   7.644458e+01
  -2.733598e+01   2.051192e+01
   3.324556e+01  -8.826793e+01
   6.664503e+01  -5.466252e+01
  -3.449218e+00   1.324173e+01
  -3.152714e+01   7.028176e+01
   4.807071e+00   7.178431e+01
  -2.170182e+01  -1.809465e+01
  -4.573870e+01  -1.181270e+02
   3.497359e+01  -3.050543e+01
   4.275533e+01  -2.969816e+01
   8.254236e+01  -4.488118e+00
   1.728176e+01  -2.001712e+01
  -7.620356e+00  -1.333630e+01
   3.208989e+01  -7.961738e+00
   1.904821e+00   7.049486e+01
  -2.892045e+00   3.647304e+01
  -5.633309e+01   2.272597e+01
  -3.881148e+01  -3.918013e+01
  -3.490926e-01  -2.294233e+01
   4.220033e+01  -4.325147e+01
   4.905098e+01  -2.028519e+00
   6.602173e+00   3.297581e+01
  -5.635680e+01  -2.669365e+01
  -1.165299e+02  -9.202907e+00
  -5.402869e+01  -1.463632e+01
   2.173117e+01  -7.317891e+01
   7.764433e+01  -3.509906e+00
   2.353849e+01   9.532425e+00
  -6.693449e+01   2.722785e+01
  -2.431139e+01  -7.636281e+00
   3.647023e+01  -2.359950e+00
   6.712744e+01  -3.123356e+01
