
 $NMID
 id='ANONYMOUS ', fmtdat='(2E16.6)'
 volume=1.0
 tramp=1.0
 $END
   3.341133e+03   3.963075e+02
   2.050185e+03   2.284856e+03
  -5.312374e+02   2.048861e+03
  -1.332818e+03   8.741592e+02
  -7.320669e+02  -2.638372e+02
   4.895284e+02  -4.265107e+02
   7.038500e+02   2.691671e+02
   9.156289e+01   7.206388e+02
  -6.755533e+02   5.564141e+02
  -6.424694e+02  -6.658270e+01
  -3.372027e+02  -7.738744e+02
   1.372227e+02  -6.424065e+02
   5.017688e+02  -1.140423e+02
   3.257477e+02   5.975447e+02
  -2.279229e+02   4.984128e+02
  -5.090954e+02  -2.126053e+01
  -1.747039e+02  -5.963306e+02
   2.616877e+02  -4.397743e+02
   4.428610e+02  -1.964678e+01
   2.926037e+02   2.724706e+02
   3.161825e+01   3.314568e+02
  -1.889986e+02   1.480891e+02
  -1.813627e+02   3.933830e+01
   3.692572e+01  -3.837849e+01
   2.481212e+02   4.654306e+01
   1.773288e+02   2.781361e+02
  -3.310208e+02   2.519649e+02
  -6.676191e+02  -1.378294e+02
  -3.159212e+02  -4.228800e+02
   3.206575e+02  -4.064690e+02
   5.379641e+02   3.443378e+01
   2.564853e+02   3.209134e+02
  -1.672941e+02   3.243765e+02
  -4.847463e+02   1.221038e+02
  -2.844105e+02  -1.608579e+02
  -2.748666e+01  -3.462911e+02
   1.842712e+02  -1.969690e+02
   1.261045e+02   1.306529e+02
  -1.233800e+02   3.221576e+02
  -2.808657e+02  -9.737694e+00
  -1.227034e+02  -5.072566e+02
   2.574511e+02  -5.209430e+02
   3.911470e+02  -1.267417e+01
   2.145066e+02   4.122174e+02
  -2.066627e+02   1.839474e+02
  -2.193611e+02  -2.165169e+02
   8.252625e+01  -4.088779e+02
   4.010513e+02  -1.242413e+02
   3.836821e+02   2.771247e+02
   9.363287e+01   4.381304e+02
  -2.943278e+02   1.973741e+02
  -4.255225e+02  -7.449274e+01
  -2.763135e+02  -3.384118e+02
   1.298023e+02  -3.122075e+02
   2.888632e+02  -1.339993e+01
   1.649658e+02   1.520094e+02
  -4.025071e+01   7.769886e+01
  -9.441591e+01  -1.594592e+02
   1.077181e+02  -1.512184e+02
   2.310597e+02   8.760196e+01
   6.899766e+01   2.034517e+02
  -1.534652e+02   1.694144e+02
  -2.343579e+02   7.184274e+01
  -1.410035e+02  -6.024933e+01
   2.548302e+01  -1.628438e+02
   1.326843e+02  -1.983981e+02
   2.452201e+02  -1.585112e+02
   2.038372e+02   1.167792e+02
   6.826566e+01   3.195462e+02
  -1.001262e+02   3.100307e+02
  -1.052109e+02   7.821963e+01
  -2.216519e+01   4.115976e+01
  -4.096218e+01   6.770341e+01
  -1.632890e+02   1.214095e+02
  -2.192914e+02  -3.477415e+01
  -1.017572e+02  -1.910911e+02
   3.175594e+01  -2.119013e+02
   1.444512e+02  -2.279967e+01
   1.363557e+02   1.677941e+02
   1.155906e+00   2.218085e+02
  -1.956111e+02   5.814291e+01
  -2.716328e+02  -1.521292e+02
  -1.488024e+02  -2.944992e+02
   1.231317e+02  -2.235336e+02
   2.256631e+02  -8.697946e+01
   1.336949e+02  -3.608221e+00
   3.063716e+01  -2.375824e+01
   1.834561e+02  -1.033373e+01
   2.988880e+02   5.077046e+01
   1.978484e+02   2.343114e+02
  -1.271343e+01   3.411845e+02
  -2.918076e+02   3.254705e+02
  -3.888902e+02   1.205909e+02
  -2.452892e+02  -1.527236e+01
  -3.561024e+01  -2.550101e+02
   9.500240e+01  -1.612560e+02
   1.068471e+02  -4.083855e+01
  -6.892039e+01   6.389822e+01
  -1.764675e+02  -2.497206e+01
  -3.691915e+01  -1.644771e+02
   1.510315e+02  -7.687080e+01
   1.003273e+02   1.074234e+01
   6.718693e+01   1.345164e+02
  -1.568427e+02   2.333113e+01
  -9.988441e+01  -1.644492e+02
   1.738543e+01  -2.627555e+02
   1.435498e+02  -1.513453e+02
   2.615301e+02   5.519828e+01
   2.294023e+02   2.375287e+02
   5.143573e+01   1.790759e+02
  -8.812963e+01   1.020941e+02
  -1.371293e+02   3.722727e+01
  -5.641009e+00  -5.540468e+01
   4.036351e+01   4.559525e+01
  -2.995619e+00   7.515869e+01
  -1.194190e+02   7.178695e+01
  -1.232605e+02  -4.208318e+01
  -3.662539e+01  -7.277132e+01
   6.276209e+01   1.996707e+00
   5.492183e+01   1.529262e+01
  -8.110281e+01   4.755627e+01
  -2.352223e+02  -2.047800e+01
  -2.071810e+02  -1.217465e+02
  -6.290981e+01  -2.099672e+02
   1.520097e+02  -2.012325e+02
   1.844514e+02  -6.615857e+01
   1.380725e+02   5.757247e+01
  -2.719164e+01   5.885615e+01
  -6.420682e+01   1.510212e+01
   4.115576e+01  -9.135902e+01
   1.673643e+02  -5.334446e+01
   1.730922e+02   4.972617e+01
   5.589811e+01   1.433816e+02
  -6.164555e+01   8.462572e+01
  -8.032448e+01   8.785789e+01
  -5.617838e+01  -5.391901e+01
   3.604867e+01   2.364548e+01
   3.208244e+01   6.272862e+01
  -3.034364e+01   8.585758e+01
  -1.063791e+02   1.972257e+01
  -1.264211e+02  -1.070095e+02
   1.309871e+01  -1.730028e+02
   1.131336e+02  -1.213513e+02
   1.792062e+02  -1.077208e+01
   6.973878e+01   8.419053e+01
  -6.723901e+01   9.142861e+01
  -9.072299e+01   3.499876e+01
  -2.933793e+01  -7.764561e+00
   3.750114e+01   3.128378e+01
  -2.954375e+01   1.712866e+01
  -6.465682e+01  -7.356584e+00
  -2.303921e+01  -5.640737e+01
  -1.117737e+01  -9.378990e+01
   7.534411e+01  -1.463786e+02
   1.696211e+02  -2.034938e+01
   1.543583e+02   1.308247e+02
   1.195148e+01   1.836923e+02
  -8.547661e+01   1.055332e+02
  -9.991516e+01  -2.273273e+00
  -3.591586e+01  -5.157459e+01
  -3.478126e+01  -3.448327e+01
  -4.952286e+01  -4.282832e+01
  -1.080002e+02  -2.956836e+01
  -2.149100e+01  -2.794468e+01
   1.506635e+01  -7.717737e+01
   8.008133e+01  -6.398852e+01
   1.049269e+02   7.202366e+00
  -1.089012e+01   5.951430e+01
  -7.518928e+01   4.287192e+01
  -1.229062e+02  -4.208142e+01
  -3.322262e+01  -1.450042e+02
   6.939233e+01  -1.632127e+02
   1.742445e+02  -5.482139e+01
   1.946834e+02   8.549280e+01
   6.850107e+01   1.656311e+02
  -3.638130e+01   7.777064e+01
  -9.719481e+01   7.566931e+01
  -7.352820e+01   3.164609e+01
  -8.246326e+01   7.393140e+01
  -5.489439e+01   3.138015e+01
  -7.349502e+01  -4.143801e+01
  -8.500697e+01  -1.626231e+02
  -2.146184e-01  -1.502707e+02
   8.275235e+01  -1.346221e+02
   1.334699e+02  -2.848391e+01
   1.065177e+02   1.305286e+02
  -4.313436e+00   1.001482e+02
  -3.985160e+01   6.080482e+01
  -3.257460e+01   3.896487e+01
   1.847511e+01  -3.137831e+01
   1.324853e+01  -3.246951e+01
  -3.147938e+01  -2.812178e+01
  -4.394512e+01   2.471658e+01
  -2.088819e+01  -5.933141e+01
   3.929101e+01  -4.941507e+01
   1.457129e+02   1.365200e+01
   5.537650e+01   3.862186e+01
   2.407629e+01   7.122850e+01
  -8.543217e+01   3.895956e+01
  -1.196385e+02  -4.453777e+00
  -3.788919e+01  -3.402355e+01
   6.455344e+01  -5.043248e+00
   5.755310e+01   2.595916e+01
   2.211535e+01   1.004756e+02
  -4.520684e+01   2.287590e+01
  -5.484730e+01  -7.927664e+00
  -1.487389e+01  -6.871783e+01
  -3.305693e+01  -6.162368e+01
  -2.829005e+01   5.103498e+00
  -4.792461e+01   2.103386e+01
  -1.684450e+01  -3.152365e+01
   6.479702e+01  -9.437094e+01
   5.564179e+01  -9.655958e+01
   1.355565e+02  -2.075871e+01
   7.726673e+01   9.050082e+01
   1.539181e+01   9.127244e+01
  -6.054517e+01   4.910965e+01
  -4.590609e+01   1.030557e+01
   1.837276e+01  -1.060293e+01
   1.107501e+02   3.417282e+01
   1.503387e+01   1.035157e+02
  -6.190809e+01   8.880288e+01
  -1.148088e+02  -1.010323e+01
  -1.181288e+02  -8.770380e+00
  -2.499656e+01  -7.210577e+01
   4.798955e+01  -8.108015e+01
   3.268565e+01   4.796775e+00
   9.134502e+00   1.536045e+01
  -5.403760e+01  -7.810146e+00
  -2.211023e+01  -8.875992e+01
   5.879238e+01  -1.256341e+02
   1.440395e+02  -5.978427e+01
   9.744463e+01   6.097106e+01
  -6.184411e+00   1.768933e+02
  -3.480859e+01   9.600648e+01
  -8.237160e+01  -1.356238e+01
  -6.422473e+01  -7.767591e+01
  -1.330056e+01  -1.096348e+02
   2.847302e+01  -2.577529e+01
   1.885554e+01   9.294773e+00
   1.783336e+01   2.697767e+01
  -2.023315e+01   1.461916e+01
   1.419222e+01  -2.565620e+01
   6.101528e+01   4.544264e+01
   4.072287e+01   4.366689e+01
  -2.865858e-01   3.842652e+01
  -1.138775e+02  -1.873003e+01
  -1.070773e+02  -2.362907e+01
   5.351572e+00  -1.754263e+01
   5.346129e+01  -1.575807e-01
   4.041354e+01   1.018629e+01
  -9.385717e+00   1.499872e+01
  -2.641105e+00   2.603624e+01
  -7.348069e+00   8.364657e+00
  -8.061658e+00   2.197026e+00
  -2.402070e+01  -7.212464e+00
  -5.815215e+01   5.239598e+01
  -5.858711e+01  -7.936923e+00
   3.248347e+01  -8.561406e+00
   9.853094e+01  -9.402503e+01
   1.634944e+02  -5.228532e+01
   7.947893e+01   6.010034e+01
   3.541125e+01   1.387852e+02
  -5.596873e+01   9.896446e+01
  -9.222287e+01   4.777344e+01
  -4.548196e+01   1.261504e+01
   1.379661e+01  -4.964333e-01
   3.537711e+00  -2.675502e+01
  -1.244778e+01   1.299842e+01
  -8.960997e+00  -4.128610e+01
  -2.434365e+01  -5.574002e+01
   1.676590e+01  -5.126269e+01
   4.769159e+01   4.359626e+01
   9.407225e+01   5.259995e+01
  -7.695738e+00   6.957834e+01
  -6.245341e+01  -8.061771e+00
  -2.099332e+01  -1.073265e+02
  -2.382973e+01  -1.216344e+02
   2.603061e+01  -1.707855e+00
   7.845011e+01  -1.380278e+01
   5.935442e+01   4.003415e+01
  -4.563828e+01   2.114291e+01
  -4.342600e+01   2.146049e+01
   5.202144e+01   4.474441e+01
  -9.362961e+00   5.940463e+00
  -1.142653e+01   3.349531e+01
  -4.866257e+01   3.604132e+01
  -6.934853e+01   7.391061e+01
  -4.187557e+01   5.255148e+00
  -3.401588e+00  -3.405733e+01
   2.416572e+01  -1.173423e+02
   2.927257e+01   4.825813e+00
  -4.524959e+00   7.009683e+01
  -3.987123e+01   6.071255e+01
  -8.586350e+00  -6.056303e+01
  -9.183827e+00  -2.574498e+01
   3.374912e+01  -4.565316e+01
   1.218765e+01   3.624822e+00
   1.150857e+01   3.922268e+01
   1.920810e+01   1.641455e+01
  -1.800887e+01  -1.851916e+01
  -2.493449e+01   1.613669e+01
  -8.671952e+00   3.798903e+01
  -5.611534e+01   3.712396e+01
  -2.509794e+01  -2.314087e+01
   6.126706e+00  -1.674787e+01
   3.008453e+00  -6.695587e+01
   2.478285e+01  -1.058540e+01
   1.999437e+01   1.538761e+01
   1.085119e+01   3.367884e+01
  -3.411838e+01   1.715219e+01
  -8.241384e+01   6.159604e+00
  -2.860970e+01  -4.657433e+01
   3.371385e+01  -1.491929e+01
   5.367632e+01  -3.551841e+01
   2.609256e+01  -1.643187e+01
  -4.169172e+01  -3.816563e+01
  -1.827579e+01  -6.915991e+01
   7.272625e+01   1.553530e+01
   8.806171e+01  -3.497917e+01
