
 $NMID
 id='ANONYMOUS ', fmtdat='(2E16.6)'
 volume=1.0
 tramp=1.0
 $END
   3.649824e+03  -3.843655e+02
   2.455475e+03   2.010310e+03
  -4.130480e+02   2.835482e+03
  -1.717233e+03   1.414915e+03
  -1.109039e+03  -3.344352e+02
   2.978896e+02  -4.595627e+02
   6.422288e+02   1.693337e+02
   1.989996e+02   7.882943e+02
  -5.761967e+02   6.805397e+02
  -7.290325e+02   7.813003e+01
  -5.010052e+02  -6.947270e+02
   8.898866e+01  -7.798220e+02
   5.161474e+02  -1.600648e+02
   3.542789e+02   5.820937e+02
  -1.162975e+02   6.807128e+02
  -4.972099e+02   4.485785e+01
  -3.190884e+02  -5.805998e+02
   1.747215e+02  -6.062319e+02
   5.797592e+02  -1.661518e+02
   4.445203e+02   2.175829e+02
   5.984062e+01   4.395254e+02
  -1.545416e+02   2.847356e+02
  -1.522960e+02   7.861168e+01
   9.472713e+01   2.697486e+01
   2.912660e+02   1.419831e+02
   1.095321e+02   2.932335e+02
  -3.802491e+02   2.768965e+02
  -6.920187e+02  -9.525974e+01
  -3.322344e+02  -3.229958e+02
   3.972775e+02  -3.844644e+02
   5.853455e+02   1.369078e+02
   3.029847e+02   3.642369e+02
  -2.132318e+02   4.362990e+02
  -4.429203e+02   1.412294e+02
  -3.981297e+02  -1.644737e+02
  -1.484626e+02  -4.095736e+02
   1.228111e+02  -2.195559e+02
   5.260324e+01   1.404483e+02
  -6.744076e+01   3.258598e+02
  -2.819950e+02   1.701191e+00
  -1.655587e+02  -5.294698e+02
   2.732932e+02  -6.228903e+02
   4.523725e+02  -6.963140e+01
   2.440287e+02   4.419245e+02
  -1.484537e+02   2.545306e+02
  -3.401096e+02  -2.615259e+02
   9.449715e+01  -4.951427e+02
   4.854337e+02  -1.279700e+02
   5.959992e+02   3.382268e+02
   1.825023e+02   5.349695e+02
  -3.319989e+02   2.808285e+02
  -5.957171e+02  -6.325542e+01
  -3.991019e+02  -2.667785e+02
   7.346507e+01  -3.341974e+02
   3.012397e+02  -1.477526e+02
   2.275326e+02   1.377557e+02
  -2.323607e+01   9.955939e+01
  -8.236393e+01  -8.301432e+01
   7.111352e+01  -1.162334e+02
   2.896534e+02   4.408777e+01
   2.178261e+02   2.113655e+02
  -2.219026e+02   2.096762e+02
  -3.367168e+02   9.897592e+01
  -2.014207e+02  -9.153456e+01
   1.693027e+01  -2.861676e+02
   2.421678e+02  -3.098972e+02
   3.218064e+02  -1.876900e+02
   2.814210e+02   9.687413e+01
   5.980466e+01   3.690796e+02
  -6.553536e+01   3.665378e+02
  -6.677218e+01   1.698896e+02
  -3.860352e+01   2.303885e+01
  -8.593433e+01   9.886136e+01
  -1.863047e+02   1.093357e+02
  -2.607822e+02  -7.898798e+01
  -1.384648e+02  -2.464135e+02
   5.776045e+01  -2.136140e+02
   2.233201e+02   5.321167e+01
   1.757371e+02   2.291015e+02
  -2.556306e+01   1.928941e+02
  -2.495928e+02   8.378332e+01
  -3.486354e+02  -1.376823e+02
  -1.764978e+02  -3.245391e+02
   9.544216e+01  -3.010451e+02
   2.138182e+02  -1.581153e+02
   1.792222e+02  -4.849087e+01
   1.274051e+02  -6.086541e+01
   2.614548e+02  -3.092746e+01
   3.451534e+02   7.842696e+01
   2.878023e+02   2.801797e+02
   3.267338e+01   3.804698e+02
  -3.193882e+02   3.812742e+02
  -4.598822e+02   1.813705e+02
  -2.644151e+02  -7.154931e+01
  -4.932862e+01  -2.394291e+02
   1.199379e+02  -2.030101e+02
   6.770760e+01  -1.996244e+01
  -1.158568e+02   1.066968e+02
  -1.474014e+02  -1.872236e-01
  -1.756785e+01  -1.588216e+02
   1.164171e+02  -1.256263e+02
   1.693272e+02   5.889879e+01
  -1.420211e+01   1.598333e+02
  -1.851386e+02   4.412154e+01
  -1.617423e+02  -2.616901e+02
   1.960192e+01  -3.804480e+02
   2.357350e+02  -2.092510e+02
   3.911295e+02   5.438751e+01
   2.361904e+02   2.395135e+02
   1.077184e+02   2.342945e+02
  -8.950305e+01   1.614751e+02
  -1.574709e+02   2.739771e+01
  -2.084485e+01  -1.909487e+01
   5.031158e+01   7.396112e+01
  -1.794842e+01   1.354482e+02
  -9.911503e+01   6.449136e+01
  -1.594148e+02  -6.762445e+01
  -3.070012e+01  -4.851486e+01
   9.299060e+01   5.032240e+00
   5.240047e+01   4.622392e+01
  -1.475085e+02   9.615762e+01
  -2.674766e+02   6.545510e+00
  -2.895985e+02  -1.371632e+02
  -7.256281e+01  -2.623412e+02
   1.751766e+02  -2.622464e+02
   2.474171e+02  -8.924332e+01
   1.459409e+02   4.157516e+01
  -6.074374e+01   7.862697e+01
  -8.677594e+01   9.523912e+00
   4.886222e+01  -8.093324e+01
   1.530530e+02  -4.019333e+01
   1.820522e+02   1.047332e+02
   7.401188e+01   2.013717e+02
  -9.672137e+01   1.540892e+02
  -1.514790e+02   3.961723e+01
  -6.953430e+01  -5.033239e+01
   5.475494e+01   1.569682e+01
   2.866503e+01   1.076689e+02
  -1.045337e+02   1.232587e+02
  -1.936850e+02  -9.138926e+00
  -1.848607e+02  -1.138538e+02
  -1.036312e+01  -2.023196e+02
   2.025776e+02  -1.554249e+02
   1.366908e+02  -5.492397e+01
   8.140009e+01   1.051181e+02
  -5.534083e+01   1.185203e+02
  -4.924837e+01   4.598337e+01
  -9.488008e+00  -4.104570e+01
   1.298683e+01  -3.726260e+01
   1.665274e+01   2.147979e+01
  -8.916793e+01   4.104506e+00
  -1.028289e+02  -7.764861e+01
   3.121670e+00  -1.617242e+02
   1.568329e+02  -1.605982e+02
   2.250049e+02   2.000441e+00
   1.877226e+02   1.288824e+02
   4.809045e+01   2.043939e+02
  -8.375755e+01   1.937905e+02
  -9.968821e+01   3.424776e+01
  -1.342018e+02  -5.926303e+01
  -2.949392e+01  -8.442554e+01
  -7.050650e+01  -5.182001e+00
  -7.531527e+01  -1.430516e+01
  -3.688184e+01  -5.396275e+01
   6.729657e+00  -7.631797e+01
   7.913371e+01  -7.238850e+01
   5.165745e+01   4.845448e+01
   1.933304e+00   1.504863e+02
  -1.598532e+02   7.159577e+01
  -2.113104e+02  -5.552484e+01
  -8.364077e+01  -2.083538e+02
   1.555072e+02  -2.165226e+02
   2.783070e+02  -1.128635e+02
   2.535066e+02   1.017107e+02
   8.317355e+01   1.568502e+02
  -6.582135e+01   1.357933e+02
  -7.538044e+01   9.304772e+01
  -4.361369e+01   1.017215e+02
  -5.252736e+01   1.029684e+02
  -9.129953e+01   1.000690e+02
  -1.452576e+02  -7.670579e+01
  -6.602566e+01  -1.406211e+02
  -4.884295e+01  -2.152443e+02
   9.652113e+01  -1.530434e+02
   1.864156e+02   1.401771e+01
   9.427891e+01   1.175290e+02
  -2.379931e+01   1.573871e+02
  -7.748752e+01   6.026853e+01
  -7.332977e+01  -1.596250e+01
  -1.679474e+01  -8.919586e+01
   2.723118e+01   8.715697e-01
  -2.118279e+01  -1.032466e+01
  -7.435579e+01  -1.287057e+01
  -7.751893e+01  -6.441194e+01
   7.117598e+01  -2.988660e+01
   1.626203e+02  -4.830555e+01
   1.552104e+02   6.069251e+01
  -1.956642e+01   8.826993e+01
  -1.288576e+02   4.050705e+01
  -1.258623e+02   3.253718e+01
  -4.340980e+01  -8.348821e+01
   6.186765e+01  -4.907464e+01
   6.796570e+01  -1.825605e+01
  -1.782556e+01   9.243404e+01
  -2.108387e+01   5.735918e+01
  -8.346301e+01  -4.533874e+00
  -5.008687e+01  -6.248958e+01
  -3.236005e+01  -4.290102e+01
  -6.426030e+01   1.658883e+01
  -6.372854e+01   9.437982e-01
  -1.709266e+01  -6.261943e+01
   4.477621e+01  -1.487800e+02
   1.237038e+02  -1.389536e+02
   1.961916e+02  -3.555153e+01
   1.324583e+02   1.038756e+02
   1.249404e+01   7.902390e+01
  -9.078039e+01   9.316718e+01
  -7.781128e+01   3.133741e+01
   8.054925e+01  -1.166580e+01
   1.114095e+02   5.884372e+01
   9.196714e+01   9.899594e+01
  -5.335936e+01   1.215138e+02
  -1.983719e+02   7.383542e+01
  -1.738326e+02  -2.255269e+01
  -3.932311e+01  -6.116284e+01
   6.968361e+01  -4.436559e+01
   4.081888e+01  -1.225329e+01
  -6.556639e+01   2.394443e+01
  -1.143984e+02   6.928237e+00
  -5.258667e+01  -1.492838e+02
   7.442403e+01  -1.619745e+02
   1.782425e+02  -8.165642e+01
   1.039061e+02   9.137710e+01
   1.289052e+01   2.156387e+02
  -9.991870e+01   1.623242e+02
  -6.639427e+01  -3.727741e+01
  -5.597515e+01  -1.297837e+02
   3.557853e+01  -6.823196e+01
   2.158295e+01  -2.650321e+01
   1.555315e+01  -3.544700e+00
   2.187719e+01  -4.947988e+01
   1.090240e+01  -1.218487e+01
   3.172772e+01   2.766659e+01
   7.021227e+01   7.340028e+01
   4.260262e+01   9.103734e+01
  -3.458904e+01   3.198078e+01
  -1.090275e+02  -5.632156e+01
  -1.138948e+02  -9.162314e+01
   5.524978e+00  -2.720249e+01
   1.210827e+02  -1.908355e+01
   8.041732e+01  -3.854984e+01
   1.646778e+01   1.253247e+01
  -9.311761e+00   3.447442e+01
   9.697124e-01   5.829801e+00
   6.141289e+00  -1.517806e+01
   4.082557e+01  -1.974565e+00
  -4.446871e+01  -1.280143e+01
  -1.179798e+02  -7.166964e+01
  -7.357195e+01  -8.971475e+01
   8.382139e+01  -1.212325e+02
   1.302525e+02  -9.210943e+01
   1.181048e+02   6.466609e+01
   6.962801e+01   1.672730e+02
  -5.762719e+01   1.607495e+02
  -6.108234e+01   4.635482e+01
  -1.045876e+02   4.608031e-01
  -2.505186e+01  -7.800934e+01
   2.130606e+00  -1.236116e+01
   7.773646e+00  -3.041337e+01
  -5.089714e+01  -6.369187e+01
  -2.168958e+01  -9.211180e+01
   4.366496e+01  -8.280718e+01
   8.256039e+01   2.965583e+01
   5.359867e+01   1.184489e+02
   3.841633e+00   9.552039e+01
  -9.230861e+01   3.391216e+01
  -1.185107e+02  -9.499769e+01
  -3.281603e+01  -1.061412e+02
   8.703947e+01  -9.279022e+01
   1.079353e+02   3.162667e+01
   3.897342e+01   7.908113e+01
   2.669704e+00   2.678876e+01
  -3.260217e+01   3.732003e+01
   7.825789e+01  -1.718836e+01
   7.840337e+01  -1.163074e+01
   2.689456e+01   3.942123e+01
  -6.179734e+01   5.011436e+01
  -1.420495e+02   3.910433e+01
  -2.725402e+01   3.762664e+00
  -9.250043e+00  -7.679632e+01
   5.665032e+01  -8.819127e+01
   5.670687e+01  -3.238134e+00
  -7.289274e+00   5.299907e+01
  -1.656441e+01   8.622266e+01
  -4.766126e+01   3.286040e+01
   9.246067e+00  -8.398576e+01
  -2.326640e+00  -2.502843e+00
   2.789483e+01   2.128893e+00
   2.201187e+00   5.918577e+00
   4.691772e+01   9.596834e-01
  -1.055926e+00  -2.305984e+01
  -8.400619e+00   3.177039e+01
  -8.531819e+00   4.655453e+01
  -1.450531e+01   4.071747e+01
  -1.187028e+01   3.590782e+01
  -4.552464e+01  -7.658810e+01
  -4.065424e+01  -7.010463e+01
   3.207010e+01  -3.769767e+01
   8.056904e+01   4.201746e+01
   2.514647e+01   2.896094e-01
  -7.257476e+01   5.161588e+00
  -1.034782e+02  -1.143257e+01
  -7.171763e+01  -4.389558e+01
   3.278139e+01  -8.567007e+01
   1.780781e+01  -3.649683e+01
   1.470406e+01   6.566475e+00
  -6.581449e+01   5.432686e+00
  -5.316365e+01   3.551074e+01
   2.576698e+01  -3.899201e+01
   9.917173e+01  -8.173456e+00
