
 $NMID
 id='ANONYMOUS ', fmtdat='(2E16.6)'
 volume=1.0
 tramp=1.0
 $END
   3.912700e+03  -7.345294e+01
   2.301790e+03   2.381656e+03
  -7.174277e+02   2.634925e+03
  -2.052813e+03   1.124878e+03
  -1.070623e+03  -6.408200e+02
   4.516378e+02  -6.525284e+02
   8.623356e+02   3.601335e+02
   3.534209e+01   1.018381e+03
  -7.769909e+02   5.976119e+02
  -8.918715e+02  -6.580677e+01
  -3.149878e+02  -7.880731e+02
   2.228543e+02  -8.558121e+02
   6.362305e+02  -8.676292e+01
   2.630884e+02   7.019951e+02
  -2.237207e+02   7.755723e+02
  -5.372018e+02   8.133076e+00
  -1.909788e+02  -6.683849e+02
   2.298774e+02  -6.286581e+02
   5.644761e+02  -9.173711e+01
   3.589982e+02   3.517022e+02
   3.263862e+01   4.635043e+02
  -2.269236e+02   2.237876e+02
  -2.133461e+02   4.182042e+01
   9.059948e+01  -7.823343e+01
   3.556329e+02   1.007393e+02
   1.654399e+02   4.230451e+02
  -4.274092e+02   4.084364e+02
  -8.034979e+02  -1.151856e+02
  -4.053750e+02  -4.558258e+02
   4.085199e+02  -4.982526e+02
   6.555963e+02   6.426860e+01
   3.445064e+02   4.979981e+02
  -2.202581e+02   4.731338e+02
  -4.739905e+02   1.974419e+02
  -4.020113e+02  -1.797718e+02
  -6.713235e+01  -4.763374e+02
   2.102534e+02  -2.675607e+02
   1.176041e+02   2.155234e+02
  -1.430059e+02   3.982336e+02
  -4.680815e+02   4.917850e+01
  -2.120605e+02  -6.318622e+02
   3.572967e+02  -6.904136e+02
   5.291955e+02  -2.914204e+01
   2.347553e+02   5.284399e+02
  -2.213523e+02   2.849198e+02
  -4.306250e+02  -2.885225e+02
   1.122163e+02  -5.396909e+02
   5.075813e+02  -1.001343e+02
   5.590914e+02   3.664034e+02
   1.577975e+02   5.662860e+02
  -3.477875e+02   3.162221e+02
  -5.687895e+02  -6.555786e+01
  -3.491902e+02  -3.449776e+02
   1.850865e+02  -3.634117e+02
   3.775328e+02  -1.029999e+02
   2.020355e+02   1.972182e+02
  -7.029302e+01   1.003649e+02
  -1.525972e+02  -1.640895e+02
   1.405805e+02  -1.651132e+02
   3.587054e+02   6.806537e+01
   9.397387e+01   2.755746e+02
  -1.327405e+02   2.507221e+02
  -3.522894e+02   4.625487e+01
  -2.203877e+02  -1.099075e+02
   3.273194e+01  -2.164012e+02
   2.423499e+02  -3.779113e+02
   3.644015e+02  -1.978348e+02
   2.594702e+02   1.215675e+02
   1.490392e+02   4.096949e+02
  -8.425056e+01   3.623534e+02
  -1.149774e+02   1.418326e+02
  -3.175787e+01   3.055911e+01
  -4.461449e+01   1.029997e+02
  -2.057959e+02   1.408797e+02
  -2.614268e+02  -6.742574e+01
  -1.504193e+02  -2.761488e+02
   6.060241e+01  -2.435916e+02
   1.969839e+02  -3.981943e-01
   2.405166e+02   2.284106e+02
   3.480249e+00   2.506197e+02
  -2.367919e+02   1.051387e+02
  -2.977466e+02  -1.529957e+02
  -1.842589e+02  -3.923968e+02
   4.365627e+01  -2.956440e+02
   2.252822e+02  -1.177853e+02
   1.790998e+02   1.940032e+01
   9.524870e+01  -4.668561e-01
   2.011926e+02  -2.376553e+01
   3.476515e+02   7.045055e+01
   2.976529e+02   2.877056e+02
  -1.181470e+01   4.182962e+02
  -3.683196e+02   3.810418e+02
  -4.796018e+02   1.620435e+02
  -3.340881e+02  -1.224792e+02
  -4.361052e+01  -2.904016e+02
   1.412878e+02  -2.701206e+02
   6.332392e+01  -6.295849e+01
  -1.133697e+02   9.531190e+01
  -1.585123e+02  -1.002948e+01
  -3.328596e+01  -2.220040e+02
   1.946903e+02  -1.312149e+02
   1.483178e+02   8.187566e+01
   8.831956e+00   1.924975e+02
  -1.902064e+02   1.217507e+01
  -1.760051e+02  -1.925323e+02
   2.262582e+01  -3.215325e+02
   2.302702e+02  -1.570648e+02
   3.152476e+02   7.605108e+01
   2.867541e+02   2.425486e+02
   9.652256e+01   2.931732e+02
  -9.931701e+01   1.816235e+02
  -1.830297e+02   3.933810e+01
  -4.711813e+01  -2.608788e+01
   4.852440e+01   4.201966e+01
   1.624773e+01   1.205827e+02
  -1.275340e+02   1.080388e+02
  -1.738515e+02  -1.720873e+01
  -4.081545e+01  -9.021268e+01
   5.429054e+01   2.356377e+01
   6.576463e+01   5.870825e+01
  -1.139748e+02   9.549941e+01
  -2.753133e+02   3.203337e+01
  -1.945445e+02  -1.008834e+02
  -2.950930e+01  -2.497003e+02
   1.848473e+02  -2.318769e+02
   2.428562e+02  -1.324823e+02
   1.325889e+02   8.069623e+01
   3.487557e+00   8.196636e+01
  -6.927604e+01   7.338899e+00
   3.089800e+00  -8.031769e+01
   1.872220e+02  -5.008853e+01
   2.383080e+02   9.782391e+01
   8.601135e+01   1.994075e+02
  -6.141332e+01   1.175680e+02
  -1.735719e+02   2.555404e+01
  -9.565389e+01  -7.682227e+01
   6.162015e+01  -2.098077e+01
   2.150010e+01   4.288266e+01
  -2.059370e+01   1.213550e+02
  -2.059607e+02   3.059940e+01
  -1.624671e+02  -7.508227e+01
  -4.783040e+01  -1.857302e+02
   1.251835e+02  -1.475400e+02
   1.998626e+02  -2.991306e+01
   5.595158e+01   1.005050e+02
  -7.893031e+01   8.268411e+01
  -9.356420e+01   3.794491e+01
  -2.958835e+01   1.472938e+01
   3.150297e+01   7.836660e+00
  -3.019560e+00  -1.873813e+01
  -6.976810e+01   4.423367e+00
  -8.238399e+01  -7.769197e+01
  -1.208435e+01  -1.381423e+02
   1.233326e+02  -1.430670e+02
   2.411206e+02  -2.956941e+01
   1.645353e+02   1.708281e+02
   7.533844e+01   1.932819e+02
  -8.483874e+01   1.692580e+02
  -1.124078e+02   2.327415e+01
  -8.311978e+01  -5.768448e+01
  -4.096873e+01  -2.014147e+01
  -3.954602e+01   2.845258e+01
  -6.873515e+01  -2.693868e+00
  -4.067401e+01  -4.977862e+01
   4.121996e+01  -4.853027e+01
   1.123214e+02  -7.520716e+00
   7.658170e+01  -1.020806e+00
  -1.998317e+00   1.216528e+02
  -1.384431e+02   9.660204e+01
  -1.616055e+02  -4.009774e+01
  -7.532362e+01  -1.886080e+02
   9.564726e+01  -1.620385e+02
   2.813489e+02  -1.256338e+02
   2.127000e+02   7.291772e+01
   1.399242e+02   1.698730e+02
  -1.884059e+01   1.187228e+02
  -9.703636e+01   9.739265e+01
  -5.382726e+01   5.175249e+01
  -5.982582e+01   8.402736e+01
  -4.723393e+01   8.276342e+01
  -9.691431e+01  -4.541351e+00
  -1.136159e+02  -1.398955e+02
  -1.854168e+01  -1.974371e+02
   1.089688e+02  -1.831898e+02
   1.889249e+02  -1.162007e+01
   1.390943e+02   1.149902e+02
   1.827961e+01   1.620233e+02
  -5.460307e+01   1.084221e+02
  -3.895225e+01  -3.997996e+00
  -1.908913e-01  -4.189558e+01
   1.361199e+01  -5.534667e+01
  -2.225800e+01  -4.874389e+01
  -6.390315e+01  -4.007735e+01
  -6.549619e+01  -6.604377e+01
   2.212250e+01   1.358824e+01
   1.652379e+02  -4.877365e+00
   1.400841e+02   1.813902e+01
   2.451673e+01   6.790449e+01
  -7.561663e+01   7.211064e+01
  -1.596145e+02   3.357205e+00
  -5.707387e+01  -5.797690e+01
   4.982715e+01  -8.327070e+01
   7.216915e+01   3.964195e+01
   3.226166e+01   4.358194e+01
  -1.568302e+01   8.214441e+01
  -6.802221e+01   2.642452e+01
  -3.693936e+01  -1.342661e+00
  -4.643374e+01  -8.895829e+00
  -5.696254e+01   9.674205e+00
  -8.205945e+01  -1.953347e+01
  -6.889112e+01  -6.118050e+01
   6.949483e+00  -1.440908e+02
   1.346918e+02  -1.259932e+02
   1.613329e+02  -2.768616e+01
   1.235885e+02   8.210876e+01
   1.197940e+01   9.424987e+01
  -1.404889e+01   4.408232e+01
  -3.780013e+01   6.679831e+00
   8.428201e+01  -9.271957e+00
   1.530013e+02   4.517122e+01
   5.947792e+01   1.194894e+02
  -3.924314e+01   1.116733e+02
  -1.379219e+02   6.655313e+01
  -1.706175e+02  -1.493044e+01
  -6.885032e+01  -8.856671e+01
   3.644482e+01  -5.899932e+01
   6.487743e+01   4.435012e+00
  -1.765943e+01   2.613671e+01
  -1.059534e+02  -2.901464e+01
  -1.245280e+01  -1.233740e+02
   1.044804e+02  -1.277661e+02
   1.624813e+02  -6.619395e+01
   1.219709e+02   7.796872e+01
   3.224422e+01   1.516938e+02
  -5.618618e+01   1.159058e+02
  -7.718677e+01  -2.407038e+00
  -6.203362e+01  -8.959452e+01
  -1.104447e+01  -9.845171e+01
   3.183142e+01  -1.968631e+01
   3.716315e+01  -9.473800e+00
  -1.739390e+00   1.373768e+01
  -2.414614e+01  -4.127027e+01
  -2.482026e+00   1.856279e+01
   4.719836e+01   8.160048e+01
   3.758031e+01   1.246703e+02
  -7.183723e+01   8.671522e+01
  -1.224458e+02  -4.047778e+01
  -1.098165e+02  -8.255183e+01
   2.305543e+00  -2.319330e+01
   1.032925e+02  -3.086943e+01
   9.446493e+01   8.863168e+00
  -2.724758e+01   1.819697e+01
  -2.661708e+01  -2.213934e+00
  -4.614507e+01   9.748050e+00
   4.783717e+01   4.592557e+01
  -2.965104e+01  -2.163420e+01
  -8.390803e+01  -3.423895e+01
  -5.863290e+01  -6.234858e+00
  -6.422912e+00  -8.345804e+01
   1.188936e+02  -1.295632e+02
   1.404646e+02  -8.068656e+01
   1.248003e+02   1.127541e+02
   3.505639e+01   1.577717e+02
  -8.187939e+01   1.066685e+02
  -1.017408e+02   4.268451e+01
  -5.775934e+01  -2.715627e+01
   2.697095e+01  -6.613885e+01
   1.911538e+01   8.390103e+00
  -5.697714e+01  -9.363768e-01
  -6.056707e+01  -5.537790e+01
  -1.322471e+01  -1.123458e+02
   4.326567e+01  -7.076375e+01
   6.548168e+01  -2.010084e+01
   3.139674e+01   9.359137e+01
  -9.482182e+00   1.303540e+02
  -4.983284e+01   2.987190e+01
  -6.000519e+01  -9.164513e+01
  -5.201733e+01  -9.877587e+01
   3.886201e+01  -7.520627e+01
   6.672186e+01  -6.481132e+00
   5.667377e+01   4.770612e+01
  -2.655004e+01   9.539654e+01
  -8.602148e+01   6.336750e+01
   3.090944e+01   2.827180e+00
   7.918968e+01   5.225022e+00
   5.379744e+01   4.535745e+01
  -9.361525e+01   5.180892e+01
  -1.085198e+02   4.541410e+01
  -4.632726e+01  -3.438567e+01
   2.446499e+01  -6.892235e+01
   5.327644e+01  -8.117829e+01
   2.080736e+01  -3.756837e+01
  -5.041392e+01   6.458004e+01
  -1.741794e+01   1.277485e+01
  -4.674159e+01  -4.648669e+01
  -3.412884e+01  -3.878272e+01
  -9.057989e+00  -7.581571e+01
   7.889633e+00  -1.767880e+01
   6.647366e+01   1.215314e+00
   1.235984e+00  -2.214671e+01
  -2.510526e+01  -1.536982e+00
  -1.363358e+00   1.830740e+01
   8.965412e+00   4.932558e+01
  -1.483056e+01   4.052469e+01
  -2.806107e+01   7.124400e+00
  -9.047817e+00  -2.206973e+01
   2.412667e+01  -5.506228e+01
   3.747341e+01   1.397421e+01
   5.802136e+01   4.731573e+01
   1.680656e+01   1.131374e+01
  -6.630158e+01   4.449378e+01
  -9.206029e+01  -2.756713e+01
  -4.324215e+01  -4.511418e+01
   5.757378e+01  -4.261184e+01
   4.240531e+01  -2.766632e+01
   4.270727e+01  -2.479026e+00
  -2.879500e+01  -2.895452e+01
  -4.158884e+01  -8.583236e+00
   2.575402e+01  -2.154852e+01
   3.435412e+01  -5.415058e+01
