
 $NMID
 id='ANONYMOUS ', fmtdat='(2E16.6)'
 volume=1.0
 tramp=1.0
 $END
   3.777234e+03  -6.074044e+01
   2.426821e+03   2.115439e+03
  -4.800918e+02   2.630556e+03
  -1.883157e+03   1.282360e+03
  -1.150939e+03  -4.552947e+02
   2.179371e+02  -3.800246e+02
   7.693140e+02   2.789949e+02
   3.815534e+01   8.679284e+02
  -6.257958e+02   6.552590e+02
  -7.477819e+02   3.698025e+01
  -3.735921e+02  -8.098594e+02
   1.397470e+02  -8.922716e+02
   5.321217e+02  -1.160654e+02
   2.729325e+02   6.559777e+02
  -1.500985e+02   6.536277e+02
  -5.852735e+02   1.902664e+01
  -2.434050e+02  -6.536729e+02
   1.997561e+02  -6.517957e+02
   5.060672e+02  -1.153019e+02
   4.151894e+02   2.997688e+02
   3.673123e+01   4.305714e+02
  -2.245888e+02   2.707332e+02
  -1.627114e+02   8.471470e+01
   1.195242e+02  -9.744967e+00
   3.668093e+02   1.462310e+02
   6.425061e+01   3.470481e+02
  -4.329496e+02   2.776240e+02
  -7.876841e+02  -1.243232e+02
  -3.503032e+02  -4.758086e+02
   3.765726e+02  -3.415184e+02
   7.767610e+02   6.957012e+01
   2.661156e+02   4.016021e+02
  -2.701154e+02   5.212672e+02
  -4.980575e+02   1.676052e+02
  -3.766706e+02  -2.104614e+02
  -9.670086e+01  -4.479805e+02
   1.454896e+02  -2.308283e+02
   1.254694e+02   1.767968e+02
  -8.953283e+01   3.468406e+02
  -3.800213e+02  -5.357966e+01
  -1.352420e+02  -5.801881e+02
   3.247645e+02  -6.112491e+02
   4.525662e+02  -4.148952e+01
   1.952395e+02   4.317518e+02
  -2.183331e+02   2.900117e+02
  -3.500434e+02  -2.671386e+02
   1.485613e+02  -4.571724e+02
   5.631289e+02  -1.387081e+02
   5.178519e+02   3.722745e+02
   1.817680e+02   5.622570e+02
  -3.092805e+02   3.021512e+02
  -5.981998e+02  -8.821565e+01
  -3.499343e+02  -3.398362e+02
   1.092538e+02  -2.983624e+02
   3.884454e+02  -7.374206e+01
   2.503744e+02   1.537572e+02
  -5.595933e+01   4.268314e+01
  -6.675773e+01  -9.370964e+01
   1.076582e+02  -1.351911e+02
   3.307450e+02   5.527959e+01
   1.353172e+02   2.816371e+02
  -2.070827e+02   2.629189e+02
  -3.545375e+02   5.029877e+01
  -2.267983e+02  -6.980606e+01
   7.439722e+01  -2.512374e+02
   2.949409e+02  -3.418117e+02
   3.618863e+02  -1.784980e+02
   2.573059e+02   9.403983e+01
   7.173387e+01   4.340320e+02
  -6.790259e+01   3.518216e+02
  -8.845436e+01   1.407540e+02
  -2.945981e+01   2.555795e+01
  -7.006698e+01   7.814811e+01
  -1.992654e+02   1.181865e+02
  -2.882024e+02  -5.388577e+01
  -1.358816e+02  -2.536933e+02
   1.117759e+02  -2.295056e+02
   2.126734e+02   1.568187e+01
   1.990298e+02   2.126116e+02
  -3.669269e+00   2.699780e+02
  -2.443303e+02   8.029361e+01
  -3.191052e+02  -1.792466e+02
  -2.015600e+02  -3.229139e+02
   8.823587e+01  -3.061191e+02
   2.373070e+02  -1.223152e+02
   1.932891e+02  -2.558297e+01
   8.814727e+01  -6.772356e+01
   2.659339e+02  -3.951505e+01
   4.132502e+02   7.786668e+01
   3.266009e+02   3.022370e+02
  -5.829076e-02   3.141979e+02
  -3.465611e+02   4.288402e+02
  -4.953532e+02   1.513951e+02
  -3.163082e+02  -5.732906e+01
  -3.110776e+01  -2.898428e+02
   1.169125e+02  -2.004034e+02
   7.551521e+01  -7.240546e+01
  -1.260521e+02   6.500268e+01
  -1.972415e+02  -1.044848e+01
  -4.317630e+01  -1.871336e+02
   1.062141e+02  -1.756205e+02
   1.577829e+02   1.189691e+02
   5.121220e+00   1.775022e+02
  -1.959014e+02   3.079752e+01
  -1.445674e+02  -2.435018e+02
   1.371445e+01  -3.550856e+02
   2.427663e+02  -1.958348e+02
   3.281751e+02   3.456744e+01
   2.975934e+02   2.816610e+02
   8.956955e+01   2.185970e+02
  -1.483012e+02   1.438287e+02
  -2.080160e+02  -1.281762e+01
  -9.890689e+01  -2.119738e+01
   1.069724e+02   4.853374e+01
   2.646554e+01   9.697798e+01
  -1.176988e+02   7.160538e+01
  -1.567980e+02  -3.447936e+01
  -5.117249e+01  -4.157285e+01
   1.062035e+02   6.284928e+00
   5.541683e+01   8.325138e+01
  -8.567962e+01   1.240829e+02
  -3.034590e+02  -1.215519e-01
  -2.355141e+02  -1.325469e+02
  -7.010080e+01  -2.612915e+02
   2.232292e+02  -2.604560e+02
   2.638790e+02  -1.504671e+02
   1.600644e+02   5.964541e+01
  -3.699220e+01   8.827751e+01
  -8.892969e+01   4.236191e+00
   5.736177e+01  -1.531099e+02
   1.922267e+02  -3.628796e+01
   1.967003e+02   9.839255e+01
   5.357392e+01   1.805649e+02
  -1.197213e+02   1.511980e+02
  -1.076213e+02   3.396379e+01
  -5.599923e+01  -1.582822e+01
   1.398610e+00   5.864286e+01
   5.793498e+01   8.701409e+01
  -9.199424e+01   1.093130e+02
  -2.186598e+02   3.856078e+01
  -1.668569e+02  -1.313725e+02
  -5.717209e+01  -2.449719e+02
   1.805574e+02  -1.571698e+02
   1.697489e+02  -3.111528e+01
   4.697468e+01   1.423810e+02
  -6.175070e+01   1.120182e+02
  -7.347938e+01   5.552935e+00
  -3.884175e+01  -5.026678e+01
   2.805304e+01   4.521485e+00
   2.644522e+00   8.015946e+00
  -9.266483e+01   1.153924e+01
  -6.860259e+01  -6.639960e+01
  -2.777524e+01  -1.264849e+02
   1.388472e+02  -1.711709e+02
   2.339430e+02  -4.616362e+01
   1.840452e+02   1.361654e+02
   4.411330e+01   2.354644e+02
  -1.270883e+02   1.604806e+02
  -1.293548e+02   2.281019e+01
  -1.128494e+02  -5.606732e+01
  -3.258984e+01  -2.943654e+01
  -6.238177e+01   3.026081e+01
  -9.696998e+01  -4.574177e+00
  -6.574357e+01  -5.129466e+01
   7.048527e+01  -1.194049e+02
   9.134982e+01  -5.639407e+01
   1.012455e+02   3.697688e+01
  -1.106092e+01   1.024726e+02
  -1.461948e+02   6.447848e+01
  -1.899268e+02  -9.555952e+01
  -8.855787e+01  -1.830134e+02
   1.496654e+02  -2.495867e+02
   2.696888e+02  -8.568383e+01
   2.608004e+02   1.040479e+02
   7.623274e+01   1.269596e+02
  -9.169679e+01   1.249728e+02
  -1.367484e+02   7.642655e+01
  -8.129908e+01   6.205634e+01
  -4.734773e+01   1.190238e+02
  -9.075419e+01   8.703551e+01
  -8.954365e+01   2.597548e+00
  -1.494339e+02  -1.526482e+02
  -3.959648e+01  -1.937884e+02
   1.079919e+02  -1.642672e+02
   1.652489e+02   3.783046e+01
   1.020541e+02   1.440667e+02
   1.419450e+01   1.356217e+02
  -5.106715e+01   9.910270e+01
  -7.630411e+01  -6.862075e+00
  -4.869441e+00  -4.217554e+01
  -1.146905e+01  -1.344881e+01
  -5.554251e+01  -1.361596e+00
  -7.808533e+01   5.386733e+00
  -2.038638e+01  -3.141156e+01
   9.592205e+01  -7.317411e+01
   1.665390e+02  -1.141770e+01
   1.452281e+02   7.146385e+01
   4.461587e-01   8.398227e+01
  -1.345351e+02   3.636974e+01
  -1.320505e+02   4.433038e+00
  -9.643200e+01  -8.134066e+01
   4.226796e+01  -4.362477e+01
   8.831531e+01   3.410530e+01
   9.803956e+00   8.670816e+01
  -1.818573e+01   5.521655e+01
  -6.906114e+01  -3.624687e+01
  -3.970957e+01  -8.958852e+01
  -7.346755e+01  -4.720458e+01
  -4.147388e+01   4.173338e+01
  -7.785971e+01   6.957377e-01
  -4.721619e+01  -9.071120e+01
   4.437812e+01  -1.377472e+02
   1.154689e+02  -1.456800e+02
   1.578493e+02   1.142718e+01
   1.515139e+02   9.870554e+01
  -1.570911e+01   1.217366e+02
  -1.086515e+02   4.141496e+01
  -5.884667e+01  -2.843596e+01
   7.331361e+01   1.855014e+00
   1.232010e+02   2.868164e+01
   7.818149e+01   9.164617e+01
  -9.500848e+01   1.447295e+02
  -2.099206e+02   7.349778e+01
  -1.452501e+02  -9.398488e+00
  -2.589830e+00  -8.377073e+01
   8.259517e+01  -7.267301e+01
   2.541883e+01  -2.945685e+01
  -4.178615e+01   2.433460e+01
  -8.771422e+01  -2.534495e+01
  -7.850066e+01  -1.032713e+02
   1.109651e+02  -1.582913e+02
   1.731688e+02  -5.903121e+01
   1.512794e+02   6.226862e+01
   1.833867e+01   2.249893e+02
  -1.094363e+02   1.588011e+02
  -1.317071e+02  -1.487934e+00
  -5.339101e+01  -1.368162e+02
   3.757256e+00  -9.636274e+01
   6.193588e+01   1.460972e+01
   4.476035e+01   3.564328e+01
  -5.420433e+00   6.869701e-01
  -1.341467e+01  -3.638678e+01
   5.947549e+01   1.765401e+01
   7.542917e+01   9.217953e+01
   3.304435e+01   1.437132e+02
  -3.261074e+01   5.186236e+01
  -1.400962e+02  -4.068657e+01
  -1.338519e+02  -7.941538e+01
  -2.661116e+01  -6.280734e+01
   8.200067e+01  -2.956466e+01
   5.330972e+01  -5.902151e+00
   3.563496e+00  -1.483026e+01
  -3.459246e+01   3.322509e+01
  -7.394183e+00  -7.981315e+00
  -5.261642e+00  -1.907682e+01
   4.450564e+01  -1.088319e+01
  -7.396446e+01   1.332099e+01
  -8.668572e+01  -1.200995e+01
  -3.488008e+00  -2.906044e+01
   1.221236e+02  -1.350605e+02
   2.119360e+02  -4.132799e+01
   1.682932e+02   5.617121e+01
   7.220480e+00   1.640231e+02
  -8.747673e+01   1.445998e+02
  -1.266008e+02   9.164287e+01
  -9.286934e+01  -1.137881e+01
  -1.151389e+01  -3.377670e+01
   6.826661e+00   2.234782e+00
  -7.632230e+00   8.334535e+00
  -4.107229e+01  -2.918887e+01
  -2.589006e+01  -8.818911e+01
   3.011629e+01  -5.421736e+01
   9.443214e+01   2.457747e+01
   9.502233e+01   1.740383e+02
  -2.333339e+00   9.890256e+01
  -1.258308e+02   3.929580e+01
  -9.274235e+01  -6.182015e+01
  -8.919566e+00  -1.006034e+02
   8.925393e+01  -3.207179e+01
   7.690042e+01  -1.243405e+01
   3.211611e+01   9.278470e+01
  -4.917819e+01   3.961279e+01
  -3.447224e+01   5.625777e+01
   1.440712e+01  -8.543553e+00
   8.013069e+01  -4.565672e+01
   2.986120e+00   2.023267e+01
  -7.972922e+01   9.811144e+01
  -9.361297e+01   7.130892e+01
  -2.111002e+01   1.202192e+01
  -9.281443e+00  -7.125805e+01
   4.427749e+01  -8.188109e+01
   3.598524e+01   4.426898e+00
   2.677694e+01   2.509587e+01
  -3.364886e+01   2.435750e+01
  -2.790817e+01  -3.365008e+00
  -3.164058e+01  -7.386805e+01
   2.675326e+01   4.627080e+00
   5.434129e+01   5.463785e+01
   4.661063e+01  -4.274820e+00
   2.149710e+01  -3.872772e+01
   1.333030e+00  -4.907847e+01
   8.451265e+00  -2.611941e+01
   1.367958e+01   2.301475e+01
  -9.391489e+00   6.143019e+01
  -2.507344e+01   2.474413e+01
  -7.084270e+01  -3.511576e+01
   2.268148e+00  -4.725672e+01
   6.554215e+01  -1.667102e+01
   8.068736e+01   4.588544e+01
   3.836583e+01   7.892069e+01
  -5.172463e+01   2.356634e+01
  -8.854296e+01  -1.876118e+01
  -6.395854e+01  -4.310676e+01
   4.597508e+01  -6.556067e+01
   5.409122e+01  -3.382519e+01
   6.249307e+01  -1.614966e+01
  -1.730635e+01  -3.136317e+01
  -2.618736e+01  -2.044566e+01
   3.756560e+01  -5.438977e+01
   4.839732e+01  -4.965879e+00
