
 $NMID
 id='ANONYMOUS ', fmtdat='(2E16.6)'
 volume=1.0
 tramp=1.0
 $END
  -3.830469e+03  -4.098258e-01
  -2.510879e+03  -2.158225e+03
   5.588676e+02  -2.749727e+03
   1.852516e+03  -1.157647e+03
   1.046732e+03   4.072198e+02
  -1.856951e+02   4.320854e+02
  -7.344871e+02  -2.561438e+02
  -7.692818e+01  -8.907467e+02
   6.344568e+02  -6.768710e+02
   7.219336e+02   5.664540e+01
   4.186125e+02   7.692114e+02
  -2.088307e+02   9.249365e+02
  -5.524541e+02   1.352613e+02
  -2.620839e+02  -6.351045e+02
   1.534227e+02  -6.590570e+02
   5.611496e+02  -3.205587e+01
   2.089807e+02   6.269630e+02
  -1.958710e+02   6.564521e+02
  -5.663207e+02   1.936193e+02
  -3.764071e+02  -3.052813e+02
  -8.401632e+01  -3.943865e+02
   2.414575e+02  -2.485776e+02
   1.698157e+02  -3.749691e+01
  -1.321584e+02  -5.445731e+00
  -3.480186e+02  -1.747760e+02
  -8.761615e+01  -3.601270e+02
   4.611763e+02  -2.950373e+02
   7.853411e+02   9.115061e+01
   3.803028e+02   4.540086e+02
  -4.071227e+02   3.830724e+02
  -7.434626e+02  -9.332721e+01
  -2.642102e+02  -4.045956e+02
   2.656574e+02  -5.267796e+02
   4.963869e+02  -1.797450e+02
   3.920566e+02   1.753686e+02
   5.025485e+01   4.687150e+02
  -1.985267e+02   2.447031e+02
  -1.136793e+02  -2.000760e+02
   1.777880e+02  -3.927263e+02
   3.328418e+02   7.915091e+01
   1.200398e+02   5.488807e+02
  -3.269182e+02   6.313436e+02
  -4.332610e+02   3.803347e+01
  -2.057276e+02  -4.684920e+02
   2.603293e+02  -2.405936e+02
   3.945324e+02   3.158778e+02
  -1.327804e+02   4.865953e+02
  -5.450089e+02   1.458351e+02
  -5.438480e+02  -4.030753e+02
  -1.758669e+02  -5.569959e+02
   3.489771e+02  -2.842062e+02
   6.244182e+02   6.285006e+01
   3.225700e+02   3.322862e+02
  -1.094294e+02   3.125499e+02
  -4.022314e+02   6.843814e+01
  -2.431483e+02  -1.767481e+02
   3.049311e+01  -9.671590e+01
   1.109876e+02   1.434966e+02
  -1.220963e+02   1.525127e+02
  -3.682883e+02  -7.826521e+01
  -1.461149e+02  -2.518168e+02
   1.737846e+02  -2.444802e+02
   3.415222e+02  -8.545655e+01
   2.104077e+02   1.080300e+02
  -2.112877e+01   2.454165e+02
  -2.677076e+02   3.183954e+02
  -3.424866e+02   1.647621e+02
  -2.304744e+02  -1.258174e+02
  -3.263152e+01  -4.292131e+02
   1.231400e+02  -3.872662e+02
   1.173468e+02  -1.279090e+02
   1.719022e+01  -2.178780e+00
   5.924948e+01  -9.646730e+01
   2.074006e+02  -1.507298e+02
   2.799020e+02   7.158488e+01
   1.393853e+02   2.688786e+02
  -8.642449e+01   2.341987e+02
  -2.169457e+02  -3.888875e+00
  -1.894702e+02  -2.830574e+02
   2.321959e+01  -2.541848e+02
   2.810219e+02  -1.638814e+02
   3.171780e+02   1.197953e+02
   2.217126e+02   3.510002e+02
  -9.333797e+01   3.034463e+02
  -2.349877e+02   1.275074e+02
  -1.505380e+02   4.817207e+01
  -1.053019e+02   4.074382e+01
  -2.740760e+02   5.908244e+01
  -4.137558e+02  -6.077183e+01
  -3.481275e+02  -2.874990e+02
  -7.316887e+00  -3.938138e+02
   3.751743e+02  -3.680321e+02
   4.762946e+02  -1.721838e+02
   2.955205e+02   9.380999e+01
   6.802680e+01   3.031402e+02
  -8.552847e+01   2.220308e+02
  -7.207622e+01   4.808911e+01
   1.683955e+02  -6.572287e+01
   1.691697e+02   3.750891e+01
   4.878848e+01   2.190114e+02
  -1.595351e+02   1.543669e+02
  -1.738752e+02  -7.288769e+01
   2.759909e+01  -1.794666e+02
   1.679626e+02  -1.197608e+01
   1.129436e+02   2.314807e+02
   1.972877e+00   3.123963e+02
  -2.182095e+02   1.736539e+02
  -3.536250e+02  -5.027091e+01
  -2.496609e+02  -2.282653e+02
  -9.185319e+01  -2.471857e+02
   1.155014e+02  -1.396449e+02
   1.397955e+02  -2.797152e+01
   3.853587e+01   1.676563e+01
  -8.861087e+01  -4.455133e+01
  -3.135219e+01  -1.169648e+02
   1.142323e+02  -8.302333e+01
   1.706681e+02   2.241654e+01
   2.078129e+01   6.685698e+01
  -1.080672e+02   1.780048e+01
  -8.836972e+01  -8.471011e+01
   1.588415e+02  -6.011035e+01
   3.173871e+02   3.029918e+01
   2.938571e+02   1.406670e+02
   7.359590e+01   2.196569e+02
  -2.238141e+02   2.820628e+02
  -2.717439e+02   1.079986e+02
  -1.266631e+02  -1.616708e+01
   3.010803e+01  -6.937536e+01
   6.035140e+01  -2.477902e+01
  -4.413924e+01   1.032911e+02
  -2.028177e+02   4.868677e+01
  -1.858838e+02  -1.271721e+02
  -9.765416e+01  -1.905332e+02
   5.901239e+01  -2.243614e+02
   1.222483e+02  -5.342480e+00
   5.585498e+01   3.838886e+01
  -4.662612e+01  -5.066237e+01
  -3.720042e+01  -1.139910e+02
   8.702375e+01  -8.819468e+01
   1.806534e+02  -3.747507e+01
   1.777850e+02   1.260173e+02
  -1.179494e+00   2.026667e+02
  -1.996792e+02   1.207590e+02
  -1.881491e+02   3.225354e+01
  -5.497401e+01  -9.933786e+01
   6.021965e+01  -1.190991e+02
   8.199170e+01  -8.242299e+01
  -1.488289e+01  -9.862353e+00
  -3.087853e+01   2.508428e+01
   8.506033e+00  -3.796258e+01
   3.721573e+01  -1.254052e+01
   8.732491e+01   1.098013e+02
   4.264322e+01   1.456153e+02
  -1.321441e+02   1.647479e+02
  -2.115618e+02   3.950504e+01
  -2.237508e+02  -1.593161e+02
  -2.326146e+01  -1.826362e+02
   8.785937e+01  -1.684169e+02
   1.519779e+02  -3.215230e+01
   7.783589e+01   7.209932e+01
   3.868896e+01   1.477578e+01
   5.600959e+01  -6.443435e+00
   9.836091e+01   1.268189e+00
   4.296469e+01   4.871109e+01
  -5.370062e+01   1.504202e+02
  -1.118961e+02   2.932911e+01
  -6.988568e+01  -5.260562e+01
   1.671987e+01  -8.878365e+01
   1.498424e+02  -7.287390e+01
   1.994811e+02   4.635942e+01
   6.367643e+01   2.022590e+02
  -1.416666e+02   2.256196e+02
  -3.327631e+02   8.517908e+01
  -2.356946e+02  -9.692393e+01
  -8.405411e+01  -1.265008e+02
   5.082811e+01  -1.059943e+02
   7.728377e+01  -8.995945e+01
   9.443237e+01  -4.164229e+01
   5.972642e+01  -7.690187e+01
   9.091471e+01  -1.055616e+02
   1.117773e+02   1.821424e+01
   8.168756e+01   1.856084e+02
   2.000557e+01   2.200172e+02
  -9.431613e+01   1.981703e+02
  -1.692116e+02   2.044150e+01
  -8.472823e+01  -1.545866e+02
   8.340083e+00  -1.650918e+02
   6.599244e+01  -6.052796e+01
   7.307433e+01   1.199558e+01
  -3.798202e+01   1.955242e+01
  -1.451016e+01   2.507479e+01
   4.829508e+01  -7.708961e+00
   1.053360e+02  -1.576263e+00
   3.355247e+01   3.358162e+01
  -7.535057e+01   4.839443e+01
  -1.696357e+02   3.868453e+01
  -1.372091e+02  -3.997475e+01
  -1.036867e+01  -8.573880e+01
   1.194676e+02  -6.680410e+01
   1.217686e+02  -1.570400e+01
   4.874994e+01   4.542097e+01
  -4.536818e+01   8.420348e+01
  -5.651052e+01  -1.043975e+01
  -3.170603e+01  -6.534961e+01
   4.076914e+01  -1.008208e+02
   7.504646e+01   3.663437e+01
   1.994045e+01   6.448546e+01
   3.857783e+01   4.378964e+01
   6.661717e+01  -2.302493e+01
   1.040678e+02  -2.935239e+01
   4.131484e+01   7.267041e+01
  -3.840516e+01   1.545346e+02
  -1.147322e+02   1.124035e+02
  -1.753465e+02   6.049452e+01
  -1.235891e+02  -8.278933e+01
   7.711459e+00  -1.397793e+02
   7.102300e+01  -6.733801e+01
   7.808037e+01   4.696470e+01
  -9.516877e+01   2.821145e+01
  -1.375757e+02  -6.341822e+01
  -9.561534e+01  -9.164388e+01
   7.247051e+01  -1.087669e+02
   1.975795e+02  -6.475626e+00
   1.030039e+02  -4.950693e+00
   2.346656e+01   1.008116e+02
  -8.706250e+01   7.565147e+01
  -6.905326e+01   1.624572e+00
   3.765894e+01  -3.225643e+01
   8.869063e+01   2.672033e+01
   5.348874e+01   1.136602e+02
  -6.820743e+01   1.859166e+02
  -1.760358e+02   4.770960e+01
  -1.327333e+02  -1.097801e+02
   3.862723e+00  -2.081399e+02
   7.027346e+01  -1.479427e+02
   1.245763e+02   5.523752e+00
   6.008139e+01   1.045301e+02
   1.118218e+01   1.136853e+02
  -5.566276e+01   3.680262e+01
  -1.151529e+02  -6.759117e+01
   3.943426e+01  -1.181512e+01
  -3.760098e+01  -1.750683e+00
  -1.592961e+01  -4.552866e+01
  -7.942950e+01  -6.954414e+01
  -7.516163e+01  -1.512077e+02
   4.151883e+01  -7.928488e+01
   1.190121e+02   4.978247e+01
   1.108600e+02   9.843201e+01
   1.821944e+01   5.508060e+00
  -1.114144e+02   2.775305e+01
  -1.009649e+02   4.838472e+00
  -7.763878e+00   1.411409e+00
   2.845216e+01  -3.022023e+00
  -2.344851e+01  -9.984870e+00
  -3.580577e+01  -5.373141e+00
   3.572830e+01   3.197706e+01
   8.573763e+01  -2.283874e+01
   8.693264e+01   3.545510e+01
   2.591387e+01   7.655182e+01
  -1.198225e+02   1.613371e+02
  -1.828517e+02   8.092435e+01
  -1.445735e+02  -6.551029e+01
  -3.034722e+01  -1.832278e+02
   9.873966e+01  -1.513264e+02
   1.516929e+02  -1.685329e+01
   6.576583e+01   3.448424e+01
  -1.600046e+01   5.520762e+00
   5.142680e+01   8.073993e+00
   3.050247e+01  -8.172111e+00
   2.545542e+01   5.073475e+01
   3.690505e+01   9.889019e+01
  -1.901013e+01   7.773342e+01
  -5.980152e+01  -5.161102e+01
  -5.248085e+01  -1.536089e+02
   5.381549e+00  -7.009470e+01
   8.716741e+01  -5.124275e+01
   8.456242e+01   9.431287e+01
   4.768155e+01   9.642023e+01
  -5.564823e+01   2.371743e+01
  -1.005703e+02  -2.513650e+00
  -3.141787e+01  -6.392575e+01
   3.513647e+00  -4.558526e+01
   5.375604e+01  -6.885334e+01
  -1.621375e+01   2.966704e+00
  -7.221270e+01  -2.821383e+01
  -1.531800e+01  -3.277972e+01
   9.605384e+01  -6.374959e+01
   1.125376e+02  -8.947102e+01
   6.137881e+01  -2.183665e+01
  -9.159856e+00   1.061912e+02
  -6.690686e+01   1.156330e+02
  -4.479522e+01   8.190232e+00
   4.315610e+00  -3.658232e+01
   1.183378e+01  -3.434458e+01
   7.933761e+01  -7.649572e+00
   3.655146e+01   2.233033e+01
  -2.121351e+01   2.344259e+01
  -2.611434e+01   2.282080e+01
  -5.305592e+01  -1.825539e+01
   2.025584e+00  -3.280575e+01
  -1.065873e+01   2.591415e+01
   3.643062e+01   6.142108e+00
   2.162518e+00  -2.739713e+01
   5.502907e-01  -8.049780e+01
   4.355197e+01  -2.810219e+01
   2.258868e+00   4.517021e+01
  -4.248844e+01   4.818590e+01
  -4.462120e+01   4.291382e+01
  -7.233632e+01  -4.744174e+01
  -1.648324e+01  -8.207380e+01
   2.409527e+01  -4.666935e+01
   1.139806e+02   1.129879e+01
   5.470572e+01   5.187280e+01
  -2.245830e+01   6.997576e+01
  -5.180206e+01   1.852614e+01
  -6.028805e+01   3.190761e+01
   6.382501e+01   2.082213e+01
   2.625429e+01  -2.817233e+00
  -6.911848e+01   2.911005e+01
  -8.172852e+01  -2.897154e+00
