
 $NMID
 id='ANONYMOUS ', fmtdat='(2E16.6)'
 volume=1.0
 tramp=1.0
 $END
   3.981379e+03   1.557402e+02
   2.372546e+03   2.305400e+03
  -6.760685e+02   2.925939e+03
  -2.010184e+03   1.204333e+03
  -1.086705e+03  -4.548351e+02
   4.369641e+02  -5.959931e+02
   7.733304e+02   3.181593e+02
   5.093009e+01   9.273671e+02
  -7.213449e+02   6.336045e+02
  -7.663890e+02  -4.089315e+01
  -4.579006e+02  -8.521622e+02
   2.635651e+02  -9.464469e+02
   5.487140e+02  -2.983935e+01
   3.634585e+02   7.157644e+02
  -1.819654e+02   7.099084e+02
  -5.975279e+02   4.655292e+00
  -1.757108e+02  -7.048024e+02
   2.762035e+02  -6.150233e+02
   5.749602e+02  -1.662515e+02
   3.925258e+02   3.161251e+02
   6.606669e+01   4.649719e+02
  -2.424527e+02   2.305102e+02
  -1.556865e+02   4.823675e+01
   1.151296e+02  -4.943927e+01
   3.156842e+02   1.092165e+02
   1.118536e+02   4.264397e+02
  -4.493201e+02   3.201635e+02
  -8.246964e+02  -2.011368e+02
  -4.083722e+02  -5.068015e+02
   4.293523e+02  -4.352546e+02
   7.900395e+02   1.027777e+02
   2.553172e+02   4.060301e+02
  -2.870812e+02   5.216855e+02
  -5.048368e+02   1.310105e+02
  -4.474822e+02  -1.761093e+02
  -6.638199e+01  -4.928973e+02
   2.008220e+02  -3.087151e+02
   1.293321e+02   2.442008e+02
  -1.878652e+02   4.141184e+02
  -4.072149e+02  -7.641680e+01
  -1.558502e+02  -6.355748e+02
   3.385591e+02  -6.371122e+02
   4.891358e+02   3.588569e+01
   2.083436e+02   4.681032e+02
  -2.606624e+02   3.419876e+02
  -3.856313e+02  -3.083885e+02
   9.421989e+01  -4.923145e+02
   5.368992e+02  -1.004384e+02
   5.770224e+02   4.079675e+02
   1.631465e+02   5.494852e+02
  -3.988813e+02   2.987770e+02
  -6.541048e+02  -1.815391e+01
  -3.375712e+02  -3.483951e+02
   1.243678e+02  -3.560155e+02
   4.292025e+02  -2.944526e+01
   2.517726e+02   2.033770e+02
  -7.779419e+01   8.851516e+01
  -1.273545e+02  -1.494608e+02
   1.542855e+02  -1.722113e+02
   3.631954e+02   7.778058e+01
   1.377955e+02   2.635783e+02
  -2.122228e+02   2.607406e+02
  -3.208854e+02   6.811504e+01
  -1.930493e+02  -8.563448e+01
   2.307034e+00  -2.241386e+02
   2.247778e+02  -3.314543e+02
   3.495915e+02  -1.881969e+02
   2.508122e+02   1.116106e+02
   3.563516e+01   4.317030e+02
  -1.019569e+02   3.867132e+02
  -9.196490e+01   1.000485e+02
  -4.952876e+01   1.203709e+01
  -8.141724e+01   8.546236e+01
  -2.173091e+02   1.349407e+02
  -3.022485e+02  -5.449360e+01
  -2.070426e+02  -2.373249e+02
   6.331930e+01  -2.689403e+02
   1.790130e+02  -5.507335e+00
   2.289356e+02   2.372664e+02
  -1.157239e+01   2.880932e+02
  -2.571329e+02   1.293159e+02
  -3.339883e+02  -1.448873e+02
  -2.225063e+02  -3.283916e+02
   7.654128e+01  -2.689328e+02
   2.160866e+02  -1.608834e+02
   1.700495e+02  -2.745177e+01
   8.485916e+01  -4.096165e+01
   2.250362e+02  -7.754019e+01
   3.777354e+02   1.028794e+02
   3.313705e+02   3.046089e+02
  -2.009110e+01   3.922039e+02
  -3.525395e+02   4.007672e+02
  -5.064925e+02   1.879341e+02
  -3.320860e+02  -7.287548e+01
  -2.084784e+01  -2.896554e+02
   1.332918e+02  -2.152595e+02
   9.134743e+01  -4.108190e+01
  -1.126904e+02   6.155554e+01
  -2.015194e+02  -1.524426e+01
  -2.373073e+01  -1.632688e+02
   1.803174e+02  -1.685999e+02
   2.065684e+02   3.263551e+01
  -3.847457e+01   1.806258e+02
  -1.844524e+02   2.565105e+01
  -1.448446e+02  -2.231905e+02
  -7.557512e+00  -3.327897e+02
   1.988436e+02  -1.964539e+02
   3.191028e+02   5.697198e+01
   2.802231e+02   2.254800e+02
   7.747915e+01   2.632454e+02
  -1.365879e+02   1.677174e+02
  -1.641818e+02   2.184679e+01
  -3.201039e+01  -2.269431e+01
   9.151171e+01   7.111183e+01
   6.531550e+01   1.044212e+02
  -9.558964e+01   8.330874e+01
  -1.754938e+02  -2.920547e+01
  -5.406056e+01  -7.970385e+01
   8.616255e+01   4.237141e+00
   8.028370e+01   7.198581e+01
  -1.311914e+02   1.190556e+02
  -2.326288e+02  -5.826457e+01
  -2.791516e+02  -1.417424e+02
  -7.665613e+01  -2.108536e+02
   2.058058e+02  -3.015961e+02
   2.984825e+02  -1.041485e+02
   1.575651e+02   2.040643e+01
  -1.380445e+01   1.320063e+02
  -8.914320e+01   2.386941e+01
   2.202228e+01  -9.953837e+01
   1.910315e+02  -6.535532e+01
   2.287623e+02   8.323042e+01
   6.157321e+01   1.794673e+02
  -1.026023e+02   1.467908e+02
  -1.452657e+02   4.970045e+01
  -4.149756e+01  -6.922631e+01
  -5.266954e+00  -9.673039e+00
   4.801270e+01   7.913976e+01
  -6.107838e+01   9.868606e+01
  -2.109145e+02   2.337776e+01
  -1.507901e+02  -1.277704e+02
  -1.379108e+01  -1.909372e+02
   1.649799e+02  -1.683793e+02
   1.876072e+02   7.128124e+00
   8.545278e+01   1.194233e+02
  -8.614663e+01   1.173842e+02
  -4.979045e+01   1.073882e+01
  -1.765175e+01  -1.130812e+01
   2.381301e+01  -1.874212e+01
  -1.288710e+01  -2.554859e+01
  -9.503319e+01  -4.486956e+01
  -6.764859e+01  -5.396562e+01
  -1.125311e+00  -1.543081e+02
   1.078590e+02  -1.498191e+02
   2.156361e+02  -2.282029e+01
   1.369091e+02   1.374991e+02
   6.309377e+01   2.199913e+02
  -1.277684e+02   1.740911e+02
  -1.657327e+02  -2.805696e+00
  -6.067730e+01  -1.028218e+02
  -4.253588e+01  -1.226769e+01
  -4.667887e+01   1.191174e+01
  -7.738899e+01   2.276236e+01
  -6.358766e+01  -7.320175e+00
   6.655418e+01  -1.314589e+02
   9.195350e+01  -2.259381e+01
   6.014041e+01   3.263433e+01
  -4.231822e+01   1.379493e+02
  -1.496490e+02   9.128722e+01
  -1.930490e+02  -6.327558e+01
  -1.060906e+02  -1.796505e+02
   9.432278e+01  -2.594478e+02
   2.838329e+02  -1.101202e+02
   2.510159e+02   8.146481e+01
   1.068626e+02   2.083690e+02
  -6.955687e+01   1.327926e+02
  -9.657509e+01   7.405631e+01
  -1.144785e+02   4.816572e+01
  -5.301701e+01   8.441720e+01
  -7.132307e+01   7.471117e+01
  -1.287537e+02  -3.673798e+01
  -1.213789e+02  -1.677779e+02
  -1.695934e+01  -2.613416e+02
   1.187153e+02  -1.840568e+02
   1.645169e+02   1.706342e+01
   1.144822e+02   1.288071e+02
  -2.490666e+01   1.793507e+02
  -9.067922e+01   5.986442e+01
  -9.221990e+01  -2.251206e+01
   6.926726e-01  -6.436073e+01
   4.693629e+00  -2.801241e+01
  -3.162128e+01   6.656983e+00
  -8.719782e+01  -2.727444e+01
  -3.200349e+01  -1.681505e+01
   4.450485e+01  -3.027260e+01
   1.655707e+02  -2.500243e+01
   1.446570e+02   5.979015e+01
   1.648133e+01   9.034896e+01
  -1.422919e+02   8.725718e+01
  -1.258749e+02   3.300916e+01
  -4.478338e+01  -2.343516e+01
   7.684682e+01  -4.568666e+01
   6.277569e+01   8.567960e+00
   1.822407e+01   6.596829e+01
  -3.905869e+01   4.784736e+01
  -3.551987e+01  -2.384192e+01
  -4.632465e+01  -9.630224e+01
  -2.323164e+01  -1.426012e+01
  -4.014150e+01  -6.063854e-01
  -5.814037e+01  -7.717366e-01
  -6.003380e+01  -6.427067e+01
   6.119358e+01  -1.337222e+02
   1.198083e+02  -1.508799e+02
   1.605580e+02  -1.729966e+01
   1.379574e+02   1.158269e+02
  -4.284770e+01   1.205269e+02
  -8.812014e+01   3.882039e+01
  -8.071810e+01   7.361094e+00
   2.435309e+01  -2.052862e+01
   1.557893e+02  -8.411554e+00
   9.078428e+01   9.753966e+01
  -8.854626e+01   1.420430e+02
  -1.733695e+02   3.351309e+01
  -1.526345e+02  -1.625871e+01
  -2.099657e+01  -7.915227e+01
   6.872513e+01  -8.505518e+01
   4.608052e+01   3.554889e+00
  -6.147884e+01  -1.503464e+01
  -9.461787e+01  -9.356100e+00
  -3.471078e+01  -1.181142e+02
   4.746469e+01  -1.801512e+02
   1.805851e+02  -6.844009e+01
   1.660187e+02   8.258248e+01
   1.744553e+01   1.829673e+02
  -1.185244e+02   1.360008e+02
  -1.195654e+02  -2.341212e+01
  -5.820404e+01  -1.116969e+02
  -1.969819e+01  -1.132052e+02
   4.512677e+01  -1.655316e+01
   3.632205e+01   8.010128e+01
   3.619527e+01  -4.087013e-01
   3.421689e+00  -2.444304e+01
   2.349588e+01   1.421863e+01
   6.250229e+01   8.326733e+01
   1.262208e+01   9.346269e+01
  -4.921486e+01   5.290725e+01
  -1.502886e+02  -4.739874e+01
  -8.360301e+01  -5.262198e+01
  -9.714607e+00  -5.763015e+01
   9.202331e+01  -4.108672e+01
   1.017936e+02  -4.992472e+00
   2.065983e+01  -2.987387e+01
  -1.763708e+01   5.145824e+00
  -2.435385e+01   8.729266e+00
   3.145183e+01   2.049454e+01
  -5.281434e-01  -1.974080e+01
  -6.556805e+01  -1.210768e+01
  -1.079177e+02   6.468816e+00
  -3.407895e+01  -7.166611e+01
   7.406328e+01  -1.241427e+02
   1.785397e+02  -2.133451e+01
   1.214387e+02   6.823730e+01
  -7.360095e+00   1.218845e+02
  -7.404412e+01   1.420846e+02
  -1.329708e+02   3.877365e+01
  -7.386256e+01  -6.857006e+00
  -1.104913e+01  -3.086724e+01
   3.124759e+01  -3.675090e+00
   1.582836e+01  -1.608606e+01
  -2.342370e+01  -5.197759e+00
  -8.302363e+00  -6.255985e+01
   4.434795e+01  -6.372770e+01
   6.810693e+01   2.433992e+01
   1.104011e+02   1.499196e+02
  -1.047226e+01   9.634689e+01
  -1.002104e+02   1.514506e+01
  -9.521996e+01  -3.850320e+01
  -4.389836e+01  -9.806824e+01
   8.496021e+01  -2.715129e+01
   1.096958e+02   3.050828e+01
   4.099389e+01   2.875257e+01
  -1.441664e+01   3.414094e+01
  -1.673818e+01   3.425114e+00
  -3.529887e+00   1.885999e+00
   8.142523e+01  -1.721235e+01
  -7.296877e+00   3.920985e+01
  -8.068581e+01   7.127333e+01
  -9.717392e+01   8.587153e+01
  -6.771753e+01  -7.662404e+00
  -1.750015e+01  -7.331253e+01
   6.317631e+01  -8.234656e+01
   8.378607e+01  -2.855476e+01
  -2.840932e+01   3.187420e+01
  -2.793048e+01   5.597491e+01
  -2.455167e+01  -1.928803e+01
  -5.061265e+00  -4.129524e+01
   5.999769e+01  -1.612564e+01
   2.115065e+01  -1.152795e+01
   6.188095e+01   7.691075e+00
  -6.014351e+00   1.116572e+01
   1.690677e+01  -1.116510e+00
   5.162141e+00   2.145524e-01
  -1.385522e+01   2.424901e+01
   2.341319e+01   7.088221e+01
  -9.189836e+00   3.404091e+01
  -3.736017e+01  -6.099057e+01
   1.112608e-01  -4.628975e+01
   7.305912e+01  -1.489529e+00
   4.890942e+01   4.521419e+01
   2.236026e+01   4.746974e+01
  -5.242005e+01   4.545117e+01
  -1.065553e+02  -2.168426e+00
  -6.427498e+01  -3.437050e+00
   2.926795e+01  -6.639702e+01
   4.594290e+01  -4.378874e+01
   4.403918e+01   1.009110e+01
  -5.443424e+01  -4.092096e+00
   1.531584e+00  -9.418061e+00
   3.451495e+01  -4.295384e+01
   1.507233e+02  -3.786485e+01
