
 $NMID
 id='ANONYMOUS ', fmtdat='(2E16.6)'
 volume=1.0
 tramp=1.0
 $END
   4.142172e+03   2.692961e+02
   2.342740e+03   2.354209e+03
  -6.481655e+02   2.699330e+03
  -2.099199e+03   1.170509e+03
  -1.219354e+03  -4.844816e+02
   4.471605e+02  -6.710519e+02
   8.010255e+02   2.890888e+02
   2.144447e+01   9.671766e+02
  -7.902021e+02   6.694905e+02
  -8.092522e+02  -2.878005e+00
  -3.241935e+02  -8.375153e+02
   1.893772e+02  -9.410829e+02
   5.499962e+02  -1.194465e+02
   4.000128e+02   6.928652e+02
  -2.297556e+02   7.224947e+02
  -5.654597e+02   6.863756e+01
  -2.386788e+02  -6.621573e+02
   3.149680e+02  -6.495102e+02
   5.264263e+02  -7.973773e+01
   3.877882e+02   3.444878e+02
   1.666197e+01   4.775767e+02
  -2.467560e+02   2.694116e+02
  -1.750496e+02   3.795793e+01
   9.681782e+01  -5.086678e+01
   2.984185e+02   1.391625e+02
   1.365189e+02   4.232984e+02
  -4.892967e+02   3.369885e+02
  -8.079888e+02  -1.800463e+02
  -4.262223e+02  -5.013968e+02
   4.361285e+02  -4.336194e+02
   7.298075e+02   4.994038e+01
   3.077021e+02   4.323935e+02
  -2.400150e+02   5.168927e+02
  -5.469633e+02   1.865673e+02
  -3.974635e+02  -1.755208e+02
  -8.479040e+01  -4.429935e+02
   1.923197e+02  -3.103943e+02
   1.045109e+02   1.948640e+02
  -1.704500e+02   3.860750e+02
  -3.659394e+02   1.118773e-01
  -1.618659e+02  -6.181526e+02
   3.376157e+02  -6.658393e+02
   5.264902e+02  -4.250610e+01
   1.982672e+02   5.134949e+02
  -2.708315e+02   2.728679e+02
  -4.114739e+02  -2.882430e+02
   9.331240e+01  -5.302908e+02
   4.579712e+02  -1.090038e+02
   5.842989e+02   3.859516e+02
   1.474272e+02   5.656873e+02
  -3.929619e+02   2.874875e+02
  -6.324722e+02  -4.772485e+01
  -3.509623e+02  -3.683842e+02
   1.449542e+02  -3.405666e+02
   3.951525e+02  -9.007429e+01
   2.558512e+02   1.935210e+02
  -8.233768e+01   9.259244e+01
  -1.227261e+02  -1.933884e+02
   1.695892e+02  -1.654634e+02
   3.850938e+02   1.111352e+02
   1.765626e+02   3.244553e+02
  -2.514767e+02   2.391262e+02
  -3.518125e+02   7.600824e+01
  -2.075334e+02  -7.789218e+01
   4.263183e+01  -2.628259e+02
   2.628373e+02  -3.229733e+02
   3.562640e+02  -2.554858e+02
   2.490667e+02   1.417141e+02
   1.017879e+02   4.356857e+02
  -1.000030e+02   4.211202e+02
  -8.673295e+01   1.276825e+02
  -6.991049e+01   2.435789e+01
  -9.102844e+01   7.808940e+01
  -2.120716e+02   1.334982e+02
  -2.504865e+02  -2.702798e+01
  -1.881194e+02  -2.644882e+02
   3.449520e+01  -2.534842e+02
   1.554342e+02  -1.817160e+01
   2.043204e+02   2.412650e+02
   6.179654e+00   2.772308e+02
  -2.483689e+02   1.311475e+02
  -3.405733e+02  -1.882888e+02
  -1.966584e+02  -3.578508e+02
   1.239588e+02  -2.956828e+02
   2.777257e+02  -1.240285e+02
   1.661220e+02  -1.479940e+01
   1.002769e+02  -3.068484e+01
   2.661808e+02  -6.352407e+01
   4.111934e+02   4.716833e+01
   3.456762e+02   2.667773e+02
  -7.421427e+00   3.789234e+02
  -3.245211e+02   3.455599e+02
  -4.311001e+02   1.673654e+02
  -3.286355e+02  -8.851799e+01
  -5.956348e+01  -2.948814e+02
   1.262769e+02  -2.570157e+02
   7.673785e+01  -2.461163e+01
  -9.052479e+01   3.994718e+01
  -1.877496e+02  -1.619341e+01
  -4.162589e+01  -1.943642e+02
   1.786660e+02  -1.556915e+02
   1.823447e+02   9.581508e+01
  -6.710724e+00   1.704195e+02
  -1.592284e+02   3.347009e+01
  -1.752330e+02  -2.417006e+02
   7.198146e+00  -3.520228e+02
   1.922055e+02  -1.590643e+02
   2.733326e+02   9.011813e+01
   2.504809e+02   2.204327e+02
   4.603709e+01   2.949996e+02
  -1.211767e+02   1.686794e+02
  -1.556230e+02   4.369078e+01
  -4.992936e+01  -4.568544e+01
   6.782062e+01   5.539882e+01
   3.434802e+01   1.175877e+02
  -1.485286e+02   8.270820e+01
  -1.956694e+02  -2.948132e+01
  -5.370554e+01  -1.048273e+02
   9.541774e+01  -4.603103e+01
   6.759062e+01   6.177489e+01
  -1.389215e+02   7.574363e+01
  -2.785293e+02   3.546554e+01
  -2.718761e+02  -1.624996e+02
  -3.486903e+01  -2.589848e+02
   1.595552e+02  -2.505297e+02
   2.427183e+02  -1.362463e+02
   1.610710e+02   3.492601e+01
   1.347179e+00   1.120586e+02
  -3.950960e+01  -4.140262e+00
   5.638139e+01  -1.009044e+02
   1.554360e+02  -6.872700e+01
   1.919663e+02   7.873978e+01
   6.395648e+01   2.139599e+02
  -8.665017e+01   1.746194e+02
  -1.193147e+02   2.839935e+01
  -8.023753e+01  -5.149940e+01
   1.741825e+01  -1.161464e+01
   4.359300e+01   6.282356e+01
  -8.429509e+01   1.329387e+02
  -2.183552e+02   2.316863e+01
  -1.718368e+02  -1.465191e+02
  -4.614287e+01  -2.383160e+02
   1.729577e+02  -1.725094e+02
   1.858638e+02  -1.822269e+01
   9.194803e+01   1.152982e+02
  -3.242640e+01   8.691112e+01
  -1.088633e+02   4.065775e+01
  -2.229609e+01  -4.042974e+01
  -2.386278e+00  -3.299620e+01
  -3.920204e+01   1.930959e+01
  -8.584684e+01  -8.323734e+00
  -8.552629e+01  -9.057756e+01
  -2.770588e+01  -1.875349e+02
   1.083542e+02  -1.371505e+02
   2.400986e+02  -4.635896e+01
   1.549750e+02   1.356464e+02
   6.551650e+01   2.410106e+02
  -1.387836e+02   1.557006e+02
  -1.226109e+02   5.086912e+01
  -6.760937e+01  -4.680658e+01
  -4.044646e+01  -4.399182e+01
  -7.203922e+01  -2.456665e+00
  -8.511925e+01  -6.311918e+00
  -4.050070e+01  -8.916414e+01
   3.491267e+01  -8.142809e+01
   8.754750e+01  -5.927930e+01
   8.242126e+01   4.728050e+01
  -1.851131e+01   9.287224e+01
  -1.072924e+02   6.652556e+01
  -2.279416e+02  -3.393811e+01
  -9.916310e+01  -2.293777e+02
   1.011531e+02  -2.278302e+02
   2.770259e+02  -9.813832e+01
   2.358663e+02   9.234606e+01
   1.423714e+02   2.080055e+02
  -7.553761e+01   1.654880e+02
  -6.953441e+01   7.188365e+01
  -8.929713e+01   4.843657e+01
  -7.459288e+01   1.001505e+02
  -9.776773e+01   6.748672e+01
  -1.187202e+02  -1.322719e+01
  -1.150851e+02  -1.353061e+02
  -3.233199e+01  -2.284703e+02
   1.034536e+02  -1.508638e+02
   1.676925e+02  -2.662328e+01
   1.163871e+02   1.185859e+02
   1.824769e+01   1.490278e+02
  -6.264559e+01   1.156485e+02
  -9.216113e+01   1.497097e+01
   7.880041e+00  -6.459114e+01
  -7.521997e+00  -5.597639e+01
  -3.584863e+01  -5.529081e+01
  -1.043614e+02  -1.600648e+01
  -5.067092e+01  -4.480672e+01
   5.914138e+01  -8.569284e+00
   1.878710e+02  -1.730114e+01
   1.198927e+02  -2.120467e-03
   1.819825e+01   6.493803e+01
  -1.045616e+02   1.275513e+02
  -1.643744e+02   4.714913e+01
  -4.031316e+01  -5.256991e+01
   8.356817e+01  -5.029604e+01
   5.373713e+01   6.961215e+00
  -1.947246e+01   7.399427e+01
  -4.843124e+01   6.911891e+01
  -5.997628e+01  -8.510050e+00
  -6.800544e+00  -6.965779e+01
  -6.506686e+01  -2.096392e+01
  -4.030621e+01   2.843462e+00
  -3.827215e+01  -1.335709e+01
  -2.441282e+01  -4.739547e+01
   3.103804e+01  -1.389392e+02
   1.150577e+02  -1.724472e+02
   1.391157e+02  -1.984671e+01
   1.322964e+02   7.370288e+01
   3.769285e+01   1.252708e+02
  -1.160634e+02   4.566294e+01
  -6.218109e+01  -1.793399e+01
   9.574895e+01  -8.859164e-01
   9.344305e+01   2.299400e+01
   8.144860e+01   1.350246e+02
  -5.935673e+01   1.380934e+02
  -1.505201e+02   3.017812e+01
  -1.619426e+02  -3.451446e+01
  -3.156354e+01  -4.333063e+01
   5.334721e+01  -5.273991e+01
   4.702904e+01   5.097184e+00
  -4.306441e+01   5.003821e+01
  -9.986096e+01  -3.474258e+01
  -7.529693e+00  -1.563077e+02
   8.351999e+01  -1.769751e+02
   1.994367e+02  -7.228690e+01
   1.338726e+02   1.043226e+02
   6.397778e+00   2.176107e+02
  -6.581794e+01   1.250495e+02
  -1.090064e+02   2.656728e+00
  -4.981166e+01  -1.071371e+02
   1.455373e+01  -1.160275e+02
   1.229036e+01  -3.974419e+01
   1.785338e+01   3.973776e+01
   1.239140e+01  -8.829484e+00
   1.550434e+01  -2.197864e+01
   3.861492e+01  -9.190740e+00
   8.601066e+01   8.507310e+01
   5.522886e+01   1.036582e+02
  -6.384819e+01   3.121586e+01
  -1.428080e+02   3.091221e-01
  -1.169670e+02  -5.428461e+01
  -3.676079e+01  -4.044027e+01
   5.975031e+01  -1.761856e+01
   8.325710e+01  -2.100656e+01
   2.418181e+01  -9.442404e+00
   1.549424e+01   3.963194e+01
   1.282310e+00   2.120192e+01
   4.302488e+01   3.960564e+01
  -3.869229e+00   2.466529e+01
  -5.328434e+01   2.999410e+00
  -8.022923e+01  -2.011427e+01
  -3.207036e+00  -6.178446e+01
   1.433313e+02  -1.312930e+02
   2.149187e+02  -1.348325e+01
   1.444502e+02   6.903135e+01
   2.391379e+01   1.461637e+02
  -7.192498e+01   1.261131e+02
  -1.122167e+02   3.476860e+01
  -7.942489e+01  -3.413362e+01
  -4.407111e+01  -3.062613e+01
  -9.634113e+00  -4.493111e+01
   4.324039e+01   1.688098e+01
  -8.237901e+00  -9.760037e+00
  -2.413067e+01  -9.774078e+01
   1.397703e+01  -4.844907e+01
   8.210329e+01   3.846153e+00
   1.204551e+02   8.980255e+01
   2.997713e+01   1.218988e+02
  -1.054246e+02  -3.183502e+00
  -9.583981e+01  -9.214670e+01
  -8.877301e+00  -1.015362e+02
   9.373449e+01  -9.403049e+01
   7.792929e+01   4.849211e+01
   5.719431e+01   5.868798e+01
  -6.747389e+00   5.005905e+01
   2.029854e+01   1.561122e+01
   3.497781e+01   4.606166e+01
   4.760598e+01   4.447750e+00
   3.115897e+01   2.173042e+01
  -9.498332e+01   5.761947e+01
  -8.701740e+01   6.553967e+01
  -8.825910e+01   3.714917e+00
  -1.196930e+01  -9.130776e+01
   6.804269e+01  -9.571402e+01
   3.979558e+01  -2.400795e+01
   7.054031e+00   3.292306e+01
  -1.800783e+01   4.958527e+01
  -5.625972e+01  -2.803758e+00
  -2.503580e+00  -1.213540e+01
   1.254464e+01  -3.556133e+01
   5.129006e+01  -4.865100e+00
   5.036229e+01   2.582644e+01
   2.606662e+01   2.834655e+01
   2.457068e+01  -7.982313e+00
  -4.086176e+01  -1.790522e+01
  -1.547194e+01   2.583257e+01
  -1.859436e+01   6.817811e+01
   1.613854e+01   6.013328e+00
  -1.048193e+01  -4.794051e+01
   3.320184e-01  -4.382727e+01
   7.741522e+01  -2.742992e+01
   4.444393e+01   3.114727e+01
   4.036938e+01   6.081323e+01
  -9.090895e+01   4.543656e+01
  -7.724363e+01   9.285004e+00
  -6.523811e+01  -2.352263e+01
   1.895779e+01  -7.097125e+01
   7.634648e+01  -2.351644e+01
  -6.929614e+00   4.149281e+01
  -2.104748e+01   4.846644e+00
  -6.579009e+01  -2.561797e+01
   1.056661e+01   3.871590e+00
   4.535827e+01  -2.993033e+01
