
 $NMID
 id='ANONYMOUS ', fmtdat='(2E16.6)'
 volume=1.0
 tramp=1.0
 $END
   3.891462e+03   1.779468e+02
   2.356725e+03   2.241869e+03
  -6.048557e+02   2.409462e+03
  -1.833708e+03   1.190674e+03
  -1.166761e+03  -5.054084e+02
   4.094597e+02  -5.556640e+02
   8.261563e+02   3.000735e+02
   1.613055e+02   8.772783e+02
  -6.264065e+02   6.430228e+02
  -8.269902e+02  -6.374446e+01
  -3.291811e+02  -7.897646e+02
   1.985163e+02  -8.519566e+02
   5.349786e+02  -2.712181e+01
   2.105003e+02   6.579694e+02
  -1.694651e+02   6.971552e+02
  -5.310442e+02   7.888606e+01
  -1.882234e+02  -6.690285e+02
   2.795869e+02  -5.876318e+02
   5.589647e+02  -1.141274e+02
   3.831105e+02   2.943485e+02
   2.405994e+01   4.221310e+02
  -1.433639e+02   2.205276e+02
  -1.667049e+02   5.082129e+01
   9.843973e+01  -1.921390e+01
   3.010481e+02   7.828917e+01
   1.393204e+02   4.113814e+02
  -4.150920e+02   3.712045e+02
  -6.949684e+02  -1.275018e+02
  -4.111692e+02  -4.324376e+02
   3.856813e+02  -4.002351e+02
   6.601515e+02   6.213218e+01
   2.918853e+02   3.921706e+02
  -2.358401e+02   4.330707e+02
  -5.201777e+02   1.462405e+02
  -3.941837e+02  -1.654577e+02
  -8.833366e+01  -4.479928e+02
   1.183392e+02  -3.083390e+02
   8.093572e+01   1.444454e+02
  -1.949487e+02   3.852415e+02
  -3.724402e+02  -2.823988e+01
  -1.177219e+02  -6.282154e+02
   2.719624e+02  -5.973953e+02
   4.978832e+02  -8.350433e+01
   1.475026e+02   5.199588e+02
  -2.192288e+02   3.089685e+02
  -3.966053e+02  -2.597734e+02
   9.440164e+01  -5.190906e+02
   4.944238e+02  -7.631936e+01
   5.529874e+02   3.632295e+02
   1.489565e+02   5.280569e+02
  -3.341140e+02   3.336257e+02
  -5.770651e+02  -1.119164e+02
  -3.133209e+02  -3.446209e+02
   1.127012e+02  -2.839640e+02
   3.284253e+02  -1.075076e+02
   2.137966e+02   1.687145e+02
  -8.129078e+01   8.625473e+01
  -1.644043e+02  -1.706538e+02
   1.002955e+02  -1.696898e+02
   3.075353e+02   7.528943e+01
   1.457774e+02   2.193827e+02
  -2.098070e+02   2.114375e+02
  -3.441156e+02   1.029180e+02
  -2.227762e+02  -6.391895e+01
   7.024644e+01  -1.742867e+02
   2.231368e+02  -3.139384e+02
   2.687081e+02  -1.945317e+02
   2.625034e+02   1.343073e+02
   8.161674e+01   3.999987e+02
  -7.659683e+01   3.504034e+02
  -1.016886e+02   9.304648e+01
  -2.944509e+01   4.650576e+01
  -6.485915e+01   9.665673e+01
  -2.226907e+02   1.304281e+02
  -2.263239e+02  -6.148803e+01
  -1.241768e+02  -2.247380e+02
   6.147835e+01  -2.865587e+02
   1.751383e+02  -3.543094e+01
   1.608828e+02   2.233398e+02
   9.254643e-01   2.238683e+02
  -2.434324e+02   1.217784e+02
  -2.823428e+02  -1.394768e+02
  -1.727223e+02  -3.360986e+02
   1.055161e+02  -2.875748e+02
   2.099029e+02  -1.018697e+02
   1.558599e+02   1.102388e+01
   1.103080e+02  -2.461505e+01
   1.890176e+02  -3.024404e+01
   3.567007e+02   6.745440e+01
   3.134797e+02   2.544670e+02
   9.029912e+00   4.063874e+02
  -3.370050e+02   3.066445e+02
  -4.084025e+02   1.828341e+02
  -3.482481e+02  -1.114953e+02
  -4.786141e+01  -2.702380e+02
   1.314665e+02  -2.103755e+02
   8.574701e+01  -4.677082e+01
  -1.065763e+02   4.754671e+01
  -1.980059e+02  -5.643602e+00
  -4.420107e+01  -1.669423e+02
   1.029853e+02  -1.454477e+02
   1.545009e+02   3.584604e+01
   2.141982e+01   1.901273e+02
  -1.573122e+02   1.128506e+01
  -1.535551e+02  -2.169955e+02
   2.825417e+01  -2.847553e+02
   2.042341e+02  -1.899304e+02
   2.528252e+02   8.621018e+01
   2.057823e+02   2.207901e+02
   4.797820e+01   2.422777e+02
  -1.279662e+02   1.638113e+02
  -1.998899e+02  -4.280371e+00
  -3.298064e+01  -2.775427e+01
   3.566161e+01   4.636134e+01
   3.366668e+01   9.182113e+01
  -1.489541e+02   6.712013e+01
  -1.509734e+02  -6.217567e+01
  -3.380389e+01  -7.151773e+01
   8.020640e+01  -1.782263e+01
   5.368257e+01   9.673977e+01
  -8.554328e+01   1.222640e+02
  -2.339435e+02   1.537914e+00
  -2.224185e+02  -8.835612e+01
  -5.238305e+01  -2.273283e+02
   2.011578e+02  -2.224757e+02
   2.221228e+02  -1.272821e+02
   1.469680e+02   7.999335e+01
  -2.917361e+01   1.197663e+02
  -1.018333e+02  -2.881926e+01
   1.306880e+00  -9.200284e+01
   1.334336e+02  -1.310076e+01
   1.826871e+02   1.032116e+02
   6.970137e+01   2.231569e+02
  -8.126337e+01   1.680487e+02
  -1.282912e+02   2.892072e+01
  -8.869886e+01  -3.067759e+01
   3.768176e+01  -4.262492e+00
   5.725004e+01   7.410691e+01
  -2.396817e+01   1.013744e+02
  -2.142938e+02   1.312885e+01
  -1.977354e+02  -1.287237e+02
  -4.416608e+01  -2.147635e+02
   1.446858e+02  -1.814765e+02
   1.695636e+02  -3.782522e+01
   5.222103e+01   8.909093e+01
  -3.360085e+01   8.453066e+01
  -8.793659e+01   1.566902e+01
  -2.086607e+01  -4.875631e+01
   7.903239e+00  -6.734254e+00
   1.891181e+00   2.505517e+01
  -3.879673e+01  -2.821479e+01
  -5.496592e+01  -4.886269e+01
  -2.273846e+01  -1.795989e+02
   1.007499e+02  -1.345735e+02
   1.924034e+02  -1.951979e+01
   1.778804e+02   1.434690e+02
   5.732035e+01   2.286050e+02
  -1.028253e+02   1.743810e+02
  -1.090639e+02   6.562414e+01
  -5.465674e+01  -5.426127e+01
  -3.801339e+01  -4.433756e+01
  -5.179967e+01  -2.417820e+01
  -7.889858e+01   6.337529e+00
  -5.524530e+01  -5.043556e+01
   1.790069e+01  -7.096610e+01
   4.556134e+01  -6.708326e+01
   1.311856e+02   4.317360e+01
  -2.689000e+01   3.729707e+01
  -1.033097e+02   8.317431e+01
  -2.178336e+02  -4.018536e+01
  -7.937275e+01  -1.959016e+02
   8.258283e+01  -1.612166e+02
   2.412747e+02  -7.043829e+01
   2.165689e+02   6.593745e+01
   1.283604e+02   1.865141e+02
  -2.654641e+01   1.527472e+02
  -7.534062e+01   7.402715e+01
  -7.528815e+01   7.004066e+01
  -3.387927e+01   9.096847e+01
  -8.450263e+01   4.409097e+01
  -1.113413e+02  -4.386776e+01
  -1.024506e+02  -1.156573e+02
  -4.048176e+00  -2.387394e+02
   9.801135e+01  -1.754877e+02
   1.729863e+02  -2.662567e+01
   1.054885e+02   1.373514e+02
   1.357523e+01   1.908795e+02
  -5.605205e+01   3.986044e+01
  -1.537420e+01   5.656907e+00
  -2.361031e+01  -6.703694e+01
  -2.521173e+01  -8.308989e+01
  -5.124674e+01  -2.568245e+01
  -5.571080e+01  -2.514057e+00
  -4.108219e+01  -5.016309e+01
   4.733561e+01  -2.249058e+01
   1.746827e+02  -1.952006e+01
   1.173756e+02   4.668742e+01
   1.306119e+01   6.188396e+01
  -1.273093e+02   9.114879e+01
  -1.843534e+02   4.805073e+01
   9.111058e-01  -5.733644e+01
   3.721384e+01  -4.872364e+01
   4.550445e+01   3.498359e+01
   1.338393e+01   1.015846e+02
  -3.055256e+01   6.830333e+01
  -4.855603e+01   5.418831e+00
  -2.251137e+01  -5.591422e+01
  -9.705587e+01  -2.362431e+01
  -5.559721e+01  -4.027607e+01
  -4.380896e+01  -5.044280e+01
  -1.015825e+01  -2.707830e+01
   6.022762e+01  -1.592443e+02
   1.141763e+02  -1.475872e+02
   1.253389e+02  -2.646195e+01
   1.139568e+02   8.965495e+01
   5.423108e+00   1.257902e+02
  -8.467432e+01   5.494539e+01
  -5.752306e+01   1.113813e+01
   8.905266e+01  -5.376084e+01
   8.849161e+01   6.768722e+00
   4.970901e+01   1.078355e+02
  -6.158734e+01   1.157258e+02
  -2.090559e+02   5.147625e+01
  -1.441179e+02  -1.228517e+01
  -4.100332e+01  -7.029597e+01
   1.976426e+01  -8.893727e+01
   2.498705e+01   1.659765e+01
   7.497453e+00   2.147141e+01
  -5.356679e+01  -3.542569e+01
  -4.191189e+01  -1.061036e+02
   3.593239e+01  -1.343812e+02
   1.665808e+02  -9.035646e+01
   1.311163e+02   8.621544e+01
  -2.229294e+00   1.404349e+02
  -4.566319e+01   1.301900e+02
  -1.018590e+02  -2.888508e+01
  -5.017825e+01  -1.367077e+02
  -5.010827e+00  -7.063977e+01
   4.714852e+01   2.208607e+01
   6.009742e+01   2.693061e+01
   4.893659e+01  -2.362078e+01
   3.555105e+01  -3.946016e+01
  -3.354590e+01  -1.571634e+01
   1.378037e+01   9.649263e+01
   4.691251e+01   1.345812e+02
  -4.374822e+01   3.173688e+01
  -1.427403e+02   3.814458e+01
  -1.453654e+02  -6.081093e+01
  -2.003857e+01  -3.839305e+01
   6.346770e+01  -9.962138e+00
   9.064320e+01  -8.025955e+00
   2.521553e+01   3.466262e+01
  -1.678189e+01   4.775574e+00
  -1.985202e+00   1.609241e+01
   1.931331e+01  -8.759756e+00
   1.833685e+01  -1.312077e+01
  -8.047884e+01  -5.549688e+01
  -1.178548e+02  -1.837818e+01
   1.749255e+01  -4.574372e+01
   1.272146e+02  -8.004013e+01
   1.959643e+02  -6.035500e+01
   1.069856e+02   8.350888e+01
   4.140409e+01   1.313840e+02
  -3.597953e+01   1.197611e+02
  -1.226575e+02   8.883902e+01
  -3.365677e+01  -3.994149e+01
   7.661853e+00   3.922705e-01
   8.398695e+00  -6.950313e-01
  -4.562935e+01  -5.559044e+00
   1.294901e+01  -5.412955e+00
  -4.097185e+01  -8.438080e+01
   2.057237e+01  -8.818790e+01
   4.994183e+01   3.870270e+01
   1.298371e+01   9.867746e+01
   2.238291e+01   9.994756e+01
  -7.250896e+01   1.078482e+01
  -7.940041e+01  -7.337458e+01
  -1.576647e+01  -1.335490e+02
   6.673746e+00  -5.329605e+01
   9.199456e+01   3.520276e+01
   4.710665e-02   4.820980e+01
  -5.081963e+01   3.157548e+01
  -4.755647e+00   3.004625e+01
   9.787610e+00   2.236097e+01
   5.694478e+01   2.822684e+00
   4.860949e+01   2.030781e+01
  -8.625838e+01   4.192843e+01
  -9.899247e+01   3.238603e+01
  -7.526822e+01   5.110020e+00
   7.956436e+00  -9.309942e+01
   5.495952e+01  -8.145257e+01
   4.834751e+01  -8.279757e+00
  -7.297743e+00   4.793778e+01
  -2.049094e+01   3.419668e+01
  -3.737791e+01   1.077166e+01
  -4.855056e+01  -5.789864e+01
  -5.360684e+00  -3.535315e+01
   2.021165e+01  -1.993767e+01
   5.584892e+01   1.248181e+01
  -3.897940e+00  -2.393940e+01
  -5.441524e+00  -2.825162e+01
   2.477192e+01   1.713473e+01
   7.375100e+00   4.857142e+01
  -6.216178e+01   5.422168e+01
  -1.180482e+01   7.013930e+00
  -4.780161e+01   1.093761e+01
   1.143928e-01  -3.642630e+01
   3.741229e+01  -7.415149e+00
   7.175818e+01   2.335390e+01
   2.702478e+01   7.029642e+01
  -3.467833e+01   4.873503e+01
  -8.632902e+01   2.339741e+01
  -2.307427e+01  -2.954730e+01
   6.000616e-01  -2.550221e+01
   5.145677e+01  -1.971210e+00
   2.050122e+01  -4.499596e+00
  -4.900891e+01  -1.680386e+01
  -1.462140e+01  -3.943997e+00
   4.297742e+00  -2.741595e+01
   9.222612e+01  -4.296378e+01
