
 $NMID
 id='ANONYMOUS ', fmtdat='(2E16.6)'
 volume=1.0
 tramp=1.0
 $END
  -2.873976e+03   2.958920e+02
  -2.240503e+03  -1.674583e+03
  -2.432632e+02  -2.345235e+03
   1.297159e+03  -9.532573e+02
   9.540671e+02  -1.094500e+02
   4.631690e+01   5.216683e+02
  -4.699354e+02  -6.509006e+01
  -5.358965e+01  -6.157609e+02
   4.929456e+02  -5.220561e+02
   5.981723e+02  -1.004499e+02
   4.762594e+02   4.767582e+02
   9.285052e+01   6.970343e+02
  -3.216368e+02   1.873128e+02
  -2.435132e+02  -4.048978e+02
   4.716641e+01  -5.727425e+02
   4.369404e+02  -8.157342e+01
   3.296346e+02   4.368543e+02
  -1.263179e+02   6.181885e+02
  -4.277439e+02   3.314658e+02
  -4.938996e+02  -1.843385e+02
  -1.313735e+02  -3.758677e+02
   1.580460e+02  -2.420043e+02
   1.205484e+02  -8.378536e+01
  -9.534802e+01  -8.308571e+01
  -2.051900e+02  -1.582669e+02
  -8.036505e+00  -3.011662e+02
   3.159390e+02  -2.376539e+02
   6.261875e+02   2.915317e+01
   2.835363e+02   3.108540e+02
  -3.118736e+02   2.896941e+02
  -5.080124e+02  -1.409729e+02
  -3.037369e+02  -2.531465e+02
   1.595909e+02  -3.846512e+02
   4.242987e+02  -1.637927e+02
   3.294542e+02   1.764714e+02
   1.285123e+02   3.193979e+02
  -2.982273e+01   2.038046e+02
  -8.877256e+01  -4.927935e+01
   1.373017e+02  -2.557796e+02
   2.422099e+02   6.275401e+01
   1.322328e+02   4.089502e+02
  -1.690631e+02   4.704535e+02
  -3.987453e+02   5.856107e+01
  -2.094266e+02  -3.079897e+02
   9.053986e+01  -2.008679e+02
   2.030886e+02   2.360662e+02
  -4.074698e+01   3.536233e+02
  -4.157800e+02   7.324941e+01
  -4.720776e+02  -2.604452e+02
  -1.624916e+02  -4.231721e+02
   2.919751e+02  -2.758537e+02
   5.141765e+02   2.244917e+01
   3.514041e+02   2.333230e+02
  -4.682951e+01   2.758887e+02
  -3.513951e+02   1.372451e+02
  -2.415812e+02  -3.664889e+01
  -7.977809e+00  -2.277823e+01
   9.337061e+01   5.109430e+01
  -9.046718e+01   1.021035e+02
  -2.498499e+02  -1.233016e+01
  -1.639888e+02  -1.314401e+02
   1.206740e+02  -2.323364e+02
   2.636111e+02  -1.033623e+02
   2.053960e+02   8.818856e+01
   3.506880e+01   2.924513e+02
  -2.433742e+02   3.350932e+02
  -3.224857e+02   1.636214e+02
  -2.670670e+02  -1.185200e+02
  -3.667634e+01  -3.351705e+02
   1.071581e+01  -2.875305e+02
   9.632628e+01  -1.843899e+02
  -6.897758e+00  -4.889596e+01
   9.544935e+01  -9.331339e+01
   2.110531e+02  -7.474915e+01
   2.275659e+02   7.848837e+01
   1.000520e+02   2.282937e+02
  -6.466162e+01   1.821581e+02
  -1.268316e+02  -3.386019e+00
  -1.269283e+02  -1.980425e+02
   2.255395e+01  -2.379186e+02
   1.897197e+02  -4.738549e+01
   3.074531e+02   1.218091e+02
   1.932560e+02   2.365921e+02
  -2.838063e+01   2.554027e+02
  -1.456639e+02   1.596971e+02
  -1.816969e+02   1.650263e+01
  -1.272720e+02   4.551158e+01
  -2.503657e+02   1.775686e+00
  -3.487263e+02  -8.394359e+01
  -3.049743e+02  -2.381836e+02
   1.118911e+00  -3.566879e+02
   3.103871e+02  -3.690318e+02
   4.007148e+02  -2.173631e+02
   2.889493e+02   1.168071e+02
   1.700744e+01   2.216753e+02
  -6.026716e+01   1.602700e+02
  -6.352000e+01   3.003125e+01
   9.902901e+01  -2.433551e+01
   1.201459e+02   1.341877e+01
  -1.995552e-01   1.509264e+02
  -5.796811e+01   1.149249e+02
  -9.049898e+01  -2.113658e+01
  -5.405225e-01  -1.839795e+02
   1.548889e+02  -2.396092e+00
   1.871783e+02   2.173914e+02
  -2.875667e+01   3.316048e+02
  -1.987788e+02   1.836310e+02
  -3.115364e+02  -7.775048e+01
  -2.704785e+02  -2.114700e+02
  -8.895391e+01  -2.393133e+02
   9.764555e+01  -1.352791e+02
   1.314611e+02  -3.878172e+01
   4.614395e+01   1.796257e+01
  -5.614177e+01  -7.574745e+01
  -2.310069e+01  -1.106230e+02
   1.039177e+02  -3.848656e+01
   1.124114e+02   3.796661e+01
   3.246517e+01   7.284830e+01
  -7.514911e+01  -1.270489e+01
  -4.094818e+01  -9.001204e+01
   1.657023e+02  -6.426113e+01
   2.582218e+02   3.431191e+01
   1.987814e+02   1.917809e+02
   2.570062e+01   2.249796e+02
  -1.479231e+02   2.064986e+02
  -1.912178e+02   1.235124e+02
  -1.318982e+02  -1.688253e+01
  -1.562305e+01  -5.249933e+01
   6.145473e+01   1.129445e+01
  -5.456565e+00   1.084576e+02
  -1.473078e+02   4.509933e+01
  -1.295443e+02  -1.375661e+02
  -4.233917e+01  -1.983312e+02
   7.829849e+01  -1.543296e+02
   1.664508e+02  -6.563833e+01
   7.596104e+01   2.177650e+01
   7.381103e-01  -2.274872e+01
  -4.489564e+00  -9.330555e+01
   4.970015e+01  -7.924945e+01
   1.831188e+02  -3.208616e+01
   1.316341e+02   1.358810e+02
   3.360470e+01   1.471502e+02
  -1.832341e+02   1.592311e+02
  -1.733341e+02   2.440343e+01
  -5.211986e+01  -1.099712e+02
   2.788170e+01  -1.172297e+02
   6.259190e+01  -6.976994e+01
  -1.043615e+01   4.265297e+01
  -2.054052e+01  -1.582196e+01
  -2.238525e+01  -8.715864e+00
   7.432599e+01   1.339473e+01
   8.144889e+01   8.401090e+01
   1.687172e+00   1.417451e+02
  -1.082331e+02   1.577701e+02
  -2.175059e+02   4.070180e+01
  -1.449480e+02  -1.769918e+02
  -3.229756e+01  -2.207247e+02
   6.639482e+01  -1.490900e+02
   1.563650e+02  -4.354164e+01
   6.860170e+01   6.460986e+01
   3.422726e+01   4.452987e+01
   4.493724e+01   3.447627e+01
   6.703851e+01   4.312926e+00
   5.860671e+01   2.436716e+01
  -3.077641e+01   8.293960e+01
  -1.199519e+02   1.014001e+02
  -9.754953e+01  -2.641241e+01
   3.998023e+00  -8.458549e+01
   1.491582e+02  -6.365696e+01
   1.581742e+02   4.851506e+01
   7.495317e+01   1.703523e+02
  -1.198936e+02   1.888434e+02
  -2.579533e+02   7.455758e+01
  -2.093458e+02  -1.042850e+02
  -6.448490e+01  -1.169632e+02
   3.605732e+01  -1.107139e+02
   7.279109e+01  -8.176931e+01
   3.272831e+01  -8.136453e+01
   4.627498e+01  -9.679960e+01
   1.196790e+02  -8.649842e+01
   1.307523e+02   2.001290e+01
   1.343465e+02   1.015296e+02
   1.933500e+00   1.552725e+02
  -7.498357e+01   1.686875e+02
  -1.466491e+02  -1.510200e+01
  -8.540986e+01  -1.114236e+02
  -1.793938e+01  -2.190002e+02
   7.424624e+01  -5.201991e+01
   3.238403e+01   1.714507e+01
   1.114493e+01   2.858398e+01
  -2.090640e+01   1.580192e+01
   1.119471e+01   2.459527e+01
   7.122245e+01   2.583271e+01
   3.279472e+01   5.321821e+01
  -1.432228e+02   7.230075e+01
  -1.407923e+02  -3.581342e+00
  -1.336692e+02  -7.382923e+01
   2.599675e+01  -7.153732e+01
   1.188091e+02  -4.225240e+01
   1.387184e+02   2.153970e+01
   2.319425e+01   6.961346e+01
  -3.430478e+01   4.079832e+01
  -1.019374e+02   3.929552e+00
  -2.049766e+01  -8.623004e+01
   5.719708e+01  -7.079801e+01
   7.220892e+01  -2.226944e+01
   6.088730e+01   4.761602e+01
   3.038933e+01   5.781295e+01
   6.873763e+01  -2.597355e+00
   4.358316e+01  -1.560851e+01
   2.659266e+01   6.911773e+01
  -4.300032e+01   1.362990e+02
  -1.025336e+02   1.018329e+02
  -1.629080e+02   4.720796e+00
  -1.164252e+02  -9.674910e+01
   2.945614e+01  -1.329952e+02
   5.776040e+01  -6.687529e+01
   6.660380e+01   3.240085e+01
  -2.120124e+01   2.766261e+00
  -1.447135e+02  -5.291316e+01
  -4.937012e+01  -8.770658e+01
   8.572070e+01  -1.237018e+02
   1.824473e+02  -7.931427e+01
   1.575980e+02   3.473140e+01
   3.803546e+01   1.149152e+02
  -6.890787e+01   5.888299e+01
  -5.510538e+01  -7.706711e+00
  -1.792911e+00  -1.329794e+01
   8.538451e+01   4.338845e+00
   7.973833e+01   1.168447e+02
  -9.597825e+01   1.446504e+02
  -1.248483e+02   5.970929e+01
  -1.127655e+02  -1.110219e+02
  -1.960966e+01  -1.582998e+02
   9.381779e+01  -1.573067e+02
   8.082902e+01   1.191625e+00
   7.077076e+01   9.083913e+01
  -3.286219e+01   1.126167e+02
  -2.117888e+01  -1.153208e+01
  -2.777078e+01  -2.436208e+01
   1.643665e+01  -2.101634e+01
   8.180481e+00   2.633030e+01
   3.168109e+00  -3.743349e+01
  -6.277176e+01  -6.048506e+01
  -6.419789e+01  -1.184640e+02
   3.924224e+01  -1.933026e+01
   8.275406e+01   5.051775e+01
   1.024001e+02   6.012278e+01
   1.136450e+01   4.758706e+01
  -5.390585e+01   2.518882e+01
  -6.558604e+01  -2.996046e+01
   5.785058e+00  -1.814025e+01
   6.439629e+00  -3.195712e+01
   2.204321e+01  -5.240192e+00
  -4.831372e+00  -5.286527e+00
   2.366528e+01  -3.195210e+01
   3.698480e+01   2.345958e+01
   7.741387e+01  -1.166255e+01
   4.354921e+01   5.622280e+01
  -1.094947e+02   1.032691e+02
  -1.815199e+02   5.805330e+01
  -1.282361e+02  -4.680050e+01
  -2.691854e+01  -1.252676e+02
   8.685286e+01  -1.385935e+02
   9.137488e+01  -4.583293e+01
   1.004566e+02  -3.807248e+01
   4.628822e+01   1.623719e+01
  -1.061574e+01   2.734736e+01
   3.805586e+01   1.366760e+01
   1.329672e+01   3.504281e+01
   4.424429e+01   8.186255e+01
  -2.156037e+01   8.799306e+01
  -7.228711e+01  -3.983376e+01
  -8.059141e+01  -1.369113e+02
  -3.693086e+01  -1.031988e+02
   9.637427e+01  -3.977340e+01
   1.005817e+02   4.471850e+01
   3.136934e+01   9.497135e+01
  -5.722779e+01   4.538835e+01
  -5.404124e+01  -1.433210e+01
  -8.728688e+01  -5.793066e+01
   2.321439e+01  -5.802922e+01
   1.522555e+01  -3.610134e+01
  -1.959669e+01   1.902956e+01
  -4.532329e+01  -2.273536e+01
   6.584035e+00  -3.246090e+01
   9.572930e+01  -8.902867e+01
   1.014835e+02  -5.296842e+01
   8.170163e+01   9.837203e+00
  -3.722366e+01   6.723674e+01
  -5.387049e+01   5.060957e+01
   1.408850e+00   6.855533e+00
   1.795580e+01  -7.063366e+01
   5.040992e+01  -4.966735e+01
   5.327310e+01  -6.566112e+00
   1.259273e+01   5.135500e+01
   1.286475e+01   2.610603e+01
  -2.250517e+01   1.259129e+01
  -4.987034e+01  -7.765030e+00
  -1.933430e+01   1.885834e+01
  -1.070478e+01  -9.659836e+00
   4.110098e+01  -2.361932e+00
  -1.425779e+01   2.782193e+00
  -6.236896e+01  -7.370003e+01
  -4.866041e+00   2.607465e+01
   5.382558e+01   2.525261e+01
   2.663397e+01   5.641125e+01
  -5.695626e+01   1.647939e+01
  -4.134745e+01  -4.778577e-01
   1.072788e+01  -6.337572e+01
   3.198640e+01  -5.919959e+01
   8.465109e+01   7.401134e+01
   5.510382e+01   4.790483e+01
  -2.511295e+01   3.998273e+01
  -1.135698e+02   1.089630e+01
  -5.436841e+01  -1.893800e+01
   4.848186e+01  -3.429929e+01
   2.634289e+01  -3.772982e+00
  -5.430405e+00   2.732779e+01
  -5.869631e+01   7.765041e+00
