
 $NMID
 id='ANONYMOUS ', fmtdat='(2E16.6)'
 volume=1.0
 tramp=1.0
 $END
   2.990073e+03  -3.883646e+02
   1.926490e+03   1.785813e+03
   2.567617e+02   2.310113e+03
  -1.166690e+03   1.159648e+03
  -1.132838e+03   1.193158e+01
   2.734055e+01  -4.745971e+02
   5.484573e+02  -2.885598e+01
   8.379245e+01   6.278558e+02
  -4.470936e+02   5.886049e+02
  -5.959092e+02   5.752793e+01
  -5.134123e+02  -4.326049e+02
  -5.822484e+01  -7.336682e+02
   3.254833e+02  -2.144888e+02
   3.171502e+02   3.861557e+02
  -1.037243e+02   6.103591e+02
  -3.690720e+02   7.427612e+01
  -3.454284e+02  -4.248877e+02
   1.213647e+02  -6.802091e+02
   5.170814e+02  -2.888659e+02
   4.817373e+02   1.492733e+02
   1.017440e+02   3.704608e+02
  -1.065337e+02   2.217856e+02
  -9.350411e+01   1.192761e+02
   1.018249e+02   6.695415e+01
   2.777781e+02   2.124212e+02
   1.012936e+01   3.106100e+02
  -3.151873e+02   2.395630e+02
  -6.146939e+02  -5.348539e+01
  -3.194361e+02  -3.590038e+02
   3.289273e+02  -2.687440e+02
   5.077527e+02   1.267896e+02
   2.459508e+02   2.673611e+02
  -1.859635e+02   3.880382e+02
  -3.897719e+02   2.094319e+02
  -3.293380e+02  -1.198629e+02
  -1.424250e+02  -3.204651e+02
   4.018944e+01  -2.196754e+02
   3.478800e+01   6.400630e+01
  -1.027430e+02   1.493729e+02
  -2.118620e+02  -5.247900e+00
  -9.871840e+01  -4.817466e+02
   1.593710e+02  -4.463337e+02
   3.822697e+02  -9.836555e+01
   2.200301e+02   3.470530e+02
  -1.123557e+02   2.175893e+02
  -2.085177e+02  -1.971982e+02
   4.009544e+01  -3.662778e+02
   3.911859e+02  -1.190082e+02
   5.121662e+02   2.960376e+02
   2.174463e+02   4.256154e+02
  -2.778728e+02   2.801572e+02
  -5.266393e+02   3.125896e-01
  -3.938169e+02  -2.077389e+02
   2.178873e+01  -2.608712e+02
   3.170667e+02  -1.329570e+02
   2.422968e+02   3.924530e+01
   3.855069e+01   4.161532e+01
  -1.088964e+02  -4.262016e+01
   5.878191e+01  -7.086216e+01
   2.750166e+02   3.522152e+01
   1.532712e+02   1.353430e+02
  -1.328238e+02   2.248539e+02
  -3.154108e+02   1.326277e+02
  -2.543273e+02  -9.537603e+01
   1.670159e+01  -2.875122e+02
   2.638837e+02  -3.544789e+02
   2.944834e+02  -1.605263e+02
   2.227180e+02   1.664743e+02
   1.133761e+01   3.385212e+02
  -2.571813e+00   3.245257e+02
  -4.489885e+01   1.843483e+02
  -6.519704e+01   7.327057e+01
  -8.457809e+01   7.715167e+01
  -2.388292e+02   6.416643e+01
  -2.153901e+02  -8.552123e+01
  -1.540385e+02  -2.118033e+02
   7.600922e+01  -2.001871e+02
   1.390089e+02   7.548186e+01
   1.313527e+02   2.105932e+02
  -3.520812e+01   2.036730e+02
  -1.800633e+02   6.326208e+01
  -3.061440e+02  -1.306912e+02
  -2.002587e+02  -2.711515e+02
  -1.102522e+01  -2.426640e+02
   1.434194e+02  -1.829037e+02
   1.820373e+02  -6.050609e+01
   1.498719e+02  -9.404328e+01
   2.041612e+02  -6.238332e+01
   3.633717e+02   1.173420e+02
   3.228270e+02   2.249876e+02
  -4.425959e+01   3.751120e+02
  -2.842668e+02   3.796640e+02
  -4.332600e+02   1.835373e+02
  -2.673426e+02  -1.024133e+02
  -7.376412e+01  -2.465353e+02
   6.560999e+01  -2.051110e+02
   3.159846e+01  -3.780296e+01
  -7.314213e+01   3.864145e+01
  -1.311480e+02  -2.265101e+00
  -5.006195e+00  -1.463475e+02
   8.829201e+01  -1.258323e+02
   1.731103e+02   6.346348e+01
   1.540777e+01   1.061377e+02
  -1.309736e+02  -5.089092e+01
  -1.788711e+02  -2.158689e+02
  -1.383925e+01  -2.864984e+02
   2.435729e+02  -1.934135e+02
   3.121052e+02   7.298169e+01
   2.502345e+02   2.346991e+02
   7.695806e+01   2.446361e+02
  -1.000281e+02   2.009564e+02
  -1.401842e+02   1.983321e+01
  -4.298602e+01  -7.645130e+00
   5.506533e+01   4.451752e+01
   3.158570e+01   1.218214e+02
  -9.027057e+01   5.471952e+01
  -7.546022e+01  -6.354305e+01
  -8.500457e+01  -8.519859e+01
   6.747848e+01  -4.858225e+00
   2.876587e+00   7.136049e+01
  -1.146572e+02   4.650319e+01
  -2.510592e+02   2.355223e+01
  -1.861688e+02  -1.939788e+02
  -1.402271e+01  -2.574629e+02
   1.959458e+02  -1.961048e+02
   1.979483e+02  -1.141658e+02
   1.271616e+02   3.060079e+01
  -2.672916e+01   1.136239e+02
  -6.377958e+01  -2.131126e+01
   3.869565e+01  -9.013502e+01
   1.856247e+02  -4.070441e+01
   1.526436e+02   1.147418e+02
   5.385514e+01   1.727028e+02
  -6.890451e+01   1.526312e+02
  -9.972713e+01   4.752248e+01
  -5.404293e+01  -2.092809e+01
   1.552715e+01  -9.789362e-01
   1.795552e+01   7.368915e+01
  -7.144233e+01   1.185166e+02
  -2.040890e+02   4.210645e+01
  -1.733389e+02  -1.331643e+02
   1.219454e+01  -1.761539e+02
   1.414315e+02  -1.012802e+02
   1.475088e+02  -2.867492e+01
   7.083345e+01   7.361778e+01
  -5.238923e+01   1.349799e+02
  -6.472929e+01   3.065725e+01
   8.992055e+00  -2.335129e+01
   5.318125e+01  -2.284601e+01
  -1.317070e+01   4.155216e+01
  -6.435683e+01   1.206511e+00
  -8.379511e+01  -5.300743e+01
   1.098571e+01  -1.410960e+02
   1.655660e+02  -1.491074e+02
   2.022708e+02  -2.365264e+01
   1.821047e+02   1.107039e+02
  -1.355553e+01   2.111274e+02
  -8.651418e+01   1.693700e+02
  -1.221295e+02   5.070952e+01
  -7.088824e+01  -3.124946e+01
  -3.561713e+01  -6.330710e+01
  -3.659043e+01   1.345506e+01
  -6.611539e+01  -4.148728e+01
  -6.975555e+01  -5.843066e+01
   5.212386e+01  -8.664012e+01
   1.184275e+02  -8.155520e+01
   8.199172e+01   3.577967e+01
  -1.244809e+01   1.158835e+02
  -1.396954e+02   7.135990e+01
  -2.082720e+02  -3.796731e+01
  -9.380600e+01  -2.258148e+02
   6.396361e+01  -1.989057e+02
   2.706216e+02  -9.910593e+01
   2.063187e+02   1.084630e+02
   9.489141e+01   1.654923e+02
  -2.070968e+01   1.506913e+02
  -7.938444e+01   9.283840e+01
  -7.452476e+01   1.030036e+02
  -5.191946e+01   5.424184e+01
  -1.024561e+02   6.294543e+01
  -1.185767e+02  -1.730552e+01
  -1.310778e+02  -1.316281e+02
  -1.623445e+01  -1.891492e+02
   1.039681e+02  -1.296568e+02
   1.741670e+02  -3.400292e+01
   1.152470e+02   1.312522e+02
  -1.230695e+01   1.687951e+02
  -5.078216e+01   8.222522e+01
  -7.037313e+01   6.718408e+00
  -2.347903e+01  -9.179741e+01
   3.779206e+01  -4.124771e+01
  -4.729156e+01  -3.762998e+00
  -3.044066e+01  -4.147090e+01
  -9.230948e+00   9.364777e+00
   5.548738e+01  -3.104735e+01
   1.697536e+02  -4.463704e+00
   1.133667e+02   1.237696e+01
  -2.387620e+01   9.629381e+01
  -1.206632e+02   5.798400e+01
  -1.151063e+02  -9.580248e+00
  -2.798459e+01  -5.949028e+01
   9.168107e+01  -3.741313e+01
   4.005070e+01  -1.083501e+01
  -6.725173e+00   7.515623e+01
  -7.338941e+01   7.373944e+01
  -6.304110e+01  -1.813171e+01
  -7.890676e+01  -6.233596e+01
  -7.201128e+01   2.661288e+00
  -4.344034e+01  -2.089742e+01
  -4.664507e+01  -2.670646e+01
  -5.984477e+01  -8.910657e+01
   3.922684e+01  -1.474876e+02
   9.785490e+01  -1.389049e+02
   1.504369e+02  -3.154007e+00
   1.335216e+02   6.228658e+01
  -1.381300e+01   1.036568e+02
  -7.548333e+01   6.420247e+01
  -6.548560e+01  -3.583616e+01
   7.762891e+01   3.447075e+00
   1.042005e+02   7.126566e+00
   7.745930e+01   7.730529e+01
  -1.211664e+02   8.989278e+01
  -1.873252e+02   5.276929e+01
  -1.403590e+02   3.812824e+00
   1.179586e+01  -5.986684e+01
   5.759921e+01  -7.533457e+01
   3.219992e+01   2.297239e+01
   1.516640e+00   8.614545e+00
  -8.462444e+01  -4.255140e+00
  -3.518280e+01  -1.116000e+02
   8.815676e+01  -1.499624e+02
   1.381185e+02  -6.192652e+01
   1.088922e+02   6.594536e+01
   3.400003e+01   1.570349e+02
  -9.737009e+01   1.590175e+02
  -1.183497e+02   3.096604e+01
  -3.347682e+01  -1.128661e+02
  -1.978089e+00  -1.037475e+02
   5.931036e+01  -3.211274e+01
   5.127574e+01   2.165267e+01
  -1.048625e+01   1.152851e+01
  -3.026316e+01  -3.694901e+01
   1.511896e+01   4.581868e+01
   5.272573e+01   8.295856e+01
   3.515952e+01   1.139061e+02
  -4.748620e+01   5.162449e+01
  -1.009457e+02  -2.781494e+01
  -1.353739e+02  -6.062274e+01
  -2.494281e+01  -6.825281e+01
   9.574914e+01  -2.982733e+01
   6.902219e+01  -1.018001e+00
   2.855587e+01   3.558509e+01
  -6.007287e+00   1.618118e+01
  -2.547340e+01   2.122770e+00
   1.385557e+01  -9.815495e+00
  -4.270558e+00  -2.446755e+01
  -7.526247e+01   1.891929e+01
  -8.227093e+01  -9.063726e+00
  -1.099371e+01  -7.350119e+01
   1.341932e+02  -7.856001e+01
   1.486398e+02  -5.473063e+01
   1.414212e+02   6.771267e+01
  -2.269286e+00   1.561272e+02
  -6.038876e+01   1.641770e+02
  -9.723056e+01   7.598953e+01
  -5.051241e+01  -1.875136e+01
  -1.047323e+02  -4.100164e+00
  -7.152868e+00  -1.836933e+01
  -1.163449e+01  -1.938572e+01
  -1.248581e+01  -4.312665e+01
  -6.738617e+01  -9.412595e+01
   1.721760e+01  -4.721669e+01
   8.902943e+01   1.096307e+00
   6.777863e+01   1.242876e+02
   6.929115e+01   1.245698e+02
  -1.028437e+02   4.211136e+01
  -8.419637e+01  -5.927360e+01
  -3.308561e+01  -1.074796e+02
   8.820550e+01  -4.386167e+01
   9.710908e+01   5.683118e+00
   7.845952e+01   7.587752e+01
  -2.976458e+01   2.148472e+01
  -5.738500e+01   4.951038e+01
   2.293131e+01   7.542279e+00
   5.874446e+01  -7.060815e+01
   2.723490e+00   4.962846e+01
  -7.219741e+01   8.340702e+01
  -1.138349e+02   5.545535e+01
  -6.917535e+01  -1.935628e+01
   3.512908e+01  -1.056603e+02
   6.891422e+01  -5.587136e+01
   3.825144e+01  -1.834593e+01
  -1.304711e+01   4.738017e+01
  -5.051100e+01   3.200842e+01
  -4.112089e+01   4.444498e+00
  -2.924801e+01  -7.833865e+01
   1.954601e+01  -5.057951e+01
   5.097782e+01   1.743990e+01
   3.254715e+00   3.303741e+01
   1.245947e+01  -4.788735e+01
  -1.896331e+01  -2.728845e+01
  -3.227008e+01  -1.412749e+00
   1.170376e+01   5.064142e+01
  -3.302081e+01   3.030777e+01
  -2.793966e+01  -2.613914e+01
  -3.440240e+01  -6.261842e+01
  -4.540411e+01  -5.340395e+01
   4.939073e+01  -1.108183e+01
   6.853985e+01   5.417224e+01
   3.916167e+01   5.869032e+01
  -3.834585e+01   4.899923e+01
  -6.008268e+01  -2.526648e+01
  -1.679913e+01  -4.434984e+01
   4.689876e+01   1.570331e+01
   4.361766e+01  -2.387270e+01
  -6.006472e+00  -6.511048e+01
  -5.828784e+01   2.224624e+01
  -5.480103e+01   3.860135e+01
  -4.448092e+00  -1.002268e+01
   5.221151e+01  -1.904770e+01
