
 $NMID
 id='ANONYMOUS ', fmtdat='(2E16.6)'
 volume=1.0
 tramp=1.0
 $END
  -3.333899e+03  -1.120651e+02
  -2.140661e+03  -1.567572e+03
   2.480195e+02  -2.299174e+03
   1.649268e+03  -8.951504e+02
   1.027007e+03   2.173418e+02
  -1.841054e+02   5.656232e+02
  -4.827147e+02  -2.027449e+02
  -4.034482e+01  -6.804516e+02
   5.725873e+02  -5.683947e+02
   7.519634e+02  -6.657196e+01
   3.696345e+02   5.788053e+02
   1.058509e-01   7.221034e+02
  -3.601874e+02   1.684792e+02
  -2.521128e+02  -4.471950e+02
   1.041403e+02  -6.142436e+02
   4.203309e+02  -8.264362e+01
   2.607889e+02   5.067495e+02
  -1.509249e+02   6.264192e+02
  -4.981419e+02   2.415058e+02
  -3.980976e+02  -2.042128e+02
  -1.108510e+02  -3.654395e+02
   1.307995e+02  -2.664053e+02
   1.587499e+02  -5.408600e+01
  -7.757183e+01   1.582256e+01
  -2.657358e+02  -1.568546e+02
  -4.224632e+01  -3.586961e+02
   3.769799e+02  -2.104205e+02
   6.061340e+02   8.063719e+01
   3.117832e+02   3.744350e+02
  -3.499812e+02   2.117808e+02
  -4.856610e+02  -9.592102e+01
  -3.236239e+02  -2.932153e+02
   1.826266e+02  -3.957276e+02
   4.335982e+02  -1.395799e+02
   3.795204e+02   1.743086e+02
   1.277742e+02   3.290288e+02
  -6.884791e+01   1.700124e+02
  -1.292353e+01  -1.224116e+02
   1.428066e+02  -2.500157e+02
   2.652096e+02   4.325485e+01
   1.355935e+02   4.829399e+02
  -2.240691e+02   5.047088e+02
  -3.792841e+02   2.658378e+01
  -1.646039e+02  -3.963637e+02
   1.283285e+02  -2.358530e+02
   2.531535e+02   1.896882e+02
   1.707299e+01   3.893880e+02
  -4.041199e+02   6.662251e+01
  -4.500833e+02  -2.936305e+02
  -2.342948e+02  -4.236193e+02
   2.570021e+02  -2.572677e+02
   5.053575e+02  -1.452363e+01
   3.784825e+02   2.124777e+02
  -6.287049e+01   2.744676e+02
  -3.281088e+02   9.885784e+01
  -2.808288e+02  -7.657419e+01
   5.267794e+01  -9.248510e+01
   2.594276e+01   5.785066e+01
  -1.077905e+02   1.131767e+02
  -2.225769e+02  -8.105134e+01
  -1.348362e+02  -2.247891e+02
   1.062255e+02  -2.254318e+02
   3.213497e+02  -1.249337e+02
   1.959645e+02   7.613784e+01
  -1.159331e+01   2.610686e+02
  -2.312703e+02   3.332021e+02
  -3.080373e+02   1.513584e+02
  -2.392596e+02  -1.299107e+02
  -5.830185e+01  -3.281946e+02
   4.231450e+01  -3.628165e+02
   3.845336e+01  -1.085916e+02
   2.342608e+01  -5.167020e+01
   6.982746e+01  -7.627390e+01
   2.188922e+02  -8.448087e+01
   2.038847e+02   1.060184e+02
   9.573742e+01   2.522804e+02
  -8.091172e+01   1.964206e+02
  -1.667846e+02  -3.947003e+01
  -1.561487e+02  -1.949868e+02
   6.754709e-01  -2.434785e+02
   1.583319e+02  -8.549052e+01
   3.124418e+02   1.519849e+02
   1.881891e+02   2.524425e+02
  -1.406655e+01   2.897873e+02
  -1.505360e+02   1.450768e+02
  -1.300596e+02   4.293605e+01
  -1.030673e+02   2.381440e+01
  -1.983132e+02   4.997492e+01
  -3.472702e+02  -7.496405e+01
  -3.084045e+02  -2.640653e+02
   6.933764e+00  -3.912406e+02
   2.937740e+02  -4.082728e+02
   4.093717e+02  -1.670417e+02
   2.886840e+02   5.957631e+01
   4.889087e+00   2.125913e+02
  -7.041136e+01   1.899881e+02
  -7.363927e+01   6.191399e+01
   1.303374e+02  -1.007634e+02
   1.569345e+02   2.366624e+01
   3.247451e+01   1.663429e+02
  -7.636732e+01   1.249089e+02
  -1.153492e+02  -7.011426e+01
   3.850544e+01  -1.529593e+02
   1.626945e+02   4.295202e+00
   1.183693e+02   1.540695e+02
   1.507874e+01   3.194341e+02
  -1.981427e+02   1.947136e+02
  -3.228675e+02  -7.807493e+01
  -2.554957e+02  -2.191805e+02
  -7.624697e+01  -2.241864e+02
   1.124630e+02  -1.257669e+02
   1.199307e+02  -4.416183e+01
   2.646120e+01   3.104365e+01
  -7.226779e+01  -5.004568e+01
  -6.493199e+01  -5.343960e+01
   1.055621e+02  -7.754366e+01
   1.651556e+02   3.328724e+01
   3.430378e+01   2.834530e+01
  -2.494302e+01   2.305247e+01
  -6.736243e+01  -6.638627e+01
   1.133883e+02  -8.414742e+01
   2.793554e+02   2.093659e+00
   2.371125e+02   1.315755e+02
   4.541409e+01   1.906800e+02
  -1.537144e+02   2.040773e+02
  -2.170484e+02   1.681615e+02
  -1.421563e+02  -6.566361e+01
   2.254441e+01  -8.305050e+01
   4.809172e+01   8.284069e+00
  -8.981264e+00   5.322168e+01
  -1.671103e+02  -5.858735e+00
  -1.842148e+02  -1.160906e+02
  -9.683569e+01  -1.708458e+02
   5.703732e+01  -9.376485e+01
   1.063232e+02  -2.215690e+00
   3.805806e+01   3.237839e+01
   8.359326e+00  -4.109928e+01
  -5.989887e+01  -9.043404e+01
   9.108322e+01  -1.325378e+02
   1.900097e+02  -1.982222e+01
   1.661222e+02   8.002320e+01
   4.024409e+01   2.207821e+02
  -1.250809e+02   1.413415e+02
  -1.601773e+02  -4.506700e+00
  -1.003223e+02  -4.506678e+01
   3.868693e+01  -7.966292e+01
   6.737284e+01   1.033935e+01
  -9.101254e+00   1.709699e+01
  -2.493426e+01   2.214216e+01
   1.579597e+01  -9.703813e+00
   7.887246e+01  -3.507260e+01
   8.681009e+01   6.405471e+01
  -5.710458e+00   1.222456e+02
  -1.229214e+02   9.858847e+01
  -2.152100e+02   4.366653e+01
  -1.513446e+02  -9.250440e+01
  -5.943302e+01  -2.020729e+02
   1.003779e+02  -1.691826e+02
   1.112447e+02  -5.070127e+01
   5.349389e+01   2.621312e+01
   5.276323e+00   3.839795e+01
   1.976610e+01  -7.308632e+01
   9.158581e+01  -9.057071e-01
   6.843329e+01   1.998344e+01
  -4.143061e+01   8.106689e+01
  -1.454324e+02   2.921777e+01
  -5.339364e+01  -1.582536e+01
   1.994388e+00  -1.135450e+02
   1.330485e+02  -8.080604e+01
   1.774127e+02   6.694325e+01
   8.039018e+01   1.852887e+02
  -1.443137e+02   2.367404e+02
  -2.200110e+02   6.280940e+01
  -2.523391e+02  -6.517025e+01
  -1.051780e+02  -1.163294e+02
   5.514758e+01  -1.019160e+02
   4.493608e+01  -1.013979e+02
   9.136279e+01  -6.499198e+01
   3.381023e+01  -8.488744e+01
   1.146535e+02  -9.028501e+01
   1.234904e+02  -2.243296e+01
   1.104107e+02   1.556038e+02
   2.438249e+01   2.354941e+02
  -7.609458e+01   1.816718e+02
  -1.430482e+02   1.498911e+01
  -1.118091e+02  -9.018389e+01
  -5.024694e+01  -1.435441e+02
   6.829394e+01  -7.303347e+01
   8.369024e+01   1.659581e+01
   1.244367e+01   3.960577e+01
   2.645551e+01   4.513429e+01
   5.720496e+01   2.192010e+01
   1.035260e+02  -7.910969e+00
   4.021225e+01   5.679644e+01
  -4.210963e+01   2.577409e+01
  -1.437928e+02  -2.847877e+01
  -1.058229e+02  -5.531605e+01
   4.687730e+00  -1.178827e+02
   1.713414e+02  -5.074030e+01
   1.177057e+02  -9.680448e+00
   3.742383e+01   4.559572e+01
  -7.299810e+01   2.367679e+01
  -5.577039e+01  -3.844781e+01
  -2.032540e+01  -6.452950e+01
  -3.488263e+00  -8.834040e+01
   7.931406e+01  -9.685044e+00
   9.632416e+00   5.951229e+01
   5.584637e+01   7.689363e+01
   2.842046e+01  -1.873650e+01
   5.996554e+01   4.481501e+01
   4.576454e+01   6.798192e+01
  -2.099748e+01   1.774624e+02
  -1.380857e+02   1.301088e+02
  -1.443619e+02   1.525045e+01
  -8.920790e+01  -1.079589e+02
  -4.926400e-01  -1.028775e+02
   8.712972e+01  -5.231056e+01
   7.465024e+01   2.012491e+01
  -4.786722e+01   4.184988e+01
  -1.058227e+02  -1.709833e+01
  -7.236691e+01  -8.770811e+01
   4.153406e+01  -8.023346e+01
   1.365729e+02  -6.762434e+01
   1.489336e+02  -6.302498e+00
   6.526614e+01   7.366118e+01
  -5.198595e+01   5.364328e+01
  -3.741963e+01  -1.056693e+01
   1.607095e+01  -1.971861e+01
   8.493386e+01   1.721179e+01
   6.755217e+00   8.577938e+01
  -4.624572e+01   1.433975e+02
  -1.219041e+02   6.057353e+01
  -1.251969e+02  -9.582144e+01
  -4.664674e+01  -1.541307e+02
   1.149184e+02  -1.000542e+02
   1.249267e+02  -3.162012e+01
   5.835118e+01   8.571037e+01
  -5.496618e+01   1.198378e+02
  -5.647600e+01   3.172647e+01
  -3.564676e+01   1.290955e+01
  -1.898764e+01  -3.435410e+01
  -2.486508e+01   1.681019e+01
  -5.259682e+01  -2.899189e+01
  -3.959253e+01  -8.584845e+01
  -4.254086e+01  -1.118240e+02
   5.314897e+01  -1.059316e+01
   1.640010e+02   1.390424e+01
   8.777423e+01   7.826573e+01
   1.213405e+01   6.993895e+01
  -1.040463e+02  -1.204857e+01
  -8.824558e+01   8.352505e+00
  -2.420545e+01   1.174727e+01
   5.249128e+01  -4.190783e+01
   7.500001e+00  -4.289271e+00
   1.502730e+01   9.059702e-01
  -2.404748e+01  -7.715346e+00
   8.950113e+01   3.169448e+01
   4.748250e+01   8.798923e+00
   2.384558e+01   9.026954e+01
  -1.206818e+02   1.496898e+02
  -1.790393e+02   3.319309e+01
  -1.362978e+02  -5.598620e+01
  -4.070508e+01  -1.494551e+02
   5.971335e+01  -1.323296e+02
   1.182320e+02  -5.786043e+01
   7.940407e+01  -1.777804e+01
   8.657828e+00   6.538692e+01
  -4.546307e+00   2.990555e+00
  -2.238165e+01  -8.306311e-01
   3.464135e+01   5.687798e+01
   4.688173e+01   8.391969e+01
  -3.972671e+01   6.445789e+01
  -8.330492e+01  -2.387024e+01
  -7.808759e+01  -1.040343e+02
   1.563743e+01  -9.366701e+01
   8.557903e+01  -1.226456e+01
   8.922924e+01   6.829273e+01
   5.989643e+01   8.587381e+01
  -9.394213e+01   5.592673e+01
  -7.362124e+01   1.776773e+01
  -5.845959e+01  -2.532853e+01
   1.497980e+01  -6.833547e+01
   6.672188e+01  -4.399735e+01
  -1.191990e+01  -9.314260e+00
  -3.711863e+01   1.884696e+01
   5.534268e+00   2.073225e+00
   5.621054e+01  -5.688107e+01
   8.642346e+01  -7.344911e+01
   7.842053e+01   2.061406e+01
  -3.141473e+01   7.794718e+01
  -7.120616e+01   7.161595e+01
  -4.837562e+01  -1.566450e+01
   1.077633e+01   9.240844e+00
   3.763048e+01  -1.646719e+01
   3.959802e+01   1.627638e+01
   1.697134e+01   3.843418e+01
  -3.019738e+00   3.413380e+00
  -4.403156e+01  -2.321278e+01
  -2.427734e+01   2.322455e+01
  -4.906533e+00   6.205675e-01
  -1.549828e+01   4.010066e+01
  -2.466313e+00   3.982484e+01
  -1.528448e+00  -5.364613e+00
   2.487442e+01  -6.170357e+01
   1.434527e+01  -4.604242e+00
  -2.187026e-01   4.033633e+01
   1.704056e+00   6.356863e+01
  -4.285603e+01   1.702741e+01
  -7.113104e+01  -6.556201e+00
  -1.639629e+01  -5.322791e+01
   1.785375e+01  -6.329688e+01
   7.573452e+01  -1.643336e+01
   6.246123e+01   4.522300e+01
  -2.872058e+01   3.751784e+01
  -1.532843e+01   5.803752e+01
   3.794006e+00   2.336409e+00
   6.921223e-01   1.144248e+01
   1.978612e+01   6.231847e+01
  -6.435333e+01   3.801139e+01
  -4.216675e+01   1.658075e+01
