
 $NMID
 id='ANONYMOUS ', fmtdat='(2E16.6)'
 volume=1.0
 tramp=1.0
 $END
  -2.833339e+03  -9.100703e+01
  -1.811877e+03  -1.640981e+03
   2.156418e+02  -1.830744e+03
   1.229655e+03  -9.370000e+02
   8.386660e+02   2.570904e+02
  -2.695440e+02   2.891782e+02
  -4.826166e+02  -1.969815e+02
  -1.903992e+01  -7.848499e+02
   5.133245e+02  -5.408271e+02
   5.955199e+02  -5.783586e+00
   2.808564e+02   4.069295e+02
  -9.654471e+00   6.463140e+02
  -4.183362e+02   1.026049e+02
  -2.431865e+02  -3.539401e+02
   1.691317e+02  -4.712792e+02
   4.046794e+02  -3.709535e+01
   2.221925e+02   3.497212e+02
  -1.460379e+02   5.122651e+02
  -3.591448e+02   1.988358e+02
  -3.358629e+02  -2.002493e+02
  -5.087693e+01  -2.654433e+02
   1.583751e+02  -2.274353e+02
   8.728662e+01  -2.383114e+01
  -1.299111e+02  -1.834756e+01
  -3.061203e+02  -1.351203e+02
  -1.828249e+01  -2.692345e+02
   3.621995e+02  -1.630600e+02
   5.331084e+02   1.604953e+02
   2.354371e+02   3.619868e+02
  -2.436827e+02   1.836247e+02
  -4.580754e+02   6.419457e+00
  -1.825741e+02  -3.752720e+02
   2.253098e+02  -3.092579e+02
   3.524930e+02  -1.322003e+02
   2.884883e+02   1.612890e+02
   5.864374e+01   2.930628e+02
  -7.359686e+01   1.945669e+02
   3.233151e+01  -9.752784e+01
   1.267589e+02  -1.941162e+02
   2.343831e+02   8.400119e+01
   6.966671e+01   4.813858e+02
  -2.384419e+02   3.646009e+02
  -3.720032e+02  -2.942107e+01
  -8.900586e+01  -3.911028e+02
   2.309192e+02  -2.101626e+02
   2.561246e+02   2.269442e+02
  -8.362028e+01   3.821025e+02
  -4.065389e+02   7.661644e+01
  -4.453238e+02  -2.879215e+02
  -5.300770e+01  -3.688855e+02
   3.159473e+02  -2.127559e+02
   4.980214e+02   7.529853e+01
   3.408225e+02   2.985250e+02
  -5.295538e+01   1.872974e+02
  -3.209526e+02   5.530253e+01
  -1.460217e+02  -6.708415e+01
   2.782931e+01  -3.809017e+01
   5.168612e+01   4.453438e+01
  -9.490432e+01   1.145416e+02
  -1.598464e+02  -5.919047e+01
  -1.092985e+02  -1.595811e+02
   1.458303e+02  -1.768974e+02
   2.835204e+02  -5.462978e+01
   2.316964e+02   9.176289e+01
  -3.735605e+01   2.351472e+02
  -2.012003e+02   2.471682e+02
  -2.417844e+02   1.803510e+02
  -2.048293e+02  -1.156715e+02
  -9.459478e+01  -2.812681e+02
   1.197465e+01  -2.383235e+02
   1.730374e+01  -1.240743e+02
   5.685411e+01  -2.917069e+01
   7.496305e+01  -1.211726e+02
   2.134965e+02  -2.670553e+01
   1.988189e+02   6.420105e+01
   6.876564e+01   2.192964e+02
  -8.119575e+01   1.712587e+02
  -1.843039e+02  -4.690872e+01
  -1.226954e+02  -2.484119e+02
   2.452950e+01  -2.030469e+02
   2.247450e+02  -6.737920e+01
   3.058695e+02   1.764028e+02
   1.616392e+02   2.496128e+02
  -6.842761e+01   2.212719e+02
  -1.465915e+02   1.348559e+02
  -1.583890e+02   7.291052e+01
  -1.018834e+02   4.525877e+01
  -1.954949e+02   2.615919e+01
  -3.080938e+02  -6.918392e+01
  -2.705310e+02  -2.259141e+02
   5.166690e+01  -3.662251e+02
   3.094312e+02  -3.454411e+02
   3.825570e+02  -1.687737e+02
   2.184178e+02   9.791400e+01
  -1.955256e+01   2.234933e+02
  -6.430492e+01   2.284038e+02
  -5.380007e+01   2.175078e+01
   7.006534e+01  -5.276639e+01
   1.247387e+02   5.315912e+01
   2.294837e+01   1.228153e+02
  -1.301784e+02   1.000182e+02
  -9.446696e+01  -9.076576e+01
   5.907230e+01  -1.663560e+02
   1.484987e+02  -2.042230e+01
   1.358374e+02   1.952219e+02
  -6.877580e+00   3.085578e+02
  -1.862087e+02   1.844247e+02
  -2.866176e+02  -3.303098e+01
  -2.572422e+02  -2.341808e+02
  -8.453253e+01  -2.132799e+02
   7.606677e+01  -8.501059e+01
   1.351843e+02   9.255371e+00
   2.064457e+01   2.393366e+01
  -1.474060e+01  -4.528403e+01
   1.909812e+01  -1.026366e+02
   1.025679e+02  -5.350112e+01
   1.252397e+02  -8.747504e+00
   2.479575e+01   7.339256e+01
  -5.232146e+01  -2.738453e+01
  -3.545641e+01  -8.305997e+01
   1.101711e+02  -3.014613e+01
   2.396121e+02  -7.605959e+00
   2.137278e+02   1.330852e+02
   2.605752e+01   2.281934e+02
  -1.573567e+02   1.775935e+02
  -2.380722e+02   7.869911e+01
  -1.486879e+02  -7.083646e+01
   1.535040e+01  -7.831810e+01
   7.665262e+01   8.766847e+00
   4.656659e+00   8.548984e+01
  -1.478618e+02  -1.257054e+01
  -1.369562e+02  -6.575538e+01
  -4.069588e+01  -1.644397e+02
   1.070793e+02  -9.300825e+01
   1.108913e+02   4.922358e+00
   1.775332e+01   1.674926e+01
   1.685050e-01   1.180637e+01
  -9.787326e-01  -1.101965e+02
   4.041507e+01  -1.176790e+02
   1.790964e+02  -1.825612e+01
   1.702239e+02   8.480432e+01
   2.176058e+01   1.948952e+02
  -1.039272e+02   1.268946e+02
  -1.601450e+02  -1.634795e+01
  -5.510652e+01  -1.075634e+02
   4.845513e+01  -5.564655e+01
   5.051866e+01  -1.823056e+01
   1.992461e+01   4.594183e+00
  -1.743822e+01   7.376093e+00
  -1.586774e+00  -3.878466e+01
   8.859285e+01   2.630454e+01
   1.185066e+02   7.146960e+01
   5.255314e-01   1.329242e+02
  -1.022684e+02   1.055456e+02
  -1.585690e+02   1.841331e+01
  -1.789281e+02  -1.355410e+02
  -5.567899e+01  -2.365391e+02
   1.076926e+02  -1.049033e+02
   9.106277e+01   2.546835e+01
   1.385841e+01   3.815520e+01
   2.885824e+01   7.725324e+01
   3.854468e+01   1.120226e+01
   1.121054e+02  -2.398932e+01
   3.500330e+01   5.143586e+01
  -4.285294e+01   8.308124e+01
  -1.067412e+02   3.205641e+01
  -1.292273e+02  -2.275281e+01
  -4.685219e+00  -9.277793e+01
   8.394598e+01  -7.082031e+01
   1.653526e+02   5.574129e+01
   6.067387e+01   1.507083e+02
  -1.529719e+02   1.982329e+02
  -1.779255e+02   7.293186e+01
  -1.942868e+02  -6.512484e+01
  -5.003845e+01  -1.442577e+02
   1.193078e+01  -8.658506e+01
   6.886741e+01  -5.392918e+01
   1.004291e+02  -3.497312e+01
   7.186089e+01  -6.106185e+01
   5.291608e+01  -3.453498e+01
   9.918813e+01   4.084591e+00
   6.753122e+01   1.647385e+02
   3.108381e+01   1.682180e+02
  -1.089157e+02   1.275782e+02
  -1.368114e+02   8.109542e+00
  -9.698730e+01  -9.779526e+01
  -3.900405e+01  -1.245443e+02
   6.042866e+01  -1.042052e+02
   4.953116e+01  -1.941696e+01
  -2.655647e+01   3.026928e+01
  -1.320911e+01   2.408637e+01
   2.647224e+01   5.599736e+01
   7.254164e+01  -2.778012e+01
   7.830426e+00  -5.792712e+00
  -1.087117e+02  -4.023025e+00
  -1.369392e+02  -1.685836e+01
  -1.493563e+02  -7.266243e+01
   5.923589e-01  -1.146010e+02
   8.605947e+01  -1.765069e+01
   1.026155e+02   1.851274e+01
   3.228882e+01   3.752914e+01
  -3.048858e+01   3.480398e+00
  -8.074772e+01  -2.884844e+01
   3.532718e+00  -7.534560e+01
   6.019460e+01  -6.202114e+01
   1.334598e+01  -2.527237e+01
   6.428007e+01   3.207589e+01
   6.221065e+01   4.408166e+01
   6.069539e+01  -5.713559e+00
   1.862429e+01  -4.842900e+01
   8.872372e+00   4.629617e+01
  -4.842530e+01   1.235156e+02
  -1.208718e+02   1.111823e+02
  -1.604734e+02   8.408293e+01
  -1.212050e+02  -6.304430e+01
   1.031114e+01  -1.443363e+02
   6.604151e+01  -3.965466e+01
   6.068318e+01   8.974293e+00
  -1.241475e+01   2.144807e+01
  -1.101394e+02  -2.517780e+01
  -7.683248e+01  -8.836529e+01
   5.349465e+01  -1.310076e+02
   1.909831e+02  -4.441730e+01
   1.394127e+02   4.898607e+01
   3.916116e+01   6.541616e+01
  -8.523083e+01   3.362388e+01
  -5.532131e+01   2.893802e+01
   3.511757e+01  -2.857311e+01
   5.773444e+01   3.857554e+00
   4.980970e+01   1.074652e+02
  -6.117460e+01   1.164126e+02
  -1.275914e+02   4.702425e+01
  -8.361872e+01  -8.146996e+01
   1.854534e+00  -1.748282e+02
   6.651153e+01  -1.249049e+02
   7.293121e+01  -1.860871e+01
   3.461283e+01   1.284110e+02
  -4.681646e+00   7.949985e+01
  -4.786043e+01   3.602994e+01
  -5.775147e+01  -4.703981e+01
  -1.477520e+01   1.818556e+01
   1.394312e+01   3.508900e+01
  -1.568590e+01  -2.238452e+01
  -4.311899e+01  -8.152328e+01
  -1.199808e+01  -6.959276e+01
   1.315741e+01  -2.028730e+01
   1.179081e+02   2.930823e+01
   9.538639e+01   8.452398e+01
   2.205269e+01   1.600506e+01
  -4.925954e+01   4.782109e+01
  -9.997576e+01  -2.813041e+01
   1.708926e+01  -2.256766e+01
   4.190161e+01  -1.653044e+01
   5.792325e+00   2.423497e+00
   1.000308e+01  -2.288862e+01
  -8.572191e+00   1.228063e+01
   2.684150e+01   1.097690e+01
   8.204282e+01   2.280139e+01
   6.097440e+01   2.180892e+01
  -7.935914e+01   1.016212e+02
  -1.335809e+02   4.102048e+01
  -6.066315e+01  -4.636740e+01
  -1.875602e+01  -1.609220e+02
   7.163701e+01  -1.590348e+02
   6.265993e+01  -8.072778e+01
   4.031239e+01   6.767569e+01
   3.039878e+01   7.238655e+01
   3.528828e+01  -1.176911e+01
  -3.860744e+00   3.079387e+01
   3.378691e+01   3.278597e+01
   2.962792e+01   2.435630e+01
   3.177544e+00   6.390436e+01
  -8.803692e+01  -2.319356e-01
  -5.237347e+01  -7.380723e+01
   5.524415e-01  -1.184518e+02
   5.776758e+01   2.813289e+00
   7.270801e+01   9.130584e+01
   5.556022e+01   1.021001e+02
  -5.585584e+01   5.561521e+01
  -8.262880e+01  -9.188010e+00
  -3.307042e+01  -5.759057e+01
   1.486700e+01  -9.096515e+01
   5.241426e+01  -5.349413e+01
  -1.299752e+01  -6.837809e+00
  -6.313173e+01   7.749860e-01
  -2.195121e+01  -1.256112e-01
   5.897354e+01  -4.913429e+01
   1.245487e+02  -1.685277e+00
   6.273083e+01   3.108190e+01
   7.398806e+00   5.191885e+01
  -1.640066e+01   7.385778e+01
  -3.387408e+01   3.017574e+01
  -1.006614e+01  -6.915675e+01
   1.532013e+01  -5.394056e+01
   5.461018e+01   8.644413e+00
   1.268278e+01   5.470799e+01
  -2.508464e+00   1.925526e+01
  -2.050060e+01   2.177699e+01
  -3.058975e+01  -2.580380e+01
  -2.601388e+00  -1.534724e+01
  -5.244619e+00  -6.872360e+00
  -1.152704e+01   1.526345e+01
  -3.219862e+01  -4.144763e+01
   1.088341e+01  -5.290142e+01
   7.472208e+00   1.452346e+01
   2.855913e+01   2.431218e+01
   2.110724e+01   4.470198e+01
  -6.067326e+01   3.663771e+01
  -3.433496e+01  -1.788939e+01
  -1.141235e+01  -5.069821e+01
   4.835193e+01   1.602861e+01
   4.293544e+01   1.041425e+01
  -1.896621e+01   8.342319e+01
  -6.021453e+00   4.185408e+01
  -3.980454e+01   1.489654e+01
  -3.053332e+01   1.523403e+01
   3.584284e+01  -1.951190e+01
   1.748562e+01   3.675192e+01
  -1.995276e+01  -2.994345e+01
  -5.250709e+01   3.936122e+01
