
 $NMID
 id='ANONYMOUS ', fmtdat='(2E16.6)'
 volume=1.0
 tramp=1.0
 $END
   2.933395e+03  -3.119591e+02
   1.969058e+03   1.546664e+03
  -4.262303e+02   2.046632e+03
  -1.428310e+03   8.953816e+02
  -8.883100e+02  -1.064854e+02
   4.083860e+02  -4.126872e+02
   4.133304e+02   5.872240e+01
   6.157140e+01   6.890410e+02
  -4.909053e+02   5.684445e+02
  -6.845239e+02   5.310843e+01
  -3.638702e+02  -5.321789e+02
   9.748737e+01  -6.012477e+02
   3.117234e+02  -1.936416e+02
   2.279560e+02   4.020046e+02
  -1.666551e+02   4.971348e+02
  -4.761623e+02   6.051125e+01
  -2.797882e+02  -4.412999e+02
   1.673307e+02  -5.689715e+02
   4.172149e+02  -1.551992e+02
   3.144541e+02   1.732222e+02
   6.998837e+01   3.280038e+02
  -1.823469e+02   2.136003e+02
  -1.205596e+02   2.288041e+01
   1.119940e+02   4.393002e+01
   2.879723e+02   1.486513e+02
   9.014888e+01   3.390600e+02
  -3.593290e+02   1.466297e+02
  -5.096227e+02  -2.222124e+02
  -2.777157e+02  -3.892710e+02
   2.588581e+02  -2.087430e+02
   4.490937e+02   9.513786e+01
   2.499847e+02   3.800796e+02
  -2.508023e+02   2.817917e+02
  -4.339453e+02   1.511014e+02
  -3.179401e+02  -1.289306e+02
  -5.313262e+01  -3.186113e+02
   4.130955e+01  -1.492555e+02
   2.558127e+01   1.007063e+02
  -1.369532e+02   2.274058e+02
  -2.211360e+02  -1.152306e+01
  -1.796464e+02  -5.104877e+02
   2.385373e+02  -4.187630e+02
   3.834052e+02  -3.704350e-01
   1.603258e+02   3.450918e+02
  -1.467649e+02   2.263722e+02
  -2.447447e+02  -2.798774e+02
   5.744316e+01  -3.757624e+02
   4.364185e+02  -7.064435e+01
   4.531090e+02   3.213220e+02
   1.556673e+02   4.545147e+02
  -2.667923e+02   2.706596e+02
  -4.659986e+02  -3.631627e+01
  -3.279457e+02  -2.851207e+02
   6.865643e+01  -2.519576e+02
   3.070286e+02  -5.746617e+01
   2.129451e+02   5.161270e+01
  -4.153212e+01   1.052302e+02
  -1.396002e+01  -1.486921e+01
   1.059527e+02  -1.058386e+02
   2.327036e+02   3.747442e+01
   1.377418e+02   1.875243e+02
  -1.177320e+02   1.825268e+02
  -2.592809e+02   1.068219e+02
  -2.583642e+02  -5.620187e+01
   4.133604e+01  -2.221425e+02
   2.314938e+02  -2.775747e+02
   2.308562e+02  -1.302170e+02
   1.931023e+02   1.533444e+02
   6.636638e+01   2.973590e+02
  -8.905126e+01   3.011567e+02
  -1.727539e+01   1.052418e+02
  -1.828100e+01   5.344582e+01
  -6.604934e+01   8.923252e+01
  -2.195387e+02   3.861159e+01
  -2.019685e+02  -9.480678e+01
  -1.014223e+02  -1.956421e+02
   5.020410e+01  -2.008498e+02
   1.840744e+02   2.546606e+01
   1.282941e+02   2.194333e+02
  -1.034092e+01   2.581873e+02
  -1.840545e+02   1.066252e+02
  -2.778675e+02  -1.139992e+02
  -1.490537e+02  -2.447911e+02
   8.840113e+01  -2.550860e+02
   1.534823e+02  -1.244921e+02
   1.190111e+02  -3.667590e+01
   1.332073e+02  -7.718051e+01
   1.892322e+02  -6.132688e+01
   3.387537e+02   7.486401e+01
   2.741689e+02   2.850931e+02
  -6.440166e+00   4.189067e+02
  -3.155014e+02   4.044870e+02
  -3.625177e+02   1.618273e+02
  -2.791554e+02  -7.760691e+01
   3.482555e+00  -1.759048e+02
   7.824095e+01  -1.843757e+02
   8.298316e+01  -1.382175e+01
  -8.961422e+01   2.765421e+01
  -1.201771e+02  -8.049931e+00
  -1.898278e+01  -1.281769e+02
   8.861178e+01  -1.201690e+02
   9.089491e+01   5.169489e+01
  -2.168497e+01   1.527953e+02
  -1.583285e+02   2.533949e+01
  -1.248287e+02  -1.841318e+02
   8.943927e+00  -3.039890e+02
   1.900604e+02  -1.970507e+02
   2.918922e+02   7.624037e+01
   2.372739e+02   2.348217e+02
   8.290924e+01   2.080294e+02
  -1.109370e+02   1.373218e+02
  -1.574886e+02   1.272785e+01
  -7.066840e+01   4.152087e+00
   1.332548e+01   4.274835e+01
   9.264950e+00   8.629723e+01
  -7.572162e+01   6.554195e+01
  -1.562917e+02  -2.191371e+01
  -2.581991e+01  -6.093916e+01
   6.289032e+01   6.527963e+00
   4.268804e+01   1.194836e+02
  -1.216007e+02   6.930429e+01
  -2.536438e+02  -2.625426e+01
  -2.304265e+02  -1.657078e+02
  -4.045574e+01  -2.370240e+02
   1.424320e+02  -2.111813e+02
   2.038333e+02  -1.043416e+02
   1.371799e+02   4.078498e+01
  -1.315017e+01   7.418686e+01
  -6.749657e+01  -1.057887e+01
   4.556152e+00  -9.306305e+01
   1.744768e+02  -4.887543e+01
   1.389224e+02   5.790445e+01
   4.215133e+01   1.997932e+02
  -1.246925e+02   1.076580e+02
  -1.098994e+02   3.490327e+01
  -4.679198e+01  -4.005531e+01
   8.740365e+00   6.402684e+00
   4.378983e+00   7.523517e+01
  -1.002378e+02   1.085785e+02
  -1.422488e+02  -2.624283e+00
  -1.582039e+02  -1.201983e+02
   7.565455e+00  -2.093265e+02
   1.541059e+02  -1.519834e+02
   1.301848e+02   1.439064e+00
   3.775207e+01   9.477125e+01
  -5.423495e+01   9.060357e+01
  -3.527248e+01   2.820674e+01
  -3.595085e+00  -5.809519e+01
   9.126810e+00   2.118200e+01
   1.205313e+01   6.974321e+01
  -4.741023e+01  -1.251424e+01
  -7.013874e+01  -9.535222e+01
   1.468750e+01  -1.590573e+02
   1.499044e+02  -1.375340e+02
   1.983328e+02  -1.769321e+01
   1.867929e+02   1.432726e+02
   5.643395e+01   1.890032e+02
  -8.709507e+01   1.141456e+02
  -1.320116e+02   1.620869e+01
   2.818281e+00  -3.984368e+01
  -3.279344e+01  -2.566513e+01
  -8.417607e+01  -4.982040e+00
  -9.113385e+01  -3.148928e+00
  -4.049033e+01  -6.770888e+01
   2.299211e+01  -7.910006e+01
   9.810184e+01  -7.660595e+01
   6.627784e+01   3.465097e+01
  -9.470367e+00   1.110883e+02
  -7.053311e+01   8.605415e+01
  -1.963251e+02  -6.002007e+01
  -8.587449e+01  -1.753133e+02
   1.292607e+02  -2.183245e+02
   2.187416e+02  -4.105707e+01
   2.111622e+02   5.148188e+01
   1.063670e+02   1.475454e+02
  -4.848283e+01   9.659773e+01
  -1.147030e+02   5.236956e+01
  -7.751815e+01   3.100370e+01
  -3.685612e+01   9.494088e+01
  -8.703742e+01   3.740857e+01
  -8.437414e+01   3.021561e+00
  -8.036546e+01  -1.306797e+02
  -3.036439e+01  -1.699827e+02
   5.031059e+01  -1.634379e+02
   1.544476e+02   1.133050e+01
   5.453338e+01   1.503595e+02
   4.428971e+00   1.797628e+02
  -6.080840e+01   6.313567e+01
  -3.765948e+01  -4.284935e+01
  -5.314186e+00  -6.190815e+01
   4.042697e+00  -4.474697e+01
  -3.737615e+01  -7.922820e+00
  -1.119708e+02  -1.450401e+01
  -4.317483e+01  -1.223808e+01
   6.517448e+01  -2.870580e+01
   1.253206e+02  -1.983290e+01
   1.529687e+02   4.860856e+01
   3.136288e+01   8.880722e+01
  -7.905060e+01   1.905769e+01
  -8.404397e+01   7.109311e+00
  -5.693554e+01  -2.728117e+01
   4.290175e+01  -3.978806e+01
   6.368772e+01   2.077896e+01
   3.584770e+01   7.184643e+01
  -1.581757e+01   7.684711e+01
  -2.845616e-02  -1.432843e+01
  -6.625462e+01  -1.161489e+01
  -3.538131e+01  -5.185247e+01
  -4.585552e+01   2.298978e+01
  -3.865527e+01   2.298129e+01
  -6.063259e+01  -4.920150e+01
   2.346009e+01  -1.038333e+02
   1.197628e+02  -1.106186e+02
   1.185572e+02  -1.009975e+01
   1.020804e+02   8.187049e+01
   1.258219e+01   1.194012e+02
  -9.321912e+01   6.866597e+01
  -4.477228e+01   7.472363e-01
   3.355381e+01  -1.310291e+01
   1.120492e+02   2.068507e+01
   2.377647e+01   9.745034e+01
  -4.495825e+01   1.149167e+02
  -1.829812e+02   2.446233e+01
  -1.426869e+02  -1.609516e+01
  -1.673885e+01  -4.786197e+01
   6.873215e+01  -5.515619e+01
   1.981265e+01  -5.079401e+00
  -4.933868e+01   4.500563e+01
  -3.496299e+01  -1.210122e+01
  -7.084930e+01  -1.071183e+02
   7.841170e+01  -1.265443e+02
   1.008564e+02  -4.607380e+01
   1.212952e+02   9.616790e+01
   2.152887e+01   1.591708e+02
  -7.968349e+01   7.325221e+01
  -1.226657e+02  -2.603783e+01
  -6.682945e+01  -9.743356e+01
  -1.832790e+01  -1.072409e+02
   1.629125e+00  -3.626362e+00
   5.762359e+01   7.179559e+00
   3.284297e+01  -1.336172e+01
   2.656243e+00  -2.176891e+01
   1.096206e+01  -4.066514e-01
   2.785528e+01   5.384341e+01
   4.799086e+01   6.421442e+01
  -3.136929e+00   4.059014e+00
  -1.118030e+02  -2.193091e+01
  -8.819525e+01  -7.365110e+01
  -2.491180e+01  -7.277436e+01
   4.705042e+01  -1.449317e+01
   5.725450e+01   1.770967e+01
  -2.649532e+01   2.025248e+01
  -8.222501e+00   2.500100e+00
   1.585294e+01  -5.485936e+00
   3.725032e+01  -9.661619e+00
  -1.444026e+01   1.358967e+01
  -1.871288e+01  -4.602844e+00
  -7.607961e+01   2.437569e+00
  -1.965696e+01  -3.801566e+01
   6.146257e+01  -8.186412e+01
   1.656248e+02  -5.792313e+01
   1.227297e+02   5.493074e+01
  -6.107766e-01   1.184300e+02
  -4.739097e+01   1.419506e+02
  -1.178325e+02   1.942440e+01
  -6.526353e+01  -1.354946e+00
  -7.035054e+01  -5.042120e+01
   1.328568e+01   4.136048e+00
   1.714073e+00  -8.741736e+00
  -3.782806e+01  -4.320956e+01
  -4.367909e+01  -1.001150e+02
   5.270713e+01  -3.348785e+01
   7.893255e+01   7.122001e+00
   5.502389e+01   9.065726e+01
   7.991077e-01   1.041184e+02
  -7.288963e+01   3.697044e+01
  -8.980778e+01  -5.995318e+01
  -1.173896e+01  -6.601265e+01
   3.009971e+01  -4.833810e+01
   7.730254e+01  -1.077800e+01
   3.197664e+01   5.251125e+01
  -9.785458e+00   6.431075e+01
  -3.276414e+01   1.760898e+00
   4.970374e+01  -2.545085e+00
   1.806799e+01  -2.483326e+01
  -6.976208e+00  -6.078484e+00
  -6.183775e+01   8.674846e+01
  -1.268642e+02   2.078366e+01
  -5.034402e+01  -1.059977e+01
  -1.415513e+01  -7.183868e+01
   4.080186e+01  -5.644553e+01
   3.301071e+01  -5.020990e+01
   2.857401e+01   6.490565e+01
   1.996671e+01   7.564696e+01
  -8.598544e+00   4.039030e+00
   3.050459e+01  -2.126790e+01
   4.053349e+01  -8.492599e+00
  -1.419141e+01  -5.448422e+01
   3.827272e+01   1.552564e+01
  -1.759960e+01   1.163519e+00
   7.903440e+00  -5.818990e+00
   2.378465e+01   1.500718e+01
  -1.722868e+01   1.864895e+01
  -7.238860e+00   1.081882e+01
  -5.118017e+01   2.321553e+01
  -3.718855e+01  -8.193636e+01
   1.270003e+01  -2.898310e+01
  -8.105678e-01  -2.649949e+01
   4.383620e+01   2.558405e+01
   2.259507e+01   5.151148e+01
  -6.461613e+01   2.516894e+01
  -4.691125e+01   2.218795e+01
  -4.322283e+01  -2.898831e+01
   3.104404e+01  -4.639516e+01
   7.444010e+01  -3.631669e+01
   1.560735e+00  -9.327954e+00
  -3.734671e+01  -2.676646e+01
  -1.714496e+01  -4.508526e+01
   1.671616e+01  -8.255781e+00
   1.000108e+02  -4.033727e+01
