
 $NMID
 id='ANONYMOUS ', fmtdat='(2E16.6)'
 volume=1.0
 tramp=1.0
 $END
   1.396368e+05   8.306336e+04
   6.104240e+05  -1.296677e+06
   1.166267e+06  -3.822849e+05
   5.461464e+05   1.492241e+06
  -6.218063e+05   1.595243e+06
  -7.733467e+05  -6.891319e+04
   2.110596e+05  -1.029497e+06
   9.461897e+05  -1.557768e+05
   6.150849e+05   9.974765e+05
  -1.250421e+05   8.266667e+05
  -3.709525e+05  -1.632772e+05
  -9.235965e+04  -5.311685e+05
   2.261759e+05   4.139011e+04
   2.973169e+05   7.281000e+05
   8.910335e+04   8.463528e+05
  -2.776379e+05   4.126742e+05
  -4.683176e+05  -1.683561e+05
  -2.284763e+05  -4.355755e+05
   1.392480e+05  -1.903222e+05
   8.543155e+04   1.906099e+05
  -2.949755e+05   1.069378e+05
  -2.657869e+05  -3.742786e+05
   4.311867e+05  -4.593496e+05
   1.037438e+06   2.336461e+05
   7.378115e+05   1.000001e+06
  -2.684857e+05   9.613287e+05
  -1.050794e+06   2.158141e+05
  -9.929096e+05  -4.312916e+05
  -2.396031e+05  -5.232935e+05
   5.855368e+05  -1.979245e+05
   7.992359e+05   2.981384e+05
   1.361504e+05   7.142687e+05
  -8.362274e+05   6.359452e+05
  -1.103478e+06  -9.038305e+04
  -3.848422e+05  -8.368060e+05
   4.111593e+05  -7.688448e+05
   3.504413e+05   3.723536e+03
  -2.826184e+05   4.774232e+05
  -5.045412e+05   9.275424e+04
  -8.394457e+04  -5.853046e+05
   3.103312e+05  -7.631964e+05
   2.996284e+05  -4.227828e+05
   2.578678e+05  -6.041656e+04
   4.323789e+05   1.026555e+05
   4.431132e+05   1.729197e+05
   6.025593e+04   1.642062e+05
  -2.108756e+05   2.655079e+04
   1.081306e+05  -6.194838e+04
   6.071304e+05   1.223554e+05
   5.217758e+05   4.355191e+05
  -1.506245e+05   5.017759e+05
  -6.755973e+05   2.346522e+05
  -5.896152e+05  -8.464003e+04
  -1.467361e+05  -2.187040e+05
   1.909301e+05  -1.781822e+05
   2.291406e+05  -5.306336e+04
   8.316804e+03   6.347717e+04
  -2.741318e+05   8.083804e+03
  -2.820881e+05  -2.794576e+05
   1.221704e+05  -5.110384e+05
   5.359241e+05  -3.177572e+05
   4.255667e+05   1.776429e+05
  -7.672735e+04   4.043327e+05
  -2.535565e+05   9.443869e+04
   1.855546e+05  -3.326308e+05
   6.635290e+05  -3.392405e+05
   5.781426e+05   5.378803e+04
   1.383247e+05   4.176245e+05
  -5.046544e+04   5.279923e+05
   9.025355e+04   5.179606e+05
   1.032284e+05   5.257101e+05
  -2.377688e+05   4.888739e+05
  -6.355483e+05   2.930874e+05
  -7.404751e+05  -6.889859e+04
  -5.202941e+05  -4.804478e+05
  -1.165732e+05  -7.102832e+05
   3.183184e+05  -5.195807e+05
   5.543289e+05   4.711873e+04
   3.751050e+05   5.405771e+05
  -1.048310e+05   5.114614e+05
  -4.453761e+05   3.836720e+04
  -3.659356e+05  -3.594288e+05
  -6.063080e+04  -3.515394e+05
   1.015805e+05  -1.207789e+05
   3.564092e+04  -1.638166e+04
  -4.024299e+04  -1.165445e+05
   7.907279e+04  -2.459354e+05
   3.789574e+05  -2.358159e+05
   6.400115e+05  -2.613148e+04
   5.738450e+05   3.381592e+05
   7.687696e+04   6.576036e+05
  -5.457883e+05   6.486349e+05
  -7.639331e+05   2.420488e+05
  -3.893608e+05  -2.515739e+05
   1.592471e+05  -4.300315e+05
   3.285549e+05  -2.242384e+05
   6.116640e+04   7.667833e+04
  -2.353590e+05   1.773079e+05
  -2.486694e+05   3.951973e+04
  -4.804725e+04  -1.543759e+05
   1.421282e+05  -1.800390e+05
   1.855306e+05   4.010445e+04
   2.688158e+04   3.030097e+05
  -2.913267e+05   2.444927e+05
  -5.121700e+05  -2.405223e+05
  -3.078391e+05  -7.416354e+05
   2.925398e+05  -7.101070e+05
   7.897224e+05  -1.150734e+05
   7.232047e+05   4.838073e+05
   1.994485e+05   5.868995e+05
  -2.561932e+05   2.811091e+05
  -3.046109e+05   7.990899e+03
  -8.300506e+04  -2.158721e+03
   6.642847e+04   1.193096e+05
  -1.728578e+04   1.692636e+05
  -2.146787e+05   9.390460e+04
  -2.865169e+05  -4.712981e+04
  -1.095604e+05  -1.544622e+05
   1.670868e+05  -1.202329e+05
   2.197450e+05   6.499513e+04
  -9.039602e+04   2.185979e+05
  -4.783972e+05   1.183057e+05
  -5.000010e+05  -2.085252e+05
  -7.521388e+04  -4.633513e+05
   3.942443e+05  -4.028370e+05
   4.846640e+05  -1.029626e+05
   2.004936e+05   1.535169e+05
  -1.097231e+05   1.789437e+05
  -1.681054e+05   2.063860e+04
   1.183447e+04  -1.304804e+05
   2.310745e+05  -1.121319e+05
   2.969993e+05   7.593818e+04
   1.457503e+05   2.578482e+05
  -1.047750e+05   2.447174e+05
  -2.276476e+05   5.344901e+04
  -1.102733e+05  -9.096822e+04
   9.120830e+04  -2.011573e+04
   1.086670e+05   1.689478e+05
  -1.159914e+05   2.348923e+05
  -3.499987e+05   7.588590e+04
  -3.375753e+05  -1.800745e+05
  -7.819654e+04  -3.329696e+05
   1.968185e+05  -2.840808e+05
   2.689954e+05  -8.219546e+04
   1.185952e+05   1.174927e+05
  -8.609579e+04   1.544577e+05
  -1.466522e+05   1.018841e+04
  -1.548718e+04  -1.433771e+05
   1.515969e+05  -1.229452e+05
   1.559106e+05   3.453078e+04
  -1.051311e+04   1.085377e+05
  -1.384343e+05  -1.617382e+04
  -4.433326e+04  -1.914432e+05
   2.047753e+05  -1.873390e+05
   3.612825e+05   3.934754e+04
   2.639901e+05   3.155006e+05
  -1.555862e+04   4.349917e+05
  -2.713984e+05   3.180678e+05
  -3.506794e+05   4.577663e+04
  -2.523909e+05  -1.949786e+05
  -9.834002e+04  -2.440234e+05
  -1.819900e+04  -1.213337e+05
  -2.677231e+04  -2.029809e+04
  -1.308731e+04  -7.799149e+04
   1.125584e+05  -1.861573e+05
   2.691101e+05  -1.247699e+05
   2.631734e+05   1.287464e+05
   1.898992e+04   3.336555e+05
  -2.985570e+05   2.613963e+05
  -4.283041e+05  -4.654628e+04
  -2.583709e+05  -3.398009e+05
   8.882348e+04  -4.119679e+05
   3.787729e+05  -2.474282e+05
   4.429280e+05   1.823571e+04
   2.782303e+05   2.147191e+05
   3.112548e+04   2.499558e+05
  -1.209526e+05   1.748740e+05
  -1.187576e+05   1.255573e+05
  -6.351887e+04   1.595448e+05
  -8.716826e+04   1.754080e+05
  -1.863701e+05   4.732236e+04
  -2.239068e+05  -1.846273e+05
  -1.018137e+05  -3.292520e+05
   1.074409e+05  -2.538918e+05
   2.297240e+05  -2.288436e+04
   1.694215e+05   1.835662e+05
  -3.249714e+03   2.380596e+05
  -1.347047e+05   1.407723e+05
  -1.363733e+05  -1.778948e+04
  -5.289354e+04  -1.316138e+05
   2.421507e+03  -1.490547e+05
  -2.444125e+04  -1.049346e+05
  -6.529097e+04  -7.320361e+04
  -5.727265e+03  -7.540469e+04
   1.691290e+05  -5.869094e+04
   3.226661e+05   2.320109e+04
   2.890067e+05   1.384855e+05
   5.378011e+04   2.094315e+05
  -2.075141e+05   1.912873e+05
  -2.914494e+05   9.994997e+04
  -1.647079e+05  -9.336507e+03
   1.387223e+04  -6.828016e+04
   6.953014e+04  -3.873862e+04
  -1.107883e+04   3.256499e+04
  -9.535021e+04   3.879574e+04
  -7.883535e+04  -5.549205e+04
  -1.061567e+03  -1.397519e+05
   2.697985e+04  -8.732893e+04
  -2.780682e+04   5.484414e+04
  -8.681205e+04   9.949708e+04
  -6.379209e+04  -3.430957e+04
   4.031294e+04  -1.960302e+05
   1.496971e+05  -1.862168e+05
   1.817868e+05  -4.866617e+03
   9.733874e+04   1.589050e+05
  -6.632783e+04   1.557295e+05
  -1.851544e+05   1.898610e+04
  -1.257430e+05  -1.108366e+05
   1.033061e+05  -1.295942e+05
   3.010654e+05  -2.715570e+04
   2.527718e+05   1.268833e+05
  -2.409577e+04   2.198381e+05
  -2.715698e+05   1.704243e+05
  -2.648395e+05   1.584581e+04
  -5.470565e+04  -1.010436e+05
   1.058556e+05  -7.601173e+04
   5.225481e+04   3.464869e+04
  -1.255008e+05   7.203655e+04
  -2.059719e+05  -4.566736e+04
  -8.023050e+04  -2.257769e+05
   1.485232e+05  -2.866479e+05
   2.840144e+05  -1.322873e+05
   2.256896e+05   1.460872e+05
   4.054931e+04   3.306885e+05
  -1.249107e+05   2.637956e+05
  -1.764859e+05   5.757429e+03
  -1.181084e+05  -2.073797e+05
  -7.819554e+03  -1.994338e+05
   8.907500e+04  -3.586494e+04
   1.172782e+05   7.260670e+04
   6.382623e+04   3.466317e+04
  -5.375863e+03  -2.721572e+04
   2.939743e+03   2.975233e+04
   7.853365e+04   1.613752e+05
   8.140658e+04   1.994012e+05
  -7.939297e+04   8.162943e+04
  -2.753771e+05  -7.600690e+04
  -2.747605e+05  -1.421865e+05
  -4.270883e+04  -1.169653e+05
   1.848885e+05  -7.776528e+04
   1.890389e+05  -5.177118e+04
   3.690390e+04  -1.213994e+04
  -3.782406e+04   3.746924e+04
   3.533790e+04   5.581435e+04
   9.126544e+04   3.859287e+04
  -6.988674e+03   2.794480e+04
  -1.642113e+05   2.960071e+04
  -1.830436e+05  -1.291050e+04
  -1.741876e+04  -1.176343e+05
   1.885744e+05  -1.879750e+05
   2.750949e+05  -1.071947e+05
   2.024578e+05   9.921678e+04
   3.560324e+04   2.589781e+05
  -1.246215e+05   2.340664e+05
  -1.878447e+05   6.988159e+04
  -1.247451e+05  -6.449084e+04
  -6.217346e+03  -6.459503e+04
   4.911174e+04   1.144128e+04
  -7.554436e+02   3.079352e+04
  -7.319661e+04  -5.304063e+04
  -6.091776e+04  -1.442070e+05
   4.091363e+04  -1.125834e+05
   1.304011e+05   4.936969e+04
   1.083278e+05   1.972888e+05
  -2.350103e+04   1.803606e+05
  -1.588086e+05   6.711634e+03
  -1.727227e+05  -1.639829e+05
  -3.683509e+04  -1.929557e+05
   1.343252e+05  -9.269036e+04
   1.812974e+05   2.508605e+04
   7.240121e+04   8.423187e+04
  -5.011501e+04   8.646426e+04
  -3.721540e+04   5.627769e+04
   7.898098e+04   1.351762e+04
   1.257082e+05  -1.875957e+03
   1.427260e+04   4.856484e+04
  -1.471651e+05   1.260034e+05
  -1.942923e+05   1.219049e+05
  -1.005785e+05  -4.943611e+03
   2.069643e+04  -1.410521e+05
   6.844399e+04  -1.377902e+05
   4.205222e+04  -3.107347e+03
  -8.397759e+03   1.002793e+05
  -4.983853e+04   5.921982e+04
  -6.562127e+04  -5.707776e+04
  -4.020665e+04  -1.045570e+05
   1.874436e+04  -4.806216e+04
   6.856813e+04   2.202813e+04
   7.303229e+04   2.894764e+04
   4.239179e+04  -2.259383e+03
   1.045895e+04  -2.923491e+03
  -1.294226e+04   4.271375e+04
  -4.103718e+04   8.412729e+04
  -7.162920e+04   6.524152e+04
  -7.801458e+04  -1.774275e+04
  -4.073964e+04  -1.061880e+05
   2.793770e+04  -1.220402e+05
   8.954271e+04  -4.065528e+04
   9.802295e+04   7.209768e+04
   2.883992e+04   1.159591e+05
  -8.196637e+04   5.977611e+04
  -1.392652e+05  -2.948975e+04
  -7.546198e+04  -6.920977e+04
   5.367350e+04  -4.721193e+04
   1.063306e+05  -1.042567e+04
   1.998856e+04   2.487245e+03
  -9.667094e+04  -1.326907e+04
  -8.650686e+04  -4.682623e+04
   5.826908e+04  -7.289523e+04
   1.790908e+05  -4.665969e+04
