
 $NMID
 id='ANONYMOUS ', fmtdat='(2E16.6)'
 volume=1.0
 tramp=1.0
 $END
  -5.265573e+07  -8.255282e+05
  -3.114239e+07  -3.260471e+07
   7.213466e+06  -3.523118e+07
   2.562950e+07  -1.365846e+07
   1.527563e+07   6.234726e+06
  -2.981560e+06   8.604836e+06
  -9.098693e+06  -9.307202e+05
  -2.731293e+06  -8.995078e+06
   5.602100e+06  -8.865346e+06
   8.975922e+06  -1.998747e+06
   6.586051e+06   5.899999e+06
   7.383596e+05   8.208108e+06
  -3.852193e+06   2.532790e+06
  -2.579574e+06  -5.299799e+06
   3.467306e+06  -6.307810e+06
   7.362498e+06   1.202001e+06
   4.160879e+06   9.585874e+06
  -3.585510e+06   1.106002e+07
  -9.545992e+06   5.436787e+06
  -1.011737e+07  -2.125981e+06
  -6.002293e+06  -7.164024e+06
  -3.929786e+05  -8.015661e+06
   2.743533e+06  -5.423120e+06
   1.438443e+06  -2.423925e+06
  -1.351470e+06  -2.227171e+06
  -2.302130e+05  -4.223714e+06
   5.389069e+06  -4.239273e+06
   9.390583e+06  -3.401654e+05
   6.676890e+06   4.079641e+06
   2.471641e+04   4.881781e+06
  -3.791252e+06   2.382852e+06
  -2.455413e+06  -2.120029e+05
   7.436947e+05  -1.175895e+06
   2.483260e+06  -5.480423e+05
   2.258558e+06   1.576763e+06
   5.662638e+05   3.977437e+06
  -1.851111e+06   3.621627e+06
  -3.002320e+06  -3.290059e+05
  -1.410721e+06  -3.519617e+06
   8.542806e+05  -1.621566e+06
   2.950277e+05   2.574211e+06
  -2.365772e+06   2.285407e+06
  -2.315788e+06  -2.968270e+06
   2.203207e+06  -5.670849e+06
   6.343777e+06  -8.473552e+05
   4.645618e+06   6.493600e+06
  -1.839426e+06   7.897053e+06
  -6.991241e+06   2.187311e+06
  -6.631339e+06  -4.209229e+06
  -1.856283e+06  -5.726959e+06
   3.269166e+06  -2.662386e+06
   5.074482e+06   1.340459e+06
   2.412445e+06   3.251240e+06
  -2.216879e+06   2.077882e+06
  -4.259140e+06  -8.437713e+05
  -1.853675e+06  -2.529867e+06
   1.613070e+06  -1.281390e+06
   1.700111e+06   9.478927e+05
  -1.122229e+06   8.973538e+05
  -2.266996e+06  -1.494147e+06
   4.889045e+05  -3.039264e+06
   4.188880e+06  -1.715705e+06
   4.905088e+06   1.204737e+06
   2.174984e+06   3.685018e+06
  -1.777604e+06   5.017159e+06
  -4.914158e+06   4.640348e+06
  -5.999332e+06   1.599112e+06
  -4.332927e+06  -3.129549e+06
  -8.460830e+05  -5.956309e+06
   1.716989e+06  -4.586476e+06
   1.573094e+06  -1.267863e+06
   1.669067e+05   5.979400e+04
   1.468317e+05  -1.085623e+06
   1.761943e+06  -1.727286e+06
   2.862188e+06  -1.062757e+05
   2.006283e+06   2.044159e+06
  -3.484217e+04   2.220494e+06
  -1.642496e+06   2.332399e+05
  -1.738091e+06  -2.091457e+06
   2.100616e+03  -2.929684e+06
   2.751768e+06  -1.584952e+06
   4.335083e+06   1.242965e+06
   3.029042e+06   3.670048e+06
  -1.113944e+05   4.010868e+06
  -2.181090e+06   2.522096e+06
  -2.081749e+06   1.063263e+06
  -1.722391e+06   6.995449e+05
  -2.855645e+06   5.286248e+05
  -4.266958e+06  -6.896086e+05
  -3.454729e+06  -2.683592e+06
  -1.689484e+05  -4.076477e+06
   3.159082e+06  -3.890646e+06
   4.163656e+06  -2.107196e+06
   2.649341e+06   4.608581e+05
   2.361948e+05   2.261874e+06
  -1.137367e+06   1.920443e+06
  -5.629175e+05  -5.551977e+04
   1.092451e+06  -1.305633e+06
   1.877680e+06  -3.951944e+05
   8.899383e+05   1.192260e+06
  -5.240805e+05   1.121205e+06
  -4.612046e+05  -3.598121e+05
   9.690221e+05  -7.295720e+05
   1.787472e+06   1.133057e+06
   7.363261e+05   3.307613e+06
  -1.372755e+06   3.375344e+06
  -2.979309e+06   1.244646e+06
  -3.316999e+06  -1.286277e+06
  -2.375521e+06  -2.694680e+06
  -5.187522e+05  -2.618627e+06
   1.235503e+06  -1.478925e+06
   1.585152e+06  -2.324326e+05
   4.910562e+05   4.199738e+04
  -3.629165e+05  -7.439993e+05
   3.961769e+05  -1.317661e+06
   1.869969e+06  -5.749432e+05
   2.006682e+06   8.523543e+05
   3.958220e+05   1.383596e+06
  -1.152855e+06   5.810021e+05
  -9.056330e+05  -4.344928e+05
   8.113794e+05  -5.470259e+05
   2.178034e+06   2.511409e+05
   1.792448e+06   1.310914e+06
  -1.920282e+05   1.981954e+06
  -2.277526e+06   1.691736e+06
  -2.761751e+06   3.034189e+05
  -1.213289e+06  -1.242520e+06
   9.068230e+05  -1.481230e+06
   1.535205e+06  -1.842226e+05
   1.909783e+05   1.070886e+06
  -1.504567e+06   7.389678e+05
  -1.714261e+06  -7.565743e+05
  -3.638292e+05  -1.631853e+06
   1.056392e+06  -9.896130e+05
   1.247302e+06   2.781289e+05
   2.612569e+05   7.607687e+05
  -7.818300e+05   5.707084e+04
  -7.361632e+05  -1.045359e+06
   5.704126e+05  -1.424747e+06
   2.004370e+06  -5.512290e+05
   2.037153e+06   1.037729e+06
   3.957631e+05   2.064183e+06
  -1.418635e+06   1.644404e+06
  -1.713424e+06   2.262513e+05
  -5.111186e+05  -8.550952e+05
   6.449526e+05  -8.078267e+05
   6.413912e+05  -8.624402e+04
  -9.644410e+04   3.718924e+05
  -4.902789e+05   2.381410e+05
  -1.531000e+05  -5.035162e+04
   4.172856e+05   5.947747e+04
   5.160597e+05   6.417264e+05
  -1.863332e+05   1.172508e+06
  -1.364534e+06   9.032424e+05
  -2.077562e+06  -3.951694e+05
  -1.474457e+06  -1.927488e+06
   1.953835e+05  -2.420983e+06
   1.594128e+06  -1.435228e+06
   1.692127e+06   9.481974e+04
   8.889094e+05   8.859259e+05
   3.472343e+05   6.717639e+05
   4.753244e+05   2.428819e+05
   6.056409e+05   3.135967e+05
   8.585777e+04   7.518755e+05
  -8.592356e+05   9.043646e+05
  -1.438646e+06   3.467679e+05
  -1.067491e+06  -7.061797e+05
   2.194267e+05  -1.466212e+06
   1.703431e+06  -1.094833e+06
   2.250312e+06   4.575400e+05
   1.153747e+06   2.077565e+06
  -9.769767e+05   2.357666e+06
  -2.512123e+06   1.050718e+06
  -2.346718e+06  -6.208067e+05
  -9.831446e+05  -1.313015e+06
   1.751477e+05  -9.538590e+05
   3.845517e+05  -5.364478e+05
   9.505824e+04  -7.665861e+05
   1.132873e+05  -1.299784e+06
   6.625866e+05  -1.278477e+06
   1.284218e+06  -3.201086e+05
   1.341932e+06   1.071022e+06
   5.703747e+05   1.888626e+06
  -6.107026e+05   1.441260e+06
  -1.282451e+06   1.191955e+04
  -8.197965e+05  -1.265406e+06
   3.694776e+05  -1.387514e+06
   1.136227e+06  -4.165887e+05
   7.992100e+05   6.725032e+05
  -1.099341e+05   1.054326e+06
  -5.117913e+05   7.743942e+05
  -7.016365e+04   4.169874e+05
   4.353852e+05   3.371030e+05
   6.244983e+04   3.849900e+05
  -1.137782e+06   2.167173e+05
  -2.051991e+06  -3.175141e+05
  -1.618304e+06  -1.016284e+06
   2.279494e+04  -1.417949e+06
   1.568860e+06  -1.139633e+06
   1.816403e+06  -2.955016e+05
   8.290826e+05   4.717380e+05
  -2.559928e+05   5.605853e+05
  -5.030679e+05   3.987137e+04
  -2.469130e+04  -4.165976e+05
   4.451863e+05  -2.635575e+05
   4.830481e+05   3.384663e+05
   2.547856e+05   7.294321e+05
   9.418369e+04   4.853885e+05
   1.317383e+05  -1.016301e+05
   2.750313e+05  -3.064762e+05
   2.775374e+05   2.272242e+05
  -1.326177e+05   9.924781e+05
  -8.891177e+05   1.071509e+06
  -1.356268e+06   1.748657e+05
  -8.531381e+05  -9.144155e+05
   4.107581e+05  -1.136599e+06
   1.256665e+06  -3.388669e+05
   7.404459e+05   5.680469e+05
  -6.923971e+05   6.532615e+05
  -1.585227e+06  -7.514873e+04
  -1.016734e+06  -8.416063e+05
   4.637197e+05  -9.884984e+05
   1.483046e+06  -4.999038e+05
   1.231512e+06   1.695004e+05
   1.426152e+05   5.093638e+05
  -6.424715e+05   2.757551e+05
  -3.836318e+05  -2.918397e+05
   5.843005e+05  -5.313253e+05
   1.190100e+06   6.952316e+04
   6.873465e+05   1.181499e+06
  -5.735773e+05   1.719243e+06
  -1.479975e+06   9.084811e+05
  -1.269643e+06  -7.432977e+05
  -2.264446e+05  -1.792302e+06
   7.217461e+05  -1.304336e+06
   9.231651e+05   1.652303e+05
   4.437399e+05   1.183119e+06
  -2.066312e+05   9.649630e+05
  -5.594519e+05   8.777834e+04
  -4.705420e+05  -3.672308e+05
  -1.650744e+05  -1.295880e+05
  -4.668600e+04   9.324302e+04
  -2.831526e+05  -3.017558e+05
  -5.216424e+05  -9.650362e+05
  -2.021824e+05  -1.070293e+06
   7.132375e+05  -3.957646e+05
   1.482232e+06   4.461842e+05
   1.288525e+06   8.157713e+05
   1.921000e+05   6.972714e+05
  -8.459769e+05   4.370303e+05
  -9.797006e+05   1.956671e+05
  -3.622909e+05  -5.578842e+04
   1.416022e+05  -2.306910e+05
   3.538434e+04  -1.964825e+05
  -2.641486e+05  -8.036985e+04
  -5.577932e+04  -1.351005e+05
   6.550128e+05  -2.567429e+05
   1.052849e+06  -5.706763e+03
   4.545750e+05   6.993424e+05
  -8.226087e+05   1.205832e+06
  -1.703717e+06   7.864718e+05
  -1.436893e+06  -4.142194e+05
  -3.032393e+05  -1.407418e+06
   7.522010e+05  -1.393314e+06
   1.049274e+06  -5.631666e+05
   6.640254e+05   2.159935e+05
   1.441706e+05   3.606317e+05
  -6.537092e+04   7.972778e+04
   7.950827e+04  -9.204501e+03
   3.006304e+05   3.638180e+05
   2.570740e+05   8.041593e+05
  -1.677250e+05   6.883472e+05
  -6.883664e+05  -1.005461e+05
  -7.700613e+05  -9.382407e+05
  -1.469476e+05  -1.042022e+06
   7.506572e+05  -2.782957e+05
   1.062256e+06   6.951741e+05
   3.777671e+05   1.092110e+06
  -7.060135e+05   7.036084e+05
  -1.132090e+06  -5.365604e+04
  -5.473362e+05  -6.168681e+05
   2.823145e+05  -6.967179e+05
   3.853956e+05  -3.734665e+05
  -2.395898e+05   5.997802e+03
  -6.492142e+05   5.522209e+04
  -1.557872e+05  -3.107524e+05
   8.150965e+05  -6.951282e+05
   1.259298e+06  -5.515632e+05
   7.752997e+05   1.791291e+05
  -8.160665e+04   8.796948e+05
  -5.509425e+05   8.693986e+05
  -4.405891e+05   1.733475e+05
  -7.232613e+04  -4.781432e+05
   2.325140e+05  -4.496826e+05
   3.611379e+05   1.292090e+05
   2.686665e+05   5.749658e+05
  -4.623862e+04   4.418967e+05
  -3.963675e+05  -3.208188e+04
  -4.833637e+05  -2.821298e+05
  -2.420920e+05  -9.921905e+04
   3.907451e+04   1.618564e+05
   7.527484e+04   6.074977e+04
  -3.905214e+04  -3.547033e+05
   2.144485e+04  -5.771561e+05
   3.181604e+05  -2.512850e+05
   4.905806e+05   3.641246e+05
   1.935015e+05   6.549032e+05
  -3.997391e+05   3.334856e+05
  -6.851741e+05  -2.617835e+05
  -2.759349e+05  -5.682705e+05
   5.064201e+05  -3.782168e+05
   8.980861e+05   5.431988e+04
   4.932738e+05   3.702625e+05
  -2.904781e+05   4.180214e+05
  -6.454477e+05   2.533808e+05
  -2.622255e+05   2.167364e+04
   3.362966e+05  -9.287391e+04
   4.112925e+05   3.788692e+04
  -1.468559e+05   2.923499e+05
  -7.212095e+05   2.978722e+05
