
 $NMID
 id='ANONYMOUS ', fmtdat='(2E16.6)'
 volume=1.0
 tramp=1.0
 $END
   3.698295e+07  -1.729950e+06
   2.364259e+07   2.142668e+07
  -3.258019e+06   2.521392e+07
  -1.759582e+07   1.103421e+07
  -1.139174e+07  -3.602713e+06
   1.628993e+06  -6.337609e+06
   6.670963e+06   1.492904e+05
   2.480460e+06   6.364860e+06
  -3.656139e+06   6.737556e+06
  -6.396076e+06   1.889540e+06
  -4.898578e+06  -3.951616e+06
  -7.796092e+05  -5.821780e+06
   2.622141e+06  -1.890403e+06
   1.944356e+06   3.775033e+06
  -2.309104e+06   4.720864e+06
  -5.339174e+06  -5.126421e+05
  -3.376001e+06  -6.652979e+06
   2.075800e+06  -8.016313e+06
   6.504765e+06  -4.230087e+06
   7.157469e+06   1.086654e+06
   4.460935e+06   4.712552e+06
   6.659822e+05   5.496997e+06
  -1.534147e+06   3.942697e+06
  -8.022972e+05   1.995930e+06
   9.557849e+05   1.783934e+06
   1.247700e+05   3.035938e+06
  -3.783775e+06   3.040243e+06
  -6.632203e+06   3.984049e+05
  -4.797159e+06  -2.693913e+06
  -1.058684e+05  -3.343616e+06
   2.617502e+06  -1.641510e+06
   1.614799e+06   1.707837e+05
  -7.138785e+05   7.849934e+05
  -1.854824e+06   2.641199e+05
  -1.537587e+06  -1.198614e+06
  -3.577652e+05  -2.787491e+06
   1.187355e+06  -2.546580e+06
   1.983213e+06   1.140632e+05
   1.053729e+06   2.322341e+06
  -4.240296e+05   1.076882e+06
  -1.275598e+05  -1.839314e+06
   1.681803e+06  -1.708126e+06
   1.803275e+06   2.024434e+06
  -1.253125e+06   4.179583e+06
  -4.385869e+06   9.904162e+05
  -3.576133e+06  -4.314679e+06
   8.998101e+05  -5.662824e+06
   4.834390e+06  -1.836340e+06
   4.903624e+06   2.792807e+06
   1.545626e+06   4.099099e+06
  -2.297908e+06   2.054262e+06
  -3.762633e+06  -8.166500e+05
  -1.898866e+06  -2.305171e+06
   1.493422e+06  -1.617216e+06
   3.091516e+06   4.189758e+05
   1.452441e+06   1.735980e+06
  -1.091009e+06   9.830594e+05
  -1.275253e+06  -6.456754e+05
   7.669484e+05  -7.771990e+05
   1.777926e+06   9.020991e+05
  -7.004664e+04   2.220239e+06
  -2.838405e+06   1.501570e+06
  -3.584338e+06  -5.855651e+05
  -1.743365e+06  -2.524226e+06
   1.113181e+06  -3.605148e+06
   3.396687e+06  -3.387332e+06
   4.204627e+06  -1.266767e+06
   3.113909e+06   2.087205e+06
   7.450153e+05   4.203545e+06
  -1.092538e+06   3.381750e+06
  -1.136585e+06   1.048765e+06
  -2.461452e+05  -1.686664e+04
  -1.975461e+05   6.842932e+05
  -1.248465e+06   1.138135e+06
  -1.983444e+06   3.387124e+04
  -1.376005e+06  -1.469397e+06
   7.473612e+04  -1.572103e+06
   1.213821e+06  -1.203296e+05
   1.259762e+06   1.542632e+06
   1.176321e+04   2.108367e+06
  -1.931711e+06   1.151473e+06
  -3.076348e+06  -8.024938e+05
  -2.225321e+06  -2.500341e+06
  -6.145875e+04  -2.813352e+06
   1.424391e+06  -1.859335e+06
   1.427774e+06  -8.615190e+05
   1.234934e+06  -5.864914e+05
   2.078366e+06  -4.580529e+05
   3.117990e+06   4.138539e+05
   2.556490e+06   1.887686e+06
   1.823066e+05   2.959645e+06
  -2.245650e+06   2.854258e+06
  -2.981647e+06   1.546883e+06
  -1.885052e+06  -3.188964e+05
  -1.589522e+05  -1.606549e+06
   8.051914e+05  -1.363996e+06
   3.927151e+05   3.903026e+04
  -7.777021e+05   9.448738e+05
  -1.345347e+06   3.167280e+05
  -6.538800e+05  -8.303354e+05
   3.767622e+05  -8.085897e+05
   3.610904e+05   2.755252e+05
  -7.035972e+05   6.061815e+05
  -1.396334e+06  -7.357082e+05
  -6.902018e+05  -2.421916e+06
   9.156306e+05  -2.594967e+06
   2.215555e+06  -1.048887e+06
   2.516615e+06   8.939804e+05
   1.791600e+06   1.995292e+06
   3.928970e+05   1.935463e+06
  -8.917516e+05   1.080597e+06
  -1.145780e+06   1.734933e+05
  -3.571421e+05  -2.491342e+04
   2.744977e+05   5.363618e+05
  -2.547668e+05   9.641822e+05
  -1.336490e+06   4.585956e+05
  -1.479042e+06  -5.729629e+05
  -3.247793e+05  -9.995904e+05
   8.324694e+05  -4.456381e+05
   6.763090e+05   3.170650e+05
  -5.985934e+05   4.356078e+05
  -1.630097e+06  -1.538337e+05
  -1.346645e+06  -9.666289e+05
   1.260485e+05  -1.479726e+06
   1.657183e+06  -1.268047e+06
   2.012756e+06  -2.544078e+05
   9.041936e+05   8.800124e+05
  -6.220473e+05   1.083743e+06
  -1.097737e+06   1.665979e+05
  -1.544555e+05  -7.604337e+05
   1.078311e+06  -5.567035e+05
   1.264396e+06   5.241674e+05
   2.975729e+05   1.195297e+06
  -7.617474e+05   7.563578e+05
  -9.323500e+05  -1.775448e+05
  -2.159311e+05  -5.592393e+05
   5.638202e+05  -6.275744e+04
   5.477447e+05   7.443508e+05
  -3.967161e+05   1.036032e+06
  -1.444757e+06   4.196767e+05
  -1.487740e+06  -7.279194e+05
  -3.154092e+05  -1.492801e+06
   1.006042e+06  -1.218114e+06
   1.246746e+06  -1.924414e+05
   3.901213e+05   6.192420e+05
  -4.604840e+05   6.018221e+05
  -4.709716e+05   6.115835e+04
   7.559272e+04  -2.906742e+05
   3.790707e+05  -1.786688e+05
   1.265598e+05   6.338136e+04
  -3.163943e+05  -8.638519e+03
  -4.066512e+05  -4.546085e+05
   1.084357e+05  -8.651838e+05
   9.808961e+05  -6.807638e+05
   1.517402e+06   2.599321e+05
   1.095403e+06   1.381499e+06
  -1.170974e+05   1.764558e+06
  -1.155668e+06   1.068868e+06
  -1.249603e+06  -5.441082e+04
  -6.588839e+05  -6.601151e+05
  -2.372230e+05  -5.101623e+05
  -3.211230e+05  -1.691977e+05
  -4.377866e+05  -1.990989e+05
  -8.071152e+04  -5.348650e+05
   6.131406e+05  -6.755903e+05
   1.053877e+06  -2.725789e+05
   7.907976e+05   5.160648e+05
  -1.507128e+05   1.087833e+06
  -1.237694e+06   8.222363e+05
  -1.649245e+06  -3.103038e+05
  -8.724837e+05  -1.503969e+06
   6.722332e+05  -1.738590e+06
   1.816955e+06  -8.105254e+05
   1.733386e+06   4.203475e+05
   7.457590e+05   9.632322e+05
  -1.254904e+05   7.193211e+05
  -2.982375e+05   3.940851e+05
  -7.458902e+04   5.349039e+05
  -6.177497e+04   9.253988e+05
  -4.539708e+05   9.333950e+05
  -9.214771e+05   2.520124e+05
  -9.839493e+05  -7.611093e+05
  -4.338644e+05  -1.365466e+06
   4.292178e+05  -1.052777e+06
   9.363315e+05  -2.389722e+04
   6.200607e+05   9.098822e+05
  -2.438365e+05   1.023076e+06
  -8.250970e+05   3.377311e+05
  -6.073524e+05  -4.639529e+05
   4.693064e+04  -7.734257e+05
   3.530784e+05  -5.878715e+05
   4.812996e+04  -3.161178e+05
  -3.141184e+05  -2.396864e+05
  -4.661054e+04  -2.781745e+05
   8.225906e+05  -1.781752e+05
   1.492893e+06   1.964053e+05
   1.194029e+06   7.159548e+05
   1.544259e+04   1.035900e+06
  -1.114880e+06   8.563282e+05
  -1.321797e+06   2.457356e+05
  -6.253267e+05  -3.271272e+05
   1.689360e+05  -4.112589e+05
   3.683228e+05  -4.278776e+04
   2.796457e+04   2.918847e+05
  -3.214292e+05   1.899537e+05
  -3.532281e+05  -2.391435e+05
  -1.824052e+05  -5.188849e+05
  -6.580483e+04  -3.422764e+05
  -1.028272e+05   7.945057e+04
  -2.115581e+05   2.243059e+05
  -2.069619e+05  -1.631816e+05
   9.285280e+04  -7.202025e+05
   6.319320e+05  -7.877227e+05
   9.675879e+05  -1.494530e+05
   6.205719e+05   6.429461e+05
  -2.760474e+05   8.232410e+05
  -8.939543e+05   2.597267e+05
  -5.395835e+05  -4.056034e+05
   4.963602e+05  -4.867972e+05
   1.162859e+06   3.777085e+04
   7.616793e+05   6.131586e+05
  -3.277768e+05   7.408738e+05
  -1.090411e+06   3.876532e+05
  -9.125185e+05  -1.140220e+05
  -1.106625e+05  -3.763854e+05
   4.685404e+05  -2.124924e+05
   2.829519e+05   2.021230e+05
  -4.174814e+05   3.834808e+05
  -8.567684e+05  -4.287882e+04
  -5.004025e+05  -8.446105e+05
   4.034017e+05  -1.240462e+06
   1.062815e+06  -6.641183e+05
   9.254218e+05   5.300032e+05
   1.784159e+05   1.300785e+06
  -5.180414e+05   9.592050e+05
  -6.811765e+05  -1.083484e+05
  -3.402328e+05  -8.626000e+05
   1.396415e+05  -7.166857e+05
   4.079729e+05  -7.482555e+04
   3.489439e+05   2.704033e+05
   1.242038e+05   1.018546e+05
   3.336377e+04  -7.279051e+04
   2.063236e+05   2.022879e+05
   3.878816e+05   6.911211e+05
   1.619556e+05   7.866838e+05
  -5.091883e+05   3.061929e+05
  -1.082810e+06  -3.121469e+05
  -9.507626e+05  -5.895958e+05
  -1.488665e+05  -5.049213e+05
   6.153442e+05  -3.175303e+05
   7.153041e+05  -1.506933e+05
   2.639147e+05   2.758621e+04
  -1.020557e+05   1.654755e+05
  -2.206048e+04   1.551796e+05
   1.942542e+05   6.903549e+04
   3.858471e+04   9.431519e+04
  -4.768781e+05   1.797522e+05
  -7.606336e+05   1.299099e+04
  -3.281750e+05  -4.884716e+05
   5.867465e+05  -8.697698e+05
   1.217905e+06  -5.878978e+05
   1.032940e+06   2.795991e+05
   2.285668e+05   1.016067e+06
  -5.282428e+05   1.018303e+06
  -7.497211e+05   4.138809e+05
  -4.795066e+05  -1.557842e+05
  -1.051897e+05  -2.561845e+05
   4.689399e+04  -4.638064e+04
  -6.183772e+04   1.494592e+04
  -2.274231e+05  -2.636439e+05
  -1.965989e+05  -5.849463e+05
   1.148003e+05  -4.976241e+05
   4.952875e+05   7.302598e+04
   5.569289e+05   6.725249e+05
   1.097110e+05   7.436120e+05
  -5.370721e+05   1.967914e+05
  -7.662795e+05  -4.975694e+05
  -2.799494e+05  -7.823706e+05
   5.001073e+05  -5.103307e+05
   8.156934e+05   2.623853e+04
   4.049234e+05   4.330083e+05
  -1.899169e+05   5.026117e+05
  -2.690240e+05   2.802764e+05
   1.762590e+05   3.839818e+03
   4.704851e+05  -4.273536e+04
   1.153140e+05   2.200334e+05
  -5.860670e+05   5.121699e+05
  -9.095678e+05   4.224966e+05
  -5.644987e+05  -1.103861e+05
   4.865094e+04  -6.356191e+05
   3.834396e+05  -6.400810e+05
   3.063172e+05  -1.335361e+05
   5.024875e+04   3.441028e+05
  -1.612908e+05   3.234120e+05
  -2.560381e+05  -9.609190e+04
  -1.987238e+05  -4.135225e+05
   2.437574e+04  -3.140737e+05
   2.841908e+05   2.174130e+04
   3.561762e+05   1.941271e+05
   1.808891e+05   6.649600e+04
  -3.286560e+04  -1.092432e+05
  -6.688669e+04  -3.485498e+04
   1.949135e+04   2.499518e+05
  -1.269197e+04   3.984055e+05
  -2.183234e+05   1.707938e+05
  -3.430848e+05  -2.561006e+05
  -1.355257e+05  -4.607667e+05
   2.858239e+05  -2.388209e+05
   4.904268e+05   1.823454e+05
   1.992218e+05   4.077624e+05
  -3.610725e+05   2.799138e+05
  -6.448674e+05  -2.958456e+04
  -3.589127e+05  -2.619961e+05
   2.013567e+05  -3.014985e+05
   4.573287e+05  -1.863394e+05
   1.845350e+05  -2.291467e+04
  -2.426885e+05   5.783737e+04
  -2.923396e+05  -3.299100e+04
   1.135723e+05  -2.099543e+05
   5.274793e+05  -2.108694e+05
