
 $NMID
 id='ANONYMOUS ', fmtdat='(2E16.6)'
 volume=1.0
 tramp=1.0
 $END
   5.651647e+07  -3.239030e+05
   3.413985e+07   3.489192e+07
  -7.333623e+06   3.830744e+07
  -2.762118e+07   1.475503e+07
  -1.652050e+07  -7.033493e+06
   3.313814e+06  -9.366055e+06
   9.844315e+06   1.233802e+06
   2.781843e+06   9.786105e+06
  -6.195376e+06   9.335574e+06
  -9.653785e+06   2.008689e+06
  -7.031614e+06  -6.165066e+06
  -8.712678e+05  -8.589424e+06
   3.972321e+06  -2.782738e+06
   2.660033e+06   5.392601e+06
  -3.737941e+06   6.536430e+06
  -7.886132e+06  -1.319344e+06
  -4.490858e+06  -1.019936e+07
   3.733694e+06  -1.183187e+07
   1.009271e+07  -5.980140e+06
   1.085739e+07   1.976139e+06
   6.715978e+06   7.467285e+06
   7.662816e+05   8.703847e+06
  -2.916167e+06   6.122294e+06
  -1.909638e+06   2.692883e+06
   1.086728e+06   2.086406e+06
   3.101998e+05   4.129669e+06
  -5.323628e+06   4.443902e+06
  -9.633736e+06   6.000746e+05
  -7.087366e+06  -4.060339e+06
  -3.262930e+05  -5.071138e+06
   3.666880e+06  -2.632970e+06
   2.482452e+06  -7.767204e+04
  -5.436574e+05   9.168129e+05
  -2.219109e+06   5.267592e+05
  -2.201488e+06  -1.366309e+06
  -7.593650e+05  -3.898869e+06
   1.759779e+06  -3.885654e+06
   3.267141e+06   5.457678e+04
   1.773603e+06   3.636142e+06
  -7.667136e+05   1.972671e+06
  -3.874087e+05  -2.422932e+06
   2.432494e+06  -2.308164e+06
   2.461474e+06   3.190632e+06
  -2.421561e+06   6.160241e+06
  -6.990346e+06   1.047982e+06
  -5.181193e+06  -6.928683e+06
   1.878363e+06  -8.568908e+06
   7.431532e+06  -2.469594e+06
   6.971228e+06   4.412378e+06
   1.864187e+06   6.016420e+06
  -3.461799e+06   2.717083e+06
  -5.251707e+06  -1.509519e+06
  -2.424733e+06  -3.478488e+06
   2.418508e+06  -2.206453e+06
   4.538013e+06   9.080474e+05
   1.960960e+06   2.719687e+06
  -1.715818e+06   1.381700e+06
  -1.738685e+06  -1.019440e+06
   1.334229e+06  -9.144449e+05
   2.488462e+06   1.769138e+06
  -6.242408e+05   3.469153e+06
  -4.651108e+06   1.927537e+06
  -5.322786e+06  -1.345612e+06
  -2.338214e+06  -3.978969e+06
   1.764969e+06  -5.281425e+06
   4.961859e+06  -4.882490e+06
   6.179241e+06  -1.800546e+06
   4.617480e+06   3.119053e+06
   9.942724e+05   6.166181e+06
  -1.840511e+06   4.777089e+06
  -1.765772e+06   1.212703e+06
  -1.529178e+05  -2.736341e+05
   6.722397e+04   9.750530e+05
  -1.566101e+06   1.819047e+06
  -2.808116e+06   2.872857e+05
  -2.054850e+06  -1.895270e+06
  -5.974342e+04  -2.138675e+06
   1.538095e+06  -2.240761e+05
   1.691111e+06   2.052741e+06
   3.158558e+04   2.933370e+06
  -2.752919e+06   1.686340e+06
  -4.493743e+06  -1.147873e+06
  -3.267505e+06  -3.743613e+06
   1.981923e+03  -4.249941e+06
   2.270765e+06  -2.751197e+06
   2.242326e+06  -1.155274e+06
   1.838939e+06  -6.884438e+05
   2.946044e+06  -4.912228e+05
   4.362013e+06   7.414414e+05
   3.508476e+06   2.753908e+06
   1.535171e+05   4.135669e+06
  -3.187546e+06   3.929717e+06
  -4.165490e+06   2.160505e+06
  -2.669732e+06  -3.930414e+05
  -3.046856e+05  -2.236446e+06
   1.081304e+06  -1.953850e+06
   5.675482e+05   2.778870e+04
  -1.080304e+06   1.323892e+06
  -1.915964e+06   4.134852e+05
  -9.396126e+05  -1.207138e+06
   5.086289e+05  -1.121645e+06
   4.234922e+05   3.909100e+05
  -1.081559e+06   6.917656e+05
  -1.871353e+06  -1.315558e+06
  -6.370994e+05  -3.518204e+06
   1.619919e+06  -3.415783e+06
   3.160210e+06  -1.092597e+06
   3.307087e+06   1.457875e+06
   2.269530e+06   2.753980e+06
   4.594626e+05   2.604331e+06
  -1.233240e+06   1.474823e+06
  -1.580192e+06   2.413772e+05
  -4.955720e+05  -4.364714e+04
   3.633129e+05   7.556035e+05
  -4.151803e+05   1.356924e+06
  -1.927408e+06   5.916725e+05
  -2.055860e+06  -8.945578e+05
  -3.882060e+05  -1.432717e+06
   1.181013e+06  -5.763935e+05
   8.878991e+05   4.570716e+05
  -8.600181e+05   5.118474e+05
  -2.183154e+06  -3.337203e+05
  -1.735923e+06  -1.359928e+06
   2.559966e+05  -1.967940e+06
   2.314395e+06  -1.659916e+06
   2.787766e+06  -2.817214e+05
   1.231727e+06   1.275220e+06
  -9.237135e+05   1.525998e+06
  -1.581674e+06   2.001101e+05
  -2.133739e+05  -1.093898e+06
   1.527589e+06  -7.508971e+05
   1.733101e+06   7.875604e+05
   3.338258e+05   1.665462e+06
  -1.107356e+06   9.757123e+05
  -1.264559e+06  -3.257696e+05
  -2.386588e+05  -7.924685e+05
   8.105563e+05  -5.583584e+04
   7.504641e+05   1.061318e+06
  -5.710399e+05   1.440927e+06
  -2.020534e+06   5.607598e+05
  -2.059330e+06  -1.047407e+06
  -3.956178e+05  -2.092368e+06
   1.450628e+06  -1.661982e+06
   1.741808e+06  -2.125656e+05
   5.034629e+05   8.773857e+05
  -6.647541e+05   8.084892e+05
  -6.306966e+05   7.977313e+04
   1.251101e+05  -3.504323e+05
   4.838385e+05  -1.975753e+05
   1.014704e+05   6.213515e+04
  -4.634670e+05  -9.505020e+04
  -5.171596e+05  -6.911596e+05
   2.156346e+05  -1.199571e+06
   1.394154e+06  -9.038647e+05
   2.099522e+06   4.118206e+05
   1.484929e+06   1.953760e+06
  -2.082668e+05   2.436754e+06
  -1.619526e+06   1.418063e+06
  -1.691141e+06  -1.292673e+05
  -8.502918e+05  -8.895954e+05
  -3.165344e+05  -6.306605e+05
  -4.940015e+05  -2.037116e+05
  -6.480978e+05  -3.185829e+05
  -9.683197e+04  -7.794145e+05
   8.842688e+05  -9.074754e+05
   1.453941e+06  -3.234028e+05
   1.047339e+06   7.205599e+05
  -2.545720e+05   1.456992e+06
  -1.728399e+06   1.076289e+06
  -2.259788e+06  -4.812248e+05
  -1.141335e+06  -2.113432e+06
   1.020750e+06  -2.387321e+06
   2.566319e+06  -1.038952e+06
   2.363398e+06   6.693013e+05
   9.480648e+05   1.345345e+06
  -2.146178e+05   9.365429e+05
  -3.783546e+05   4.999803e+05
  -5.434555e+04   7.606697e+05
  -8.786773e+04   1.329724e+06
  -6.731538e+05   1.310495e+06
  -1.308215e+06   3.300728e+05
  -1.355497e+06  -1.080191e+06
  -5.715622e+05  -1.904324e+06
   6.173388e+05  -1.450251e+06
   1.293145e+06  -5.870210e+02
   8.195235e+05   1.295537e+06
  -3.980921e+05   1.408582e+06
  -1.181566e+06   4.003528e+05
  -8.211990e+05  -7.185735e+05
   1.332141e+05  -1.094687e+06
   5.543971e+05  -7.874001e+05
   9.105903e+04  -4.120503e+05
  -4.415137e+05  -3.318410e+05
  -6.459975e+04  -3.839821e+05
   1.162044e+06  -2.145055e+05
   2.088128e+06   3.286051e+05
   1.633671e+06   1.042716e+06
  -4.281874e+04   1.453966e+06
  -1.608647e+06   1.160293e+06
  -1.848157e+06   2.796753e+05
  -8.374646e+05  -5.094944e+05
   2.664026e+05  -5.817182e+05
   5.193675e+05  -2.989081e+04
   3.824331e+04   4.337145e+05
  -4.390217e+05   2.660442e+05
  -4.892674e+05  -3.410192e+05
  -2.731008e+05  -7.227817e+05
  -1.123011e+05  -4.811439e+05
  -1.361867e+05   8.697386e+04
  -2.691578e+05   2.845746e+05
  -2.760608e+05  -2.339227e+05
   1.294000e+05  -9.895825e+05
   8.996256e+05  -1.082073e+06
   1.387357e+06  -1.949499e+05
   8.814835e+05   9.148083e+05
  -4.103207e+05   1.164248e+06
  -1.274660e+06   3.632218e+05
  -7.456380e+05  -5.669769e+05
   7.072125e+05  -6.541648e+05
   1.593008e+06   9.638260e+04
   9.962656e+05   8.679000e+05
  -4.979257e+05   9.850401e+05
  -1.501948e+06   4.668838e+05
  -1.227337e+06  -1.978984e+05
  -1.291368e+05  -5.128997e+05
   6.547166e+05  -2.664392e+05
   3.948551e+05   2.994899e+05
  -5.767367e+05   5.402244e+05
  -1.195123e+06  -5.688589e+04
  -7.054654e+05  -1.176892e+06
   5.564953e+05  -1.730082e+06
   1.476497e+06  -9.216965e+05
   1.274508e+06   7.429293e+05
   2.244118e+05   1.798378e+06
  -7.336500e+05   1.299035e+06
  -9.292271e+05  -1.837154e+05
  -4.294978e+05  -1.198630e+06
   2.323438e+05  -9.664683e+05
   5.712038e+05  -8.086807e+04
   4.580904e+05   3.725703e+05
   1.495511e+05   1.314418e+05
   5.442328e+04  -9.115362e+04
   3.082543e+05   3.068699e+05
   5.312043e+05   9.737899e+05
   1.814284e+05   1.080240e+06
  -7.398579e+05   3.999289e+05
  -1.486379e+06  -4.536514e+05
  -1.277011e+06  -8.302960e+05
  -1.904285e+05  -7.061615e+05
   8.369587e+05  -4.337625e+05
   9.824497e+05  -1.865998e+05
   3.796197e+05   6.136961e+04
  -1.367313e+05   2.311920e+05
  -5.627171e+04   1.951051e+05
   2.437028e+05   7.804302e+04
   6.261257e+04   1.322894e+05
  -6.370576e+05   2.572818e+05
  -1.059325e+06   1.100869e+04
  -4.845058e+05  -6.972924e+05
   8.070641e+05  -1.217013e+06
   1.721776e+06  -8.077810e+05
   1.463928e+06   3.989984e+05
   3.103469e+05   1.410010e+06
  -7.599975e+05   1.408918e+06
  -1.051590e+06   5.785429e+05
  -6.615447e+05  -2.082962e+05
  -1.528412e+05  -3.602878e+05
   4.626469e+04  -8.525238e+04
  -9.023386e+04  -9.453052e+02
  -2.957679e+05  -3.745937e+05
  -2.510386e+05  -8.116930e+05
   1.637571e+05  -6.948868e+05
   6.844697e+05   9.027599e+04
   7.809826e+05   9.278692e+05
   1.683005e+05   1.042900e+06
  -7.381732e+05   2.932248e+05
  -1.068613e+06  -6.809350e+05
  -3.921510e+05  -1.095038e+06
   7.022996e+05  -7.197870e+05
   1.145375e+06   4.534774e+04
   5.648680e+05   6.284255e+05
  -2.791672e+05   7.169976e+05
  -4.002820e+05   3.845948e+05
   2.232259e+05  -6.595966e+03
   6.478747e+05  -5.691339e+04
   1.633359e+05   3.135443e+05
  -8.202854e+05   6.972775e+05
  -1.283944e+06   5.482584e+05
  -7.998609e+05  -1.865179e+05
   7.797660e+04  -8.905169e+05
   5.650277e+05  -8.860138e+05
   4.545329e+05  -1.915414e+05
   7.904280e+04   4.713704e+05
  -2.274785e+05   4.598428e+05
  -3.573788e+05  -1.160281e+05
  -2.726959e+05  -5.766519e+05
   3.770271e+04  -4.559002e+05
   3.970224e+05   2.550359e+04
   4.948094e+05   2.913370e+05
   2.468656e+05   1.083124e+05
  -5.052621e+04  -1.712099e+05
  -8.422063e+04  -8.379189e+04
   5.593147e+04   3.405325e+05
   1.242405e+04   5.859005e+05
  -3.014633e+05   2.756001e+05
  -5.064541e+05  -3.419932e+05
  -2.196628e+05  -6.470388e+05
   3.918010e+05  -3.402747e+05
   6.954018e+05   2.494805e+05
   2.834542e+05   5.626988e+05
  -5.122385e+05   3.846362e+05
  -9.092785e+05  -4.394214e+04
  -5.006374e+05  -3.697445e+05
   2.876413e+05  -4.314239e+05
   6.477725e+05  -2.702014e+05
   2.739895e+05  -2.848749e+04
  -3.182285e+05   9.973660e+04
  -4.017171e+05  -2.374543e+04
   1.378393e+05  -2.800357e+05
   7.034545e+05  -2.936215e+05
