
 $NMID
 id='ANONYMOUS ', fmtdat='(2E16.6)'
 volume=1.0
 tramp=1.0
 $END
   5.951279e+07  -1.831060e+06
   3.672865e+07   3.629897e+07
  -7.079237e+06   4.070326e+07
  -2.891884e+07   1.581976e+07
  -1.743133e+07  -7.478212e+06
   3.485467e+06  -9.934491e+06
   1.035293e+07   1.377703e+06
   2.886715e+06   1.030447e+07
  -6.500055e+06   9.691622e+06
  -1.009401e+07   2.105191e+06
  -7.445984e+06  -6.262078e+06
  -1.105074e+06  -8.853670e+06
   4.030214e+06  -3.039427e+06
   2.823999e+06   5.390140e+06
  -3.819193e+06   6.721059e+06
  -8.269023e+06  -1.318675e+06
  -4.854539e+06  -1.059029e+07
   3.699036e+06  -1.244420e+07
   1.043836e+07  -6.516002e+06
   1.146719e+07   1.732193e+06
   7.368067e+06   7.650458e+06
   1.130754e+06   9.261793e+06
  -3.030560e+06   6.680677e+06
  -2.261359e+06   2.842457e+06
   9.521952e+05   1.883708e+06
   4.927586e+05   4.043420e+06
  -5.177837e+06   4.727827e+06
  -9.816236e+06   9.897348e+05
  -7.480222e+06  -3.934530e+06
  -6.489469e+05  -5.249244e+06
   3.536775e+06  -2.933181e+06
   2.548846e+06  -3.617459e+05
  -3.072442e+05   7.617852e+05
  -1.981884e+06   6.159606e+05
  -2.221976e+06  -1.127261e+06
  -1.020119e+06  -3.838037e+06
   1.637244e+06  -4.136815e+06
   3.517591e+06  -1.887226e+05
   2.117132e+06   3.740734e+06
  -7.170051e+05   2.277125e+06
  -5.490731e+05  -2.300612e+06
   2.420913e+06  -2.360779e+06
   2.597273e+06   3.319734e+06
  -2.530675e+06   6.531185e+06
  -7.481759e+06   1.240975e+06
  -5.660070e+06  -7.220105e+06
   1.826402e+06  -9.095387e+06
   7.739401e+06  -2.773119e+06
   7.272021e+06   4.448923e+06
   1.949884e+06   6.170876e+06
  -3.541132e+06   2.792459e+06
  -5.368070e+06  -1.542700e+06
  -2.461313e+06  -3.583618e+06
   2.537928e+06  -2.315281e+06
   4.744977e+06   8.998050e+05
   2.063962e+06   2.829917e+06
  -1.775057e+06   1.475278e+06
  -1.770912e+06  -1.036059e+06
   1.476186e+06  -9.128417e+05
   2.638344e+06   1.961802e+06
  -7.307523e+05   3.779327e+06
  -4.989160e+06   2.105178e+06
  -5.630581e+06  -1.404790e+06
  -2.493251e+06  -4.167291e+06
   1.670279e+06  -5.509848e+06
   4.904122e+06  -5.161727e+06
   6.287420e+06  -2.065953e+06
   4.898159e+06   3.039776e+06
   1.215146e+06   6.307071e+06
  -1.850465e+06   4.923813e+06
  -1.868116e+06   1.166967e+06
  -1.040068e+05  -4.347251e+05
   2.827693e+05   9.249414e+05
  -1.377473e+06   1.961146e+06
  -2.781333e+06   5.091113e+05
  -2.160079e+06  -1.727506e+06
  -2.035506e+05  -2.081221e+06
   1.440527e+06  -2.749161e+05
   1.703955e+06   1.960679e+06
   1.294477e+05   2.927746e+06
  -2.719339e+06   1.825531e+06
  -4.644366e+06  -9.888919e+05
  -3.516664e+06  -3.751443e+06
  -1.401246e+05  -4.440068e+06
   2.309476e+06  -2.956005e+06
   2.348412e+06  -1.244503e+06
   1.902630e+06  -6.976099e+05
   2.983002e+06  -5.131965e+05
   4.422938e+06   6.908115e+05
   3.586757e+06   2.720370e+06
   2.301975e+05   4.154824e+06
  -3.105385e+06   4.013540e+06
  -4.103845e+06   2.293938e+06
  -2.696053e+06  -2.759779e+05
  -4.175241e+05  -2.211695e+06
   9.903766e+05  -2.008550e+06
   5.747521e+05  -7.255481e+03
  -1.036482e+06   1.360788e+06
  -1.930248e+06   4.651657e+05
  -1.000831e+06  -1.199940e+06
   4.664107e+05  -1.132074e+06
   3.948571e+05   3.954162e+05
  -1.140350e+06   6.620345e+05
  -1.923337e+06  -1.424332e+06
  -5.989477e+05  -3.631071e+06
   1.731427e+06  -3.419926e+06
   3.229382e+06  -1.007670e+06
   3.283426e+06   1.502827e+06
   2.229992e+06   2.709538e+06
   4.772981e+05   2.556553e+06
  -1.188148e+06   1.494994e+06
  -1.564252e+06   2.871165e+05
  -4.973915e+05  -3.347298e+04
   3.780348e+05   7.521472e+05
  -4.027741e+05   1.387516e+06
  -1.952054e+06   6.376111e+05
  -2.097845e+06  -8.829458e+05
  -4.054425e+05  -1.453308e+06
   1.182268e+06  -5.931931e+05
   8.761071e+05   4.471598e+05
  -8.743416e+05   4.927181e+05
  -2.167588e+06  -3.446232e+05
  -1.706001e+06  -1.337574e+06
   2.539795e+05  -1.940229e+06
   2.284604e+06  -1.675863e+06
   2.783012e+06  -3.264172e+05
   1.264814e+06   1.268174e+06
  -9.040780e+05   1.573027e+06
  -1.608835e+06   2.410580e+05
  -2.522131e+05  -1.105971e+06
   1.522126e+06  -7.894529e+05
   1.752372e+06   7.693373e+05
   3.425333e+05   1.669362e+06
  -1.115273e+06   9.766695e+05
  -1.270165e+06  -3.342271e+05
  -2.326240e+05  -8.030973e+05
   8.275961e+05  -6.868101e+04
   7.808942e+05   1.053068e+06
  -5.365059e+05   1.460441e+06
  -2.011342e+06   6.119165e+05
  -2.090349e+06  -1.003674e+06
  -4.392381e+05  -2.094415e+06
   1.431371e+06  -1.696702e+06
   1.747506e+06  -2.377123e+05
   5.119139e+05   8.766899e+05
  -6.573437e+05   8.172891e+05
  -6.158282e+05   9.195876e+04
   1.341090e+05  -3.289553e+05
   4.631647e+05  -1.777737e+05
   5.929141e+04   5.806468e+04
  -4.926853e+05  -1.207267e+05
  -5.223241e+05  -7.142494e+05
   2.137233e+05  -1.214252e+06
   1.388456e+06  -9.280758e+05
   2.113090e+06   3.757430e+05
   1.528470e+06   1.930342e+06
  -1.606841e+05   2.439506e+06
  -1.593101e+06   1.432042e+06
  -1.678027e+06  -1.140483e+05
  -8.366303e+05  -8.592322e+05
  -3.145872e+05  -5.809496e+05
  -5.193002e+05  -1.633895e+05
  -6.852227e+05  -3.136492e+05
  -1.185683e+05  -7.971170e+05
   8.779169e+05  -9.220107e+05
   1.445985e+06  -3.359660e+05
   1.040938e+06   6.984047e+05
  -2.433319e+05   1.441468e+06
  -1.709183e+06   1.093663e+06
  -2.262950e+06  -4.438620e+05
  -1.170484e+06  -2.100576e+06
   9.975558e+05  -2.414978e+06
   2.568339e+06  -1.076515e+06
   2.371306e+06   6.495463e+05
   9.420824e+05   1.333674e+06
  -2.181601e+05   9.153828e+05
  -3.518078e+05   4.792276e+05
  -1.973092e+03   7.618398e+05
  -4.074542e+04   1.354083e+06
  -6.524406e+05   1.343639e+06
  -1.314547e+06   3.635756e+05
  -1.384132e+06  -1.051453e+06
  -6.132819e+05  -1.893380e+06
   5.856530e+05  -1.463930e+06
   1.292798e+06  -2.125834e+04
   8.409254e+05   1.292645e+06
  -3.883638e+05   1.422128e+06
  -1.198318e+06   4.053256e+05
  -8.427335e+05  -7.356712e+05
   1.322564e+05  -1.119624e+06
   5.685762e+05  -7.986764e+05
   9.597538e+04  -4.040601e+05
  -4.533762e+05  -3.164052e+05
  -7.562592e+04  -3.801035e+05
   1.169661e+06  -2.353144e+05
   2.112038e+06   2.917269e+05
   1.657889e+06   1.021326e+06
  -3.000759e+04   1.472117e+06
  -1.607706e+06   1.202263e+06
  -1.853888e+06   3.047477e+05
  -8.447236e+05  -5.178935e+05
   2.632978e+05  -5.999322e+05
   5.268715e+05  -3.130211e+04
   5.593249e+04   4.468861e+05
  -4.259124e+05   2.787232e+05
  -4.995915e+05  -3.305644e+05
  -3.053377e+05  -7.109200e+05
  -1.387558e+05  -4.763134e+05
  -1.338842e+05   7.739405e+04
  -2.516891e+05   2.736647e+05
  -2.778956e+05  -2.309364e+05
   1.012651e+05  -9.861635e+05
   8.789462e+05  -1.104989e+06
   1.404271e+06  -2.376398e+05
   9.218926e+05   8.946289e+05
  -3.849174e+05   1.190446e+06
  -1.278525e+06   4.083316e+05
  -7.601664e+05  -5.460076e+05
   6.994703e+05  -6.659698e+05
   1.589208e+06   7.508645e+04
   9.910762e+05   8.556447e+05
  -4.975268e+05   9.826332e+05
  -1.491134e+06   4.715354e+05
  -1.216959e+06  -1.883048e+05
  -1.297333e+05  -5.071972e+05
   6.526607e+05  -2.713512e+05
   4.075573e+05   2.966123e+05
  -5.563942e+05   5.602846e+05
  -1.197084e+06  -1.823736e+04
  -7.461406e+05  -1.153697e+06
   4.998634e+05  -1.747152e+06
   1.446374e+06  -9.645464e+05
   1.290312e+06   7.085599e+05
   2.646738e+05   1.788231e+06
  -7.063460e+05   1.303951e+06
  -9.301080e+05  -1.757815e+05
  -4.424121e+05  -1.191410e+06
   2.280293e+05  -9.632871e+05
   5.742286e+05  -8.665976e+04
   4.540327e+05   3.611126e+05
   1.393924e+05   1.254033e+05
   5.759879e+04  -8.880628e+04
   3.330534e+05   3.069110e+05
   5.582673e+05   9.647138e+05
   1.886598e+05   1.073995e+06
  -7.482011e+05   4.139854e+05
  -1.491844e+06  -4.215656e+05
  -1.278972e+06  -8.038540e+05
  -2.037096e+05  -7.046207e+05
   8.143006e+05  -4.514307e+05
   9.732586e+05  -2.021042e+05
   3.917815e+05   5.966890e+04
  -1.266149e+05   2.347859e+05
  -6.741843e+04   1.901609e+05
   2.287195e+05   6.564505e+04
   7.153010e+04   1.292567e+05
  -6.134550e+05   2.757522e+05
  -1.059945e+06   3.988173e+04
  -5.233016e+05  -6.863647e+05
   7.630812e+05  -1.242772e+06
   1.711897e+06  -8.592404e+05
   1.490873e+06   3.544754e+05
   3.485621e+05   1.398807e+06
  -7.308739e+05   1.431292e+06
  -1.037053e+06   6.131913e+05
  -6.629635e+05  -1.843877e+05
  -1.678629e+05  -3.562184e+05
   2.996259e+04  -9.422699e+04
  -9.621012e+04  -8.929358e+03
  -2.974607e+05  -3.729638e+05
  -2.634434e+05  -8.061742e+05
   1.440414e+05  -7.014134e+05
   6.822785e+05   6.407465e+04
   8.106405e+05   8.980420e+05
   2.098043e+05   1.038584e+06
  -7.204421e+05   3.242558e+05
  -1.087934e+06  -6.412828e+05
  -4.278899e+05  -1.085151e+06
   6.814389e+05  -7.469965e+05
   1.152942e+06   1.308948e+04
   5.889940e+05   6.240886e+05
  -2.617776e+05   7.369400e+05
  -4.028487e+05   3.982748e+05
   2.091335e+05  -1.586140e+04
   6.425126e+05  -7.417433e+04
   1.756251e+05   3.117002e+05
  -8.035627e+05   7.146002e+05
  -1.282827e+06   5.694546e+05
  -8.183427e+05  -1.767574e+05
   5.502089e+04  -8.972650e+05
   5.549219e+05  -9.057289e+05
   4.622719e+05  -2.132955e+05
   9.692943e+04   4.630808e+05
  -2.131196e+05   4.721887e+05
  -3.581582e+05  -9.547341e+04
  -2.883535e+05  -5.692081e+05
   2.241006e+04  -4.673496e+05
   3.975195e+05   1.054554e+04
   5.066633e+05   2.873166e+05
   2.502101e+05   1.098572e+05
  -6.162719e+04  -1.788361e+05
  -8.823020e+04  -1.013337e+05
   8.025587e+04   3.296942e+05
   5.175431e+04   5.964756e+05
  -2.849375e+05   3.042533e+05
  -5.293848e+05  -3.135701e+05
  -2.567544e+05  -6.375128e+05
   3.765786e+05  -3.551900e+05
   7.086439e+05   2.234880e+05
   3.029531e+05   5.500361e+05
  -5.061166e+05   3.991947e+05
  -9.167635e+05  -1.543713e+04
  -5.131480e+05  -3.566696e+05
   2.760800e+05  -4.475072e+05
   6.431484e+05  -2.975984e+05
   2.826014e+05  -3.806825e+04
  -3.013034e+05   1.161725e+05
  -3.956060e+05  -6.185867e+02
   1.206247e+05  -2.741313e+05
   6.778103e+05  -3.097144e+05
