
 $NMID
 id='ANONYMOUS ', fmtdat='(2E16.6)'
 volume=1.0
 tramp=1.0
 $END
  -5.968147e+07   1.937478e+06
  -3.705981e+07  -3.625576e+07
   6.883699e+06  -4.088671e+07
   2.903657e+07  -1.609898e+07
   1.767528e+07   7.370760e+06
  -3.414327e+06   1.004002e+07
  -1.048904e+07  -1.282084e+06
  -3.016041e+06  -1.039025e+07
   6.522040e+06  -9.874900e+06
   1.019661e+07  -2.197166e+06
   7.500666e+06   6.312610e+06
   1.089456e+06   8.935353e+06
  -4.057429e+06   3.033500e+06
  -2.815673e+06  -5.493055e+06
   3.873979e+06  -6.834070e+06
   8.352126e+06   1.289707e+06
   4.917614e+06   1.066126e+07
  -3.698609e+06   1.254052e+07
  -1.048093e+07   6.557255e+06
  -1.149268e+07  -1.740775e+06
  -7.365641e+06  -7.644274e+06
  -1.155026e+06  -9.229670e+06
   2.952276e+06  -6.695254e+06
   2.186315e+06  -2.954439e+06
  -9.488986e+05  -2.033850e+06
  -4.043015e+05  -4.120977e+06
   5.295924e+06  -4.691254e+06
   9.901425e+06  -8.958768e+05
   7.492197e+06   3.999961e+06
   5.908664e+05   5.239513e+06
  -3.594628e+06   2.861308e+06
  -2.514862e+06   2.911230e+05
   4.325169e+05  -7.593757e+05
   2.080439e+06  -5.278133e+05
   2.198758e+06   1.233393e+06
   9.300842e+05   3.885085e+06
  -1.667212e+06   4.121958e+06
  -3.463848e+06   1.716163e+05
  -2.076217e+06  -3.717965e+06
   6.771465e+05  -2.224845e+06
   4.678513e+05   2.352084e+06
  -2.482695e+06   2.387173e+06
  -2.639306e+06  -3.339508e+06
   2.492623e+06  -6.598508e+06
   7.473003e+06  -1.310227e+06
   5.698873e+06   7.208897e+06
  -1.790085e+06   9.138483e+06
  -7.769478e+06   2.794571e+06
  -7.347975e+06  -4.503877e+06
  -1.982049e+06  -6.264250e+06
   3.599034e+06  -2.842172e+06
   5.467120e+06   1.567417e+06
   2.521826e+06   3.644091e+06
  -2.546554e+06   2.360007e+06
  -4.793389e+06  -8.920446e+05
  -2.100325e+06  -2.849252e+06
   1.782707e+06  -1.490885e+06
   1.804355e+06   1.057060e+06
  -1.475180e+06   9.674604e+05
  -2.701801e+06  -1.924974e+06
   6.507917e+05  -3.805496e+06
   4.973442e+06  -2.171147e+06
   5.687060e+06   1.366740e+06
   2.538550e+06   4.184722e+06
  -1.706659e+06   5.542883e+06
  -4.993723e+06   5.163560e+06
  -6.348519e+06   2.033689e+06
  -4.897191e+06  -3.087438e+06
  -1.184407e+06  -6.366608e+06
   1.879099e+06  -4.995116e+06
   1.903147e+06  -1.228383e+06
   1.642615e+05   4.113637e+05
  -2.060216e+05  -9.040681e+05
   1.438928e+06  -1.906877e+06
   2.798952e+06  -4.328247e+05
   2.126075e+06   1.802616e+06
   1.386658e+05   2.110909e+06
  -1.492443e+06   2.318040e+05
  -1.706136e+06  -2.042102e+06
  -8.622366e+04  -2.975353e+06
   2.767770e+06  -1.805214e+06
   4.664907e+06   1.044115e+06
   3.511320e+06   3.791946e+06
   1.299308e+05   4.454702e+06
  -2.314418e+06   2.966401e+06
  -2.357112e+06   1.265441e+06
  -1.932124e+06   7.194544e+05
  -3.042532e+06   5.132429e+05
  -4.496426e+06  -7.303701e+05
  -3.628080e+06  -2.795637e+06
  -1.956771e+05  -4.231881e+06
   3.205431e+06  -4.048037e+06
   4.199287e+06  -2.271459e+06
   2.720904e+06   3.249125e+05
   3.753632e+05   2.244638e+06
  -1.037569e+06   2.011481e+06
  -5.770932e+05  -3.827346e+03
   1.072128e+06  -1.365579e+06
   1.961706e+06  -4.549941e+05
   9.989510e+05   1.219976e+06
  -4.934117e+05   1.142810e+06
  -4.120936e+05  -4.136474e+05
   1.162668e+06  -6.972287e+05
   1.977606e+06   1.423135e+06
   6.367370e+05   3.701102e+06
  -1.758330e+06   3.524984e+06
  -3.317790e+06   1.059670e+06
  -3.376318e+06  -1.551115e+06
  -2.270100e+06  -2.813112e+06
  -4.566045e+05  -2.631816e+06
   1.233659e+06  -1.507055e+06
   1.596692e+06  -2.677317e+05
   5.062371e+05   3.950287e+04
  -3.779175e+05  -7.696422e+05
   4.153836e+05  -1.406933e+06
   1.983507e+06  -6.359512e+05
   2.129114e+06   9.077191e+05
   4.083395e+05   1.480231e+06
  -1.209339e+06   5.967049e+05
  -8.958390e+05  -4.690064e+05
   8.997343e+05  -5.095102e+05
   2.226888e+06   3.662415e+05
   1.743518e+06   1.394973e+06
  -2.791684e+05   1.994495e+06
  -2.354705e+06   1.691845e+06
  -2.842692e+06   3.047872e+05
  -1.277518e+06  -1.299243e+06
   9.276331e+05  -1.587578e+06
   1.630415e+06  -2.337763e+05
   2.443041e+05   1.120155e+06
  -1.554846e+06   7.876842e+05
  -1.780693e+06  -7.978528e+05
  -3.405546e+05  -1.708831e+06
   1.145328e+06  -9.967235e+05
   1.300320e+06   3.451051e+05
   2.388477e+05   8.224471e+05
  -8.395174e+05   6.659174e+04
  -7.828031e+05  -1.077340e+06
   5.627803e+05  -1.478018e+06
   2.052956e+06  -5.980771e+05
   2.115131e+06   1.044391e+06
   4.262585e+05   2.135886e+06
  -1.472073e+06   1.715242e+06
  -1.783380e+06   2.283443e+05
  -5.172616e+05  -8.988409e+05
   6.775941e+05  -8.292190e+05
   6.324589e+05  -8.329032e+04
  -1.425109e+05   3.449997e+05
  -4.871343e+05   1.796247e+05
  -7.171149e+04  -7.274019e+04
   5.027419e+05   1.108127e+05
   5.361656e+05   7.266474e+05
  -2.223086e+05   1.238278e+06
  -1.422992e+06   9.345692e+05
  -2.149272e+06  -4.036950e+05
  -1.536224e+06  -1.981439e+06
   1.913947e+05  -2.485049e+06
   1.644315e+06  -1.447386e+06
   1.718698e+06   1.341248e+05
   8.484978e+05   8.979147e+05
   3.061924e+05   6.125084e+05
   5.126116e+05   1.754287e+05
   6.879770e+05   3.165080e+05
   1.154270e+05   8.063416e+05
  -9.027541e+05   9.339629e+05
  -1.482677e+06   3.302662e+05
  -1.058677e+06  -7.299857e+05
   2.650240e+05  -1.477412e+06
   1.758522e+06  -1.100782e+06
   2.305244e+06   4.775955e+05
   1.175637e+06   2.154688e+06
  -1.034720e+06   2.454497e+06
  -2.626710e+06   1.078427e+06
  -2.418564e+06  -6.822013e+05
  -9.567079e+05  -1.376851e+06
   2.332781e+05  -9.441019e+05
   3.767625e+05  -4.880660e+05
   2.150809e+04  -7.659286e+05
   5.650057e+04  -1.367120e+06
   6.729490e+05  -1.357713e+06
   1.337908e+06  -3.571303e+05
   1.396147e+06   1.085689e+06
   6.026471e+05   1.935291e+06
  -6.137786e+05   1.484102e+06
  -1.319225e+06   8.478509e+03
  -8.474278e+05  -1.324124e+06
   4.048939e+05  -1.448401e+06
   1.223725e+06  -4.118904e+05
   8.577518e+05   7.474420e+05
  -1.351071e+05   1.138823e+06
  -5.796421e+05   8.157638e+05
  -1.012249e+05   4.172400e+05
   4.551113e+05   3.281299e+05
   7.103655e+04   3.881138e+05
  -1.191927e+06   2.305737e+05
  -2.145395e+06  -3.150314e+05
  -1.680132e+06  -1.055383e+06
   3.768384e+04  -1.499301e+06
   1.642757e+06  -1.210322e+06
   1.892716e+06  -2.962630e+05
   8.628465e+05   5.307500e+05
  -2.690459e+05   6.070171e+05
  -5.374381e+05   3.081326e+04
  -5.316825e+04  -4.495448e+05
   4.384673e+05  -2.759954e+05
   5.042489e+05   3.417772e+05
   2.961559e+05   7.249644e+05
   1.303770e+05   4.830872e+05
   1.409535e+05  -8.081495e+04
   2.676157e+05  -2.774867e+05
   2.820768e+05   2.386638e+05
  -1.186042e+05   1.003357e+06
  -9.066938e+05   1.114900e+06
  -1.423549e+06   2.275667e+05
  -9.221493e+05  -9.168198e+05
   4.014179e+05  -1.202966e+06
   1.298915e+06  -3.989800e+05
   7.659281e+05   5.659647e+05
  -7.194799e+05   6.729856e+05
  -1.623407e+06  -9.299223e+04
  -1.009113e+06  -8.872675e+05
   5.159555e+05  -1.004818e+06
   1.532495e+06  -4.707160e+05
   1.246455e+06   2.052874e+05
   1.284416e+05   5.219573e+05
  -6.694889e+05   2.724534e+05
  -4.113777e+05  -3.035380e+05
   5.738058e+05  -5.595118e+05
   1.215405e+06   3.624909e+04
   7.397883e+05   1.182111e+06
  -5.340098e+05   1.767065e+06
  -1.484702e+06   9.595010e+05
  -1.304264e+06  -7.390549e+05
  -2.466861e+05  -1.825924e+06
   7.377119e+05  -1.323406e+06
   9.496763e+05   1.873305e+05
   4.409900e+05   1.221861e+06
  -2.410699e+05   9.855442e+05
  -5.863726e+05   8.471628e+04
  -4.613413e+05  -3.770190e+05
  -1.435275e+05  -1.337937e+05
  -5.917280e+04   9.225197e+04
  -3.321728e+05  -3.095618e+05
  -5.562256e+05  -9.869082e+05
  -1.836273e+05  -1.101390e+06
   7.625879e+05  -4.181708e+05
   1.516016e+06   4.481892e+05
   1.298391e+06   8.380185e+05
   2.004945e+05   7.199867e+05
  -8.388477e+05   4.467195e+05
  -9.969137e+05   1.946565e+05
  -3.970236e+05  -6.050127e+04
   1.330508e+05  -2.360855e+05
   6.811159e+04  -1.989989e+05
  -2.351034e+05  -7.628993e+04
  -6.906600e+04  -1.313221e+05
   6.321502e+05  -2.672767e+05
   1.078277e+06  -2.661060e+04
   5.178945e+05   6.989067e+05
  -7.948400e+05   1.249649e+06
  -1.747812e+06   8.530362e+05
  -1.505603e+06  -3.773709e+05
  -3.350698e+05  -1.428215e+06
   7.593719e+05  -1.448016e+06
   1.060945e+06  -6.083307e+05
   6.713865e+05   1.993324e+05
   1.644386e+05   3.630590e+05
  -3.366605e+04   8.927930e+04
   9.890907e+04   5.673514e+03
   3.017988e+05   3.838104e+05
   2.603248e+05   8.257543e+05
  -1.555331e+05   7.106048e+05
  -6.922864e+05  -7.780024e+04
  -8.087830e+05  -9.254710e+05
  -1.957517e+05  -1.055383e+06
   7.368706e+05  -3.142588e+05
   1.094765e+06   6.696442e+05
   4.191662e+05   1.107531e+06
  -7.011973e+05   7.479197e+05
  -1.170304e+06  -2.730972e+04
  -5.917018e+05  -6.374616e+05
   2.720726e+05  -7.429931e+05
   4.104731e+05  -4.024716e+05
  -2.161075e+05   8.540177e+03
  -6.557018e+05   6.587902e+04
  -1.740809e+05  -3.175795e+05
   8.275780e+05  -7.181370e+05
   1.312147e+06  -5.698626e+05
   8.293877e+05   1.834927e+05
  -6.629838e+04   9.108593e+05
  -5.712286e+05   9.164052e+05
  -4.666429e+05   2.116161e+05
  -8.920749e+04  -4.726762e+05
   2.219122e+05  -4.750959e+05
   3.606855e+05   1.057186e+05
   2.856643e+05   5.828071e+05
  -2.699035e+04   4.711911e+05
  -4.030675e+05  -1.730628e+04
  -5.129542e+05  -2.951521e+05
  -2.552005e+05  -1.125618e+05
   6.090805e+04   1.782951e+05
   9.339213e+04   9.798092e+04
  -7.023668e+04  -3.349249e+05
  -4.087831e+04  -5.976719e+05
   2.908198e+05  -2.971716e+05
   5.261920e+05   3.264867e+05
   2.459433e+05   6.474564e+05
  -3.883231e+05   3.533192e+05
  -7.139102e+05  -2.370604e+05
  -2.981634e+05  -5.637664e+05
   5.186683e+05  -4.002633e+05
   9.293318e+05   2.731958e+04
   5.165761e+05   3.687837e+05
  -2.844283e+05   4.490981e+05
  -6.545969e+05   2.919952e+05
  -2.846182e+05   3.693704e+04
   3.099695e+05  -1.079111e+05
   4.009299e+05   1.134346e+04
  -1.318244e+05   2.773405e+05
  -6.995166e+05   3.019196e+05
