
 $NMID
 id='ANONYMOUS ', fmtdat='(2E16.6)'
 volume=1.0
 tramp=1.0
 $END
  -4.186457e+07  -8.375759e+05
  -2.539472e+07  -2.439874e+07
   4.412584e+06  -2.752456e+07
   1.980152e+07  -1.254778e+07
   1.291834e+07   3.176152e+06
  -1.498384e+06   7.000406e+06
  -7.556160e+06   4.759684e+05
  -3.301655e+06  -7.024730e+06
   3.786121e+06  -8.265851e+06
   7.334471e+06  -2.543418e+06
   5.654403e+06   4.937594e+06
   6.309602e+05   7.182025e+06
  -3.370259e+06   1.950436e+06
  -2.386599e+06  -5.097484e+06
   2.686558e+06  -6.008880e+06
   6.176657e+06   4.974278e+05
   3.801436e+06   7.822365e+06
  -2.643291e+06   9.247924e+06
  -7.754467e+06   4.456083e+06
  -8.082938e+06  -1.969395e+06
  -4.363179e+06  -5.812184e+06
   1.895860e+04  -5.900451e+06
   1.679061e+06  -3.769259e+06
  -3.453649e+04  -2.226664e+06
  -1.871562e+06  -2.952625e+06
   1.754736e+05  -4.451622e+06
   5.509908e+06  -3.564755e+06
   8.601099e+06   2.879731e+05
   5.569135e+06   3.887893e+06
  -6.777490e+05   4.118527e+06
  -3.955125e+06   1.531841e+06
  -2.097047e+06  -1.010031e+06
   1.595478e+06  -1.646426e+06
   3.256474e+06  -2.687432e+05
   2.177628e+06   2.271218e+06
  -1.129266e+05   4.044503e+06
  -1.911768e+06   2.830423e+06
  -2.033620e+06  -8.402568e+05
  -5.154359e+05  -2.894331e+06
   7.513106e+05  -5.963760e+05
  -1.687552e+05   2.918697e+06
  -2.247741e+06   2.278097e+06
  -2.138852e+06  -2.311158e+06
   1.244319e+06  -4.640207e+06
   4.514189e+06  -8.924791e+05
   3.619612e+06   4.946352e+06
  -1.202277e+06   6.224830e+06
  -5.659801e+06   1.794529e+06
  -5.950971e+06  -3.504085e+06
  -2.051511e+06  -5.071241e+06
   2.802542e+06  -2.693170e+06
   4.830671e+06   8.284394e+05
   2.590745e+06   2.733132e+06
  -1.617576e+06   1.936976e+06
  -3.629798e+06  -4.741302e+05
  -1.746404e+06  -1.984761e+06
   1.281435e+06  -1.109531e+06
   1.679011e+06   7.665222e+05
  -5.755777e+05   1.071606e+06
  -1.977928e+06  -5.921583e+05
  -2.667908e+05  -2.076482e+06
   2.825750e+06  -1.589520e+06
   3.991618e+06   4.990967e+05
   2.011799e+06   2.825504e+06
  -1.658598e+06   4.332841e+06
  -4.695285e+06   4.006087e+06
  -5.421593e+06   1.150267e+06
  -3.557325e+06  -2.986801e+06
  -5.618275e+05  -5.339807e+06
   1.305983e+06  -4.242059e+06
   1.171470e+06  -1.608543e+06
   4.389897e+05  -4.890784e+05
   8.630977e+05  -1.157855e+06
   2.245742e+06  -1.254762e+06
   2.851195e+06   4.960017e+05
   1.697716e+06   2.460467e+06
  -4.254027e+05   2.365496e+06
  -1.958661e+06   1.104667e+05
  -1.799185e+06  -2.313984e+06
   1.524544e+05  -2.924728e+06
   2.712105e+06  -1.278328e+06
   3.843504e+06   1.435953e+06
   2.437373e+06   3.333009e+06
  -2.312471e+05   3.310221e+06
  -1.779026e+06   1.998644e+06
  -1.607357e+06   9.632759e+05
  -1.464639e+06   8.283651e+05
  -2.708546e+06   6.712760e+05
  -4.116429e+06  -5.520771e+05
  -3.378570e+06  -2.552516e+06
  -1.869345e+05  -3.997776e+06
   3.171766e+06  -3.803439e+06
   4.206440e+06  -1.905385e+06
   2.548522e+06   6.840483e+05
  -2.039401e+04   2.292051e+06
  -1.308574e+06   1.772530e+06
  -5.270506e+05  -1.374138e+05
   1.149218e+06  -1.238217e+06
   1.791334e+06  -3.525189e+05
   7.604165e+05   1.135030e+06
  -5.969092e+05   1.107503e+06
  -5.940573e+05  -3.336613e+05
   7.410398e+05  -9.420650e+05
   1.764323e+06   6.117565e+05
   1.167748e+06   2.919515e+06
  -7.654941e+05   3.555757e+06
  -2.734477e+06   1.798590e+06
  -3.549802e+06  -9.324833e+05
  -2.696477e+06  -2.743805e+06
  -6.102651e+05  -2.770256e+06
   1.296323e+06  -1.481121e+06
   1.616293e+06  -1.714956e+05
   4.869252e+05   4.412270e+04
  -3.632525e+05  -7.313285e+05
   3.375116e+05  -1.244023e+06
   1.738283e+06  -5.600719e+05
   1.931760e+06   7.428741e+05
   4.448059e+05   1.289729e+06
  -1.112266e+06   6.067845e+05
  -9.807258e+05  -4.200644e+05
   7.441914e+05  -6.835667e+05
   2.280185e+06   7.773571e+04
   1.992878e+06   1.300712e+06
  -8.383028e+04   2.113144e+06
  -2.284143e+06   1.790385e+06
  -2.762353e+06   3.328080e+05
  -1.189822e+06  -1.179926e+06
   8.586300e+05  -1.381687e+06
   1.420198e+06  -1.614584e+05
   1.356145e+05   1.004669e+06
  -1.468072e+06   7.096547e+05
  -1.705713e+06  -7.022671e+05
  -4.494504e+05  -1.606560e+06
   9.729842e+05  -1.073015e+06
   1.265089e+06   1.641206e+05
   3.428846e+05   7.177649e+05
  -7.191846e+05   7.524120e+04
  -7.029181e+05  -1.018488e+06
   5.907294e+05  -1.390084e+06
   1.991738e+06  -5.070566e+05
   1.994835e+06   1.047607e+06
   3.869448e+05   2.027560e+06
  -1.370921e+06   1.624694e+06
  -1.682315e+06   2.590195e+05
  -5.442153e+05  -8.276498e+05
   6.186125e+05  -8.249375e+05
   6.879225e+05  -7.880474e+04
  -5.330112e+04   4.634392e+05
  -5.640104e+05   3.314920e+05
  -3.043233e+05  -7.957895e+04
   3.380280e+05  -7.551769e+04
   5.603478e+05   5.296563e+05
  -1.074316e+05   1.145183e+06
  -1.324534e+06   9.166620e+05
  -2.058246e+06  -3.784790e+05
  -1.453714e+06  -1.906271e+06
   2.002091e+05  -2.423315e+06
   1.599807e+06  -1.493838e+06
   1.754426e+06   4.306153e+04
   9.887020e+05   9.506568e+05
   3.740505e+05   8.318711e+05
   3.842600e+05   3.406043e+05
   4.998992e+05   2.718087e+05
   7.137488e+04   6.792898e+05
  -8.215343e+05   9.173629e+05
  -1.451720e+06   3.987411e+05
  -1.136413e+06  -7.236655e+05
   1.716126e+05  -1.545210e+06
   1.705825e+06  -1.149369e+06
   2.272970e+06   4.405032e+05
   1.196443e+06   2.050892e+06
  -8.942414e+05   2.338647e+06
  -2.439916e+06   1.100655e+06
  -2.375084e+06  -5.343691e+05
  -1.096735e+06  -1.305840e+06
   1.127105e+05  -1.052763e+06
   4.582335e+05  -6.257871e+05
   2.280893e+05  -7.466468e+05
   1.785122e+05  -1.208414e+06
   6.372069e+05  -1.208457e+06
   1.234900e+06  -2.960037e+05
   1.311325e+06   1.076758e+06
   5.507366e+05   1.885115e+06
  -6.238059e+05   1.431638e+06
  -1.284937e+06   2.554676e+04
  -8.371484e+05  -1.221753e+06
   3.063175e+05  -1.374371e+06
   1.058818e+06  -4.901189e+05
   7.876093e+05   5.532340e+05
  -2.880842e+04   9.850452e+05
  -4.087118e+05   7.860900e+05
  -3.021648e+04   4.573392e+05
   4.120995e+05   3.588344e+05
   4.801143e+04   3.921977e+05
  -1.096704e+06   2.270448e+05
  -1.990263e+06  -2.984409e+05
  -1.606922e+06  -9.794863e+05
  -3.811859e+04  -1.363768e+06
   1.488059e+06  -1.109727e+06
   1.781685e+06  -3.363297e+05
   8.494363e+05   3.872410e+05
  -2.212663e+05   5.181013e+05
  -4.786902e+05   7.366578e+04
   1.492508e+03  -3.627684e+05
   4.710336e+05  -2.441340e+05
   4.687100e+05   3.403846e+05
   1.863300e+05   7.431378e+05
   3.198514e+04   4.858799e+05
   1.400549e+05  -1.440012e+05
   3.252870e+05  -3.565774e+05
   2.877203e+05   2.204184e+05
  -1.681812e+05   1.007892e+06
  -8.860169e+05   1.050515e+06
  -1.274869e+06   1.279273e+05
  -7.701414e+05  -9.143058e+05
   4.127017e+05  -1.069728e+06
   1.207616e+06  -2.708178e+05
   7.234711e+05   5.896890e+05
  -6.763313e+05   6.610556e+05
  -1.608682e+06  -4.630470e+04
  -1.095780e+06  -8.285391e+05
   4.050136e+05  -1.038915e+06
   1.501065e+06  -5.826940e+05
   1.287453e+06   1.282018e+05
   1.730874e+05   5.251045e+05
  -6.353461e+05   3.036274e+05
  -3.611599e+05  -2.718790e+05
   6.147691e+05  -4.940501e+05
   1.178362e+06   1.249447e+05
   6.178095e+05   1.205993e+06
  -6.533421e+05   1.683585e+06
  -1.515967e+06   8.497748e+05
  -1.257975e+06  -7.776279e+05
  -2.020928e+05  -1.808926e+06
   7.350150e+05  -1.334077e+06
   9.367532e+05   1.322245e+05
   4.787210e+05   1.184119e+06
  -1.609049e+05   9.982411e+05
  -5.456735e+05   1.078695e+05
  -5.080698e+05  -3.822802e+05
  -2.078595e+05  -1.471171e+05
  -3.112130e+04   1.075488e+05
  -2.193605e+05  -2.712952e+05
  -4.918808e+05  -9.566034e+05
  -2.474519e+05  -1.086245e+06
   6.568238e+05  -4.036488e+05
   1.490629e+06   4.609293e+05
   1.335342e+06   8.298498e+05
   1.935804e+05   6.896503e+05
  -8.952499e+05   4.233944e+05
  -1.000592e+06   2.039086e+05
  -3.262464e+05  -3.082137e+04
   1.611226e+05  -2.241948e+05
  -1.380190e+04  -2.249864e+05
  -3.179576e+05  -1.158850e+05
  -3.234362e+04  -1.382709e+05
   7.171821e+05  -2.248694e+05
   1.044973e+06   2.451456e+04
   3.637700e+05   6.921127e+05
  -8.901118e+05   1.158123e+06
  -1.674095e+06   7.230880e+05
  -1.359710e+06  -4.628273e+05
  -2.603794e+05  -1.419530e+06
   7.559547e+05  -1.363576e+06
   1.053729e+06  -5.096413e+05
   6.669023e+05   2.569346e+05
   1.148195e+05   3.604033e+05
  -1.128323e+05   4.385385e+04
   6.341726e+04  -4.628343e+04
   3.215734e+05   3.523146e+05
   2.672343e+05   8.078697e+05
  -1.887419e+05   6.727256e+05
  -6.950943e+05  -1.487661e+05
  -7.199225e+05  -9.842859e+05
  -7.018815e+04  -1.034461e+06
   7.843930e+05  -2.123324e+05
   1.029570e+06   7.594841e+05
   3.239614e+05   1.092532e+06
  -7.238349e+05   6.509559e+05
  -1.102645e+06  -8.702888e+04
  -5.075114e+05  -5.878821e+05
   2.879583e+05  -6.430485e+05
   3.474091e+05  -3.569423e+05
  -2.859956e+05  -1.868034e+04
  -6.614064e+05   3.569491e+04
  -1.341177e+05  -3.029571e+05
   8.259406e+05  -6.869713e+05
   1.227525e+06  -5.672982e+05
   7.251601e+05   1.523433e+05
  -1.000469e+05   8.576908e+05
  -5.224150e+05   8.408238e+05
  -3.937518e+05   1.329373e+05
  -3.752820e+04  -4.972293e+05
   2.480600e+05  -4.184376e+05
   3.590249e+05   1.781887e+05
   2.509134e+05   5.802182e+05
  -6.406429e+04   4.006151e+05
  -3.923802e+05  -5.807778e+04
  -4.636436e+05  -2.598528e+05
  -2.405926e+05  -7.659229e+04
   1.582282e+04   1.276467e+05
   7.639363e+04  -7.759646e+03
   2.859558e+04  -3.798603e+05
   1.150100e+05  -5.246567e+05
   3.460818e+05  -1.649406e+05
   4.231392e+05   4.216637e+05
   1.036295e+05   6.608465e+05
  -4.265005e+05   3.026786e+05
  -6.485197e+05  -3.022026e+05
  -2.412244e+05  -5.890732e+05
   4.995193e+05  -3.617008e+05
   8.685916e+05   9.031580e+04
   4.719751e+05   3.797795e+05
  -2.967608e+05   3.788233e+05
  -6.356918e+05   2.005394e+05
  -2.277196e+05   1.092214e+04
   3.836858e+05  -4.877473e+04
   4.263266e+05   9.558136e+04
  -1.928403e+05   3.161606e+05
  -7.899285e+05   2.780773e+05
