
 $NMID
 id='ANONYMOUS ', fmtdat='(2E16.6)'
 volume=1.0
 tramp=1.0
 $END
   2.457239e+07   6.212438e+05
   1.575394e+07   1.262102e+07
  -1.039163e+06   1.570744e+07
  -1.106692e+07   9.320207e+06
  -8.561824e+06   9.560318e+04
  -9.431995e+04  -4.345166e+06
   4.870924e+06  -1.629960e+06
   3.220031e+06   4.047258e+06
  -1.538243e+06   6.260157e+06
  -4.582180e+06   2.558783e+06
  -3.780315e+06  -3.191470e+06
  -3.910143e+05  -4.951853e+06
   2.316305e+06  -1.061638e+06
   1.731845e+06   3.996471e+06
  -1.549135e+06   4.646540e+06
  -4.015850e+06   2.101284e+05
  -2.783233e+06  -4.840622e+06
   1.332879e+06  -5.953369e+06
   4.737379e+06  -2.767382e+06
   4.775238e+06   1.457095e+06
   2.107734e+06   3.510392e+06
  -3.426088e+05   2.917250e+06
  -3.867899e+05   1.641109e+06
   1.319773e+06   1.712396e+06
   1.921394e+06   3.096717e+06
  -5.613158e+05   3.812247e+06
  -4.607757e+06   2.245478e+06
  -6.283842e+06  -8.459428e+05
  -3.529099e+06  -3.008719e+06
   1.183501e+06  -2.643147e+06
   3.348365e+06  -4.454218e+05
   1.344392e+06   1.537084e+06
  -2.097403e+06   1.702698e+06
  -3.331876e+06  -1.007382e+05
  -1.646212e+06  -2.488632e+06
   7.421966e+05  -3.325059e+06
   1.606239e+06  -1.583268e+06
   7.661775e+05   1.114867e+06
  -3.746095e+05   1.769451e+06
  -4.785790e+05  -4.258046e+05
   5.968597e+05  -2.662485e+06
   1.752960e+06  -1.833400e+06
   1.594917e+06   1.317416e+06
  -1.644138e+05   2.904690e+06
  -2.071669e+06   8.083054e+05
  -2.065017e+06  -2.651990e+06
   4.010487e+05  -3.612912e+06
   3.436360e+06  -1.119523e+06
   4.248010e+06   2.263727e+06
   1.824191e+06   3.586852e+06
  -1.903074e+06   2.217110e+06
  -3.740777e+06  -2.617639e+05
  -2.267174e+06  -1.807213e+06
   8.028107e+05  -1.467515e+06
   2.416477e+06   6.760167e+04
   1.334698e+06   1.150099e+06
  -7.552611e+05   7.555557e+05
  -1.351842e+06  -4.817819e+05
   4.823626e+03  -1.049579e+06
   1.394888e+06  -3.096474e+05
   9.124639e+05   8.799553e+05
  -1.107068e+06   1.220637e+06
  -2.474791e+06   2.198943e+05
  -1.507538e+06  -1.556347e+06
   1.260988e+06  -2.915180e+06
   3.648412e+06  -2.665165e+06
   3.900847e+06  -5.097520e+05
   2.188703e+06   2.310735e+06
   1.783714e+05   3.801732e+06
  -7.302092e+05   3.160927e+06
  -6.335235e+05   1.620733e+06
  -6.311080e+05   8.672910e+05
  -1.354822e+06   9.645696e+05
  -2.251439e+06   5.574388e+05
  -2.281945e+06  -9.684897e+05
  -1.065142e+06  -2.379909e+06
   7.258075e+05  -2.035403e+06
   1.873952e+06   5.481475e+04
   1.486780e+06   2.107555e+06
  -2.888590e+05   2.373023e+06
  -2.176475e+06   7.438291e+05
  -2.674816e+06  -1.360226e+06
  -1.443882e+06  -2.417780e+06
   2.968798e+05  -2.070599e+06
   1.090876e+06  -1.166179e+06
   8.958373e+05  -7.024807e+05
   9.811239e+05  -7.866553e+05
   2.092988e+06  -6.523233e+05
   3.225079e+06   3.650586e+05
   2.667477e+06   1.998449e+06
   1.295364e+05   3.194348e+06
  -2.635058e+06   2.990840e+06
  -3.480188e+06   1.328239e+06
  -1.971762e+06  -7.785322e+05
   2.701642e+05  -1.884180e+06
   1.231543e+06  -1.292673e+06
   3.931018e+05   1.887632e+05
  -9.979119e+05   9.355877e+05
  -1.386865e+06   2.348597e+05
  -4.962631e+05  -8.773361e+05
   5.630309e+05  -8.818527e+05
   6.006158e+05   2.616830e+05
  -4.224599e+05   9.604457e+05
  -1.437494e+06  -5.399713e+04
  -1.322907e+06  -2.070648e+06
   1.325847e+05  -3.081997e+06
   2.059520e+06  -1.941216e+06
   3.109334e+06   4.962457e+05
   2.452584e+06   2.326421e+06
   5.420208e+05   2.405376e+06
  -1.127462e+06   1.193286e+06
  -1.345148e+06   6.689317e+04
  -3.929928e+05  -4.299929e+04
   2.895725e+05   5.892921e+05
  -2.329191e+05   9.489424e+05
  -1.306657e+06   4.316839e+05
  -1.507144e+06  -5.259691e+05
  -3.973308e+05  -9.763398e+05
   8.791812e+05  -5.083967e+05
   8.632653e+05   3.437685e+05
  -5.609985e+05   6.741785e+05
  -1.958126e+06   6.139142e+04
  -1.790217e+06  -1.082846e+06
   1.195235e+03  -1.844582e+06
   1.893129e+06  -1.523404e+06
   2.259109e+06  -2.679484e+05
   9.402945e+05   9.188271e+05
  -6.677911e+05   1.032179e+06
  -1.057411e+06   1.018740e+05
  -5.410486e+04  -7.598245e+05
   1.171511e+06  -5.391732e+05
   1.379216e+06   5.425551e+05
   4.267455e+05   1.297324e+06
  -7.353848e+05   9.432118e+05
  -1.051877e+06  -4.706400e+04
  -3.468351e+05  -5.552127e+05
   5.327217e+05  -7.322431e+04
   5.345369e+05   8.126193e+05
  -5.128018e+05   1.095892e+06
  -1.616699e+06   3.539025e+05
  -1.578113e+06  -8.825568e+05
  -2.879616e+05  -1.625293e+06
   1.092551e+06  -1.295612e+06
   1.349359e+06  -2.237948e+05
   4.659462e+05   6.585186e+05
  -4.909953e+05   6.830878e+05
  -6.032328e+05   4.819727e+04
   1.425854e+04  -4.609074e+05
   5.334134e+05  -3.438995e+05
   3.802729e+05   1.011879e+05
  -2.124888e+05   1.815479e+05
  -4.959623e+05  -3.406152e+05
   2.853517e+04  -9.124021e+05
   1.055314e+06  -7.473630e+05
   1.658549e+06   3.149587e+05
   1.148074e+06   1.550711e+06
  -1.937102e+05   1.976558e+06
  -1.329040e+06   1.253259e+06
  -1.488589e+06  -1.107609e+04
  -8.817377e+05  -8.485588e+05
  -3.121392e+05  -8.261658e+05
  -2.241083e+05  -3.643230e+05
  -3.128957e+05  -1.847710e+05
  -4.149457e+04  -4.895633e+05
   6.470979e+05  -7.526779e+05
   1.202378e+06  -3.551202e+05
   9.793702e+05   6.212629e+05
  -1.179271e+05   1.330916e+06
  -1.408422e+06   9.675367e+05
  -1.870294e+06  -3.695932e+05
  -9.933214e+05  -1.664152e+06
   6.800176e+05  -1.885351e+06
   1.940463e+06  -9.196666e+05
   1.961240e+06   3.859606e+05
   9.819744e+05   1.076196e+06
  -5.255624e+04   9.485020e+05
  -4.502914e+05   5.813475e+05
  -3.112645e+05   5.824691e+05
  -2.120970e+05   8.995608e+05
  -5.068416e+05   9.180485e+05
  -9.655946e+05   2.092377e+05
  -1.030756e+06  -8.960281e+05
  -4.118462e+05  -1.539651e+06
   5.353723e+05  -1.152067e+06
   1.051391e+06  -1.912760e+04
   6.874206e+05   9.676610e+05
  -2.078254e+05   1.109294e+06
  -8.037853e+05   4.576168e+05
  -6.320646e+05  -3.531651e+05
  -4.142894e+04  -7.456222e+05
   2.507562e+05  -6.523154e+05
  -3.978121e+03  -4.106024e+05
  -3.104889e+05  -3.153194e+05
  -2.172045e+04  -3.260948e+05
   8.610066e+05  -1.845846e+05
   1.566327e+06   2.448075e+05
   1.292031e+06   7.829285e+05
   7.335583e+04   1.067714e+06
  -1.152461e+06   8.667205e+05
  -1.428209e+06   2.932867e+05
  -7.110485e+05  -2.508716e+05
   1.531105e+05  -3.841811e+05
   3.712380e+05  -8.617503e+04
  -2.584524e+04   2.467405e+05
  -4.089553e+05   1.754792e+05
  -3.658168e+05  -2.837641e+05
  -8.242142e+04  -6.170623e+05
   3.446791e+04  -3.941163e+05
  -1.252374e+05   1.531784e+05
  -3.162126e+05   3.294778e+05
  -2.416221e+05  -1.772230e+05
   1.803660e+05  -8.322030e+05
   7.301194e+05  -8.288896e+05
   9.665560e+05  -5.297642e+04
   5.446199e+05   7.498897e+05
  -3.465642e+05   8.086153e+05
  -9.410495e+05   1.498256e+05
  -5.676656e+05  -5.072334e+05
   5.449310e+05  -5.396889e+05
   1.334042e+06   3.058145e+04
   9.558736e+05   6.798871e+05
  -2.918277e+05   8.908046e+05
  -1.250800e+06   5.319369e+05
  -1.100609e+06  -8.439060e+04
  -1.618966e+05  -4.456970e+05
   5.165718e+05  -2.660433e+05
   2.727354e+05   2.067809e+05
  -5.320299e+05   3.618155e+05
  -9.467659e+05  -1.632341e+05
  -4.280224e+05  -1.008795e+06
   6.202363e+05  -1.330777e+06
   1.274940e+06  -6.229492e+05
   1.005788e+06   6.778499e+05
   1.229412e+05   1.491409e+06
  -6.271718e+05   1.106179e+06
  -7.764246e+05  -8.921672e+04
  -4.088888e+05  -9.736572e+05
   1.028745e+05  -8.444237e+05
   4.349815e+05  -1.007179e+05
   4.430125e+05   3.324833e+05
   2.052131e+05   1.399090e+05
   1.341155e+04  -1.008997e+05
   1.207908e+05   1.934338e+05
   3.649523e+05   7.766816e+05
   2.297111e+05   9.051986e+05
  -4.903470e+05   3.320207e+05
  -1.217801e+06  -4.055364e+05
  -1.121358e+06  -7.061011e+05
  -1.521890e+05  -5.579355e+05
   7.780138e+05  -3.212169e+05
   8.374034e+05  -1.619084e+05
   2.349506e+05   4.672294e+03
  -1.509107e+05   1.744392e+05
   5.117637e+04   2.114437e+05
   3.042506e+05   1.321357e+05
   3.919398e+03   1.147781e+05
  -6.411730e+05   1.443492e+05
  -8.436861e+05  -5.768129e+04
  -2.089030e+05  -5.576122e+05
   7.962543e+05  -8.894585e+05
   1.343956e+06  -5.169653e+05
   1.033168e+06   4.316131e+05
   1.584436e+05   1.169447e+06
  -6.331642e+05   1.077569e+06
  -8.663541e+05   3.566057e+05
  -5.418144e+05  -2.532755e+05
  -6.372078e+04  -2.935650e+05
   1.329632e+05  -3.301696e+02
  -3.972273e+04   7.084575e+04
  -2.777424e+05  -2.816243e+05
  -2.182212e+05  -6.656769e+05
   1.790878e+05  -5.318534e+05
   5.690679e+05   1.720050e+05
   5.298941e+05   8.491640e+05
  -2.175047e+04   8.341559e+05
  -6.689480e+05   1.044678e+05
  -7.995066e+05  -6.862204e+05
  -2.046554e+05  -8.924540e+05
   6.107280e+05  -4.755291e+05
   8.707076e+05   1.110647e+05
   3.736882e+05   4.572473e+05
  -2.441658e+05   4.734449e+05
  -2.525990e+05   2.746302e+05
   2.731771e+05   4.256129e+04
   5.498008e+05  -4.046732e+03
   8.724908e+04   2.405757e+05
  -6.903850e+05   5.437526e+05
  -9.799509e+05   4.651651e+05
  -5.466228e+05  -1.057750e+05
   1.061488e+05  -6.781204e+05
   4.084066e+05  -6.562714e+05
   2.789747e+05  -7.055184e+04
  -6.623619e+03   4.212939e+05
  -2.191454e+05   3.101097e+05
  -2.866785e+05  -1.926890e+05
  -1.824029e+05  -4.798077e+05
   7.039794e+04  -2.885125e+05
   3.146474e+05   7.451981e+04
   3.589823e+05   1.961677e+05
   1.952141e+05   4.486313e+04
   7.467802e+03  -7.272073e+04
  -6.675231e+04   6.640839e+04
  -8.881857e+04   3.286387e+05
  -1.801275e+05   3.754703e+05
  -3.047079e+05   5.264670e+04
  -2.778327e+05  -3.964105e+05
   2.809593e+03  -5.410862e+05
   3.734656e+05  -2.136100e+05
   4.911902e+05   2.876451e+05
   1.585571e+05   4.999251e+05
  -4.044089e+05   2.753384e+05
  -6.795792e+05  -1.135713e+05
  -3.615282e+05  -3.222934e+05
   2.498206e+05  -2.706675e+05
   5.094645e+05  -1.102366e+05
   1.546601e+05   1.423030e+03
  -3.535310e+05  -5.869718e+03
  -3.573188e+05  -1.346144e+05
   2.027789e+05  -2.747866e+05
   7.075497e+05  -1.973982e+05
