
 $NMID
 id='ANONYMOUS ', fmtdat='(2E16.6)'
 volume=1.0
 tramp=1.0
 $END
   3.038961e+07  -1.659914e+06
   2.092344e+07   1.439435e+07
   1.685623e+05   1.984677e+07
  -1.318519e+07   1.248375e+07
  -1.082482e+07   5.542865e+05
  -3.895493e+05  -5.513887e+06
   6.060891e+06  -2.257241e+06
   4.244339e+06   4.932398e+06
  -1.627216e+06   7.853110e+06
  -5.577671e+06   3.438318e+06
  -4.875720e+06  -3.624162e+06
  -8.288809e+05  -5.998682e+06
   2.702501e+06  -1.484698e+06
   2.305004e+06   4.715073e+06
  -1.671076e+06   5.770405e+06
  -4.990370e+06   5.238535e+05
  -3.804400e+06  -5.781875e+06
   1.185080e+06  -7.467156e+06
   5.587805e+06  -3.832161e+06
   5.981944e+06   1.302424e+06
   2.981188e+06   4.032741e+06
   3.649886e+03   3.636453e+06
  -2.763904e+05   2.242381e+06
   1.575842e+06   2.184718e+06
   2.328170e+06   3.637918e+06
  -4.931679e+05   4.542774e+06
  -5.345185e+06   2.950241e+06
  -7.578213e+06  -5.840913e+05
  -4.488366e+06  -3.336616e+06
   1.156132e+06  -3.207243e+06
   3.890676e+06  -7.365773e+05
   1.620766e+06   1.681506e+06
  -2.431276e+06   2.007586e+06
  -3.916795e+06  -3.535535e+04
  -2.019268e+06  -2.851230e+06
   6.925338e+05  -3.945749e+06
   1.759068e+06  -2.031470e+06
   9.871290e+05   1.150978e+06
  -2.258296e+05   2.086888e+06
  -4.827295e+05  -3.986053e+05
   5.983465e+05  -3.146723e+06
   2.029849e+06  -2.299393e+06
   2.068564e+06   1.538815e+06
  -1.582455e+04   3.690035e+06
  -2.598322e+06   1.278431e+06
  -2.864985e+06  -3.090295e+06
   1.675931e+05  -4.564122e+06
   4.134510e+06  -1.691201e+06
   5.345478e+06   2.498041e+06
   2.420771e+06   4.299420e+06
  -2.223547e+06   2.805152e+06
  -4.586506e+06  -1.516346e+05
  -2.855743e+06  -2.126983e+06
   9.259201e+05  -1.881578e+06
   2.998658e+06  -7.630627e+04
   1.729484e+06   1.349122e+06
  -8.778146e+05   9.948657e+05
  -1.669749e+06  -5.275419e+05
   1.945419e+04  -1.311931e+06
   1.789677e+06  -4.013864e+05
   1.191918e+06   1.177507e+06
  -1.363979e+06   1.687685e+06
  -3.117045e+06   4.320621e+05
  -1.997458e+06  -1.847438e+06
   1.308943e+06  -3.629034e+06
   4.203504e+06  -3.447424e+06
   4.656480e+06  -8.963010e+05
   2.814379e+06   2.595488e+06
   4.853030e+05   4.574826e+06
  -7.217210e+05   3.907478e+06
  -7.566368e+05   1.998358e+06
  -7.615232e+05   9.979340e+05
  -1.537039e+06   1.132916e+06
  -2.587615e+06   7.540919e+05
  -2.717796e+06  -1.010522e+06
  -1.365488e+06  -2.742554e+06
   7.647190e+05  -2.422784e+06
   2.215822e+06   6.569968e+03
   1.853788e+06   2.453816e+06
  -2.247829e+05   2.847986e+06
  -2.548217e+06   1.023246e+06
  -3.293071e+06  -1.437971e+06
  -1.932792e+06  -2.795212e+06
   1.691246e+05  -2.542233e+06
   1.226429e+06  -1.539817e+06
   1.068849e+06  -9.493661e+05
   1.177620e+06  -1.011391e+06
   2.513291e+06  -8.874588e+05
   3.920849e+06   2.819129e+05
   3.320042e+06   2.279098e+06
   3.118720e+05   3.841284e+06
  -3.016888e+06   3.722196e+06
  -4.093978e+06   1.768550e+06
  -2.387386e+06  -8.150519e+05
   2.210058e+05  -2.244557e+06
   1.389400e+06  -1.602014e+06
   4.741628e+05   1.980803e+05
  -1.143616e+06   1.169153e+06
  -1.657332e+06   3.599686e+05
  -6.537211e+05  -1.020474e+06
   6.283915e+05  -1.078261e+06
   7.265998e+05   3.042809e+05
  -5.057043e+05   1.184105e+06
  -1.793002e+06  -3.578429e+04
  -1.698326e+06  -2.507642e+06
   8.408104e+04  -3.767432e+06
   2.468820e+06  -2.414729e+06
   3.783573e+06   5.063945e+05
   3.025276e+06   2.715794e+06
   7.383690e+05   2.864754e+06
  -1.295142e+06   1.479289e+06
  -1.603949e+06   1.439996e+05
  -4.743667e+05  -3.271735e+04
   3.767681e+05   6.958072e+05
  -2.318380e+05   1.163758e+06
  -1.558699e+06   5.959517e+05
  -1.854180e+06  -5.618169e+05
  -5.299142e+05  -1.167768e+06
   1.039181e+06  -6.543627e+05
   1.049202e+06   3.831378e+05
  -6.643239e+05   8.336487e+05
  -2.363088e+06   1.392682e+05
  -2.187598e+06  -1.242643e+06
  -6.045817e+04  -2.219542e+06
   2.215555e+06  -1.910417e+06
   2.705983e+06  -4.246438e+05
   1.181846e+06   1.062587e+06
  -7.466477e+05   1.284739e+06
  -1.272179e+06   1.867578e+05
  -1.122453e+05  -9.092031e+05
   1.382287e+06  -7.088382e+05
   1.689721e+06   5.912083e+05
   5.694303e+05   1.551236e+06
  -8.561649e+05   1.170945e+06
  -1.278207e+06  -1.864906e+04
  -4.411914e+05  -6.639666e+05
   6.438959e+05  -1.184857e+05
   6.858172e+05   9.501868e+05
  -5.599467e+05   1.341277e+06
  -1.922513e+06   5.052660e+05
  -1.939769e+06  -9.817389e+05
  -4.265252e+05  -1.941758e+06
   1.254229e+06  -1.614942e+06
   1.617444e+06  -3.327869e+05
   5.911356e+05   7.756615e+05
  -5.624074e+05   8.453797e+05
  -7.181621e+05   8.097279e+04
   9.968564e+03  -5.525794e+05
   6.304789e+05  -4.221420e+05
   4.466147e+05   1.195455e+05
  -2.690189e+05   2.269955e+05
  -6.217365e+05  -4.002285e+05
  -5.214493e+03  -1.109376e+06
   1.238354e+06  -9.509642e+05
   2.011487e+06   3.005381e+05
   1.455975e+06   1.809648e+06
  -1.408594e+05   2.383782e+06
  -1.545465e+06   1.562763e+06
  -1.790793e+06   4.458802e+04
  -1.083865e+06  -9.854631e+05
  -3.927593e+05  -9.690985e+05
  -2.819444e+05  -4.091948e+05
  -3.978121e+05  -1.984116e+05
  -8.232730e+04  -5.904753e+05
   7.471968e+05  -9.382249e+05
   1.433800e+06  -4.772085e+05
   1.198699e+06   7.079155e+05
  -9.282441e+04   1.604654e+06
  -1.654071e+06   1.223857e+06
  -2.265320e+06  -3.612968e+05
  -1.270939e+06  -1.961048e+06
   7.339476e+05  -2.308688e+06
   2.300901e+06  -1.200011e+06
   2.382950e+06   3.827909e+05
   1.222182e+06   1.261651e+06
  -3.554049e+04   1.142025e+06
  -5.189185e+05   7.040539e+05
  -3.343576e+05   7.004724e+05
  -1.973280e+05   1.090441e+06
  -5.602508e+05   1.135311e+06
  -1.151786e+06   3.039798e+05
  -1.282146e+06  -1.024981e+06
  -5.684292e+05  -1.829273e+06
   5.877805e+05  -1.408679e+06
   1.264120e+06  -7.044726e+04
   8.748786e+05   1.136501e+06
  -2.016268e+05   1.351283e+06
  -9.594213e+05   5.906584e+05
  -7.909427e+05  -4.030354e+05
  -8.622126e+04  -9.091185e+05
   2.804937e+05  -8.067982e+05
  -1.601855e+04  -4.948110e+05
  -3.871325e+05  -3.601088e+05
  -4.157849e+04  -3.886834e+05
   1.030675e+06  -2.658971e+05
   1.900994e+06   2.156956e+05
   1.594429e+06   8.825004e+05
   1.393201e+05   1.291213e+06
  -1.347658e+06   1.107009e+06
  -1.710347e+06   4.197090e+05
  -8.745182e+05  -2.774648e+05
   1.638994e+05  -4.762429e+05
   4.480448e+05  -1.210493e+05
  -1.119333e+04   2.989006e+05
  -4.790147e+05   2.284412e+05
  -4.537608e+05  -3.221765e+05
  -1.315238e+05  -7.286930e+05
   1.829237e+04  -4.679408e+05
  -1.477160e+05   1.856643e+05
  -3.667204e+05   4.008916e+05
  -2.987058e+05  -2.035435e+05
   1.771116e+05  -1.003288e+06
   8.368325e+05  -1.032192e+06
   1.160149e+06  -1.217808e+05
   6.959359e+05   8.662744e+05
  -3.709731e+05   9.929777e+05
  -1.119931e+06   2.348929e+05
  -7.046372e+05  -5.795474e+05
   6.320023e+05  -6.752411e+05
   1.606297e+06  -2.027110e+04
   1.175796e+06   7.829764e+05
  -3.198131e+05   1.087138e+06
  -1.486857e+06   6.888749e+05
  -1.327172e+06  -6.006275e+04
  -2.110594e+05  -5.304799e+05
   6.123082e+05  -3.423849e+05
   3.414777e+05   2.347994e+05
  -6.158858e+05   4.589199e+05
  -1.139900e+06  -1.464929e+05
  -5.638761e+05  -1.182484e+06
   6.731586e+05  -1.621681e+06
   1.493635e+06  -8.083446e+05
   1.237215e+06   7.638578e+05
   2.170532e+05   1.782589e+06
  -7.047975e+05   1.354744e+06
  -9.401102e+05  -7.532021e+04
  -5.338172e+05  -1.155231e+06
   9.190475e+04  -1.022415e+06
   5.215640e+05  -1.412899e+05
   5.431851e+05   3.822450e+05
   2.477176e+05   1.622629e+05
   1.431887e+04  -1.225823e+05
   1.627301e+05   2.217932e+05
   4.780270e+05   9.136753e+05
   3.127180e+05   1.081282e+06
  -5.792451e+05   4.278107e+05
  -1.480081e+06  -4.306220e+05
  -1.375213e+06  -8.008932e+05
  -2.096275e+05  -6.642674e+05
   9.146675e+05  -4.175275e+05
   9.982473e+05  -2.304203e+05
   2.883539e+05  -7.569695e+03
  -1.709636e+05   2.148785e+05
   6.415175e+04   2.552686e+05
   3.634360e+05   1.482018e+05
   1.150536e+04   1.347944e+05
  -7.552959e+05   1.985086e+05
  -1.013759e+06  -2.683399e+04
  -2.849574e+05  -6.504012e+05
   9.047637e+05  -1.101843e+06
   1.586121e+06  -6.922240e+05
   1.262154e+06   4.578615e+05
   2.467302e+05   1.392183e+06
  -7.071260e+05   1.326424e+06
  -1.018067e+06   4.725365e+05
  -6.579468e+05  -2.763630e+05
  -9.254829e+04  -3.464607e+05
   1.518710e+05  -3.833549e+03
  -5.005739e+04   8.596961e+04
  -3.466001e+05  -3.289313e+05
  -2.919598e+05  -7.908175e+05
   1.870599e+05  -6.462908e+05
   6.857558e+05   1.773023e+05
   6.748494e+05   9.864689e+05
   1.953034e+04   9.951434e+05
  -7.887459e+05   1.578670e+05
  -9.878175e+05  -7.787025e+05
  -2.916230e+05  -1.056758e+06
   7.043448e+05  -6.019560e+05
   1.050044e+06   8.695163e+04
   4.768952e+05   5.298069e+05
  -2.647359e+05   5.839248e+05
  -2.918895e+05   3.475444e+05
   3.237627e+05   4.193889e+04
   6.573604e+05  -3.052654e+04
   1.186629e+05   2.831594e+05
  -8.026674e+05   6.849696e+05
  -1.160482e+06   6.070897e+05
  -6.689527e+05  -9.795048e+04
   9.203342e+04  -8.195023e+05
   4.592388e+05  -8.133138e+05
   3.309579e+05  -1.064233e+05
   1.212173e+04   5.010702e+05
  -2.440887e+05   3.835329e+05
  -3.479359e+05  -2.141638e+05
  -2.423035e+05  -5.656943e+05
   6.496417e+04  -3.511792e+05
   3.788914e+05   7.243121e+04
   4.447181e+05   2.185214e+05
   2.394735e+05   4.644454e+04
  -2.340965e+02  -8.771289e+04
  -8.507587e+04   7.740424e+04
  -8.910858e+04   3.892057e+05
  -1.855389e+05   4.527971e+05
  -3.514601e+05   8.094779e+04
  -3.508971e+05  -4.510964e+05
  -2.813593e+04  -6.394481e+05
   4.332167e+05  -2.733753e+05
   6.018608e+05   3.154135e+05
   2.140898e+05   5.877774e+05
  -4.718580e+05   3.518223e+05
  -8.201415e+05  -9.863353e+04
  -4.500419e+05  -3.673086e+05
   2.825856e+05  -3.392537e+05
   6.017531e+05  -1.614571e+05
   1.873919e+05  -1.036988e+04
  -4.162763e+05   7.280390e+03
  -4.277569e+05  -1.424111e+05
   2.301206e+05  -3.324166e+05
   8.334823e+05  -2.636305e+05
