
 $NMID
 id='ANONYMOUS ', fmtdat='(2E16.6)'
 volume=1.0
 tramp=1.0
 $END
  -2.745041e+07  -3.153243e+06
  -1.486471e+07  -1.785165e+07
   4.935390e+06  -1.775222e+07
   1.373680e+07  -6.598703e+06
   7.948360e+06   3.170663e+06
  -1.593568e+06   4.375443e+06
  -4.816816e+06  -3.840888e+05
  -1.483570e+06  -4.743839e+06
   3.033312e+06  -4.883517e+06
   4.846968e+06  -1.032371e+06
   3.330707e+06   3.511935e+06
   4.087779e+03   4.613594e+06
  -2.279964e+06   1.095429e+06
  -1.253823e+06  -3.302000e+06
   2.068233e+06  -3.576965e+06
   3.917085e+06   7.737322e+05
   1.927650e+06   5.284528e+06
  -2.305201e+06   5.792079e+06
  -5.313375e+06   2.428253e+06
  -5.192502e+06  -1.736402e+06
  -2.586439e+06  -4.098160e+06
   3.633605e+05  -3.988729e+06
   1.484564e+06  -2.420142e+06
   3.103968e+05  -1.289676e+06
  -1.006911e+06  -1.752215e+06
   2.222851e+05  -2.737716e+06
   3.591391e+06  -2.071939e+06
   5.463440e+06   5.221742e+05
   3.413674e+06   2.760562e+06
  -5.602375e+05   2.678466e+06
  -2.553232e+06   9.051520e+05
  -1.363486e+06  -6.266922e+05
   8.937912e+05  -9.384849e+05
   1.922862e+06  -1.247098e+05
   1.305839e+06   1.389396e+06
  -1.368454e+05   2.521066e+06
  -1.347088e+06   1.782672e+06
  -1.396724e+06  -6.015254e+05
  -2.770108e+05  -1.969416e+06
   5.829975e+05  -4.838128e+05
  -1.347704e+05   1.776029e+06
  -1.502756e+06   1.300875e+06
  -1.192473e+06  -1.633121e+06
   1.198195e+06  -2.895747e+06
   3.103285e+06  -2.088493e+05
   2.059572e+06   3.528280e+06
  -1.236961e+06   4.002082e+06
  -3.806526e+06   8.225778e+05
  -3.573467e+06  -2.582161e+06
  -9.660637e+05  -3.304703e+06
   1.917472e+06  -1.496717e+06
   2.942103e+06   8.214061e+05
   1.406451e+06   1.862669e+06
  -1.191140e+06   1.093296e+06
  -2.285675e+06  -5.614135e+05
  -9.580822e+05  -1.392620e+06
   9.076851e+05  -6.259347e+05
   9.886611e+05   5.778869e+05
  -4.778378e+05   5.657496e+05
  -1.170088e+06  -6.161214e+05
   1.197332e+05  -1.386112e+06
   2.033925e+06  -7.747780e+05
   2.526414e+06   6.580750e+05
   1.078597e+06   1.973361e+06
  -1.276543e+06   2.696381e+06
  -3.146154e+06   2.349620e+06
  -3.514359e+06   5.018153e+05
  -2.172454e+06  -2.074933e+06
  -1.109903e+05  -3.431096e+06
   1.078280e+06  -2.577339e+06
   8.237294e+05  -8.554585e+05
   2.026706e+05  -2.199530e+05
   4.654578e+05  -7.242131e+05
   1.404749e+06  -7.886217e+05
   1.787806e+06   3.395179e+05
   1.017708e+06   1.553958e+06
  -2.986733e+05   1.447786e+06
  -1.175743e+06   2.174540e+04
  -1.014512e+06  -1.470411e+06
   2.017082e+05  -1.809404e+06
   1.758692e+06  -7.124290e+05
   2.397151e+06   1.060690e+06
   1.423057e+06   2.255881e+06
  -3.195890e+05   2.146065e+06
  -1.282156e+06   1.205518e+06
  -1.110655e+06   5.055831e+05
  -9.683319e+05   4.100413e+05
  -1.712974e+06   2.655004e+05
  -2.530020e+06  -5.494907e+05
  -1.976489e+06  -1.746045e+06
   6.657738e+04  -2.486346e+06
   2.126604e+06  -2.225083e+06
   2.686373e+06  -1.026887e+06
   1.573881e+06   5.082518e+05
  -7.234795e+04   1.428472e+06
  -8.704246e+05   1.069265e+06
  -3.296948e+05  -1.012943e+05
   7.620781e+05  -7.281788e+05
   1.138220e+06  -1.360597e+05
   4.328852e+05   7.536168e+05
  -4.101319e+05   6.621689e+05
  -3.303864e+05  -2.300482e+05
   5.206861e+05  -5.010589e+05
   1.030594e+06   5.368983e+05
   4.996678e+05   1.880489e+06
  -7.074542e+05   2.087757e+06
  -1.761929e+06   8.881849e+05
  -2.086571e+06  -7.650259e+05
  -1.497908e+06  -1.777459e+06
  -2.536208e+05  -1.705510e+06
   8.535244e+05  -8.615755e+05
   1.003079e+06  -4.659194e+04
   2.983323e+05   4.836668e+04
  -1.911398e+05  -4.703810e+05
   2.785743e+05  -7.611077e+05
   1.120275e+06  -2.613035e+05
   1.162931e+06   5.680829e+05
   2.007005e+05   8.284236e+05
  -7.212754e+05   3.182558e+05
  -5.763727e+05  -3.021364e+05
   4.904498e+05  -3.672828e+05
   1.378082e+06   1.645381e+05
   1.143631e+06   8.767323e+05
  -1.504913e+05   1.273610e+06
  -1.479687e+06   9.912090e+05
  -1.716382e+06   7.993972e+04
  -6.801374e+05  -7.917557e+05
   6.062750e+05  -8.259577e+05
   9.025969e+05  -3.080397e+04
   4.179979e+04   6.413253e+05
  -9.463068e+05   3.751769e+05
  -1.019332e+06  -5.182104e+05
  -1.905700e+05  -1.009324e+06
   6.559975e+05  -5.996679e+05
   7.629959e+05   1.753039e+05
   1.626413e+05   4.611336e+05
  -4.590333e+05   8.443166e+03
  -3.955903e+05  -6.675609e+05
   4.238332e+05  -8.420449e+05
   1.257662e+06  -2.342126e+05
   1.193897e+06   7.345896e+05
   1.492130e+05   1.274665e+06
  -9.258384e+05   9.418494e+05
  -1.050900e+06   7.766386e+04
  -2.902938e+05  -5.374533e+05
   4.229533e+05  -4.770017e+05
   4.223099e+05  -2.075352e+04
  -5.406410e+04   2.694420e+05
  -3.466415e+05   1.725796e+05
  -1.652540e+05  -4.785877e+04
   2.139337e+05  -7.994815e+03
   3.094871e+05   3.633713e+05
  -1.279376e+05   7.008670e+05
  -8.614352e+05   5.049420e+05
  -1.256214e+06  -3.254785e+05
  -8.170873e+05  -1.243626e+06
   2.274689e+05  -1.486128e+06
   1.046893e+06  -8.429238e+05
   1.066567e+06   1.065383e+05
   5.563904e+05   6.116077e+05
   2.005432e+05   5.014160e+05
   2.430755e+05   2.165505e+05
   3.111870e+05   2.016832e+05
   1.389713e+04   4.334635e+05
  -5.492875e+05   5.266015e+05
  -9.063837e+05   1.787123e+05
  -6.614828e+05  -4.858022e+05
   1.726769e+05  -9.304964e+05
   1.097159e+06  -6.290529e+05
   1.379378e+06   3.699137e+05
   6.419557e+05   1.319067e+06
  -6.672091e+05   1.402965e+06
  -1.561670e+06   5.612675e+05
  -1.432303e+06  -4.446692e+05
  -6.015073e+05  -8.473471e+05
   1.187218e+05  -6.252872e+05
   2.924186e+05  -3.570649e+05
   1.534067e+05  -4.623378e+05
   1.581398e+05  -7.559952e+05
   4.539725e+05  -7.270995e+05
   7.840570e+05  -1.297592e+05
   7.677199e+05   7.222770e+05
   2.609919e+05   1.189040e+06
  -4.458200e+05   8.587557e+05
  -7.932345e+05  -4.216992e+04
  -4.585122e+05  -7.962724e+05
   2.593108e+05  -8.331130e+05
   6.825074e+05  -2.403912e+05
   4.569668e+05   3.948058e+05
  -7.714541e+04   6.127376e+05
  -3.018904e+05   4.597238e+05
  -4.268834e+04   2.720131e+05
   2.437216e+05   2.363080e+05
   1.598049e+04   2.432153e+05
  -6.917830e+05   8.931703e+04
  -1.223818e+06  -2.756187e+05
  -9.492442e+05  -6.800774e+05
   4.809818e+04  -8.488975e+05
   9.808748e+05  -6.208769e+05
   1.117126e+06  -1.216323e+05
   4.993074e+05   2.882816e+05
  -1.666155e+05   3.148442e+05
  -3.002722e+05   1.826179e+04
   1.503436e+04  -2.329624e+05
   2.971870e+05  -1.343163e+05
   2.762780e+05   2.302522e+05
   9.455532e+04   4.673750e+05
   8.580604e+03   3.042504e+05
   8.841441e+04  -7.671162e+04
   2.052344e+05  -2.016224e+05
   1.670932e+05   1.479240e+05
  -1.392746e+05   6.141428e+05
  -5.930410e+05   6.142663e+05
  -8.080217e+05   2.808189e+04
  -4.494960e+05  -6.015627e+05
   3.037396e+05  -6.531623e+05
   7.678850e+05  -1.234769e+05
   4.245783e+05   3.921149e+05
  -4.475418e+05   3.762490e+05
  -9.844725e+05  -1.011001e+05
  -6.268114e+05  -5.556072e+05
   3.007793e+05  -6.118488e+05
   9.433301e+05  -2.826329e+05
   7.775400e+05   1.379425e+05
   8.012700e+04   3.272415e+05
  -4.049905e+05   1.550067e+05
  -2.138321e+05  -1.880895e+05
   3.979013e+05  -2.862302e+05
   7.267246e+05   1.196792e+05
   3.415908e+05   7.705140e+05
  -4.648023e+05   1.020140e+06
  -9.688711e+05   4.698497e+05
  -7.457425e+05  -5.289229e+05
  -5.136648e+04  -1.122766e+06
   5.070431e+05  -7.870215e+05
   5.682359e+05   1.263743e+05
   2.389207e+05   7.491323e+05
  -1.478535e+05   6.015356e+05
  -3.427107e+05   3.940740e+04
  -2.920020e+05  -2.534433e+05
  -1.160726e+05  -9.495378e+04
  -2.570845e+04   6.174593e+04
  -1.323766e+05  -1.850991e+05
  -2.663931e+05  -6.143640e+05
  -9.906544e+04  -6.759368e+05
   4.313351e+05  -2.164099e+05
   8.988692e+05   3.459027e+05
   7.810261e+05   5.647233e+05
   8.921717e+04   4.347451e+05
  -5.630488e+05   2.272444e+05
  -6.221599e+05   8.245686e+04
  -2.043824e+05  -3.881420e+04
   1.063761e+05  -1.331718e+05
   7.598607e+03  -1.320068e+05
  -1.846477e+05  -7.664905e+04
  -1.824964e+04  -8.758878e+04
   4.437544e+05  -1.163388e+05
   6.465637e+05   5.568902e+04
   2.088156e+05   4.484707e+05
  -5.906853e+05   6.870544e+05
  -1.071794e+06   3.824506e+05
  -8.335388e+05  -3.401324e+05
  -1.070033e+05  -8.869645e+05
   5.257846e+05  -8.136575e+05
   6.740005e+05  -2.781131e+05
   4.022528e+05   1.804186e+05
   6.022833e+04   2.290107e+05
  -6.573524e+04   3.051961e+04
   4.178026e+04  -1.910374e+04
   1.793866e+05   2.320005e+05
   1.286437e+05   5.090409e+05
  -1.431020e+05   4.106479e+05
  -4.240306e+05  -1.137861e+05
  -4.120264e+05  -6.336365e+05
  -1.043200e+04  -6.462916e+05
   4.909728e+05  -1.093111e+05
   6.107242e+05   5.042428e+05
   1.613807e+05   6.904560e+05
  -4.742569e+05   3.797098e+05
  -6.828792e+05  -9.721379e+04
  -2.928770e+05  -3.912052e+05
   2.070619e+05  -3.934172e+05
   2.368323e+05  -2.061633e+05
  -1.691375e+05  -1.751903e+04
  -4.084841e+05  -2.583850e+03
  -7.280552e+04  -1.949032e+05
   5.377694e+05  -3.899539e+05
   7.859805e+05  -2.928200e+05
   4.473771e+05   1.320864e+05
  -9.691996e+04   5.291433e+05
  -3.644882e+05   4.992367e+05
  -2.580899e+05   6.922635e+04
  -8.282555e+03  -3.069165e+05
   1.700174e+05  -2.532198e+05
   2.165181e+05   1.175531e+05
   1.328948e+05   3.687238e+05
  -5.597381e+04   2.518670e+05
  -2.414693e+05  -4.881304e+04
  -2.768018e+05  -1.848964e+05
  -1.441515e+05  -6.130844e+04
   6.298419e+03   8.614151e+04
   4.383983e+04   9.474748e+03
   2.191277e+04  -2.324341e+05
   8.118651e+04  -3.317487e+05
   2.203877e+05  -1.020327e+05
   2.564833e+05   2.724583e+05
   5.017996e+04   4.155910e+05
  -2.733134e+05   1.746245e+05
  -3.949267e+05  -2.096242e+05
  -1.301070e+05  -3.721339e+05
   3.256068e+05  -2.039470e+05
   5.384587e+05   8.881493e+04
   2.786566e+05   2.541733e+05
  -2.004042e+05   2.274618e+05
  -4.049797e+05   1.041764e+05
  -1.468912e+05  -3.136158e+03
   2.334853e+05  -2.289194e+04
   2.592883e+05   6.745756e+04
  -1.241207e+05   1.851837e+05
  -4.892377e+05   1.439995e+05
