
 $NMID
 id='ANONYMOUS ', fmtdat='(2E16.6)'
 volume=1.0
 tramp=1.0
 $END
   1.473179e+07   9.926988e+04
   1.016286e+07   6.094858e+06
   6.916074e+05   9.052585e+06
  -6.027558e+06   7.109701e+06
  -5.750226e+06   1.605530e+06
  -8.202973e+05  -2.732263e+06
   3.150590e+06  -2.018682e+06
   2.891519e+06   2.275159e+06
  -2.934586e+05   4.741557e+06
  -2.863157e+06   2.364056e+06
  -2.648813e+06  -2.044261e+06
  -3.508561e+05  -3.478681e+06
   1.611436e+06  -6.249424e+05
   1.365714e+06   3.063591e+06
  -7.991627e+05   3.594964e+06
  -2.660315e+06   5.540407e+05
  -2.138267e+06  -3.015175e+06
   5.369883e+05  -3.950891e+06
   2.923756e+06  -1.843732e+06
   2.916358e+06   1.012819e+06
   9.994389e+05   2.157709e+06
  -4.145439e+05   1.379286e+06
   1.959229e+05   5.650444e+05
   1.748361e+06   1.247800e+06
   1.825889e+06   2.761338e+06
  -5.614480e+05   3.154929e+06
  -3.691121e+06   1.569471e+06
  -4.671874e+06  -8.474604e+05
  -2.367755e+06  -2.252070e+06
   1.215128e+06  -1.786285e+06
   2.738147e+06  -3.210047e+04
   9.406273e+05   1.562807e+06
  -2.024657e+06   1.611554e+06
  -3.009627e+06  -1.430920e+05
  -1.325071e+06  -2.269302e+06
   8.373657e+05  -2.699139e+06
   1.282832e+06  -9.356096e+05
   1.962450e+05   1.109338e+06
  -6.731605e+05   1.138656e+06
  -3.468234e+05  -7.945861e+05
   6.360313e+05  -2.291636e+06
   1.311816e+06  -1.490248e+06
   1.213617e+06   7.251782e+05
   3.508330e+05   1.849523e+06
  -8.104200e+05   6.950587e+05
  -1.224583e+06  -1.382319e+06
  -2.627783e+04  -2.129965e+06
   2.120219e+06  -7.718083e+05
   3.118184e+06   1.412766e+06
   1.605256e+06   2.530519e+06
  -1.266202e+06   1.814776e+06
  -2.875697e+06   8.969589e+04
  -1.920155e+06  -1.165000e+06
   3.421492e+05  -1.118896e+06
   1.642065e+06  -1.550955e+05
   1.035306e+06   6.463314e+05
  -4.386597e+05   5.371297e+05
  -1.076649e+06  -2.773488e+05
  -2.635656e+05  -9.133982e+05
   9.722591e+05  -6.791113e+05
   1.081497e+06   2.464243e+05
  -2.451666e+05   9.307566e+05
  -1.554341e+06   5.354726e+05
  -1.153452e+06  -8.263525e+05
   9.022629e+05  -2.038633e+06
   2.765839e+06  -1.904597e+06
   2.843100e+06  -2.720651e+05
   1.436666e+06   1.742085e+06
   8.054788e+04   2.751623e+06
  -3.404246e+05   2.377411e+06
  -2.931600e+05   1.457189e+06
  -6.090372e+05   9.527781e+05
  -1.387080e+06   8.291236e+05
  -2.006082e+06   2.731273e+05
  -1.834527e+06  -1.003557e+06
  -7.546324e+05  -2.067789e+06
   7.175566e+05  -1.703149e+06
   1.638371e+06   6.387144e+04
   1.252268e+06   1.753770e+06
  -2.550875e+05   1.895902e+06
  -1.705386e+06   4.940308e+05
  -1.936642e+06  -1.125438e+06
  -9.269513e+05  -1.752339e+06
   2.561322e+05  -1.340995e+06
   6.696007e+05  -7.120242e+05
   4.882172e+05  -5.295687e+05
   6.515450e+05  -7.022788e+05
   1.590531e+06  -6.217283e+05
   2.510282e+06   1.716322e+05
   2.128686e+06   1.486909e+06
   1.687622e+05   2.509619e+06
  -2.053768e+06   2.393484e+06
  -2.771740e+06   1.031294e+06
  -1.541865e+06  -6.862255e+05
   2.971128e+05  -1.522045e+06
   1.036384e+06  -9.872314e+05
   3.008076e+05   1.801741e+05
  -8.045896e+05   7.337400e+05
  -1.062525e+06   1.929533e+05
  -3.529426e+05  -6.649976e+05
   4.654513e+05  -7.074540e+05
   5.431861e+05   1.851895e+05
  -2.155589e+05   8.682396e+05
  -1.134415e+06   2.180706e+05
  -1.285658e+06  -1.450425e+06
  -2.251676e+05  -2.539358e+06
   1.494593e+06  -1.834647e+06
   2.592774e+06   1.787731e+05
   2.143523e+06   1.831949e+06
   5.177483e+05   1.976754e+06
  -9.051735e+05   9.734532e+05
  -1.085973e+06   5.046508e+04
  -3.124307e+05  -2.806696e+04
   2.415779e+05   4.588776e+05
  -1.423719e+05   7.272371e+05
  -9.745723e+05   3.605530e+05
  -1.176889e+06  -3.427759e+05
  -3.563087e+05  -7.283402e+05
   6.730958e+05  -4.324905e+05
   7.280265e+05   2.516250e+05
  -4.045687e+05   6.087783e+05
  -1.605899e+06   1.626937e+05
  -1.537598e+06  -8.259339e+05
  -8.167339e+04  -1.529832e+06
   1.484849e+06  -1.293681e+06
   1.796964e+06  -2.679290e+05
   7.557543e+05   6.873917e+05
  -4.923260e+05   7.900256e+05
  -7.894203e+05   8.979187e+04
  -3.163394e+04  -5.750378e+05
   9.079829e+05  -4.376762e+05
   1.105517e+06   3.831266e+05
   4.024486e+05   1.014897e+06
  -5.311003e+05   8.027403e+05
  -8.469824e+05   3.323816e+04
  -3.232480e+05  -4.163288e+05
   3.949165e+05  -7.555220e+04
   4.254224e+05   6.265562e+05
  -3.988436e+05   8.674939e+05
  -1.277535e+06   2.911554e+05
  -1.255385e+06  -6.801169e+05
  -2.548681e+05  -1.274467e+06
   8.263487e+05  -1.043945e+06
   1.057822e+06  -2.177778e+05
   3.984273e+05   5.038775e+05
  -3.669881e+05   5.610743e+05
  -5.009420e+05   4.629615e+04
  -1.663048e+04  -4.086510e+05
   4.520548e+05  -3.260315e+05
   3.732611e+05   8.649774e+04
  -1.300945e+05   2.090737e+05
  -4.212650e+05  -2.122024e+05
  -2.902351e+04  -7.156949e+05
   8.102739e+05  -6.209473e+05
   1.319723e+06   2.139621e+05
   9.341547e+05   1.206673e+06
  -1.209202e+05   1.581038e+06
  -1.039547e+06   1.050109e+06
  -1.215357e+06   4.182470e+04
  -7.641296e+05  -6.895175e+05
  -2.769692e+05  -7.254261e+05
  -1.448263e+05  -3.311651e+05
  -2.050214e+05  -1.235723e+05
  -3.498575e+04  -3.572978e+05
   4.856908e+05  -6.178456e+05
   9.585592e+05  -3.283433e+05
   8.236704e+05   4.856854e+05
  -4.823524e+04   1.099248e+06
  -1.106927e+06   8.216668e+05
  -1.508572e+06  -2.533701e+05
  -8.412960e+05  -1.297115e+06
   4.711773e+05  -1.506858e+06
   1.498172e+06  -7.906224e+05
   1.583477e+06   2.332189e+05
   8.538255e+05   8.366849e+05
   3.909414e+03   8.016908e+05
  -3.814082e+05   5.124895e+05
  -2.978312e+05   4.619096e+05
  -1.827708e+05   6.804480e+05
  -3.765440e+05   7.096616e+05
  -7.442183e+05   1.731911e+05
  -8.244899e+05  -6.987644e+05
  -3.473921e+05  -1.219017e+06
   4.121140e+05  -9.242005e+05
   8.391695e+05  -4.038140e+04
   5.732564e+05   7.395661e+05
  -1.173240e+05   8.821824e+05
  -5.974766e+05   4.121701e+05
  -5.045653e+05  -2.166016e+05
  -8.264548e+04  -5.622471e+05
   1.417119e+05  -5.294208e+05
  -2.886943e+04  -3.453379e+05
  -2.430490e+05  -2.558838e+05
  -1.675298e+04  -2.631312e+05
   6.649246e+05  -1.671806e+05
   1.225858e+06   1.588416e+05
   1.039259e+06   5.846548e+05
   1.048257e+05   8.254207e+05
  -8.673103e+05   6.980627e+05
  -1.117859e+06   2.779164e+05
  -5.802564e+05  -1.490211e+05
   9.981088e+04  -2.898501e+05
   2.833855e+05  -9.050946e+04
  -2.824010e+04   1.732885e+05
  -3.347985e+05   1.388931e+05
  -2.905451e+05  -2.206540e+05
  -4.621184e+04  -4.973396e+05
   4.834704e+04  -3.155873e+05
  -1.006646e+05   1.436054e+05
  -2.686640e+05   2.913105e+05
  -2.004632e+05  -1.340506e+05
   1.448782e+05  -6.743139e+05
   5.662668e+05  -6.647735e+05
   7.336731e+05  -3.791235e+04
   4.105275e+05   5.888289e+05
  -2.631691e+05   6.211141e+05
  -7.262732e+05   1.055451e+05
  -4.544719e+05  -4.041759e+05
   4.176013e+05  -4.437573e+05
   1.075018e+06  -1.289083e+04
   8.102534e+05   5.186504e+05
  -1.899178e+05   7.381748e+05
  -9.956514e+05   4.842883e+05
  -9.043061e+05  -2.849256e+04
  -1.509995e+05  -3.594515e+05
   4.037856e+05  -2.340027e+05
   2.109595e+05   1.511492e+05
  -4.317867e+05   2.815540e+05
  -7.531281e+05  -1.381542e+05
  -3.284485e+05  -8.083544e+05
   5.067781e+05  -1.057110e+06
   1.022218e+06  -4.937545e+05
   8.094814e+05   5.379818e+05
   1.141989e+05   1.194996e+06
  -4.860212e+05   9.071249e+05
  -6.267984e+05  -4.219651e+04
  -3.594488e+05  -7.694337e+05
   4.603552e+04  -6.900105e+05
   3.387918e+05  -9.708504e+04
   3.763100e+05   2.637297e+05
   1.855412e+05   1.154777e+05
   1.746848e+03  -8.705543e+04
   7.090061e+04   1.388203e+05
   2.916580e+05   6.092634e+05
   2.200696e+05   7.246695e+05
  -3.596376e+05   2.768417e+05
  -9.825254e+05  -3.080061e+05
  -9.283345e+05  -5.489394e+05
  -1.320824e+05  -4.388491e+05
   6.370223e+05  -2.644828e+05
   6.743455e+05  -1.481201e+05
   1.711044e+05  -1.150448e+04
  -1.260116e+05   1.390744e+05
   6.699379e+04   1.802430e+05
   2.694956e+05   1.155527e+05
  -5.375345e+03   9.307714e+04
  -5.370098e+05   1.127720e+05
  -6.706107e+05  -4.444222e+04
  -1.357699e+05  -4.383403e+05
   6.497101e+05  -7.028018e+05
   1.049693e+06  -4.078966e+05
   7.974687e+05   3.479859e+05
   1.283039e+05   9.356500e+05
  -4.874685e+05   8.575589e+05
  -6.869618e+05   2.759915e+05
  -4.382824e+05  -2.106692e+05
  -4.287570e+04  -2.330984e+05
   1.276610e+05   1.317221e+04
  -2.291724e+04   7.379885e+04
  -2.359451e+05  -2.142987e+05
  -1.906423e+05  -5.285825e+05
   1.427972e+05  -4.205092e+05
   4.603127e+05   1.485817e+05
   4.157088e+05   6.887555e+05
  -3.685828e+04   6.628118e+05
  -5.472783e+05   6.596543e+04
  -6.358221e+05  -5.620303e+05
  -1.551585e+05  -7.086871e+05
   4.869148e+05  -3.667535e+05
   6.834697e+05   8.808903e+04
   2.881731e+05   3.451985e+05
  -1.891336e+05   3.579053e+05
  -1.795349e+05   2.158726e+05
   2.397314e+05   3.977386e+04
   4.440894e+05  -4.451250e+03
   6.413800e+04   1.869610e+05
  -5.457560e+05   4.425783e+05
  -7.587900e+05   3.955873e+05
  -4.151551e+05  -6.277178e+04
   8.084650e+04  -5.330091e+05
   3.012441e+05  -5.177745e+05
   2.004508e+05  -4.280982e+04
  -1.318972e+04   3.449813e+05
  -1.764067e+05   2.373612e+05
  -2.315354e+05  -1.705630e+05
  -1.462045e+05  -3.818899e+05
   5.924199e+04  -2.129404e+05
   2.506899e+05   6.547136e+04
   2.808403e+05   1.400805e+05
   1.556899e+05   2.208046e+04
   1.534801e+04  -4.290121e+04
  -5.207164e+04   8.500925e+04
  -9.516691e+04   2.755096e+05
  -1.793405e+05   2.797534e+05
  -2.552397e+05   8.847297e+03
  -1.988204e+05  -3.375066e+05
   3.285630e+04  -4.349209e+05
   3.062771e+05  -1.634508e+05
   3.807644e+05   2.389981e+05
   1.200186e+05   4.054855e+05
  -3.146003e+05   2.194373e+05
  -5.310625e+05  -9.471086e+04
  -2.846582e+05  -2.549554e+05
   1.974549e+05  -2.028005e+05
   4.003197e+05  -7.329691e+04
   1.079362e+05   3.398608e+03
  -3.036884e+05  -1.781147e+04
  -2.945815e+05  -1.267521e+05
   1.772878e+05  -2.338527e+05
   5.918186e+05  -1.618008e+05
