
 $NMID
 id='ANONYMOUS ', fmtdat='(2E16.6)'
 volume=1.0
 tramp=1.0
 $END
  -4.473220e+07   3.254130e+06
  -3.001279e+07  -2.427697e+07
   2.169980e+06  -3.055134e+07
   2.082325e+07  -1.513376e+07
   1.467927e+07   2.954916e+06
  -1.223620e+06   7.964163e+06
  -8.469145e+06   7.750985e+05
  -3.961474e+06  -7.710140e+06
   3.949898e+06  -9.160339e+06
   7.949715e+06  -3.087871e+06
   6.303091e+06   4.836807e+06
   1.079319e+06   7.451636e+06
  -3.298300e+06   2.297704e+06
  -2.571863e+06  -5.116498e+06
   2.734732e+06  -6.441245e+06
   6.759474e+06   1.933908e+05
   4.604290e+06   8.145819e+06
  -2.174546e+06   1.010549e+07
  -7.862500e+06   5.411383e+06
  -8.696639e+06  -1.253750e+06
  -5.292206e+06  -5.572711e+06
  -8.544470e+05  -6.291339e+06
   1.326186e+06  -4.559854e+06
   1.994524e+05  -2.807878e+06
  -1.553865e+06  -2.994975e+06
   1.305076e+05  -4.316754e+06
   5.286319e+06  -3.760161e+06
   8.662805e+06  -1.926457e+05
   5.978725e+06   3.545453e+06
  -2.324705e+05   4.097639e+06
  -3.659190e+06   1.713442e+06
  -1.932632e+06  -7.058159e+05
   1.578312e+06  -1.281846e+06
   3.028378e+06  -9.217455e+04
   2.000120e+06   2.101328e+06
   4.460187e+04   3.845001e+06
  -1.623768e+06   3.032871e+06
  -2.099852e+06  -3.857788e+05
  -9.587205e+05  -2.751195e+06
   4.221087e+05  -8.694255e+05
  -1.644613e+05   2.719634e+06
  -2.279180e+06   2.367381e+06
  -2.451351e+06  -2.403283e+06
   1.071523e+06  -5.264957e+06
   4.976377e+06  -1.566722e+06
   4.466426e+06   4.957290e+06
  -7.228083e+05   6.896576e+06
  -5.867629e+06   2.412007e+06
  -6.446228e+06  -3.414044e+06
  -2.304413e+06  -5.326505e+06
   2.926389e+06  -2.905154e+06
   5.127613e+06   8.246213e+05
   2.786676e+06   2.919711e+06
  -1.702594e+06   2.213534e+06
  -3.943890e+06  -3.111276e+05
  -1.997508e+06  -2.076033e+06
   1.300217e+06  -1.286801e+06
   1.773752e+06   7.938558e+05
  -7.530278e+05   1.241481e+06
  -2.383286e+06  -6.788722e+05
  -4.572251e+05  -2.571809e+06
   3.100187e+06  -2.133438e+06
   4.488752e+06   3.083952e+05
   2.394094e+06   2.973896e+06
  -1.430930e+06   4.590244e+06
  -4.546611e+06   4.308794e+06
  -5.448375e+06   1.508370e+06
  -3.844688e+06  -2.755288e+06
  -8.897531e+05  -5.436244e+06
   1.256313e+06  -4.522859e+06
   1.378313e+06  -1.703222e+06
   5.716406e+05  -2.844320e+05
   7.326786e+05  -9.146857e+05
   1.992788e+06  -1.224145e+06
   2.683423e+06   3.426305e+05
   1.662200e+06   2.278128e+06
  -3.755102e+05   2.230889e+06
  -1.870043e+06   4.567120e+04
  -1.750338e+06  -2.299545e+06
   9.491262e+04  -2.910695e+06
   2.636642e+06  -1.397644e+06
   3.942888e+06   1.208298e+06
   2.741332e+06   3.221411e+06
   6.309692e+04   3.463913e+06
  -1.690053e+06   2.291731e+06
  -1.687734e+06   1.174922e+06
  -1.576455e+06   9.120940e+05
  -2.817423e+06   7.222188e+05
  -4.251757e+06  -5.018558e+05
  -3.503392e+06  -2.557301e+06
  -2.464048e+05  -4.068320e+06
   3.145241e+06  -3.891183e+06
   4.162299e+06  -1.993373e+06
   2.530032e+06   5.870853e+05
   4.433778e+04   2.224569e+06
  -1.220877e+06   1.778249e+06
  -5.141756e+05  -1.041712e+05
   1.116854e+06  -1.258127e+06
   1.814244e+06  -4.114503e+05
   8.275678e+05   1.109944e+06
  -5.740458e+05   1.103995e+06
  -5.842744e+05  -3.842829e+05
   8.653707e+05  -9.925736e+05
   1.976785e+06   7.098365e+05
   1.247216e+06   3.179533e+06
  -9.397700e+05   3.776992e+06
  -2.998217e+06   1.807771e+06
  -3.673004e+06  -1.071885e+06
  -2.665552e+06  -2.855211e+06
  -5.685481e+05  -2.797578e+06
   1.287171e+06  -1.488552e+06
   1.606707e+06  -1.897467e+05
   4.934514e+05   3.866565e+04
  -3.782318e+05  -7.399898e+05
   3.182360e+05  -1.298442e+06
   1.778232e+06  -6.306456e+05
   2.016008e+06   7.333099e+05
   4.832398e+05   1.339106e+06
  -1.138301e+06   6.321820e+05
  -9.848383e+05  -4.458688e+05
   8.093735e+05  -6.915684e+05
   2.346359e+06   1.326812e+05
   1.987928e+06   1.371410e+06
  -1.360659e+05   2.148483e+06
  -2.329599e+06   1.807727e+06
  -2.803331e+06   3.536517e+05
  -1.241251e+06  -1.189766e+06
   8.333258e+05  -1.444317e+06
   1.453385e+06  -2.204124e+05
   1.809329e+05   1.010982e+06
  -1.477687e+06   7.498554e+05
  -1.753198e+06  -7.051936e+05
  -4.587386e+05  -1.657571e+06
   1.022810e+06  -1.105189e+06
   1.317609e+06   1.863003e+05
   3.504141e+05   7.612216e+05
  -7.470858e+05   1.000546e+05
  -7.365683e+05  -1.019130e+06
   5.696832e+05  -1.412377e+06
   1.999058e+06  -5.440292e+05
   2.033761e+06   1.026656e+06
   4.234574e+05   2.053923e+06
  -1.377453e+06   1.677000e+06
  -1.718871e+06   2.801262e+05
  -5.603075e+05  -8.505925e+05
   6.307417e+05  -8.457199e+05
   6.829181e+05  -7.121105e+04
  -9.108427e+04   4.644162e+05
  -5.842438e+05   2.943405e+05
  -2.655098e+05  -1.239709e+05
   4.055894e+05  -7.721869e+04
   6.007609e+05   5.712368e+05
  -1.068862e+05   1.193323e+06
  -1.346321e+06   9.498843e+05
  -2.096480e+06  -3.626828e+05
  -1.499376e+06  -1.914660e+06
   1.819449e+05  -2.452397e+06
   1.625796e+06  -1.510874e+06
   1.780605e+06   6.164741e+04
   9.646576e+05   9.744666e+05
   3.243086e+05   8.133561e+05
   3.777624e+05   2.887113e+05
   5.457461e+05   2.433931e+05
   1.061871e+05   6.977772e+05
  -8.366252e+05   9.456479e+05
  -1.481224e+06   3.998540e+05
  -1.135199e+06  -7.430790e+05
   1.985661e+05  -1.564824e+06
   1.735315e+06  -1.164962e+06
   2.305319e+06   4.382958e+05
   1.228270e+06   2.086360e+06
  -8.967906e+05   2.407484e+06
  -2.493373e+06   1.148839e+06
  -2.432352e+06  -5.494500e+05
  -1.098923e+06  -1.353417e+06
   1.530496e+05  -1.066654e+06
   4.734565e+05  -5.922985e+05
   1.886939e+05  -7.159258e+05
   1.246197e+05  -1.221971e+06
   6.160343e+05  -1.252635e+06
   1.249844e+06  -3.323879e+05
   1.341089e+06   1.066950e+06
   5.788808e+05   1.897399e+06
  -6.131097e+05   1.451926e+06
  -1.304551e+06   3.291382e+04
  -8.690190e+05  -1.245067e+06
   3.076287e+05  -1.418453e+06
   1.109891e+06  -5.158525e+05
   8.457049e+05   5.752642e+05
  -1.450390e+04   1.040464e+06
  -4.335215e+05   8.322678e+05
  -4.937315e+04   4.682394e+05
   4.176787e+05   3.469805e+05
   5.251268e+04   3.900228e+05
  -1.120690e+06   2.510074e+05
  -2.037060e+06  -2.681040e+05
  -1.649981e+06  -9.819255e+05
  -5.562020e+04  -1.412914e+06
   1.504034e+06  -1.170293e+06
   1.822261e+06  -3.586406e+05
   8.879012e+05   4.101948e+05
  -2.124455e+05   5.475475e+05
  -5.009132e+05   7.967968e+04
  -2.584343e+04  -3.698797e+05
   4.624302e+05  -2.463705e+05
   4.797736e+05   3.352348e+05
   2.049998e+05   7.239903e+05
   4.983104e+04   4.699144e+05
   1.534290e+05  -1.348270e+05
   3.326453e+05  -3.353373e+05
   2.931561e+05   2.257112e+05
  -1.594003e+05   1.005909e+06
  -8.813678e+05   1.076371e+06
  -1.290744e+06   1.785776e+05
  -8.052977e+05  -8.902573e+05
   3.851527e+05  -1.100104e+06
   1.207182e+06  -3.160598e+05
   7.334743e+05   5.802178e+05
  -6.852156e+05   6.786990e+05
  -1.633606e+06  -4.770445e+04
  -1.103470e+06  -8.596288e+05
   4.314319e+05  -1.064371e+06
   1.539214e+06  -5.782175e+05
   1.306366e+06   1.472523e+05
   1.675571e+05   5.371732e+05
  -6.517144e+05   3.091089e+05
  -3.796480e+05  -2.686850e+05
   5.985579e+05  -5.028077e+05
   1.177145e+06   1.004093e+05
   6.421595e+05   1.186096e+06
  -6.174328e+05   1.689794e+06
  -1.499173e+06   8.732454e+05
  -1.270557e+06  -7.650168e+05
  -2.193552e+05  -1.817273e+06
   7.401468e+05  -1.345503e+06
   9.577614e+05   1.378169e+05
   4.865931e+05   1.206405e+06
  -1.758908e+05   1.020345e+06
  -5.613448e+05   1.141796e+05
  -5.041171e+05  -3.923609e+05
  -1.962720e+05  -1.581357e+05
  -3.892266e+04   1.114101e+05
  -2.487236e+05  -2.572948e+05
  -5.153468e+05  -9.556528e+05
  -2.442964e+05  -1.109606e+06
   6.764135e+05  -4.319265e+05
   1.505788e+06   4.536759e+05
   1.343594e+06   8.418527e+05
   2.040636e+05   6.986037e+05
  -8.871886e+05   4.220263e+05
  -1.009393e+06   2.058145e+05
  -3.469561e+05  -2.140667e+04
   1.547061e+05  -2.229610e+05
   4.687151e+03  -2.384515e+05
  -2.988170e+05  -1.255131e+05
  -3.788745e+04  -1.308708e+05
   6.994934e+05  -2.190684e+05
   1.049173e+06   6.703855e+03
   3.962770e+05   6.676398e+05
  -8.600249e+05   1.166779e+06
  -1.672930e+06   7.700564e+05
  -1.380161e+06  -4.197475e+05
  -2.806467e+05  -1.417198e+06
   7.425786e+05  -1.391740e+06
   1.042792e+06  -5.348202e+05
   6.623989e+05   2.465412e+05
   1.257094e+05   3.537116e+05
  -9.111096e+04   3.670904e+04
   8.012443e+04  -4.488967e+04
   3.278905e+05   3.636398e+05
   2.738212e+05   8.181635e+05
  -1.753808e+05   6.786419e+05
  -6.866737e+05  -1.365543e+05
  -7.319808e+05  -9.628566e+05
  -9.907647e+04  -1.021580e+06
   7.620233e+05  -2.242103e+05
   1.033400e+06   7.347847e+05
   3.486741e+05   1.084428e+06
  -7.050927e+05   6.702760e+05
  -1.111679e+06  -6.135731e+04
  -5.373313e+05  -5.832880e+05
   2.662537e+05  -6.630162e+05
   3.511581e+05  -3.809515e+05
  -2.710359e+05  -2.719356e+04
  -6.597709e+05   4.172576e+04
  -1.457099e+05  -2.997235e+05
   8.250448e+05  -7.003441e+05
   1.250062e+06  -5.921512e+05
   7.554559e+05   1.365597e+05
  -8.241080e+04   8.674059e+05
  -5.180112e+05   8.715680e+05
  -3.936343e+05   1.628577e+05
  -4.313585e+04  -4.867997e+05
   2.333761e+05  -4.270438e+05
   3.484261e+05   1.659667e+05
   2.609078e+05   5.779000e+05
  -4.331498e+04   4.088461e+05
  -3.895327e+05  -4.844678e+04
  -4.834858e+05  -2.571284e+05
  -2.523294e+05  -7.989644e+04
   3.397803e+04   1.284564e+05
   1.007159e+05   6.771597e+03
   1.974352e+04  -3.558707e+05
   7.349885e+04  -5.110716e+05
   3.129824e+05  -1.789755e+05
   4.266107e+05   3.874113e+05
   1.279366e+05   6.356590e+05
  -4.126828e+05   3.074034e+05
  -6.529613e+05  -2.789624e+05
  -2.494773e+05  -5.776985e+05
   4.983496e+05  -3.762990e+05
   8.739052e+05   6.606854e+04
   4.822732e+05   3.709951e+05
  -2.822590e+05   3.922943e+05
  -6.255994e+05   2.232098e+05
  -2.341910e+05   2.724841e+04
   3.624020e+05  -4.580307e+04
   4.091159e+05   8.581052e+04
  -1.907658e+05   3.005677e+05
  -7.754432e+05   2.686697e+05
