
 $NMID
 id='ANONYMOUS ', fmtdat='(2E16.6)'
 volume=1.0
 tramp=1.0
 $END
   1.428457e+07  -1.591990e+05
   9.708348e+06   6.121005e+06
   4.413306e+05   8.828080e+06
  -5.814532e+06   6.520051e+06
  -5.275144e+06   1.216797e+06
  -6.147844e+05  -2.558568e+06
   2.894059e+06  -1.704036e+06
   2.541439e+06   2.150582e+06
  -3.378728e+05   4.262795e+06
  -2.651611e+06   2.096331e+06
  -2.498113e+06  -1.865161e+06
  -4.025256e+05  -3.197540e+06
   1.479057e+06  -6.546611e+05
   1.318523e+06   2.714017e+06
  -7.001053e+05   3.241059e+06
  -2.468552e+06   4.721422e+05
  -1.997852e+06  -2.818405e+06
   4.964382e+05  -3.709661e+06
   2.756737e+06  -1.799541e+06
   2.839470e+06   8.674093e+05
   1.106049e+06   2.063156e+06
  -3.188306e+05   1.474775e+06
   4.742702e+04   6.592694e+05
   1.426550e+06   1.056560e+06
   1.657821e+06   2.315538e+06
  -3.613597e+05   2.803817e+06
  -3.236505e+06   1.576757e+06
  -4.276405e+06  -5.661795e+05
  -2.287100e+06  -1.976688e+06
   9.681239e+05  -1.719048e+06
   2.432747e+06  -2.010110e+05
   9.335772e+05   1.283262e+06
  -1.655042e+06   1.453366e+06
  -2.600612e+06   7.522398e+02
  -1.261132e+06  -1.905458e+06
   5.944614e+05  -2.425938e+06
   1.120182e+06  -9.538926e+05
   3.184684e+05   9.418053e+05
  -4.797158e+05   1.114700e+06
  -3.587315e+05  -5.865384e+05
   4.445609e+05  -2.026026e+06
   1.136943e+06  -1.361379e+06
   1.108062e+06   6.857414e+05
   2.428428e+05   1.733084e+06
  -9.006749e+05   6.073710e+05
  -1.216628e+06  -1.380623e+06
   1.168537e+04  -2.067166e+06
   2.015645e+06  -7.690350e+05
   2.877198e+06   1.255703e+06
   1.467845e+06   2.273604e+06
  -1.125908e+06   1.638862e+06
  -2.573748e+06   1.008119e+05
  -1.711506e+06  -1.035972e+06
   3.425411e+05  -1.010233e+06
   1.519548e+06  -1.326578e+05
   9.407259e+05   6.080247e+05
  -4.153506e+05   5.036451e+05
  -9.645700e+05  -2.372226e+05
  -2.020411e+05  -7.775021e+05
   8.632081e+05  -5.274710e+05
   8.703820e+05   2.829621e+05
  -3.430068e+05   8.273487e+05
  -1.455410e+06   4.285900e+05
  -1.053223e+06  -7.984168e+05
   7.676656e+05  -1.910652e+06
   2.438408e+06  -1.837449e+06
   2.590089e+06  -3.625000e+05
   1.409054e+06   1.536038e+06
   1.703139e+05   2.516128e+06
  -2.862380e+05   2.154087e+06
  -2.575038e+05   1.259318e+06
  -4.749108e+05   8.082069e+05
  -1.129627e+06   7.806826e+05
  -1.731076e+06   3.601650e+05
  -1.671473e+06  -7.745386e+05
  -7.702606e+05  -1.777658e+06
   5.456433e+05  -1.525952e+06
   1.427172e+06  -7.686667e+03
   1.160385e+06   1.499800e+06
  -1.573513e+05   1.696643e+06
  -1.512312e+06   5.202969e+05
  -1.810769e+06  -9.329429e+05
  -9.327813e+05  -1.578024e+06
   1.879072e+05  -1.277636e+06
   6.269554e+05  -7.024895e+05
   4.717826e+05  -4.880169e+05
   5.851618e+05  -6.250394e+05
   1.410538e+06  -5.806348e+05
   2.251531e+06   9.814316e+04
   1.941541e+06   1.277052e+06
   2.183356e+05   2.235515e+06
  -1.758229e+06   2.196944e+06
  -2.434214e+06   1.018498e+06
  -1.405392e+06  -5.442631e+05
   1.927625e+05  -1.363169e+06
   8.779712e+05  -9.259013e+05
   2.781551e+05   1.441047e+05
  -6.901615e+05   6.839871e+05
  -9.503295e+05   2.045941e+05
  -3.458202e+05  -5.903734e+05
   3.872159e+05  -6.451092e+05
   4.741751e+05   1.506924e+05
  -1.889638e+05   7.522931e+05
  -9.978783e+05   1.692710e+05
  -1.131738e+06  -1.289021e+06
  -2.087412e+05  -2.222887e+06
   1.295128e+06  -1.609893e+06
   2.279568e+06   1.202375e+05
   1.923720e+06   1.557920e+06
   5.089750e+05   1.725266e+06
  -7.705164e+05   8.919460e+05
  -9.617792e+05   8.252813e+04
  -2.789676e+05  -1.606946e+04
   2.278137e+05   4.029049e+05
  -1.136544e+05   6.584108e+05
  -8.716457e+05   3.479792e+05
  -1.063347e+06  -2.851623e+05
  -3.305581e+05  -6.480311e+05
   5.912434e+05  -4.007869e+05
   6.471088e+05   2.038510e+05
  -3.473972e+05   5.378257e+05
  -1.410042e+06   1.736916e+05
  -1.369367e+06  -6.887207e+05
  -1.065360e+05  -1.342514e+06
   1.281643e+06  -1.182230e+06
   1.590087e+06  -2.859113e+05
   6.930290e+05   5.974364e+05
  -4.226663e+05   7.267707e+05
  -7.127210e+05   1.025858e+05
  -4.933580e+04  -5.190893e+05
   7.999558e+05  -4.178088e+05
   9.944370e+05   3.157054e+05
   3.768031e+05   8.930488e+05
  -4.579295e+05   7.187480e+05
  -7.491520e+05   4.104748e+04
  -2.897842e+05  -3.652934e+05
   3.561786e+05  -7.612228e+04
   4.001735e+05   5.485025e+05
  -3.278436e+05   7.874097e+05
  -1.129929e+06   3.004127e+05
  -1.140775e+06  -5.685821e+05
  -2.633081e+05  -1.130445e+06
   7.109635e+05  -9.532880e+05
   9.375980e+05  -2.192448e+05
   3.643848e+05   4.398864e+05
  -3.135998e+05   5.074269e+05
  -4.397954e+05   5.663299e+04
  -2.335644e+04  -3.530147e+05
   3.835000e+05  -2.943709e+05
   3.189032e+05   6.070138e+04
  -1.158919e+05   1.741280e+05
  -3.741695e+05  -1.877208e+05
  -3.758044e+04  -6.371976e+05
   7.067125e+05  -5.733745e+05
   1.181563e+06   1.545364e+05
   8.671362e+05   1.048973e+06
  -6.206741e+04   1.409208e+06
  -8.932884e+05   9.570092e+05
  -1.072023e+06   6.685805e+04
  -6.888671e+05  -5.830707e+05
  -2.659356e+05  -6.194067e+05
  -1.492824e+05  -2.808723e+05
  -1.966809e+05  -1.097254e+05
  -4.200525e+04  -3.243652e+05
   4.177543e+05  -5.611084e+05
   8.403765e+05  -3.141270e+05
   7.389116e+05   4.050167e+05
  -1.531741e+04   9.693802e+05
  -9.595184e+05   7.565145e+05
  -1.346005e+06  -1.836093e+05
  -7.803054e+05  -1.131863e+06
   3.852266e+05  -1.354599e+06
   1.317044e+06  -7.394536e+05
   1.410668e+06   1.714233e+05
   7.707020e+05   7.191681e+05
   2.082587e+04   7.013534e+05
  -3.154260e+05   4.579183e+05
  -2.376141e+05   4.231428e+05
  -1.374195e+05   6.210150e+05
  -3.184101e+05   6.490016e+05
  -6.625782e+05   1.771291e+05
  -7.565046e+05  -5.977631e+05
  -3.457051e+05  -1.074899e+06
   3.389841e+05  -8.349035e+05
   7.448314e+05  -5.835948e+04
   5.285116e+05   6.459157e+05
  -8.621658e+04   7.885223e+05
  -5.270673e+05   3.746909e+05
  -4.546649e+05  -1.912014e+05
  -7.994487e+04  -5.041047e+05
   1.218880e+05  -4.723971e+05
  -3.161393e+04  -3.014838e+05
  -2.260678e+05  -2.184369e+05
  -2.404943e+04  -2.327367e+05
   5.906443e+05  -1.660126e+05
   1.100911e+06   1.089597e+05
   9.416666e+05   4.943499e+05
   1.096397e+05   7.362668e+05
  -7.604525e+05   6.478175e+05
  -9.895234e+05   2.741018e+05
  -5.171320e+05  -1.249211e+05
   8.470664e+04  -2.647172e+05
   2.515843e+05  -8.464908e+04
  -1.804333e+04   1.607792e+05
  -2.911334e+05   1.351945e+05
  -2.660365e+05  -1.879144e+05
  -6.263515e+04  -4.401255e+05
   2.739525e+04  -2.826425e+05
  -8.393203e+04   1.260744e+05
  -2.245235e+05   2.620393e+05
  -1.809541e+05  -1.137771e+05
   1.053880e+05  -6.023114e+05
   4.849306e+05  -6.096167e+05
   6.605050e+05  -5.897297e+04
   3.907745e+05   5.127425e+05
  -2.167900e+05   5.669947e+05
  -6.487460e+05   1.212714e+05
  -4.176140e+05  -3.443176e+05
   3.603364e+05  -4.053785e+05
   9.526159e+05  -3.916339e+04
   7.265511e+05   4.385856e+05
  -1.535676e+05   6.556265e+05
  -8.686438e+05   4.502731e+05
  -7.984733e+05  -3.364438e+03
  -1.414162e+05  -3.133172e+05
   3.529241e+05  -2.165465e+05
   1.941815e+05   1.308240e+05
  -3.730815e+05   2.670787e+05
  -6.755700e+05  -9.557033e+04
  -3.228055e+05  -7.076252e+05
   4.124569e+05  -9.590917e+05
   8.917209e+05  -4.747250e+05
   7.366486e+05   4.518518e+05
   1.382529e+05   1.057797e+06
  -4.046282e+05   8.173735e+05
  -5.567369e+05  -2.304722e+04
  -3.378384e+05  -6.734696e+05
   2.577113e+04  -6.109086e+05
   2.997623e+05  -9.377633e+04
   3.383447e+05   2.217718e+05
   1.639531e+05   9.510588e+04
   6.321998e+02  -7.575845e+04
   7.352421e+04   1.253592e+05
   2.797789e+05   5.347414e+05
   2.116011e+05   6.360162e+05
  -3.179028e+05   2.549708e+05
  -8.816935e+05  -2.443165e+05
  -8.362299e+05  -4.597291e+05
  -1.297031e+05  -3.872236e+05
   5.537783e+05  -2.552376e+05
   5.930909e+05  -1.502355e+05
   1.553865e+05  -1.206788e+04
  -1.061335e+05   1.281311e+05
   5.970841e+04   1.547590e+05
   2.375997e+05   9.066495e+04
   4.943568e+02   8.281369e+04
  -4.679738e+05   1.196572e+05
  -5.987783e+05  -1.725806e+04
  -1.428393e+05  -3.876438e+05
   5.510608e+05  -6.492332e+05
   9.256385e+05  -3.990132e+05
   7.277394e+05   2.823634e+05
   1.454058e+05   8.274691e+05
  -4.089192e+05   7.796389e+05
  -6.030468e+05   2.707872e+05
  -3.958864e+05  -1.703962e+05
  -4.796236e+04  -2.063896e+05
   1.091839e+05   3.723718e+03
  -1.959668e+04   6.215551e+04
  -2.135815e+05  -1.848391e+05
  -1.835714e+05  -4.641451e+05
   1.129447e+05  -3.799551e+05
   4.134053e+05   1.137890e+05
   3.951235e+05   5.962909e+05
  -5.833998e+03   5.920806e+05
  -4.818896e+05   8.159677e+04
  -5.855155e+05  -4.751844e+05
  -1.638614e+05  -6.262660e+05
   4.211654e+05  -3.457688e+05
   6.137400e+05   5.559976e+04
   2.700651e+05   3.022360e+05
  -1.578981e+05   3.294567e+05
  -1.577336e+05   1.985078e+05
   2.095586e+05   2.546964e+04
   3.936331e+05  -1.881901e+04
   6.457681e+04   1.654559e+05
  -4.716445e+05   4.100502e+05
  -6.667214e+05   3.713351e+05
  -3.760156e+05  -4.739794e+04
   5.501260e+04  -4.788019e+05
   2.564848e+05  -4.717271e+05
   1.824169e+05  -4.759780e+04
   1.982871e+03   3.054422e+05
  -1.487562e+05   2.195626e+05
  -2.114453e+05  -1.398744e+05
  -1.428163e+05  -3.350377e+05
   4.514277e+04  -1.956175e+05
   2.254795e+05   4.836516e+04
   2.555893e+05   1.191680e+05
   1.389850e+05   1.764010e+04
   1.028601e+04  -4.248045e+04
  -4.306434e+04   6.977374e+04
  -6.931761e+04   2.457121e+05
  -1.420860e+05   2.604202e+05
  -2.246227e+05   2.460715e+04
  -1.941656e+05  -2.890241e+05
   7.205322e+03  -3.879517e+05
   2.651471e+05  -1.576106e+05
   3.496952e+05   1.977395e+05
   1.221845e+05   3.552723e+05
  -2.743955e+05   2.057724e+05
  -4.784412e+05  -6.556528e+04
  -2.627492e+05  -2.178227e+05
   1.695602e+05  -1.902008e+05
   3.554883e+05  -8.207939e+04
   9.985203e+04  -8.122216e+02
  -2.659876e+05  -2.012681e+03
  -2.645560e+05  -9.805430e+04
   1.458683e+05  -2.109396e+05
   5.145502e+05  -1.635164e+05
