
 $NMID
 id='ANONYMOUS ', fmtdat='(2E16.6)'
 volume=1.0
 tramp=1.0
 $END
   2.206720e+07   2.006753e+05
   1.502521e+07   9.867367e+06
   4.663118e+05   1.384581e+07
  -9.425324e+06   9.962274e+06
  -8.427512e+06   1.601911e+06
  -8.401482e+05  -4.079078e+06
   4.686920e+06  -2.477998e+06
   3.860289e+06   3.560131e+06
  -8.345834e+05   6.651902e+06
  -4.290989e+06   3.117213e+06
  -3.758341e+06  -3.011116e+06
  -4.306207e+05  -4.944655e+06
   2.286292e+06  -9.171826e+05
   1.817321e+06   4.274670e+06
  -1.326479e+06   4.986855e+06
  -3.892264e+06   6.043551e+05
  -2.972293e+06  -4.485318e+06
   9.401057e+05  -5.748476e+06
   4.329337e+06  -2.681347e+06
   4.324171e+06   1.423232e+06
   1.637187e+06   3.160781e+06
  -4.657429e+05   2.225604e+06
   1.295336e+05   1.094369e+06
   2.127518e+06   1.841055e+06
   2.323209e+06   3.736796e+06
  -7.975435e+05   4.267087e+06
  -5.073034e+06   2.161823e+06
  -6.503825e+06  -1.166975e+06
  -3.374111e+06  -3.157308e+06
   1.583253e+06  -2.519091e+06
   3.707150e+06  -9.635188e+04
   1.279508e+06   2.029921e+06
  -2.697571e+06   2.047376e+06
  -3.986786e+06  -2.574049e+05
  -1.747313e+06  -3.024870e+06
   1.107204e+06  -3.640852e+06
   1.744257e+06  -1.379203e+06
   3.806171e+05   1.406950e+06
  -7.864752e+05   1.619013e+06
  -4.388565e+05  -9.231778e+05
   8.695949e+05  -3.055260e+06
   1.861341e+06  -2.016254e+06
   1.694020e+06   1.134341e+06
   2.959853e+05   2.755505e+06
  -1.447500e+06   9.815383e+05
  -1.866873e+06  -2.167300e+06
   8.082748e+04  -3.235543e+06
   3.150301e+06  -1.111064e+06
   4.382864e+06   2.127763e+06
   2.121500e+06   3.638113e+06
  -1.870055e+06   2.463012e+06
  -4.006902e+06  -3.856777e+04
  -2.585663e+06  -1.742589e+06
   6.009012e+05  -1.561128e+06
   2.374090e+06  -1.194599e+05
   1.432239e+06   1.002913e+06
  -6.708363e+05   7.598698e+05
  -1.476163e+06  -4.417424e+05
  -2.340439e+05  -1.245117e+06
   1.429645e+06  -7.571868e+05
   1.374302e+06   5.571212e+05
  -5.936972e+05   1.335708e+06
  -2.326674e+06   6.019372e+05
  -1.616890e+06  -1.306940e+06
   1.289316e+06  -2.896187e+06
   3.862815e+06  -2.657347e+06
   3.994011e+06  -3.932679e+05
   2.061962e+06   2.428668e+06
   1.036381e+05   3.873148e+06
  -5.898057e+05   3.323162e+06
  -5.170515e+05   1.946375e+06
  -8.289342e+05   1.192107e+06
  -1.807510e+06   1.069151e+06
  -2.668137e+06   3.859503e+05
  -2.475847e+06  -1.327717e+06
  -1.015894e+06  -2.780777e+06
   9.737618e+05  -2.279391e+06
   2.189791e+06   1.262338e+05
   1.650032e+06   2.408508e+06
  -3.794047e+05   2.590458e+06
  -2.351817e+06   6.824745e+05
  -2.704214e+06  -1.549738e+06
  -1.336165e+06  -2.467600e+06
   3.436564e+05  -1.948320e+06
   9.880420e+05  -1.062577e+06
   7.607969e+05  -7.484657e+05
   9.620053e+05  -9.344450e+05
   2.232381e+06  -7.913045e+05
   3.474442e+06   3.224283e+05
   2.900381e+06   2.119780e+06
   1.617016e+05   3.465614e+06
  -2.881907e+06   3.245746e+06
  -3.820275e+06   1.372442e+06
  -2.106452e+06  -9.449146e+05
   4.089427e+05  -2.067979e+06
   1.416146e+06  -1.343609e+06
   4.092064e+05   2.430009e+05
  -1.115423e+06   9.934052e+05
  -1.477268e+06   2.420825e+05
  -4.874090e+05  -9.289631e+05
   6.479428e+05  -9.546847e+05
   7.177474e+05   2.819744e+05
  -3.694936e+05   1.157323e+06
  -1.587606e+06   1.770890e+05
  -1.664573e+06  -2.109129e+06
  -1.281204e+05  -3.481791e+06
   2.163659e+06  -2.391234e+06
   3.526669e+06   3.839016e+05
   2.835577e+06   2.575624e+06
   6.357336e+05   2.705628e+06
  -1.258512e+06   1.309540e+06
  -1.483820e+06   4.860499e+04
  -4.280516e+05  -4.632149e+04
   3.186164e+05   6.400855e+05
  -2.252558e+05   1.009542e+06
  -1.371535e+06   4.731311e+05
  -1.621584e+06  -5.223944e+05
  -4.601090e+05  -1.028553e+06
   9.472987e+05  -5.697595e+05
   9.806129e+05   3.745325e+05
  -5.910596e+05   8.061381e+05
  -2.201010e+06   1.458539e+05
  -2.055750e+06  -1.186639e+06
  -4.618141e+04  -2.085290e+06
   2.077771e+06  -1.718107e+06
   2.475228e+06  -3.123589e+05
   1.023125e+06   9.746901e+05
  -7.039126e+05   1.088379e+06
  -1.104593e+06   1.074173e+05
  -3.718750e+04  -8.003510e+05
   1.265486e+06  -5.807487e+05
   1.510050e+06   5.673076e+05
   5.086584e+05   1.411989e+06
  -7.701444e+05   1.074129e+06
  -1.164150e+06  -6.571188e+02
  -4.169807e+05  -5.922636e+05
   5.590937e+05  -9.088137e+04
   5.751140e+05   8.784841e+05
  -5.678948e+05   1.188239e+06
  -1.765027e+06   3.735010e+05
  -1.713042e+06  -9.660355e+05
  -3.170911e+05  -1.763484e+06
   1.171428e+06  -1.414863e+06
   1.463726e+06  -2.639755e+05
   5.258188e+05   7.089394e+05
  -5.265424e+05   7.567222e+05
  -6.807650e+05   4.689074e+04
   1.108163e+03  -5.493957e+05
   6.228181e+05  -4.169186e+05
   4.844106e+05   1.309076e+05
  -2.034734e+05   2.652122e+05
  -5.708952e+05  -3.230546e+05
  -9.022523e+03  -9.922124e+05
   1.137215e+06  -8.311137e+05
   1.811462e+06   3.317520e+05
   1.254850e+06   1.685848e+06
  -2.085923e+05   2.166909e+06
  -1.457316e+06   1.402260e+06
  -1.660322e+06   1.272298e+04
  -1.009595e+06  -9.589870e+05
  -3.493663e+05  -9.752088e+05
  -2.024971e+05  -4.370988e+05
  -2.995670e+05  -1.779185e+05
  -4.550672e+04  -5.037195e+05
   6.894463e+05  -8.357127e+05
   1.325208e+06  -4.175594e+05
   1.106891e+06   6.875189e+05
  -1.060756e+05   1.496996e+06
  -1.544239e+06   1.090306e+06
  -2.062406e+06  -3.923980e+05
  -1.113681e+06  -1.811551e+06
   7.028831e+05  -2.063870e+06
   2.094428e+06  -1.038522e+06
   2.166310e+06   3.807036e+05
   1.129078e+06   1.178420e+06
  -3.198142e+04   1.085937e+06
  -5.282580e+05   6.744786e+05
  -3.970754e+05   6.242094e+05
  -2.542844e+05   9.426860e+05
  -5.382055e+05   9.774113e+05
  -1.034561e+06   2.236051e+05
  -1.118233e+06  -9.800741e+05
  -4.469982e+05  -1.683560e+06
   5.889792e+05  -1.258895e+06
   1.153934e+06  -2.933994e+04
   7.656782e+05   1.040381e+06
  -1.963043e+05   1.213373e+06
  -8.491644e+05   5.396251e+05
  -6.944883e+05  -3.323436e+05
  -8.651311e+04  -7.906055e+05
   2.285572e+05  -7.257814e+05
  -2.091126e+04  -4.692434e+05
  -3.303415e+05  -3.523885e+05
  -1.880591e+04  -3.596297e+05
   9.253832e+05  -2.120910e+05
   1.691636e+06   2.515097e+05
   1.415306e+06   8.375564e+05
   1.124763e+05   1.149656e+06
  -1.223909e+06   9.441802e+05
  -1.550854e+06   3.447410e+05
  -7.927339e+05  -2.372314e+05
   1.492125e+05  -4.047141e+05
   3.975630e+05  -1.117543e+05
  -3.557128e+04   2.453196e+05
  -4.569383e+05   1.838850e+05
  -3.951917e+05  -3.093017e+05
  -6.210876e+04  -6.778723e+05
   6.360457e+04  -4.287842e+05
  -1.422507e+05   1.866580e+05
  -3.702975e+05   3.818836e+05
  -2.713682e+05  -1.908787e+05
   2.103658e+05  -9.181568e+05
   7.953419e+05  -9.026604e+05
   1.022092e+06  -4.531362e+04
   5.635626e+05   8.158615e+05
  -3.745910e+05   8.583109e+05
  -1.005839e+06   1.403937e+05
  -6.151363e+05  -5.622393e+05
   5.884785e+05  -5.972219e+05
   1.473159e+06   1.763352e+04
   1.084679e+06   7.399374e+05
  -2.935641e+05   1.001891e+06
  -1.380730e+06   6.220632e+05
  -1.232759e+06  -7.385956e+04
  -1.911922e+05  -4.962673e+05
   5.637365e+05  -3.053525e+05
   2.907265e+05   2.163267e+05
  -5.934866e+05   3.805078e+05
  -1.030189e+06  -1.995568e+05
  -4.406776e+05  -1.111170e+06
   7.081203e+05  -1.440331e+06
   1.407230e+06  -6.591704e+05
   1.097095e+06   7.535527e+05
   1.281062e+05   1.639349e+06
  -6.908268e+05   1.226166e+06
  -8.586939e+05  -8.165174e+04
  -4.662731e+05  -1.067979e+06
   9.224413e+04  -9.426658e+05
   4.717726e+05  -1.212078e+05
   5.020615e+05   3.716267e+05
   2.428309e+05   1.627576e+05
   8.407585e+03  -1.174303e+05
   1.069973e+05   1.951717e+05
   3.896993e+05   8.447248e+05
   2.729708e+05   1.000309e+06
  -5.123120e+05   3.715785e+05
  -1.338283e+06  -4.473501e+05
  -1.250318e+06  -7.786157e+05
  -1.697407e+05  -6.076140e+05
   8.718415e+05  -3.459771e+05
   9.264801e+05  -1.825565e+05
   2.432333e+05  -8.411963e+03
  -1.728687e+05   1.875448e+05
   7.663218e+04   2.462505e+05
   3.554216e+05   1.621315e+05
  -5.509732e+03   1.262032e+05
  -7.273859e+05   1.432751e+05
  -9.197760e+05  -7.329080e+04
  -1.918111e+05  -6.024544e+05
   8.963280e+05  -9.527864e+05
   1.454734e+06  -5.447997e+05
   1.097456e+06   4.864413e+05
   1.582439e+05   1.283768e+06
  -6.903555e+05   1.169859e+06
  -9.474281e+05   3.703248e+05
  -5.938098e+05  -2.937491e+05
  -5.813237e+04  -3.200784e+05
   1.643813e+05   1.714279e+04
  -3.833580e+04   9.467277e+04
  -3.149538e+05  -3.039595e+05
  -2.452687e+05  -7.310903e+05
   2.031120e+05  -5.754837e+05
   6.245480e+05   2.081198e+05
   5.590010e+05   9.461800e+05
  -5.413174e+04   9.066259e+05
  -7.436341e+05   8.615629e+04
  -8.605125e+05  -7.753681e+05
  -2.038218e+05  -9.744575e+05
   6.725032e+05  -4.993367e+05
   9.399965e+05   1.317328e+05
   3.953920e+05   4.853400e+05
  -2.656937e+05   4.962888e+05
  -2.589059e+05   2.966499e+05
   3.179842e+05   5.875023e+04
   6.066542e+05   2.774929e+03
   8.750511e+04   2.587563e+05
  -7.589709e+05   5.938071e+05
  -1.059384e+06   5.211736e+05
  -5.789995e+05  -9.992848e+04
   1.209881e+05  -7.327713e+05
   4.315499e+05  -7.095267e+05
   2.830568e+05  -6.333846e+04
  -2.190759e+04   4.679405e+05
  -2.441022e+05   3.262184e+05
  -3.111748e+05  -2.311584e+05
  -1.934560e+05  -5.264431e+05
   8.168369e+04  -2.975812e+05
   3.418446e+05   9.169496e+04
   3.865803e+05   2.031652e+05
   2.145690e+05   3.866033e+04
   1.616456e+04  -6.375411e+04
  -7.707853e+04   1.024494e+05
  -1.268361e+05   3.675740e+05
  -2.337197e+05   3.842534e+05
  -3.410484e+05   1.987933e+04
  -2.734478e+05  -4.546226e+05
   4.042445e+04  -5.905733e+05
   4.183867e+05  -2.205411e+05
   5.211663e+05   3.290388e+05
   1.592835e+05   5.544018e+05
  -4.383818e+05   2.962673e+05
  -7.303499e+05  -1.362418e+05
  -3.874205e+05  -3.549792e+05
   2.735142e+05  -2.800519e+05
   5.507633e+05  -1.000294e+05
   1.538851e+05   3.831785e+03
  -4.054722e+05  -2.702633e+04
  -3.952157e+05  -1.721457e+05
   2.425169e+05  -3.094532e+05
   8.031878e+05  -2.061872e+05
