
 $NMID
 id='ANONYMOUS ', fmtdat='(2E16.6)'
 volume=1.0
 tramp=1.0
 $END
   4.609726e+07  -3.326530e+06
   3.027491e+07   2.537758e+07
  -2.833650e+06   3.127566e+07
  -2.123586e+07   1.485561e+07
  -1.441897e+07  -3.452986e+06
   1.522733e+06  -7.931983e+06
   8.325455e+06  -4.676523e+05
   3.669554e+06   7.714116e+06
  -4.005517e+06   8.871720e+06
  -7.895556e+06   2.904095e+06
  -6.401777e+06  -4.813460e+06
  -1.236690e+06  -7.451438e+06
   3.319446e+06  -2.448853e+06
   2.744502e+06   4.912741e+06
  -2.609238e+06   6.292533e+06
  -6.742519e+06  -2.792675e+05
  -4.615257e+06  -8.207002e+06
   2.210132e+06  -1.019819e+07
   8.012810e+06  -5.550573e+06
   9.000173e+06   1.207075e+06
   5.593685e+06   5.805955e+06
   8.577119e+05   6.706801e+06
  -1.666387e+06   4.739285e+06
  -5.128474e+05   2.503658e+06
   1.629672e+06   2.512065e+06
   2.400814e+05   4.182435e+06
  -5.011140e+06   4.098956e+06
  -8.693288e+06   6.356930e+05
  -6.220478e+06  -3.395486e+06
  -2.854426e+04  -4.314171e+06
   3.563009e+06  -2.100618e+06
   2.148537e+06   4.289733e+05
  -1.133973e+06   1.335296e+06
  -2.748560e+06   4.551979e+05
  -2.178336e+06  -1.747096e+06
  -4.312663e+05  -3.809940e+06
   1.547813e+06  -3.238186e+06
   2.411840e+06   3.044164e+05
   1.196596e+06   2.951483e+06
  -5.824134e+05   1.132932e+06
  -1.672285e+05  -2.619342e+06
   2.119831e+06  -2.374832e+06
   2.410538e+06   2.422344e+06
  -1.243502e+06   5.253305e+06
  -5.242026e+06   1.405116e+06
  -4.560964e+06  -5.199407e+06
   8.514587e+05  -7.053610e+06
   5.998853e+06  -2.480632e+06
   6.452603e+06   3.309882e+06
   2.305271e+06   5.181361e+06
  -2.813478e+06   2.850076e+06
  -4.964935e+06  -7.410850e+05
  -2.681517e+06  -2.799929e+06
   1.737677e+06  -2.147948e+06
   3.934485e+06   3.337079e+05
   1.955954e+06   2.084931e+06
  -1.321786e+06   1.292797e+06
  -1.722405e+06  -7.381921e+05
   7.937372e+05  -1.085466e+06
   2.251569e+06   8.524636e+05
   1.724402e+05   2.599262e+06
  -3.302182e+06   1.996294e+06
  -4.478114e+06  -4.498568e+05
  -2.342969e+06  -3.029361e+06
   1.317298e+06  -4.670854e+06
   4.356120e+06  -4.517090e+06
   5.430576e+06  -1.740712e+06
   4.037379e+06   2.655473e+06
   1.087746e+06   5.430237e+06
  -1.175871e+06   4.446714e+06
  -1.299838e+06   1.537062e+06
  -3.576858e+05   1.937176e+05
  -4.435799e+05   1.029155e+06
  -1.812776e+06   1.502435e+06
  -2.720697e+06  -3.118730e+04
  -1.878050e+06  -2.057445e+06
   1.186875e+05  -2.201961e+06
   1.736395e+06  -2.258981e+05
   1.823133e+06   2.062134e+06
   8.924188e+04   2.843151e+06
  -2.545447e+06   1.555346e+06
  -4.038345e+06  -1.011478e+06
  -2.906882e+06  -3.180480e+06
  -1.337631e+05  -3.560424e+06
   1.729827e+06  -2.368077e+06
   1.724322e+06  -1.156810e+06
   1.526668e+06  -8.726812e+05
   2.700009e+06  -7.660377e+05
   4.145227e+06   3.450766e+05
   3.502010e+06   2.349838e+06
   4.146083e+05   3.933800e+06
  -2.859794e+06   3.934583e+06
  -3.945520e+06   2.189443e+06
  -2.539641e+06  -4.005118e+05
  -2.281158e+05  -2.183631e+06
   1.071993e+06  -1.847609e+06
   5.269143e+05   6.049674e+04
  -1.014523e+06   1.298162e+06
  -1.764912e+06   4.798889e+05
  -8.782013e+05  -1.072595e+06
   4.846743e+05  -1.110320e+06
   5.411000e+05   3.273146e+05
  -8.144441e+05   8.989254e+05
  -1.855247e+06  -7.420963e+05
  -1.163722e+06  -3.040615e+06
   8.657021e+05  -3.528578e+06
   2.775385e+06  -1.686735e+06
   3.464792e+06   9.158296e+05
   2.626745e+06   2.554560e+06
   6.849643e+05   2.612521e+06
  -1.152443e+06   1.508664e+06
  -1.543388e+06   2.829380e+05
  -4.793085e+05  -1.396080e+04
   3.985628e+05   7.000674e+05
  -2.750431e+05   1.279678e+06
  -1.727114e+06   6.746370e+05
  -1.983256e+06  -6.567201e+05
  -4.993326e+05  -1.288692e+06
   1.076754e+06  -6.510325e+05
   9.496197e+05   3.740778e+05
  -7.416094e+05   6.569576e+05
  -2.210854e+06  -4.453605e+04
  -1.926542e+06  -1.194011e+06
   3.442837e+04  -2.023526e+06
   2.141593e+06  -1.830275e+06
   2.683099e+06  -4.676540e+05
   1.250097e+06   1.111270e+06
  -7.673944e+05   1.453743e+06
  -1.429507e+06   2.675157e+05
  -2.267250e+05  -9.968658e+05
   1.406589e+06  -7.968045e+05
   1.719036e+06   6.138062e+05
   4.931158e+05   1.570109e+06
  -9.436393e+05   1.077144e+06
  -1.255790e+06  -1.464413e+05
  -3.437706e+05  -7.167088e+05
   7.318860e+05  -1.171931e+05
   7.661236e+05   9.617153e+05
  -4.812835e+05   1.405088e+06
  -1.914714e+06   6.327185e+05
  -2.026529e+06  -8.973835e+05
  -5.035487e+05  -1.974102e+06
   1.266155e+06  -1.681699e+06
   1.648494e+06  -3.373203e+05
   5.667877e+05   7.968475e+05
  -5.734729e+05   8.374098e+05
  -6.447819e+05   1.115612e+05
   6.079426e+04  -4.200434e+05
   5.121687e+05  -3.001648e+05
   2.254510e+05   7.091066e+04
  -3.850011e+05   4.207463e+04
  -5.744864e+05  -5.451610e+05
   7.220496e+04  -1.149865e+06
   1.261759e+06  -9.709287e+05
   2.043193e+06   2.565640e+05
   1.541632e+06   1.784912e+06
  -5.564388e+04   2.375521e+06
  -1.484228e+06   1.520532e+06
  -1.694116e+06   2.251346e+04
  -9.604467e+05  -8.576570e+05
  -3.725893e+05  -7.187681e+05
  -4.215308e+05  -2.485501e+05
  -5.609310e+05  -2.386950e+05
  -1.276353e+05  -6.906211e+05
   7.691750e+05  -9.421323e+05
   1.396063e+06  -4.455570e+05
   1.114653e+06   6.438628e+05
  -1.148268e+05   1.488134e+06
  -1.607145e+06   1.193296e+06
  -2.236271e+06  -3.119440e+05
  -1.269521e+06  -1.954116e+06
   7.759636e+05  -2.357658e+06
   2.362561e+06  -1.202114e+06
   2.350542e+06   4.326117e+05
   1.092222e+06   1.235214e+06
  -9.644478e+04   9.976970e+05
  -3.915274e+05   5.821646e+05
  -1.134047e+05   7.292222e+05
  -5.920200e+04   1.222653e+06
  -5.538381e+05   1.253814e+06
  -1.208428e+06   3.790984e+05
  -1.355406e+06  -9.688281e+05
  -6.551174e+05  -1.807776e+06
   5.197946e+05  -1.435932e+06
   1.254540e+06  -9.126822e+04
   8.862640e+05   1.169021e+06
  -2.486700e+05   1.376371e+06
  -1.055249e+06   5.169906e+05
  -8.262465e+05  -5.500408e+05
  -1.146925e+03  -1.010121e+06
   4.052812e+05  -8.028254e+05
   2.943162e+04  -4.358767e+05
  -4.299846e+05  -3.123439e+05
  -7.490086e+04  -3.739909e+05
   1.078811e+06  -2.862471e+05
   1.992585e+06   1.762509e+05
   1.636524e+06   8.802088e+05
   9.536869e+04   1.365713e+06
  -1.423035e+06   1.196446e+06
  -1.744070e+06   4.162804e+05
  -8.562375e+05  -3.734787e+05
   1.957565e+05  -5.445151e+05
   4.804002e+05  -8.728812e+04
   4.072640e+04   3.750516e+05
  -4.302497e+05   2.696138e+05
  -4.832010e+05  -3.022988e+05
  -2.542582e+05  -6.965238e+05
  -8.828587e+04  -4.616762e+05
  -1.315978e+05   1.269275e+05
  -2.816808e+05   3.345357e+05
  -2.898510e+05  -2.031753e+05
   9.204053e+04  -9.798607e+05
   8.025901e+05  -1.086879e+06
   1.267909e+06  -2.342270e+05
   8.435802e+05   8.344176e+05
  -3.294575e+05   1.099362e+06
  -1.175101e+06   3.739397e+05
  -7.441599e+05  -5.212811e+05
   6.316069e+05  -6.828124e+05
   1.566808e+06  -2.860085e+04
   1.081535e+06   7.660982e+05
  -3.727060e+05   1.023242e+06
  -1.437780e+06   6.119234e+05
  -1.244718e+06  -8.094379e+04
  -1.817388e+05  -5.005533e+05
   6.112862e+05  -3.206870e+05
   3.823817e+05   2.505549e+05
  -5.511749e+05   5.300424e+05
  -1.153779e+06  -2.642690e+04
  -7.007679e+05  -1.118718e+06
   4.980350e+05  -1.684153e+06
   1.404498e+06  -9.375528e+05
   1.271973e+06   6.693268e+05
   3.089159e+05   1.742399e+06
  -6.404135e+05   1.327854e+06
  -9.212806e+05  -9.369264e+04
  -5.181383e+05  -1.134300e+06
   1.275340e+05  -9.759504e+05
   5.366003e+05  -1.294138e+05
   4.975313e+05   3.435373e+05
   1.881135e+05   1.308747e+05
   3.418742e+04  -1.026490e+05
   2.652029e+05   2.558587e+05
   5.503151e+05   9.049012e+05
   2.791720e+05   1.046767e+06
  -6.464730e+05   4.374817e+05
  -1.475039e+06  -3.596331e+05
  -1.326288e+06  -7.355246e+05
  -2.288964e+05  -6.660674e+05
   8.241412e+05  -4.622667e+05
   9.567462e+05  -2.485648e+05
   3.416372e+05   1.712195e+04
  -1.342525e+05   2.277506e+05
  -2.032768e+03   2.137291e+05
   2.854506e+05   8.732725e+04
   5.019042e+04   1.275815e+05
  -6.523287e+05   2.648892e+05
  -1.020208e+06   5.135998e+04
  -4.389472e+05  -6.427851e+05
   7.628554e+05  -1.192409e+06
   1.596402e+06  -8.364714e+05
   1.382050e+06   3.380440e+05
   3.533089e+05   1.357878e+06
  -6.533593e+05   1.387793e+06
  -9.883129e+05   5.823362e+05
  -6.573918e+05  -1.938082e+05
  -1.467285e+05  -3.403745e+05
   7.892559e+04  -5.814019e+04
  -7.328009e+04   3.399038e+04
  -3.261300e+05  -3.346863e+05
  -3.015682e+05  -7.735771e+05
   1.332980e+05  -6.714769e+05
   6.757317e+05   8.388690e+04
   7.748656e+05   8.895673e+05
   1.651227e+05   9.963879e+05
  -7.263947e+05   2.774255e+05
  -1.052835e+06  -6.467525e+05
  -4.039434e+05  -1.038699e+06
   6.520389e+05  -6.986499e+05
   1.089677e+06   1.192553e+03
   5.529494e+05   5.518726e+05
  -2.324707e+05   6.687622e+05
  -3.340190e+05   3.827982e+05
   2.539259e+05  -1.686335e+03
   6.344898e+05  -7.971299e+04
   1.598088e+05   2.880563e+05
  -7.607131e+05   7.197314e+05
  -1.183950e+06   6.217872e+05
  -7.450543e+05  -1.115097e+05
   3.632327e+04  -8.503336e+05
   4.707540e+05  -8.691196e+05
   3.920527e+05  -1.794661e+05
   7.815151e+04   4.682200e+05
  -2.055492e+05   4.347636e+05
  -3.531776e+05  -1.299154e+05
  -2.855268e+05  -5.466089e+05
   2.414317e+04  -4.112676e+05
   3.838089e+05   2.135111e+04
   4.806648e+05   2.344779e+05
   2.438508e+05   7.155810e+04
  -3.967669e+04  -1.359453e+05
  -8.544439e+04  -2.076576e+04
   2.145253e+04   3.488887e+05
  -2.898089e+04   5.275185e+05
  -3.003425e+05   2.168475e+05
  -4.591608e+05  -3.486525e+05
  -1.804011e+05  -6.209326e+05
   3.811225e+05  -3.297807e+05
   6.607556e+05   2.325772e+05
   2.819537e+05   5.454882e+05
  -4.674751e+05   3.906168e+05
  -8.609345e+05  -1.651824e+04
  -4.908925e+05  -3.357176e+05
   2.584343e+05  -4.042689e+05
   6.047487e+05  -2.587078e+05
   2.361892e+05  -3.463881e+04
  -3.417953e+05   8.220458e+04
  -4.046076e+05  -4.432148e+04
   1.526031e+05  -3.004560e+05
   7.194083e+05  -3.139881e+05
