
 $NMID
 id='ANONYMOUS ', fmtdat='(2E16.6)'
 volume=1.0
 tramp=1.0
 $END
   4.421382e+07   1.591752e+06
   2.599826e+07   2.707245e+07
  -5.906374e+06   2.923623e+07
  -2.144592e+07   1.196212e+07
  -1.314745e+07  -4.548312e+06
   2.183124e+06  -7.269611e+06
   7.802515e+06   2.901559e+05
   2.745178e+06   7.537385e+06
  -4.500320e+06   7.997640e+06
  -7.678110e+06   2.036901e+06
  -5.657788e+06  -5.186902e+06
  -5.139351e+05  -7.247021e+06
   3.433893e+06  -2.033889e+06
   2.255365e+06   4.952442e+06
  -2.977738e+06   5.762436e+06
  -6.336224e+06  -8.855476e+05
  -3.603870e+06  -8.222349e+06
   3.075190e+06  -9.472450e+06
   8.187484e+06  -4.489229e+06
   8.484151e+06   2.085581e+06
   4.718744e+06   6.167186e+06
   3.795421e+04   6.491048e+06
  -2.123003e+06   4.233869e+06
  -6.341895e+05   2.176309e+06
   1.509021e+06   2.510409e+06
  -6.370202e+04   4.117833e+06
  -5.229504e+06   3.572590e+06
  -8.479830e+06  -1.544707e+05
  -5.677775e+06  -3.865181e+06
   4.178307e+05  -4.220248e+06
   3.708094e+06  -1.749671e+06
   2.129780e+06   6.540020e+05
  -1.168840e+06   1.340722e+06
  -2.759982e+06   3.283623e+05
  -2.065854e+06  -1.890216e+06
  -1.170383e+05  -3.805052e+06
   1.838692e+06  -2.985688e+06
   2.329683e+06   6.211797e+05
   8.153727e+05   3.024343e+06
  -7.759182e+05   9.882348e+05
   6.145254e+03  -2.617921e+06
   2.215335e+06  -2.121176e+06
   2.054849e+06   2.504827e+06
  -1.674035e+06   4.800767e+06
  -5.067167e+06   7.316003e+05
  -3.765632e+06  -5.412167e+06
   1.529970e+06  -6.578407e+06
   5.958601e+06  -1.758732e+06
   5.857674e+06   3.722450e+06
   1.768165e+06   5.111215e+06
  -2.895547e+06   2.484931e+06
  -4.657143e+06  -1.084455e+06
  -2.325638e+06  -2.848536e+06
   1.820004e+06  -1.860437e+06
   3.692285e+06   6.728326e+05
   1.660249e+06   2.140938e+06
  -1.374424e+06   1.098862e+06
  -1.583661e+06  -8.306858e+05
   7.936478e+05  -9.246317e+05
   1.975953e+06   9.807648e+05
  -1.142597e+05   2.372245e+06
  -3.283404e+06   1.497188e+06
  -4.151855e+06  -8.487579e+05
  -1.918093e+06  -3.075727e+06
   1.699180e+06  -4.364389e+06
   4.610120e+06  -3.982818e+06
   5.401723e+06  -1.184879e+06
   3.647222e+06   2.954722e+06
   5.586388e+05   5.329411e+06
  -1.484807e+06   4.136149e+06
  -1.302827e+06   1.353620e+06
  -3.015622e+05   2.245569e+05
  -5.296858e+05   1.058690e+06
  -1.945007e+06   1.357532e+06
  -2.701756e+06  -2.595509e+05
  -1.702609e+06  -2.182547e+06
   2.733719e+05  -2.174386e+06
   1.722223e+06  -1.281725e+05
   1.641314e+06   2.124213e+06
  -1.282658e+05   2.769540e+06
  -2.608274e+06   1.295754e+06
  -3.826074e+06  -1.345281e+06
  -2.500946e+06  -3.344893e+06
   2.297043e+05  -3.429460e+06
   1.893813e+06  -2.081405e+06
   1.740586e+06  -9.228625e+05
   1.508425e+06  -7.022826e+05
   2.635882e+06  -5.284747e+05
   3.949891e+06   6.504148e+05
   3.187006e+06   2.528186e+06
   1.027718e+05   3.820386e+06
  -3.060101e+06   3.585252e+06
  -3.996675e+06   1.820925e+06
  -2.446392e+06  -5.952234e+05
  -5.281096e+04  -2.159033e+06
   1.196287e+06  -1.721166e+06
   5.127956e+05   1.041899e+05
  -1.084608e+06   1.182491e+06
  -1.738609e+06   3.215143e+05
  -7.557268e+05  -1.112625e+06
   5.522725e+05  -1.045105e+06
   4.998805e+05   3.352891e+05
  -8.118010e+05   7.864380e+05
  -1.664156e+06  -8.305598e+05
  -8.691735e+05  -2.943378e+06
   1.039963e+06  -3.269501e+06
   2.716176e+06  -1.418606e+06
   3.241511e+06   1.089263e+06
   2.370846e+06   2.616909e+06
   4.947462e+05   2.566451e+06
  -1.225346e+06   1.380330e+06
  -1.520038e+06   1.621003e+05
  -4.619401e+05  -4.890008e+04
   3.315388e+05   7.035796e+05
  -3.656994e+05   1.202720e+06
  -1.710831e+06   5.064958e+05
  -1.847018e+06  -7.823646e+05
  -3.779368e+05  -1.267565e+06
   1.079778e+06  -5.446453e+05
   8.892076e+05   4.190397e+05
  -7.427776e+05   5.758390e+05
  -2.111510e+06  -1.838539e+05
  -1.779347e+06  -1.266044e+06
   1.587647e+05  -1.941628e+06
   2.187483e+06  -1.615121e+06
   2.619497e+06  -2.571186e+05
   1.116139e+06   1.163307e+06
  -8.570268e+05   1.335620e+06
  -1.396186e+06   1.379641e+05
  -1.347603e+05  -9.820048e+05
   1.417088e+06  -6.597028e+05
   1.606013e+06   7.159685e+05
   3.622435e+05   1.537880e+06
  -9.732380e+05   9.631836e+05
  -1.185922e+06  -2.245449e+05
  -2.774900e+05  -7.024721e+05
   7.084750e+05  -5.099504e+04
   6.624951e+05   9.873656e+05
  -5.736582e+05   1.321037e+06
  -1.899392e+06   4.659389e+05
  -1.889090e+06  -1.020571e+06
  -3.363210e+05  -1.941181e+06
   1.344837e+06  -1.523175e+06
   1.609504e+06  -2.032254e+05
   4.871070e+05   8.036748e+05
  -6.101244e+05   7.630830e+05
  -6.326687e+05   6.696929e+04
   7.546048e+04  -3.982768e+05
   5.068324e+05  -2.654969e+05
   2.225713e+05   6.621567e+04
  -3.535198e+05   7.504258e+03
  -5.015774e+05  -5.578343e+05
   1.544290e+05  -1.092960e+06
   1.285647e+06  -8.397274e+05
   1.949996e+06   3.993547e+05
   1.353274e+06   1.837449e+06
  -2.272109e+05   2.289468e+06
  -1.535716e+06   1.362733e+06
  -1.632754e+06  -9.096959e+04
  -8.783469e+05  -8.873664e+05
  -3.306706e+05  -7.249546e+05
  -3.979982e+05  -2.880048e+05
  -5.133358e+05  -2.844357e+05
  -6.179446e+04  -6.752304e+05
   8.085880e+05  -8.488487e+05
   1.374472e+06  -3.315529e+05
   1.034537e+06   6.954114e+05
  -2.073411e+05   1.425532e+06
  -1.631840e+06   1.036651e+06
  -2.134311e+06  -4.612818e+05
  -1.080280e+06  -1.971753e+06
   9.202952e+05  -2.206094e+06
   2.357738e+06  -9.796477e+05
   2.226246e+06   5.813416e+05
   9.681158e+05   1.255840e+06
  -1.495272e+05   9.517548e+05
  -4.116157e+05   5.474883e+05
  -1.716368e+05   7.129023e+05
  -1.619798e+05   1.180514e+06
  -6.345469e+05   1.162941e+06
  -1.195000e+06   2.696407e+05
  -1.236619e+06  -1.038582e+06
  -4.986618e+05  -1.795038e+06
   6.084649e+05  -1.349066e+06
   1.215424e+06   2.701729e+03
   7.644418e+05   1.188578e+06
  -3.395753e+05   1.300754e+06
  -1.042449e+06   4.143295e+05
  -7.400592e+05  -5.875583e+05
   7.878166e+04  -9.605524e+05
   4.435865e+05  -7.312359e+05
   5.271017e+04  -4.147452e+05
  -3.943257e+05  -3.373914e+05
  -4.523655e+04  -3.690877e+05
   1.059174e+06  -1.920448e+05
   1.905020e+06   3.239554e+05
   1.509345e+06   9.692943e+05
  -1.286905e+04   1.313897e+06
  -1.461464e+06   1.037819e+06
  -1.706276e+06   2.713007e+05
  -7.880559e+05  -4.162881e+05
   2.332037e+05  -5.044968e+05
   4.643257e+05  -4.719214e+04
   3.213493e+03   3.665728e+05
  -4.390362e+05   2.318978e+05
  -4.441825e+05  -3.292125e+05
  -1.934955e+05  -7.013405e+05
  -4.882176e+04  -4.608766e+05
  -1.309246e+05   1.160199e+05
  -2.917717e+05   3.113421e+05
  -2.642941e+05  -2.161406e+05
   1.604034e+05  -9.450257e+05
   8.574192e+05  -9.886945e+05
   1.243990e+06  -1.192920e+05
   7.493231e+05   8.789855e+05
  -4.080825e+05   1.034267e+06
  -1.169116e+06   2.649899e+05
  -6.825606e+05  -5.609824e+05
   6.577779e+05  -6.110934e+05
   1.511563e+06   8.229225e+04
   9.897158e+05   8.069366e+05
  -4.249003e+05   9.545634e+05
  -1.421769e+06   4.917692e+05
  -1.192186e+06  -1.594928e+05
  -1.423828e+05  -4.928202e+05
   6.090875e+05  -2.649938e+05
   3.467466e+05   2.720200e+05
  -5.774074e+05   4.737526e+05
  -1.118884e+06  -1.141048e+05
  -5.948751e+05  -1.141936e+06
   6.124150e+05  -1.598868e+06
   1.434120e+06  -8.048466e+05
   1.183262e+06   7.421797e+05
   1.721399e+05   1.708662e+06
  -7.116298e+05   1.238111e+06
  -8.783274e+05  -1.544614e+05
  -4.187664e+05  -1.127840e+06
   1.878283e+05  -9.275240e+05
   5.239159e+05  -8.442584e+04
   4.587778e+05   3.633541e+05
   1.762722e+05   1.347267e+05
   3.770619e+04  -9.501812e+04
   2.300457e+05   2.740603e+05
   4.624627e+05   9.174301e+05
   1.972481e+05   1.024920e+06
  -6.522898e+05   3.673046e+05
  -1.399907e+06  -4.543758e+05
  -1.230479e+06  -8.008840e+05
  -1.711880e+05  -6.591739e+05
   8.334543e+05  -3.923904e+05
   9.414238e+05  -1.732818e+05
   3.233901e+05   4.556341e+04
  -1.479334e+05   2.125373e+05
  -1.129769e+04   2.004958e+05
   2.764862e+05   9.918441e+04
   3.837109e+04   1.303055e+05
  -6.563476e+05   2.153243e+05
  -9.923602e+05  -2.756055e+04
  -3.715884e+05  -6.651255e+05
   8.332497e+05  -1.102629e+06
   1.609737e+06  -6.836287e+05
   1.312814e+06   4.405037e+05
   2.415472e+05   1.343174e+06
  -7.366298e+05   1.290947e+06
  -1.004411e+06   4.879494e+05
  -6.262256e+05  -2.366538e+05
  -1.152734e+05  -3.434240e+05
   8.766556e+04  -5.546239e+04
  -6.724722e+04   2.678333e+04
  -2.895345e+05  -3.434297e+05
  -2.353833e+05  -7.673553e+05
   1.808993e+05  -6.405316e+05
   6.531230e+05   1.315893e+05
   6.871272e+05   9.243666e+05
   8.209507e+04   9.843327e+05
  -7.322495e+05   2.165834e+05
  -9.766571e+05  -7.086983e+05
  -3.116393e+05  -1.039813e+06
   6.887749e+05  -6.268932e+05
   1.055151e+06   8.656684e+04
   4.873815e+05   5.775580e+05
  -2.812851e+05   6.268692e+05
  -3.510623e+05   3.387836e+05
   2.508696e+05   1.135686e+04
   6.216260e+05  -3.138200e+04
   1.311247e+05   2.925114e+05
  -7.885074e+05   6.402584e+05
  -1.184561e+06   5.097465e+05
  -7.049619e+05  -1.680631e+05
   1.011539e+05  -8.197525e+05
   5.207503e+05  -7.991482e+05
   3.952788e+05  -1.360875e+05
   4.239824e+04   4.634857e+05
  -2.353701e+05   4.054721e+05
  -3.383226e+05  -1.536918e+05
  -2.355909e+05  -5.512550e+05
   6.005940e+04  -3.959285e+05
   3.724187e+05   5.037322e+04
   4.427462e+05   2.632781e+05
   2.268619e+05   8.611032e+04
  -2.242698e+04  -1.359156e+05
  -7.122121e+04  -2.310933e+04
  -4.189149e+03   3.490737e+05
  -7.814352e+04   5.180965e+05
  -3.193024e+05   1.875514e+05
  -4.229569e+05  -3.822496e+05
  -1.256187e+05  -6.256330e+05
   3.975785e+05  -2.929087e+05
   6.249325e+05   2.798475e+05
   2.336724e+05   5.530289e+05
  -4.818602e+05   3.411195e+05
  -8.336123e+05  -8.471692e+04
  -4.496776e+05  -3.633872e+05
   2.848511e+05  -3.704689e+05
   6.097113e+05  -2.018001e+05
   2.305472e+05  -1.081129e+04
  -3.442328e+05   5.917851e+04
  -3.961642e+05  -7.270812e+04
   1.678543e+05  -2.864255e+05
   7.231555e+05  -2.594114e+05
