
 $NMID
 id='ANONYMOUS ', fmtdat='(2E16.6)'
 volume=1.0
 tramp=1.0
 $END
  -1.623802e+07   3.168409e+04
  -1.074409e+07  -8.186222e+06
   4.230569e+05  -1.053911e+07
   7.324106e+06  -6.334404e+06
   5.781443e+06  -6.992833e+04
   8.791210e+04   2.939669e+06
  -3.283466e+06   1.082003e+06
  -2.161773e+06  -2.723117e+06
   1.042366e+06  -4.170653e+06
   3.058799e+06  -1.713456e+06
   2.515191e+06   2.068244e+06
   2.867083e+05   3.241022e+06
  -1.492562e+06   7.183043e+05
  -1.122288e+06  -2.601885e+06
   1.032722e+06  -3.061582e+06
   2.677318e+06  -1.615631e+05
   1.886562e+06   3.185424e+06
  -8.244969e+05   3.958058e+06
  -3.087188e+06   1.893608e+06
  -3.156401e+06  -8.694404e+05
  -1.463341e+06  -2.241819e+06
   1.183667e+05  -1.925707e+06
   2.001467e+05  -1.159709e+06
  -8.254882e+05  -1.199996e+06
  -1.185992e+06  -2.032526e+06
   3.848475e+05  -2.450899e+06
   2.970208e+06  -1.448907e+06
   4.069816e+06   5.242110e+05
   2.317365e+06   1.921062e+06
  -7.262344e+05   1.695428e+06
  -2.132083e+06   2.857331e+05
  -8.347852e+05  -9.685639e+05
   1.375667e+06  -1.042834e+06
   2.133856e+06   1.136440e+05
   1.026105e+06   1.605257e+06
  -4.846804e+05   2.122956e+06
  -1.009911e+06   1.038555e+06
  -4.903168e+05  -6.665755e+05
   1.984418e+05  -1.118246e+06
   2.595084e+05   2.493507e+05
  -4.070198e+05   1.697053e+06
  -1.151189e+06   1.190664e+06
  -1.068949e+06  -8.708058e+05
   9.105390e+04  -1.961902e+06
   1.397440e+06  -6.081062e+05
   1.434029e+06   1.719495e+06
  -2.080734e+05   2.420697e+06
  -2.252397e+06   7.893230e+05
  -2.804690e+06  -1.474592e+06
  -1.198527e+06  -2.367177e+06
   1.260713e+06  -1.456127e+06
   2.463632e+06   1.874623e+05
   1.488441e+06   1.207095e+06
  -5.357828e+05   9.842568e+05
  -1.604952e+06  -3.195304e+04
  -8.930361e+05  -7.613813e+05
   4.937501e+05  -5.086171e+05
   8.866087e+05   3.227350e+05
  -2.991037e+04   7.059735e+05
  -9.613178e+05   1.880064e+05
  -6.200992e+05  -6.378869e+05
   7.520864e+05  -8.610988e+05
   1.668597e+06  -1.612175e+05
   1.021114e+06   1.031608e+06
  -8.016341e+05   1.913057e+06
  -2.358390e+06   1.743337e+06
  -2.530739e+06   3.538628e+05
  -1.438937e+06  -1.476994e+06
  -1.368235e+05  -2.473853e+06
   4.816462e+05  -2.081796e+06
   4.463339e+05  -1.063774e+06
   4.359468e+05  -5.345307e+05
   8.724243e+05  -5.830418e+05
   1.431524e+06  -3.386650e+05
   1.449303e+06   6.257034e+05
   6.677883e+05   1.527133e+06
  -4.795554e+05   1.296894e+06
  -1.204559e+06  -5.764242e+04
  -9.442524e+05  -1.375378e+06
   1.950284e+05  -1.534416e+06
   1.404299e+06  -4.830347e+05
   1.735422e+06   8.673766e+05
   9.594545e+05   1.557167e+06
  -1.639727e+05   1.356188e+06
  -6.979037e+05   7.867104e+05
  -5.923075e+05   4.795266e+05
  -6.546555e+05   5.172306e+05
  -1.375302e+06   4.186091e+05
  -2.106783e+06  -2.481229e+05
  -1.734342e+06  -1.311562e+06
  -7.295144e+04  -2.081156e+06
   1.723180e+06  -1.934588e+06
   2.258481e+06  -8.504657e+05
   1.269806e+06   5.049944e+05
  -1.798890e+05   1.210383e+06
  -7.952178e+05   8.298197e+05
  -2.512844e+05  -1.207669e+05
   6.486173e+05  -6.024597e+05
   9.028471e+05  -1.516434e+05
   3.246150e+05   5.675947e+05
  -3.677263e+05   5.673399e+05
  -3.873331e+05  -1.804685e+05
   2.956751e+05  -6.290556e+05
   9.618234e+05   5.340257e+04
   8.601843e+05   1.384354e+06
  -1.243624e+05   2.030557e+06
  -1.382737e+06   1.252195e+06
  -2.032611e+06  -3.575098e+05
  -1.574277e+06  -1.539667e+06
  -3.314662e+05  -1.568078e+06
   7.375100e+05  -7.678366e+05
   8.713361e+05  -3.722145e+04
   2.553991e+05   2.947330e+04
  -1.861610e+05  -3.849614e+05
   1.536565e+05  -6.208077e+05
   8.542560e+05  -2.816455e+05
   9.850320e+05   3.479512e+05
   2.573268e+05   6.414748e+05
  -5.764868e+05   3.277786e+05
  -5.586244e+05  -2.319357e+05
   3.768337e+05  -4.359855e+05
   1.280406e+06  -2.128578e+04
   1.155046e+06   7.232173e+05
  -1.872663e+04   1.202134e+06
  -1.243328e+06   9.793198e+05
  -1.472072e+06   1.630581e+05
  -6.110318e+05  -6.022208e+05
   4.351950e+05  -6.730080e+05
   6.897366e+05  -6.774334e+04
   3.627901e+04   4.931449e+05
  -7.638551e+05   3.477037e+05
  -8.974346e+05  -3.601960e+05
  -2.706959e+05  -8.506697e+05
   4.889095e+05  -6.121686e+05
   6.891709e+05   3.921682e+04
   2.230548e+05   3.678368e+05
  -3.493477e+05   4.768945e+04
  -3.459822e+05  -5.301882e+05
   3.365636e+05  -7.102807e+05
   1.051389e+06  -2.243181e+05
   1.022893e+06   5.790600e+05
   1.817970e+05   1.058917e+06
  -7.167681e+05   8.405028e+05
  -8.810187e+05   1.401206e+05
  -3.005080e+05  -4.327013e+05
   3.240283e+05  -4.427912e+05
   3.909426e+05  -2.627497e+04
  -1.730909e+04   2.996694e+05
  -3.516306e+05   2.150668e+05
  -2.416840e+05  -7.470899e+04
   1.479976e+05  -1.179097e+05
   3.257671e+05   2.289036e+05
  -2.332342e+04   5.981407e+05
  -6.916385e+05   4.829868e+05
  -1.078725e+06  -2.120259e+05
  -7.411676e+05  -1.013497e+06
   1.351506e+05  -1.284442e+06
   8.730807e+05  -8.072772e+05
   9.692832e+05   1.850113e+04
   5.638903e+05   5.594366e+05
   1.904649e+05   5.362016e+05
   1.414106e+05   2.309731e+05
   2.074666e+05   1.173231e+05
   2.884146e+04   3.197749e+05
  -4.260047e+05   4.883148e+05
  -7.862073e+05   2.235516e+05
  -6.317246e+05  -4.117705e+05
   8.805765e+04  -8.657689e+05
   9.234225e+05  -6.214133e+05
   1.215209e+06   2.506813e+05
   6.386601e+05   1.089940e+06
  -4.522069e+05   1.227844e+06
  -1.270776e+06   5.915960e+05
  -1.277556e+06  -2.637311e+05
  -6.312600e+05  -7.104953e+05
   4.516622e+04  -6.174248e+05
   2.983107e+05  -3.700993e+05
   2.008537e+05  -3.711546e+05
   1.358543e+05  -5.830688e+05
   3.309860e+05  -5.978051e+05
   6.290305e+05  -1.347165e+05
   6.667525e+05   5.859097e+05
   2.613848e+05   1.002459e+06
  -3.527734e+05   7.464218e+05
  -6.845778e+05   7.060794e+03
  -4.444031e+05  -6.345904e+05
   1.412442e+05  -7.241048e+05
   5.306171e+05  -2.960088e+05
   4.158444e+05   2.350539e+05
   2.497281e+04   4.910454e+05
  -1.693262e+05   4.280724e+05
  -2.363205e+03   2.680920e+05
   2.000241e+05   2.048069e+05
   1.264851e+04   2.113267e+05
  -5.624883e+05   1.179356e+05
  -1.020269e+06  -1.638420e+05
  -8.389399e+05  -5.156224e+05
  -4.393760e+04  -6.993024e+05
   7.541795e+05  -5.632538e+05
   9.332630e+05  -1.848661e+05
   4.650921e+05   1.696417e+05
  -1.000874e+05   2.520262e+05
  -2.442145e+05   5.473134e+04
   1.451047e+04  -1.604196e+05
   2.651443e+05  -1.114746e+05
   2.369195e+05   1.854565e+05
   5.182996e+04   3.979269e+05
  -2.268554e+04   2.530168e+05
   8.411934e+04  -9.759565e+04
   2.085333e+05  -2.090384e+05
   1.564993e+05   1.171416e+05
  -1.210536e+05   5.383675e+05
  -4.778331e+05   5.365028e+05
  -6.286969e+05   3.528089e+04
  -3.529041e+05  -4.861177e+05
   2.257413e+05  -5.259804e+05
   6.106106e+05  -9.732940e+04
   3.662424e+05   3.311393e+05
  -3.577375e+05   3.491555e+05
  -8.684688e+05  -2.795449e+04
  -6.172978e+05  -4.509954e+05
   1.979682e+05  -5.798068e+05
   8.198046e+05  -3.372225e+05
   7.161989e+05   6.387474e+04
   1.016708e+05   2.918042e+05
  -3.388336e+05   1.702920e+05
  -1.780062e+05  -1.351492e+05
   3.450976e+05  -2.322714e+05
   6.125621e+05   1.085799e+05
   2.742550e+05   6.540136e+05
  -4.057515e+05   8.595964e+05
  -8.282646e+05   3.989792e+05
  -6.496433e+05  -4.440778e+05
  -7.286467e+04  -9.690001e+05
   4.142288e+05  -7.151983e+05
   5.059553e+05   6.315403e+04
   2.605149e+05   6.369776e+05
  -7.370181e+04   5.502623e+05
  -2.847953e+05   6.367134e+04
  -2.848990e+05  -2.198561e+05
  -1.308398e+05  -9.368907e+04
  -1.030499e+04   6.598521e+04
  -8.084022e+04  -1.239276e+05
  -2.349657e+05  -5.055870e+05
  -1.432544e+05  -5.917280e+05
   3.223212e+05  -2.163476e+05
   7.892800e+05   2.694612e+05
   7.242217e+05   4.664864e+05
   9.676965e+04   3.638958e+05
  -5.055971e+05   2.031992e+05
  -5.453322e+05   1.001734e+05
  -1.549969e+05  -2.932490e+03
   9.812842e+04  -1.119334e+05
  -2.962446e+04  -1.395379e+05
  -1.941230e+05  -8.919806e+04
  -2.445971e+03  -7.342845e+04
   4.145344e+05  -8.858725e+04
   5.471868e+05   4.026565e+04
   1.359845e+05   3.592524e+05
  -5.178989e+05   5.726580e+05
  -8.741154e+05   3.331663e+05
  -6.695462e+05  -2.803634e+05
  -9.813762e+04  -7.589291e+05
   4.152370e+05  -6.985660e+05
   5.623690e+05  -2.290898e+05
   3.491135e+05   1.663711e+05
   4.083962e+04   1.897795e+05
  -8.346581e+04  -1.892211e+03
   2.846096e+04  -4.576925e+04
   1.794039e+05   1.858360e+05
   1.383975e+05   4.344315e+05
  -1.176373e+05   3.444390e+05
  -3.667348e+05  -1.136439e+05
  -3.396718e+05  -5.510790e+05
   1.566762e+04  -5.387700e+05
   4.313886e+05  -6.482730e+04
   5.144390e+05   4.467479e+05
   1.303488e+05   5.787087e+05
  -3.963271e+05   3.069335e+05
  -5.649127e+05  -7.392768e+04
  -2.434410e+05  -2.978847e+05
   1.581591e+05  -3.079195e+05
   1.657245e+05  -1.798048e+05
  -1.750538e+05  -3.065511e+04
  -3.563472e+05  -2.586983e+01
  -5.659451e+04  -1.559904e+05
   4.508882e+05  -3.501504e+05
   6.411759e+05  -2.992419e+05
   3.577045e+05   6.947004e+04
  -7.059231e+04   4.402190e+05
  -2.679654e+05   4.271657e+05
  -1.809396e+05   4.801486e+04
   6.329703e+03  -2.717500e+05
   1.419965e+05  -2.007165e+05
   1.831542e+05   1.252976e+05
   1.166155e+05   3.119043e+05
  -4.457492e+04   1.874929e+05
  -2.031003e+05  -4.906033e+04
  -2.342260e+05  -1.288280e+05
  -1.279575e+05  -3.058434e+04
  -2.867059e+03   4.696525e+04
   4.717198e+04  -4.107645e+04
   5.883825e+04  -2.092776e+05
   1.138422e+05  -2.399900e+05
   1.933449e+05  -3.363048e+04
   1.776924e+05   2.542359e+05
  -2.328460e+03   3.472298e+05
  -2.416647e+05   1.366510e+05
  -3.170605e+05  -1.864797e+05
  -1.006568e+05  -3.236253e+05
   2.636671e+05  -1.780004e+05
   4.404432e+05   7.460196e+04
   2.337281e+05   2.099872e+05
  -1.615999e+05   1.755822e+05
  -3.294573e+05   7.119315e+04
  -1.009269e+05   3.912816e+02
   2.264738e+05   6.736394e+03
   2.284775e+05   8.849869e+04
  -1.332020e+05   1.748494e+05
  -4.583754e+05   1.221429e+05
