
 $NMID
 id='ANONYMOUS ', fmtdat='(2E16.6)'
 volume=1.0
 tramp=1.0
 $END
  -4.265627e+07   2.820142e+06
  -2.867703e+07  -2.280728e+07
   1.792123e+06  -2.895019e+07
   1.971063e+07  -1.486039e+07
   1.421143e+07   2.296333e+06
  -8.938226e+05   7.599569e+06
  -8.126135e+06   1.078477e+06
  -4.078888e+06  -7.290051e+06
   3.570501e+06  -9.056886e+06
   7.623708e+06  -3.207323e+06
   6.121369e+06   4.683137e+06
   1.043031e+06   7.291478e+06
  -3.219073e+06   2.171225e+06
  -2.526268e+06  -5.130603e+06
   2.604762e+06  -6.418521e+06
   6.539310e+06   7.134761e+04
   4.514077e+06   7.852101e+06
  -2.049092e+06   9.788599e+06
  -7.584795e+06   5.194063e+06
  -8.323762e+06  -1.308843e+06
  -4.913544e+06  -5.379295e+06
  -6.910713e+05  -5.865835e+06
   1.124020e+06  -4.180537e+06
  -1.708912e+05  -2.777654e+06
  -1.719532e+06  -3.237831e+06
   2.569699e+05  -4.455150e+06
   5.433712e+06  -3.617071e+06
   8.598527e+06   2.194036e+04
   5.757781e+06   3.583024e+06
  -4.405641e+05   3.954903e+06
  -3.761011e+06   1.499274e+06
  -1.872800e+06  -9.337185e+05
   1.814810e+06  -1.432864e+06
   3.285509e+06  -3.186526e+04
   2.039694e+06   2.321535e+06
  -1.198883e+05   3.949601e+06
  -1.688803e+06   2.889886e+06
  -1.900425e+06  -5.399556e+05
  -7.215875e+05  -2.650916e+06
   4.318128e+05  -6.120651e+05
  -2.896884e+05   2.863296e+06
  -2.298588e+06   2.395022e+06
  -2.419724e+06  -2.276206e+06
   8.901037e+05  -5.041237e+06
   4.583849e+06  -1.527905e+06
   4.197786e+06   4.681281e+06
  -6.560552e+05   6.547974e+06
  -5.639800e+06   2.280462e+06
  -6.333681e+06  -3.337403e+06
  -2.350520e+06  -5.246517e+06
   2.854726e+06  -2.932660e+06
   5.122646e+06   7.278212e+05
   2.861886e+06   2.824213e+06
  -1.564326e+06   2.179145e+06
  -3.817447e+06  -2.446621e+05
  -1.982972e+06  -1.958604e+06
   1.231644e+06  -1.239303e+06
   1.784991e+06   7.573753e+05
  -6.139138e+05   1.277227e+06
  -2.308355e+06  -4.681604e+05
  -6.209808e+05  -2.328997e+06
   2.807479e+06  -2.077646e+06
   4.305541e+06   1.704634e+05
   2.358115e+06   2.814105e+06
  -1.462575e+06   4.490348e+06
  -4.606235e+06   4.203576e+06
  -5.413663e+06   1.383642e+06
  -3.697760e+06  -2.800606e+06
  -8.006235e+05  -5.377059e+06
   1.186630e+06  -4.495776e+06
   1.288572e+06  -1.816695e+06
   6.439842e+05  -4.515383e+05
   9.445257e+05  -9.674180e+05
   2.174558e+06  -1.116846e+06
   2.734931e+06   5.228375e+05
   1.605917e+06   2.433421e+06
  -4.844656e+05   2.304402e+06
  -1.975684e+06   1.417115e+04
  -1.785282e+06  -2.392409e+06
   1.440957e+05  -2.953288e+06
   2.677309e+06  -1.328953e+06
   3.880410e+06   1.303657e+06
   2.617026e+06   3.212902e+06
   4.834440e+03   3.346987e+06
  -1.638758e+06   2.183341e+06
  -1.605374e+06   1.154605e+06
  -1.540358e+06   9.483369e+05
  -2.828335e+06   7.519885e+05
  -4.280931e+06  -5.012277e+05
  -3.529384e+06  -2.585021e+06
  -2.335982e+05  -4.115285e+06
   3.222993e+06  -3.918690e+06
   4.255141e+06  -1.958511e+06
   2.544606e+06   6.638949e+05
  -2.989319e+04   2.271412e+06
  -1.288556e+06   1.767886e+06
  -5.075703e+05  -1.251121e+05
   1.153872e+06  -1.251595e+06
   1.814739e+06  -3.966985e+05
   7.987386e+05   1.113012e+06
  -5.979806e+05   1.110708e+06
  -6.150570e+05  -3.812373e+05
   8.202944e+05  -1.044255e+06
   1.980015e+06   6.044312e+05
   1.351333e+06   3.126154e+06
  -8.084852e+05   3.861581e+06
  -2.976591e+06   1.959555e+06
  -3.782635e+06  -1.005134e+06
  -2.784855e+06  -2.914637e+06
  -5.944407e+05  -2.882620e+06
   1.330378e+06  -1.512692e+06
   1.642799e+06  -1.751275e+05
   5.009700e+05   3.966449e+04
  -3.777207e+05  -7.488695e+05
   3.176825e+05  -1.292481e+06
   1.772028e+06  -6.216916e+05
   2.015207e+06   7.252157e+05
   4.914356e+05   1.327952e+06
  -1.143427e+06   6.333975e+05
  -1.007657e+06  -4.539495e+05
   8.123903e+05  -7.267703e+05
   2.406917e+06   1.055505e+05
   2.062358e+06   1.397925e+06
  -1.193667e+05   2.212297e+06
  -2.374367e+06   1.850622e+06
  -2.847740e+06   3.564012e+05
  -1.248150e+06  -1.194421e+06
   8.400263e+05  -1.434002e+06
   1.444132e+06  -2.102172e+05
   1.616595e+05   1.007610e+06
  -1.493458e+06   7.432654e+05
  -1.770610e+06  -7.093610e+05
  -4.794601e+05  -1.672238e+06
   1.015912e+06  -1.132909e+06
   1.332143e+06   1.648613e+05
   3.672597e+05   7.549548e+05
  -7.422424e+05   9.195396e+04
  -7.281610e+05  -1.038796e+06
   5.990745e+05  -1.423794e+06
   2.035876e+06  -5.278926e+05
   2.051358e+06   1.058949e+06
   4.171913e+05   2.079459e+06
  -1.393556e+06   1.691075e+06
  -1.735446e+06   2.878776e+05
  -5.718952e+05  -8.520636e+05
   6.342424e+05  -8.545151e+05
   6.996742e+05  -6.821822e+04
  -8.730536e+04   4.889593e+05
  -6.129852e+05   3.159559e+05
  -3.047623e+05  -1.341679e+05
   3.947185e+05  -1.075726e+05
   6.191349e+05   5.585684e+05
  -9.704897e+04   1.207998e+06
  -1.366708e+06   9.626551e+05
  -2.126575e+06  -3.769196e+05
  -1.510237e+06  -1.950849e+06
   1.956854e+05  -2.493664e+06
   1.656598e+06  -1.544162e+06
   1.823328e+06   5.310466e+04
   1.006454e+06   1.004121e+06
   3.426881e+05   8.649046e+05
   3.673673e+05   3.230607e+05
   5.290897e+05   2.467048e+05
   9.985319e+04   6.980839e+05
  -8.482135e+05   9.646076e+05
  -1.516071e+06   4.140320e+05
  -1.173638e+06  -7.664099e+05
   1.954716e+05  -1.612673e+06
   1.773335e+06  -1.191462e+06
   2.349640e+06   4.530158e+05
   1.247116e+06   2.120220e+06
  -9.058701e+05   2.434972e+06
  -2.520966e+06   1.164690e+06
  -2.472505e+06  -5.471095e+05
  -1.137385e+06  -1.372897e+06
   1.413153e+05  -1.103883e+06
   4.975653e+05  -6.246489e+05
   2.268037e+05  -7.284367e+05
   1.502996e+05  -1.223303e+06
   6.280253e+05  -1.253440e+06
   1.261461e+06  -3.247360e+05
   1.351714e+06   1.093275e+06
   5.750769e+05   1.931227e+06
  -6.329768e+05   1.470846e+06
  -1.325265e+06   3.004102e+04
  -8.789806e+05  -1.259152e+06
   3.053635e+05  -1.434538e+06
   1.109552e+06  -5.320596e+05
   8.490906e+05   5.628530e+05
  -4.723320e+03   1.038590e+06
  -4.213710e+05   8.413400e+05
  -4.072163e+04   4.822001e+05
   4.211224e+05   3.612234e+05
   4.979005e+04   4.009717e+05
  -1.132968e+06   2.516018e+05
  -2.058259e+06  -2.812297e+05
  -1.669337e+06  -9.991858e+05
  -5.929442e+04  -1.421576e+06
   1.518930e+06  -1.171854e+06
   1.843641e+06  -3.639853e+05
   9.001497e+05   4.010086e+05
  -2.131074e+05   5.452608e+05
  -5.032922e+05   8.531983e+04
  -1.777278e+04  -3.674989e+05
   4.774199e+05  -2.483737e+05
   4.850464e+05   3.430703e+05
   1.932082e+05   7.444756e+05
   3.598622e+04   4.815844e+05
   1.568944e+05  -1.472430e+05
   3.499207e+05  -3.528326e+05
   3.006908e+05   2.320509e+05
  -1.743261e+05   1.031146e+06
  -9.047313e+05   1.086859e+06
  -1.301140e+06   1.597226e+05
  -7.978021e+05  -9.151068e+05
   4.013806e+05  -1.103761e+06
   1.223485e+06  -2.996680e+05
   7.421810e+05   5.985627e+05
  -6.954541e+05   6.892382e+05
  -1.665592e+06  -4.639718e+04
  -1.136418e+06  -8.717019e+05
   4.272785e+05  -1.089709e+06
   1.567722e+06  -6.014427e+05
   1.338265e+06   1.433196e+05
   1.756026e+05   5.486977e+05
  -6.606704e+05   3.165217e+05
  -3.780086e+05  -2.722334e+05
   6.202751e+05  -5.020559e+05
   1.197391e+06   1.202247e+05
   6.347190e+05   1.218377e+06
  -6.533650e+05   1.713491e+06
  -1.539024e+06   8.727602e+05
  -1.289456e+06  -7.903282e+05
  -2.127221e+05  -1.854435e+06
   7.590566e+05  -1.373237e+06
   9.749103e+05   1.364254e+05
   4.972039e+05   1.227727e+06
  -1.725028e+05   1.041182e+06
  -5.679704e+05   1.163125e+05
  -5.195179e+05  -4.026996e+05
  -2.082333e+05  -1.628778e+05
  -3.548475e+04   1.150181e+05
  -2.365211e+05  -2.604442e+05
  -5.133056e+05  -9.738138e+05
  -2.543454e+05  -1.129425e+06
   6.772951e+05  -4.345887e+05
   1.532356e+06   4.696090e+05
   1.374145e+06   8.615662e+05
   2.048747e+05   7.102844e+05
  -9.152290e+05   4.265069e+05
  -1.031610e+06   2.084125e+05
  -3.441582e+05  -2.020004e+04
   1.620941e+05  -2.258822e+05
  -6.847308e+03  -2.456465e+05
  -3.167529e+05  -1.337613e+05
  -3.263294e+04  -1.360360e+05
   7.278113e+05  -2.170595e+05
   1.067369e+06   1.831574e+04
   3.810359e+05   6.849112e+05
  -8.961734e+05   1.177530e+06
  -1.702444e+06   7.618092e+05
  -1.389646e+06  -4.471068e+05
  -2.719588e+05  -1.448159e+06
   7.640941e+05  -1.407236e+06
   1.067928e+06  -5.287790e+05
   6.759565e+05   2.625644e+05
   1.197126e+05   3.624989e+05
  -1.051753e+05   3.231591e+04
   7.624178e+04  -5.202080e+04
   3.354964e+05   3.679169e+05
   2.768038e+05   8.334532e+05
  -1.868215e+05   6.869280e+05
  -7.017757e+05  -1.518181e+05
  -7.325474e+05  -9.947242e+05
  -8.043499e+04  -1.042222e+06
   7.866691e+05  -2.135385e+05
   1.045487e+06   7.664886e+05
   3.395248e+05   1.107939e+06
  -7.269569e+05   6.695118e+05
  -1.126883e+06  -7.576814e+04
  -5.340499e+05  -5.925509e+05
   2.786845e+05  -6.627407e+05
   3.523670e+05  -3.796927e+05
  -2.868864e+05  -3.030810e+04
  -6.754384e+05   3.660749e+04
  -1.422993e+05  -3.054018e+05
   8.446579e+05  -7.081124e+05
   1.266288e+06  -5.985740e+05
   7.559617e+05   1.393872e+05
  -9.223269e+04   8.784902e+05
  -5.262516e+05   8.769726e+05
  -3.942025e+05   1.530431e+05
  -3.621862e+04  -5.015416e+05
   2.443131e+05  -4.282969e+05
   3.566105e+05   1.802722e+05
   2.598770e+05   5.911497e+05
  -5.190130e+04   4.084485e+05
  -3.967427e+05  -5.635014e+04
  -4.852599e+05  -2.600351e+05
  -2.547195e+05  -7.761940e+04
   2.700234e+04   1.252776e+05
   9.832870e+04  -6.795648e+03
   3.374657e+04  -3.712200e+05
   9.907527e+04  -5.146703e+05
   3.300713e+05  -1.650536e+05
   4.223163e+05   4.116106e+05
   1.097540e+05   6.540139e+05
  -4.284904e+05   3.065654e+05
  -6.583341e+05  -2.970002e+05
  -2.456806e+05  -5.952871e+05
   5.082374e+05  -3.770498e+05
   8.849811e+05   7.998699e+04
   4.852808e+05   3.825631e+05
  -2.923058e+05   3.901727e+05
  -6.382873e+05   2.132307e+05
  -2.319107e+05   2.277241e+04
   3.809159e+05  -3.890139e+04
   4.221818e+05   9.957216e+04
  -2.030705e+05   3.124325e+05
  -8.048791e+05   2.704235e+05
