
 $NMID
 id='ANONYMOUS ', fmtdat='(2E16.6)'
 volume=1.0
 tramp=1.0
 $END
   1.797145e+07  -1.477325e+06
   1.303148e+07   7.265713e+06
   1.228372e+06   1.147970e+07
  -7.241577e+06   8.594662e+06
  -6.829260e+06   1.537660e+06
  -8.235803e+05  -3.340601e+06
   3.724173e+06  -2.129139e+06
   3.237323e+06   2.767920e+06
  -4.401716e+05   5.359439e+06
  -3.345712e+06   2.676002e+06
  -3.188569e+06  -2.187032e+06
  -6.316459e+05  -3.898251e+06
   1.740049e+06  -8.931411e+05
   1.640329e+06   3.241911e+06
  -8.398577e+05   4.004880e+06
  -3.126312e+06   6.641526e+05
  -2.643952e+06  -3.461729e+06
   4.357062e+05  -4.701172e+06
   3.323234e+06  -2.457700e+06
   3.590040e+06   8.057483e+05
   1.618014e+06   2.392417e+06
  -1.097183e+05   1.888669e+06
   1.630801e+05   1.029907e+06
   1.637334e+06   1.430548e+06
   1.897602e+06   2.770817e+06
  -4.039779e+05   3.312748e+06
  -3.794529e+06   1.960067e+06
  -5.133748e+06  -5.117833e+05
  -2.865928e+06  -2.248861e+06
   1.015038e+06  -2.051474e+06
   2.816051e+06  -3.051065e+05
   1.071904e+06   1.436484e+06
  -1.963182e+06   1.633525e+06
  -3.036945e+06  -3.759928e+04
  -1.465553e+06  -2.215189e+06
   6.454725e+05  -2.840475e+06
   1.244805e+06  -1.209841e+06
   4.072362e+05   9.838694e+05
  -4.326047e+05   1.292563e+06
  -3.339224e+05  -6.140227e+05
   5.184489e+05  -2.362959e+06
   1.361985e+06  -1.660216e+06
   1.420627e+06   8.429914e+05
   3.449138e+05   2.259591e+06
  -1.219156e+06   9.300618e+05
  -1.716114e+06  -1.655274e+06
  -1.343060e+05  -2.678880e+06
   2.474112e+06  -1.114082e+06
   3.595544e+06   1.464345e+06
   1.839931e+06   2.789340e+06
  -1.375917e+06   2.026047e+06
  -3.163909e+06   1.317979e+05
  -2.107663e+06  -1.284810e+06
   4.310888e+05  -1.288254e+06
   1.909073e+06  -2.121036e+05
   1.200604e+06   7.488787e+05
  -5.006632e+05   6.549353e+05
  -1.180769e+06  -2.870929e+05
  -1.898066e+05  -9.758073e+05
   1.149317e+06  -6.043403e+05
   1.093086e+06   4.841857e+05
  -4.941244e+05   1.152176e+06
  -1.889180e+06   5.738486e+05
  -1.377816e+06  -9.966093e+05
   8.395152e+05  -2.368570e+06
   2.861213e+06  -2.303490e+06
   3.104675e+06  -5.561826e+05
   1.781444e+06   1.759864e+06
   3.159704e+05   3.036901e+06
  -3.165973e+05   2.660391e+06
  -3.625891e+05   1.534081e+06
  -6.008956e+05   9.074440e+05
  -1.305502e+06   8.677096e+05
  -1.991739e+06   4.315877e+05
  -1.952151e+06  -8.705970e+05
  -9.189866e+05  -2.065041e+06
   6.289393e+05  -1.784471e+06
   1.677183e+06   3.960069e+03
   1.377998e+06   1.781632e+06
  -1.624425e+05   2.023402e+06
  -1.782106e+06   6.654623e+05
  -2.200217e+06  -1.037060e+06
  -1.216384e+06  -1.848778e+06
   1.289480e+05  -1.576665e+06
   7.202970e+05  -9.333397e+05
   5.872518e+05  -6.504864e+05
   7.310701e+05  -7.751460e+05
   1.717022e+06  -7.157141e+05
   2.733794e+06   9.177278e+04
   2.365233e+06   1.518862e+06
   2.894557e+05   2.692720e+06
  -2.083363e+06   2.661677e+06
  -2.891118e+06   1.256602e+06
  -1.676538e+06  -6.138892e+05
   2.038572e+05  -1.609634e+06
   1.017243e+06  -1.112338e+06
   3.280958e+05   1.609976e+05
  -8.121609e+05   8.261448e+05
  -1.141159e+06   2.657669e+05
  -4.356861e+05  -6.962859e+05
   4.524527e+05  -7.701233e+05
   5.627474e+05   1.941577e+05
  -2.615179e+05   9.134751e+05
  -1.255860e+06   1.741536e+05
  -1.380789e+06  -1.615021e+06
  -2.055839e+05  -2.720816e+06
   1.620069e+06  -1.930942e+06
   2.761286e+06   1.749318e+05
   2.296599e+06   1.885069e+06
   6.041380e+05   2.067176e+06
  -9.132831e+05   1.072496e+06
  -1.145673e+06   1.094174e+05
  -3.352731e+05  -1.587208e+04
   2.782261e+05   4.833519e+05
  -1.279398e+05   8.037946e+05
  -1.052718e+06   4.403760e+05
  -1.296726e+06  -3.339914e+05
  -4.079837e+05  -7.876035e+05
   7.133586e+05  -4.878072e+05
   7.746081e+05   2.497519e+05
  -4.339062e+05   6.467084e+05
  -1.705021e+06   1.966861e+05
  -1.637947e+06  -8.384841e+05
  -1.173378e+05  -1.614435e+06
   1.539976e+06  -1.423940e+06
   1.911076e+06  -3.555269e+05
   8.461592e+05   7.135085e+05
  -4.943565e+05   8.891502e+05
  -8.611302e+05   1.433707e+05
  -7.447407e+04  -6.220851e+05
   9.573420e+05  -5.146889e+05
   1.203819e+06   3.740251e+05
   4.564092e+05   1.080509e+06
  -5.592203e+05   8.695301e+05
  -9.100384e+05   4.473166e+04
  -3.486651e+05  -4.483163e+05
   4.350330e+05  -9.896935e+04
   4.912143e+05   6.554133e+05
  -3.825675e+05   9.504778e+05
  -1.352366e+06   3.758325e+05
  -1.378490e+06  -6.681375e+05
  -3.310277e+05  -1.358040e+06
   8.472351e+05  -1.158337e+06
   1.129940e+06  -2.726778e+05
   4.413675e+05   5.304685e+05
  -3.764892e+05   6.131902e+05
  -5.230703e+05   6.671991e+04
  -1.690569e+04  -4.219892e+05
   4.636589e+05  -3.417291e+05
   3.692415e+05   8.502456e+04
  -1.590568e+05   2.092110e+05
  -4.609937e+05  -2.356977e+05
  -4.815599e+04  -7.768126e+05
   8.490498e+05  -6.993658e+05
   1.425268e+06   1.742591e+05
   1.055831e+06   1.252488e+06
  -6.155372e+04   1.693443e+06
  -1.070541e+06   1.152925e+06
  -1.288289e+06   7.954207e+04
  -8.184287e+05  -6.996166e+05
  -3.060636e+05  -7.318461e+05
  -1.788824e+05  -3.184626e+05
  -2.507685e+05  -1.219306e+05
  -6.314174e+04  -3.939737e+05
   5.010949e+05  -6.821179e+05
   1.012428e+06  -3.805867e+05
   8.855189e+05   4.860193e+05
  -2.145857e+04   1.164910e+06
  -1.152495e+06   9.141587e+05
  -1.620019e+06  -2.121783e+05
  -9.476254e+05  -1.360383e+06
   4.555512e+05  -1.642202e+06
   1.587500e+06  -9.044170e+05
   1.703939e+06   2.032550e+05
   9.243491e+05   8.701690e+05
   1.562483e+04   8.416100e+05
  -3.787718e+05   5.381621e+05
  -2.689384e+05   4.978497e+05
  -1.443065e+05   7.476966e+05
  -3.711196e+05   7.911354e+05
  -7.960039e+05   2.261448e+05
  -9.164188e+05  -7.078143e+05
  -4.270767e+05  -1.286901e+06
   3.978516e+05  -1.005727e+06
   8.959302e+05  -7.528518e+04
   6.443304e+05   7.770724e+05
  -1.001946e+05   9.564111e+05
  -6.444048e+05   4.575318e+05
  -5.622228e+05  -2.341321e+05
  -1.016335e+05  -6.196936e+05
   1.519987e+05  -5.791913e+05
  -3.304827e+04  -3.629943e+05
  -2.734942e+05  -2.559916e+05
  -3.171808e+04  -2.774203e+05
   7.129513e+05  -2.088756e+05
   1.331674e+06   1.155380e+05
   1.141377e+06   5.874502e+05
   1.391826e+05   8.951913e+05
  -9.116183e+05   7.968046e+05
  -1.193999e+06   3.387571e+05
  -6.301038e+05  -1.546889e+05
   9.755252e+04  -3.262925e+05
   3.073454e+05  -1.040328e+05
  -1.180849e+04   1.949493e+05
  -3.440525e+05   1.641277e+05
  -3.224767e+05  -2.214000e+05
  -8.373100e+04  -5.196224e+05
   2.517543e+04  -3.330096e+05
  -1.036335e+05   1.480885e+05
  -2.690507e+05   3.075354e+05
  -2.189839e+05  -1.369258e+05
   1.196155e+05  -7.201989e+05
   5.754952e+05  -7.396548e+05
   7.954059e+05  -8.985035e+04
   4.815016e+05   6.037247e+05
  -2.478739e+05   6.889791e+05
  -7.752685e+05   1.629275e+05
  -5.042042e+05  -4.062026e+05
   4.313991e+05  -4.917021e+05
   1.145727e+06  -5.108230e+04
   8.722780e+05   5.300672e+05
  -1.887523e+05   7.917408e+05
  -1.047424e+06   5.404570e+05
  -9.596589e+05  -6.245758e+03
  -1.685782e+05  -3.773107e+05
   4.258879e+05  -2.618476e+05
   2.385780e+05   1.548140e+05
  -4.394780e+05   3.242073e+05
  -8.078064e+05  -1.028474e+05
  -3.975899e+05  -8.378767e+05
   4.762454e+05  -1.150695e+06
   1.057763e+06  -5.797790e+05
   8.866988e+05   5.319674e+05
   1.762519e+05   1.265898e+06
  -4.808504e+05   9.821941e+05
  -6.718861e+05  -2.680710e+04
  -4.092291e+05  -8.101699e+05
   3.298323e+04  -7.368082e+05
   3.629570e+05  -1.152671e+05
   4.039154e+05   2.664078e+05
   1.923368e+05   1.161294e+05
   2.922013e+03  -9.149473e+04
   9.824233e+04   1.455964e+05
   3.445475e+05   6.375561e+05
   2.545102e+05   7.660294e+05
  -3.853593e+05   3.148613e+05
  -1.059549e+06  -2.851594e+05
  -1.003792e+06  -5.487446e+05
  -1.602601e+05  -4.650336e+05
   6.574993e+05  -3.076684e+05
   7.105933e+05  -1.830758e+05
   1.924721e+05  -1.783237e+04
  -1.239675e+05   1.532930e+05
   6.598899e+04   1.884088e+05
   2.780418e+05   1.097905e+05
   2.990154e+03   9.683342e+04
  -5.526685e+05   1.440268e+05
  -7.172202e+05  -1.186233e+04
  -1.837207e+05  -4.552304e+05
   6.453613e+05  -7.819477e+05
   1.104330e+06  -4.967264e+05
   8.784584e+05   3.199843e+05
   1.847488e+05   9.874414e+05
  -4.806998e+05   9.430215e+05
  -7.161460e+05   3.351208e+05
  -4.727318e+05  -1.980846e+05
  -6.203720e+04  -2.445243e+05
   1.233517e+05   5.639907e+03
  -2.843970e+04   7.354080e+04
  -2.579235e+05  -2.235265e+05
  -2.235611e+05  -5.570487e+05
   1.288731e+05  -4.566790e+05
   4.920534e+05   1.297358e+05
   4.794700e+05   7.036650e+05
   5.724074e+03   7.037953e+05
  -5.682582e+05   1.043414e+05
  -7.037510e+05  -5.566350e+05
  -2.072599e+05  -7.452025e+05
   4.956767e+05  -4.219971e+05
   7.370338e+05   5.507895e+04
   3.339870e+05   3.589132e+05
  -1.804114e+05   4.014398e+05
  -1.892646e+05   2.456050e+05
   2.454004e+05   3.160857e+04
   4.697821e+05  -2.661662e+04
   8.188089e+04   1.965318e+05
  -5.612477e+05   4.966697e+05
  -8.023122e+05   4.546013e+05
  -4.595504e+05  -5.022516e+04
   5.770686e+04  -5.757665e+05
   3.031613e+05  -5.748983e+05
   2.183296e+05  -6.752306e+04
   6.086130e+03   3.616193e+05
  -1.719768e+05   2.662365e+05
  -2.502154e+05  -1.617359e+05
  -1.756867e+05  -3.989539e+05
   4.637693e+04  -2.370707e+05
   2.689018e+05   5.340953e+04
   3.123948e+05   1.405825e+05
   1.698237e+05   2.165133e+04
   6.238843e+03  -5.151168e+04
  -5.856859e+04   7.831383e+04
  -7.808127e+04   2.863535e+05
  -1.546229e+05   3.084287e+05
  -2.578222e+05   3.590247e+04
  -2.354066e+05  -3.332332e+05
  -1.919366e+03  -4.559153e+05
   3.115450e+05  -1.915657e+05
   4.208048e+05   2.269432e+05
   1.508107e+05   4.202981e+05
  -3.266694e+05   2.520390e+05
  -5.741904e+05  -6.807911e+04
  -3.185558e+05  -2.562209e+05
   1.971840e+05  -2.327736e+05
   4.214612e+05  -1.074698e+05
   1.217039e+05  -6.647075e+03
  -3.108041e+05  -1.506049e+03
  -3.111765e+05  -1.121828e+05
   1.721155e+05  -2.477384e+05
   6.088790e+05  -1.953460e+05
