
 $NMID
 id='ANONYMOUS ', fmtdat='(2E16.6)'
 volume=1.0
 tramp=1.0
 $END
  -4.237400e+07   7.015430e+05
  -2.688731e+07  -2.419610e+07
   3.560189e+06  -2.844993e+07
   2.012272e+07  -1.329522e+07
   1.352662e+07   3.237468e+06
  -1.447048e+06   7.339977e+06
  -7.893263e+06   4.733219e+05
  -3.444853e+06  -7.304413e+06
   3.956476e+06  -8.478583e+06
   7.546878e+06  -2.633853e+06
   5.772128e+06   4.860960e+06
   7.236433e+05   7.152226e+06
  -3.274465e+06   2.028140e+06
  -2.318583e+06  -5.016128e+06
   2.769500e+06  -6.036708e+06
   6.337143e+06   4.376304e+05
   4.000786e+06   7.876354e+06
  -2.491113e+06   9.438989e+06
  -7.696923e+06   4.729834e+06
  -8.177711e+06  -1.664307e+06
  -4.666381e+06  -5.602069e+06
  -3.712158e+05  -5.967285e+06
   1.505766e+06  -4.095623e+06
   1.540405e+05  -2.507397e+06
  -1.567746e+06  -2.933179e+06
   2.386659e+05  -4.242476e+06
   5.298871e+06  -3.462352e+06
   8.389565e+06   1.799799e+05
   5.571209e+06   3.695806e+06
  -4.837295e+05   3.975969e+06
  -3.701465e+06   1.511481e+06
  -1.919502e+06  -8.460625e+05
   1.574244e+06  -1.349888e+06
   3.034375e+06  -8.790767e+04
   1.963129e+06   2.151709e+06
  -1.017383e+05   3.809484e+06
  -1.747808e+06   2.830208e+06
  -1.998452e+06  -5.908553e+05
  -7.015922e+05  -2.740012e+06
   5.490066e+05  -7.261636e+05
  -2.231403e+05   2.714714e+06
  -2.251679e+06   2.218451e+06
  -2.213225e+06  -2.346945e+06
   1.208672e+06  -4.852515e+06
   4.681634e+06  -1.167843e+06
   3.912349e+06   4.893695e+06
  -1.020386e+06   6.422578e+06
  -5.663529e+06   1.987370e+06
  -6.001178e+06  -3.480947e+06
  -2.033753e+06  -5.123627e+06
   2.854842e+06  -2.681739e+06
   4.851758e+06   9.072405e+05
   2.573936e+06   2.821815e+06
  -1.664571e+06   2.010105e+06
  -3.702959e+06  -4.433639e+05
  -1.802241e+06  -2.020485e+06
   1.280781e+06  -1.155056e+06
   1.670727e+06   7.972366e+05
  -6.880603e+05   1.128416e+06
  -2.148557e+06  -6.707578e+05
  -3.252056e+05  -2.317135e+06
   2.944379e+06  -1.804861e+06
   4.162799e+06   4.591861e+05
   2.120216e+06   2.877677e+06
  -1.570140e+06   4.328141e+06
  -4.560840e+06   3.972451e+06
  -5.309863e+06   1.213973e+06
  -3.563835e+06  -2.842164e+06
  -6.256466e+05  -5.258719e+06
   1.331038e+06  -4.260170e+06
   1.294953e+06  -1.593246e+06
   5.143780e+05  -3.446345e+05
   7.854112e+05  -9.636375e+05
   2.059572e+06  -1.154148e+06
   2.661367e+06   4.517333e+05
   1.576540e+06   2.319196e+06
  -4.341401e+05   2.209778e+06
  -1.852839e+06   2.714062e+04
  -1.669667e+06  -2.278320e+06
   1.767168e+05  -2.830430e+06
   2.618393e+06  -1.254899e+06
   3.763596e+06   1.343043e+06
   2.477510e+06   3.225643e+06
  -1.216230e+05   3.303545e+06
  -1.719606e+06   2.077981e+06
  -1.630676e+06   1.026860e+06
  -1.507384e+06   8.229249e+05
  -2.711015e+06   6.242296e+05
  -4.068632e+06  -5.951182e+05
  -3.302409e+06  -2.555736e+06
  -1.311338e+05  -3.930697e+06
   3.147998e+06  -3.680196e+06
   4.102307e+06  -1.813829e+06
   2.451043e+06   6.617881e+05
  -3.037676e+04   2.187016e+06
  -1.257476e+06   1.697870e+06
  -5.014631e+05  -1.252367e+05
   1.124244e+06  -1.190359e+06
   1.761859e+06  -3.387576e+05
   7.542286e+05   1.104561e+06
  -5.902580e+05   1.061053e+06
  -5.639754e+05  -3.671485e+05
   8.142782e+05  -9.289385e+05
   1.826908e+06   6.912576e+05
   1.118396e+06   3.016175e+06
  -9.238645e+05   3.569027e+06
  -2.851716e+06   1.693717e+06
  -3.501824e+06  -1.064781e+06
  -2.542806e+06  -2.789481e+06
  -5.090237e+05  -2.720918e+06
   1.285819e+06  -1.415986e+06
   1.568493e+06  -1.429660e+05
   4.760233e+05   5.002747e+04
  -3.460952e+05  -7.236629e+05
   3.435189e+05  -1.233888e+06
   1.725053e+06  -5.485190e+05
   1.910957e+06   7.580103e+05
   4.268890e+05   1.292122e+06
  -1.109506e+06   5.805181e+05
  -9.462921e+05  -4.447673e+05
   7.766278e+05  -6.529888e+05
   2.253239e+06   1.570890e+05
   1.905579e+06   1.348480e+06
  -1.577521e+05   2.072375e+06
  -2.284819e+06   1.700986e+06
  -2.715575e+06   2.764920e+05
  -1.161201e+06  -1.177946e+06
   8.491809e+05  -1.361267e+06
   1.403226e+06  -1.611790e+05
   1.369308e+05   9.830415e+05
  -1.447627e+06   6.818252e+05
  -1.670456e+06  -7.208821e+05
  -4.075315e+05  -1.600907e+06
   9.981007e+05  -1.040525e+06
   1.256697e+06   2.000632e+05
   3.218689e+05   7.306203e+05
  -7.173288e+05   7.219094e+04
  -6.812785e+05  -1.005472e+06
   5.914659e+05  -1.351631e+06
   1.950881e+06  -4.720640e+05
   1.939212e+06   1.048396e+06
   3.541482e+05   1.994229e+06
  -1.370924e+06   1.580298e+06
  -1.661836e+06   2.280162e+05
  -5.203438e+05  -8.294746e+05
   6.261409e+05  -8.004681e+05
   6.670914e+05  -5.718146e+04
  -8.429178e+04   4.497618e+05
  -5.671994e+05   2.879624e+05
  -2.709364e+05  -1.101371e+05
   3.702008e+05  -6.708552e+04
   5.571404e+05   5.513895e+05
  -1.286071e+05   1.139127e+06
  -1.319706e+06   8.821636e+05
  -2.014741e+06  -4.024994e+05
  -1.398950e+06  -1.888563e+06
   2.355819e+05  -2.367743e+06
   1.601882e+06  -1.427312e+06
   1.719223e+06   9.043181e+04
   9.259940e+05   9.587618e+05
   3.162669e+05   8.049860e+05
   3.625279e+05   3.082799e+05
   5.073801e+05   2.580914e+05
   7.558746e+04   6.727263e+05
  -8.268337e+05   8.907126e+05
  -1.436711e+06   3.571996e+05
  -1.088175e+06  -7.388609e+05
   2.156988e+05  -1.509427e+06
   1.699680e+06  -1.089694e+06
   2.218522e+06   4.753643e+05
   1.137518e+06   2.039654e+06
  -9.207652e+05   2.294244e+06
  -2.426342e+06   1.045716e+06
  -2.330323e+06  -5.792266e+05
  -1.038814e+06  -1.320558e+06
   1.560481e+05  -1.028605e+06
   4.675090e+05  -5.783260e+05
   2.140346e+05  -7.025588e+05
   1.673171e+05  -1.178648e+06
   6.325973e+05  -1.186931e+06
   1.215293e+06  -2.827715e+05
   1.268903e+06   1.068602e+06
   5.115030e+05   1.850933e+06
  -6.304979e+05   1.389849e+06
  -1.260796e+06   1.604993e+03
  -8.061590e+05  -1.219080e+06
   3.280105e+05  -1.355097e+06
   1.069805e+06  -4.686568e+05
   7.879390e+05   5.677765e+05
  -4.079628e+04   9.895665e+05
  -4.289363e+05   7.824465e+05
  -5.059756e+04   4.501013e+05
   3.961748e+05   3.503936e+05
   4.102592e+04   3.808324e+05
  -1.084864e+06   2.113895e+05
  -1.955548e+06  -3.146188e+05
  -1.566110e+06  -9.877403e+05
  -1.803988e+04  -1.355327e+06
   1.479451e+06  -1.082466e+06
   1.762634e+06  -3.017716e+05
   8.398507e+05   4.083005e+05
  -2.209487e+05   5.162736e+05
  -4.799564e+05   6.484340e+04
  -7.105782e+03  -3.567965e+05
   4.577021e+05  -2.285407e+05
   4.547537e+05   3.376809e+05
   1.764300e+05   7.146997e+05
   3.141602e+04   4.633533e+05
   1.470535e+05  -1.314333e+05
   3.279936e+05  -3.268931e+05
   2.781861e+05   2.234853e+05
  -1.796123e+05   9.746715e+05
  -8.807311e+05   1.017343e+06
  -1.251270e+06   1.272104e+05
  -7.499022e+05  -8.907079e+05
   4.075895e+05  -1.048863e+06
   1.179141e+06  -2.643381e+05
   6.963809e+05   5.828034e+05
  -6.766282e+05   6.383335e+05
  -1.576899e+06  -8.027485e+04
  -1.051457e+06  -8.469749e+05
   4.315447e+05  -1.015840e+06
   1.493639e+06  -5.312771e+05
   1.259395e+06   1.635006e+05
   1.536067e+05   5.210768e+05
  -6.336186e+05   2.846094e+05
  -3.561444e+05  -2.701175e+05
   5.983103e+05  -4.722323e+05
   1.141713e+06   1.319596e+05
   5.891522e+05   1.173279e+06
  -6.493986e+05   1.625775e+06
  -1.481216e+06   8.073784e+05
  -1.213245e+06  -7.749669e+05
  -1.679904e+05  -1.766986e+06
   7.457648e+05  -1.287333e+06
   9.198669e+05   1.519188e+05
   4.444413e+05   1.174108e+06
  -1.867340e+05   9.796223e+05
  -5.419162e+05   9.684078e+04
  -4.831019e+05  -3.882997e+05
  -1.918502e+05  -1.539154e+05
  -3.720876e+04   1.060780e+05
  -2.249326e+05  -2.601113e+05
  -4.714827e+05  -9.395480e+05
  -2.152006e+05  -1.074630e+06
   6.586579e+05  -3.949165e+05
   1.447574e+06   4.754494e+05
   1.284600e+06   8.420265e+05
   1.795827e+05   6.796208e+05
  -8.740703e+05   3.915040e+05
  -9.818274e+05   1.778521e+05
  -3.287413e+05  -3.140487e+04
   1.575052e+05  -2.136749e+05
   2.480378e+03  -2.268117e+05
  -2.950228e+05  -1.250355e+05
  -3.183205e+04  -1.306874e+05
   6.910765e+05  -1.998289e+05
   1.017432e+06   3.554596e+04
   3.581949e+05   6.658432e+05
  -8.717080e+05   1.111588e+06
  -1.641618e+06   6.948425e+05
  -1.323696e+06  -4.531468e+05
  -2.347911e+05  -1.383548e+06
   7.558077e+05  -1.325651e+06
   1.028363e+06  -4.877821e+05
   6.398985e+05   2.576759e+05
   1.104032e+05   3.487286e+05
  -9.758398e+04   3.606748e+04
   7.256509e+04  -4.269801e+04
   3.086428e+05   3.559897e+05
   2.462634e+05   7.968636e+05
  -1.898479e+05   6.532209e+05
  -6.672614e+05  -1.520854e+05
  -6.857788e+05  -9.590487e+05
  -6.339057e+04  -9.990910e+05
   7.533989e+05  -1.967547e+05
   9.865595e+05   7.452172e+05
   3.062288e+05   1.063761e+06
  -7.061294e+05   6.286685e+05
  -1.075054e+06  -9.284067e+04
  -4.983888e+05  -5.794852e+05
   2.806954e+05  -6.307129e+05
   3.475731e+05  -3.537043e+05
  -2.684981e+05  -2.923931e+04
  -6.424706e+05   2.417694e+04
  -1.307845e+05  -2.953599e+05
   8.167241e+05  -6.578254e+05
   1.218405e+06  -5.396863e+05
   7.194931e+05   1.542607e+05
  -1.050628e+05   8.371121e+05
  -5.230946e+05   8.241806e+05
  -3.855168e+05   1.386150e+05
  -2.925351e+04  -4.777316e+05
   2.412419e+05  -4.064925e+05
   3.387807e+05   1.734443e+05
   2.373832e+05   5.677906e+05
  -5.846841e+04   3.929099e+05
  -3.783623e+05  -5.905200e+04
  -4.567905e+05  -2.608710e+05
  -2.391132e+05  -8.159060e+04
   2.347289e+04   1.249531e+05
   8.882090e+04   2.897463e+03
   3.048479e+04  -3.542115e+05
   9.811197e+04  -4.994410e+05
   3.201139e+05  -1.614261e+05
   4.043898e+05   3.983211e+05
   1.012213e+05   6.294205e+05
  -4.126472e+05   2.878841e+05
  -6.264546e+05  -2.936361e+05
  -2.267950e+05  -5.707789e+05
   4.924592e+05  -3.494949e+05
   8.453343e+05   9.186785e+04
   4.566681e+05   3.739056e+05
  -2.878602e+05   3.698525e+05
  -6.160432e+05   1.948479e+05
  -2.254344e+05   1.545557e+04
   3.611323e+05  -3.752950e+04
   4.019699e+05   9.605779e+04
  -1.928062e+05   2.937774e+05
  -7.647655e+05   2.477789e+05
