
 $NMID
 id='ANONYMOUS ', fmtdat='(2E16.6)'
 volume=1.0
 tramp=1.0
 $END
   2.105098e+07  -3.956502e+05
   1.450638e+07   9.092441e+06
   7.117911e+05   1.318997e+07
  -8.723443e+06   9.633750e+06
  -7.909437e+06   1.656768e+06
  -8.651229e+05  -3.848834e+06
   4.356010e+06  -2.433387e+06
   3.712729e+06   3.270735e+06
  -6.226333e+05   6.282856e+06
  -3.976110e+06   3.039216e+06
  -3.653167e+06  -2.751215e+06
  -5.583243e+05  -4.674596e+06
   2.146380e+06  -9.549419e+05
   1.858471e+06   3.965754e+06
  -1.107625e+06   4.730945e+06
  -3.664412e+06   6.588948e+05
  -2.924455e+06  -4.176818e+06
   7.552560e+05  -5.472753e+06
   4.053438e+06  -2.659687e+06
   4.168339e+06   1.235603e+06
   1.668910e+06   2.982030e+06
  -3.827504e+05   2.175262e+06
   1.025541e+05   1.061348e+06
   2.008208e+06   1.650829e+06
   2.292900e+06   3.408074e+06
  -5.970734e+05   4.031450e+06
  -4.699283e+06   2.216950e+06
  -6.181137e+06  -8.740505e+05
  -3.309613e+06  -2.875962e+06
   1.388306e+06  -2.455126e+06
   3.485059e+06  -2.457756e+05
   1.291132e+06   1.843350e+06
  -2.436637e+06   2.008663e+06
  -3.736382e+06  -9.650867e+04
  -1.749706e+06  -2.772996e+06
   9.069250e+05  -3.469988e+06
   1.608749e+06  -1.377341e+06
   4.422179e+05   1.309980e+06
  -6.662221e+05   1.578475e+06
  -4.571808e+05  -8.246098e+05
   7.010104e+05  -2.894571e+06
   1.688631e+06  -1.951960e+06
   1.628355e+06   1.033925e+06
   3.301077e+05   2.598500e+06
  -1.379117e+06   9.470446e+05
  -1.835931e+06  -2.029667e+06
   7.570467e+03  -3.079781e+06
   2.964786e+06  -1.140519e+06
   4.196564e+06   1.884384e+06
   2.097146e+06   3.366302e+06
  -1.690961e+06   2.370921e+06
  -3.769289e+06   7.671112e+04
  -2.478024e+06  -1.571184e+06
   5.320257e+05  -1.490806e+06
   2.244460e+06  -1.743678e+05
   1.380434e+06   9.161564e+05
  -6.157464e+05   7.412631e+05
  -1.403033e+06  -3.727486e+05
  -2.490705e+05  -1.154723e+06
   1.318947e+06  -7.310435e+05
   1.281044e+06   4.981919e+05
  -5.533440e+05   1.262441e+06
  -2.185485e+06   6.084560e+05
  -1.555199e+06  -1.203640e+06
   1.133699e+06  -2.779566e+06
   3.561950e+06  -2.633263e+06
   3.763340e+06  -5.008104e+05
   2.035300e+06   2.231421e+06
   2.214410e+05   3.659916e+06
  -4.658464e+05   3.149531e+06
  -4.353705e+05   1.831574e+06
  -7.302475e+05   1.131357e+06
  -1.642596e+06   1.065367e+06
  -2.483291e+06   4.666353e+05
  -2.374884e+06  -1.149203e+06
  -1.059611e+06  -2.570995e+06
   8.263508e+05  -2.175494e+06
   2.054529e+06   3.781210e+04
   1.631500e+06   2.201911e+06
  -2.672332e+05   2.449868e+06
  -2.193311e+06   7.268895e+05
  -2.608341e+06  -1.370315e+06
  -1.347363e+06  -2.294775e+06
   2.672716e+05  -1.864467e+06
   9.144081e+05  -1.039169e+06
   7.071330e+05  -7.226857e+05
   8.798698e+05  -9.005736e+05
   2.073451e+06  -8.083725e+05
   3.275856e+06   1.982547e+05
   2.792723e+06   1.904024e+06
   2.617194e+05   3.252526e+06
  -2.603978e+06   3.143642e+06
  -3.547203e+06   1.418382e+06
  -2.016707e+06  -8.141729e+05
   3.088722e+05  -1.958871e+06
   1.284881e+06  -1.316710e+06
   3.964125e+05   2.114465e+05
  -1.013710e+06   9.732345e+05
  -1.383897e+06   2.779436e+05
  -4.931414e+05  -8.602353e+05
   5.747932e+05  -9.224499e+05
   6.805778e+05   2.379147e+05
  -3.109572e+05   1.090749e+06
  -1.478096e+06   2.046029e+05
  -1.614476e+06  -1.932854e+06
  -2.179342e+05  -3.255241e+06
   1.955925e+06  -2.297530e+06
   3.315347e+06   2.559975e+05
   2.738922e+06   2.324984e+06
   6.833081e+05   2.516579e+06
  -1.139632e+06   1.271242e+06
  -1.393768e+06   9.530105e+04
  -4.044980e+05  -3.014823e+04
   3.204519e+05   5.906993e+05
  -1.801527e+05   9.570037e+05
  -1.276514e+06   4.889649e+05
  -1.542532e+06  -4.405743e+05
  -4.659079e+05  -9.532309e+05
   8.700876e+05  -5.667314e+05
   9.311645e+05   3.166515e+05
  -5.272996e+05   7.697913e+05
  -2.055785e+06   2.042909e+05
  -1.963005e+06  -1.045423e+06
  -1.096058e+05  -1.951887e+06
   1.895036e+06  -1.678473e+06
   2.315896e+06  -3.726629e+05
   9.938960e+05   8.852493e+05
  -6.283429e+05   1.048714e+06
  -1.038779e+06   1.369325e+05
  -6.302294e+04  -7.532347e+05
   1.170862e+06  -5.878384e+05
   1.437274e+06   4.849680e+05
   5.222211e+05   1.310123e+06
  -6.892773e+05   1.032297e+06
  -1.092568e+06   3.599341e+04
  -4.104088e+05  -5.421858e+05
   5.211844e+05  -1.029928e+05
   5.679286e+05   8.056868e+05
  -4.944822e+05   1.133653e+06
  -1.645644e+06   4.078747e+05
  -1.641016e+06  -8.525570e+05
  -3.545902e+05  -1.647660e+06
   1.056701e+06  -1.367575e+06
   1.368478e+06  -2.945893e+05
   5.176936e+05   6.496152e+05
  -4.694341e+05   7.284925e+05
  -6.372592e+05   6.880398e+04
  -1.850837e+04  -5.115881e+05
   5.664219e+05  -4.100678e+05
   4.546696e+05   1.031569e+05
  -1.822129e+05   2.491515e+05
  -5.422639e+05  -2.882217e+05
  -3.650832e+04  -9.305468e+05
   1.042641e+06  -8.149814e+05
   1.711892e+06   2.549131e+05
   1.232428e+06   1.544509e+06
  -1.267328e+05   2.042893e+06
  -1.323645e+06   1.363336e+06
  -1.557901e+06   6.461064e+04
  -9.784638e+05  -8.667108e+05
  -3.615084e+05  -9.020613e+05
  -2.075955e+05  -4.041785e+05
  -2.879116e+05  -1.608631e+05
  -5.635355e+04  -4.737578e+05
   6.230193e+05  -8.049799e+05
   1.230285e+06  -4.314517e+05
   1.058891e+06   6.102710e+05
  -5.310121e+04   1.406399e+06
  -1.415038e+06   1.070772e+06
  -1.948527e+06  -3.034536e+05
  -1.102428e+06  -1.665658e+06
   5.961672e+05  -1.959859e+06
   1.934938e+06  -1.040342e+06
   2.045556e+06   2.895398e+05
   1.096301e+06   1.069136e+06
   5.262548e+03   1.018030e+06
  -4.715934e+05   6.499173e+05
  -3.506844e+05   6.021113e+05
  -2.091364e+05   8.973138e+05
  -4.763585e+05   9.368295e+05
  -9.664128e+05   2.428289e+05
  -1.082756e+06  -8.854564e+05
  -4.743212e+05  -1.567827e+06
   5.127413e+05  -1.202202e+06
   1.082709e+06  -6.464768e+04
   7.514165e+05   9.532096e+05
  -1.470811e+05   1.145249e+06
  -7.804495e+05   5.311604e+05
  -6.606729e+05  -2.926280e+05
  -1.034472e+05  -7.395712e+05
   1.930787e+05  -6.866435e+05
  -3.490634e+04  -4.388101e+05
  -3.222034e+05  -3.211867e+05
  -2.896319e+04  -3.376050e+05
   8.633629e+05  -2.270609e+05
   1.597659e+06   1.847489e+05
   1.355525e+06   7.426511e+05
   1.402802e+05   1.075693e+06
  -1.121598e+06   9.247605e+05
  -1.445899e+06   3.722194e+05
  -7.502929e+05  -1.983821e+05
   1.290057e+05  -3.849211e+05
   3.696849e+05  -1.162965e+05
  -2.696314e+04   2.335445e+05
  -4.242804e+05   1.882400e+05
  -3.816629e+05  -2.788578e+05
  -8.112359e+04  -6.367893e+05
   4.506775e+04  -4.065543e+05
  -1.268618e+05   1.790515e+05
  -3.334558e+05   3.703261e+05
  -2.596091e+05  -1.708281e+05
   1.684021e+05  -8.693366e+05
   7.189926e+05  -8.726885e+05
   9.606108e+05  -7.336906e+04
   5.563385e+05   7.505581e+05
  -3.263388e+05   8.192080e+05
  -9.431219e+05   1.635244e+05
  -5.966475e+05  -5.090561e+05
   5.343338e+05  -5.794018e+05
   1.383998e+06  -3.003233e+04
   1.040954e+06   6.594795e+05
  -2.441825e+05   9.485222e+05
  -1.275494e+06   6.272298e+05
  -1.158648e+06  -2.966254e+04
  -1.953090e+05  -4.592149e+05
   5.192231e+05  -3.043805e+05
   2.799059e+05   1.945200e+05
  -5.456725e+05   3.775605e+05
  -9.756161e+05  -1.540120e+05
  -4.510900e+05  -1.031260e+06
   6.192482e+05  -1.378514e+06
   1.302477e+06  -6.659755e+05
   1.056047e+06   6.731801e+05
   1.731478e+05   1.536947e+06
  -6.093857e+05   1.173991e+06
  -8.083471e+05  -4.969380e+04
  -4.714242e+05  -9.876610e+05
   5.642861e+04  -8.867332e+05
   4.388102e+05  -1.281241e+05
   4.832026e+05   3.318816e+05
   2.331546e+05   1.436322e+05
   4.014411e+03  -1.101477e+05
   1.068765e+05   1.819471e+05
   3.933838e+05   7.821411e+05
   2.882609e+05   9.298890e+05
  -4.701475e+05   3.639738e+05
  -1.272098e+06  -3.773744e+05
  -1.199289e+06  -6.905635e+05
  -1.784090e+05  -5.656476e+05
   8.080127e+05  -3.541947e+05
   8.642463e+05  -2.013184e+05
   2.281423e+05  -1.425098e+04
  -1.563576e+05   1.825018e+05
   7.973054e+04   2.274452e+05
   3.389950e+05   1.390834e+05
  -8.898947e+02   1.190476e+05
  -6.787316e+05   1.596363e+05
  -8.673015e+05  -3.934775e+04
  -2.004799e+05  -5.623703e+05
   8.121570e+05  -9.262439e+05
   1.351702e+06  -5.583114e+05
   1.049047e+06   4.236162e+05
   1.902965e+05   1.202219e+06
  -6.123058e+05   1.121490e+06
  -8.796287e+05   3.787282e+05
  -5.680503e+05  -2.564280e+05
  -6.512957e+04  -2.994350e+05
   1.551651e+05   9.231194e+03
  -3.228018e+04   8.917482e+04
  -3.049010e+05  -2.751400e+05
  -2.537047e+05  -6.786118e+05
   1.724084e+05  -5.478966e+05
   5.944550e+05   1.746388e+05
   5.573420e+05   8.717454e+05
  -2.100185e+04   8.557538e+05
  -6.972646e+05   1.065155e+05
  -8.354328e+05  -7.011700e+05
  -2.232266e+05  -9.106101e+05
   6.172177e+05  -4.917154e+05
   8.886301e+05   9.428022e+04
   3.865995e+05   4.448203e+05
  -2.351681e+05   4.754619e+05
  -2.345924e+05   2.861338e+05
   3.008075e+05   4.365542e+04
   5.704375e+05  -1.712953e+04
   9.047330e+04   2.410799e+05
  -6.943566e+05   5.825036e+05
  -9.789104e+05   5.223614e+05
  -5.472759e+05  -7.720387e+04
   9.069030e+04  -6.932446e+05
   3.841443e+05  -6.800754e+05
   2.657045e+05  -6.777041e+04
  -4.778114e+03   4.410888e+05
  -2.196758e+05   3.150823e+05
  -3.010625e+05  -2.067597e+05
  -1.988589e+05  -4.889294e+05
   6.815682e+04  -2.832583e+05
   3.248841e+05   7.501079e+04
   3.694307e+05   1.794304e+05
   2.022996e+05   2.990122e+04
   1.373206e+04  -6.146261e+04
  -6.735539e+04   9.779515e+04
  -1.058722e+05   3.508529e+05
  -2.074807e+05   3.717240e+05
  -3.217668e+05   3.148192e+04
  -2.738801e+05  -4.195025e+05
   1.784001e+04  -5.585300e+05
   3.865959e+05  -2.216203e+05
   5.016959e+05   2.930757e+05
   1.682460e+05   5.164814e+05
  -4.030429e+05   2.922969e+05
  -6.919148e+05  -1.051037e+05
  -3.758678e+05  -3.216543e+05
   2.490205e+05  -2.725914e+05
   5.159118e+05  -1.120471e+05
   1.455885e+05  -5.148425e+02
  -3.823208e+05  -1.052794e+04
  -3.782195e+05  -1.479155e+05
   2.166943e+05  -2.994034e+05
   7.477213e+05  -2.214267e+05
