
 $NMID
 id='ANONYMOUS ', fmtdat='(2E16.6)'
 volume=1.0
 tramp=1.0
 $END
  -3.883294e+07  -3.834896e+05
  -2.413870e+07  -2.174320e+07
   3.226427e+06  -2.542434e+07
   1.804780e+07  -1.257127e+07
   1.239526e+07   2.098043e+06
  -9.596619e+05   6.604843e+06
  -7.177010e+06   1.013379e+06
  -3.608529e+06  -6.465428e+06
   3.187275e+06  -8.231086e+06
   6.888362e+06  -2.825433e+06
   5.462589e+06   4.632149e+06
   6.608044e+05   6.924941e+06
  -3.228261e+06   1.810105e+06
  -2.377971e+06  -5.075371e+06
   2.429951e+06  -6.013271e+06
   5.882581e+06   2.155381e+05
   3.808576e+06   7.312094e+06
  -2.278879e+06   8.800359e+06
  -7.214595e+06   4.268609e+06
  -7.525274e+06  -1.852181e+06
  -3.939995e+06  -5.375790e+06
   7.146813e+04  -5.267792e+06
   1.290807e+06  -3.309446e+06
  -5.297362e+05  -2.227858e+06
  -2.055300e+06  -3.229476e+06
   2.973849e+05  -4.567006e+06
   5.579741e+06  -3.405695e+06
   8.427195e+06   4.388453e+05
   5.293694e+06   3.817105e+06
  -8.768065e+05   3.901099e+06
  -4.024861e+06   1.284115e+06
  -1.987009e+06  -1.263444e+06
   1.897545e+06  -1.802347e+06
   3.537414e+06  -1.733039e+05
   2.166832e+06   2.512569e+06
  -3.207826e+05   4.094977e+06
  -1.920356e+06   2.611337e+06
  -1.730825e+06  -9.819292e+05
  -2.585046e+05  -2.697448e+06
   6.960640e+05  -2.749685e+05
  -3.191201e+05   3.052785e+06
  -2.225499e+06   2.314548e+06
  -2.133313e+06  -2.109951e+06
   8.987472e+05  -4.389076e+06
   3.967363e+06  -9.860553e+05
   3.389624e+06   4.456074e+06
  -9.369891e+05   5.773885e+06
  -5.272904e+06   1.746997e+06
  -5.831645e+06  -3.271346e+06
  -2.177778e+06  -4.912769e+06
   2.672446e+06  -2.758643e+06
   4.824341e+06   6.443820e+05
   2.704157e+06   2.589909e+06
  -1.429120e+06   1.936456e+06
  -3.478622e+06  -3.269459e+05
  -1.754622e+06  -1.819888e+06
   1.178906e+06  -1.080699e+06
   1.699641e+06   7.087421e+05
  -4.043561e+05   1.158097e+06
  -1.933566e+06  -2.888883e+05
  -5.510539e+05  -1.806106e+06
   2.403939e+06  -1.615596e+06
   3.761136e+06   2.333781e+05
   2.016928e+06   2.565085e+06
  -1.602278e+06   4.169817e+06
  -4.644134e+06   3.870959e+06
  -5.278762e+06   1.055464e+06
  -3.361793e+06  -2.938824e+06
  -5.145742e+05  -5.190358e+06
   1.160104e+06  -4.195297e+06
   1.056644e+06  -1.753877e+06
   5.455944e+05  -6.680058e+05
   1.103637e+06  -1.178877e+06
   2.411283e+06  -1.111447e+06
   2.866231e+06   6.858716e+05
   1.615656e+06   2.609158e+06
  -5.517679e+05   2.431266e+06
  -2.080598e+06   7.126665e+04
  -1.843469e+06  -2.407457e+06
   1.909519e+05  -2.953446e+06
   2.716849e+06  -1.205476e+06
   3.728317e+06   1.486099e+06
   2.295604e+06   3.235358e+06
  -2.401848e+05   3.117672e+06
  -1.645909e+06   1.869350e+06
  -1.464483e+06   9.613532e+05
  -1.397537e+06   8.930209e+05
  -2.692911e+06   7.408234e+05
  -4.120871e+06  -4.923514e+05
  -3.406902e+06  -2.523083e+06
  -2.137480e+05  -4.017961e+06
   3.194274e+06  -3.831762e+06
   4.255508e+06  -1.877917e+06
   2.541861e+06   7.513827e+05
  -9.556572e+04   2.321471e+06
  -1.368138e+06   1.745548e+06
  -5.198226e+05  -1.625664e+05
   1.174023e+06  -1.233800e+06
   1.781284e+06  -3.524701e+05
   7.332533e+05   1.122827e+06
  -6.226199e+05   1.116352e+06
  -6.463851e+05  -3.301457e+05
   6.771255e+05  -1.031553e+06
   1.793901e+06   4.408470e+05
   1.344602e+06   2.833545e+06
  -5.664658e+05   3.675323e+06
  -2.693790e+06   2.017986e+06
  -3.680140e+06  -8.194655e+05
  -2.842289e+06  -2.788996e+06
  -6.545450e+05  -2.851602e+06
   1.325000e+06  -1.502652e+06
   1.642725e+06  -1.594649e+05
   4.913168e+05   4.319888e+04
  -3.709599e+05  -7.341461e+05
   3.150944e+05  -1.237403e+06
   1.712703e+06  -5.725232e+05
   1.935740e+06   7.056987e+05
   4.738428e+05   1.273549e+06
  -1.110083e+06   6.279772e+05
  -1.018728e+06  -4.181648e+05
   7.317025e+05  -7.409375e+05
   2.344841e+06   1.533741e+04
   2.086934e+06   1.309533e+06
  -4.427693e+04   2.183603e+06
  -2.307890e+06   1.852547e+06
  -2.793850e+06   3.577014e+05
  -1.202513e+06  -1.167571e+06
   8.443910e+05  -1.370079e+06
   1.397827e+06  -1.649257e+05
   1.251178e+05   9.926358e+05
  -1.469385e+06   7.154103e+05
  -1.727035e+06  -6.853442e+05
  -4.899263e+05  -1.617344e+06
   9.548529e+05  -1.118931e+06
   1.289313e+06   1.240729e+05
   3.776352e+05   7.128659e+05
  -7.072559e+05   8.678515e+04
  -7.052068e+05  -1.017622e+06
   5.973957e+05  -1.396744e+06
   2.007273e+06  -5.071726e+05
   2.008156e+06   1.053443e+06
   3.979766e+05   2.037171e+06
  -1.363897e+06   1.644024e+06
  -1.691417e+06   2.805190e+05
  -5.654794e+05  -8.269290e+05
   6.142198e+05  -8.433581e+05
   7.105411e+05  -7.888293e+04
  -4.037962e+04   5.000643e+05
  -5.957138e+05   3.661349e+05
  -3.567019e+05  -9.285508e+04
   3.194114e+05  -1.239796e+05
   5.864954e+05   4.980682e+05
  -7.741587e+04   1.152057e+06
  -1.323297e+06   9.382174e+05
  -2.077716e+06  -3.682909e+05
  -1.472238e+06  -1.914715e+06
   1.940728e+05  -2.452733e+06
   1.615507e+06  -1.536684e+06
   1.796570e+06   2.108884e+04
   1.034821e+06   9.813508e+05
   3.861832e+05   8.928559e+05
   3.577341e+05   3.723101e+05
   4.734445e+05   2.563324e+05
   7.228189e+04   6.627330e+05
  -8.152297e+05   9.366075e+05
  -1.472447e+06   4.259798e+05
  -1.174509e+06  -7.348339e+05
   1.537082e+05  -1.590788e+06
   1.722955e+06  -1.187449e+06
   2.308866e+06   4.311676e+05
   1.233449e+06   2.062031e+06
  -8.673072e+05   2.365415e+06
  -2.441298e+06   1.141777e+06
  -2.416328e+06  -5.032346e+05
  -1.152067e+06  -1.317109e+06
   9.196661e+04  -1.099343e+06
   4.873836e+05  -6.620371e+05
   2.704549e+05  -7.460723e+05
   1.943229e+05  -1.191516e+06
   6.293423e+05  -1.202908e+06
   1.231174e+06  -2.980452e+05
   1.320799e+06   1.084756e+06
   5.586324e+05   1.902892e+06
  -6.290551e+05   1.447261e+06
  -1.300846e+06   3.557243e+04
  -8.587528e+05  -1.218599e+06
   2.831684e+05  -1.388945e+06
   1.045756e+06  -5.262857e+05
   7.984774e+05   5.171127e+05
   3.319824e+03   9.761489e+05
  -3.768473e+05   8.034995e+05
  -1.673868e+04   4.770002e+05
   4.101460e+05   3.677042e+05
   4.528763e+04   3.984667e+05
  -1.095281e+06   2.387193e+05
  -1.994837e+06  -2.856783e+05
  -1.626832e+06  -9.717736e+05
  -6.560015e+04  -1.363338e+06
   1.473425e+06  -1.121187e+06
   1.790638e+06  -3.618954e+05
   8.698065e+05   3.611679e+05
  -2.091691e+05   5.120883e+05
  -4.768742e+05   8.819917e+04
   7.074884e+03  -3.486709e+05
   4.833514e+05  -2.418508e+05
   4.707935e+05   3.425975e+05
   1.688550e+05   7.535247e+05
   1.406797e+04   4.898071e+05
   1.449391e+05  -1.598344e+05
   3.453108e+05  -3.770169e+05
   2.954590e+05   2.198010e+05
  -1.779394e+05   1.024253e+06
  -8.902571e+05   1.059558e+06
  -1.261188e+06   1.216411e+05
  -7.557571e+05  -9.193258e+05
   4.118045e+05  -1.061912e+06
   1.202545e+06  -2.581101e+05
   7.281335e+05   6.000747e+05
  -6.763544e+05   6.744726e+05
  -1.635866e+06  -3.138255e+04
  -1.138006e+06  -8.314363e+05
   3.875918e+05  -1.070633e+06
   1.524097e+06  -6.221741e+05
   1.322216e+06   1.123802e+05
   1.867795e+05   5.364115e+05
  -6.398530e+05   3.190666e+05
  -3.596800e+05  -2.663826e+05
   6.287182e+05  -4.893163e+05
   1.187127e+06   1.392361e+05
   6.065985e+05   1.223416e+06
  -6.789191e+05   1.691902e+06
  -1.540050e+06   8.457397e+05
  -1.270968e+06  -7.922464e+05
  -2.035453e+05  -1.833704e+06
   7.430860e+05  -1.361859e+06
   9.534447e+05   1.194539e+05
   5.005587e+05   1.197067e+06
  -1.445943e+05   1.022539e+06
  -5.475715e+05   1.183240e+05
  -5.273554e+05  -3.905111e+05
  -2.243524e+05  -1.548419e+05
  -2.634967e+04   1.140141e+05
  -2.030440e+05  -2.618215e+05
  -4.920581e+05  -9.620242e+05
  -2.691589e+05  -1.104196e+06
   6.445315e+05  -4.151598e+05
   1.512075e+06   4.650860e+05
   1.369084e+06   8.397429e+05
   1.993746e+05   6.943497e+05
  -9.195150e+05   4.261989e+05
  -1.018325e+06   2.125400e+05
  -3.190604e+05  -2.068331e+04
   1.682423e+05  -2.247961e+05
  -3.016005e+04  -2.381721e+05
  -3.386901e+05  -1.289581e+05
  -2.556348e+04  -1.401191e+05
   7.439245e+05  -2.183435e+05
   1.053729e+06   3.008952e+04
   3.414178e+05   6.937297e+05
  -9.162750e+05   1.157766e+06
  -1.678990e+06   7.185266e+05
  -1.350798e+06  -4.762486e+05
  -2.549724e+05  -1.437593e+06
   7.594036e+05  -1.372642e+06
   1.063742e+06  -5.023208e+05
   6.754792e+05   2.705547e+05
   1.080776e+05   3.632003e+05
  -1.284505e+05   3.182294e+04
   5.972263e+04  -5.962108e+04
   3.338992e+05   3.518593e+05
   2.768965e+05   8.175658e+05
  -1.945461e+05   6.756012e+05
  -7.046059e+05  -1.635039e+05
  -7.147027e+05  -1.006292e+06
  -5.046444e+04  -1.041530e+06
   8.017553e+05  -1.955965e+05
   1.032175e+06   7.840471e+05
   3.146758e+05   1.102445e+06
  -7.338428e+05   6.438060e+05
  -1.105200e+06  -9.352283e+04
  -5.036149e+05  -5.819963e+05
   2.889673e+05  -6.339975e+05
   3.370806e+05  -3.581605e+05
  -3.038342e+05  -2.703501e+04
  -6.723259e+05   3.215323e+04
  -1.300679e+05  -3.027534e+05
   8.359228e+05  -6.953727e+05
   1.229388e+06  -5.849563e+05
   7.185331e+05   1.409671e+05
  -1.030454e+05   8.603144e+05
  -5.148488e+05   8.441547e+05
  -3.813465e+05   1.242090e+05
  -2.815102e+04  -5.080794e+05
   2.533935e+05  -4.136730e+05
   3.618717e+05   1.946736e+05
   2.502848e+05   5.870919e+05
  -6.781894e+04   3.915427e+05
  -3.951334e+05  -6.548783e+04
  -4.642501e+05  -2.531109e+05
  -2.438176e+05  -6.905095e+04
   9.889867e+03   1.172525e+05
   7.948864e+04  -3.049033e+04
   5.010826e+04  -3.907121e+05
   1.432420e+05  -5.114876e+05
   3.561274e+05  -1.393423e+05
   4.061884e+05   4.416898e+05
   7.808647e+04   6.675085e+05
  -4.380456e+05   2.971570e+05
  -6.441863e+05  -3.151706e+05
  -2.345614e+05  -6.006969e+05
   5.010690e+05  -3.627516e+05
   8.683731e+05   9.867741e+04
   4.717886e+05   3.847162e+05
  -2.995816e+05   3.714656e+05
  -6.375566e+05   1.885233e+05
  -2.187463e+05   9.433006e+03
   4.021623e+05  -3.524454e+04
   4.349646e+05   1.141490e+05
  -2.094076e+05   3.271180e+05
  -8.197626e+05   2.762263e+05
