
 $NMID
 id='ANONYMOUS ', fmtdat='(2E16.6)'
 volume=1.0
 tramp=1.0
 $END
   2.704153e+07  -1.101284e+06
   1.854429e+07   1.274250e+07
   1.687086e+05   1.754351e+07
  -1.173755e+07   1.126046e+07
  -9.755645e+06   7.121997e+05
  -4.491907e+05  -4.926426e+06
   5.460423e+06  -2.168809e+06
   3.927308e+06   4.396842e+06
  -1.397046e+06   7.183205e+06
  -5.024020e+06   3.174476e+06
  -4.375044e+06  -3.317941e+06
  -6.854568e+05  -5.464199e+06
   2.476917e+06  -1.281401e+06
   2.068379e+06   4.378785e+06
  -1.526689e+06   5.296070e+06
  -4.498235e+06   4.987230e+05
  -3.412134e+06  -5.215716e+06
   1.093592e+06  -6.708951e+06
   5.040625e+06  -3.371986e+06
   5.314873e+06   1.276265e+06
   2.530968e+06   3.645149e+06
  -1.041141e+05   3.149043e+06
  -1.829917e+05   1.884344e+06
   1.599614e+06   2.003429e+06
   2.190673e+06   3.472496e+06
  -5.444623e+05   4.241302e+06
  -5.011895e+06   2.612595e+06
  -6.948826e+06  -6.960658e+05
  -4.008650e+06  -3.133928e+06
   1.191189e+06  -2.889948e+06
   3.646420e+06  -5.536096e+05
   1.458043e+06   1.668420e+06
  -2.363612e+06   1.901069e+06
  -3.722837e+06  -9.249377e+04
  -1.845936e+06  -2.743016e+06
   7.548543e+05  -3.670990e+06
   1.669045e+06  -1.782460e+06
   8.052334e+05   1.145718e+06
  -3.359904e+05   1.877272e+06
  -4.456819e+05  -4.881254e+05
   6.329684e+05  -2.957995e+06
   1.893972e+06  -2.111705e+06
   1.876907e+06   1.378930e+06
   4.040688e+04   3.299651e+06
  -2.223632e+06   1.142476e+06
  -2.496444e+06  -2.740428e+06
   1.525670e+05  -4.043481e+06
   3.713550e+06  -1.468702e+06
   4.852995e+06   2.303190e+06
   2.217048e+06   3.940228e+06
  -2.040014e+06   2.578751e+06
  -4.221974e+06  -1.333675e+05
  -2.642325e+06  -1.943220e+06
   8.139683e+05  -1.713806e+06
   2.710034e+06  -7.355862e+04
   1.573078e+06   1.210676e+06
  -7.903237e+05   8.913956e+05
  -1.539728e+06  -4.864900e+05
  -3.094843e+04  -1.229304e+06
   1.621805e+06  -4.497160e+05
   1.164842e+06   9.896774e+05
  -1.135298e+06   1.521693e+06
  -2.788504e+06   4.357265e+05
  -1.806895e+06  -1.642552e+06
   1.246440e+06  -3.279040e+06
   3.919628e+06  -3.086015e+06
   4.273203e+06  -7.294145e+05
   2.499800e+06   2.430961e+06
   3.663005e+05   4.186873e+06
  -6.678256e+05   3.576560e+06
  -6.737073e+05   1.879554e+06
  -7.395248e+05   9.823453e+05
  -1.515366e+06   1.053232e+06
  -2.468062e+06   6.284770e+05
  -2.518704e+06  -1.030993e+06
  -1.211449e+06  -2.608271e+06
   7.746729e+05  -2.261565e+06
   2.092373e+06   3.764743e+04
   1.705444e+06   2.319267e+06
  -2.534016e+05   2.642188e+06
  -2.374589e+06   8.903044e+05
  -2.990702e+06  -1.394508e+06
  -1.697264e+06  -2.583989e+06
   2.040157e+05  -2.282751e+06
   1.116168e+06  -1.354803e+06
   9.508968e+05  -8.537424e+05
   1.073282e+06  -9.378705e+05
   2.323632e+06  -8.123915e+05
   3.618087e+06   2.875213e+05
   3.048796e+06   2.134898e+06
   2.522185e+05   3.559404e+06
  -2.839537e+06   3.415256e+06
  -3.824416e+06   1.579220e+06
  -2.199331e+06  -8.057961e+05
   2.551134e+05  -2.087433e+06
   1.325860e+06  -1.458951e+06
   4.350466e+05   1.979136e+05
  -1.080055e+06   1.066943e+06
  -1.532685e+06   3.117951e+05
  -5.816098e+05  -9.488664e+05
   6.019445e+05  -9.937186e+05
   6.853258e+05   2.851446e+05
  -4.536143e+05   1.114141e+06
  -1.654606e+06   5.453661e+03
  -1.593513e+06  -2.296442e+06
   4.684951e+04  -3.507749e+06
   2.281606e+06  -2.274017e+06
   3.527559e+06   4.659316e+05
   2.816523e+06   2.551865e+06
   6.687379e+05   2.681547e+06
  -1.223329e+06   1.361125e+06
  -1.494194e+06   1.115065e+05
  -4.395067e+05  -3.531660e+04
   3.425742e+05   6.481325e+05
  -2.213192e+05   1.068921e+06
  -1.438307e+06   5.342288e+05
  -1.705562e+06  -5.288436e+05
  -4.842451e+05  -1.078062e+06
   9.661913e+05  -5.990887e+05
   9.778191e+05   3.636107e+05
  -6.159688e+05   7.811340e+05
  -2.203636e+06   1.258678e+05
  -2.039705e+06  -1.171498e+06
  -4.745634e+04  -2.073538e+06
   2.074750e+06  -1.761871e+06
   2.515303e+06  -3.704497e+05
   1.082924e+06   9.913145e+05
  -7.016841e+05   1.173386e+06
  -1.170193e+06   1.567455e+05
  -8.818984e+04  -8.383341e+05
   1.286308e+06  -6.403862e+05
   1.560658e+06   5.596808e+05
   5.220557e+05   1.441437e+06
  -7.960395e+05   1.086192e+06
  -1.186496e+06  -1.737818e+04
  -4.111072e+05  -6.148052e+05
   5.917574e+05  -1.045914e+05
   6.230171e+05   8.863212e+05
  -5.358197e+05   1.235788e+06
  -1.788592e+06   4.447912e+05
  -1.786063e+06  -9.321046e+05
  -3.751145e+05  -1.802500e+06
   1.175114e+06  -1.483586e+06
   1.500566e+06  -2.960021e+05
   5.441210e+05   7.222451e+05
  -5.272663e+05   7.804217e+05
  -6.723941e+05   6.772857e+04
   9.025474e+03  -5.221671e+05
   5.963010e+05  -3.965443e+05
   4.301571e+05   1.167750e+05
  -2.416991e+05   2.217673e+05
  -5.765739e+05  -3.649095e+05
  -2.074430e+03  -1.025796e+06
   1.154317e+06  -8.712968e+05
   1.861635e+06   2.973757e+05
   1.330812e+06   1.692011e+06
  -1.548955e+05   2.211331e+06
  -1.449728e+06   1.441515e+06
  -1.668615e+06   3.005720e+04
  -1.007883e+06  -9.311064e+05
  -3.599031e+05  -9.203842e+05
  -2.489853e+05  -3.943692e+05
  -3.552617e+05  -1.849239e+05
  -6.810260e+04  -5.412073e+05
   6.985548e+05  -8.644031e+05
   1.336356e+06  -4.345461e+05
   1.113345e+06   6.700085e+05
  -9.587705e+04   1.496478e+06
  -1.546982e+06   1.125471e+06
  -2.101200e+06  -3.557135e+05
  -1.164377e+06  -1.829300e+06
   6.954158e+05  -2.132310e+06
   2.138940e+06  -1.095376e+06
   2.209805e+06   3.691885e+05
   1.134030e+06   1.180854e+06
  -3.629113e+04   1.069529e+06
  -4.954893e+05   6.589428e+05
  -3.319946e+05   6.463190e+05
  -2.022129e+05   1.000978e+06
  -5.293709e+05   1.040188e+06
  -1.066947e+06   2.674340e+05
  -1.176531e+06  -9.650509e+05
  -5.071979e+05  -1.703281e+06
   5.610744e+05  -1.300673e+06
   1.174028e+06  -5.430808e+04
   8.020047e+05   1.058545e+06
  -1.938735e+05   1.249904e+06
  -8.869826e+05   5.456516e+05
  -7.273085e+05  -3.691333e+05
  -7.890884e+04  -8.360772e+05
   2.570273e+05  -7.459646e+05
  -1.480391e+04  -4.632526e+05
  -3.535157e+05  -3.407189e+05
  -3.328252e+04  -3.621473e+05
   9.546667e+05  -2.371709e+05
   1.755313e+06   2.177922e+05
   1.469353e+06   8.310757e+05
   1.223569e+05   1.193133e+06
  -1.253419e+06   1.009758e+06
  -1.587264e+06   3.765215e+05
  -8.100056e+05  -2.567891e+05
   1.536244e+05  -4.353416e+05
   4.139763e+05  -1.112595e+05
  -1.684209e+04   2.718201e+05
  -4.498709e+05   2.055294e+05
  -4.164336e+05  -3.038854e+05
  -1.076274e+05  -6.799752e+05
   2.834461e+04  -4.349637e+05
  -1.393080e+05   1.755733e+05
  -3.491851e+05   3.745084e+05
  -2.762807e+05  -1.910584e+05
   1.779967e+05  -9.316030e+05
   7.869175e+05  -9.474030e+05
   1.069805e+06  -9.536582e+04
   6.283346e+05   8.119919e+05
  -3.552437e+05   9.107180e+05
  -1.037334e+06   1.989084e+05
  -6.466857e+05  -5.474355e+05
   5.914244e+05  -6.210810e+05
   1.493211e+06  -6.316589e+03
   1.091920e+06   7.359361e+05
  -3.005994e+05   1.010547e+06
  -1.387717e+06   6.338084e+05
  -1.236716e+06  -6.373646e+04
  -1.941208e+05  -4.957586e+05
   5.705648e+05  -3.146045e+05
   3.118951e+05   2.194526e+05
  -5.799652e+05   4.161636e+05
  -1.055948e+06  -1.534461e+05
  -5.043857e+05  -1.106628e+06
   6.499508e+05  -1.495588e+06
   1.398927e+06  -7.295307e+05
   1.139880e+06   7.250776e+05
   1.813519e+05   1.658714e+06
  -6.686315e+05   1.253761e+06
  -8.728406e+05  -7.549404e+04
  -4.877725e+05  -1.077162e+06
   9.009613e+04  -9.510279e+05
   4.837455e+05  -1.279401e+05
   5.045944e+05   3.613234e+05
   2.331401e+05   1.544143e+05
   1.263335e+04  -1.149701e+05
   1.415377e+05   2.049947e+05
   4.312598e+05   8.522095e+05
   2.845981e+05   1.007794e+06
  -5.356504e+05   3.914322e+05
  -1.370507e+06  -4.158411e+05
  -1.273656e+06  -7.578928e+05
  -1.880355e+05  -6.177643e+05
   8.585640e+05  -3.776028e+05
   9.309355e+05  -2.051100e+05
   2.634902e+05  -6.402916e+03
  -1.629918e+05   1.972766e+05
   6.270261e+04   2.400076e+05
   3.421190e+05   1.443221e+05
   6.838732e+03   1.258793e+05
  -7.101168e+05   1.740929e+05
  -9.401610e+05  -3.834739e+04
  -2.481055e+05  -6.068635e+05
   8.585731e+05  -1.009363e+06
   1.476587e+06  -6.194897e+05
   1.159168e+06   4.437177e+05
   2.107032e+05   1.296423e+06
  -6.702582e+05   1.220905e+06
  -9.507628e+05   4.227348e+05
  -6.087515e+05  -2.674333e+05
  -7.927160e+04  -3.228393e+05
   1.465904e+05   1.220480e+03
  -4.510067e+04   8.309687e+04
  -3.205366e+05  -3.072239e+05
  -2.642550e+05  -7.371467e+05
   1.825143e+05  -5.965476e+05
   6.360431e+05   1.765065e+05
   6.117042e+05   9.278805e+05
  -1.500087e+02   9.239622e+05
  -7.381022e+05   1.319890e+05
  -9.063704e+05  -7.398991e+05
  -2.543642e+05  -9.844264e+05
   6.622929e+05  -5.462370e+05
   9.709540e+05   9.511163e+04
   4.326801e+05   4.938466e+05
  -2.528130e+05   5.336007e+05
  -2.704761e+05   3.173833e+05
   3.054059e+05   4.419818e+04
   6.119870e+05  -1.985631e+04
   1.048854e+05   2.634207e+05
  -7.530447e+05   6.270220e+05
  -1.079453e+06   5.532234e+05
  -6.141317e+05  -9.529488e+04
   9.582529e+04  -7.575360e+05
   4.315825e+05  -7.468404e+05
   3.036834e+05  -9.052460e+04
   2.764955e+03   4.676822e+05
  -2.324308e+05   3.503688e+05
  -3.212026e+05  -2.075404e+05
  -2.174218e+05  -5.282327e+05
   6.623529e+04  -3.210594e+05
   3.508372e+05   7.384622e+04
   4.081628e+05   2.050722e+05
   2.213474e+05   4.305439e+04
   3.607310e+03  -7.801272e+04
  -7.897091e+04   7.841367e+04
  -9.355515e+04   3.639290e+05
  -1.874789e+05   4.139322e+05
  -3.311213e+05   6.266912e+04
  -3.146463e+05  -4.292335e+05
  -1.013306e+04  -5.955575e+05
   4.080776e+05  -2.464412e+05
   5.520286e+05   3.035534e+05
   1.893834e+05   5.503494e+05
  -4.409015e+05   3.199781e+05
  -7.574856e+05  -1.039540e+05
  -4.118654e+05  -3.466749e+05
   2.668209e+05  -3.079041e+05
   5.597185e+05  -1.380421e+05
   1.704307e+05  -6.165990e+03
  -3.921077e+05  -1.539250e+03
  -3.979528e+05  -1.424614e+05
   2.215437e+05  -3.093945e+05
   7.838629e+05  -2.351460e+05
