
 $NMID
 id='ANONYMOUS ', fmtdat='(2E16.6)'
 volume=1.0
 tramp=1.0
 $END
  -2.142671e+07   1.835000e+06
  -1.554490e+07  -8.525528e+06
  -1.550472e+06  -1.362230e+07
   8.520693e+06  -1.032870e+07
   8.111199e+06  -1.956572e+06
   1.038806e+06   3.962665e+06
  -4.404237e+06   2.618374e+06
  -3.916088e+06  -3.242981e+06
   4.315474e+05  -6.420803e+06
   3.954541e+06  -3.252056e+06
   3.840059e+06   2.590515e+06
   7.959586e+05   4.673819e+06
  -2.087338e+06   1.084420e+06
  -2.016894e+06  -3.880316e+06
   9.458756e+05  -4.815879e+06
   3.722154e+06  -8.341730e+05
   3.192598e+06   4.108453e+06
  -4.791927e+05   5.618167e+06
  -3.957338e+06   2.953389e+06
  -4.296373e+06  -9.579557e+05
  -1.927219e+06  -2.866313e+06
   1.522790e+05  -2.246837e+06
  -1.985423e+05  -1.190883e+06
  -2.011452e+06  -1.671467e+06
  -2.342962e+06  -3.313741e+06
   4.441826e+05  -4.004685e+06
   4.555064e+06  -2.402650e+06
   6.186316e+06   5.690940e+05
   3.461998e+06   2.684072e+06
  -1.216652e+06   2.485564e+06
  -3.403867e+06   3.977847e+05
  -1.319462e+06  -1.733536e+06
   2.347426e+06  -2.017687e+06
   3.676382e+06  -4.823911e+03
   1.805945e+06   2.663722e+06
  -7.508190e+05   3.445521e+06
  -1.500163e+06   1.461820e+06
  -4.980707e+05  -1.206555e+06
   5.290054e+05  -1.568262e+06
   4.266445e+05   7.546468e+05
  -5.940163e+05   2.866671e+06
  -1.615830e+06   2.014934e+06
  -1.708685e+06  -9.876314e+05
  -4.465288e+05  -2.680964e+06
   1.421189e+06  -1.105611e+06
   2.043726e+06   1.958627e+06
   1.811607e+05   3.181121e+06
  -2.945942e+06   1.344579e+06
  -4.324155e+06  -1.712571e+06
  -2.245496e+06  -3.318182e+06
   1.620089e+06  -2.451952e+06
   3.795363e+06  -2.075582e+05
   2.551237e+06   1.507595e+06
  -4.923982e+05   1.547356e+06
  -2.279636e+06   2.788364e+05
  -1.447054e+06  -8.785603e+05
   5.900613e+05  -7.885508e+05
   1.423573e+06   3.264310e+05
   2.560523e+05   1.167429e+06
  -1.355539e+06   7.557596e+05
  -1.321508e+06  -5.375166e+05
   5.561576e+05  -1.368112e+06
   2.238598e+06  -7.129072e+05
   1.654366e+06   1.169216e+06
  -9.902057e+05   2.848654e+06
  -3.422906e+06   2.796131e+06
  -3.728991e+06   6.925380e+05
  -2.152429e+06  -2.106925e+06
  -4.055166e+05  -3.647740e+06
   3.446758e+05  -3.195759e+06
   4.045299e+05  -1.851605e+06
   7.082458e+05  -1.114301e+06
   1.571767e+06  -1.074835e+06
   2.407977e+06  -5.463208e+05
   2.372062e+06   1.031936e+06
   1.137329e+06   2.486320e+06
  -7.362164e+05   2.167472e+06
  -2.027432e+06   2.289816e+04
  -1.689739e+06  -2.128773e+06
   1.699201e+05  -2.441814e+06
   2.141648e+06  -8.202007e+05
   2.658599e+06   1.231091e+06
   1.473286e+06   2.215000e+06
  -1.491152e+05   1.890446e+06
  -8.577439e+05   1.116782e+06
  -6.923053e+05   7.801736e+05
  -8.629573e+05   9.403668e+05
  -2.052051e+06   8.846345e+05
  -3.287112e+06  -7.403719e+04
  -2.864463e+06  -1.795996e+06
  -3.840949e+05  -3.236314e+06
   2.473955e+06  -3.231347e+06
   3.468595e+06  -1.549548e+06
   2.029853e+06   7.216581e+05
  -2.270071e+05   1.946122e+06
  -1.215495e+06   1.354711e+06
  -3.989126e+05  -1.905833e+05
   9.680770e+05  -1.006160e+06
   1.369804e+06  -3.345589e+05
   5.317851e+05   8.335461e+05
  -5.350632e+05   9.359240e+05
  -6.825702e+05  -2.218589e+05
   2.932631e+05  -1.103227e+06
   1.499025e+06  -2.366852e+05
   1.685252e+06   1.910660e+06
   2.990756e+05   3.265877e+06
  -1.909956e+06   2.352640e+06
  -3.325271e+06  -1.631076e+05
  -2.797842e+06  -2.234229e+06
  -7.598621e+05  -2.482011e+06
   1.086539e+06  -1.304839e+06
   1.380202e+06  -1.468095e+05
   4.041886e+05   1.479640e+04
  -3.416424e+05  -5.775649e+05
   1.426322e+05  -9.670670e+05
   1.258989e+06  -5.426340e+05
   1.563117e+06   3.828128e+05
   5.025406e+05   9.398776e+05
  -8.498915e+05   5.976861e+05
  -9.370753e+05  -2.871255e+05
   5.090257e+05  -7.848958e+05
   2.047899e+06  -2.649803e+05
   1.986616e+06   9.829738e+05
   1.678307e+05   1.942304e+06
  -1.832918e+06   1.737437e+06
  -2.295969e+06   4.549059e+05
  -1.027645e+06  -8.469286e+05
   5.836787e+05  -1.075217e+06
   1.033561e+06  -1.825154e+05
   9.668890e+04   7.476915e+05
  -1.145108e+06   6.320613e+05
  -1.453700e+06  -4.325617e+05
  -5.661108e+05  -1.292792e+06
   6.579146e+05  -1.055322e+06
   1.093620e+06  -6.964330e+04
   4.276641e+05   5.322293e+05
  -5.197464e+05   1.246026e+05
  -5.986476e+05  -7.815574e+05
   4.484142e+05  -1.148353e+06
   1.623084e+06  -4.694915e+05
   1.667914e+06   7.865208e+05
   4.163601e+05   1.630046e+06
  -1.003769e+06   1.405320e+06
  -1.356159e+06   3.441860e+05
  -5.397263e+05  -6.315463e+05
   4.434502e+05  -7.438439e+05
   6.299438e+05  -8.910354e+04
   2.933526e+04   5.079908e+05
  -5.523321e+05   4.207169e+05
  -4.485888e+05  -9.450083e+04
   1.844514e+05  -2.542573e+05
   5.562617e+05   2.749640e+05
   6.888619e+04   9.322898e+05
  -1.011831e+06   8.524792e+05
  -1.717381e+06  -1.907907e+05
  -1.287127e+06  -1.493713e+06
   5.130214e+04  -2.040104e+06
   1.272463e+06  -1.404214e+06
   1.550615e+06  -1.154098e+05
   9.984589e+05   8.310879e+05
   3.822227e+05   8.802196e+05
   2.196805e+05   3.851406e+05
   3.002157e+05   1.449695e+05
   7.889759e+04   4.724181e+05
  -5.937299e+05   8.270664e+05
  -1.213053e+06   4.722501e+05
  -1.073796e+06  -5.728100e+05
   8.232491e+03  -1.403215e+06
   1.374309e+06  -1.116657e+06
   1.953188e+06   2.330923e+05
   1.159525e+06   1.623468e+06
  -5.248102e+05   1.981067e+06
  -1.896511e+06   1.110002e+06
  -2.053270e+06  -2.191630e+05
  -1.127123e+06  -1.032681e+06
  -3.361193e+04  -1.013878e+06
   4.484783e+05  -6.564437e+05
   3.202763e+05  -6.054622e+05
   1.669059e+05  -9.018251e+05
   4.370991e+05  -9.557319e+05
   9.548606e+05  -2.815685e+05
   1.112493e+06   8.405651e+05
   5.312350e+05   1.543996e+06
  -4.657585e+05   1.216455e+06
  -1.077378e+06   1.032974e+05
  -7.857379e+05  -9.254613e+05
   1.065861e+05  -1.151258e+06
   7.663704e+05  -5.595225e+05
   6.771598e+05   2.719928e+05
   1.309456e+05   7.414373e+05
  -1.726028e+05   6.973281e+05
   4.654949e+04   4.366991e+05
   3.326166e+05   3.057845e+05
   4.151828e+04   3.341674e+05
  -8.545730e+05   2.601492e+05
  -1.603008e+06  -1.224358e+05
  -1.380977e+06  -6.913514e+05
  -1.798730e+05  -1.073170e+06
   1.085629e+06  -9.691410e+05
   1.431392e+06  -4.242793e+05
   7.593640e+05   1.752800e+05
  -1.133176e+05   3.924345e+05
  -3.673753e+05   1.295046e+05
   1.365462e+04  -2.344797e+05
   4.134393e+05  -2.024410e+05
   3.911040e+05   2.628390e+05
   1.064763e+05   6.266597e+05
  -2.722381e+04   4.028529e+05
   1.221320e+05  -1.807178e+05
   3.196866e+05  -3.759363e+05
   2.651066e+05   1.616853e+05
  -1.352178e+05   8.697229e+05
  -6.833952e+05   8.973367e+05
  -9.554571e+05   1.156333e+05
  -5.857701e+05  -7.223868e+05
   2.908689e+05  -8.313069e+05
   9.318200e+05  -2.037611e+05
   6.126939e+05   4.833434e+05
  -5.124195e+05   5.976875e+05
  -1.378887e+06   7.798353e+04
  -1.058878e+06  -6.245530e+05
   2.143088e+05  -9.556715e+05
   1.252498e+06  -6.670499e+05
   1.155865e+06  -7.573967e+03
   2.091214e+05   4.516874e+05
  -5.083717e+05   3.215486e+05
  -2.883404e+05  -1.831151e+05
   5.262717e+05  -3.960564e+05
   9.749836e+05   1.144792e+05
   4.889692e+05   1.005702e+06
  -5.606879e+05   1.393076e+06
  -1.268212e+06   7.118657e+05
  -1.075472e+06  -6.297994e+05
  -2.290248e+05  -1.523004e+06
   5.654737e+05  -1.190147e+06
   8.088782e+05   2.220549e+04
   5.044105e+05   9.691608e+05
  -2.790032e+04   8.871725e+05
  -4.345419e+05   1.437438e+05
  -4.910880e+05  -3.147311e+05
  -2.345700e+05  -1.365202e+05
  -1.563270e+03   1.102318e+05
  -1.179974e+05  -1.747725e+05
  -4.225913e+05  -7.635338e+05
  -3.183034e+05  -9.182425e+05
   4.582378e+05  -3.831631e+05
   1.280252e+06   3.292626e+05
   1.217502e+06   6.464960e+05
   1.989889e+05   5.576040e+05
  -7.891326e+05   3.801504e+05
  -8.534701e+05   2.306556e+05
  -2.300547e+05   2.372649e+04
   1.478212e+05  -1.866515e+05
  -8.379471e+04  -2.255351e+05
  -3.382820e+05  -1.279737e+05
  -4.350376e+03  -1.170889e+05
   6.657354e+05  -1.815295e+05
   8.642391e+05   5.536959e+03
   2.250024e+05   5.476904e+05
  -7.693143e+05   9.507595e+05
  -1.323918e+06   6.107368e+05
  -1.061429e+06  -3.765781e+05
  -2.349518e+05  -1.187857e+06
   5.670077e+05  -1.141252e+06
   8.591643e+05  -4.118739e+05
   5.728260e+05   2.330484e+05
   7.723898e+04   2.942088e+05
  -1.505671e+05  -4.867226e+03
   3.197182e+04  -8.939284e+04
   3.137351e+05   2.648687e+05
   2.770203e+05   6.674755e+05
  -1.498094e+05   5.517227e+05
  -5.954845e+05  -1.504974e+05
  -5.867622e+05  -8.430695e+05
  -1.441352e+04  -8.490741e+05
   6.852596e+05  -1.325852e+05
   8.557067e+05   6.631216e+05
   2.582957e+05   8.958732e+05
  -5.929197e+05   5.139512e+05
  -8.882865e+05  -5.797140e+04
  -4.052487e+05  -4.279314e+05
   2.132845e+05  -4.845667e+05
   2.240029e+05  -2.969094e+05
  -2.976956e+05  -3.425669e+04
  -5.660740e+05   3.813385e+04
  -1.004967e+05  -2.359162e+05
   6.695919e+05  -6.056653e+05
   9.588221e+05  -5.577745e+05
   5.521961e+05   5.490457e+04
  -6.271565e+04   6.940194e+05
  -3.573593e+05   6.949381e+05
  -2.618820e+05   8.209307e+04
  -1.180694e+04  -4.366811e+05
   2.046742e+05  -3.225087e+05
   3.046200e+05   1.926349e+05
   2.165965e+05   4.785948e+05
  -5.410882e+04   2.855389e+05
  -3.250570e+05  -6.140214e+04
  -3.770449e+05  -1.650270e+05
  -2.041985e+05  -2.330379e+04
  -8.214524e+03   6.184721e+04
   6.781260e+04  -9.674547e+04
   9.115241e+04  -3.481149e+05
   1.855578e+05  -3.745317e+05
   3.127759e+05  -4.534011e+04
   2.877604e+05   4.011316e+05
   6.430007e+03   5.513173e+05
  -3.739727e+05   2.347607e+05
  -5.098488e+05  -2.695039e+05
  -1.868912e+05  -5.054034e+05
   3.902079e+05  -3.072778e+05
   6.924699e+05   7.585533e+04
   3.867460e+05   3.049832e+05
  -2.354044e+05   2.821718e+05
  -5.071270e+05   1.336034e+05
  -1.459469e+05   8.530352e+03
   3.764545e+05  -2.530211e+03
   3.780073e+05   1.318644e+05
  -2.043877e+05   3.023304e+05
  -7.326534e+05   2.446509e+05
