
 $NMID
 id='ANONYMOUS ', fmtdat='(2E16.6)'
 volume=1.0
 tramp=1.0
 $END
   3.147859e+07   3.685183e+05
   1.976484e+07   1.750243e+07
  -2.423634e+06   2.065804e+07
  -1.470738e+07   1.045099e+07
  -1.029725e+07  -1.537869e+06
   6.811892e+05  -5.448345e+06
   5.963310e+06  -9.524672e+05
   3.082547e+06   5.321224e+06
  -2.601005e+06   6.889823e+06
  -5.692746e+06   2.397017e+06
  -4.462376e+06  -3.828871e+06
  -4.824251e+05  -5.708741e+06
   2.656726e+06  -1.432069e+06
   1.898635e+06   4.263777e+06
  -2.046294e+06   5.013373e+06
  -4.850513e+06  -1.447592e+05
  -3.131711e+06  -5.999815e+06
   1.865141e+06  -7.211727e+06
   5.887476e+06  -3.459101e+06
   6.083645e+06   1.549755e+06
   3.126132e+06   4.346058e+06
  -6.925433e+04   4.182404e+06
  -9.395982e+05   2.650632e+06
   5.603434e+05   1.941449e+06
   1.675306e+06   2.842116e+06
  -3.805555e+05   3.820557e+06
  -4.707085e+06   2.685004e+06
  -6.941093e+06  -5.286953e+05
  -4.273470e+06  -3.207681e+06
   8.266090e+05  -3.139668e+06
   3.362343e+06  -9.146693e+05
   1.562684e+06   1.150264e+06
  -1.731519e+06   1.474585e+06
  -3.026629e+06   1.218027e+04
  -1.723874e+06  -2.206334e+06
   4.104740e+05  -3.393320e+06
   1.614974e+06  -2.073855e+06
   1.309312e+06   8.472857e+05
   1.186459e+05   2.152371e+06
  -5.187551e+05   1.242236e+05
   3.852561e+05  -2.559486e+06
   1.892787e+06  -1.907043e+06
   1.771964e+06   1.730725e+06
  -6.754089e+05   3.617326e+06
  -3.165313e+06   8.681595e+05
  -2.752973e+06  -3.581832e+06
   7.254178e+05  -4.695474e+06
   4.295599e+06  -1.411699e+06
   4.804582e+06   2.733338e+06
   1.797154e+06   4.101407e+06
  -2.243364e+06   2.295677e+06
  -4.037480e+06  -5.591017e+05
  -2.268551e+06  -2.177091e+06
   1.164753e+06  -1.619465e+06
   2.869697e+06   2.615311e+05
   1.460061e+06   1.496424e+06
  -9.644292e+05   8.880504e+05
  -1.420650e+06  -6.045038e+05
   3.155822e+05  -1.012526e+06
   1.639507e+06   1.705873e+05
   5.603712e+05   1.472929e+06
  -1.901694e+06   1.378991e+06
  -3.099126e+06  -1.388149e+05
  -1.679453e+06  -2.090807e+06
   1.363502e+06  -3.406089e+06
   3.900260e+06  -3.113722e+06
   4.358988e+06  -7.826224e+05
   2.698563e+06   2.461889e+06
   3.492165e+05   4.281558e+06
  -9.848088e+05   3.485530e+06
  -8.964535e+05   1.507606e+06
  -5.270275e+05   5.877487e+05
  -1.018980e+06   9.342351e+05
  -2.059383e+06   8.158043e+05
  -2.354077e+06  -6.821319e+05
  -1.254835e+06  -2.237137e+06
   5.508163e+05  -2.019679e+06
   1.768741e+06   6.264028e+03
   1.496588e+06   2.074543e+06
  -2.253660e+05   2.462619e+06
  -2.275954e+06   9.356660e+05
  -3.039348e+06  -1.300167e+06
  -1.829253e+06  -2.683661e+06
   2.264862e+05  -2.532840e+06
   1.341955e+06  -1.509852e+06
   1.191533e+06  -7.976831e+05
   1.168606e+06  -7.515704e+05
   2.263005e+06  -5.967971e+05
   3.437611e+06   4.614304e+05
   2.811285e+06   2.155710e+06
   1.161669e+05   3.363826e+06
  -2.738791e+06   3.146411e+06
  -3.590816e+06   1.477960e+06
  -2.094405e+06  -6.895070e+05
   1.468841e+05  -1.931870e+06
   1.184943e+06  -1.414853e+06
   4.248231e+05   1.511650e+05
  -1.006703e+06   1.003962e+06
  -1.488062e+06   2.655840e+05
  -5.858756e+05  -9.406104e+05
   5.474702e+05  -9.194880e+05
   5.507618e+05   2.928079e+05
  -5.750112e+05   8.869004e+05
  -1.523487e+06  -3.477264e+05
  -1.142505e+06  -2.384440e+06
   4.891000e+05  -3.122763e+06
   2.300096e+06  -1.712832e+06
   3.112738e+06   7.291130e+05
   2.362044e+06   2.409508e+06
   4.994521e+05   2.420885e+06
  -1.142302e+06   1.232897e+06
  -1.378859e+06   9.742909e+04
  -4.104385e+05  -4.471775e+04
   2.990599e+05   6.203525e+05
  -2.752631e+05   1.027753e+06
  -1.431359e+06   4.565341e+05
  -1.609138e+06  -6.096513e+05
  -3.855417e+05  -1.069205e+06
   9.385511e+05  -5.122736e+05
   8.548618e+05   3.706910e+05
  -6.269187e+05   6.255403e+05
  -1.984442e+06  -4.202389e+04
  -1.746386e+06  -1.143735e+06
   7.164459e+04  -1.848049e+06
   1.972149e+06  -1.521855e+06
   2.349098e+06  -2.543782e+05
   9.888988e+05   9.917468e+05
  -7.207721e+05   1.126678e+06
  -1.161745e+06   1.185322e+05
  -8.625315e+04  -8.243799e+05
   1.238372e+06  -5.735254e+05
   1.437782e+06   5.982334e+05
   3.925725e+05   1.366308e+06
  -8.161342e+05   9.343131e+05
  -1.086778e+06  -1.159883e+05
  -3.148546e+05  -6.044873e+05
   5.889592e+05  -6.619892e+04
   5.717886e+05   8.600686e+05
  -5.244241e+05   1.155447e+06
  -1.686770e+06   3.868566e+05
  -1.659821e+06  -9.157865e+05
  -2.996407e+05  -1.709812e+06
   1.165458e+06  -1.354960e+06
   1.421149e+06  -2.108554e+05
   4.645389e+05   7.020727e+05
  -5.276500e+05   6.995006e+05
  -6.010621e+05   5.053846e+04
   4.328173e+04  -4.298313e+05
   5.179582e+05  -3.015671e+05
   3.104666e+05   9.539076e+04
  -2.696327e+05   1.161231e+05
  -4.935147e+05  -4.189478e+05
   7.542900e+04  -9.657339e+05
   1.121762e+06  -7.668884e+05
   1.733612e+06   3.416432e+05
   1.199769e+06   1.626453e+06
  -2.055730e+05   2.051832e+06
  -1.384211e+06   1.265215e+06
  -1.514191e+06  -4.724469e+04
  -8.561962e+05  -8.524171e+05
  -3.014743e+05  -7.722010e+05
  -2.786323e+05  -3.225028e+05
  -3.841994e+05  -2.126774e+05
  -5.180650e+04  -5.484630e+05
   6.962867e+05  -7.740252e+05
   1.245260e+06  -3.357790e+05
   9.770419e+05   6.416560e+05
  -1.561362e+05   1.340691e+06
  -1.467456e+06   9.703981e+05
  -1.930338e+06  -4.007235e+05
  -1.003751e+06  -1.748891e+06
   7.582122e+05  -1.970005e+06
   2.061092e+06  -9.237570e+05
   2.023879e+06   4.564770e+05
   9.542828e+05   1.129423e+06
  -9.558689e+04   9.329724e+05
  -4.322549e+05   5.508691e+05
  -2.514717e+05   6.108186e+05
  -1.845556e+05   9.822794e+05
  -5.415634e+05   9.916709e+05
  -1.030527e+06   2.289836e+05
  -1.084683e+06  -9.305272e+05
  -4.335564e+05  -1.602654e+06
   5.527986e+05  -1.200179e+06
   1.091690e+06  -8.614279e+03
   7.028264e+05   1.032584e+06
  -2.542185e+05   1.161322e+06
  -8.819470e+05   4.347274e+05
  -6.658977e+05  -4.345869e+05
   2.008109e+03  -8.158311e+05
   3.200778e+05  -6.739124e+05
   2.064248e+04  -4.057434e+05
  -3.336988e+05  -3.160003e+05
  -2.917448e+04  -3.345065e+05
   9.183716e+05  -1.844826e+05
   1.661502e+06   2.683378e+05
   1.347387e+06   8.380073e+05
   4.068154e+04   1.141654e+06
  -1.244190e+06   9.157864e+05
  -1.505626e+06   2.784255e+05
  -7.295531e+05  -3.104332e+05
   1.782009e+05  -4.232661e+05
   4.006327e+05  -7.042377e+04
  -1.149151e+04   2.851556e+05
  -4.106776e+05   1.908192e+05
  -3.870137e+05  -2.946066e+05
  -1.208304e+05  -6.317121e+05
   2.890795e+03  -4.071186e+05
  -1.274814e+05   1.351109e+05
  -3.036831e+05   3.119991e+05
  -2.450942e+05  -1.891191e+05
   1.712170e+05  -8.545314e+05
   7.626429e+05  -8.705000e+05
   1.047974e+06  -8.023406e+04
   6.091275e+05   7.785031e+05
  -3.596893e+05   8.759035e+05
  -1.003254e+06   1.915707e+05
  -5.967955e+05  -5.165714e+05
   5.772560e+05  -5.551657e+05
   1.374188e+06   5.307667e+04
   9.477846e+05   7.196264e+05
  -3.403750e+05   8.988009e+05
  -1.294405e+06   5.021765e+05
  -1.113916e+06  -1.161307e+05
  -1.493646e+05  -4.560281e+05
   5.425645e+05  -2.595189e+05
   2.957358e+05   2.261042e+05
  -5.361016e+05   3.936925e+05
  -9.879314e+05  -1.419681e+05
  -4.788313e+05  -1.033998e+06
   6.039749e+05  -1.397792e+06
   1.305247e+06  -6.741280e+05
   1.048137e+06   6.885583e+05
   1.354757e+05   1.540271e+06
  -6.492234e+05   1.130483e+06
  -8.001074e+05  -1.140584e+05
  -4.021886e+05  -1.013804e+06
   1.361582e+05  -8.602722e+05
   4.606297e+05  -9.251145e+04
   4.380088e+05   3.399749e+05
   1.885809e+05   1.378333e+05
   2.333722e+04  -9.741975e+04
   1.610333e+05   2.161458e+05
   3.932364e+05   8.120376e+05
   2.100674e+05   9.341169e+05
  -5.420771e+05   3.408138e+05
  -1.258964e+06  -4.177817e+05
  -1.136533e+06  -7.314081e+05
  -1.556473e+05  -5.845694e+05
   7.819678e+05  -3.370099e+05
   8.595044e+05  -1.601126e+05
   2.648386e+05   1.826420e+04
  -1.464394e+05   1.836889e+05
   2.438655e+04   2.057881e+05
   2.848612e+05   1.205432e+05
   1.649275e+04   1.167778e+05
  -6.314494e+05   1.633234e+05
  -8.798800e+05  -4.594545e+04
  -2.654752e+05  -5.811917e+05
   7.917223e+05  -9.456328e+05
   1.412645e+06  -5.684791e+05
   1.113119e+06   4.227597e+05
   1.838382e+05   1.207710e+06
  -6.586608e+05   1.133854e+06
  -8.973174e+05   3.969420e+05
  -5.592268e+05  -2.425917e+05
  -8.139004e+04  -3.044527e+05
   1.108186e+05  -1.811729e+04
  -5.161559e+04   5.355421e+04
  -2.764625e+05  -3.006517e+05
  -2.187216e+05  -6.907882e+05
   1.758469e+05  -5.599820e+05
   5.854616e+05   1.543424e+05
   5.738423e+05   8.572137e+05
   1.709357e+04   8.683999e+05
  -6.747337e+05   1.415214e+05
  -8.443592e+05  -6.793183e+05
  -2.392421e+05  -9.261194e+05
   6.247417e+05  -5.204960e+05
   9.195733e+05   9.906485e+04
   4.096508e+05   4.911435e+05
  -2.505084e+05   5.205611e+05
  -2.838641e+05   2.948603e+05
   2.573204e+05   3.307426e+04
   5.639839e+05  -1.267098e+04
   1.020421e+05   2.538925e+05
  -7.130575e+05   5.667937e+05
  -1.037981e+06   4.723369e+05
  -5.961974e+05  -1.249499e+05
   1.017652e+05  -7.158405e+05
   4.414800e+05  -6.972506e+05
   3.146628e+05  -9.617306e+04
   1.022921e+04   4.261018e+05
  -2.192058e+05   3.382236e+05
  -2.968012e+05  -1.741389e+05
  -1.975029e+05  -4.957523e+05
   6.297174e+04  -3.217575e+05
   3.280582e+05   6.405832e+04
   3.839655e+05   2.167393e+05
   2.042709e+05   5.972990e+04
  -5.932233e+03  -9.365482e+04
  -7.122032e+04   3.094576e+04
  -5.694102e+04   3.251077e+05
  -1.351486e+05   4.154496e+05
  -2.985936e+05   1.003723e+05
  -3.226604e+05  -3.789477e+05
  -4.458902e+04  -5.560468e+05
   3.730611e+05  -2.367997e+05
   5.283275e+05   2.771176e+05
   1.814992e+05   5.074427e+05
  -4.244697e+05   2.940545e+05
  -7.208915e+05  -9.955593e+04
  -3.860046e+05  -3.302222e+05
   2.557940e+05  -3.018170e+05
   5.334482e+05  -1.422554e+05
   1.793950e+05  -5.047626e+03
  -3.397656e+05   1.544897e+04
  -3.606593e+05  -1.097881e+05
   1.870836e+05  -2.702002e+05
   6.973816e+05  -2.113435e+05
