
 $NMID
 id='ANONYMOUS ', fmtdat='(2E16.6)'
 volume=1.0
 tramp=1.0
 $END
  -3.474475e+07   7.096558e+05
  -2.276658e+07  -1.788234e+07
   1.287795e+06  -2.267395e+07
   1.557287e+07  -1.284940e+07
   1.177278e+07   5.029442e+05
  -1.462667e+05   6.096030e+06
  -6.678220e+06   1.810649e+06
  -4.098752e+06  -5.694114e+06
   2.313858e+06  -8.232036e+06
   6.274056e+06  -3.283015e+06
   5.250527e+06   4.153788e+06
   7.741820e+05   6.559254e+06
  -2.998160e+06   1.651422e+06
  -2.391340e+06  -5.017217e+06
   2.043024e+06  -6.045057e+06
   5.503810e+06  -2.274400e+05
   3.907140e+06   6.593787e+06
  -1.687229e+06   8.241186e+06
  -6.438231e+06   4.113716e+06
  -6.794374e+06  -1.592319e+06
  -3.441031e+06  -4.722205e+06
   5.450661e+04  -4.405900e+06
   7.023760e+05  -2.725467e+06
  -1.220069e+06  -2.267690e+06
  -2.304598e+06  -3.609297e+06
   4.445349e+05  -4.714907e+06
   5.638364e+06  -3.215438e+06
   8.173019e+06   5.769207e+05
   4.941221e+06   3.656963e+06
  -1.102849e+06   3.582648e+06
  -4.081095e+06   9.605697e+05
  -1.818672e+06  -1.584409e+06
   2.306479e+06  -1.998666e+06
   3.907735e+06  -4.619405e+04
   2.155243e+06   2.819415e+06
  -5.694088e+05   4.146706e+06
  -1.890967e+06   2.330473e+06
  -1.314787e+06  -1.131137e+06
   5.581836e+04  -2.403363e+06
   5.941738e+05   1.523711e+05
  -5.134990e+05   3.223316e+06
  -2.182934e+06   2.381015e+06
  -2.153325e+06  -1.818223e+06
   3.845438e+05  -4.075369e+06
   3.225435e+06  -1.177132e+06
   3.138331e+06   3.752258e+06
  -5.112669e+05   5.186837e+06
  -4.733900e+06   1.742784e+06
  -5.704967e+06  -2.911283e+06
  -2.391046e+06  -4.691985e+06
   2.479410e+06  -2.871137e+06
   4.828668e+06   3.623477e+05
   2.885884e+06   2.379103e+06
  -1.153703e+06   1.951399e+06
  -3.278793e+06  -9.244227e+04
  -1.787973e+06  -1.576889e+06
   1.026788e+06  -1.051246e+06
   1.733044e+06   6.176037e+05
  -1.694523e+05   1.284755e+06
  -1.892804e+06   1.382162e+05
  -9.647229e+05  -1.451831e+06
   1.823829e+06  -1.694912e+06
   3.469386e+06  -1.699103e+05
   2.060840e+06   2.198528e+06
  -1.484833e+06   3.966945e+06
  -4.538534e+06   3.726822e+06
  -5.071609e+06   9.749656e+05
  -3.121163e+06  -2.835318e+06
  -4.990007e+05  -4.978176e+06
   9.263822e+05  -4.149311e+06
   8.962955e+05  -1.970012e+06
   6.991666e+05  -9.119730e+05
   1.427130e+06  -1.198554e+06
   2.620119e+06  -9.173378e+05
   2.875052e+06   9.285569e+05
   1.506901e+06   2.791832e+06
  -7.119854e+05   2.509427e+06
  -2.237973e+06   2.037067e+04
  -1.907967e+06  -2.522634e+06
   2.258233e+05  -2.986475e+06
   2.706734e+06  -1.122785e+06
   3.576483e+06   1.518987e+06
   2.133675e+06   3.074937e+06
  -2.147029e+05   2.857749e+06
  -1.442566e+06   1.717617e+06
  -1.265240e+06   9.819706e+05
  -1.306871e+06   9.957196e+05
  -2.673309e+06   8.527866e+05
  -4.135760e+06  -3.861203e+05
  -3.464281e+06  -2.463312e+06
  -2.736670e+05  -4.045185e+06
   3.202831e+06  -3.888309e+06
   4.306181e+06  -1.864361e+06
   2.529642e+06   8.245229e+05
  -1.851790e+05   2.353818e+06
  -1.432117e+06   1.711370e+06
  -5.055019e+05  -1.918766e+05
   1.198754e+06  -1.230321e+06
   1.761362e+06  -3.630109e+05
   7.024436e+05   1.096860e+06
  -6.483422e+05   1.125994e+06
  -7.152486e+05  -3.261786e+05
   5.925063e+05  -1.158293e+06
   1.848471e+06   2.041770e+05
   1.607282e+06   2.722322e+06
  -2.825633e+05   3.853665e+06
  -2.641979e+06   2.334265e+06
  -3.870434e+06  -6.512046e+05
  -3.054285e+06  -2.840708e+06
  -7.267544e+05  -2.959995e+06
   1.354986e+06  -1.538867e+06
   1.675228e+06  -1.530993e+05
   4.973479e+05   3.812762e+04
  -3.843753e+05  -7.358582e+05
   2.776206e+05  -1.230207e+06
   1.673890e+06  -6.000302e+05
   1.944580e+06   6.433233e+05
   5.195635e+05   1.247564e+06
  -1.103991e+06   6.594698e+05
  -1.069234e+06  -4.142041e+05
   7.180146e+05  -8.229564e+05
   2.438162e+06  -7.639799e+04
   2.220563e+06   1.316746e+06
   1.643986e+04   2.281528e+06
  -2.332506e+06   1.948328e+06
  -2.834244e+06   4.070550e+05
  -1.226960e+06  -1.142138e+06
   8.144094e+05  -1.358809e+06
   1.364369e+06  -1.801194e+05
   1.168025e+05   9.728611e+05
  -1.466065e+06   7.304869e+05
  -1.759292e+06  -6.530207e+05
  -5.529427e+05  -1.629555e+06
   9.254587e+05  -1.185704e+06
   1.322745e+06   6.445085e+04
   4.264794e+05   7.045506e+05
  -6.923420e+05   1.042393e+05
  -7.131132e+05  -1.014947e+06
   6.007508e+05  -1.409548e+06
   2.026579e+06  -5.177781e+05
   2.032201e+06   1.050337e+06
   4.246919e+05   2.047813e+06
  -1.344379e+06   1.678403e+06
  -1.701276e+06   3.202578e+05
  -5.978426e+05  -8.214444e+05
   6.037987e+05  -8.696644e+05
   7.379787e+05  -8.058601e+04
  -2.556622e+04   5.497802e+05
  -6.402617e+05   4.120197e+05
  -4.259574e+05  -1.144807e+05
   2.996491e+05  -1.932378e+05
   6.291228e+05   4.550778e+05
  -3.025050e+04   1.166044e+06
  -1.318602e+06   9.767163e+05
  -2.108126e+06  -3.432250e+05
  -1.509268e+06  -1.918699e+06
   1.716338e+05  -2.493884e+06
   1.628854e+06  -1.603227e+06
   1.854305e+06  -1.765996e+04
   1.101238e+06   1.017458e+06
   4.049577e+05   9.714037e+05
   3.237858e+05   4.100577e+05
   4.425174e+05   2.314670e+05
   8.026474e+04   6.421541e+05
  -8.026619e+05   9.704521e+05
  -1.501947e+06   4.717177e+05
  -1.231906e+06  -7.457374e+05
   1.226235e+05  -1.656064e+06
   1.742835e+06  -1.249519e+06
   2.361828e+06   4.068101e+05
   1.295037e+06   2.072722e+06
  -8.193658e+05   2.409041e+06
  -2.439447e+06   1.211849e+06
  -2.476468e+06  -4.493715e+05
  -1.232841e+06  -1.328336e+06
   6.086063e+04  -1.162995e+06
   5.242386e+05  -7.112578e+05
   3.213006e+05  -7.443026e+05
   2.057928e+05  -1.169589e+06
   6.105261e+05  -1.200543e+06
   1.224721e+06  -3.091619e+05
   1.340127e+06   1.087633e+06
   5.801829e+05   1.923668e+06
  -6.278451e+05   1.471625e+06
  -1.322377e+06   5.562946e+04
  -8.952933e+05  -1.211076e+06
   2.449750e+05  -1.412010e+06
   1.028288e+06  -5.814108e+05
   8.191702e+05   4.658889e+05
   5.226861e+04   9.674271e+05
  -3.317267e+05   8.312505e+05
   2.674465e+03   5.035683e+05
   4.104528e+05   3.764864e+05
   4.458194e+04   4.068673e+05
  -1.093829e+06   2.620813e+05
  -2.005791e+06  -2.562046e+05
  -1.660859e+06  -9.532473e+05
  -1.097362e+05  -1.365218e+06
   1.449002e+06  -1.147347e+06
   1.802265e+06  -4.064182e+05
   9.005742e+05   3.232358e+05
  -1.897209e+05   5.070607e+05
  -4.754533e+05   1.106288e+05
   1.012796e+04  -3.306327e+05
   4.972159e+05  -2.423139e+05
   4.763598e+05   3.420343e+05
   1.515098e+05   7.650349e+05
  -5.782124e+03   4.937367e+05
   1.515092e+05  -1.815715e+05
   3.711240e+05  -4.047589e+05
   3.082791e+05   2.186670e+05
  -1.848003e+05   1.048054e+06
  -8.909658e+05   1.078382e+06
  -1.244377e+06   1.228001e+05
  -7.439924e+05  -9.209038e+05
   4.034239e+05  -1.055859e+06
   1.194552e+06  -2.508021e+05
   7.383640e+05   6.090574e+05
  -6.729377e+05   6.971655e+05
  -1.673467e+06  -2.320558e+03
  -1.199247e+06  -8.308049e+05
   3.599620e+05  -1.116595e+06
   1.553507e+06  -6.827022e+05
   1.370067e+06   8.548900e+04
   2.074136e+05   5.510619e+05
  -6.450145e+05   3.429051e+05
  -3.598933e+05  -2.572502e+05
   6.438737e+05  -4.867688e+05
   1.199320e+06   1.505629e+05
   5.997263e+05   1.241929e+06
  -7.011230e+05   1.706775e+06
  -1.565841e+06   8.503805e+05
  -1.293193e+06  -8.034215e+05
  -2.168594e+05  -1.865586e+06
   7.464410e+05  -1.403330e+06
   9.774858e+05   9.777159e+04
   5.362689e+05   1.212956e+06
  -1.188768e+05   1.056720e+06
  -5.507309e+05   1.351910e+05
  -5.545634e+05  -3.993971e+05
  -2.459396e+05  -1.646242e+05
  -1.978795e+04   1.227608e+05
  -1.847005e+05  -2.475277e+05
  -4.987662e+05  -9.663263e+05
  -3.033835e+05  -1.127468e+06
   6.272319e+05  -4.353878e+05
   1.543615e+06   4.617212e+05
   1.418591e+06   8.458966e+05
   2.115886e+05   7.001416e+05
  -9.485291e+05   4.350517e+05
  -1.041074e+06   2.296331e+05
  -3.111073e+05  -5.005721e+03
   1.757821e+05  -2.262917e+05
  -5.210069e+04  -2.561363e+05
  -3.655969e+05  -1.451775e+05
  -1.759104e+04  -1.423164e+05
   7.770508e+05  -2.135057e+05
   1.065739e+06   3.079186e+04
   3.177853e+05   6.925931e+05
  -9.424611e+05   1.162769e+06
  -1.681404e+06   7.246000e+05
  -1.343090e+06  -4.837759e+05
  -2.571080e+05  -1.459894e+06
   7.557858e+05  -1.390684e+06
   1.073864e+06  -5.000807e+05
   6.881062e+05   2.844329e+05
   1.016928e+05   3.661487e+05
  -1.476229e+05   1.628481e+04
   5.561701e+04  -7.740569e+04
   3.523810e+05   3.502986e+05
   2.941680e+05   8.295377e+05
  -1.979325e+05   6.806011e+05
  -7.174001e+05  -1.785748e+05
  -7.138283e+05  -1.030027e+06
  -3.195923e+04  -1.049596e+06
   8.220005e+05  -1.786970e+05
   1.040105e+06   8.090440e+05
   3.101260e+05   1.113264e+06
  -7.423549e+05   6.397488e+05
  -1.109804e+06  -9.447995e+04
  -5.035230e+05  -5.715078e+05
   2.857720e+05  -6.250728e+05
   3.220696e+05  -3.628941e+05
  -3.264778e+05  -3.658136e+04
  -6.865535e+05   3.163957e+04
  -1.272297e+05  -3.016324e+05
   8.451473e+05  -7.117981e+05
   1.230001e+06  -6.163435e+05
   7.124640e+05   1.211072e+05
  -1.011463e+05   8.648653e+05
  -5.000191e+05   8.532751e+05
  -3.644780e+05   1.167652e+05
  -1.908342e+04  -5.215518e+05
   2.572337e+05  -4.094707e+05
   3.661168e+05   2.134955e+05
   2.533435e+05   5.946376e+05
  -6.932363e+04   3.805714e+05
  -3.989033e+05  -7.244953e+04
  -4.676086e+05  -2.415511e+05
  -2.491609e+05  -5.797852e+04
   3.804918e+03   1.036644e+05
   8.483937e+04  -5.982713e+04
   7.562438e+04  -4.037478e+05
   1.748736e+05  -4.941986e+05
   3.664754e+05  -1.086530e+05
   3.866500e+05   4.635831e+05
   4.982353e+04   6.743268e+05
  -4.507413e+05   2.926930e+05
  -6.406351e+05  -3.272373e+05
  -2.296765e+05  -6.140701e+05
   5.011291e+05  -3.678358e+05
   8.690452e+05   1.034314e+05
   4.742839e+05   3.880904e+05
  -3.003585e+05   3.642439e+05
  -6.382784e+05   1.776509e+05
  -2.072783e+05   9.792020e+03
   4.248115e+05  -1.942155e+04
   4.457464e+05   1.354790e+05
  -2.292179e+05   3.415777e+05
  -8.564148e+05   2.776926e+05
