
 $NMID
 id='ANONYMOUS ', fmtdat='(2E16.6)'
 volume=1.0
 tramp=1.0
 $END
   4.173961e+07   1.834780e+05
   2.598171e+07   2.395999e+07
  -3.827238e+06   2.770525e+07
  -1.978787e+07   1.299824e+07
  -1.324993e+07  -2.999432e+06
   1.367172e+06  -7.149690e+06
   7.734507e+06  -6.019452e+05
   3.477948e+06   7.124869e+06
  -3.804071e+06   8.466846e+06
  -7.433840e+06   2.667302e+06
  -5.698928e+06  -4.912740e+06
  -6.420346e+05  -7.191642e+06
   3.335642e+06  -1.947286e+06
   2.338774e+06   5.141513e+06
  -2.736675e+06   6.094265e+06
  -6.255423e+06  -4.271394e+05
  -3.907130e+06  -7.828557e+06
   2.551491e+06  -9.319479e+06
   7.692480e+06  -4.547277e+06
   8.050916e+06   1.856221e+06
   4.405513e+06   5.669709e+06
   1.320691e+05   5.810719e+06
  -1.506310e+06   3.838222e+06
   7.935903e+04   2.418701e+06
   1.766850e+06   3.096619e+06
  -2.928518e+05   4.439219e+06
  -5.528439e+06   3.460228e+06
  -8.550385e+06  -3.557352e+05
  -5.527695e+06  -3.861609e+06
   6.816631e+05  -4.020921e+06
   3.909234e+06  -1.425777e+06
   1.982994e+06   1.037407e+06
  -1.724767e+06   1.544558e+06
  -3.279176e+06   1.110204e+05
  -2.066980e+06  -2.339459e+06
   2.138344e+05  -3.989973e+06
   1.875591e+06  -2.781941e+06
   1.934074e+06   7.786088e+05
   5.155779e+05   2.788514e+06
  -6.351192e+05   5.621142e+05
   2.779140e+05  -2.892564e+06
   2.295546e+06  -2.272394e+06
   2.191605e+06   2.315556e+06
  -1.164028e+06   4.733317e+06
  -4.497030e+06   1.054648e+06
  -3.718487e+06  -4.854315e+06
   1.079937e+06  -6.265576e+06
   5.630163e+06  -1.865994e+06
   5.998666e+06   3.514587e+06
   2.072862e+06   5.140401e+06
  -2.852580e+06   2.726230e+06
  -4.906416e+06  -8.630929e+05
  -2.636159e+06  -2.797376e+06
   1.620447e+06  -1.993774e+06
   3.670248e+06   4.442775e+05
   1.790348e+06   1.993404e+06
  -1.274767e+06   1.131385e+06
  -1.700409e+06  -7.898384e+05
   5.979772e+05  -1.144606e+06
   2.083661e+06   5.582431e+05
   3.834587e+05   2.153008e+06
  -2.804252e+06   1.719666e+06
  -4.065101e+06  -4.271174e+05
  -2.080962e+06  -2.825478e+06
   1.651374e+06  -4.325767e+06
   4.707049e+06  -3.961634e+06
   5.401539e+06  -1.125109e+06
   3.522557e+06   2.964326e+06
   5.448258e+05   5.328599e+06
  -1.325888e+06   4.289336e+06
  -1.233059e+06   1.663964e+06
  -5.286471e+05   4.725737e+05
  -9.244138e+05   1.065956e+06
  -2.242092e+06   1.149221e+06
  -2.788492e+06  -5.675202e+05
  -1.606497e+06  -2.483402e+06
   4.998715e+05  -2.332707e+06
   1.971463e+06  -3.545796e+04
   1.749274e+06   2.376054e+06
  -2.062284e+05   2.924519e+06
  -2.712867e+06   1.236697e+06
  -3.805154e+06  -1.455076e+06
  -2.420059e+06  -3.310277e+06
   2.042382e+05  -3.288677e+06
   1.743927e+06  -2.014097e+06
   1.604035e+06  -9.992173e+05
   1.494809e+06  -8.474931e+05
   2.751098e+06  -6.558590e+05
   4.148498e+06   5.989600e+05
   3.374854e+06   2.611347e+06
   1.338056e+05   4.028901e+06
  -3.246088e+06   3.774461e+06
  -4.244319e+06   1.837764e+06
  -2.524235e+06  -7.264148e+05
   7.133805e+04  -2.277555e+06
   1.335017e+06  -1.737133e+06
   5.171034e+05   1.456735e+05
  -1.171445e+06   1.218879e+06
  -1.801435e+06   3.350460e+05
  -7.496294e+05  -1.137334e+06
   6.203430e+05  -1.096246e+06
   6.012944e+05   3.612513e+05
  -7.793970e+05   9.733140e+05
  -1.831046e+06  -6.220185e+05
  -1.193463e+06  -2.998342e+06
   8.280207e+05  -3.651345e+06
   2.842917e+06  -1.818732e+06
   3.613109e+06   1.012306e+06
   2.677498e+06   2.849184e+06
   5.543128e+05   2.817329e+06
  -1.332336e+06   1.463263e+06
  -1.624362e+06   1.402569e+05
  -4.892952e+05  -5.193021e+04
   3.555922e+05   7.420785e+05
  -3.487680e+05   1.252021e+06
  -1.753077e+06   5.516796e+05
  -1.944409e+06  -7.661533e+05
  -4.406017e+05  -1.308814e+06
   1.131842e+06  -5.991582e+05
   9.856908e+05   4.478138e+05
  -7.750416e+05   6.900118e+05
  -2.320836e+06  -1.213743e+05
  -1.995075e+06  -1.366983e+06
   1.309233e+05  -2.145503e+06
   2.342233e+06  -1.769154e+06
   2.791383e+06  -2.913681e+05
   1.186117e+06   1.202488e+06
  -8.730868e+05   1.379906e+06
  -1.425871e+06   1.529569e+05
  -1.263842e+05  -1.004741e+06
   1.485182e+06  -6.943534e+05
   1.713056e+06   7.319241e+05
   4.330032e+05   1.635158e+06
  -1.004646e+06   1.078519e+06
  -1.286433e+06  -1.837260e+05
  -3.421747e+05  -7.370551e+05
   7.254798e+05  -7.261896e+04
   6.935516e+05   1.032085e+06
  -6.140139e+05   1.386687e+06
  -2.008371e+06   4.782649e+05
  -1.989376e+06  -1.082685e+06
  -3.610134e+05  -2.045992e+06
   1.402951e+06  -1.619326e+06
   1.701563e+06  -2.386550e+05
   5.393694e+05   8.455631e+05
  -6.376232e+05   8.247905e+05
  -6.950534e+05   6.212395e+04
   7.092104e+04  -4.748078e+05
   5.878861e+05  -3.191580e+05
   3.073966e+05   1.049943e+05
  -3.554155e+05   8.559246e+04
  -5.713999e+05  -5.437773e+05
   1.203843e+05  -1.160446e+06
   1.349105e+06  -9.072454e+05
   2.068282e+06   4.115966e+05
   1.435082e+06   1.940246e+06
  -2.415032e+05   2.437037e+06
  -1.643134e+06   1.480157e+06
  -1.775202e+06  -7.765131e+04
  -9.761442e+05  -9.884710e+05
  -3.443366e+05  -8.534106e+05
  -3.658546e+05  -3.417150e+05
  -5.002339e+05  -2.671304e+05
  -6.932572e+04  -6.807494e+05
   8.425199e+05  -9.158022e+05
   1.475603e+06  -3.784022e+05
   1.133303e+06   7.565617e+05
  -2.059343e+05   1.562519e+06
  -1.743654e+06   1.131741e+06
  -2.285192e+06  -4.827607e+05
  -1.176718e+06  -2.089414e+06
   9.331485e+05  -2.350563e+06
   2.478853e+06  -1.079854e+06
   2.395382e+06   5.770348e+05
   1.088675e+06   1.346939e+06
  -1.405375e+05   1.070083e+06
  -4.856367e+05   6.171145e+05
  -2.444796e+05   7.310212e+05
  -1.905716e+05   1.202623e+06
  -6.517632e+05   1.207300e+06
  -1.243737e+06   2.832869e+05
  -1.301411e+06  -1.102247e+06
  -5.237709e+05  -1.905093e+06
   6.508741e+05  -1.429841e+06
   1.296422e+06  -5.070945e+03
   8.294401e+05   1.244657e+06
  -3.268022e+05   1.386668e+06
  -1.080604e+06   4.889021e+05
  -7.986971e+05  -5.640064e+05
   3.329118e+04  -9.991219e+05
   4.219350e+05  -7.983972e+05
   4.135712e+04  -4.666670e+05
  -4.056393e+05  -3.660496e+05
  -4.053434e+04  -3.942785e+05
   1.108007e+06  -2.163701e+05
   1.999772e+06   3.245109e+05
   1.606747e+06   1.009829e+06
   2.532091e+04   1.379733e+06
  -1.510005e+06   1.102471e+06
  -1.803760e+06   3.156937e+05
  -8.605719e+05  -4.031314e+05
   2.246619e+05  -5.209348e+05
   4.866077e+05  -7.074854e+04
  -1.708530e+03   3.600305e+05
  -4.769720e+05   2.342694e+05
  -4.657649e+05  -3.487477e+05
  -1.712628e+05  -7.435293e+05
  -2.187229e+04  -4.821838e+05
  -1.489911e+05   1.433508e+05
  -3.415800e+05   3.495379e+05
  -2.874496e+05  -2.276724e+05
   1.890416e+05  -1.008583e+06
   9.067301e+05  -1.043283e+06
   1.277174e+06  -1.164785e+05
   7.576746e+05   9.230746e+05
  -4.248070e+05   1.067932e+06
  -1.210374e+06   2.566442e+05
  -7.157611e+05  -6.044149e+05
   6.923051e+05  -6.571298e+05
   1.624019e+06   7.459236e+04
   1.094876e+06   8.616531e+05
  -4.288375e+05   1.049063e+06
  -1.532352e+06   5.634401e+05
  -1.301941e+06  -1.554200e+05
  -1.650148e+05  -5.361010e+05
   6.480609e+05  -2.974542e+05
   3.609758e+05   2.761459e+05
  -6.237587e+05   4.824088e+05
  -1.177488e+06  -1.456531e+05
  -5.969580e+05  -1.217017e+06
   6.840337e+05  -1.673820e+06
   1.534786e+06  -8.245386e+05
   1.249691e+06   8.035447e+05
   1.711525e+05   1.822865e+06
  -7.662039e+05   1.331246e+06
  -9.459908e+05  -1.488218e+05
  -4.641557e+05  -1.204829e+06
   1.806673e+05  -1.009799e+06
   5.533332e+05  -1.022729e+05
   5.050939e+05   3.985389e+05
   2.064325e+05   1.575540e+05
   3.427875e+04  -1.103056e+05
   2.178801e+05   2.677067e+05
   4.797955e+05   9.674704e+05
   2.313394e+05   1.104353e+06
  -6.669383e+05   4.032144e+05
  -1.492380e+06  -4.900867e+05
  -1.331535e+06  -8.639007e+05
  -1.847769e+05  -6.976598e+05
   9.087802e+05  -4.052442e+05
   1.012950e+06  -1.868383e+05
   3.298221e+05   3.089906e+04
  -1.658711e+05   2.205150e+05
   8.583326e+03   2.340483e+05
   3.160143e+05   1.299443e+05
   2.904041e+04   1.369964e+05
  -7.244258e+05   2.058790e+05
  -1.048050e+06  -4.184673e+04
  -3.525647e+05  -6.914351e+05
   9.120031e+05  -1.141782e+06
   1.688894e+06  -7.023584e+05
   1.352984e+06   4.805165e+05
   2.360405e+05   1.429130e+06
  -7.800022e+05   1.359521e+06
  -1.063116e+06   4.935908e+05
  -6.625541e+05  -2.715493e+05
  -1.086976e+05  -3.612055e+05
   1.117138e+05  -3.505341e+04
  -6.862381e+04   4.901331e+04
  -3.204063e+05  -3.622449e+05
  -2.559679e+05  -8.194480e+05
   1.998949e+05  -6.713004e+05
   6.919509e+05   1.638190e+05
   7.014705e+05   9.986116e+05
   5.188101e+04   1.033222e+06
  -7.865872e+05   1.943877e+05
  -1.015397e+06  -7.800924e+05
  -3.064286e+05  -1.098995e+06
   7.337621e+05  -6.396509e+05
   1.103900e+06   1.031863e+05
   5.037022e+05   5.942965e+05
  -2.940162e+05   6.402468e+05
  -3.521985e+05   3.579705e+05
   2.864629e+05   3.018825e+04
   6.647931e+05  -2.293930e+04
   1.303007e+05   3.043239e+05
  -8.424619e+05   6.768445e+05
  -1.246337e+06   5.560056e+05
  -7.293255e+05  -1.579553e+05
   1.126739e+05  -8.591129e+05
   5.351930e+05  -8.408552e+05
   3.919225e+05  -1.317775e+05
   2.600759e+04   4.978263e+05
  -2.533547e+05   4.142901e+05
  -3.525404e+05  -1.869249e+05
  -2.419607e+05  -5.864719e+05
   6.658090e+04  -3.986601e+05
   3.908786e+05   6.537400e+04
   4.647827e+05   2.659510e+05
   2.438424e+05   7.999896e+04
  -1.722962e+04  -1.246170e+05
  -8.564221e+04   9.065262e+03
  -4.070254e+04   3.746811e+05
  -1.214215e+05   5.129100e+05
  -3.415821e+05   1.537161e+05
  -4.095882e+05  -4.253948e+05
  -8.944918e+04  -6.563377e+05
   4.316870e+05  -2.934179e+05
   6.418485e+05   3.119078e+05
   2.294717e+05   5.937188e+05
  -5.066777e+05   3.564191e+05
  -8.677767e+05  -1.027896e+05
  -4.672073e+05  -3.879018e+05
   3.004189e+05  -3.744479e+05
   6.365847e+05  -1.908427e+05
   2.268764e+05  -1.118211e+04
  -3.835777e+05   3.530082e+04
  -4.212454e+05  -1.072854e+05
   2.040985e+05  -3.104992e+05
   8.003205e+05  -2.579344e+05
