
 $NMID
 id='ANONYMOUS ', fmtdat='(2E16.6)'
 volume=1.0
 tramp=1.0
 $END
   3.954163e+07   2.475580e+06
   2.277971e+07   2.366648e+07
  -5.153336e+06   2.544443e+07
  -1.872642e+07   1.119714e+07
  -1.179205e+07  -3.056531e+06
   1.526791e+06  -6.366628e+06
   6.932366e+06  -3.953470e+05
   2.975565e+06   6.496384e+06
  -3.539183e+06   7.687003e+06
  -6.843546e+06   2.295650e+06
  -5.252200e+06  -4.827120e+06
  -4.588443e+05  -6.885010e+06
   3.311976e+06  -1.755847e+06
   2.284976e+06   4.972361e+06
  -2.551399e+06   5.703807e+06
  -5.762435e+06  -5.715859e+05
  -3.404858e+06  -7.457162e+06
   2.719149e+06  -8.655082e+06
   7.485077e+06  -3.967157e+06
   7.619634e+06   2.202680e+06
   3.855698e+06   5.760613e+06
  -4.012773e+05   5.565942e+06
  -1.769042e+06   3.296061e+06
   2.012875e+05   1.892431e+06
   2.038527e+06   2.874841e+06
  -1.596349e+05   4.448581e+06
  -5.496042e+06   3.444549e+06
  -8.407054e+06  -4.564647e+05
  -5.276755e+06  -3.935464e+06
   8.683235e+05  -4.042465e+06
   4.021549e+06  -1.427033e+06
   2.141714e+06   1.141435e+06
  -1.575711e+06   1.820285e+06
  -3.321549e+06   3.795190e+05
  -2.249417e+06  -2.298771e+06
   1.557353e+05  -4.067115e+06
   1.988129e+06  -2.684216e+06
   1.951934e+06   1.036590e+06
   2.959774e+05   2.896624e+06
  -8.957184e+05   4.403776e+05
   1.475443e+05  -2.973739e+06
   2.167959e+06  -2.216452e+06
   1.960917e+06   2.192015e+06
  -1.254245e+06   4.241317e+06
  -4.169358e+06   5.812595e+05
  -3.162380e+06  -4.800559e+06
   1.355821e+06  -5.769834e+06
   5.422602e+06  -1.502031e+06
   5.623281e+06   3.423415e+06
   1.940037e+06   4.825703e+06
  -2.658439e+06   2.563435e+06
  -4.598751e+06  -7.639361e+05
  -2.471844e+06  -2.553724e+06
   1.519958e+06  -1.768207e+06
   3.398802e+06   5.116518e+05
   1.600500e+06   1.875196e+06
  -1.235648e+06   1.004957e+06
  -1.604978e+06  -7.206932e+05
   4.612118e+05  -9.708540e+05
   1.738336e+06   5.093520e+05
   1.917919e+05   1.774269e+06
  -2.605854e+06   1.313077e+06
  -3.662920e+06  -5.360467e+05
  -1.810451e+06  -2.668455e+06
   1.695837e+06  -4.135832e+06
   4.641388e+06  -3.824370e+06
   5.292424e+06  -9.998791e+05
   3.369291e+06   3.011456e+06
   4.364319e+05   5.179954e+06
  -1.257752e+06   4.030948e+06
  -1.020166e+06   1.548940e+06
  -3.595905e+05   5.994411e+05
  -9.133473e+05   1.273375e+06
  -2.332270e+06   1.263541e+06
  -2.891711e+06  -5.480535e+05
  -1.702258e+06  -2.499672e+06
   4.289592e+05  -2.395043e+06
   1.971446e+06  -1.540409e+05
   1.811608e+06   2.267791e+06
  -1.548706e+05   2.879630e+06
  -2.688602e+06   1.215487e+06
  -3.731399e+06  -1.489884e+06
  -2.266246e+06  -3.299239e+06
   3.420206e+05  -3.165734e+06
   1.764441e+06  -1.827847e+06
   1.520994e+06  -8.572649e+05
   1.371237e+06  -7.898676e+05
   2.599609e+06  -6.632288e+05
   3.982019e+06   5.248099e+05
   3.281851e+06   2.470308e+06
   1.924957e+05   3.890337e+06
  -3.093813e+06   3.723635e+06
  -4.136671e+06   1.865563e+06
  -2.516212e+06  -7.004016e+05
   3.580683e+04  -2.285699e+06
   1.314209e+06  -1.745972e+06
   5.222464e+05   1.498578e+05
  -1.136160e+06   1.214695e+06
  -1.742757e+06   3.299160e+05
  -7.195549e+05  -1.119537e+06
   5.898064e+05  -1.091092e+06
   5.918724e+05   3.001539e+05
  -6.571286e+05   9.099167e+05
  -1.635276e+06  -5.305073e+05
  -1.142197e+06  -2.723012e+06
   6.228435e+05  -3.392369e+06
   2.534486e+06  -1.796930e+06
   3.438264e+06   8.055400e+05
   2.695422e+06   2.613329e+06
   6.485733e+05   2.704278e+06
  -1.263784e+06   1.464415e+06
  -1.590057e+06   1.742555e+05
  -4.747138e+05  -4.089954e+04
   3.554763e+05   7.115134e+05
  -3.305087e+05   1.197232e+06
  -1.681541e+06   5.294079e+05
  -1.859972e+06  -7.171328e+05
  -4.269997e+05  -1.237102e+06
   1.076286e+06  -5.915202e+05
   9.662213e+05   3.942435e+05
  -6.942424e+05   6.789074e+05
  -2.212643e+06  -2.506625e+04
  -1.976845e+06  -1.225152e+06
   3.538922e+04  -2.062317e+06
   2.205211e+06  -1.773498e+06
   2.689581e+06  -3.429020e+05
   1.152584e+06   1.141610e+06
  -8.430205e+05   1.331357e+06
  -1.374366e+06   1.409231e+05
  -1.173757e+05  -9.816519e+05
   1.431273e+06  -6.892607e+05
   1.657817e+06   6.728221e+05
   4.515275e+05   1.547989e+06
  -9.208495e+05   1.046476e+06
  -1.217539e+06  -1.390730e+05
  -3.380610e+05  -6.807122e+05
   6.943541e+05  -6.723381e+04
   6.843882e+05   9.963721e+05
  -5.791299e+05   1.362517e+06
  -1.950356e+06   4.990087e+05
  -1.950967e+06  -1.021315e+06
  -3.809240e+05  -1.974972e+06
   1.327494e+06  -1.582238e+06
   1.630135e+06  -2.595959e+05
   5.324112e+05   7.958402e+05
  -5.951977e+05   8.044245e+05
  -6.776627e+05   8.513002e+04
   3.106459e+04  -4.583949e+05
   5.446082e+05  -3.507194e+05
   3.221590e+05   5.559126e+04
  -2.979438e+05   8.067331e+04
  -5.384669e+05  -4.923163e+05
   9.225483e+04  -1.103402e+06
   1.281468e+06  -8.988544e+05
   2.007965e+06   3.590837e+05
   1.424767e+06   1.854682e+06
  -1.820548e+05   2.368164e+06
  -1.544208e+06   1.474705e+06
  -1.711136e+06  -1.542364e+04
  -9.927695e+05  -9.120898e+05
  -4.000281e+05  -8.229832e+05
  -3.834810e+05  -3.563580e+05
  -4.715564e+05  -2.750033e+05
  -6.159896e+04  -6.570185e+05
   7.890173e+05  -8.973037e+05
   1.408748e+06  -4.084804e+05
   1.127052e+06   6.893820e+05
  -1.383196e+05   1.512242e+06
  -1.650669e+06   1.140772e+06
  -2.222982e+06  -4.110091e+05
  -1.180557e+06  -1.986658e+06
   8.545408e+05  -2.273349e+06
   2.360263e+06  -1.081829e+06
   2.310702e+06   4.943495e+05
   1.089471e+06   1.249322e+06
  -8.078235e+04   1.029552e+06
  -4.375022e+05   6.362454e+05
  -2.370797e+05   7.501338e+05
  -1.901984e+05   1.180970e+06
  -6.241519e+05   1.170980e+06
  -1.202534e+06   2.848101e+05
  -1.283829e+06  -1.050030e+06
  -5.451231e+05  -1.840724e+06
   6.046891e+05  -1.402288e+06
   1.252832e+06  -3.342422e+04
   8.189465e+05   1.181053e+06
  -2.867162e+05   1.331911e+06
  -1.010663e+06   4.798985e+05
  -7.515787e+05  -5.244567e+05
   2.487350e+04  -9.412024e+05
   3.816395e+05  -7.545210e+05
   1.614557e+04  -4.444199e+05
  -4.058352e+05  -3.536290e+05
  -4.943685e+04  -3.857410e+05
   1.063305e+06  -2.231358e+05
   1.935882e+06   2.873668e+05
   1.567818e+06   9.453608e+05
   4.240505e+04   1.316280e+06
  -1.443273e+06   1.075707e+06
  -1.727350e+06   3.367954e+05
  -8.199328e+05  -3.611673e+05
   2.160545e+05  -4.969841e+05
   4.588518e+05  -7.466880e+04
  -1.016944e+04   3.521805e+05
  -4.634768e+05   2.432131e+05
  -4.581424e+05  -3.315388e+05
  -1.813785e+05  -7.364949e+05
  -2.738552e+04  -4.840576e+05
  -1.297013e+05   1.477821e+05
  -3.134129e+05   3.642677e+05
  -2.836423e+05  -2.110242e+05
   1.587382e+05  -9.933829e+05
   8.624775e+05  -1.029349e+06
   1.243909e+06  -1.147070e+05
   7.488983e+05   9.018227e+05
  -4.077004e+05   1.040422e+06
  -1.183201e+06   2.565750e+05
  -7.114809e+05  -5.763435e+05
   6.532379e+05  -6.475726e+05
   1.568548e+06   2.870556e+04
   1.081299e+06   7.881797e+05
  -3.745644e+05   1.012748e+06
  -1.450778e+06   5.896521e+05
  -1.257374e+06  -1.042699e+05
  -1.777960e+05  -5.085624e+05
   6.136503e+05  -3.017146e+05
   3.485923e+05   2.653310e+05
  -6.070592e+05   4.870018e+05
  -1.159197e+06  -1.232581e+05
  -6.066355e+05  -1.187885e+06
   6.423988e+05  -1.656407e+06
   1.488167e+06  -8.378580e+05
   1.236750e+06   7.572527e+05
   2.079429e+05   1.770372e+06
  -7.064612e+05   1.312074e+06
  -9.116958e+05  -1.179586e+05
  -4.782356e+05  -1.148160e+06
   1.414755e+05  -9.722310e+05
   5.279671e+05  -1.084934e+05
   5.048307e+05   3.662218e+05
   2.110578e+05   1.378118e+05
   2.587484e+04  -1.040365e+05
   2.042323e+05   2.706981e+05
   4.811108e+05   9.351372e+05
   2.548303e+05   1.053630e+06
  -6.318951e+05   3.896462e+05
  -1.461146e+06  -4.417136e+05
  -1.315708e+06  -7.965480e+05
  -1.921494e+05  -6.712056e+05
   8.788164e+05  -4.250143e+05
   9.766880e+05  -2.091108e+05
   3.110337e+05   3.119233e+04
  -1.590870e+05   2.219972e+05
   2.460364e+04   2.145909e+05
   3.226978e+05   1.066419e+05
   3.057795e+04   1.392213e+05
  -7.106814e+05   2.303803e+05
  -1.024625e+06  -2.243600e+04
  -3.485314e+05  -6.873853e+05
   8.771163e+05  -1.141505e+06
   1.637315e+06  -7.042943e+05
   1.329885e+06   4.612335e+05
   2.599741e+05   1.392538e+06
  -7.352934e+05   1.333501e+06
  -1.035091e+06   4.990524e+05
  -6.597461e+05  -2.509676e+05
  -1.111526e+05  -3.561654e+05
   1.206686e+05  -4.732429e+04
  -5.412239e+04   4.695539e+04
  -3.164995e+05  -3.377601e+05
  -2.671156e+05  -7.863470e+05
   1.854280e+05  -6.596858e+05
   6.880496e+05   1.455201e+05
   7.104646e+05   9.698966e+05
   6.506878e+04   1.020921e+06
  -7.785607e+05   2.101250e+05
  -1.016266e+06  -7.474930e+05
  -3.170887e+05  -1.073357e+06
   7.131170e+05  -6.371533e+05
   1.079451e+06   8.668580e+04
   4.903693e+05   5.745087e+05
  -2.865977e+05   6.250952e+05
  -3.361047e+05   3.428730e+05
   2.878893e+05   1.168174e+04
   6.499863e+05  -3.870891e+04
   1.293035e+05   2.975902e+05
  -8.049052e+05   6.763315e+05
  -1.189500e+06   5.575396e+05
  -6.994145e+05  -1.496750e+05
   9.817739e+04  -8.385484e+05
   5.067380e+05  -8.164957e+05
   3.851601e+05  -1.205722e+05
   3.895546e+04   4.926883e+05
  -2.462582e+05   4.092526e+05
  -3.590697e+05  -1.772571e+05
  -2.473501e+05  -5.684075e+05
   6.858100e+04  -3.900461e+05
   3.871045e+05   5.781984e+04
   4.485787e+05   2.518645e+05
   2.316004e+05   7.123492e+04
  -8.361216e+03  -1.247068e+05
  -6.386321e+04   1.530778e+04
  -2.883755e+04   3.843223e+05
  -1.272759e+05   5.221606e+05
  -3.534023e+05   1.584275e+05
  -4.175827e+05  -4.258369e+05
  -9.661422e+04  -6.593858e+05
   4.222921e+05  -2.990479e+05
   6.375650e+05   3.012532e+05
   2.386713e+05   5.814454e+05
  -4.875352e+05   3.533128e+05
  -8.512631e+05  -9.156456e+04
  -4.622927e+05  -3.724683e+05
   2.944422e+05  -3.684453e+05
   6.267810e+05  -1.923351e+05
   2.202538e+05  -5.449467e+03
  -3.862576e+05   5.255055e+04
  -4.273549e+05  -9.460184e+04
   1.876040e+05  -3.194610e+05
   7.799374e+05  -2.847198e+05
