
 $NMID
 id='ANONYMOUS ', fmtdat='(2E16.6)'
 volume=1.0
 tramp=1.0
 $END
   3.428870e+07  -3.896367e+06
   2.431986e+07   1.605942e+07
   5.944728e+05   2.290711e+07
  -1.470652e+07   1.388822e+07
  -1.187816e+07   3.500817e+04
  -1.628622e+05  -6.210818e+06
   6.658201e+06  -2.092383e+06
   4.382400e+06   5.538458e+06
  -1.934436e+06   8.273402e+06
  -6.080109e+06   3.585277e+06
  -5.436365e+06  -3.699006e+06
  -1.192163e+06  -6.319738e+06
   2.777204e+06  -1.843272e+06
   2.595674e+06   4.671120e+06
  -1.683747e+06   6.001583e+06
  -5.450500e+06   5.702215e+05
  -4.318350e+06  -6.219754e+06
   1.055057e+06  -8.231193e+06
   5.976492e+06  -4.565076e+06
   6.779949e+06   9.265448e+05
   3.869377e+06   4.256584e+06
   4.880563e+05   4.385389e+06
  -4.533667e+05   2.951223e+06
   1.116602e+06   2.281959e+06
   2.227653e+06   3.267873e+06
  -1.429915e+05   4.423271e+06
  -5.087050e+06   3.430976e+06
  -7.826596e+06   6.009538e+04
  -5.055610e+06  -3.119088e+06
   6.919971e+05  -3.494005e+06
   3.728084e+06  -1.221300e+06
   1.770806e+06   1.274452e+06
  -2.042592e+06   1.863647e+06
  -3.578736e+06   1.856437e+05
  -2.099680e+06  -2.470873e+06
   2.709151e+05  -3.865567e+06
   1.574098e+06  -2.383175e+06
   1.355267e+06   8.387772e+05
   2.546496e+05   2.258832e+06
  -4.569522e+05   2.613153e+04
   3.028356e+05  -2.989014e+06
   1.956254e+06  -2.389269e+06
   2.243322e+06   1.680516e+06
  -1.354233e+05   4.149398e+06
  -3.233806e+06   1.521323e+06
  -3.513852e+06  -3.457325e+06
   6.261716e+04  -5.244977e+06
   4.514121e+06  -2.132219e+06
   5.752609e+06   2.455417e+06
   2.581466e+06   4.433685e+06
  -2.272240e+06   2.915939e+06
  -4.706572e+06  -1.246502e+05
  -2.899629e+06  -2.206392e+06
   1.071819e+06  -2.016716e+06
   3.257793e+06  -1.109395e+05
   1.858118e+06   1.476424e+06
  -9.524467e+05   1.124663e+06
  -1.707354e+06  -5.244958e+05
   1.924066e+05  -1.288276e+06
   1.950894e+06  -1.520259e+05
   1.024925e+06   1.557499e+06
  -1.794447e+06   1.902597e+06
  -3.484804e+06   3.722289e+05
  -2.199555e+06  -2.061521e+06
   1.124092e+06  -3.932051e+06
   4.048959e+06  -3.871537e+06
   4.768730e+06  -1.318650e+06
   3.220152e+06   2.444221e+06
   8.419908e+05   4.738064e+06
  -6.769402e+05   4.077361e+06
  -8.434641e+05   1.912774e+06
  -6.443063e+05   7.865317e+05
  -1.200155e+06   1.112442e+06
  -2.314580e+06   1.017051e+06
  -2.709166e+06  -6.468263e+05
  -1.569298e+06  -2.486267e+06
   5.176776e+05  -2.362898e+06
   2.080435e+06  -1.139522e+05
   1.915782e+06   2.282798e+06
  -4.063024e+04   2.836421e+06
  -2.482554e+06   1.252117e+06
  -3.511422e+06  -1.170220e+06
  -2.297257e+06  -2.772818e+06
  -4.665872e+04  -2.789870e+06
   1.258727e+06  -1.814436e+06
   1.188143e+06  -1.065887e+06
   1.230646e+06  -1.030698e+06
   2.525016e+06  -9.569099e+05
   3.978700e+06   1.386046e+05
   3.443662e+06   2.157136e+06
   4.855090e+05   3.837804e+06
  -2.816722e+06   3.872347e+06
  -3.958419e+06   2.017490e+06
  -2.433777e+06  -6.124780e+05
   2.334309e+04  -2.213100e+06
   1.237331e+06  -1.697565e+06
   4.915283e+05   1.464808e+05
  -1.060719e+06   1.239465e+06
  -1.668056e+06   4.544781e+05
  -7.505740e+05  -1.002142e+06
   5.550459e+05  -1.102988e+06
   6.946918e+05   2.937666e+05
  -5.546933e+05   1.144493e+06
  -1.841543e+06  -1.469009e+05
  -1.672156e+06  -2.599560e+06
   1.602592e+05  -3.732482e+06
   2.483970e+06  -2.322765e+06
   3.722402e+06   4.861852e+05
   3.002456e+06   2.571392e+06
   8.168335e+05   2.764621e+06
  -1.196950e+06   1.522225e+06
  -1.571313e+06   2.339596e+05
  -4.736683e+05  -1.131186e+04
   4.090394e+05   6.815397e+05
  -1.941394e+05   1.204666e+06
  -1.576057e+06   6.816010e+05
  -1.911933e+06  -5.138480e+05
  -5.694251e+05  -1.184418e+06
   1.026968e+06  -6.968298e+05
   1.040866e+06   3.457652e+05
  -6.555533e+05   8.184704e+05
  -2.319924e+06   1.772373e+05
  -2.159684e+06  -1.154843e+06
  -1.109987e+05  -2.165143e+06
   2.122598e+06  -1.963953e+06
   2.675178e+06  -5.325427e+05
   1.236919e+06   1.028260e+06
  -6.975990e+05   1.354945e+06
  -1.301716e+06   2.593832e+05
  -1.794311e+05  -9.237645e+05
   1.356979e+06  -7.838470e+05
   1.717741e+06   5.330128e+05
   6.055854e+05   1.537369e+06
  -8.410920e+05   1.180751e+06
  -1.279553e+06  -7.357803e+03
  -4.433490e+05  -6.691860e+05
   6.631272e+05  -1.514153e+05
   7.460067e+05   9.190107e+05
  -4.803016e+05   1.373342e+06
  -1.888760e+06   6.118027e+05
  -1.990203e+06  -8.790834e+05
  -5.193304e+05  -1.925670e+06
   1.192049e+06  -1.674710e+06
   1.609823e+06  -3.915976e+05
   6.122696e+05   7.626901e+05
  -5.358773e+05   8.651944e+05
  -6.969720e+05   1.110186e+05
   5.559439e+03  -5.234633e+05
   5.878373e+05  -4.118098e+05
   3.933164e+05   9.822599e+04
  -2.945499e+05   1.955603e+05
  -6.281714e+05  -4.117723e+05
  -3.077970e+04  -1.117269e+06
   1.201178e+06  -1.000853e+06
   2.021643e+06   2.095514e+05
   1.540296e+06   1.737590e+06
  -3.044925e+04   2.374770e+06
  -1.469880e+06   1.600898e+06
  -1.759360e+06   9.932858e+04
  -1.076555e+06  -9.164665e+05
  -4.070768e+05  -8.882579e+05
  -3.222368e+05  -3.480055e+05
  -4.468932e+05  -1.824662e+05
  -1.212430e+05  -6.053147e+05
   7.121301e+05  -9.628244e+05
   1.398707e+06  -5.203314e+05
   1.194202e+06   6.448389e+05
  -4.209762e+04   1.571389e+06
  -1.588962e+06   1.272077e+06
  -2.260545e+06  -2.621630e+05
  -1.341253e+06  -1.905044e+06
   6.519336e+05  -2.345018e+06
   2.264774e+06  -1.287308e+06
   2.385201e+06   3.073032e+05
   1.231360e+06   1.213358e+06
  -1.604034e+04   1.106925e+06
  -4.650925e+05   6.833362e+05
  -2.495439e+05   7.059132e+05
  -1.141905e+05   1.120333e+06
  -5.084194e+05   1.182415e+06
  -1.147332e+06   3.683604e+05
  -1.332406e+06  -9.556431e+05
  -6.563514e+05  -1.792675e+06
   5.147943e+05  -1.430302e+06
   1.255142e+06  -1.228061e+05
   9.204980e+05   1.107902e+06
  -1.605913e+05   1.364181e+06
  -9.629286e+05   6.124046e+05
  -8.212913e+05  -4.064890e+05
  -1.050533e+05  -9.334010e+05
   2.804799e+05  -8.218599e+05
  -1.922252e+04  -4.810600e+05
  -4.062632e+05  -3.291839e+05
  -6.334171e+04  -3.789571e+05
   1.026967e+06  -3.116903e+05
   1.922512e+06   1.269593e+05
   1.633502e+06   8.159684e+05
   1.822218e+05   1.303994e+06
  -1.315076e+06   1.182149e+06
  -1.698874e+06   4.839141e+05
  -8.843144e+05  -2.691077e+05
   1.490369e+05  -4.996414e+05
   4.517648e+05  -1.311173e+05
   1.698205e+04   3.127715e+05
  -4.541303e+05   2.512204e+05
  -4.693971e+05  -2.977063e+05
  -1.859553e+05  -7.051437e+05
  -2.494412e+04  -4.588938e+05
  -1.391892e+05   1.745693e+05
  -3.323594e+05   3.924793e+05
  -3.029264e+05  -1.896689e+05
   1.176634e+05  -9.938555e+05
   7.812426e+05  -1.072419e+06
   1.170418e+06  -2.015203e+05
   7.611606e+05   8.190729e+05
  -3.146778e+05   1.027376e+06
  -1.111705e+06   3.141334e+05
  -7.297443e+05  -5.342401e+05
   6.040909e+05  -6.981418e+05
   1.589545e+06  -7.962683e+04
   1.176501e+06   7.377396e+05
  -2.949956e+05   1.082459e+06
  -1.448558e+06   7.202495e+05
  -1.306085e+06  -2.003161e+04
  -2.212852e+05  -5.153960e+05
   5.990697e+05  -3.594071e+05
   3.611760e+05   2.224907e+05
  -5.758554e+05   4.947622e+05
  -1.137973e+06  -7.210798e+04
  -6.365497e+05  -1.133086e+06
   5.631025e+05  -1.645982e+06
   1.428388e+06  -8.875219e+05
   1.264047e+06   6.898079e+05
   3.028937e+05   1.752782e+06
  -6.375509e+05   1.365953e+06
  -9.364628e+05  -4.523579e+04
  -5.708235e+05  -1.127213e+06
   6.425012e+04  -1.014081e+06
   5.189417e+05  -1.593429e+05
   5.426223e+05   3.537755e+05
   2.369160e+05   1.487361e+05
   1.616810e+04  -1.192044e+05
   1.982202e+05   2.164760e+05
   5.283172e+05   8.862540e+05
   3.419238e+05   1.060513e+06
  -5.774086e+05   4.553054e+05
  -1.485878e+06  -3.567579e+05
  -1.384726e+06  -7.339237e+05
  -2.388373e+05  -6.531153e+05
   8.708485e+05  -4.553171e+05
   9.750074e+05  -2.690275e+05
   3.016808e+05  -1.600904e+04
  -1.529154e+05   2.213368e+05
   5.426201e+04   2.460484e+05
   3.449761e+05   1.238243e+05
   2.614840e+04   1.293346e+05
  -7.155617e+05   2.360165e+05
  -1.008208e+06   3.140327e+04
  -3.459210e+05  -6.254798e+05
   8.198512e+05  -1.145364e+06
   1.548115e+06  -7.858381e+05
   1.296629e+06   3.715546e+05
   3.221806e+05   1.362877e+06
  -6.372230e+05   1.360346e+06
  -9.820546e+05   5.347450e+05
  -6.608848e+05  -2.300009e+05
  -1.187039e+05  -3.366689e+05
   1.296154e+05  -1.812881e+04
  -5.571368e+04   7.647364e+04
  -3.535524e+05  -3.174403e+05
  -3.226064e+05  -7.727353e+05
   1.471809e+05  -6.545223e+05
   6.821340e+05   1.284381e+05
   7.283637e+05   9.279134e+05
   9.255669e+04   9.822509e+05
  -7.573842e+05   2.120803e+05
  -1.021166e+06  -7.026810e+05
  -3.567056e+05  -1.030520e+06
   6.600854e+05  -6.466866e+05
   1.053915e+06   2.323738e+04
   5.157686e+05   5.101584e+05
  -2.278387e+05   6.108122e+05
  -2.856740e+05   3.694714e+05
   3.040977e+05   2.399730e+04
   6.450408e+05  -6.577233e+04
   1.392726e+05   2.760776e+05
  -7.618782e+05   7.188239e+05
  -1.138905e+06   6.542199e+05
  -6.900811e+05  -7.067937e+04
   4.531361e+04  -8.243167e+05
   4.262232e+05  -8.425038e+05
   3.357341e+05  -1.404935e+05
   4.476881e+04   4.865066e+05
  -2.158996e+05   4.013306e+05
  -3.503860e+05  -1.794982e+05
  -2.721385e+05  -5.471941e+05
   3.748440e+04  -3.644131e+05
   3.782845e+05   4.517860e+04
   4.615079e+05   2.026294e+05
   2.431912e+05   4.315042e+04
  -1.652976e+04  -9.654993e+04
  -8.866046e+04   5.646338e+04
  -4.995002e+04   3.741223e+05
  -1.247527e+05   4.660312e+05
  -3.257214e+05   1.235146e+05
  -3.862271e+05  -4.042584e+05
  -8.797382e+04  -6.215546e+05
   4.049886e+05  -2.990560e+05
   6.205828e+05   2.674628e+05
   2.493586e+05   5.628721e+05
  -4.533230e+05   3.777345e+05
  -8.257485e+05  -4.451594e+04
  -4.704033e+05  -3.387670e+05
   2.587336e+05  -3.631705e+05
   5.881472e+05  -2.074827e+05
   1.966359e+05  -2.640710e+04
  -3.917835e+05   3.623865e+04
  -4.197144e+05  -1.036878e+05
   2.002676e+05  -3.272278e+05
   7.899791e+05  -2.988111e+05
