
 $NMID
 id='ANONYMOUS ', fmtdat='(2E16.6)'
 volume=1.0
 tramp=1.0
 $END
  -2.907217e+07   1.544557e+06
  -1.964101e+07  -1.460188e+07
   5.681335e+05  -1.922013e+07
   1.294422e+07  -1.105857e+07
   9.977886e+06   3.839010e+05
  -7.586231e+04   5.193127e+06
  -5.646588e+06   1.535523e+06
  -3.483095e+06  -4.796831e+06
   1.917728e+06  -6.905614e+06
   5.251192e+06  -2.796779e+06
   4.441273e+06   3.363879e+06
   7.461951e+05   5.416200e+06
  -2.436836e+06   1.437965e+06
  -2.016010e+06  -4.086027e+06
   1.659249e+06  -5.024480e+06
   4.617726e+06  -2.554159e+05
   3.373804e+06   5.448419e+06
  -1.265064e+06   6.916801e+06
  -5.279369e+06   3.579444e+06
  -5.697474e+06  -1.131909e+06
  -3.035725e+06  -3.811105e+06
  -1.521571e+05  -3.708226e+06
   5.168689e+05  -2.409446e+06
  -9.236664e+05  -1.952492e+06
  -1.820942e+06  -2.914434e+06
   3.182112e+05  -3.808451e+06
   4.527034e+06  -2.701099e+06
   6.688573e+06   3.207874e+05
   4.147719e+06   2.894520e+06
  -7.796928e+05   2.942024e+06
  -3.262172e+06   8.607157e+05
  -1.468949e+06  -1.204678e+06
   1.844645e+06  -1.559771e+06
   3.119173e+06  -2.942537e+04
   1.732446e+06   2.237346e+06
  -4.025825e+05   3.337950e+06
  -1.473813e+06   1.959705e+06
  -1.110246e+06  -8.196589e+05
  -7.109704e+04  -1.945753e+06
   4.237206e+05   4.507114e+04
  -3.900268e+05   2.580352e+06
  -1.772715e+06   1.965354e+06
  -1.826004e+06  -1.503795e+06
   2.798260e+05  -3.464705e+06
   2.749734e+06  -1.104683e+06
   2.762218e+06   3.074406e+06
  -3.085003e+05   4.391644e+06
  -3.913024e+06   1.571987e+06
  -4.769945e+06  -2.337155e+06
  -2.014752e+06  -3.870367e+06
   2.039509e+06  -2.390660e+06
   3.996399e+06   2.817607e+05
   2.393232e+06   1.973026e+06
  -9.634842e+05   1.654076e+06
  -2.747622e+06  -3.658811e+04
  -1.514163e+06  -1.308969e+06
   8.439059e+05  -9.016427e+05
   1.433767e+06   5.052045e+05
  -1.793539e+05   1.078397e+06
  -1.627107e+06   8.459784e+04
  -8.137535e+05  -1.297065e+06
   1.559115e+06  -1.498077e+06
   2.938856e+06  -1.760218e+05
   1.764989e+06   1.826735e+06
  -1.147384e+06   3.298288e+06
  -3.650205e+06   3.125312e+06
  -4.139305e+06   8.967278e+05
  -2.625837e+06  -2.250589e+06
  -4.988800e+05  -4.081781e+06
   7.353073e+05  -3.443010e+06
   7.702787e+05  -1.615667e+06
   5.832181e+05  -6.904008e+05
   1.111598e+06  -9.330894e+05
   2.066378e+06  -7.665107e+05
   2.313206e+06   6.962108e+05
   1.242216e+06   2.220902e+06
  -5.485901e+05   2.019149e+06
  -1.799396e+06   1.914834e+04
  -1.556702e+06  -2.037003e+06
   1.544863e+05  -2.430966e+06
   2.184932e+06  -9.577824e+05
   2.948806e+06   1.170800e+06
   1.822493e+06   2.478412e+06
  -1.022556e+05   2.371439e+06
  -1.157258e+06   1.471549e+06
  -1.049945e+06   8.468902e+05
  -1.084850e+06   8.296703e+05
  -2.194529e+06   7.148197e+05
  -3.396003e+06  -2.856721e+05
  -2.856948e+06  -1.990366e+06
  -2.549463e+05  -3.305923e+06
   2.580351e+06  -3.199633e+06
   3.485705e+06  -1.560543e+06
   2.062844e+06   6.351016e+05
  -1.202315e+05   1.903959e+06
  -1.137849e+06   1.405130e+06
  -4.126639e+05  -1.460725e+05
   9.621450e+05  -1.014384e+06
   1.440101e+06  -3.173707e+05
   5.940854e+05   8.870167e+05
  -5.175387e+05   9.214902e+05
  -5.814135e+05  -2.718387e+05
   5.044462e+05  -9.527609e+05
   1.547630e+06   1.848955e+05
   1.328472e+06   2.265443e+06
  -2.572371e+05   3.177050e+06
  -2.194275e+06   1.903065e+06
  -3.171115e+06  -5.454804e+05
  -2.486553e+06  -2.317336e+06
  -5.964224e+05  -2.407140e+06
   1.091878e+06  -1.260047e+06
   1.360436e+06  -1.372019e+05
   4.063008e+05   2.794982e+04
  -3.202873e+05  -5.990177e+05
   2.165284e+05  -1.015787e+06
   1.370560e+06  -5.120086e+05
   1.605741e+06   5.142734e+05
   4.369813e+05   1.026140e+06
  -9.015800e+05   5.491435e+05
  -8.736248e+05  -3.358008e+05
   5.920651e+05  -6.728740e+05
   1.993661e+06  -6.204918e+04
   1.809179e+06   1.073029e+06
   1.349493e+04   1.860799e+06
  -1.896785e+06   1.599291e+06
  -2.313006e+06   3.490121e+05
  -1.015204e+06  -9.275001e+05
   6.526013e+05  -1.125228e+06
   1.119565e+06  -1.653846e+05
   1.106777e+05   7.948790e+05
  -1.192508e+06   6.114586e+05
  -1.445541e+06  -5.241855e+05
  -4.588125e+05  -1.334913e+06
   7.592514e+05  -9.754838e+05
   1.088273e+06   5.208045e+04
   3.519508e+05   5.817474e+05
  -5.693419e+05   9.492193e+04
  -5.939709e+05  -8.213916e+05
   4.753935e+05  -1.155057e+06
   1.647239e+06  -4.407287e+05
   1.667685e+06   8.394105e+05
   3.636512e+05   1.670392e+06
  -1.088163e+06   1.383699e+06
  -1.391662e+06   2.722671e+05
  -4.938906e+05  -6.719111e+05
   4.902261e+05  -7.160075e+05
   5.997050e+05  -6.858810e+04
  -2.450635e+04   4.465155e+05
  -5.205217e+05   3.308306e+05
  -3.372147e+05  -9.782534e+04
   2.561196e+05  -1.562057e+05
   5.202478e+05   3.765214e+05
  -1.988961e+04   9.577655e+05
  -1.072125e+06   8.073461e+05
  -1.724441e+06  -2.653021e+05
  -1.247117e+06  -1.555138e+06
   1.235294e+05  -2.035844e+06
   1.322765e+06  -1.315181e+06
   1.512977e+06  -1.874558e+04
   8.942752e+05   8.266690e+05
   3.234347e+05   7.825046e+05
   2.651467e+05   3.201508e+05
   3.713557e+05   1.806931e+05
   7.512270e+04   5.258933e+05
  -6.513815e+05   7.977988e+05
  -1.223780e+06   3.902527e+05
  -1.003383e+06  -6.033780e+05
   9.743247e+04  -1.349458e+06
   1.416414e+06  -1.027190e+06
   1.929134e+06   3.184773e+05
   1.070219e+06   1.686936e+06
  -6.556458e+05   1.978382e+06
  -1.990399e+06   1.007548e+06
  -2.028582e+06  -3.573987e+05
  -1.008831e+06  -1.084421e+06
   5.251286e+04  -9.480437e+05
   4.248828e+05  -5.733619e+05
   2.479646e+05  -6.013977e+05
   1.500758e+05  -9.567866e+05
   4.870311e+05  -9.897924e+05
   9.987005e+05  -2.653676e+05
   1.102377e+06   8.761462e+05
   4.878634e+05   1.564881e+06
  -5.010671e+05   1.205034e+06
  -1.079796e+06   5.354884e+04
  -7.409900e+05  -9.859761e+05
   1.931644e+05  -1.159196e+06
   8.448967e+05  -4.826737e+05
   6.806103e+05   3.806229e+05
   4.940695e+04   7.987290e+05
  -2.716873e+05   6.872516e+05
   3.353932e+02   4.116436e+05
   3.367564e+05   3.016071e+05
   3.908300e+04   3.299442e+05
  -8.935365e+05   2.231406e+05
  -1.642691e+06  -1.923771e+05
  -1.364815e+06  -7.678432e+05
  -9.948896e+04  -1.120656e+06
   1.176986e+06  -9.534938e+05
   1.473101e+06  -3.439088e+05
   7.421594e+05   2.639440e+05
  -1.503715e+05   4.197514e+05
  -3.908698e+05   9.317599e+04
   1.255328e+03  -2.707372e+05
   4.016042e+05  -1.997171e+05
   3.913592e+05   2.751533e+05
   1.310440e+05   6.176199e+05
   1.778273e+03   3.985276e+05
   1.248801e+05  -1.459451e+05
   3.004812e+05  -3.263816e+05
   2.523653e+05   1.768535e+05
  -1.429544e+05   8.522167e+05
  -7.178494e+05   8.869192e+05
  -1.015018e+06   1.170840e+05
  -6.175555e+05  -7.402585e+05
   3.171675e+05  -8.675380e+05
   9.706992e+05  -2.195687e+05
   6.056964e+05   4.898252e+05
  -5.460891e+05   5.738567e+05
  -1.366240e+06   5.562362e+03
  -9.803868e+05  -6.764409e+05
   2.933432e+05  -9.146849e+05
   1.268007e+06  -5.613138e+05
   1.118325e+06   6.694521e+04
   1.701132e+05   4.496183e+05
  -5.264814e+05   2.832559e+05
  -2.982378e+05  -2.068634e+05
   5.176540e+05  -4.013940e+05
   9.762897e+05   1.109235e+05
   4.995991e+05   1.003108e+06
  -5.541428e+05   1.393525e+06
  -1.266124e+06   7.046005e+05
  -1.058593e+06  -6.446311e+05
  -1.890893e+05  -1.518266e+06
   6.013722e+05  -1.147361e+06
   7.998201e+05   7.607552e+04
   4.436716e+05   9.885570e+05
  -9.462116e+04   8.645608e+05
  -4.504822e+05   1.140389e+05
  -4.521293e+05  -3.239805e+05
  -1.984035e+05  -1.347859e+05
  -1.727919e+04   1.007360e+05
  -1.579570e+05  -1.977114e+05
  -4.156195e+05  -7.835932e+05
  -2.515029e+05  -9.205974e+05
   5.125323e+05  -3.631174e+05
   1.261157e+06   3.665311e+05
   1.159591e+06   6.836083e+05
   1.776380e+05   5.703193e+05
  -7.675799e+05   3.582597e+05
  -8.474483e+05   1.922437e+05
  -2.575114e+05  -7.693231e+02
   1.405825e+05  -1.848075e+05
  -3.940650e+04  -2.107002e+05
  -2.938473e+05  -1.178885e+05
  -1.641152e+04  -1.139632e+05
   6.269574e+05  -1.765203e+05
   8.680379e+05   1.584107e+04
   2.691656e+05   5.568491e+05
  -7.544503e+05   9.526720e+05
  -1.364247e+06   6.077460e+05
  -1.099575e+06  -3.778770e+05
  -2.206812e+05  -1.185778e+06
   6.051259e+05  -1.140895e+06
   8.686683e+05  -4.176073e+05
   5.601898e+05   2.254474e+05
   8.706069e+04   2.958592e+05
  -1.151947e+05   1.272941e+04
   4.835366e+04  -6.273613e+04
   2.895952e+05   2.855384e+05
   2.448650e+05   6.754520e+05
  -1.546745e+05   5.561050e+05
  -5.828093e+05  -1.387920e+05
  -5.887013e+05  -8.297783e+05
  -3.755233e+04  -8.512145e+05
   6.631321e+05  -1.522409e+05
   8.511081e+05   6.476930e+05
   2.630920e+05   9.024658e+05
  -5.968030e+05   5.282955e+05
  -9.052437e+05  -6.590646e+04
  -4.187998e+05  -4.615263e+05
   2.247548e+05  -5.142560e+05
   2.610681e+05  -3.019548e+05
  -2.624309e+05  -2.992377e+04
  -5.578705e+05   3.042647e+04
  -1.074294e+05  -2.441013e+05
   6.838218e+05  -5.860127e+05
   1.002428e+06  -5.124980e+05
   5.867010e+05   9.194868e+04
  -7.434324e+04   7.062362e+05
  -4.018438e+05   7.030660e+05
  -2.961123e+05   1.031040e+05
  -1.936899e+04  -4.219367e+05
   2.041426e+05  -3.362443e+05
   2.966753e+05   1.691472e+05
   2.111461e+05   4.819824e+05
  -5.016976e+04   3.118313e+05
  -3.243304e+05  -5.486725e+04
  -3.858059e+05  -1.937809e+05
  -2.053914e+05  -4.676931e+04
   7.494057e+03   8.464259e+04
   7.373334e+04  -4.574755e+04
   5.736902e+04  -3.237760e+05
   1.308411e+05  -4.003797e+05
   2.906777e+05  -9.349317e+04
   3.178678e+05   3.679251e+05
   4.927033e+04   5.431062e+05
  -3.622537e+05   2.414187e+05
  -5.238224e+05  -2.580669e+05
  -1.917248e+05  -4.959270e+05
   4.056224e+05  -3.047658e+05
   7.087088e+05   7.467945e+04
   3.899849e+05   3.115289e+05
  -2.395553e+05   3.008001e+05
  -5.164129e+05   1.525903e+05
  -1.701100e+05   1.232557e+04
   3.409395e+05  -1.756298e+04
   3.597481e+05   1.057453e+05
  -1.841352e+05   2.757434e+05
  -6.920655e+05   2.283021e+05
