
 $NMID
 id='ANONYMOUS ', fmtdat='(2E16.6)'
 volume=1.0
 tramp=1.0
 $END
  -5.865867e+07   1.261290e+04
  -3.496049e+07  -3.656817e+07
   8.085082e+06  -3.963619e+07
   2.866101e+07  -1.483660e+07
   1.680525e+07   7.577399e+06
  -3.605959e+06   9.584772e+06
  -1.003658e+07  -1.484672e+06
  -2.649278e+06  -1.007476e+07
   6.459456e+06  -9.404062e+06
   9.903337e+06  -1.906421e+06
   7.221365e+06   6.361727e+06
   9.106060e+05   8.817237e+06
  -4.099969e+06   2.902078e+06
  -2.766446e+06  -5.450301e+06
   3.828855e+06  -6.608237e+06
   8.081231e+06   1.450972e+06
   4.545968e+06   1.053107e+07
  -3.930168e+06   1.216678e+07
  -1.047065e+07   6.140427e+06
  -1.127523e+07  -2.072424e+06
  -6.992900e+06  -7.813088e+06
  -7.416587e+05  -9.136541e+06
   3.190078e+06  -6.361353e+06
   2.136771e+06  -2.620139e+06
  -1.119563e+06  -1.921105e+06
  -4.581843e+05  -4.165611e+06
   5.355228e+06  -4.673341e+06
   9.891841e+06  -7.575717e+05
   7.355075e+06   4.137502e+06
   4.309196e+05   5.298995e+06
  -3.721915e+06   2.855361e+06
  -2.639772e+06   2.006245e+05
   3.535807e+05  -9.466326e+05
   2.137913e+06  -6.862794e+05
   2.323526e+06   1.245621e+06
   9.343765e+05   3.979167e+06
  -1.790808e+06   4.072049e+06
  -3.498259e+06  -2.877703e+04
  -1.914472e+06  -3.830616e+06
   8.672363e+05  -2.148947e+06
   5.330040e+05   2.431466e+06
  -2.438679e+06   2.350591e+06
  -2.486149e+06  -3.302416e+06
   2.610599e+06  -6.306304e+06
   7.313524e+06  -9.590487e+05
   5.321541e+06   7.259774e+06
  -2.045025e+06   8.860804e+06
  -7.705875e+06   2.518610e+06
  -7.123998e+06  -4.530210e+06
  -1.866399e+06  -6.121222e+06
   3.521074e+06  -2.734978e+06
   5.300776e+06   1.552584e+06
   2.412112e+06   3.534376e+06
  -2.515056e+06   2.217928e+06
  -4.647433e+06  -9.742386e+05
  -1.975326e+06  -2.809853e+06
   1.779862e+06  -1.409313e+06
   1.751520e+06   1.033545e+06
  -1.399610e+06   8.566036e+05
  -2.485281e+06  -1.919222e+06
   7.982526e+05  -3.578205e+06
   4.887732e+06  -1.887659e+06
   5.454740e+06   1.485697e+06
   2.350288e+06   4.129218e+06
  -1.793512e+06   5.444276e+06
  -5.032578e+06   5.069515e+06
  -6.340723e+06   1.913504e+06
  -4.805839e+06  -3.181368e+06
  -1.070606e+06  -6.327807e+06
   1.887233e+06  -4.853134e+06
   1.789891e+06  -1.152906e+06
   5.837561e+04   3.308213e+05
  -2.008282e+05  -1.045362e+06
   1.526824e+06  -1.980059e+06
   2.891207e+06  -4.221770e+05
   2.189624e+06   1.848622e+06
   1.663701e+05   2.172885e+06
  -1.510742e+06   2.993609e+05
  -1.747289e+06  -2.004482e+06
  -9.630217e+04  -2.973023e+06
   2.789313e+06  -1.782784e+06
   4.643337e+06   1.114152e+06
   3.404839e+06   3.841451e+06
   4.688938e+03   4.406349e+06
  -2.367005e+06   2.846103e+06
  -2.328514e+06   1.163249e+06
  -1.871074e+06   6.735254e+05
  -2.971438e+06   4.996427e+05
  -4.417597e+06  -7.225297e+05
  -3.574667e+06  -2.754866e+06
  -2.025341e+05  -4.177740e+06
   3.164876e+06  -4.022114e+06
   4.183001e+06  -2.273253e+06
   2.735802e+06   3.340057e+05
   3.819905e+05   2.272189e+06
  -1.050895e+06   2.025747e+06
  -5.864215e+05  -1.103434e+04
   1.068586e+06  -1.366282e+06
   1.943524e+06  -4.415145e+05
   9.784829e+05   1.225980e+06
  -4.869923e+05   1.147357e+06
  -4.088827e+05  -3.786940e+05
   1.094430e+06  -6.559115e+05
   1.855113e+06   1.383764e+06
   5.847267e+05   3.553902e+06
  -1.660818e+06   3.375563e+06
  -3.151385e+06   1.034560e+06
  -3.281800e+06  -1.453795e+06
  -2.282137e+06  -2.703190e+06
  -5.016381e+05  -2.585906e+06
   1.212558e+06  -1.510381e+06
   1.590996e+06  -2.785599e+05
   5.010439e+05   3.701364e+04
  -3.755629e+05  -7.586295e+05
   4.162512e+05  -1.379308e+06
   1.956904e+06  -6.123878e+05
   2.085539e+06   8.977147e+05
   3.940393e+05   1.448479e+06
  -1.186350e+06   5.893846e+05
  -8.883632e+05  -4.429891e+05
   8.563869e+05  -5.001168e+05
   2.172063e+06   3.219978e+05
   1.737128e+06   1.327363e+06
  -2.335281e+05   1.956038e+06
  -2.298534e+06   1.691598e+06
  -2.803326e+06   3.190440e+05
  -1.256943e+06  -1.280299e+06
   9.274669e+05  -1.561991e+06
   1.611957e+06  -2.157326e+05
   2.322726e+05   1.115859e+06
  -1.538206e+06   7.793894e+05
  -1.754064e+06  -7.788533e+05
  -3.440527e+05  -1.669365e+06
   1.107015e+06  -9.775587e+05
   1.264828e+06   3.266377e+05
   2.344058e+05   7.938799e+05
  -8.245371e+05   5.833952e+04
  -7.741548e+05  -1.067226e+06
   5.557762e+05  -1.468529e+06
   2.035796e+06  -5.996742e+05
   2.098732e+06   1.029607e+06
   4.261185e+05   2.110489e+06
  -1.448365e+06   1.694229e+06
  -1.754346e+06   2.306330e+05
  -5.118135e+05  -8.782205e+05
   6.611696e+05  -8.189707e+05
   6.281515e+05  -9.516064e+04
  -1.186312e+05   3.364284e+05
  -4.640154e+05   1.990805e+05
  -8.264934e+04  -4.114623e+04
   4.671241e+05   1.183704e+05
   5.128685e+05   7.023614e+05
  -2.154049e+05   1.208666e+06
  -1.397599e+06   9.249582e+05
  -2.123926e+06  -3.899290e+05
  -1.525947e+06  -1.954113e+06
   1.743178e+05  -2.459736e+06
   1.605621e+06  -1.444028e+06
   1.691633e+06   1.079276e+05
   8.609058e+05   8.642147e+05
   3.404315e+05   6.033505e+05
   5.253410e+05   1.923838e+05
   6.702799e+05   3.294044e+05
   1.036351e+05   7.973007e+05
  -8.830553e+05   9.216816e+05
  -1.453878e+06   3.401332e+05
  -1.057340e+06  -7.016124e+05
   2.351448e+05  -1.455313e+06
   1.721253e+06  -1.101526e+06
   2.279890e+06   4.533172e+05
   1.171285e+06   2.114327e+06
  -1.010149e+06   2.415843e+06
  -2.578733e+06   1.068627e+06
  -2.378835e+06  -6.518341e+05
  -9.563377e+05  -1.332273e+06
   2.026678e+05  -9.252925e+05
   3.535658e+05  -5.030396e+05
   2.515987e+04  -7.844992e+05
   6.886459e+04  -1.362868e+06
   6.712171e+05  -1.339115e+06
   1.324432e+06  -3.500538e+05
   1.387316e+06   1.072016e+06
   6.059988e+05   1.914347e+06
  -6.007347e+05   1.473720e+06
  -1.301925e+06   1.704246e+04
  -8.374091e+05  -1.299577e+06
   3.926080e+05  -1.421313e+06
   1.190136e+06  -4.008921e+05
   8.276904e+05   7.327083e+05
  -1.386134e+05   1.108076e+06
  -5.627527e+05   7.892839e+05
  -8.808555e+04   4.062364e+05
   4.557764e+05   3.272070e+05
   7.366014e+04   3.865508e+05
  -1.173884e+06   2.269983e+05
  -2.117667e+06  -3.108865e+05
  -1.659888e+06  -1.034977e+06
   3.767720e+04  -1.468762e+06
   1.621115e+06  -1.189051e+06
   1.860534e+06  -2.982151e+05
   8.396445e+05   5.129731e+05
  -2.701246e+05   5.933820e+05
  -5.235473e+05   2.972197e+04
  -4.337519e+04  -4.478480e+05
   4.366749e+05  -2.801905e+05
   5.005579e+05   3.379625e+05
   2.978336e+05   7.296366e+05
   1.299089e+05   4.897714e+05
   1.303781e+05  -8.384460e+04
   2.542899e+05  -2.880604e+05
   2.794552e+05   2.319267e+05
  -1.091174e+05   1.000813e+06
  -8.942572e+05   1.106798e+06
  -1.413641e+06   2.153526e+05
  -9.148057e+05  -9.182997e+05
   4.036659e+05  -1.190361e+06
   1.294618e+06  -3.900354e+05
   7.646985e+05   5.593080e+05
  -7.053808e+05   6.666947e+05
  -1.600712e+06  -7.659937e+04
  -1.002985e+06  -8.547177e+05
   4.919994e+05  -9.862078e+05
   1.496219e+06  -4.809098e+05
   1.227141e+06   1.827993e+05
   1.343070e+05   5.096456e+05
  -6.545515e+05   2.727904e+05
  -4.038278e+05  -3.018060e+05
   5.728218e+05  -5.618561e+05
   1.213257e+06   3.283884e+04
   7.414419e+05   1.179760e+06
  -5.275106e+05   1.765929e+06
  -1.475769e+06   9.631776e+05
  -1.300836e+06  -7.266235e+05
  -2.573956e+05  -1.809727e+06
   7.159959e+05  -1.316761e+06
   9.339111e+05   1.757918e+05
   4.446630e+05   1.198577e+06
  -2.243001e+05   9.677588e+05
  -5.748633e+05   8.508158e+04
  -4.627769e+05  -3.628927e+05
  -1.476925e+05  -1.232575e+05
  -5.455640e+04   8.880566e+04
  -3.220724e+05  -3.163486e+05
  -5.532122e+05  -9.785736e+05
  -1.927586e+05  -1.079316e+06
   7.482995e+05  -4.066827e+05
   1.505151e+06   4.330177e+05
   1.293318e+06   8.118739e+05
   2.010357e+05   7.102689e+05
  -8.312365e+05   4.564291e+05
  -9.836794e+05   2.029556e+05
  -3.867203e+05  -6.409395e+04
   1.321432e+05  -2.380341e+05
   5.877259e+04  -1.879446e+05
  -2.419857e+05  -6.410386e+04
  -6.903700e+04  -1.344116e+05
   6.320792e+05  -2.798661e+05
   1.072178e+06  -3.012278e+04
   5.119650e+05   7.065534e+05
  -7.905888e+05   1.252878e+06
  -1.735513e+06   8.458363e+05
  -1.498720e+06  -3.816634e+05
  -3.409607e+05  -1.419593e+06
   7.486086e+05  -1.436338e+06
   1.056753e+06  -6.071512e+05
   6.736825e+05   1.938418e+05
   1.638260e+05   3.641264e+05
  -4.163344e+04   9.713951e+04
   8.972058e+04   7.161647e+03
   2.990402e+05   3.731208e+05
   2.634082e+05   8.131454e+05
  -1.535202e+05   7.075145e+05
  -6.952413e+05  -7.300123e+04
  -8.131812e+05  -9.222315e+05
  -1.958324e+05  -1.058081e+06
   7.414691e+05  -3.199768e+05
   1.098772e+06   6.644955e+05
   4.194708e+05   1.103847e+06
  -7.003763e+05   7.457991e+05
  -1.163452e+06  -2.716858e+04
  -5.817473e+05  -6.341886e+05
   2.758644e+05  -7.358914e+05
   4.057880e+05  -3.921475e+05
  -2.201519e+05   1.849151e+04
  -6.524400e+05   7.094097e+04
  -1.717587e+05  -3.172289e+05
   8.161871e+05  -7.170420e+05
   1.290026e+06  -5.652643e+05
   8.142063e+05   1.860225e+05
  -6.528971e+04   9.042543e+05
  -5.644596e+05   9.028732e+05
  -4.670495e+05   2.011545e+05
  -9.384822e+04  -4.746482e+05
   2.235374e+05  -4.733642e+05
   3.673041e+05   1.043729e+05
   2.864719e+05   5.784714e+05
  -3.294089e+04   4.685006e+05
  -4.039196e+05  -1.637236e+04
  -5.038194e+05  -2.922120e+05
  -2.483379e+05  -1.094029e+05
   5.353470e+04   1.796741e+05
   7.890034e+04   9.397124e+04
  -7.448299e+04  -3.454836e+05
  -3.024218e+04  -6.083791e+05
   3.044452e+05  -2.986230e+05
   5.319924e+05   3.354119e+05
   2.454553e+05   6.574705e+05
  -3.890926e+05   3.562372e+05
  -7.145630e+05  -2.389987e+05
  -3.013920e+05  -5.635406e+05
   5.137309e+05  -3.969718e+05
   9.256776e+05   2.870545e+04
   5.143229e+05   3.663235e+05
  -2.868808e+05   4.458641e+05
  -6.561687e+05   2.889557e+05
  -2.823574e+05   3.078111e+04
   3.164550e+05  -1.168825e+05
   4.088699e+05   7.586419e+03
  -1.252921e+05   2.852367e+05
  -6.962084e+05   3.161904e+05
