
 $NMID
 id='ANONYMOUS ', fmtdat='(2E16.6)'
 volume=1.0
 tramp=1.0
 $END
  -5.538824e+07   1.455446e+06
  -3.395777e+07  -3.349879e+07
   6.522272e+06  -3.756633e+07
   2.660897e+07  -1.489236e+07
   1.611821e+07   6.543722e+06
  -3.052270e+06   9.152747e+06
  -9.511452e+06  -1.005282e+06
  -2.873726e+06  -9.399824e+06
   5.755544e+06  -9.150472e+06
   9.301073e+06  -2.157162e+06
   7.041103e+06   5.837096e+06
   1.116096e+06   8.377467e+06
  -3.829070e+06   2.863616e+06
  -2.811122e+06  -5.142053e+06
   3.415140e+06  -6.427982e+06
   7.690223e+06   1.117899e+06
   4.606124e+06   9.848036e+06
  -3.392192e+06   1.163679e+07
  -9.768071e+06   6.076562e+06
  -1.072274e+07  -1.711891e+06
  -6.765482e+06  -7.234899e+06
  -8.861001e+05  -8.579295e+06
   2.819412e+06  -6.033530e+06
   1.840717e+06  -2.542445e+06
  -1.195809e+06  -1.887273e+06
  -5.210274e+05  -4.029590e+06
   5.048286e+06  -4.586891e+06
   9.438212e+06  -9.390057e+05
   7.095983e+06   3.769034e+06
   4.960574e+05   5.029759e+06
  -3.527077e+06   2.785314e+06
  -2.517612e+06   1.884323e+05
   3.878472e+05  -9.891333e+05
   2.128973e+06  -7.103643e+05
   2.288343e+06   1.217448e+06
   9.472524e+05   3.845006e+06
  -1.640103e+06   3.904316e+06
  -3.293514e+06  -3.111682e+02
  -1.854639e+06  -3.591939e+06
   7.847682e+05  -1.986492e+06
   5.423877e+05   2.373479e+06
  -2.273882e+06   2.330692e+06
  -2.463502e+06  -3.044943e+06
   2.251735e+06  -6.019630e+06
   6.823474e+06  -1.098349e+06
   5.191315e+06   6.697211e+06
  -1.687678e+06   8.399275e+06
  -7.218982e+06   2.573384e+06
  -6.902528e+06  -4.101151e+06
  -1.978944e+06  -5.771536e+06
   3.261687e+06  -2.733333e+06
   5.116637e+06   1.291325e+06
   2.443600e+06   3.280430e+06
  -2.288704e+06   2.191161e+06
  -4.432982e+06  -7.702776e+05
  -1.973076e+06  -2.593335e+06
   1.635196e+06  -1.388457e+06
   1.715719e+06   9.227194e+05
  -1.254264e+06   8.741039e+05
  -2.399811e+06  -1.682705e+06
   6.008142e+05  -3.347706e+06
   4.511437e+06  -1.914435e+06
   5.190027e+06   1.221925e+06
   2.347385e+06   3.827543e+06
  -1.582824e+06   5.225626e+06
  -4.705984e+06   4.957074e+06
  -6.010254e+06   1.961872e+06
  -4.638942e+06  -2.934850e+06
  -1.170634e+06  -6.014369e+06
   1.644575e+06  -4.693296e+06
   1.648693e+06  -1.196042e+06
   9.232324e+04   2.529496e+05
  -1.447932e+05  -1.018709e+06
   1.472488e+06  -1.906533e+06
   2.781072e+06  -4.259697e+05
   2.140549e+06   1.765434e+06
   1.903552e+05   2.112356e+06
  -1.479745e+06   3.305958e+05
  -1.754696e+06  -1.898761e+06
  -1.662867e+05  -2.865047e+06
   2.638201e+06  -1.767634e+06
   4.461349e+06   9.717674e+05
   3.323513e+06   3.586099e+06
   1.008934e+05   4.179421e+06
  -2.174026e+06   2.747701e+06
  -2.168251e+06   1.165209e+06
  -1.756317e+06   7.080528e+05
  -2.830181e+06   5.746668e+05
  -4.257529e+06  -5.635513e+05
  -3.511281e+06  -2.543647e+06
  -3.131138e+05  -4.010504e+06
   2.939886e+06  -3.954454e+06
   3.976045e+06  -2.289528e+06
   2.641174e+06   2.664498e+05
   4.087744e+05   2.186343e+06
  -9.738574e+05   1.974416e+06
  -5.641789e+05   2.103453e+03
   9.940784e+05  -1.341039e+06
   1.849412e+06  -4.794130e+05
   9.661448e+05   1.147121e+06
  -4.381673e+05   1.122707e+06
  -4.159557e+05  -3.414619e+05
   1.002681e+06  -6.770776e+05
   1.806783e+06   1.225963e+06
   6.991697e+05   3.356468e+06
  -1.435216e+06   3.305159e+06
  -2.968946e+06   1.138534e+06
  -3.222522e+06  -1.267146e+06
  -2.312892e+06  -2.539612e+06
  -5.697270e+05  -2.492024e+06
   1.133692e+06  -1.492176e+06
   1.531867e+06  -3.093169e+05
   4.849688e+05   2.146318e+04
  -3.831274e+05  -7.168737e+05
   3.551693e+05  -1.329558e+06
   1.851470e+06  -6.423696e+05
   2.024013e+06   7.909783e+05
   4.279069e+05   1.368952e+06
  -1.115021e+06   6.034457e+05
  -8.720723e+05  -3.935478e+05
   7.998920e+05  -5.130866e+05
   2.104940e+06   2.311615e+05
   1.729355e+06   1.223386e+06
  -1.554016e+05   1.900600e+06
  -2.164248e+06   1.705133e+06
  -2.691902e+06   3.916154e+05
  -1.246050e+06  -1.190554e+06
   8.438886e+05  -1.520943e+06
   1.535160e+06  -2.517089e+05
   2.504784e+05   1.060638e+06
  -1.454062e+06   7.913260e+05
  -1.709633e+06  -6.925616e+05
  -3.899717e+05  -1.592289e+06
   1.024420e+06  -9.813331e+05
   1.225473e+06   2.623561e+05
   2.582147e+05   7.472045e+05
  -7.805638e+05   7.796759e+04
  -7.671614e+05  -1.002328e+06
   4.985073e+05  -1.423235e+06
   1.942925e+06  -6.273028e+05
   2.045566e+06   9.351648e+05
   4.687678e+05   2.017264e+06
  -1.342059e+06   1.671277e+06
  -1.680603e+06   2.775784e+05
  -5.242052e+05  -8.253850e+05
   6.066512e+05  -8.092281e+05
   6.054515e+05  -1.133581e+05
  -9.720421e+04   3.313354e+05
  -4.438559e+05   2.137595e+05
  -9.412381e+04  -3.562583e+04
   4.429313e+05   9.237963e+04
   5.139896e+05   6.525190e+05
  -1.690758e+05   1.165955e+06
  -1.317790e+06   9.289296e+05
  -2.054451e+06  -3.165983e+05
  -1.521524e+06  -1.839231e+06
   9.911829e+04  -2.376434e+06
   1.505182e+06  -1.444523e+06
   1.639501e+06   4.825379e+04
   8.690871e+05   8.132164e+05
   3.549588e+05   5.897693e+05
   5.056585e+05   1.858026e+05
   6.416655e+05   2.998378e+05
   1.158416e+05   7.602922e+05
  -8.242461e+05   9.128839e+05
  -1.393606e+06   3.709880e+05
  -1.045688e+06  -6.500434e+05
   1.811758e+05  -1.416585e+06
   1.628403e+06  -1.113233e+06
   2.211234e+06   3.723538e+05
   1.190433e+06   1.999807e+06
  -8.975807e+05   2.349914e+06
  -2.444829e+06   1.104608e+06
  -2.310554e+06  -5.501916e+05
  -9.715958e+05  -1.251279e+06
   1.585215e+05  -9.054425e+05
   3.312360e+05  -5.071385e+05
   1.727022e+04  -7.599815e+05
   3.832389e+04  -1.308657e+06
   6.090096e+05  -1.301393e+06
   1.262139e+06  -3.702214e+05
   1.364021e+06   9.957650e+05
   6.357292e+05   1.827841e+06
  -5.386616e+05   1.436447e+06
  -1.253025e+06   5.498263e+04
  -8.431078e+05  -1.222923e+06
   3.320618e+05  -1.376420e+06
   1.123777e+06  -4.241563e+05
   8.113214e+05   6.708150e+05
  -9.714095e+04   1.060543e+06
  -5.084322e+05   7.724669e+05
  -6.675839e+04   3.965687e+05
   4.471908e+05   3.072346e+05
   7.989273e+04   3.729302e+05
  -1.121132e+06   2.500823e+05
  -2.042339e+06  -2.427905e+05
  -1.625215e+06  -9.478894e+05
  -8.501558e+03  -1.406737e+06
   1.521474e+06  -1.183640e+06
   1.778690e+06  -3.429236e+05
   8.215339e+05   4.600808e+05
  -2.423683e+05   5.732484e+05
  -4.998081e+05   4.547493e+04
  -4.840463e+04  -4.272600e+05
   4.180791e+05  -2.825292e+05
   4.914837e+05   3.132083e+05
   3.009738e+05   7.011073e+05
   1.324373e+05   4.720802e+05
   1.228694e+05  -8.936041e+04
   2.402335e+05  -2.915663e+05
   2.752685e+05   2.162548e+05
  -8.241268e+04   9.715551e+05
  -8.329298e+05   1.087754e+06
  -1.349872e+06   2.358866e+05
  -8.976357e+05  -8.645409e+05
   3.601713e+05  -1.151235e+06
   1.235866e+06  -4.017694e+05
   7.524475e+05   5.214693e+05
  -6.595537e+05   6.628663e+05
  -1.547106e+06  -2.474820e+04
  -9.989737e+05  -7.909881e+05
   4.382251e+05  -9.674222e+05
   1.427021e+06  -5.153200e+05
   1.191932e+06   1.347177e+05
   1.478750e+05   4.875822e+05
  -6.205424e+05   2.839133e+05
  -3.936919e+05  -2.781664e+05
   5.416166e+05  -5.546015e+05
   1.171687e+06   4.504416e+03
   7.413554e+05   1.122871e+06
  -4.697177e+05   1.717880e+06
  -1.403232e+06   9.658478e+05
  -1.275610e+06  -6.685750e+05
  -2.972363e+05  -1.741180e+06
   6.534154e+05  -1.293677e+06
   9.048706e+05   1.391990e+05
   4.657056e+05   1.141117e+06
  -1.824372e+05   9.396168e+05
  -5.487948e+05   9.892303e+04
  -4.607509e+05  -3.363463e+05
  -1.512196e+05  -1.137884e+05
  -4.735872e+04   8.799710e+04
  -3.103924e+05  -2.961830e+05
  -5.570383e+05  -9.283856e+05
  -2.222997e+05  -1.033957e+06
   7.031531e+05  -4.106533e+05
   1.465088e+06   3.762735e+05
   1.275619e+06   7.453962e+05
   2.131714e+05   6.784552e+05
  -7.950938e+05   4.647660e+05
  -9.445427e+05   2.252008e+05
  -3.692794e+05  -5.051441e+04
   1.230083e+05  -2.338839e+05
   4.429667e+04  -1.834835e+05
  -2.425844e+05  -5.599532e+04
  -6.736914e+04  -1.291517e+05
   6.102463e+05  -2.872456e+05
   1.033354e+06  -5.512096e+04
   5.028224e+05   6.712945e+05
  -7.371675e+05   1.228712e+06
  -1.649938e+06   8.553526e+05
  -1.450076e+06  -3.360454e+05
  -3.643039e+05  -1.363069e+06
   6.840672e+05  -1.402375e+06
   1.005469e+06  -6.087208e+05
   6.571374e+05   1.725992e+05
   1.644645e+05   3.479046e+05
  -4.472779e+04   9.343757e+04
   8.280180e+04   1.364731e+03
   3.000779e+05   3.488403e+05
   2.778006e+05   7.759090e+05
  -1.311370e+05   6.854549e+05
  -6.753656e+05  -5.570906e+04
  -8.068723e+05  -8.738980e+05
  -2.098018e+05  -1.018127e+06
   7.133551e+05  -3.241834e+05
   1.078236e+06   6.187606e+05
   4.294184e+05   1.055787e+06
  -6.595771e+05   7.338446e+05
  -1.121082e+06   7.068404e+02
  -5.721032e+05  -5.943422e+05
   2.494015e+05  -7.112221e+05
   3.768072e+05  -3.849094e+05
  -2.186716e+05   2.408556e+04
  -6.296345e+05   8.499921e+04
  -1.715654e+05  -3.016219e+05
   7.684326e+05  -7.138919e+05
   1.223347e+06  -5.809061e+05
   7.831203e+05   1.565831e+05
  -4.085512e+04   8.723228e+05
  -5.175330e+05   8.814221e+05
  -4.420595e+05   1.996681e+05
  -1.010747e+05  -4.592803e+05
   2.060049e+05  -4.601254e+05
   3.598356e+05   9.593732e+04
   2.906955e+05   5.513691e+05
  -2.312413e+04   4.491492e+05
  -3.909748e+05  -7.503892e+03
  -4.904119e+05  -2.662757e+05
  -2.410322e+05  -9.614938e+04
   5.197699e+04   1.692872e+05
   7.468438e+04   8.079004e+04
  -7.560933e+04  -3.377916e+05
  -3.280541e+04  -5.856035e+05
   2.934524e+05  -2.887240e+05
   5.184221e+05   3.188492e+05
   2.455277e+05   6.331245e+05
  -3.700239e+05   3.525354e+05
  -6.939813e+05  -2.171945e+05
  -3.036386e+05  -5.392815e+05
   4.844832e+05  -3.947522e+05
   8.920964e+05   7.576214e+03
   5.043037e+05   3.410589e+05
  -2.670454e+05   4.339609e+05
  -6.265745e+05   2.907105e+05
  -2.683864e+05   3.442858e+04
   3.094516e+05  -1.196873e+05
   3.995212e+05   1.071150e+03
  -1.162331e+05   2.838275e+05
  -6.709610e+05   3.263913e+05
