
 $NMID
 id='ANONYMOUS ', fmtdat='(2E16.6)'
 volume=1.0
 tramp=1.0
 $END
  -5.316512e+07   2.029136e+06
  -3.349014e+07  -3.151892e+07
   5.390483e+06  -3.630369e+07
   2.557273e+07  -1.514945e+07
   1.609114e+07   5.808245e+06
  -2.661482e+06   9.031414e+06
  -9.481872e+06  -6.328716e+05
  -3.168242e+06  -9.201310e+06
   5.513818e+06  -9.292207e+06
   9.151831e+06  -2.370284e+06
   6.873854e+06   5.672580e+06
   1.036592e+06   8.196530e+06
  -3.709630e+06   2.701617e+06
  -2.659852e+06  -5.205722e+06
   3.391054e+06  -6.480034e+06
   7.572111e+06   9.309915e+05
   4.627949e+06   9.546200e+06
  -3.144233e+06   1.136510e+07
  -9.358926e+06   5.955325e+06
  -1.026273e+07  -1.582714e+06
  -6.458540e+06  -6.805174e+06
  -9.674686e+05  -8.040015e+06
   2.400340e+06  -5.787210e+06
   1.497717e+06  -2.764012e+06
  -1.143799e+06  -2.246929e+06
  -2.462705e+05  -4.069846e+06
   5.142672e+06  -4.276029e+06
   9.231340e+06  -6.456096e+05
   6.791696e+06   3.757494e+06
   2.994849e+05   4.747634e+06
  -3.530003e+06   2.431200e+06
  -2.286657e+06  -3.647869e+04
   7.556975e+05  -9.344908e+05
   2.321466e+06  -4.127392e+05
   2.099959e+06   1.462470e+06
   6.389418e+05   3.776276e+06
  -1.621514e+06   3.661421e+06
  -2.950601e+06  -3.654756e+04
  -1.648689e+06  -3.331141e+06
   6.113792e+05  -1.730894e+06
   2.768196e+05   2.411289e+06
  -2.335511e+06   2.309682e+06
  -2.482072e+06  -2.943490e+06
   1.994420e+06  -5.947093e+06
   6.457254e+06  -1.298023e+06
   5.097006e+06   6.308103e+06
  -1.442098e+06   8.136149e+06
  -6.943381e+06   2.558115e+06
  -6.824291e+06  -4.030325e+06
  -2.013322e+06  -5.764162e+06
   3.268370e+06  -2.765481e+06
   5.175968e+06   1.281135e+06
   2.515792e+06   3.290680e+06
  -2.203699e+06   2.224228e+06
  -4.367729e+06  -6.949089e+05
  -1.989139e+06  -2.518138e+06
   1.579922e+06  -1.372768e+06
   1.734585e+06   9.379929e+05
  -1.194748e+06   1.005278e+06
  -2.488184e+06  -1.480623e+06
   3.128301e+05  -3.274574e+06
   4.233938e+06  -2.052010e+06
   5.112688e+06   1.014284e+06
   2.392591e+06   3.676441e+06
  -1.578753e+06   5.074201e+06
  -4.709591e+06   4.742905e+06
  -5.883030e+06   1.802366e+06
  -4.420479e+06  -2.904897e+06
  -1.049614e+06  -5.887006e+06
   1.625839e+06  -4.681817e+06
   1.662923e+06  -1.327634e+06
   2.649766e+05   1.701590e+05
   8.745264e+04  -9.078671e+05
   1.580757e+06  -1.658800e+06
   2.699461e+06  -1.852559e+05
   1.937543e+06   1.901545e+06
  -1.428348e+04   2.098360e+06
  -1.568492e+06   1.834422e+05
  -1.681977e+06  -2.051992e+06
  -3.537191e+04  -2.868903e+06
   2.648305e+06  -1.628574e+06
   4.305983e+06   1.069136e+06
   3.159867e+06   3.509910e+06
   9.000016e+04   4.011947e+06
  -2.060114e+06   2.654643e+06
  -2.075387e+06   1.185916e+06
  -1.753954e+06   7.526916e+05
  -2.870902e+06   5.657236e+05
  -4.277590e+06  -6.291263e+05
  -3.479873e+06  -2.627036e+06
  -2.147686e+05  -4.048622e+06
   3.079003e+06  -3.883860e+06
   4.059194e+06  -2.128448e+06
   2.587039e+06   3.928622e+05
   2.681737e+05   2.178185e+06
  -1.062808e+06   1.886217e+06
  -5.428890e+05  -3.500412e+04
   1.051787e+06  -1.295242e+06
   1.855499e+06  -4.294052e+05
   9.157127e+05   1.150315e+06
  -5.007824e+05   1.099594e+06
  -4.533388e+05  -3.853940e+05
   1.023527e+06  -7.622116e+05
   1.899643e+06   1.151659e+06
   8.028752e+05   3.404657e+06
  -1.430960e+06   3.475295e+06
  -3.090031e+06   1.260235e+06
  -3.354637e+06  -1.334226e+06
  -2.333382e+06  -2.719548e+06
  -4.912409e+05  -2.597044e+06
   1.207581e+06  -1.460681e+06
   1.551982e+06  -2.409947e+05
   4.867188e+05   3.671286e+04
  -3.680826e+05  -7.355417e+05
   3.711333e+05  -1.328514e+06
   1.856953e+06  -6.151103e+05
   2.026251e+06   8.221790e+05
   4.194877e+05   1.387435e+06
  -1.147247e+06   5.912487e+05
  -8.968763e+05  -4.418239e+05
   8.367394e+05  -5.507568e+05
   2.189528e+06   2.712340e+05
   1.769651e+06   1.331294e+06
  -2.147244e+05   1.977389e+06
  -2.265107e+06   1.682870e+06
  -2.740356e+06   3.189208e+05
  -1.227873e+06  -1.222132e+06
   8.689521e+05  -1.494504e+06
   1.524979e+06  -2.224126e+05
   2.175098e+05   1.053040e+06
  -1.481643e+06   7.545955e+05
  -1.717205e+06  -7.394717e+05
  -3.707903e+05  -1.635605e+06
   1.065547e+06  -9.997018e+05
   1.262000e+06   2.805119e+05
   2.668727e+05   7.741231e+05
  -7.839991e+05   7.503033e+04
  -7.464658e+05  -1.024948e+06
   5.444777e+05  -1.414461e+06
   1.972679e+06  -5.683889e+05
   2.027834e+06   1.001986e+06
   4.170056e+05   2.043346e+06
  -1.392786e+06   1.652612e+06
  -1.706054e+06   2.413058e+05
  -5.160914e+05  -8.532463e+05
   6.390576e+05  -8.096469e+05
   6.287896e+05  -8.052416e+04
  -1.173906e+05   3.704829e+05
  -4.982144e+05   2.143822e+05
  -1.314933e+05  -8.023502e+04
   4.517255e+05   5.025053e+04
   5.374529e+05   6.521742e+05
  -1.767186e+05   1.183414e+06
  -1.351660e+06   9.131114e+05
  -2.066837e+06  -3.727505e+05
  -1.482234e+06  -1.895540e+06
   1.750999e+05  -2.398675e+06
   1.581054e+06  -1.427418e+06
   1.683100e+06   9.984194e+04
   8.635929e+05   8.874987e+05
   3.104551e+05   6.541708e+05
   4.590517e+05   2.073696e+05
   6.216183e+05   2.859724e+05
   1.085736e+05   7.476508e+05
  -8.507490e+05   9.098738e+05
  -1.433179e+06   3.468055e+05
  -1.052664e+06  -7.054331e+05
   2.284484e+05  -1.457802e+06
   1.691336e+06  -1.092131e+06
   2.234667e+06   4.427495e+05
   1.161038e+06   2.061535e+06
  -9.531567e+05   2.363710e+06
  -2.498681e+06   1.071935e+06
  -2.346609e+06  -6.114421e+05
  -9.752204e+05  -1.319642e+06
   1.943471e+05  -9.513443e+05
   3.902894e+05  -5.094985e+05
   7.152311e+04  -7.319275e+05
   7.558533e+04  -1.282241e+06
   6.331287e+05  -1.283873e+06
   1.268923e+06  -3.403561e+05
   1.339191e+06   1.043331e+06
   5.821510e+05   1.862582e+06
  -5.905961e+05   1.430466e+06
  -1.273293e+06   1.981793e+04
  -8.301498e+05  -1.255314e+06
   3.582616e+05  -1.392952e+06
   1.146248e+06  -4.321577e+05
   8.249895e+05   6.685022e+05
  -9.263939e+04   1.070112e+06
  -5.132511e+05   7.933612e+05
  -7.912784e+04   4.189679e+05
   4.311523e+05   3.233659e+05
   6.451715e+04   3.770049e+05
  -1.131674e+06   2.317598e+05
  -2.045360e+06  -2.866383e+05
  -1.620424e+06  -9.952580e+05
   5.076823e+03  -1.423720e+06
   1.546231e+06  -1.162100e+06
   1.809695e+06  -3.107652e+05
   8.422324e+05   4.733949e+05
  -2.429094e+05   5.691107e+05
  -5.079815e+05   4.575385e+04
  -4.224451e+04  -4.115797e+05
   4.322564e+05  -2.604647e+05
   4.820430e+05   3.282011e+05
   2.612173e+05   7.039537e+05
   1.026513e+05   4.660403e+05
   1.385570e+05  -9.590621e+04
   2.768290e+05  -2.897425e+05
   2.772953e+05   2.259220e+05
  -1.239959e+05   9.748040e+05
  -8.681843e+05   1.070995e+06
  -1.339208e+06   2.063697e+05
  -8.598899e+05  -8.806159e+05
   3.829263e+05  -1.134908e+06
   1.231519e+06  -3.627149e+05
   7.345869e+05   5.512609e+05
  -6.842034e+05   6.554130e+05
  -1.575437e+06  -7.027079e+04
  -1.009403e+06  -8.450852e+05
   4.686571e+05  -9.915000e+05
   1.482504e+06  -4.949112e+05
   1.225551e+06   1.749538e+05
   1.388221e+05   5.089801e+05
  -6.413493e+05   2.771575e+05
  -3.888890e+05  -2.829430e+05
   5.635570e+05  -5.274064e+05
   1.168115e+06   5.199390e+04
   6.908807e+05   1.147263e+06
  -5.396541e+05   1.692904e+06
  -1.442663e+06   9.086490e+05
  -1.256851e+06  -7.208585e+05
  -2.365570e+05  -1.766871e+06
   7.105513e+05  -1.292002e+06
   9.220662e+05   1.627392e+05
   4.452290e+05   1.176546e+06
  -2.090617e+05   9.648534e+05
  -5.593945e+05   9.251221e+04
  -4.621173e+05  -3.673148e+05
  -1.566226e+05  -1.351806e+05
  -5.020836e+04   9.493710e+04
  -2.956046e+05  -2.851589e+05
  -5.288406e+05  -9.461155e+05
  -2.007231e+05  -1.067567e+06
   7.105610e+05  -4.095869e+05
   1.467767e+06   4.312211e+05
   1.275300e+06   8.076115e+05
   1.972440e+05   6.903582e+05
  -8.271409e+05   4.295616e+05
  -9.690360e+05   1.958689e+05
  -3.683228e+05  -4.664253e+04
   1.352491e+05  -2.258161e+05
   4.453275e+04  -2.034281e+05
  -2.493133e+05  -8.649802e+04
  -5.773786e+04  -1.278229e+05
   6.340170e+05  -2.482491e+05
   1.036910e+06  -1.828792e+04
   4.657154e+05   6.694853e+05
  -7.887094e+05   1.190057e+06
  -1.670251e+06   8.047614e+05
  -1.422834e+06  -3.774202e+05
  -3.124154e+05  -1.381204e+06
   7.274636e+05  -1.388021e+06
   1.022689e+06  -5.698975e+05
   6.499814e+05   2.057757e+05
   1.483503e+05   3.495562e+05
  -5.166170e+04   7.205768e+04
   8.857033e+04  -9.949612e+03
   3.012950e+05   3.639318e+05
   2.590699e+05   7.966717e+05
  -1.554199e+05   6.799203e+05
  -6.712101e+05  -9.141366e+04
  -7.642999e+05  -9.080334e+05
  -1.623535e+05  -1.014545e+06
   7.235171e+05  -2.799111e+05
   1.046176e+06   6.672523e+05
   3.874890e+05   1.066857e+06
  -6.805086e+05   7.033017e+05
  -1.117146e+06  -3.474674e+04
  -5.572036e+05  -6.006054e+05
   2.616923e+05  -6.960763e+05
   3.787158e+05  -3.830642e+05
  -2.274578e+05  -4.449544e+02
  -6.372171e+05   5.872446e+04
  -1.604813e+05  -3.024882e+05
   7.993511e+05  -6.932127e+05
   1.249858e+06  -5.618232e+05
   7.801495e+05   1.626513e+05
  -6.743030e+04   8.700026e+05
  -5.353276e+05   8.746285e+05
  -4.303437e+05   1.894327e+05
  -7.420782e+04  -4.635149e+05
   2.184072e+05  -4.466490e+05
   3.478871e+05   1.202483e+05
   2.710235e+05   5.630644e+05
  -3.144155e+04   4.379179e+05
  -3.874169e+05  -2.544813e+04
  -4.878911e+05  -2.733971e+05
  -2.458595e+05  -9.818903e+04
   4.983365e+04   1.579466e+05
   9.043538e+04   6.617736e+04
  -4.195261e+04  -3.334859e+05
  -3.678367e+03  -5.556315e+05
   2.911725e+05  -2.530317e+05
   4.820132e+05   3.364216e+05
   2.036618e+05   6.264569e+05
  -3.840335e+05   3.302356e+05
  -6.750484e+05  -2.420836e+05
  -2.762184e+05  -5.511059e+05
   4.957166e+05  -3.816656e+05
   8.847328e+05   3.694387e+04
   4.913375e+05   3.573469e+05
  -2.751294e+05   4.185549e+05
  -6.264543e+05   2.630504e+05
  -2.603721e+05   3.227845e+04
   3.181148e+05  -8.793341e+04
   3.933236e+05   3.246505e+04
  -1.443977e+05   2.781609e+05
  -7.014120e+05   2.869101e+05
