
 $NMID
 id='ANONYMOUS ', fmtdat='(2E16.6)'
 volume=1.0
 tramp=1.0
 $END
   5.124314e+07  -1.898136e+05
   3.115003e+07   3.091774e+07
  -6.083636e+06   3.443811e+07
  -2.469989e+07   1.410772e+07
  -1.523963e+07  -5.532419e+06
   2.600742e+06  -8.520100e+06
   9.010148e+06   5.504411e+05
   3.028082e+06   8.758157e+06
  -5.253942e+06   8.983160e+06
  -8.795351e+06   2.263020e+06
  -6.576151e+06  -5.683181e+06
  -8.401670e+05  -8.084868e+06
   3.745640e+06  -2.508932e+06
   2.607172e+06   5.275064e+06
  -3.309276e+06   6.373582e+06
  -7.273211e+06  -9.741796e+05
  -4.301918e+06  -9.315492e+06
   3.273191e+06  -1.092202e+07
   9.221558e+06  -5.486210e+06
   9.874317e+06   1.921662e+06
   5.904963e+06   6.846028e+06
   5.168049e+05   7.692323e+06
  -2.444224e+06   5.277499e+06
  -1.181051e+06   2.519203e+06
   1.405440e+06   2.391084e+06
   1.702703e+05   4.259560e+06
  -5.376099e+06   4.175653e+06
  -9.278349e+06   3.426309e+05
  -6.574897e+06  -3.963667e+06
   1.093143e+04  -4.740211e+06
   3.771150e+06  -2.267802e+06
   2.358231e+06   3.060976e+05
  -9.152865e+05   1.204816e+06
  -2.604519e+06   4.639955e+05
  -2.219912e+06  -1.684968e+06
  -4.738732e+05  -3.965678e+06
   1.800356e+06  -3.521860e+06
   2.830157e+06   3.319351e+05
   1.335460e+06   3.370915e+06
  -7.628679e+05   1.475894e+06
  -2.096424e+05  -2.613931e+06
   2.350586e+06  -2.319656e+06
   2.363863e+06   2.856420e+06
  -1.959464e+06   5.618311e+06
  -6.085057e+06   1.020963e+06
  -4.649821e+06  -6.187635e+06
   1.590086e+06  -7.729376e+06
   6.781054e+06  -2.266060e+06
   6.634739e+06   4.040674e+06
   1.975567e+06   5.662335e+06
  -3.203280e+06   2.734869e+06
  -5.111504e+06  -1.222619e+06
  -2.511347e+06  -3.188847e+06
   2.112532e+06  -2.122803e+06
   4.214988e+06   7.225354e+05
   1.900421e+06   2.440610e+06
  -1.550519e+06   1.293650e+06
  -1.725955e+06  -9.142756e+05
   1.047319e+06  -9.763025e+05
   2.305850e+06   1.324079e+06
  -2.847183e+05   2.957106e+06
  -3.975711e+06   1.823364e+06
  -4.844084e+06  -1.008339e+06
  -2.241759e+06  -3.546623e+06
   1.697337e+06  -4.956029e+06
   4.844181e+06  -4.607390e+06
   5.905713e+06  -1.606625e+06
   4.260628e+06   3.051282e+06
   8.783597e+05   5.871457e+06
  -1.614051e+06   4.598877e+06
  -1.535918e+06   1.368784e+06
  -2.522280e+05   1.146208e+04
  -2.652133e+05   1.054687e+06
  -1.810997e+06   1.635848e+06
  -2.836450e+06   2.336230e+04
  -1.950256e+06  -2.094230e+06
   9.783213e+04  -2.231983e+06
   1.695459e+06  -2.010333e+05
   1.754865e+06   2.137340e+06
  -1.146586e+04   2.938100e+06
  -2.734246e+06   1.562113e+06
  -4.276452e+06  -1.226731e+06
  -2.994556e+06  -3.582992e+06
   6.261102e+04  -3.915338e+06
   2.080738e+06  -2.492421e+06
   2.005919e+06  -1.097647e+06
   1.697390e+06  -7.519554e+05
   2.858059e+06  -5.800084e+05
   4.283982e+06   6.400256e+05
   3.488036e+06   2.657696e+06
   1.988951e+05   4.091358e+06
  -3.156897e+06   3.917255e+06
  -4.174042e+06   2.106090e+06
  -2.637361e+06  -4.800383e+05
  -2.050482e+05  -2.262785e+06
   1.153001e+06  -1.903066e+06
   5.554596e+05   6.364210e+04
  -1.097570e+06   1.304880e+06
  -1.871061e+06   4.066806e+05
  -8.849208e+05  -1.177166e+06
   5.326009e+05  -1.124287e+06
   4.896727e+05   3.645447e+05
  -9.490857e+05   7.900493e+05
  -1.837611e+06  -1.044490e+06
  -8.557555e+05  -3.292748e+06
   1.278081e+06  -3.477207e+06
   2.991878e+06  -1.375961e+06
   3.408937e+06   1.236824e+06
   2.454304e+06   2.731693e+06
   5.396736e+05   2.665002e+06
  -1.246688e+06   1.491164e+06
  -1.595637e+06   2.298011e+05
  -4.938459e+05  -3.988374e+04
   3.700451e+05   7.449955e+05
  -3.772814e+05   1.320426e+06
  -1.856827e+06   5.950932e+05
  -2.019858e+06  -8.244952e+05
  -4.203568e+05  -1.378715e+06
   1.152430e+06  -5.978389e+05
   9.270229e+05   4.354274e+05
  -8.125379e+05   5.815023e+05
  -2.222586e+06  -2.208283e+05
  -1.844468e+06  -1.323100e+06
   1.748713e+05  -2.025228e+06
   2.292337e+06  -1.730190e+06
   2.781020e+06  -3.241360e+05
   1.228386e+06   1.232837e+06
  -8.904602e+05   1.482884e+06
  -1.524157e+06   1.976865e+05
  -1.933641e+05  -1.062261e+06
   1.502770e+06  -7.492852e+05
   1.731986e+06   7.434085e+05
   3.904536e+05   1.642787e+06
  -1.050488e+06   1.021212e+06
  -1.267941e+06  -2.560193e+05
  -2.834341e+05  -7.629763e+05
   7.774282e+05  -6.866868e+04
   7.424691e+05   1.041776e+06
  -5.680885e+05   1.429756e+06
  -2.009792e+06   5.583876e+05
  -2.048285e+06  -1.033199e+06
  -4.098757e+05  -2.069425e+06
   1.410700e+06  -1.662739e+06
   1.721101e+06  -2.440736e+05
   5.264359e+05   8.559798e+05
  -6.418712e+05   8.212002e+05
  -6.522875e+05   8.580132e+04
   9.446553e+04  -3.926192e+05
   5.107952e+05  -2.521893e+05
   1.769415e+05   6.521788e+04
  -4.168780e+05  -3.034834e+04
  -5.376917e+05  -6.283649e+05
   1.670917e+05  -1.182335e+06
   1.363672e+06  -9.209610e+05
   2.091435e+06   3.835045e+05
   1.491970e+06   1.928218e+06
  -1.856021e+05   2.438349e+06
  -1.602730e+06   1.462150e+06
  -1.717922e+06  -8.284269e+04
  -9.113378e+05  -9.051381e+05
  -3.462761e+05  -7.028630e+05
  -4.579812e+05  -2.519902e+05
  -5.967289e+05  -2.986040e+05
  -9.265832e+04  -7.436851e+05
   8.554636e+05  -9.194240e+05
   1.452482e+06  -3.636222e+05
   1.088188e+06   7.135443e+05
  -2.114660e+05   1.493484e+06
  -1.713747e+06   1.119279e+06
  -2.272588e+06  -4.483332e+05
  -1.180638e+06  -2.084342e+06
   9.568941e+05  -2.380908e+06
   2.515351e+06  -1.083492e+06
   2.376267e+06   6.010110e+05
   1.015518e+06   1.323614e+06
  -1.681419e+05   9.817279e+05
  -4.027813e+05   5.515576e+05
  -1.123788e+05   7.597496e+05
  -1.119696e+05   1.289606e+06
  -6.516593e+05   1.280663e+06
  -1.281495e+06   3.281156e+05
  -1.350870e+06  -1.070369e+06
  -5.806441e+05  -1.896544e+06
   6.090867e+05  -1.451512e+06
   1.292324e+06  -2.048876e+04
   8.374556e+05   1.263824e+06
  -3.537550e+05   1.400875e+06
  -1.134111e+06   4.424696e+05
  -8.142126e+05  -6.526495e+05
   8.733396e+04  -1.056146e+06
   4.952172e+05  -7.911331e+05
   6.472712e+04  -4.295420e+05
  -4.346709e+05  -3.392696e+05
  -6.185404e+04  -3.875239e+05
   1.138379e+06  -2.282889e+05
   2.058539e+06   3.021888e+05
   1.634868e+06   1.008266e+06
  -2.166620e+03   1.422801e+06
  -1.558388e+06   1.155691e+06
  -1.824241e+06   3.156677e+05
  -8.461540e+05  -4.582389e+05
   2.463262e+05  -5.610239e+05
   5.045824e+05  -4.984932e+04
   2.625972e+04   4.087125e+05
  -4.498990e+05   2.626321e+05
  -4.855544e+05  -3.377312e+05
  -2.479177e+05  -7.307386e+05
  -8.696656e+04  -4.840491e+05
  -1.364416e+05   1.093581e+05
  -2.870696e+05   3.146356e+05
  -2.825690e+05  -2.270551e+05
   1.356398e+05  -9.999298e+05
   8.879040e+05  -1.079782e+06
   1.347892e+06  -1.804934e+05
   8.497125e+05   9.106898e+05
  -4.036755e+05   1.135134e+06
  -1.250770e+06   3.395018e+05
  -7.440080e+05  -5.706434e+05
   6.917456e+05  -6.635142e+05
   1.602190e+06   6.465322e+04
   1.041695e+06   8.455370e+05
  -4.557644e+05   1.009816e+06
  -1.499232e+06   5.230309e+05
  -1.252693e+06  -1.615687e+05
  -1.500502e+05  -5.167638e+05
   6.461327e+05  -2.858882e+05
   3.853039e+05   2.870444e+05
  -5.880614e+05   5.295558e+05
  -1.192729e+06  -7.241239e+04
  -6.847204e+05  -1.185345e+06
   5.796219e+05  -1.722405e+06
   1.487414e+06  -9.098655e+05
   1.277685e+06   7.468879e+05
   2.317333e+05   1.804402e+06
  -7.243746e+05   1.320737e+06
  -9.347028e+05  -1.572661e+05
  -4.582807e+05  -1.191445e+06
   1.979702e+05  -9.810548e+05
   5.618600e+05  -9.536133e+04
   4.806699e+05   3.723980e+05
   1.726750e+05   1.354138e+05
   4.493414e+04  -9.753529e+04
   2.781104e+05   2.930211e+05
   5.256350e+05   9.655317e+05
   2.152656e+05   1.082210e+06
  -7.073159e+05   4.071189e+05
  -1.494853e+06  -4.448297e+05
  -1.308043e+06  -8.203932e+05
  -1.976024e+05  -6.998870e+05
   8.567369e+05  -4.385899e+05
   9.893545e+05  -2.017827e+05
   3.607744e+05   4.781598e+04
  -1.441764e+05   2.305769e+05
  -2.848089e+04   2.060514e+05
   2.727525e+05   8.911852e+04
   5.271484e+04   1.346453e+05
  -6.662402e+05   2.522264e+05
  -1.056557e+06   6.521283e+03
  -4.466362e+05  -6.944439e+05
   8.300535e+05  -1.205616e+06
   1.702135e+06  -7.918115e+05
   1.432642e+06   4.126658e+05
   3.043770e+05   1.414515e+06
  -7.489875e+05   1.401283e+06
  -1.050661e+06   5.630178e+05
  -6.672419e+05  -2.211095e+05
  -1.420880e+05  -3.602991e+05
   7.079865e+04  -7.144007e+04
  -7.986839e+04   1.685825e+04
  -3.086820e+05  -3.643059e+05
  -2.642156e+05  -8.095844e+05
   1.678187e+05  -6.898019e+05
   6.913174e+05   1.061985e+05
   7.685295e+05   9.449093e+05
   1.409955e+05   1.041867e+06
  -7.554228e+05   2.707549e+05
  -1.063140e+06  -7.029719e+05
  -3.768436e+05  -1.094037e+06
   7.066632e+05  -7.019748e+05
   1.132878e+06   5.191548e+04
   5.494736e+05   6.108354e+05
  -2.780608e+05   6.935689e+05
  -3.787418e+05   3.777323e+05
   2.471780e+05  -8.819840e+00
   6.540153e+05  -5.475523e+04
   1.553342e+05   3.093329e+05
  -8.183838e+05   7.017923e+05
  -1.260893e+06   5.662929e+05
  -7.749852e+05  -1.686725e+05
   7.932961e+04  -8.811696e+05
   5.437112e+05  -8.752350e+05
   4.322519e+05  -1.732156e+05
   6.815584e+04   4.818080e+05
  -2.323061e+05   4.476690e+05
  -3.605536e+05  -1.362259e+05
  -2.700502e+05  -5.771812e+05
   4.449798e+04  -4.370991e+05
   3.967839e+05   3.434042e+04
   4.862930e+05   2.766220e+05
   2.455129e+05   9.485878e+04
  -3.862754e+04  -1.555345e+05
  -8.091570e+04  -4.956963e+04
   2.822382e+04   3.564626e+05
  -3.058259e+04   5.661670e+05
  -3.178120e+05   2.384432e+05
  -4.806902e+05  -3.690599e+05
  -1.828426e+05  -6.532564e+05
   4.031111e+05  -3.308277e+05
   6.823175e+05   2.643355e+05
   2.734783e+05   5.718159e+05
  -5.057104e+05   3.810239e+05
  -8.971156e+05  -5.416561e+04
  -4.942871e+05  -3.704365e+05
   2.887358e+05  -4.154026e+05
   6.433576e+05  -2.502602e+05
   2.574857e+05  -2.369517e+04
  -3.429146e+05   8.469961e+04
  -4.128272e+05  -4.661532e+04
   1.555780e+05  -2.958587e+05
   7.345807e+05  -2.955502e+05
