
 $NMID
 id='ANONYMOUS ', fmtdat='(2E16.6)'
 volume=1.0
 tramp=1.0
 $END
   4.835458e+07   2.058906e+06
   2.931168e+07   2.910061e+07
  -5.616471e+06   3.220782e+07
  -2.382851e+07   1.424384e+07
  -1.552264e+07  -4.248925e+06
   1.937542e+06  -8.361268e+06
   9.172559e+06  -2.536618e+05
   3.691495e+06   8.601279e+06
  -5.012507e+06   9.703745e+06
  -8.885010e+06   2.695681e+06
  -6.334398e+06  -5.993739e+06
  -3.282328e+05  -8.337888e+06
   3.910965e+06  -2.067729e+06
   2.307737e+06   6.071305e+06
  -3.619421e+06   6.909602e+06
  -7.303441e+06  -8.463670e+05
  -4.135287e+06  -9.334303e+06
   3.457282e+06  -1.072939e+07
   9.147427e+06  -4.916859e+06
   9.218114e+06   2.496298e+06
   4.865727e+06   6.693728e+06
   9.123794e+02   6.708067e+06
  -1.832693e+06   4.501827e+06
  -1.094040e+05   3.017779e+06
   1.668316e+06   3.774690e+06
  -7.224575e+05   5.027818e+06
  -6.549387e+06   3.534883e+06
  -9.745204e+06  -9.705342e+05
  -6.108071e+06  -4.728805e+06
   9.734518e+05  -4.481014e+06
   4.476129e+06  -1.320410e+06
   2.087314e+06   1.278549e+06
  -2.154983e+06   1.502618e+06
  -3.728020e+06  -2.377188e+05
  -2.108317e+06  -2.831142e+06
   5.449270e+05  -4.487559e+06
   2.266145e+06  -3.078148e+06
   2.122796e+06   8.908638e+05
   4.859496e+05   3.137995e+06
  -6.337207e+05   6.371211e+05
   5.908040e+05  -3.235278e+06
   2.833038e+06  -2.452474e+06
   2.437893e+06   2.830940e+06
  -1.602659e+06   5.516004e+06
  -5.318905e+06   1.106369e+06
  -4.130881e+06  -5.788314e+06
   1.538530e+06  -7.262467e+06
   6.618846e+06  -1.888869e+06
   6.741652e+06   4.460281e+06
   2.059956e+06   6.135552e+06
  -3.518106e+06   2.974996e+06
  -5.658610e+06  -1.366291e+06
  -2.887311e+06  -3.466068e+06
   2.009033e+06  -2.249272e+06
   4.252638e+06   7.228771e+05
   1.985388e+06   2.427756e+06
  -1.535875e+06   1.246674e+06
  -1.919826e+06  -1.042740e+06
   8.138432e+05  -1.336502e+06
   2.484292e+06   7.904165e+05
   3.831964e+05   2.633790e+06
  -3.386860e+06   1.946502e+06
  -4.774692e+06  -7.076443e+05
  -2.297718e+06  -3.423905e+06
   2.160183e+06  -4.893991e+06
   5.665584e+06  -4.241366e+06
   6.272576e+06  -9.568813e+05
   3.864824e+06   3.595251e+06
   2.979476e+05   6.161509e+06
  -1.829277e+06   4.906700e+06
  -1.610831e+06   1.874985e+06
  -7.223370e+05   4.584836e+05
  -1.150884e+06   1.051892e+06
  -2.600755e+06   1.080920e+06
  -3.079903e+06  -8.663792e+05
  -1.596762e+06  -2.933939e+06
   7.722397e+05  -2.583017e+06
   2.242707e+06   1.604420e+05
   1.787397e+06   2.877297e+06
  -4.668662e+05   3.328089e+06
  -3.180131e+06   1.219879e+06
  -4.253648e+06  -1.907165e+06
  -2.589114e+06  -3.935041e+06
   3.956488e+05  -3.778018e+06
   2.110208e+06  -2.255761e+06
   1.931203e+06  -1.095555e+06
   1.819163e+06  -8.898749e+05
   3.249965e+06  -5.484883e+05
   4.758797e+06   1.011078e+06
   3.700614e+06   3.276991e+06
  -1.621912e+05   4.658801e+06
  -4.036178e+06   4.087622e+06
  -5.010315e+06   1.774935e+06
  -2.818916e+06  -1.018449e+06
   2.636812e+05  -2.579148e+06
   1.648422e+06  -1.873600e+06
   5.689362e+05   1.990201e+05
  -1.435444e+06   1.299788e+06
  -2.093308e+06   2.538584e+05
  -7.820791e+05  -1.349875e+06
   7.935947e+05  -1.198942e+06
   6.571820e+05   4.832338e+05
  -1.013595e+06   1.079216e+06
  -2.130344e+06  -8.808405e+05
  -1.174055e+06  -3.624166e+06
   1.290567e+06  -4.220224e+06
   3.508315e+06  -1.885117e+06
   4.128381e+06   1.499915e+06
   2.842244e+06   3.542712e+06
   3.876062e+05   3.300797e+06
  -1.652697e+06   1.571927e+06
  -1.873623e+06   3.007691e+04
  -5.599779e+05  -9.727610e+04
   3.495628e+05   8.833056e+05
  -4.953713e+05   1.421654e+06
  -2.063553e+06   5.105002e+05
  -2.191262e+06  -1.030768e+06
  -4.116013e+05  -1.547324e+06
   1.354186e+06  -5.979868e+05
   1.093194e+06   6.080133e+05
  -9.749499e+05   7.343437e+05
  -2.687174e+06  -3.518816e+05
  -2.182396e+06  -1.767613e+06
   3.479448e+05  -2.472721e+06
   2.856126e+06  -1.844448e+06
   3.243323e+06  -1.101022e+05
   1.279003e+06   1.477222e+06
  -1.102808e+06   1.527175e+06
  -1.652483e+06   7.888018e+04
  -7.424797e+04  -1.158854e+06
   1.762650e+06  -6.836485e+05
   1.920148e+06   9.815112e+05
   3.675318e+05   1.928775e+06
  -1.256076e+06   1.168112e+06
  -1.478529e+06  -3.210054e+05
  -3.353384e+05  -8.853117e+05
   8.454452e+05  -2.740169e+04
   7.160915e+05   1.245099e+06
  -8.192703e+05   1.545787e+06
  -2.349699e+06   3.886491e+05
  -2.204439e+06  -1.404358e+06
  -2.553214e+05  -2.386471e+06
   1.745158e+06  -1.759447e+06
   1.983476e+06  -1.429046e+05
   5.553252e+05   1.019164e+06
  -8.025140e+05   8.985384e+05
  -7.993723e+05   8.831422e+03
   1.381204e+05  -5.417108e+05
   7.152844e+05  -3.030155e+05
   3.347170e+05   1.686213e+05
  -4.416781e+05   7.613694e+04
  -6.307116e+05  -6.857570e+05
   2.328270e+05  -1.342519e+06
   1.634341e+06  -9.420360e+05
   2.354946e+06   6.413891e+05
   1.500761e+06   2.351948e+06
  -4.750767e+05   2.789169e+06
  -2.020201e+06   1.570824e+06
  -2.044819e+06  -2.418983e+05
  -1.035032e+06  -1.227815e+06
  -3.079002e+05  -1.008676e+06
  -3.861011e+05  -4.082572e+05
  -5.659788e+05  -3.376918e+05
  -3.570617e+04  -7.943626e+05
   1.050531e+06  -9.951854e+05
   1.742613e+06  -3.134619e+05
   1.243532e+06   9.753188e+05
  -3.771867e+05   1.791269e+06
  -2.112224e+06   1.161812e+06
  -2.598307e+06  -7.466388e+05
  -1.188089e+06  -2.511470e+06
   1.268170e+06  -2.645047e+06
   2.954291e+06  -1.050853e+06
   2.723994e+06   8.658663e+05
   1.141995e+06   1.655030e+06
  -2.640807e+05   1.225928e+06
  -6.185052e+05   6.589646e+05
  -3.327327e+05   8.065049e+05
  -3.017462e+05   1.366182e+06
  -8.403720e+05   1.345212e+06
  -1.455366e+06   2.333613e+05
  -1.411341e+06  -1.371641e+06
  -4.505837e+05  -2.235711e+06
   8.640345e+05  -1.593598e+06
   1.495691e+06   1.005816e+05
   8.595243e+05   1.506198e+06
  -4.902246e+05   1.580471e+06
  -1.298089e+06   4.822535e+05
  -8.908156e+05  -7.192926e+05
   1.144780e+05  -1.162787e+06
   5.577870e+05  -8.983412e+05
   9.207086e+04  -5.372751e+05
  -4.376489e+05  -4.512343e+05
  -1.516094e+04  -4.568105e+05
   1.299394e+06  -1.650189e+05
   2.286198e+06   5.297189e+05
   1.775832e+06   1.295253e+06
  -7.983235e+04   1.602699e+06
  -1.830697e+06   1.159777e+06
  -2.111059e+06   2.203079e+05
  -9.683353e+05  -5.409364e+05
   2.976916e+05  -5.891771e+05
   5.725895e+05  -4.369811e+04
  -2.207003e+04   4.155018e+05
  -5.648063e+05   2.309998e+05
  -5.102995e+05  -4.372163e+05
  -1.403960e+05  -8.623513e+05
   1.010021e+04  -5.499978e+05
  -1.886768e+05   1.506782e+05
  -4.268851e+05   3.662495e+05
  -3.142615e+05  -2.894590e+05
   3.003151e+05  -1.144525e+06
   1.129431e+06  -1.131281e+06
   1.482055e+06  -4.228110e+04
   8.035608e+05   1.116414e+06
  -5.683987e+05   1.200719e+06
  -1.411260e+06   2.080711e+05
  -7.753164e+05  -7.513594e+05
   8.528807e+05  -7.038995e+05
   1.869238e+06   2.207738e+05
   1.190982e+06   1.092333e+06
  -5.882114e+05   1.180246e+06
  -1.821798e+06   5.197563e+05
  -1.490878e+06  -2.935295e+05
  -1.433762e+05  -6.342988e+05
   7.747506e+05  -2.895035e+05
   3.968324e+05   3.461031e+05
  -7.524322e+05   5.036945e+05
  -1.339641e+06  -2.590842e+05
  -5.907013e+05  -1.441720e+06
   9.148167e+05  -1.867121e+06
   1.826846e+06  -8.262923e+05
   1.372972e+06   1.023520e+06
   5.023158e+04   2.111856e+06
  -9.935864e+05   1.470194e+06
  -1.082143e+06  -2.515357e+05
  -4.356278e+05  -1.431104e+06
   2.970593e+05  -1.153145e+06
   6.498023e+05  -7.314579e+04
   5.459834e+05   5.043346e+05
   2.202777e+05   2.025054e+05
   5.073969e+04  -1.253439e+05
   2.367052e+05   3.205323e+05
   4.776290e+05   1.150930e+06
   1.730650e+05   1.295974e+06
  -8.055557e+05   4.171865e+05
  -1.678879e+06  -6.853882e+05
  -1.461345e+06  -1.108189e+06
  -1.577137e+05  -8.202880e+05
   1.076119e+06  -3.892239e+05
   1.182938e+06  -1.307835e+05
   3.830605e+05   5.943070e+04
  -2.067574e+05   2.388604e+05
  -1.484229e+04   2.748931e+05
   3.465031e+05   1.801786e+05
   2.294066e+04   1.577422e+05
  -8.448612e+05   1.732634e+05
  -1.201885e+06  -1.304915e+05
  -3.567679e+05  -8.154272e+05
   1.133985e+06  -1.237594e+06
   1.998179e+06  -6.808335e+05
   1.520253e+06   6.511551e+05
   1.580534e+05   1.661302e+06
  -1.005716e+06   1.506176e+06
  -1.259564e+06   4.857266e+05
  -7.370094e+05  -3.650599e+05
  -9.749199e+04  -4.220493e+05
   1.248188e+05  -2.776161e+04
  -8.852060e+04   5.071330e+04
  -3.402044e+05  -4.469242e+05
  -2.274772e+05  -9.664584e+05
   2.818172e+05  -7.558352e+05
   7.781664e+05   2.430848e+05
   7.252992e+05   1.199249e+06
  -1.812424e+04   1.186564e+06
  -9.126147e+05   1.605722e+05
  -1.102159e+06  -9.735521e+05
  -2.679011e+05  -1.285554e+06
   8.904845e+05  -6.794788e+05
   1.262491e+06   2.027634e+05
   5.384552e+05   7.232565e+05
  -3.844565e+05   7.170263e+05
  -4.355332e+05   3.893670e+05
   3.223641e+05   6.155690e+04
   7.656256e+05   2.746151e+04
   1.280164e+05   3.594430e+05
  -1.024332e+06   7.116519e+05
  -1.485589e+06   5.433151e+05
  -8.343376e+05  -2.365568e+05
   1.954180e+05  -9.805390e+05
   6.832301e+05  -9.314820e+05
   4.607041e+05  -1.283376e+05
  -1.022663e+04   5.709467e+05
  -3.210094e+05   4.574407e+05
  -3.859049e+05  -2.407517e+05
  -2.321575e+05  -6.933960e+05
   1.030036e+05  -4.547084e+05
   4.425292e+05   1.048627e+05
   5.181964e+05   3.430868e+05
   2.775172e+05   1.130197e+05
  -1.513298e+04  -1.443920e+05
  -1.074594e+05  -6.840493e+02
  -7.607173e+04   4.192182e+05
  -1.695218e+05   5.737164e+05
  -3.943481e+05   1.516540e+05
  -4.352668e+05  -5.120682e+05
  -5.494662e+04  -7.531057e+05
   5.162538e+05  -3.022643e+05
   7.124699e+05   4.047546e+05
   2.163038e+05   6.979074e+05
  -6.115686e+05   3.719168e+05
  -9.898552e+05  -1.829799e+05
  -5.075244e+05  -4.818763e+05
   3.715441e+05  -4.090381e+05
   7.435917e+05  -1.730524e+05
   2.632840e+05   4.881930e+02
  -4.368692e+05   6.694891e+03
  -4.691647e+05  -1.558791e+05
   2.603776e+05  -3.345235e+05
   9.369984e+05  -2.259035e+05
