
 $NMID
 id='ANONYMOUS ', fmtdat='(2E16.6)'
 volume=1.0
 tramp=1.0
 $END
  -3.810067e+07   2.685982e+05
  -2.436313e+07  -2.081646e+07
   2.489287e+06  -2.513199e+07
   1.765806e+07  -1.295127e+07
   1.255102e+07   1.720414e+06
  -7.363670e+05   6.641705e+06
  -7.238136e+06   1.232912e+06
  -3.818997e+06  -6.424272e+06
   3.067997e+06  -8.386423e+06
   6.871106e+06  -2.989542e+06
   5.462592e+06   4.543208e+06
   6.828325e+05   6.878364e+06
  -3.169442e+06   1.781692e+06
  -2.343515e+06  -5.103197e+06
   2.409950e+06  -6.084293e+06
   5.883763e+06   9.506286e+04
   3.901077e+06   7.206614e+06
  -2.121353e+06   8.765814e+06
  -7.048559e+06   4.308803e+06
  -7.385276e+06  -1.730634e+06
  -3.890460e+06  -5.167869e+06
  -4.246307e+04  -5.064622e+06
   1.069548e+06  -3.269370e+06
  -6.708252e+05  -2.379800e+06
  -2.013822e+06  -3.399341e+06
   4.113090e+05  -4.581503e+06
   5.605520e+06  -3.295198e+06
   8.351082e+06   5.155519e+05
   5.207241e+06   3.776132e+06
  -9.174287e+05   3.779284e+06
  -4.001709e+06   1.152500e+06
  -1.874940e+06  -1.335992e+06
   2.061254e+06  -1.756088e+06
   3.613914e+06  -3.189556e+04
   2.079393e+06   2.615005e+06
  -4.401445e+05   4.062747e+06
  -1.890978e+06   2.529098e+06
  -1.589760e+06  -9.609812e+05
  -2.076925e+05  -2.572235e+06
   5.921543e+05  -1.813751e+05
  -4.339860e+05   3.060383e+06
  -2.256437e+06   2.319826e+06
  -2.176117e+06  -2.069282e+06
   7.584701e+05  -4.411278e+06
   3.838487e+06  -1.138105e+06
   3.424378e+06   4.277226e+06
  -7.787990e+05   5.712795e+06
  -5.166761e+06   1.798948e+06
  -5.847711e+06  -3.225163e+06
  -2.225967e+06  -4.932258e+06
   2.682144e+06  -2.801227e+06
   4.883696e+06   6.285361e+05
   2.766493e+06   2.608259e+06
  -1.390036e+06   1.982922e+06
  -3.479466e+06  -2.689769e+05
  -1.793093e+06  -1.790572e+06
   1.151068e+06  -1.093253e+06
   1.721670e+06   7.134333e+05
  -3.851168e+05   1.234483e+06
  -2.008411e+06  -1.966588e+05
  -7.047985e+05  -1.809702e+06
   2.297108e+06  -1.726590e+06
   3.771451e+06   1.170795e+05
   2.075353e+06   2.508651e+06
  -1.580691e+06   4.131706e+06
  -4.638962e+06   3.812052e+06
  -5.231971e+06   1.020925e+06
  -3.296292e+06  -2.907660e+06
  -4.963890e+05  -5.149763e+06
   1.141252e+06  -4.224193e+06
   1.079800e+06  -1.829229e+06
   6.383383e+05  -6.927972e+05
   1.201307e+06  -1.111452e+06
   2.441788e+06  -1.000231e+06
   2.820304e+06   7.793244e+05
   1.528844e+06   2.656741e+06
  -6.347022e+05   2.419582e+06
  -2.116132e+06   5.768664e+03
  -1.815604e+06  -2.474291e+06
   2.386241e+05  -2.959477e+06
   2.717227e+06  -1.160001e+06
   3.675342e+06   1.508009e+06
   2.255478e+06   3.194675e+06
  -2.175699e+05   3.060620e+06
  -1.588455e+06   1.856199e+06
  -1.431069e+06   9.908515e+05
  -1.406535e+06   9.230448e+05
  -2.722589e+06   7.457915e+05
  -4.147644e+06  -5.129441e+05
  -3.412347e+06  -2.560161e+06
  -1.812462e+05  -4.046590e+06
   3.254031e+06  -3.817844e+06
   4.293885e+06  -1.822816e+06
   2.521979e+06   7.964643e+05
  -1.493024e+05   2.316211e+06
  -1.399790e+06   1.713259e+06
  -5.106235e+05  -1.738057e+05
   1.195546e+06  -1.218736e+06
   1.786829e+06  -3.404438e+05
   7.201890e+05   1.121355e+06
  -6.454074e+05   1.109954e+06
  -6.633923e+05  -3.505653e+05
   6.930788e+05  -1.075678e+06
   1.853334e+06   4.114425e+05
   1.404734e+06   2.876671e+06
  -5.707527e+05   3.776598e+06
  -2.769188e+06   2.082453e+06
  -3.758339e+06  -8.554643e+05
  -2.860482e+06  -2.879121e+06
  -6.222888e+05  -2.905233e+06
   1.358043e+06  -1.494304e+06
   1.654495e+06  -1.338321e+05
   4.941661e+05   4.870887e+04
  -3.672394e+05  -7.428604e+05
   3.180643e+05  -1.242656e+06
   1.718478e+06  -5.702043e+05
   1.947305e+06   7.143989e+05
   4.779025e+05   1.284794e+06
  -1.124451e+06   6.274986e+05
  -1.031003e+06  -4.386766e+05
   7.527561e+05  -7.587101e+05
   2.390511e+06   3.454973e+04
   2.109594e+06   1.361781e+06
  -7.114611e+04   2.223975e+06
  -2.357011e+06   1.850996e+06
  -2.823069e+06   3.328548e+05
  -1.203410e+06  -1.181664e+06
   8.514844e+05  -1.367096e+06
   1.397487e+06  -1.603322e+05
   1.166296e+05   9.900396e+05
  -1.482473e+06   7.059655e+05
  -1.737987e+06  -7.035593e+05
  -4.869898e+05  -1.641757e+06
   9.750055e+05  -1.133859e+06
   1.311410e+06   1.299116e+05
   3.850850e+05   7.267188e+05
  -7.096037e+05   8.783345e+04
  -6.992391e+05  -1.027463e+06
   6.158355e+05  -1.395981e+06
   2.023150e+06  -4.863551e+05
   2.007630e+06   1.080449e+06
   3.817618e+05   2.053368e+06
  -1.386161e+06   1.645167e+06
  -1.708301e+06   2.705758e+05
  -5.669436e+05  -8.403989e+05
   6.274887e+05  -8.477185e+05
   7.208348e+05  -6.642966e+04
  -5.110983e+04   5.167264e+05
  -6.208468e+05   3.641845e+05
  -3.701512e+05  -1.153845e+05
   3.291597e+05  -1.423682e+05
   6.011728e+05   5.020839e+05
  -8.028928e+04   1.165636e+06
  -1.341567e+06   9.365385e+05
  -2.090067e+06  -3.903506e+05
  -1.463219e+06  -1.941924e+06
   2.230792e+05  -2.469933e+06
   1.651583e+06  -1.536405e+06
   1.821860e+06   4.211692e+04
   1.035500e+06   1.016711e+06
   3.660765e+05   9.223096e+05
   3.379695e+05   3.794886e+05
   4.684024e+05   2.489391e+05
   7.146525e+04   6.603534e+05
  -8.296306e+05   9.401693e+05
  -1.495266e+06   4.169734e+05
  -1.180701e+06  -7.620881e+05
   1.756046e+05  -1.614157e+06
   1.755318e+06  -1.183107e+06
   2.326446e+06   4.604200e+05
   1.227579e+06   2.093624e+06
  -8.901427e+05   2.381268e+06
  -2.471269e+06   1.136297e+06
  -2.441506e+06  -5.281171e+05
  -1.158560e+06  -1.350861e+06
   1.085687e+05  -1.122884e+06
   5.145264e+05  -6.632352e+05
   2.915708e+05  -7.338493e+05
   2.060181e+05  -1.183586e+06
   6.380421e+05  -1.201442e+06
   1.237090e+06  -2.896068e+05
   1.315987e+06   1.105309e+06
   5.407991e+05   1.921868e+06
  -6.501565e+05   1.449718e+06
  -1.313219e+06   2.274276e+04
  -8.583558e+05  -1.235212e+06
   2.931747e+05  -1.401991e+06
   1.059733e+06  -5.339097e+05
   8.100142e+05   5.172905e+05
   7.446685e+03   9.854065e+05
  -3.798463e+05   8.172359e+05
  -2.225934e+04   4.885151e+05
   4.049761e+05   3.748851e+05
   3.917597e+04   4.013859e+05
  -1.103691e+06   2.337652e+05
  -2.003575e+06  -3.017144e+05
  -1.631788e+06  -9.925822e+05
  -6.255443e+04  -1.375792e+06
   1.486622e+06  -1.119258e+06
   1.809615e+06  -3.526643e+05
   8.832261e+05   3.674218e+05
  -2.088291e+05   5.132650e+05
  -4.826676e+05   8.939242e+04
   8.094161e+03  -3.435656e+05
   4.904129e+05  -2.340384e+05
   4.692346e+05   3.492317e+05
   1.539953e+05   7.558618e+05
   2.784249e+03   4.877005e+05
   1.528795e+05  -1.627740e+05
   3.620234e+05  -3.760576e+05
   2.970564e+05   2.251302e+05
  -1.955159e+05   1.028390e+06
  -9.065063e+05   1.056565e+06
  -1.260009e+06   1.124610e+05
  -7.437515e+05  -9.265892e+05
   4.201754e+05  -1.059238e+06
   1.203417e+06  -2.453805e+05
   7.235901e+05   6.132033e+05
  -6.883460e+05   6.748297e+05
  -1.653725e+06  -4.905481e+04
  -1.146939e+06  -8.571360e+05
   4.017523e+05  -1.085675e+06
   1.553063e+06  -6.166875e+05
   1.341063e+06   1.293136e+05
   1.837834e+05   5.472948e+05
  -6.505373e+05   3.180387e+05
  -3.594752e+05  -2.682521e+05
   6.382786e+05  -4.797175e+05
   1.188402e+06   1.574683e+05
   5.889316e+05   1.235205e+06
  -7.069318e+05   1.686579e+06
  -1.559176e+06   8.264172e+05
  -1.267907e+06  -8.145897e+05
  -1.811424e+05  -1.849730e+06
   7.681332e+05  -1.366159e+06
   9.643578e+05   1.289845e+05
   4.947664e+05   1.215670e+06
  -1.558124e+05   1.036900e+06
  -5.539026e+05   1.166123e+05
  -5.294187e+05  -4.045802e+05
  -2.268335e+05  -1.644907e+05
  -2.773334e+04   1.175766e+05
  -1.986956e+05  -2.568049e+05
  -4.834611e+05  -9.712798e+05
  -2.620374e+05  -1.122013e+06
   6.495468e+05  -4.178437e+05
   1.518404e+06   4.875607e+05
   1.373957e+06   8.674243e+05
   1.942899e+05   7.014761e+05
  -9.348982e+05   4.133199e+05
  -1.031610e+06   2.018295e+05
  -3.203953e+05  -1.831723e+04
   1.732752e+05  -2.221788e+05
  -2.969593e+04  -2.480729e+05
  -3.416253e+05  -1.424866e+05
  -2.165971e+04  -1.394719e+05
   7.550538e+05  -2.026736e+05
   1.058024e+06   4.395443e+04
   3.285289e+05   6.932122e+05
  -9.379662e+05   1.145653e+06
  -1.691031e+06   7.027815e+05
  -1.344067e+06  -4.917667e+05
  -2.359685e+05  -1.448729e+06
   7.778289e+05  -1.372056e+06
   1.072783e+06  -4.891061e+05
   6.740967e+05   2.843199e+05
   1.021675e+05   3.643154e+05
  -1.308154e+05   2.246591e+04
   6.300256e+04  -6.463280e+04
   3.358953e+05   3.592904e+05
   2.707991e+05   8.284809e+05
  -2.039316e+05   6.752615e+05
  -7.042721e+05  -1.778190e+05
  -6.999854e+05  -1.021550e+06
  -3.284960e+04  -1.041989e+06
   8.069511e+05  -1.786690e+05
   1.022272e+06   8.045086e+05
   2.999185e+05   1.109337e+06
  -7.431802e+05   6.340681e+05
  -1.106815e+06  -1.066072e+05
  -5.003338e+05  -5.853510e+05
   2.933666e+05  -6.301531e+05
   3.383531e+05  -3.595439e+05
  -3.079786e+05  -3.759282e+04
  -6.772640e+05   2.196685e+04
  -1.264871e+05  -3.036692e+05
   8.504124e+05  -6.899284e+05
   1.244086e+06  -5.809056e+05
   7.205655e+05   1.423340e+05
  -1.128361e+05   8.620880e+05
  -5.225576e+05   8.453651e+05
  -3.771816e+05   1.218178e+05
  -1.756174e+04  -5.108049e+05
   2.583073e+05  -4.096357e+05
   3.575333e+05   2.046953e+05
   2.436354e+05   5.932396e+05
  -7.022697e+04   3.881582e+05
  -3.945884e+05  -7.243321e+04
  -4.655166e+05  -2.560739e+05
  -2.471271e+05  -6.992873e+04
   9.865055e+03   1.126672e+05
   8.741310e+04  -3.636981e+04
   6.381829e+04  -3.889493e+05
   1.537528e+05  -4.995829e+05
   3.545545e+05  -1.254390e+05
   3.923453e+05   4.484610e+05
   6.215245e+04   6.652758e+05
  -4.442877e+05   2.890968e+05
  -6.383054e+05  -3.249535e+05
  -2.244458e+05  -6.065866e+05
   5.067070e+05  -3.592723e+05
   8.677774e+05   1.094671e+05
   4.683474e+05   3.917233e+05
  -3.027130e+05   3.667487e+05
  -6.384778e+05   1.789445e+05
  -2.161897e+05   9.531267e+03
   4.059238e+05  -2.214423e+04
   4.328759e+05   1.268796e+05
  -2.214677e+05   3.251468e+05
  -8.339754e+05   2.607051e+05
