
 $NMID
 id='ANONYMOUS ', fmtdat='(2E16.6)'
 volume=1.0
 tramp=1.0
 $END
  -3.110439e+07  -7.419852e+05
  -1.829907e+07  -1.955884e+07
   4.489989e+06  -2.089859e+07
   1.535749e+07  -7.877280e+06
   9.062234e+06   3.918394e+06
  -1.868325e+06   5.115940e+06
  -5.429971e+06  -6.898934e+05
  -1.508465e+06  -5.408961e+06
   3.472856e+06  -5.179694e+06
   5.363159e+06  -1.065760e+06
   3.821793e+06   3.531544e+06
   3.509727e+05   4.817785e+06
  -2.266785e+06   1.461921e+06
  -1.421711e+06  -3.112850e+06
   2.147968e+06  -3.654725e+06
   4.354611e+06   7.956179e+05
   2.368283e+06   5.705248e+06
  -2.216004e+06   6.504081e+06
  -5.667571e+06   3.146649e+06
  -5.948764e+06  -1.292944e+06
  -3.528786e+06  -4.231333e+06
  -2.418255e+05  -4.747004e+06
   1.644921e+06  -3.255882e+06
   9.526276e+05  -1.481574e+06
  -6.645939e+05  -1.301805e+06
  -6.746405e+04  -2.408515e+06
   3.144355e+06  -2.389172e+06
   5.447587e+06  -1.159293e+05
   3.869077e+06   2.422124e+06
   1.730839e+04   2.826875e+06
  -2.172742e+06   1.351754e+06
  -1.388183e+06  -9.581753e+04
   4.295352e+05  -5.846933e+05
   1.382156e+06  -2.405530e+05
   1.239495e+06   9.057049e+05
   2.930674e+05   2.264532e+06
  -1.082491e+06   2.106280e+06
  -1.757610e+06  -1.521719e+05
  -8.466959e+05  -2.043124e+06
   4.649282e+05  -9.914870e+05
   1.307760e+05   1.444559e+06
  -1.416586e+06   1.287689e+06
  -1.338753e+06  -1.787680e+06
   1.369711e+06  -3.364495e+06
   3.799391e+06  -4.890379e+05
   2.731057e+06   3.869608e+06
  -1.139242e+06   4.677658e+06
  -4.140260e+06   1.247763e+06
  -3.846923e+06  -2.554388e+06
  -1.000662e+06  -3.398994e+06
   1.969582e+06  -1.509267e+06
   2.959057e+06   8.824206e+05
   1.359291e+06   1.967148e+06
  -1.347427e+06   1.208769e+06
  -2.510601e+06  -5.474142e+05
  -1.067963e+06  -1.523326e+06
   9.655809e+05  -7.437544e+05
   9.793584e+05   5.886568e+05
  -7.095675e+05   5.229840e+05
  -1.359274e+06  -9.416495e+05
   3.225035e+05  -1.855755e+06
   2.529116e+06  -1.011117e+06
   2.916292e+06   7.702916e+05
   1.256352e+06   2.212988e+06
  -1.082686e+06   2.919914e+06
  -2.899909e+06   2.648789e+06
  -3.506569e+06   8.810754e+05
  -2.506750e+06  -1.848285e+06
  -4.386273e+05  -3.480879e+06
   1.079027e+06  -2.669653e+06
   9.788110e+05  -7.100199e+05
   1.136681e+05   8.802843e+04
   6.563472e+04  -5.758896e+05
   9.913445e+05  -9.658002e+05
   1.620581e+06  -4.722571e+04
   1.116478e+06   1.174085e+06
  -4.556598e+04   1.250680e+06
  -9.276138e+05   9.289780e+04
  -9.502922e+05  -1.231715e+06
   4.445439e+04  -1.685854e+06
   1.603677e+06  -8.886576e+05
   2.503496e+06   7.543560e+05
   1.743742e+06   2.160962e+06
  -8.503928e+04   2.353536e+06
  -1.298600e+06   1.477165e+06
  -1.246024e+06   6.137925e+05
  -1.032888e+06   3.822627e+05
  -1.679676e+06   2.551723e+05
  -2.474236e+06  -4.745288e+05
  -1.963531e+06  -1.617935e+06
  -2.835608e+04  -2.367555e+06
   1.891478e+06  -2.198792e+06
   2.431595e+06  -1.153889e+06
   1.516614e+06   2.943807e+05
   1.096431e+05   1.294913e+06
  -6.728742e+05   1.088856e+06
  -3.216994e+05  -3.501498e+04
   6.478554e+05  -7.362882e+05
   1.096047e+06  -2.029403e+05
   5.049388e+05   7.011151e+05
  -3.181030e+05   6.355257e+05
  -2.539792e+05  -2.264502e+05
   6.010165e+05  -4.062241e+05
   1.048170e+06   7.178353e+05
   3.649428e+05   1.977751e+06
  -9.031244e+05   1.955683e+06
  -1.795990e+06   6.484833e+05
  -1.904301e+06  -8.399881e+05
  -1.303469e+06  -1.619108e+06
  -2.379556e+05  -1.521030e+06
   7.378877e+05  -8.295116e+05
   9.155969e+05  -1.077170e+05
   2.834816e+05   3.273561e+04
  -1.973852e+05  -4.377842e+05
   2.518160e+05  -7.634312e+05
   1.099322e+06  -3.082584e+05
   1.157177e+06   5.311387e+05
   2.071048e+05   8.164304e+05
  -6.815634e+05   3.164366e+05
  -5.125396e+05  -2.732919e+05
   4.919869e+05  -2.978891e+05
   1.260440e+06   2.014182e+05
   1.002030e+06   8.039795e+05
  -1.615734e+05   1.142173e+06
  -1.353994e+06   9.314885e+05
  -1.605197e+06   1.240937e+05
  -6.850373e+05  -7.430294e+05
   5.479391e+05  -8.497989e+05
   8.970964e+05  -8.763502e+04
   9.878323e+04   6.235531e+05
  -8.841722e+05   4.045941e+05
  -9.822021e+05  -4.713129e+05
  -1.775832e+05  -9.576537e+05
   6.393280e+05  -5.538033e+05
   7.227978e+05   1.913763e+05
   1.352523e+05   4.526296e+05
  -4.583309e+05   2.181892e+04
  -4.108575e+05  -6.176005e+05
   3.522286e+05  -8.149114e+05
   1.167598e+06  -2.863809e+05
   1.161966e+06   6.337695e+05
   1.947275e+05   1.203094e+06
  -8.520141e+05   9.301443e+05
  -9.993910e+05   1.000869e+05
  -2.800838e+05  -5.076892e+05
   3.903616e+05  -4.564322e+05
   3.693624e+05  -3.588155e+04
  -7.088474e+04   2.106173e+05
  -2.893810e+05   1.186594e+05
  -7.666824e+04  -3.966554e+04
   2.536979e+05   4.508771e+04
   2.914480e+05   3.901618e+05
  -1.319419e+05   6.816937e+05
  -8.090156e+05   4.997944e+05
  -1.197182e+06  -2.657779e+05
  -8.210585e+05  -1.141708e+06
   1.564191e+05  -1.396801e+06
   9.515029e+05  -7.978450e+05
   9.768384e+05   9.234777e+04
   4.882561e+05   5.309447e+05
   1.770972e+05   3.869081e+05
   2.700013e+05   1.374005e+05
   3.538298e+05   1.881861e+05
   4.162435e+04   4.400573e+05
  -5.165075e+05   5.094080e+05
  -8.411128e+05   1.708039e+05
  -5.996690e+05  -4.310705e+05
   1.611990e+05  -8.426272e+05
   1.008570e+06  -5.993872e+05
   1.293491e+06   3.076415e+05
   6.293003e+05   1.227113e+06
  -6.114634e+05   1.352941e+06
  -1.479909e+06   5.643136e+05
  -1.350371e+06  -4.084055e+05
  -5.388062e+05  -7.849789e+05
   1.285142e+05  -5.466950e+05
   2.333173e+05  -2.934048e+05
   5.945806e+04  -4.346392e+05
   7.918783e+04  -7.514258e+05
   4.034638e+05  -7.336513e+05
   7.502578e+05  -1.667032e+05
   7.586711e+05   6.415250e+05
   2.974772e+05   1.101968e+06
  -3.778525e+05   8.226781e+05
  -7.429389e+05  -1.713910e+04
  -4.532861e+05  -7.506306e+05
   2.417153e+05  -8.009471e+05
   6.742339e+05  -2.210424e+05
   4.585626e+05   4.099665e+05
  -8.310038e+04   6.173696e+05
  -3.170241e+05   4.446587e+05
  -5.306070e+04   2.400807e+05
   2.458904e+05   2.000831e+05
   2.963335e+04   2.225261e+05
  -6.653482e+05   1.069078e+05
  -1.186503e+06  -2.178532e+05
  -9.210828e+05  -6.186141e+05
   3.894773e+04  -8.271342e+05
   9.312233e+05  -6.380965e+05
   1.060949e+06  -1.380422e+05
   4.753223e+05   2.942531e+05
  -1.576136e+05   3.245163e+05
  -2.953992e+05   1.351797e+04
  -1.178493e+04  -2.430928e+05
   2.595244e+05  -1.440356e+05
   2.741516e+05   2.034941e+05
   1.375896e+05   4.214690e+05
   4.950810e+04   2.785769e+05
   8.022104e+04  -5.334152e+04
   1.647581e+05  -1.661709e+05
   1.563103e+05   1.375149e+05
  -9.338858e+04   5.686768e+05
  -5.325594e+05   6.054530e+05
  -7.898392e+05   8.478212e+04
  -4.822197e+05  -5.391741e+05
   2.537509e+05  -6.541740e+05
   7.318624e+05  -1.806993e+05
   4.178675e+05   3.395926e+05
  -4.138230e+05   3.660680e+05
  -9.162476e+05  -7.520356e+04
  -5.691802e+05  -5.110052e+05
   2.928139e+05  -5.642530e+05
   8.711992e+05  -2.564269e+05
   7.087127e+05   1.262435e+05
   7.051918e+04   2.982472e+05
  -3.788772e+05   1.467614e+05
  -2.193426e+05  -1.755429e+05
   3.434215e+05  -2.972527e+05
   6.845435e+05   5.751730e+04
   3.791234e+05   6.900844e+05
  -3.556835e+05   9.815531e+05
  -8.667413e+05   5.003226e+05
  -7.197831e+05  -4.500692e+05
  -9.922902e+04  -1.038535e+06
   4.421150e+05  -7.390637e+05
   5.324261e+05   1.150532e+05
   2.332942e+05   6.946676e+05
  -1.417736e+05   5.554757e+05
  -3.273762e+05   4.038382e+04
  -2.624256e+05  -2.223924e+05
  -8.948074e+04  -7.958519e+04
  -3.053489e+04   5.322601e+04
  -1.641958e+05  -1.775011e+05
  -2.868076e+05  -5.663698e+05
  -9.399103e+04  -6.247880e+05
   4.237042e+05  -2.192500e+05
   8.481460e+05   2.844377e+05
   7.271390e+05   4.972622e+05
   9.900578e+04   4.074437e+05
  -4.934826e+05   2.353708e+05
  -5.696175e+05   9.378257e+04
  -2.123772e+05  -3.802799e+04
   8.448287e+04  -1.300914e+05
   2.878598e+04  -1.144253e+05
  -1.458853e+05  -5.249481e+04
  -3.106531e+04  -7.749888e+04
   3.778187e+05  -1.347817e+05
   6.078408e+05   1.329392e+04
   2.564032e+05   4.075085e+05
  -4.905245e+05   6.815267e+05
  -9.976856e+05   4.301343e+05
  -8.255374e+05  -2.576712e+05
  -1.519867e+05  -8.163296e+05
   4.581564e+05  -7.942044e+05
   6.135740e+05  -3.099460e+05
   3.775574e+05   1.346080e+05
   7.872701e+04   2.094105e+05
  -3.411402e+04   4.413219e+04
   4.948513e+04  -2.665104e+03
   1.668596e+05   2.179257e+05
   1.334357e+05   4.703174e+05
  -1.071571e+05   3.948765e+05
  -3.930227e+05  -6.805072e+04
  -4.288173e+05  -5.507426e+05
  -7.142253e+04  -6.011572e+05
   4.331156e+05  -1.493945e+05
   6.000363e+05   4.153533e+05
   2.021772e+05   6.352524e+05
  -4.167354e+05   3.964775e+05
  -6.537306e+05  -4.751178e+04
  -3.098404e+05  -3.659953e+05
   1.721371e+05  -4.009374e+05
   2.309590e+05  -2.125574e+05
  -1.343610e+05  -2.270651e+03
  -3.746503e+05   2.069533e+04
  -8.635730e+04  -1.817030e+05
   4.829302e+05  -3.873535e+05
   7.414526e+05  -2.975465e+05
   4.500926e+05   1.160358e+05
  -6.052199e+04   5.076862e+05
  -3.343226e+05   4.966570e+05
  -2.583243e+05   9.778516e+04
  -3.415686e+04  -2.745952e+05
   1.396981e+05  -2.569154e+05
   2.036639e+05   7.814814e+04
   1.458577e+05   3.360601e+05
  -3.100889e+04   2.562232e+05
  -2.273582e+05  -2.385940e+04
  -2.772009e+05  -1.720313e+05
  -1.398086e+05  -6.303567e+04
   2.326851e+04   9.495649e+04
   4.671985e+04   4.072579e+04
  -1.873140e+04  -2.001335e+05
   1.379524e+04  -3.308258e+05
   1.814566e+05  -1.431431e+05
   2.777551e+05   2.117508e+05
   1.052589e+05   3.763639e+05
  -2.337123e+05   1.859442e+05
  -3.913998e+05  -1.590168e+05
  -1.502294e+05  -3.303035e+05
   2.991841e+05  -2.111671e+05
   5.181633e+05   4.352754e+04
   2.794386e+05   2.211754e+05
  -1.727259e+05   2.386215e+05
  -3.752593e+05   1.388212e+05
  -1.535236e+05   1.065752e+04
   1.905903e+05  -4.737158e+04
   2.327345e+05   2.676615e+04
  -8.894073e+04   1.621641e+05
  -4.172242e+05   1.562429e+05
