
 $NMID
 id='ANONYMOUS ', fmtdat='(2E16.6)'
 volume=1.0
 tramp=1.0
 $END
   3.207930e+07   2.253611e+06
   1.935970e+07   1.785414e+07
  -2.814360e+06   2.039753e+07
  -1.492695e+07   1.083962e+07
  -1.063841e+07  -8.443987e+05
   3.977192e+05  -5.436840e+06
   6.129727e+06  -1.437838e+06
   3.524736e+06   5.333582e+06
  -2.434618e+06   7.525614e+06
  -5.903790e+06   2.755929e+06
  -4.617056e+06  -4.218196e+06
  -3.058575e+05  -6.217412e+06
   2.953312e+06  -1.300062e+06
   2.001435e+06   4.956010e+06
  -2.189979e+06   5.609192e+06
  -5.078328e+06  -7.495591e+04
  -3.217847e+06  -6.346215e+06
   2.078352e+06  -7.529263e+06
   6.266114e+06  -3.345001e+06
   6.187047e+06   2.058611e+06
   2.716095e+06   4.718053e+06
  -5.639220e+05   3.994076e+06
  -8.350197e+05   2.230394e+06
   1.287616e+06   2.051039e+06
   2.236666e+06   3.659698e+06
  -6.899845e+05   4.634439e+06
  -5.717913e+06   2.756528e+06
  -7.837834e+06  -1.141622e+06
  -4.404968e+06  -3.873072e+06
   1.444425e+06  -3.363709e+06
   4.116734e+06  -6.060184e+05
   1.715469e+06   1.789649e+06
  -2.403597e+06   1.994759e+06
  -3.935814e+06  -8.668625e+04
  -2.033810e+06  -2.932155e+06
   8.223292e+05  -4.069331e+06
   2.027676e+06  -2.060524e+06
   1.127221e+06   1.336304e+06
  -3.788874e+05   2.328860e+06
  -6.759006e+05  -3.429944e+05
   6.780806e+05  -3.205487e+06
   2.209080e+06  -2.193296e+06
   1.889908e+06   1.778482e+06
  -5.516369e+05   3.655300e+06
  -2.902849e+06   7.706413e+05
  -2.517836e+06  -3.681946e+06
   8.552593e+05  -4.679893e+06
   4.522802e+06  -1.244530e+06
   5.204326e+06   3.072475e+06
   2.045556e+06   4.537730e+06
  -2.460388e+06   2.606437e+06
  -4.556014e+06  -5.325229e+05
  -2.644216e+06  -2.326938e+06
   1.131037e+06  -1.722500e+06
   3.019506e+06   2.693106e+05
   1.565351e+06   1.529092e+06
  -1.014138e+06   8.908241e+05
  -1.616414e+06  -6.521894e+05
   1.241435e+05  -1.184500e+06
   1.679215e+06  -1.407821e+05
   8.518169e+05   1.210457e+06
  -1.662120e+06   1.368794e+06
  -3.146602e+06   3.801630e+02
  -1.768035e+06  -2.116050e+06
   1.681899e+06  -3.664908e+06
   4.610277e+06  -3.289364e+06
   4.927869e+06  -5.786138e+05
   2.762152e+06   2.960936e+06
   1.391555e+05   4.783016e+06
  -1.062487e+06   3.871075e+06
  -8.474914e+05   1.873138e+06
  -6.883341e+05   9.777317e+05
  -1.542198e+06   1.200743e+06
  -2.720238e+06   7.522395e+05
  -2.815172e+06  -1.132413e+06
  -1.326929e+06  -2.875743e+06
   8.527499e+05  -2.459100e+06
   2.226713e+06   7.307082e+04
   1.757908e+06   2.559335e+06
  -3.847466e+05   2.894202e+06
  -2.702821e+06   9.064140e+05
  -3.341419e+06  -1.724746e+06
  -1.797393e+06  -3.094853e+06
   4.380224e+05  -2.667663e+06
   1.476610e+06  -1.475496e+06
   1.211798e+06  -8.273579e+05
   1.260489e+06  -8.958277e+05
   2.595454e+06  -7.055723e+05
   3.956095e+06   5.650681e+05
   3.217867e+06   2.538668e+06
   6.785723e+04   3.920346e+06
  -3.300829e+06   3.608678e+06
  -4.289771e+06   1.580268e+06
  -2.419359e+06  -9.636116e+05
   3.273941e+05  -2.304982e+06
   1.507296e+06  -1.583917e+06
   4.779165e+05   2.283773e+05
  -1.238451e+06   1.127254e+06
  -1.711128e+06   2.458582e+05
  -5.969029e+05  -1.100592e+06
   6.934143e+05  -1.057301e+06
   6.877821e+05   3.361960e+05
  -5.761416e+05   1.094784e+06
  -1.718540e+06  -2.181870e+05
  -1.446696e+06  -2.607236e+06
   3.442378e+05  -3.673109e+06
   2.568016e+06  -2.190544e+06
   3.712966e+06   7.285284e+05
   2.880378e+06   2.861213e+06
   5.976945e+05   2.913683e+06
  -1.392051e+06   1.437006e+06
  -1.639424e+06   6.613253e+04
  -4.785484e+05  -5.938954e+04
   3.337316e+05   7.305172e+05
  -3.312081e+05   1.159586e+06
  -1.632871e+06   4.798796e+05
  -1.823953e+06  -7.114312e+05
  -4.325848e+05  -1.211116e+06
   1.095446e+06  -5.777412e+05
   1.022186e+06   4.485332e+05
  -7.163209e+05   7.780835e+05
  -2.366810e+06  -5.990494e+03
  -2.119140e+06  -1.359108e+06
   6.224089e+04  -2.219649e+06
   2.342421e+06  -1.792784e+06
   2.760077e+06  -2.651704e+05
   1.121139e+06   1.155739e+06
  -8.580573e+05   1.253985e+06
  -1.312650e+06   9.098105e+04
  -4.710003e+04  -9.434668e+05
   1.454054e+06  -6.263236e+05
   1.663327e+06   7.107004e+05
   4.648702e+05   1.588859e+06
  -9.311118e+05   1.102264e+06
  -1.263593e+06  -1.103961e+05
  -3.797506e+05  -6.865998e+05
   6.701735e+05  -5.815628e+04
   6.355642e+05   1.024558e+06
  -6.601605e+05   1.339743e+06
  -1.996711e+06   3.986540e+05
  -1.916647e+06  -1.121714e+06
  -3.087922e+05  -2.000356e+06
   1.376482e+06  -1.553013e+06
   1.651155e+06  -2.307521e+05
   5.370142e+05   8.135276e+05
  -6.222424e+05   8.085255e+05
  -7.234176e+05   4.303305e+04
   4.000553e+04  -5.415197e+05
   6.448639e+05  -3.892377e+05
   4.334225e+05   1.220531e+05
  -2.761419e+05   1.869992e+05
  -5.865925e+05  -4.497857e+05
   7.390563e+04  -1.119569e+06
   1.318302e+06  -8.855008e+05
   2.025472e+06   4.311071e+05
   1.369429e+06   1.930910e+06
  -2.824464e+05   2.409612e+06
  -1.646196e+06   1.485339e+06
  -1.799012e+06  -5.413741e+04
  -1.040508e+06  -1.031239e+06
  -3.702816e+05  -9.754694e+05
  -2.957780e+05  -4.344681e+05
  -4.025707e+05  -2.514916e+05
  -4.167081e+04  -6.201736e+05
   8.151459e+05  -9.053434e+05
   1.476902e+06  -4.006642e+05
   1.176121e+06   7.736187e+05
  -1.780927e+05   1.608207e+06
  -1.743812e+06   1.141539e+06
  -2.274431e+06  -4.991424e+05
  -1.161196e+06  -2.063326e+06
   9.001793e+05  -2.286160e+06
   2.407214e+06  -1.058301e+06
   2.372357e+06   5.375782e+05
   1.145314e+06   1.331030e+06
  -9.468983e+04   1.129610e+06
  -5.404600e+05   6.847071e+05
  -3.647994e+05   7.188334e+05
  -2.719495e+05   1.119292e+06
  -6.520150e+05   1.123024e+06
  -1.197946e+06   2.338020e+05
  -1.244850e+06  -1.121105e+06
  -4.691287e+05  -1.893522e+06
   6.805707e+05  -1.396713e+06
   1.283189e+06   7.225643e+03
   8.081334e+05   1.209416e+06
  -2.976184e+05   1.348675e+06
  -1.007014e+06   5.154250e+05
  -7.584181e+05  -4.773677e+05
  -7.474966e+03  -9.236640e+05
   3.478331e+05  -7.805966e+05
   1.210549e+04  -4.878131e+05
  -3.814484e+05  -3.880566e+05
  -2.507567e+04  -3.992049e+05
   1.067105e+06  -2.016508e+05
   1.925323e+06   3.449898e+05
   1.561142e+06   9.989607e+05
   4.264655e+04   1.316897e+06
  -1.453167e+06   1.032668e+06
  -1.757109e+06   3.100868e+05
  -8.504103e+05  -3.441927e+05
   2.079011e+05  -4.746041e+05
   4.598796e+05  -8.688297e+04
  -3.186758e+04   3.166461e+05
  -4.960951e+05   2.134113e+05
  -4.446216e+05  -3.538155e+05
  -1.067534e+05  -7.564556e+05
   3.485492e+04  -4.844719e+05
  -1.513896e+05   1.755755e+05
  -3.800508e+05   3.870089e+05
  -2.921224e+05  -2.251237e+05
   2.283035e+05  -1.015398e+06
   9.170197e+05  -1.003898e+06
   1.210781e+06  -4.838204e+04
   6.709006e+05   9.366138e+05
  -4.472785e+05   9.988705e+05
  -1.171714e+06   1.763552e+05
  -6.883746e+05  -6.279309e+05
   6.812233e+05  -6.440173e+05
   1.621067e+06   7.298630e+04
   1.131800e+06   8.503108e+05
  -3.879381e+05   1.065284e+06
  -1.530432e+06   6.013556e+05
  -1.326071e+06  -1.358450e+05
  -1.803894e+05  -5.422538e+05
   6.377493e+05  -3.040662e+05
   3.321465e+05   2.672159e+05
  -6.546584e+05   4.414541e+05
  -1.160588e+06  -2.090552e+05
  -5.191163e+05  -1.241659e+06
   7.702234e+05  -1.626378e+06
   1.566146e+06  -7.497513e+05
   1.218496e+06   8.424451e+05
   1.238387e+05   1.821981e+06
  -7.861824e+05   1.330315e+06
  -9.412061e+05  -1.350255e+05
  -4.675773e+05  -1.197474e+06
   1.567120e+05  -1.018009e+06
   5.375630e+05  -1.060807e+05
   5.246457e+05   4.110579e+05
   2.365944e+05   1.688638e+05
   2.170572e+04  -1.175088e+05
   1.580335e+05   2.523330e+05
   4.345110e+05   9.619965e+05
   2.475544e+05   1.103445e+06
  -6.216993e+05   3.876877e+05
  -1.476898e+06  -5.193490e+05
  -1.342072e+06  -8.818006e+05
  -1.725859e+05  -6.876365e+05
   9.454566e+05  -3.819381e+05
   1.021002e+06  -1.776455e+05
   2.953608e+05   2.025767e+04
  -1.832189e+05   2.121149e+05
   4.695469e+04   2.481429e+05
   3.571926e+05   1.560530e+05
   8.539264e+03   1.423230e+05
  -7.729417e+05   1.745784e+05
  -1.034294e+06  -8.321844e+04
  -2.663180e+05  -6.948200e+05
   9.788364e+05  -1.085558e+06
   1.666746e+06  -6.153700e+05
   1.277004e+06   5.433666e+05
   1.791372e+05   1.432576e+06
  -8.002927e+05   1.311160e+06
  -1.070599e+06   4.307085e+05
  -6.589222e+05  -3.116687e+05
  -7.867553e+04  -3.632811e+05
   1.524991e+05  -1.043743e+04
  -5.217491e+04   7.457576e+04
  -3.264079e+05  -3.528794e+05
  -2.477653e+05  -8.175060e+05
   2.276954e+05  -6.510610e+05
   6.928864e+05   2.109779e+05
   6.436328e+05   1.041404e+06
  -2.614683e+04   1.025707e+06
  -8.148835e+05   1.319815e+05
  -9.739789e+05  -8.417483e+05
  -2.441057e+05  -1.098854e+06
   7.561704e+05  -5.827137e+05
   1.072238e+06   1.490455e+05
   4.550781e+05   5.789213e+05
  -3.122613e+05   5.885309e+05
  -3.275966e+05   3.313131e+05
   3.215310e+05   4.772013e+04
   6.703304e+05   1.394207e+03
   1.067233e+05   2.996726e+05
  -8.539210e+05   6.511591e+05
  -1.215973e+06   5.387817e+05
  -6.772885e+05  -1.527296e+05
   1.420228e+05  -8.331805e+05
   5.241223e+05  -7.983084e+05
   3.582803e+05  -8.787126e+04
  -6.834027e+03   5.117462e+05
  -2.728211e+05   3.837739e+05
  -3.498632e+05  -2.286194e+05
  -2.170166e+05  -5.903964e+05
   9.065369e+04  -3.635371e+05
   3.854868e+05   9.162170e+04
   4.377921e+05   2.555897e+05
   2.363516e+05   6.554795e+04
   6.905837e+03  -9.982806e+04
  -7.810582e+04   6.079308e+04
  -9.597582e+04   3.971414e+05
  -2.066734e+05   4.753020e+05
  -3.715777e+05   8.288362e+04
  -3.526596e+05  -4.795068e+05
  -9.184345e+03  -6.655991e+05
   4.561062e+05  -2.627651e+05
   6.065961e+05   3.543313e+05
   1.931788e+05   6.114992e+05
  -5.038120e+05   3.312616e+05
  -8.385162e+05  -1.468846e+05
  -4.406720e+05  -4.012061e+05
   3.125911e+05  -3.359000e+05
   6.311299e+05  -1.364732e+05
   1.988798e+05   4.477706e+03
  -4.216873e+05  -5.731745e+02
  -4.328388e+05  -1.560626e+05
   2.401313e+05  -3.272798e+05
   8.515022e+05  -2.345015e+05
