
 $NMID
 id='ANONYMOUS ', fmtdat='(2E16.6)'
 volume=1.0
 tramp=1.0
 $END
   5.447123e+07  -5.305733e+05
   3.302253e+07   3.301539e+07
  -6.630958e+06   3.666211e+07
  -2.620279e+07   1.467503e+07
  -1.591559e+07  -6.182460e+06
   2.930974e+06  -8.970792e+06
   9.428271e+06   8.186573e+05
   2.978804e+06   9.255839e+06
  -5.627252e+06   9.236772e+06
  -9.227771e+06   2.228835e+06
  -6.927282e+06  -5.920529e+06
  -9.600185e+05  -8.421953e+06
   3.898407e+06  -2.713465e+06
   2.770979e+06   5.362379e+06
  -3.438471e+06   6.547426e+06
  -7.626581e+06  -1.085793e+06
  -4.516078e+06  -9.792403e+06
   3.434549e+06  -1.149616e+07
   9.712527e+06  -5.857365e+06
   1.050588e+07   1.914357e+06
   6.417268e+06   7.236200e+06
   6.414460e+05   8.304286e+06
  -2.724737e+06   5.717472e+06
  -1.505819e+06   2.530537e+06
   1.392933e+06   2.192726e+06
   3.635415e+05   4.285082e+06
  -5.382478e+06   4.500675e+06
  -9.621180e+06   6.210451e+05
  -6.984445e+06  -4.008346e+06
  -1.911014e+05  -5.026627e+06
   3.796996e+06  -2.575584e+06
   2.528139e+06   1.031889e+05
  -6.782197e+05   1.178477e+06
  -2.464330e+06   6.306645e+05
  -2.337755e+06  -1.503441e+06
  -7.167893e+05  -4.027746e+06
   1.787927e+06  -3.787939e+06
   3.127811e+06   2.212903e+05
   1.587981e+06   3.590875e+06
  -8.302246e+05   1.745432e+06
  -3.914652e+05  -2.591340e+06
   2.364844e+06  -2.390064e+06
   2.450146e+06   3.016170e+06
  -2.167856e+06   5.918781e+06
  -6.577200e+06   1.031864e+06
  -4.981818e+06  -6.609745e+06
   1.712358e+06  -8.222959e+06
   7.166856e+06  -2.440977e+06
   6.921231e+06   4.175343e+06
   2.025120e+06   5.843884e+06
  -3.304289e+06   2.796067e+06
  -5.230413e+06  -1.279208e+06
  -2.528215e+06  -3.295725e+06
   2.255865e+06  -2.186114e+06
   4.412259e+06   7.809724e+05
   1.960383e+06   2.574396e+06
  -1.639048e+06   1.360110e+06
  -1.759202e+06  -9.401068e+05
   1.165281e+06  -9.358182e+05
   2.377468e+06   1.530736e+06
  -4.699945e+05   3.187562e+06
  -4.324682e+06   1.873570e+06
  -5.100695e+06  -1.150150e+06
  -2.326474e+06  -3.762805e+06
   1.691402e+06  -5.207046e+06
   4.906118e+06  -4.896775e+06
   6.114151e+06  -1.812852e+06
   4.548844e+06   3.088826e+06
   1.031037e+06   6.093088e+06
  -1.666162e+06   4.744679e+06
  -1.603041e+06   1.308811e+06
  -1.548046e+05  -9.811196e+04
  -7.305490e+04   1.101074e+06
  -1.718839e+06   1.834781e+06
  -2.914060e+06   2.192127e+05
  -2.113206e+06  -2.007010e+06
  -4.139241e+04  -2.253252e+06
   1.648907e+06  -2.816582e+05
   1.817019e+06   2.078896e+06
   7.737824e+04   2.987992e+06
  -2.769403e+06   1.703641e+06
  -4.483144e+06  -1.145787e+06
  -3.220883e+06  -3.686876e+06
   1.891621e+03  -4.139103e+06
   2.184801e+06  -2.663956e+06
   2.127289e+06  -1.146133e+06
   1.757783e+06  -7.494384e+05
   2.911406e+06  -6.011842e+05
   4.380919e+06   6.065404e+05
   3.595573e+06   2.661020e+06
   2.710276e+05   4.160032e+06
  -3.125965e+06   4.051906e+06
  -4.191198e+06   2.263536e+06
  -2.718477e+06  -3.910714e+05
  -3.122016e+05  -2.297793e+06
   1.101960e+06  -1.993808e+06
   5.775460e+05   3.908384e+04
  -1.079766e+06   1.362856e+06
  -1.912803e+06   4.508205e+05
  -9.452444e+05  -1.198837e+06
   5.049497e+05  -1.156256e+06
   4.717900e+05   3.608435e+05
  -9.896394e+05   7.570433e+05
  -1.859565e+06  -1.147341e+06
  -8.063680e+05  -3.386958e+06
   1.362107e+06  -3.470132e+06
   3.030994e+06  -1.306720e+06
   3.401351e+06   1.257634e+06
   2.465306e+06   2.690636e+06
   5.849410e+05   2.649018e+06
  -1.219811e+06   1.537418e+06
  -1.608103e+06   2.786626e+05
  -5.017080e+05  -3.101196e+04
   3.885802e+05   7.517714e+05
  -3.760529e+05   1.360365e+06
  -1.903736e+06   6.339980e+05
  -2.074607e+06  -8.292776e+05
  -4.339263e+05  -1.410722e+06
   1.167271e+06  -6.199149e+05
   9.313369e+05   4.242786e+05
  -8.200474e+05   5.712414e+05
  -2.223713e+06  -2.146846e+05
  -1.847860e+06  -1.296385e+06
   1.561618e+05  -2.019310e+06
   2.283103e+06  -1.774508e+06
   2.810206e+06  -3.738969e+05
   1.269293e+06   1.242863e+06
  -8.925133e+05   1.540130e+06
  -1.569669e+06   2.267572e+05
  -2.246042e+05  -1.092802e+06
   1.520160e+06  -7.927358e+05
   1.768628e+06   7.347128e+05
   4.043870e+05   1.659334e+06
  -1.061596e+06   1.030263e+06
  -1.280080e+06  -2.626685e+05
  -2.795184e+05  -7.753388e+05
   8.022494e+05  -7.783293e+04
   7.807875e+05   1.050230e+06
  -5.445654e+05   1.470758e+06
  -2.031882e+06   6.153647e+05
  -2.106601e+06  -1.007731e+06
  -4.547701e+05  -2.098720e+06
   1.410750e+06  -1.713473e+06
   1.744861e+06  -2.693456e+05
   5.392682e+05   8.633629e+05
  -6.417273e+05   8.391656e+05
  -6.500900e+05   1.025546e+05
   9.302331e+04  -3.776976e+05
   4.911076e+05  -2.490418e+05
   1.481009e+05   4.725302e+04
  -4.331068e+05  -5.767081e+04
  -5.405357e+05  -6.488594e+05
   1.655164e+05  -1.202914e+06
   1.372015e+06  -9.546512e+05
   2.130413e+06   3.527494e+05
   1.552890e+06   1.931096e+06
  -1.402352e+05   2.473796e+06
  -1.591775e+06   1.498282e+06
  -1.724432e+06  -6.024186e+04
  -9.197328e+05  -8.789261e+05
  -3.657665e+05  -6.659109e+05
  -4.952460e+05  -2.277953e+05
  -6.331925e+05  -3.056785e+05
  -1.084899e+05  -7.685571e+05
   8.558696e+05  -9.427555e+05
   1.457637e+06  -3.860670e+05
   1.101081e+06   6.925927e+05
  -1.913908e+05   1.495684e+06
  -1.710479e+06   1.155186e+06
  -2.305181e+06  -4.126123e+05
  -1.225448e+06  -2.093557e+06
   9.442604e+05  -2.431704e+06
   2.542691e+06  -1.130808e+06
   2.408333e+06   5.826658e+05
   1.027111e+06   1.317919e+06
  -1.612546e+05   9.716384e+05
  -3.755745e+05   5.493918e+05
  -6.908403e+04   7.834405e+05
  -7.829185e+04   1.333518e+06
  -6.454943e+05   1.325144e+06
  -1.305117e+06   3.601012e+05
  -1.396856e+06  -1.059021e+06
  -6.291021e+05  -1.912663e+06
   5.870499e+05  -1.485546e+06
   1.308257e+06  -4.235322e+04
   8.667913e+05   1.274160e+06
  -3.471395e+05   1.426342e+06
  -1.155402e+06   4.491035e+05
  -8.345549e+05  -6.741431e+05
   9.053753e+04  -1.084184e+06
   5.102503e+05  -8.036356e+05
   6.501994e+04  -4.251111e+05
  -4.532360e+05  -3.309641e+05
  -7.404961e+04  -3.900003e+05
   1.157733e+06  -2.489956e+05
   2.104967e+06   2.734586e+05
   1.677025e+06   9.992531e+05
   8.479748e+03   1.451966e+06
  -1.577328e+06   1.204403e+06
  -1.848809e+06   3.434017e+05
  -8.575381e+05  -4.671988e+05
   2.488414e+05  -5.814540e+05
   5.142723e+05  -5.121505e+04
   3.813133e+04   4.268588e+05
  -4.452253e+05   2.799425e+05
  -5.014355e+05  -3.329628e+05
  -2.817038e+05  -7.351124e+05
  -1.118713e+05  -4.913856e+05
  -1.318921e+05   1.038535e+05
  -2.705012e+05   3.153585e+05
  -2.883608e+05  -2.248899e+05
   1.083170e+05  -1.013436e+06
   8.799572e+05  -1.116458e+06
   1.383415e+06  -2.168541e+05
   8.981428e+05   9.098744e+05
  -3.895091e+05   1.173695e+06
  -1.275055e+06   3.818293e+05
  -7.695324e+05  -5.594307e+05
   6.914191e+05  -6.827481e+05
   1.617362e+06   4.051339e+04
   1.052338e+06   8.358962e+05
  -4.536728e+05   1.017088e+06
  -1.500731e+06   5.400876e+05
  -1.257302e+06  -1.466833e+05
  -1.555195e+05  -5.156448e+05
   6.497970e+05  -2.952551e+05
   4.005165e+05   2.892871e+05
  -5.802053e+05   5.581958e+05
  -1.215271e+06  -3.792979e+04
  -7.339378e+05  -1.185228e+06
   5.371619e+05  -1.767996e+06
   1.483608e+06  -9.654961e+05
   1.312810e+06   7.247008e+05
   2.756919e+05   1.820653e+06
  -7.040828e+05   1.345496e+06
  -9.453615e+05  -1.484453e+05
  -4.791743e+05  -1.196546e+06
   1.908832e+05  -9.882249e+05
   5.698702e+05  -1.023683e+05
   4.862159e+05   3.628953e+05
   1.684433e+05   1.280477e+05
   4.679037e+04  -9.559676e+04
   3.011060e+05   3.014678e+05
   5.576629e+05   9.715514e+05
   2.288012e+05   1.086777e+06
  -7.217796e+05   4.217510e+05
  -1.521659e+06  -4.182904e+05
  -1.330556e+06  -8.007616e+05
  -2.130194e+05  -7.068877e+05
   8.485166e+05  -4.660241e+05
   9.931966e+05  -2.224122e+05
   3.737535e+05   4.885388e+04
  -1.374861e+05   2.386373e+05
  -3.525279e+04   2.003560e+05
   2.671504e+05   7.429822e+04
   6.186916e+04   1.357071e+05
  -6.569215e+05   2.786100e+05
  -1.073594e+06   3.369885e+04
  -4.868369e+05  -7.006104e+05
   8.041483e+05  -1.251452e+06
   1.718981e+06  -8.484131e+05
   1.479461e+06   3.824836e+05
   3.460960e+05   1.426178e+06
  -7.321674e+05   1.441255e+06
  -1.054850e+06   6.035231e+05
  -6.815085e+05  -2.013618e+05
  -1.579301e+05  -3.636861e+05
   6.076326e+04  -8.426523e+04
  -8.274619e+04   9.274731e+03
  -3.144456e+05  -3.649512e+05
  -2.811285e+05  -8.140237e+05
   1.526261e+05  -7.068587e+05
   7.031500e+05   8.275870e+04
   8.105404e+05   9.341289e+05
   1.803776e+05   1.057992e+06
  -7.551411e+05   3.056082e+05
  -1.100938e+06  -6.782158e+05
  -4.153741e+05  -1.103337e+06
   7.004894e+05  -7.378347e+05
   1.157083e+06   2.420479e+04
   5.766591e+05   6.167556e+05
  -2.692438e+05   7.209623e+05
  -3.861330e+05   3.924138e+05
   2.404529e+05  -1.244382e+04
   6.594624e+05  -7.319084e+04
   1.680572e+05   3.130912e+05
  -8.135074e+05   7.290695e+05
  -1.273410e+06   5.928775e+05
  -7.989786e+05  -1.644425e+05
   6.014828e+04  -9.001941e+05
   5.419478e+05  -9.026218e+05
   4.472175e+05  -1.912801e+05
   8.723393e+04   4.837809e+05
  -2.243895e+05   4.659569e+05
  -3.704183e+05  -1.196989e+05
  -2.890536e+05  -5.790812e+05
   3.425869e+04  -4.540991e+05
   4.047000e+05   2.129564e+04
   5.016597e+05   2.770145e+05
   2.499174e+05   9.675591e+04
  -4.614386e+04  -1.658537e+05
  -7.978098e+04  -6.466010e+04
   5.230761e+04   3.575882e+05
  -4.742823e+02   5.904089e+05
  -3.145182e+05   2.690085e+05
  -5.122550e+05  -3.540806e+05
  -2.190484e+05  -6.607013e+05
   3.970625e+05  -3.512440e+05
   7.066260e+05   2.467554e+05
   2.970904e+05   5.706485e+05
  -5.073177e+05   3.993374e+05
  -9.183800e+05  -3.045781e+04
  -5.132854e+05  -3.645110e+05
   2.847918e+05  -4.358402e+05
   6.515585e+05  -2.777758e+05
   2.688809e+05  -2.994185e+04
  -3.366701e+05   1.046716e+05
  -4.180797e+05  -2.527089e+04
   1.402569e+05  -2.991346e+05
   7.233781e+05  -3.210142e+05
