
 $NMID
 id='ANONYMOUS ', fmtdat='(2E16.6)'
 volume=1.0
 tramp=1.0
 $END
   3.747927e+07  -3.189945e+06
   2.610059e+07   1.814105e+07
   8.175183e+04   2.497342e+07
  -1.641910e+07   1.483395e+07
  -1.304068e+07  -1.763859e+05
  -8.158471e+04  -6.760431e+06
   7.325053e+06  -2.142706e+06
   4.669123e+06   6.156108e+06
  -2.326299e+06   9.019104e+06
  -6.743826e+06   3.782402e+06
  -5.830264e+06  -4.185354e+06
  -1.123954e+06  -6.935825e+06
   3.060568e+06  -1.918023e+06
   2.665094e+06   5.207380e+06
  -2.037253e+06   6.540536e+06
  -5.990667e+06   4.819582e+05
  -4.560869e+06  -6.938271e+06
   1.380430e+06  -9.003407e+06
   6.670033e+06  -4.839461e+06
   7.379922e+06   1.209003e+06
   4.082427e+06   4.747873e+06
   4.070716e+05   4.757469e+06
  -5.180068e+05   3.188207e+06
   1.235827e+06   2.589634e+06
   2.354979e+06   3.748535e+06
  -3.523673e+05   4.884115e+06
  -5.737987e+06   3.553974e+06
  -8.575912e+06  -2.426632e+05
  -5.397542e+06  -3.579348e+06
   9.060482e+05  -3.747220e+06
   4.124964e+06  -1.146678e+06
   1.857155e+06   1.500544e+06
  -2.370937e+06   1.981039e+06
  -3.988929e+06   5.045319e+04
  -2.231846e+06  -2.825929e+06
   4.439409e+05  -4.249763e+06
   1.798109e+06  -2.552273e+06
   1.412042e+06   9.610685e+05
   1.708114e+05   2.445314e+06
  -4.832443e+05  -3.628687e+04
   4.725595e+05  -3.296324e+06
   2.244644e+06  -2.572670e+06
   2.415801e+06   1.891880e+06
  -2.456974e+05   4.529825e+06
  -3.538801e+06   1.582723e+06
  -3.713013e+06  -3.861073e+06
   2.239172e+05  -5.716882e+06
   4.998969e+06  -2.180657e+06
   6.233336e+06   2.888683e+06
   2.703388e+06   4.962772e+06
  -2.585252e+06   3.138065e+06
  -5.178032e+06  -2.799715e+05
  -3.142794e+06  -2.500910e+06
   1.204201e+06  -2.170143e+06
   3.556151e+06  -3.443302e+04
   1.998470e+06   1.646221e+06
  -1.062428e+06   1.188443e+06
  -1.859825e+06  -6.228214e+05
   2.294058e+05  -1.415302e+06
   2.145112e+06  -1.451953e+05
   1.115752e+06   1.706290e+06
  -1.986203e+06   2.039898e+06
  -3.829727e+06   3.337029e+05
  -2.361789e+06  -2.314079e+06
   1.368056e+06  -4.284312e+06
   4.597394e+06  -4.117567e+06
   5.287657e+06  -1.276813e+06
   3.439492e+06   2.797373e+06
   7.621139e+05   5.227417e+06
  -8.583737e+05   4.469260e+06
  -9.770253e+05   2.117136e+06
  -7.636822e+05   8.855416e+05
  -1.414035e+06   1.183666e+06
  -2.618593e+06   9.992310e+05
  -2.955324e+06  -8.515144e+05
  -1.612799e+06  -2.813909e+06
   6.780280e+05  -2.578822e+06
   2.302964e+06  -3.377338e+04
   2.021391e+06   2.595568e+06
  -1.546877e+05   3.118562e+06
  -2.773868e+06   1.275414e+06
  -3.807537e+06  -1.418313e+06
  -2.419527e+06  -3.118202e+06
   3.874633e+04  -3.051513e+06
   1.429342e+06  -1.948388e+06
   1.331816e+06  -1.144797e+06
   1.391748e+06  -1.105991e+06
   2.824402e+06  -9.700089e+05
   4.390370e+06   2.952950e+05
   3.725797e+06   2.504592e+06
   3.940290e+05   4.253675e+06
  -3.257827e+06   4.168658e+06
  -4.444070e+06   2.073025e+06
  -2.650725e+06  -7.718650e+05
   1.212632e+05  -2.435367e+06
   1.425659e+06  -1.816062e+06
   5.242294e+05   1.797737e+05
  -1.217322e+06   1.317176e+06
  -1.843236e+06   4.359600e+05
  -7.814058e+05  -1.122301e+06
   6.485795e+05  -1.184342e+06
   7.500150e+05   3.528227e+05
  -6.523000e+05   1.246061e+06
  -2.031280e+06  -2.179840e+05
  -1.772377e+06  -2.924243e+06
   2.901240e+05  -4.129470e+06
   2.826826e+06  -2.500537e+06
   4.112190e+06   6.583683e+05
   3.237699e+06   2.953730e+06
   8.025317e+05   3.091506e+06
  -1.380094e+06   1.639449e+06
  -1.742246e+06   2.013529e+05
  -5.223661e+05  -2.710421e+04
   4.224572e+05   7.664935e+05
  -2.589640e+05   1.315355e+06
  -1.755866e+06   6.894794e+05
  -2.080370e+06  -6.319583e+05
  -5.809069e+05  -1.315978e+06
   1.155929e+06  -7.204921e+05
   1.129211e+06   4.269246e+05
  -7.642714e+05   8.824772e+05
  -2.579746e+06   1.071515e+05
  -2.348488e+06  -1.363264e+06
  -4.092208e+04  -2.401945e+06
   2.419194e+06  -2.091942e+06
   2.971364e+06  -4.912182e+05
   1.325682e+06   1.173038e+06
  -8.140331e+05   1.461773e+06
  -1.435492e+06   2.390477e+05
  -1.587502e+05  -1.017694e+06
   1.523332e+06  -8.091347e+05
   1.872109e+06   6.498455e+05
   6.130694e+05   1.714370e+06
  -9.665573e+05   1.270408e+06
  -1.406474e+06  -5.286565e+04
  -4.606390e+05  -7.486602e+05
   7.375232e+05  -1.333282e+05
   7.829174e+05   1.049676e+06
  -5.908358e+05   1.498542e+06
  -2.113122e+06   5.997846e+05
  -2.163528e+06  -1.047965e+06
  -5.009116e+05  -2.143601e+06
   1.374183e+06  -1.803331e+06
   1.786045e+06  -3.769200e+05
   6.456258e+05   8.569291e+05
  -6.212262e+05   9.288802e+05
  -7.680623e+05   9.282214e+04
   3.391778e+04  -5.789211e+05
   6.730448e+05  -4.288103e+05
   4.332771e+05   1.322416e+05
  -3.388103e+05   2.123359e+05
  -6.869994e+05  -4.790661e+05
   5.128258e+03  -1.241399e+06
   1.367411e+06  -1.064379e+06
   2.228381e+06   3.078095e+05
   1.637698e+06   1.978266e+06
  -1.203272e+05   2.622484e+06
  -1.681120e+06   1.715667e+06
  -1.948582e+06   4.811130e+04
  -1.160068e+06  -1.050492e+06
  -4.202031e+05  -9.976600e+05
  -3.437209e+05  -3.977991e+05
  -4.886617e+05  -2.188311e+05
  -1.148939e+05  -6.769680e+05
   8.234927e+05  -1.044787e+06
   1.573133e+06  -5.275080e+05
   1.304432e+06   7.607976e+05
  -1.040456e+05   1.743131e+06
  -1.808808e+06   1.351048e+06
  -2.492380e+06  -3.748103e+05
  -1.410872e+06  -2.156602e+06
   8.086168e+05  -2.566548e+06
   2.549382e+06  -1.338147e+06
   2.623153e+06   4.264248e+05
   1.316135e+06   1.385112e+06
  -5.849758e+04   1.223384e+06
  -5.405971e+05   7.389835e+05
  -3.030569e+05   7.699773e+05
  -1.668548e+05   1.231743e+06
  -6.037875e+05   1.286526e+06
  -1.280187e+06   3.643991e+05
  -1.435974e+06  -1.105039e+06
  -6.578873e+05  -2.004294e+06
   6.218755e+05  -1.559730e+06
   1.390229e+06  -8.779765e+04
   9.750312e+05   1.258546e+06
  -2.279294e+05   1.500993e+06
  -1.086564e+06   6.406385e+05
  -8.929037e+05  -4.800162e+05
  -8.140043e+04  -1.035719e+06
   3.413177e+05  -8.973849e+05
  -3.750265e+03  -5.311730e+05
  -4.392591e+05  -3.786456e+05
  -5.769013e+04  -4.227941e+05
   1.148309e+06  -3.082348e+05
   2.123192e+06   2.114630e+05
   1.775439e+06   9.633264e+05
   1.506833e+05   1.448131e+06
  -1.498372e+06   1.257048e+06
  -1.893956e+06   4.713088e+05
  -9.657498e+05  -3.305755e+05
   1.833526e+05  -5.475303e+05
   5.048876e+05  -1.285297e+05
   9.842558e+03   3.480507e+05
  -5.093333e+05   2.639348e+05
  -5.093401e+05  -3.445097e+05
  -1.827110e+05  -7.861290e+05
  -1.224873e+04  -5.078648e+05
  -1.605984e+05   1.888809e+05
  -3.835110e+05   4.212305e+05
  -3.306358e+05  -2.240126e+05
   1.662374e+05  -1.098240e+06
   9.064716e+05  -1.158437e+06
   1.305605e+06  -1.788725e+05
   8.132183e+05   9.351635e+05
  -3.864056e+05   1.125953e+06
  -1.242071e+06   3.082665e+05
  -7.882953e+05  -6.163394e+05
   6.926326e+05  -7.502866e+05
   1.759728e+06  -3.125445e+04
   1.273652e+06   8.580002e+05
  -3.653540e+05   1.186035e+06
  -1.627161e+06   7.430302e+05
  -1.442394e+06  -7.044092e+04
  -2.252495e+05  -5.773789e+05
   6.750919e+05  -3.738485e+05
   3.901834e+05   2.602921e+05
  -6.552854e+05   5.259121e+05
  -1.255501e+06  -1.214082e+05
  -6.631592e+05  -1.275623e+06
   6.805681e+05  -1.799579e+06
   1.609863e+06  -9.309060e+05
   1.372691e+06   8.067127e+05
   2.726404e+05   1.947874e+06
  -7.535999e+05   1.486463e+06
  -1.033371e+06  -8.480681e+04
  -5.888763e+05  -1.267152e+06
   1.100935e+05  -1.117598e+06
   5.805707e+05  -1.557859e+05
   5.858045e+05   4.111830e+05
   2.547367e+05   1.728278e+05
   2.204854e+04  -1.303813e+05
   2.122045e+05   2.478987e+05
   5.517177e+05   9.988460e+05
   3.379092e+05   1.183075e+06
  -6.558498e+05   4.812742e+05
  -1.628840e+06  -4.476088e+05
  -1.502885e+06  -8.607172e+05
  -2.405518e+05  -7.312547e+05
   9.778456e+05  -4.728160e+05
   1.087080e+06  -2.619252e+05
   3.351191e+05  -5.964715e+03
  -1.759912e+05   2.389772e+05
   5.076064e+04   2.729671e+05
   3.759082e+05   1.491864e+05
   2.417961e+04   1.449674e+05
  -7.988656e+05   2.359238e+05
  -1.115991e+06  -1.988931e+03
  -3.616274e+05  -7.048590e+05
   9.463135e+05  -1.237415e+06
   1.740683e+06  -8.136527e+05
   1.422214e+06   4.568466e+05
   3.079911e+05   1.518319e+06
  -7.544760e+05   1.481782e+06
  -1.106196e+06   5.565794e+05
  -7.225697e+05  -2.782005e+05
  -1.190565e+05  -3.773441e+05
   1.433772e+05  -1.643726e+04
  -6.472978e+04   8.151498e+04
  -3.784908e+05  -3.643970e+05
  -3.272661e+05  -8.659085e+05
   1.868013e+05  -7.178573e+05
   7.489936e+05   1.664301e+05
   7.719629e+05   1.051236e+06
   6.831695e+04   1.089110e+06
  -8.439255e+05   2.086416e+05
  -1.104210e+06  -8.120008e+05
  -3.584062e+05  -1.152302e+06
   7.530632e+05  -6.925445e+05
   1.165436e+06   6.354446e+04
   5.522950e+05   5.844062e+05
  -2.750670e+05   6.685853e+05
  -3.310369e+05   3.975417e+05
   3.342031e+05   3.585170e+04
   7.156124e+05  -4.999859e+04
   1.447160e+05   3.107170e+05
  -8.678972e+05   7.670013e+05
  -1.283235e+06   6.808745e+05
  -7.612951e+05  -1.041343e+05
   7.956515e+04  -9.099255e+05
   5.026274e+05  -9.163595e+05
   3.779582e+05  -1.441074e+05
   3.313484e+04   5.391089e+05
  -2.530327e+05   4.370115e+05
  -3.813389e+05  -2.096214e+05
  -2.815106e+05  -6.147443e+05
   5.443895e+04  -4.027601e+05
   4.166033e+05   6.299042e+04
   5.029661e+05   2.414209e+05
   2.671708e+05   5.702782e+04
  -1.500874e+04  -1.085031e+05
  -9.951763e+04   5.725044e+04
  -6.677045e+04   4.113424e+05
  -1.524217e+05   5.125781e+05
  -3.641099e+05   1.274073e+05
  -4.145060e+05  -4.595065e+05
  -7.736317e+04  -6.906500e+05
   4.580131e+05  -3.170197e+05
   6.777400e+05   3.173482e+05
   2.563054e+05   6.311110e+05
  -5.153021e+05   4.015459e+05
  -9.122445e+05  -7.854512e+04
  -5.081785e+05  -3.914363e+05
   2.991987e+05  -3.929426e+05
   6.578996e+05  -2.093325e+05
   2.191873e+05  -2.247908e+04
  -4.329643e+05   2.700488e+04
  -4.596549e+05  -1.280384e+05
   2.318087e+05  -3.536521e+05
   8.819225e+05  -3.023834e+05
