
 $NMID
 id='ANONYMOUS ', fmtdat='(2E16.6)'
 volume=1.0
 tramp=1.0
 $END
  -2.831825e+07  -5.868047e+05
  -1.839273e+07  -1.481568e+07
   1.237560e+06  -1.841582e+07
   1.309156e+07  -1.065631e+07
   1.006633e+07   2.349302e+05
  -2.083275e+04   5.135212e+06
  -5.768210e+06   1.674843e+06
  -3.592431e+06  -4.861102e+06
   2.045465e+06  -7.166029e+06
   5.405929e+06  -2.802965e+06
   4.274498e+06   3.699081e+06
   3.578368e+05   5.624349e+06
  -2.611778e+06   1.193355e+06
  -1.818757e+06  -4.531620e+06
   1.943549e+06  -5.236363e+06
   4.662711e+06  -1.401034e+05
   3.127728e+06   5.626969e+06
  -1.618400e+06   6.845020e+06
  -5.453532e+06   3.167226e+06
  -5.464087e+06  -1.627183e+06
  -2.486142e+06  -3.955941e+06
   2.558262e+05  -3.379094e+06
   4.193360e+05  -2.057178e+06
  -1.311785e+06  -2.126032e+06
  -1.917338e+06  -3.530463e+06
   7.642932e+05  -4.184096e+06
   5.163774e+06  -2.376076e+06
   6.996435e+06   1.059798e+06
   3.938646e+06   3.406409e+06
  -1.293174e+06   2.902116e+06
  -3.664149e+06   4.218157e+05
  -1.394809e+06  -1.671192e+06
   2.388511e+06  -1.702834e+06
   3.633520e+06   2.934500e+05
   1.685436e+06   2.783308e+06
  -9.088636e+05   3.619664e+06
  -1.775200e+06   1.767570e+06
  -8.424834e+05  -1.140230e+06
   3.538089e+05  -1.927002e+06
   4.271899e+05   4.026341e+05
  -7.662199e+05   2.882008e+06
  -2.039885e+06   1.995346e+06
  -1.811643e+06  -1.569454e+06
   2.714747e+05  -3.417432e+06
   2.498289e+06  -9.987657e+05
   2.439703e+06   3.068699e+06
  -4.759147e+05   4.220327e+06
  -3.954282e+06   1.280653e+06
  -4.786546e+06  -2.685130e+06
  -1.950562e+06  -4.152923e+06
   2.253288e+06  -2.449568e+06
   4.242692e+06   4.531574e+05
   2.503257e+06   2.166478e+06
  -9.869511e+05   1.680064e+06
  -2.785676e+06  -1.358400e+05
  -1.510916e+06  -1.369680e+06
   8.825490e+05  -8.618708e+05
   1.512783e+06   6.025643e+05
  -1.055739e+05   1.212590e+06
  -1.682400e+06   2.493355e+05
  -1.020269e+06  -1.168810e+06
   1.381419e+06  -1.465075e+06
   2.918106e+06  -1.835540e+05
   1.723130e+06   1.851429e+06
  -1.465510e+06   3.278779e+06
  -4.139198e+06   2.913156e+06
  -4.385312e+06   5.125053e+05
  -2.435344e+06  -2.604479e+06
  -1.366886e+05  -4.280582e+06
   9.369081e+05  -3.575217e+06
   8.360841e+05  -1.801024e+06
   7.715045e+05  -8.760059e+05
   1.502753e+06  -9.510815e+05
   2.454822e+06  -5.270111e+05
   2.456791e+06   1.121843e+06
   1.083843e+06   2.638897e+06
  -8.723920e+05   2.198509e+06
  -2.055937e+06  -1.540592e+05
  -1.555209e+06  -2.401805e+06
   4.013420e+05  -2.628369e+06
   2.435747e+06  -7.768314e+05
   2.959910e+06   1.560527e+06
   1.602476e+06   2.728957e+06
  -3.336109e+05   2.349072e+06
  -1.246284e+06   1.343715e+06
  -1.057513e+06   8.056206e+05
  -1.160931e+06   8.568745e+05
  -2.391629e+06   6.518260e+05
  -3.618457e+06  -5.288627e+05
  -2.925469e+06  -2.340825e+06
  -2.827410e+04  -3.585550e+06
   3.052645e+06  -3.249351e+06
   3.920228e+06  -1.363863e+06
   2.161532e+06   9.184853e+05
  -3.568385e+05   2.069276e+06
  -1.398494e+06   1.393746e+06
  -4.270272e+05  -2.157318e+05
   1.140592e+06  -1.007637e+06
   1.562336e+06  -2.214209e+05
   5.372893e+05   9.918114e+05
  -6.557568e+05   9.584902e+05
  -6.530765e+05  -3.304303e+05
   5.481277e+05  -1.062604e+06
   1.657697e+06   1.553621e+05
   1.403037e+06   2.439649e+06
  -3.326861e+05   3.486340e+06
  -2.451401e+06   2.071384e+06
  -3.474468e+06  -7.253782e+05
  -2.623398e+06  -2.723349e+06
  -4.917513e+05  -2.707804e+06
   1.302226e+06  -1.285321e+06
   1.498624e+06  -2.520648e+04
   4.380849e+05   6.250685e+04
  -3.022947e+05  -6.710779e+05
   2.944491e+05  -1.063638e+06
   1.486712e+06  -4.464898e+05
   1.681665e+06   6.472858e+05
   4.121016e+05   1.118892e+06
  -1.008073e+06   5.363186e+05
  -9.470778e+05  -4.259704e+05
   6.722448e+05  -7.275657e+05
   2.200893e+06   3.082586e+04
   1.945264e+06   1.300253e+06
  -9.375619e+04   2.062805e+06
  -2.184812e+06   1.622395e+06
  -2.539610e+06   2.106019e+05
  -1.024378e+06  -1.066215e+06
   7.804265e+05  -1.141297e+06
   1.193292e+06  -8.651666e+04
   4.222202e+04   8.514722e+05
  -1.330752e+06   5.637699e+05
  -1.527434e+06  -6.631280e+05
  -4.231209e+05  -1.477367e+06
   8.731203e+05  -1.027922e+06
   1.183893e+06   1.037035e+05
   3.641054e+05   6.451724e+05
  -6.051207e+05   6.560070e+04
  -5.713948e+05  -9.284257e+05
   6.110037e+05  -1.206513e+06
   1.818512e+06  -3.381250e+05
   1.733379e+06   1.042915e+06
   2.638454e+05   1.830805e+06
  -1.273464e+06   1.413251e+06
  -1.523273e+06   1.991012e+05
  -4.959139e+05  -7.594108e+05
   5.788375e+05  -7.460631e+05
   6.716911e+05  -2.693197e+04
  -4.621948e+04   5.113910e+05
  -6.128792e+05   3.490984e+05
  -4.061563e+05  -1.402360e+05
   2.643795e+05  -1.915473e+05
   5.489646e+05   4.136213e+05
  -7.088396e+04   1.029378e+06
  -1.213754e+06   7.980425e+05
  -1.846064e+06  -4.156487e+05
  -1.228102e+06  -1.778286e+06
   2.924009e+05  -2.202571e+06
   1.539692e+06  -1.345411e+06
   1.664476e+06   7.964906e+04
   9.394975e+05   9.872721e+05
   2.999935e+05   9.257100e+05
   2.346993e+05   3.995361e+05
   3.554546e+05   2.120669e+05
   3.569335e+04   5.538843e+05
  -7.572277e+05   8.197162e+05
  -1.362758e+06   3.453907e+05
  -1.064406e+06  -7.380569e+05
   1.947022e+05  -1.482473e+06
   1.617768e+06  -1.023298e+06
   2.077482e+06   4.889847e+05
   1.045987e+06   1.905707e+06
  -8.379634e+05   2.091865e+06
  -2.216205e+06   9.568328e+05
  -2.184622e+06  -5.166946e+05
  -1.048420e+06  -1.252779e+06
   1.097565e+05  -1.056776e+06
   5.285881e+05  -6.186101e+05
   3.578362e+05  -6.283574e+05
   2.576990e+05  -9.990967e+05
   5.974402e+05  -1.015407e+06
   1.089651e+06  -2.035921e+05
   1.120299e+06   1.038346e+06
   4.033584e+05   1.736176e+06
  -6.410324e+05   1.267398e+06
  -1.177652e+06  -2.037877e+04
  -7.343425e+05  -1.113860e+06
   2.789380e+05  -1.239753e+06
   9.298456e+05  -4.823162e+05
   7.056596e+05   4.278927e+05
   1.767539e+04   8.488897e+05
  -3.150339e+05   7.287653e+05
  -1.837767e+04   4.598867e+05
   3.350542e+05   3.606885e+05
   1.225200e+04   3.637039e+05
  -9.745209e+05   1.764309e+05
  -1.749377e+06  -3.297837e+05
  -1.419371e+06  -9.272837e+05
  -4.111989e+04  -1.207133e+06
   1.326011e+06  -9.351336e+05
   1.615279e+06  -2.731355e+05
   7.919522e+05   3.166868e+05
  -1.848161e+05   4.305830e+05
  -4.237595e+05   8.167873e+04
   3.109415e+04  -2.769908e+05
   4.602184e+05  -1.798234e+05
   3.993324e+05   3.298965e+05
   7.283175e+04   6.857785e+05
  -4.863310e+04   4.335454e+05
   1.493695e+05  -1.623040e+05
   3.670821e+05  -3.474262e+05
   2.632533e+05   2.092307e+05
  -2.324159e+05   9.193647e+05
  -8.469017e+05   9.009664e+05
  -1.085357e+06   3.349817e+04
  -5.870718e+05  -8.518787e+05
   4.122562e+05  -8.963674e+05
   1.055898e+06  -1.416163e+05
   6.148056e+05   5.857692e+05
  -6.322725e+05   5.836239e+05
  -1.491784e+06  -8.999527e+04
  -1.037832e+06  -8.057498e+05
   3.702051e+05  -9.866431e+05
   1.425832e+06  -5.384498e+05
   1.227108e+06   1.453736e+05
   1.599669e+05   5.063150e+05
  -5.911714e+05   2.760766e+05
  -3.007567e+05  -2.412499e+05
   6.029607e+05  -3.843346e+05
   1.048327e+06   2.133501e+05
   4.433078e+05   1.136159e+06
  -7.349301e+05   1.459972e+06
  -1.441409e+06   6.492057e+05
  -1.096649e+06  -7.928544e+05
  -8.067096e+04  -1.669178e+06
   7.456978e+05  -1.209469e+06
   8.669972e+05   1.336168e+05
   4.169328e+05   1.107953e+06
  -1.544402e+05   9.420650e+05
  -4.934142e+05   9.553052e+04
  -4.781874e+05  -3.912302e+05
  -2.189480e+05  -1.669641e+05
  -2.147431e+04   1.126369e+05
  -1.357435e+05  -2.174629e+05
  -3.815660e+05  -8.805643e+05
  -2.169466e+05  -1.024182e+06
   5.665341e+05  -3.571853e+05
   1.344408e+06   4.999274e+05
   1.221924e+06   8.360945e+05
   1.493795e+05   6.306747e+05
  -8.772173e+05   3.258724e+05
  -9.419067e+05   1.462684e+05
  -2.679277e+05  -1.290420e+04
   1.732446e+05  -1.880027e+05
  -4.242506e+04  -2.407918e+05
  -3.274382e+05  -1.616903e+05
  -1.540440e+03  -1.260722e+05
   7.146024e+05  -1.335348e+05
   9.391943e+05   9.374072e+04
   2.203334e+05   6.237238e+05
  -9.147135e+05   9.617693e+05
  -1.519473e+06   5.345639e+05
  -1.140739e+06  -5.111788e+05
  -1.346544e+05  -1.309060e+06
   7.465014e+05  -1.182985e+06
   9.773105e+05  -3.694923e+05
   5.921526e+05   3.010601e+05
   6.237075e+04   3.280472e+05
  -1.414693e+05  -6.294772e+03
   5.197475e+04  -7.618951e+04
   2.991748e+05   3.285905e+05
   2.172738e+05   7.535551e+05
  -2.175463e+05   5.872267e+05
  -6.247321e+05  -2.109510e+05
  -5.597760e+05  -9.615916e+05
   4.936212e+04  -9.254929e+05
   7.432046e+05  -9.337449e+04
   8.644754e+05   7.898634e+05
   1.989898e+05   1.000941e+06
  -6.949363e+05   5.110409e+05
  -9.688652e+05  -1.521845e+05
  -4.063604e+05  -5.244179e+05
   2.857974e+05  -5.240023e+05
   2.946364e+05  -3.023501e+05
  -2.978007e+05  -6.042493e+04
  -6.122716e+05  -1.615494e+04
  -9.085877e+04  -2.710389e+05
   7.914001e+05  -5.812917e+05
   1.117992e+06  -4.843263e+05
   6.139528e+05   1.367692e+05
  -1.411785e+05   7.544382e+05
  -4.816472e+05   7.233634e+05
  -3.147802e+05   7.592049e+04
   2.253260e+04  -4.661149e+05
   2.528131e+05  -3.395349e+05
   3.088079e+05   2.223162e+05
   1.865394e+05   5.415591e+05
  -8.447216e+04   3.216952e+05
  -3.469318e+05  -9.292478e+04
  -3.976860e+05  -2.331592e+05
  -2.188789e+05  -5.938790e+04
  -6.024955e+03   8.165987e+04
   8.357347e+04  -6.598926e+04
   1.087887e+05  -3.557182e+05
   2.032663e+05  -4.085203e+05
   3.324002e+05  -5.163565e+04
   2.956322e+05   4.429681e+05
  -1.711672e+04   5.961297e+05
  -4.208260e+05   2.245759e+05
  -5.375334e+05  -3.338345e+05
  -1.590135e+05  -5.602764e+05
   4.619172e+05  -2.944218e+05
   7.547505e+05   1.474122e+05
   3.928209e+05   3.715751e+05
  -2.855978e+05   2.957517e+05
  -5.698624e+05   1.089843e+05
  -1.747497e+05  -3.382418e+03
   3.871229e+05   2.099924e+04
   3.877960e+05   1.609584e+05
  -2.358205e+05   2.932500e+05
  -7.914397e+05   1.887506e+05
