
 $NMID
 id='ANONYMOUS ', fmtdat='(2E16.6)'
 volume=1.0
 tramp=1.0
 $END
  -2.865154e+07   7.431376e+05
  -1.962647e+07  -1.338504e+07
  -2.598409e+05  -1.847122e+07
   1.245978e+07  -1.217811e+07
   1.054341e+07  -1.047413e+06
   6.177344e+05   5.270117e+06
  -5.902656e+06   2.516443e+06
  -4.376196e+06  -4.689623e+06
   1.425858e+06  -7.892384e+06
   5.421458e+06  -3.524001e+06
   4.687436e+06   3.640081e+06
   6.540119e+05   5.958632e+06
  -2.717647e+06   1.304020e+06
  -2.205847e+06  -4.886864e+06
   1.680946e+06  -5.832340e+06
   4.853167e+06  -5.752120e+05
   3.659508e+06   5.623871e+06
  -1.204802e+06   7.201263e+06
  -5.426187e+06   3.530379e+06
  -5.617053e+06  -1.495639e+06
  -2.526989e+06  -3.921368e+06
   2.330725e+05  -3.214770e+06
   9.369522e+04  -1.862838e+06
  -1.952549e+06  -2.225022e+06
  -2.458659e+06  -4.003042e+06
   7.312988e+05  -4.749796e+06
   5.646395e+06  -2.736104e+06
   7.624519e+06   9.795739e+05
   4.261239e+06   3.536107e+06
  -1.475451e+06   3.098524e+06
  -4.099089e+06   4.401613e+05
  -1.551175e+06  -1.995175e+06
   2.781240e+06  -2.148126e+06
   4.254718e+06   2.001744e+05
   2.002173e+06   3.183406e+06
  -9.964399e+05   4.089339e+06
  -1.900726e+06   1.848275e+06
  -7.456769e+05  -1.365116e+06
   5.319261e+05  -2.003178e+06
   4.780717e+05   6.936890e+05
  -8.168314e+05   3.334922e+06
  -2.128408e+06   2.320144e+06
  -2.041623e+06  -1.477184e+06
  -1.202147e+05  -3.531226e+06
   2.242530e+06  -1.236395e+06
   2.589261e+06   2.883438e+06
  -1.533520e+05   4.268730e+06
  -3.978333e+06   1.516601e+06
  -5.272797e+06  -2.550157e+06
  -2.430390e+06  -4.334898e+06
   2.250865e+06  -2.842505e+06
   4.666606e+06   1.479391e+05
   2.934615e+06   2.136706e+06
  -8.534909e+05   1.875015e+06
  -2.932856e+06   8.612234e+04
  -1.715866e+06  -1.300512e+06
   8.504324e+05  -9.556750e+05
   1.704203e+06   5.426926e+05
   9.033289e+04   1.392965e+06
  -1.771580e+06   5.983051e+05
  -1.383150e+06  -9.862876e+05
   1.101342e+06  -1.654786e+06
   2.984772e+06  -5.341555e+05
   1.960392e+06   1.741112e+06
  -1.428482e+06   3.537095e+06
  -4.389452e+06   3.284653e+06
  -4.694237e+06   6.779828e+05
  -2.636942e+06  -2.732552e+06
  -2.973455e+05  -4.586475e+06
   7.475540e+05  -3.924548e+06
   7.248508e+05  -2.128283e+06
   8.755956e+05  -1.158765e+06
   1.804193e+06  -1.161078e+06
   2.828693e+06  -5.963942e+05
   2.790225e+06   1.273269e+06
   1.265960e+06   2.985056e+06
  -9.540270e+05   2.529083e+06
  -2.375461e+06  -9.206578e+04
  -1.871722e+06  -2.643074e+06
   3.466975e+05  -2.939944e+06
   2.656236e+06  -9.103549e+05
   3.241824e+06   1.631540e+06
   1.765067e+06   2.862345e+06
  -2.841725e+05   2.443099e+06
  -1.211908e+06   1.416753e+06
  -1.007796e+06   9.197296e+05
  -1.174782e+06   1.044208e+06
  -2.581166e+06   8.864397e+05
  -4.004890e+06  -3.609406e+05
  -3.350726e+06  -2.410626e+06
  -2.249573e+05  -3.958963e+06
   3.221646e+06  -3.746616e+06
   4.293677e+06  -1.668921e+06
   2.424276e+06   9.653771e+05
  -3.539536e+05   2.326926e+06
  -1.525847e+06   1.583948e+06
  -4.771677e+05  -2.393561e+05
   1.229121e+06  -1.162226e+06
   1.701440e+06  -3.160798e+05
   6.144288e+05   1.059614e+06
  -6.975463e+05   1.096053e+06
  -7.777572e+05  -3.248682e+05
   4.911897e+05  -1.263032e+06
   1.838785e+06  -5.162369e+04
   1.796442e+06   2.529306e+06
  -2.483929e+04   3.930509e+06
  -2.543443e+06   2.572310e+06
  -3.953571e+06  -5.271615e+05
  -3.140827e+06  -2.895224e+06
  -7.143336e+05  -3.019404e+06
   1.393766e+06  -1.496861e+06
   1.671221e+06  -9.120519e+04
   4.885243e+05   4.698160e+04
  -3.712240e+05  -7.260595e+05
   2.561384e+05  -1.177156e+06
   1.593271e+06  -5.693213e+05
   1.881247e+06   6.023637e+05
   5.285431e+05   1.196336e+06
  -1.080818e+06   6.555641e+05
  -1.094360e+06  -4.187453e+05
   6.889016e+05  -8.791944e+05
   2.470790e+06  -1.289239e+05
   2.281336e+06   1.336384e+06
   3.452846e+04   2.328962e+06
  -2.341101e+06   1.942852e+06
  -2.808673e+06   3.755289e+05
  -1.186879e+06  -1.113877e+06
   7.948649e+05  -1.282045e+06
   1.290739e+06  -1.518300e+05
   7.669404e+04   9.267500e+05
  -1.438853e+06   6.884143e+05
  -1.728519e+06  -6.417083e+05
  -5.698908e+05  -1.611026e+06
   8.930681e+05  -1.208700e+06
   1.324112e+06   2.291778e+04
   4.594242e+05   6.857938e+05
  -6.522911e+05   1.095809e+05
  -6.752145e+05  -9.938303e+05
   6.198342e+05  -1.363387e+06
   1.998320e+06  -4.602881e+05
   1.968900e+06   1.069196e+06
   3.870906e+05   2.009442e+06
  -1.327151e+06   1.630867e+06
  -1.672513e+06   3.095050e+05
  -5.990056e+05  -8.100266e+05
   5.966818e+05  -8.634628e+05
   7.570914e+05  -6.362167e+04
  -1.198273e+04   5.944128e+05
  -6.806963e+05   4.455835e+05
  -4.986464e+05  -1.404881e+05
   2.611436e+05  -2.616424e+05
   6.420260e+05   4.000634e+05
  -3.534157e+03   1.138645e+06
  -1.294573e+06   9.535296e+05
  -2.066443e+06  -3.594708e+05
  -1.452036e+06  -1.904004e+06
   2.095493e+05  -2.461574e+06
   1.639577e+06  -1.590489e+06
   1.868139e+06  -1.343838e+04
   1.121668e+06   1.062790e+06
   3.899665e+05   1.053693e+06
   2.584016e+05   4.573743e+05
   3.777698e+05   2.062262e+05
   6.468185e+04   5.937806e+05
  -7.870409e+05   9.530796e+05
  -1.497369e+06   4.694795e+05
  -1.238873e+06  -7.667863e+05
   1.243861e+05  -1.676373e+06
   1.741952e+06  -1.236139e+06
   2.338215e+06   4.282192e+05
   1.273279e+06   2.053284e+06
  -7.981337e+05   2.361470e+06
  -2.390831e+06   1.192192e+06
  -2.459801e+06  -4.354093e+05
  -1.260035e+06  -1.332983e+06
   4.893997e+04  -1.204717e+06
   5.729029e+05  -7.387483e+05
   3.991817e+05  -7.122470e+05
   2.511507e+05  -1.099340e+06
   6.035508e+05  -1.140386e+06
   1.186315e+06  -2.769554e+05
   1.290770e+06   1.095405e+06
   5.344420e+05   1.905635e+06
  -6.483203e+05   1.438703e+06
  -1.309313e+06   4.322896e+04
  -8.785731e+05  -1.186353e+06
   2.276633e+05  -1.387415e+06
   9.861263e+05  -6.035391e+05
   8.023291e+05   4.064542e+05
   8.543136e+04   9.228560e+05
  -2.840557e+05   8.283025e+05
   1.459370e+04   5.219802e+05
   3.849730e+05   3.885051e+05
   2.908368e+04   4.050023e+05
  -1.061646e+06   2.498838e+05
  -1.943263e+06  -2.688803e+05
  -1.621754e+06  -9.448417e+05
  -1.252768e+05  -1.323574e+06
   1.401733e+06  -1.100103e+06
   1.769698e+06  -3.991377e+05
   9.009601e+05   2.874549e+05
  -1.735173e+05   4.764273e+05
  -4.595098e+05   1.218488e+05
   2.712675e+04  -2.949898e+05
   5.083182e+05  -2.188191e+05
   4.569006e+05   3.457658e+05
   9.906041e+04   7.614347e+05
  -4.750982e+04   4.843750e+05
   1.591231e+05  -1.992624e+05
   4.020450e+05  -4.187240e+05
   3.060123e+05   2.162646e+05
  -2.185257e+05   1.037113e+06
  -8.917401e+05   1.039636e+06
  -1.181999e+06   8.197121e+04
  -6.750163e+05  -9.150901e+05
   4.111272e+05  -9.993852e+05
   1.152203e+06  -1.948533e+05
   7.091319e+05   6.236366e+05
  -6.668608e+05   6.832848e+05
  -1.666958e+06  -1.340682e+04
  -1.215527e+06  -8.358249e+05
   3.431230e+05  -1.127866e+06
   1.558833e+06  -6.950544e+05
   1.384598e+06   8.534104e+04
   2.124791e+05   5.576786e+05
  -6.397973e+05   3.451029e+05
  -3.407297e+05  -2.468362e+05
   6.573387e+05  -4.489942e+05
   1.172439e+06   1.960946e+05
   5.340558e+05   1.244829e+06
  -7.600432e+05   1.650779e+06
  -1.575814e+06   7.815973e+05
  -1.256492e+06  -8.314629e+05
  -1.713763e+05  -1.853416e+06
   7.673470e+05  -1.390096e+06
   9.730547e+05   9.374088e+04
   5.307218e+05   1.208153e+06
  -1.094059e+05   1.062704e+06
  -5.390373e+05   1.374534e+05
  -5.616112e+05  -4.128554e+05
  -2.633350e+05  -1.782372e+05
  -1.375219e+04   1.298826e+05
  -1.452618e+05  -2.265421e+05
  -4.622903e+05  -9.554503e+05
  -3.069789e+05  -1.129687e+06
   5.952373e+05  -4.283213e+05
   1.521338e+06   4.878868e+05
   1.413227e+06   8.672021e+05
   1.995364e+05   6.902579e+05
  -9.697518e+05   4.047619e+05
  -1.043484e+06   2.144450e+05
  -2.885057e+05   6.258136e+03
   1.876353e+05  -2.162514e+05
  -7.290359e+04  -2.723443e+05
  -3.864810e+05  -1.712736e+05
  -2.279549e+03  -1.408245e+05
   8.028556e+05  -1.779449e+05
   1.045794e+06   6.241880e+04
   2.536180e+05   6.793722e+05
  -9.827934e+05   1.103888e+06
  -1.651248e+06   6.569304e+05
  -1.273367e+06  -5.204392e+05
  -2.074263e+05  -1.449645e+06
   7.673710e+05  -1.345037e+06
   1.066926e+06  -4.478327e+05
   6.743354e+05   3.136917e+05
   7.890062e+04   3.609975e+05
  -1.700732e+05  -8.727644e+03
   4.924929e+04  -9.704728e+04
   3.550236e+05   3.458615e+05
   2.837987e+05   8.261227e+05
  -2.161218e+05   6.595127e+05
  -7.068219e+05  -2.138645e+05
  -6.593361e+05  -1.050456e+06
   2.620303e+04  -1.028541e+06
   8.294463e+05  -1.256842e+05
   9.931956e+05   8.484083e+05
   2.596191e+05   1.101138e+06
  -7.494811e+05   5.902929e+05
  -1.076109e+06  -1.266787e+05
  -4.682732e+05  -5.532748e+05
   2.913077e+05  -5.827724e+05
   3.011986e+05  -3.467806e+05
  -3.461464e+05  -5.767696e+04
  -6.839105e+05   9.337647e+03
  -1.094407e+05  -2.941444e+05
   8.508456e+05  -6.850980e+05
   1.207221e+06  -6.008081e+05
   6.755148e+05   1.125791e+05
  -1.218625e+05   8.393622e+05
  -4.891324e+05   8.208918e+05
  -3.332824e+05   9.004763e+04
   9.488953e+03  -5.238780e+05
   2.669742e+05  -3.821446e+05
   3.542529e+05   2.434403e+05
   2.310624e+05   5.928710e+05
  -8.167636e+04   3.508121e+05
  -3.891659e+05  -9.172224e+04
  -4.485513e+05  -2.320748e+05
  -2.456409e+05  -4.841024e+04
  -8.654822e+03   8.206618e+04
   8.928588e+04  -9.576212e+04
   1.197249e+05  -4.076384e+05
   2.290281e+05  -4.508737e+05
   3.740841e+05  -5.222345e+04
   3.340907e+05   4.916823e+05
  -1.119627e+04   6.647296e+05
  -4.625489e+05   2.635626e+05
  -6.049435e+05  -3.530558e+05
  -1.970977e+05  -6.192807e+05
   4.955281e+05  -3.469073e+05
   8.381376e+05   1.334047e+05
   4.501942e+05   3.943973e+05
  -3.033070e+05   3.331421e+05
  -6.246160e+05   1.371103e+05
  -1.851286e+05   2.461286e+03
   4.436518e+05   1.427932e+04
   4.433016e+05   1.733932e+05
  -2.583676e+05   3.445526e+05
  -8.869692e+05   2.464662e+05
