
 $NMID
 id='ANONYMOUS ', fmtdat='(2E16.6)'
 volume=1.0
 tramp=1.0
 $END
  -3.270564e+07   8.290322e+05
  -2.182881e+07  -1.616236e+07
   5.813597e+05  -2.122635e+07
   1.443603e+07  -1.282331e+07
   1.142484e+07  -2.073431e+05
   1.994672e+05   5.842094e+06
  -6.447483e+06   2.181990e+06
  -4.315985e+06  -5.335649e+06
   1.927809e+06  -8.241127e+06
   5.997826e+06  -3.471297e+06
   5.116071e+06   3.992924e+06
   7.564469e+05   6.421857e+06
  -2.936315e+06   1.540176e+06
  -2.386257e+06  -5.049615e+06
   1.889999e+06  -6.073442e+06
   5.312045e+06  -4.045432e+05
   3.888528e+06   6.270471e+06
  -1.480400e+06   7.931469e+06
  -6.098191e+06   3.943774e+06
  -6.404984e+06  -1.567017e+06
  -3.109978e+06  -4.455685e+06
   1.347002e+05  -3.966291e+06
   4.514309e+05  -2.386736e+06
  -1.574840e+06  -2.265814e+06
  -2.444127e+06  -3.829247e+06
   5.481457e+05  -4.825888e+06
   5.736871e+06  -3.100896e+06
   8.099163e+06   7.261315e+05
   4.757348e+06   3.660868e+06
  -1.277400e+06   3.458191e+06
  -4.176067e+06   7.786238e+05
  -1.756950e+06  -1.789993e+06
   2.543509e+06  -2.126955e+06
   4.137839e+06   3.169658e+04
   2.147688e+06   3.024311e+06
  -7.508763e+05   4.210205e+06
  -1.929719e+06   2.169130e+06
  -1.099851e+06  -1.263658e+06
   2.611778e+05  -2.284668e+06
   5.660017e+05   3.918726e+05
  -6.348627e+05   3.341700e+06
  -2.185824e+06   2.409295e+06
  -2.148425e+06  -1.693864e+06
   1.549118e+05  -3.906661e+06
   2.844949e+06  -1.226826e+06
   2.963510e+06   3.430877e+06
  -3.464364e+05   4.875728e+06
  -4.482122e+06   1.691117e+06
  -5.632431e+06  -2.778669e+06
  -2.474440e+06  -4.606736e+06
   2.410277e+06  -2.923496e+06
   4.847120e+06   2.497069e+05
   2.968898e+06   2.302671e+06
  -1.037916e+06   1.959093e+06
  -3.188910e+06  -3.909493e+03
  -1.793696e+06  -1.480637e+06
   9.665745e+05  -1.034583e+06
   1.756347e+06   5.885625e+05
  -5.014399e+04   1.355693e+06
  -1.867883e+06   3.516717e+05
  -1.168177e+06  -1.263676e+06
   1.530127e+06  -1.707547e+06
   3.312122e+06  -3.438486e+05
   2.058266e+06   2.027599e+06
  -1.472544e+06   3.855938e+06
  -4.542425e+06   3.621601e+06
  -4.997812e+06   8.834480e+05
  -2.979058e+06  -2.833733e+06
  -4.392473e+05  -4.899365e+06
   8.475567e+05  -4.128824e+06
   8.248402e+05  -2.075120e+06
   7.789116e+05  -1.041047e+06
   1.610265e+06  -1.218783e+06
   2.759252e+06  -8.148416e+05
   2.903964e+06   1.079967e+06
   1.450890e+06   2.925300e+06
  -8.166744e+05   2.576225e+06
  -2.344590e+06  -1.168826e+04
  -1.946844e+06  -2.613309e+06
   2.666723e+05  -3.027108e+06
   2.733646e+06  -1.065671e+06
   3.506869e+06   1.582874e+06
   2.023519e+06   3.033461e+06
  -2.418606e+05   2.729920e+06
  -1.363413e+06   1.619021e+06
  -1.169675e+06   9.733761e+05
  -1.264919e+06   1.040103e+06
  -2.675312e+06   8.982143e+05
  -4.155126e+06  -3.589718e+05
  -3.491326e+06  -2.466551e+06
  -2.804431e+05  -4.081237e+06
   3.248747e+06  -3.917432e+06
   4.373188e+06  -1.838162e+06
   2.539124e+06   8.894341e+05
  -2.490653e+05   2.391128e+06
  -1.494138e+06   1.698059e+06
  -5.066623e+05  -2.146684e+05
   1.228639e+06  -1.232726e+06
   1.768721e+06  -3.591910e+05
   6.836451e+05   1.099924e+06
  -6.777127e+05   1.140944e+06
  -7.607631e+05  -3.257860e+05
   5.488639e+05  -1.229803e+06
   1.875562e+06   8.171909e+04
   1.733878e+06   2.673682e+06
  -1.494602e+05   3.956419e+06
  -2.628626e+06   2.496798e+06
  -3.979497e+06  -5.843771e+05
  -3.166477e+06  -2.898106e+06
  -7.535634e+05  -3.036877e+06
   1.388880e+06  -1.557016e+06
   1.705214e+06  -1.377142e+05
   5.030698e+05   4.054830e+04
  -3.908573e+05  -7.432912e+05
   2.661298e+05  -1.232041e+06
   1.667161e+06  -6.074464e+05
   1.957974e+06   6.267909e+05
   5.412774e+05   1.246897e+06
  -1.110955e+06   6.789254e+05
  -1.105146e+06  -4.156963e+05
   7.100569e+05  -8.677751e+05
   2.495426e+06  -1.183104e+05
   2.297514e+06   1.334048e+06
   4.037558e+04   2.344451e+06
  -2.367724e+06   1.996842e+06
  -2.874291e+06   4.171031e+05
  -1.238774e+06  -1.145327e+06
   8.148203e+05  -1.355708e+06
   1.357954e+06  -1.777151e+05
   1.070127e+05   9.717906e+05
  -1.478137e+06   7.349538e+05
  -1.783232e+06  -6.501002e+05
  -5.807502e+05  -1.649209e+06
   9.215139e+05  -1.224343e+06
   1.349351e+06   3.888938e+04
   4.545971e+05   7.074767e+05
  -6.863806e+05   1.143386e+05
  -7.166416e+05  -1.018990e+06
   6.106890e+05  -1.419026e+06
   2.048409e+06  -5.146321e+05
   2.048603e+06   1.066280e+06
   4.279043e+05   2.067095e+06
  -1.352877e+06   1.696687e+06
  -1.719517e+06   3.306630e+05
  -6.150225e+05  -8.295920e+05
   6.071291e+05  -8.882448e+05
   7.616147e+05  -8.000854e+04
  -1.394276e+04   5.804076e+05
  -6.660185e+05   4.407193e+05
  -4.679725e+05  -1.228906e+05
   2.840181e+05  -2.280993e+05
   6.471290e+05   4.339760e+05
  -1.210322e+04   1.173832e+06
  -1.325787e+06   9.916018e+05
  -2.130294e+06  -3.442421e+05
  -1.522953e+06  -1.938967e+06
   1.774178e+05  -2.527372e+06
   1.654872e+06  -1.637421e+06
   1.895062e+06  -2.711587e+04
   1.137292e+06   1.050507e+06
   4.122560e+05   1.024796e+06
   3.029696e+05   4.381217e+05
   4.217860e+05   2.222529e+05
   7.722061e+04   6.308909e+05
  -8.044403e+05   9.838753e+05
  -1.523226e+06   4.879587e+05
  -1.261291e+06  -7.606403e+05
   1.151632e+05  -1.695379e+06
   1.766120e+06  -1.276740e+06
   2.397099e+06   4.095163e+05
   1.322051e+06   2.094362e+06
  -8.102889e+05   2.437125e+06
  -2.455596e+06   1.240071e+06
  -2.517902e+06  -4.364418e+05
  -1.276638e+06  -1.347434e+06
   4.867357e+04  -1.203911e+06
   5.512348e+05  -7.409459e+05
   3.586578e+05  -7.468326e+05
   2.243897e+05  -1.161552e+06
   6.125078e+05  -1.199298e+06
   1.228775e+06  -3.072511e+05
   1.349604e+06   1.103949e+06
   5.819697e+05   1.948577e+06
  -6.402693e+05   1.488580e+06
  -1.341189e+06   5.933328e+04
  -9.117689e+05  -1.216960e+06
   2.331555e+05  -1.428466e+06
   1.024205e+06  -6.083169e+05
   8.286760e+05   4.423353e+05
   7.388327e+04   9.641211e+05
  -3.106822e+05   8.468730e+05
   1.154595e+04   5.214677e+05
   4.084203e+05   3.868710e+05
   4.045896e+04   4.131982e+05
  -1.097604e+06   2.673551e+05
  -2.015598e+06  -2.551951e+05
  -1.679632e+06  -9.571465e+05
  -1.273353e+05  -1.370594e+06
   1.447599e+06  -1.155552e+06
   1.818804e+06  -4.215423e+05
   9.193682e+05   3.071189e+05
  -1.830719e+05   5.032112e+05
  -4.759780e+05   1.205081e+05
   1.713645e+04  -3.203626e+05
   5.107953e+05  -2.386525e+05
   4.781525e+05   3.478266e+05
   1.342794e+05   7.774777e+05
  -2.246090e+04   4.993386e+05
   1.563622e+05  -1.939127e+05
   3.891610e+05  -4.215561e+05
   3.137334e+05   2.190669e+05
  -1.974527e+05   1.063344e+06
  -9.010618e+05   1.085841e+06
  -1.237808e+06   1.133134e+05
  -7.313751e+05  -9.314052e+05
   4.085949e+05  -1.051793e+06
   1.196253e+06  -2.361513e+05
   7.423917e+05   6.231569e+05
  -6.787169e+05   7.076715e+05
  -1.701839e+06   2.460958e+03
  -1.234194e+06  -8.410497e+05
   3.519491e+05  -1.144449e+06
   1.580555e+06  -7.107486e+05
   1.402885e+06   7.825270e+04
   2.171940e+05   5.630934e+05
  -6.525386e+05   3.545051e+05
  -3.594155e+05  -2.550910e+05
   6.594702e+05  -4.826321e+05
   1.210849e+06   1.672754e+05
   5.882114e+05   1.263686e+06
  -7.319887e+05   1.717849e+06
  -1.595655e+06   8.439561e+05
  -1.305616e+06  -8.242558e+05
  -2.109005e+05  -1.894190e+06
   7.617202e+05  -1.428290e+06
   9.942098e+05   9.167329e+04
   5.512799e+05   1.230049e+06
  -1.097350e+05   1.079942e+06
  -5.545168e+05   1.422541e+05
  -5.710029e+05  -4.094377e+05
  -2.600775e+05  -1.722266e+05
  -1.656492e+04   1.285124e+05
  -1.710308e+05  -2.416581e+05
  -4.970516e+05  -9.768129e+05
  -3.179078e+05  -1.147909e+06
   6.214432e+05  -4.438192e+05
   1.565455e+06   4.733910e+05
   1.448236e+06   8.630234e+05
   2.140659e+05   7.073845e+05
  -9.739909e+05   4.350985e+05
  -1.060473e+06   2.333296e+05
  -3.061606e+05   1.803402e+03
   1.834915e+05  -2.271634e+05
  -6.448352e+04  -2.679235e+05
  -3.834599e+05  -1.573692e+05
  -1.174520e+04  -1.441810e+05
   8.027249e+05  -2.060600e+05
   1.076990e+06   3.966086e+04
   2.978547e+05   6.982296e+05
  -9.726173e+05   1.163479e+06
  -1.695240e+06   7.165699e+05
  -1.339050e+06  -5.026444e+05
  -2.475533e+05  -1.481495e+06
   7.672101e+05  -1.400136e+06
   1.088126e+06  -4.916114e+05
   6.966786e+05   2.991736e+05
   9.526692e+04   3.701310e+05
  -1.610646e+05   6.103887e+03
   5.289005e+04  -8.832067e+04
   3.623934e+05   3.524542e+05
   3.001600e+05   8.417674e+05
  -2.060600e+05   6.851258e+05
  -7.275838e+05  -1.939509e+05
  -7.085620e+05  -1.055222e+06
  -1.158496e+04  -1.060127e+06
   8.406125e+05  -1.624414e+05
   1.043236e+06   8.369032e+05
   2.989973e+05   1.127217e+06
  -7.562807e+05   6.332280e+05
  -1.115766e+06  -1.048335e+05
  -4.997845e+05  -5.708515e+05
   2.902225e+05  -6.187607e+05
   3.161216e+05  -3.640144e+05
  -3.423384e+05  -4.502838e+04
  -6.982084e+05   2.598861e+04
  -1.229942e+05  -3.031893e+05
   8.596230e+05  -7.180045e+05
   1.238788e+06  -6.280436e+05
   7.091491e+05   1.154439e+05
  -1.077379e+05   8.700911e+05
  -4.994099e+05   8.570614e+05
  -3.562509e+05   1.082272e+05
  -9.258655e+03  -5.326900e+05
   2.644362e+05  -4.059990e+05
   3.691094e+05   2.294769e+05
   2.513109e+05   6.036745e+05
  -7.444896e+04   3.743202e+05
  -4.025613e+05  -8.050216e+04
  -4.688569e+05  -2.389818e+05
  -2.524116e+05  -5.309112e+04
  -1.580649e+03   9.558999e+04
   8.768074e+04  -7.843108e+04
   9.518828e+04  -4.142394e+05
   2.011200e+05  -4.849510e+05
   3.770429e+05  -8.654286e+04
   3.724777e+05   4.838155e+05
   2.614035e+04   6.829772e+05
  -4.633014e+05   2.874452e+05
  -6.382366e+05  -3.419734e+05
  -2.225827e+05  -6.269967e+05
   5.058447e+05  -3.679499e+05
   8.718702e+05   1.144078e+05
   4.744038e+05   3.956945e+05
  -3.055362e+05   3.584290e+05
  -6.433461e+05   1.657512e+05
  -2.008287e+05   7.456647e+03
   4.420452e+05  -6.927362e+03
   4.544119e+05   1.531107e+05
  -2.450476e+05   3.512918e+05
  -8.856022e+05   2.740310e+05
