
 $NMID
 id='ANONYMOUS ', fmtdat='(2E16.6)'
 volume=1.0
 tramp=1.0
 $END
   2.155168e+07  -9.371117e+05
   1.412603e+07   1.043657e+07
  -4.486137e+05   1.374926e+07
  -9.101303e+06   8.258179e+06
  -7.040682e+06   1.601160e+05
  -7.574126e+04  -3.716700e+06
   3.991857e+06  -1.470669e+06
   2.784204e+06   3.278081e+06
  -1.003719e+06   5.229868e+06
  -3.722489e+06   2.294248e+06
  -3.433335e+06  -2.516499e+06
  -6.631298e+05  -4.198735e+06
   1.969890e+06  -1.119018e+06
   1.832872e+06   3.173119e+06
  -9.575407e+05   3.923416e+06
  -3.352192e+06   3.417412e+05
  -2.590992e+06  -3.946288e+06
   8.410908e+05  -5.088183e+06
   3.919801e+06  -2.610529e+06
   4.251474e+06   9.712918e+05
   2.122420e+06   2.990566e+06
  -1.482418e+05   2.733870e+06
  -4.816619e+05   1.507927e+06
   9.662850e+05   1.144161e+06
   1.820440e+06   2.147578e+06
  -3.304317e+03   3.133420e+06
  -3.554437e+06   2.380658e+06
  -5.368166e+06  -6.013614e+04
  -3.324295e+06  -2.264660e+06
   6.781906e+05  -2.489386e+06
   2.765357e+06  -8.563436e+05
   1.389853e+06   1.033507e+06
  -1.372601e+06   1.593494e+06
  -2.617249e+06   3.308304e+05
  -1.601270e+06  -1.786826e+06
   2.388277e+05  -2.812366e+06
   1.243375e+06  -1.524751e+06
   9.125120e+05   8.782190e+05
  -6.469553e+04   1.659886e+06
  -5.292406e+05  -1.542537e+05
   1.353234e+05  -2.200618e+06
   1.261369e+06  -1.628910e+06
   1.389281e+06   1.050392e+06
  -7.746892e+04   2.460517e+06
  -1.868794e+06   7.054523e+05
  -1.968477e+06  -2.256923e+06
   1.864751e+05  -3.156721e+06
   2.893273e+06  -1.191159e+06
   3.701049e+06   1.576123e+06
   1.733672e+06   2.810955e+06
  -1.414503e+06   1.941849e+06
  -3.063917e+06   3.862166e+04
  -1.926614e+06  -1.349218e+06
   6.504161e+05  -1.272746e+06
   2.062011e+06  -5.971803e+04
   1.166016e+06   9.393528e+05
  -6.230902e+05   7.092324e+05
  -1.142561e+06  -3.090627e+05
  -1.749276e+04  -8.100371e+05
   1.094754e+06  -2.227380e+05
   6.488739e+05   7.358827e+05
  -9.891927e+05   1.014762e+06
  -2.057664e+06   2.234339e+05
  -1.312038e+06  -1.258896e+06
   8.269837e+05  -2.541382e+06
   2.782225e+06  -2.538790e+06
   3.217488e+06  -7.786947e+05
   2.074370e+06   1.753402e+06
   4.716297e+05   3.177878e+06
  -4.105357e+05   2.640925e+06
  -4.140930e+05   1.263896e+06
  -3.436397e+05   6.676142e+05
  -8.722626e+05   9.404106e+05
  -1.717767e+06   7.850359e+05
  -1.990698e+06  -4.653236e+05
  -1.177868e+06  -1.795884e+06
   3.277809e+05  -1.746954e+06
   1.504382e+06  -1.853331e+05
   1.427001e+06   1.539283e+06
   8.402059e+03   1.976750e+06
  -1.734200e+06   8.514910e+05
  -2.380761e+06  -8.707072e+05
  -1.439917e+06  -1.926011e+06
   1.005110e+05  -1.809465e+06
   8.778763e+05  -1.071795e+06
   7.303563e+05  -6.107230e+05
   7.388155e+05  -6.813468e+05
   1.631172e+06  -6.939636e+05
   2.640145e+06   1.950482e+04
   2.336690e+06   1.387711e+06
   3.990052e+05   2.578743e+06
  -1.847115e+06   2.677055e+06
  -2.701575e+06   1.430682e+06
  -1.712049e+06  -4.254231e+05
  -1.165218e+03  -1.574736e+06
   8.778532e+05  -1.203818e+06
   3.664388e+05   1.113028e+05
  -7.178147e+05   8.798112e+05
  -1.134612e+06   3.272211e+05
  -5.083440e+05  -6.945010e+05
   3.762334e+05  -7.956777e+05
   5.114421e+05   1.427113e+05
  -2.570697e+05   7.848946e+05
  -1.132860e+06   3.578349e+04
  -1.175834e+06  -1.565183e+06
  -1.097502e+05  -2.435604e+06
   1.471794e+06  -1.665636e+06
   2.492446e+06   1.486346e+05
   2.153870e+06   1.625530e+06
   6.615275e+05   1.864971e+06
  -7.928699e+05   1.069100e+06
  -1.086448e+06   1.840869e+05
  -3.231787e+05  -3.218634e+03
   2.960560e+05   4.517263e+05
  -1.061849e+05   8.039129e+05
  -1.041726e+06   4.746943e+05
  -1.288208e+06  -3.044314e+05
  -4.135125e+05  -7.775670e+05
   6.693840e+05  -5.099059e+05
   7.371865e+05   1.802073e+05
  -3.683496e+05   5.786255e+05
  -1.540035e+06   2.323825e+05
  -1.524001e+06  -6.823816e+05
  -1.754035e+05  -1.464535e+06
   1.377122e+06  -1.400521e+06
   1.804684e+06  -4.234679e+05
   8.493187e+05   6.744309e+05
  -4.624622e+05   9.168713e+05
  -8.747310e+05   1.762358e+05
  -1.250284e+05  -6.321785e+05
   9.072641e+05  -5.572689e+05
   1.172776e+06   3.164926e+05
   4.588206e+05   1.015738e+06
  -5.162931e+05   8.267157e+05
  -8.584977e+05   5.120672e+04
  -3.335668e+05  -4.253355e+05
   4.257114e+05  -1.210251e+05
   5.200161e+05   5.966104e+05
  -2.954930e+05   9.365648e+05
  -1.268192e+06   4.496050e+05
  -1.364582e+06  -5.610168e+05
  -3.862976e+05  -1.293610e+06
   7.731836e+05  -1.152525e+06
   1.081687e+06  -2.973696e+05
   4.402246e+05   5.023080e+05
  -3.369905e+05   6.082369e+05
  -4.905602e+05   1.069614e+05
  -4.973104e+04  -3.626203e+05
   3.726465e+05  -3.332716e+05
   3.036610e+05   1.886869e+04
  -1.410025e+05   1.396562e+05
  -4.078696e+05  -2.322548e+05
  -5.106884e+04  -7.259674e+05
   7.783576e+05  -6.929922e+05
   1.364044e+06   9.901716e+04
   1.071495e+06   1.144586e+06
   2.692583e+04   1.614756e+06
  -9.558467e+05   1.131223e+06
  -1.194696e+06   1.248049e+05
  -7.816415e+05  -5.966987e+05
  -3.316352e+05  -6.250402e+05
  -2.253309e+05  -2.706788e+05
  -2.705383e+05  -1.280103e+05
  -6.908546e+04  -3.905401e+05
   4.527437e+05  -6.518253e+05
   9.190275e+05  -3.878065e+05
   8.293542e+05   3.985858e+05
   2.898210e+04   1.062792e+06
  -1.032762e+06   9.011260e+05
  -1.534027e+06  -1.209723e+05
  -9.542188e+05  -1.245683e+06
   3.758998e+05  -1.582118e+06
   1.482770e+06  -9.174252e+05
   1.614259e+06   1.337600e+05
   8.855844e+05   7.723462e+05
   4.831414e+04   7.592643e+05
  -2.967977e+05   5.084440e+05
  -1.878210e+05   5.100387e+05
  -8.995693e+04   7.591317e+05
  -3.320727e+05   7.934744e+05
  -7.664412e+05   2.580946e+05
  -9.197518e+05  -6.286622e+05
  -4.794192e+05  -1.207073e+06
   3.237156e+05  -9.844002e+05
   8.478394e+05  -1.159565e+05
   6.435862e+05   7.176100e+05
  -6.847465e+04   9.125053e+05
  -6.061340e+05   4.361542e+05
  -5.356187e+05  -2.329883e+05
  -9.423293e+04  -5.962130e+05
   1.449543e+05  -5.433807e+05
  -4.139054e+04  -3.281888e+05
  -2.783513e+05  -2.262710e+05
  -4.598830e+04  -2.588672e+05
   6.762274e+05  -2.227750e+05
   1.283318e+06   5.655750e+04
   1.113177e+06   5.118453e+05
   1.563516e+05   8.531119e+05
  -8.530652e+05   8.048866e+05
  -1.126921e+06   3.669196e+05
  -5.934381e+05  -1.386109e+05
   9.219083e+04  -3.230500e+05
   2.894763e+05  -9.997072e+04
  -4.630444e+03   2.035840e+05
  -3.170355e+05   1.773133e+05
  -3.200753e+05  -1.991391e+05
  -1.232044e+05  -4.942255e+05
  -9.808344e+03  -3.256998e+05
  -8.319319e+04   1.312701e+05
  -2.151589e+05   2.956927e+05
  -2.048199e+05  -1.149002e+05
   6.635073e+04  -6.821116e+05
   5.073297e+05  -7.336622e+05
   7.742090e+05  -1.310048e+05
   5.099719e+05   5.564541e+05
  -2.073169e+05   6.848670e+05
  -7.494658e+05   2.055223e+05
  -5.051159e+05  -3.581428e+05
   3.913022e+05  -4.830916e+05
   1.076161e+06  -9.607222e+04
   8.280882e+05   4.566501e+05
  -1.538874e+05   7.382541e+05
  -9.539538e+05   5.412340e+05
  -8.905022e+05   3.585905e+04
  -1.719501e+05  -3.423026e+05
   3.908831e+05  -2.630120e+05
   2.406229e+05   1.419404e+05
  -3.949975e+05   3.449100e+05
  -7.823972e+05  -4.141890e+04
  -4.424595e+05  -7.773468e+05
   3.784760e+05  -1.136785e+06
   9.752141e+05  -6.225609e+05
   8.758436e+05   4.560751e+05
   2.362363e+05   1.193545e+06
  -4.027773e+05   9.495945e+05
  -6.316802e+05  -2.264767e+02
  -4.193374e+05  -7.445346e+05
   1.762816e+03  -6.871560e+05
   3.388292e+05  -1.216797e+05
   3.886192e+05   2.232401e+05
   1.801079e+05   9.029073e+04
   1.708034e+03  -8.223879e+04
   1.151422e+05   1.483778e+05
   3.671761e+05   5.952540e+05
   2.698368e+05   7.078436e+05
  -3.657726e+05   3.105593e+05
  -1.021292e+06  -2.148786e+05
  -9.696325e+05  -4.639533e+05
  -1.729107e+05  -4.352857e+05
   5.984634e+05  -3.327104e+05
   6.595810e+05  -2.085719e+05
   1.884702e+05  -1.529397e+04
  -1.068431e+05   1.566029e+05
   6.026185e+04   1.627535e+05
   2.582922e+05   7.333024e+04
   1.519044e+04   9.161676e+04
  -5.035789e+05   1.794835e+05
  -6.874658e+05   3.244388e+04
  -2.210412e+05  -4.354167e+05
   5.623882e+05  -7.959695e+05
   1.040855e+06  -5.401161e+05
   8.764687e+05   2.572158e+05
   2.361967e+05   9.306828e+05
  -4.122185e+05   9.270764e+05
  -6.670931e+05   3.685067e+05
  -4.620275e+05  -1.519862e+05
  -7.985392e+04  -2.312181e+05
   1.078329e+05  -1.573066e+04
  -2.332235e+04   5.929876e+04
  -2.492599e+05  -1.996600e+05
  -2.391341e+05  -5.157514e+05
   9.462677e+04  -4.481846e+05
   4.781623e+05   8.362814e+04
   5.105513e+05   6.383570e+05
   6.023566e+04   6.804109e+05
  -5.341432e+05   1.489011e+05
  -7.125603e+05  -4.816301e+05
  -2.475700e+05  -7.042317e+05
   4.515386e+05  -4.409657e+05
   7.141079e+05   1.035160e+04
   3.424565e+05   3.356532e+05
  -1.548734e+05   4.046984e+05
  -1.784164e+05   2.439093e+05
   2.252456e+05   7.722500e+03
   4.433421e+05  -5.442409e+04
   9.179157e+04   1.871068e+05
  -5.074153e+05   5.031238e+05
  -7.474056e+05   4.639345e+05
  -4.498653e+05  -3.828930e+04
   2.444556e+04  -5.585778e+05
   2.710630e+05  -5.656621e+05
   2.209049e+05  -7.992917e+04
   3.435622e+04   3.422171e+05
  -1.498381e+05   2.709487e+05
  -2.514293e+05  -1.290899e+05
  -1.916145e+05  -3.711296e+05
   3.242171e+04  -2.404597e+05
   2.624609e+05   3.112861e+04
   3.069184e+05   1.266027e+05
   1.603086e+05   1.876998e+04
   7.395303e+02  -6.077150e+04
  -4.399336e+04   5.926905e+04
  -3.938807e+04   2.770463e+05
  -1.131383e+05   3.253020e+05
  -2.459155e+05   7.259604e+04
  -2.643609e+05  -2.978666e+05
  -4.831652e+04  -4.417277e+05
   2.830533e+05  -2.081662e+05
   4.248633e+05   1.884952e+05
   1.752664e+05   3.900263e+05
  -3.015255e+05   2.588985e+05
  -5.607533e+05  -3.018146e+04
  -3.222173e+05  -2.277803e+05
   1.788420e+05  -2.424059e+05
   4.044986e+05  -1.358376e+05
   1.261163e+05  -1.062222e+04
  -2.883989e+05   3.150717e+04
  -3.045673e+05  -7.452051e+04
   1.365238e+05  -2.434150e+05
   5.537071e+05  -2.287550e+05
