
 $NMID
 id='ANONYMOUS ', fmtdat='(2E16.6)'
 volume=1.0
 tramp=1.0
 $END
   2.581047e+07  -4.127421e+06
   2.037994e+07   9.516532e+06
   3.180448e+06   1.718285e+07
  -1.041087e+07   1.341907e+07
  -1.053943e+07   2.481614e+06
  -1.427708e+06  -5.170265e+06
   5.728985e+06  -3.266014e+06
   4.987320e+06   4.208035e+06
  -6.745837e+05   8.061456e+06
  -5.003350e+06   4.091057e+06
  -4.722998e+06  -3.007445e+06
  -1.029066e+06  -5.566941e+06
   2.378578e+06  -1.349293e+06
   2.295361e+06   4.619708e+06
  -1.255705e+06   5.865903e+06
  -4.657673e+06   1.119535e+06
  -4.081404e+06  -4.953645e+06
   3.539559e+05  -6.932127e+06
   4.607683e+06  -3.835660e+06
   5.159765e+06   7.801294e+05
   2.579837e+06   3.092520e+06
   2.946007e+05   2.627575e+06
   5.707284e+05   1.755176e+06
   2.301666e+06   2.438017e+06
   2.431855e+06   4.107234e+06
  -7.198018e+05   4.598752e+06
  -5.292865e+06   2.660092e+06
  -7.155744e+06  -6.795944e+05
  -4.081886e+06  -3.025827e+06
   1.306570e+06  -2.741126e+06
   3.810608e+06  -3.335798e+05
   1.302167e+06   1.972982e+06
  -2.936152e+06   2.055228e+06
  -4.239081e+06  -3.229959e+05
  -1.854642e+06  -3.167227e+06
   1.010006e+06  -3.863765e+06
   1.622888e+06  -1.685029e+06
   4.501876e+05   1.175134e+06
  -4.874677e+05   1.627575e+06
  -2.151785e+05  -8.394725e+05
   8.811897e+05  -3.229624e+06
   1.988443e+06  -2.348235e+06
   2.156979e+06   1.213526e+06
   6.518568e+05   3.472674e+06
  -1.806438e+06   1.721191e+06
  -2.779432e+06  -2.189386e+06
  -4.979601e+05  -3.995513e+06
   3.483059e+06  -1.834348e+06
   5.250717e+06   2.040911e+06
   2.686087e+06   4.081677e+06
  -2.034447e+06   2.953330e+06
  -4.632810e+06   1.419558e+05
  -3.081816e+06  -1.946327e+06
   6.294641e+05  -1.970270e+06
   2.824906e+06  -3.894102e+05
   1.820854e+06   1.088703e+06
  -6.965065e+05   1.002170e+06
  -1.717028e+06  -4.422865e+05
  -1.907335e+05  -1.523358e+06
   1.874708e+06  -8.788629e+05
   1.758430e+06   9.197004e+05
  -7.316371e+05   1.951149e+06
  -2.889974e+06   9.627350e+05
  -2.136900e+06  -1.437122e+06
   1.107605e+06  -3.384139e+06
   3.995461e+06  -3.252293e+06
   4.338260e+06  -8.414419e+05
   2.529213e+06   2.377121e+06
   5.090141e+05   4.275801e+06
  -4.581930e+05   3.881200e+06
  -6.535814e+05   2.260551e+06
  -1.009856e+06   1.195608e+06
  -1.886617e+06   1.021167e+06
  -2.722862e+06   4.477524e+05
  -2.607235e+06  -1.281861e+06
  -1.153782e+06  -2.883722e+06
   9.738122e+05  -2.425883e+06
   2.351418e+06   1.265271e+05
   1.855008e+06   2.585747e+06
  -2.866866e+05   2.839387e+06
  -2.483742e+06   9.095720e+05
  -3.063127e+06  -1.421607e+06
  -1.765630e+06  -2.534062e+06
   6.369218e+04  -2.224467e+06
   9.375337e+05  -1.410373e+06
   8.409713e+05  -1.020559e+06
   1.098637e+06  -1.138447e+06
   2.499783e+06  -9.983062e+05
   3.920437e+06   1.800761e+05
   3.350827e+06   2.216493e+06
   3.493380e+05   3.844622e+06
  -3.022366e+06   3.721709e+06
  -4.102246e+06   1.694341e+06
  -2.316694e+06  -8.950582e+05
   3.398262e+05  -2.222683e+06
   1.442789e+06  -1.515708e+06
   4.447981e+05   2.277333e+05
  -1.162073e+06   1.139812e+06
  -1.623569e+06   3.670898e+05
  -6.165686e+05  -9.740208e+05
   6.614339e+05  -1.067458e+06
   7.996137e+05   3.230155e+05
  -4.520334e+05   1.342265e+06
  -1.914542e+06   2.077332e+05
  -1.999812e+06  -2.447627e+06
  -1.572794e+05  -4.017856e+06
   2.498276e+06  -2.746161e+06
   4.002635e+06   3.944721e+05
   3.193124e+06   2.826789e+06
   7.596001e+05   2.977905e+06
  -1.331443e+06   1.483548e+06
  -1.618957e+06   1.148113e+05
  -4.764909e+05  -3.194991e+04
   3.848592e+05   6.957354e+05
  -1.885648e+05   1.154937e+06
  -1.509205e+06   6.275801e+05
  -1.863181e+06  -4.968479e+05
  -5.803537e+05  -1.145969e+06
   1.034726e+06  -6.834703e+05
   1.096820e+06   3.943220e+05
  -6.684364e+05   9.192349e+05
  -2.468889e+06   2.015923e+05
  -2.303178e+06  -1.288666e+06
  -8.593772e+04  -2.322849e+06
   2.256300e+06  -1.976226e+06
   2.736757e+06  -4.480415e+05
   1.198555e+06   1.036291e+06
  -7.068480e+05   1.264268e+06
  -1.226752e+06   2.066627e+05
  -1.051685e+05  -8.753437e+05
   1.370511e+06  -7.135530e+05
   1.714913e+06   5.663745e+05
   6.224548e+05   1.571804e+06
  -8.422642e+05   1.239755e+06
  -1.323302e+06   3.152810e+04
  -4.930692e+05  -6.678077e+05
   6.254323e+05  -1.431681e+05
   6.854347e+05   9.378966e+05
  -5.633882e+05   1.334935e+06
  -1.923627e+06   4.974381e+05
  -1.938807e+06  -9.812956e+05
  -4.391935e+05  -1.940275e+06
   1.236191e+06  -1.634515e+06
   1.624865e+06  -3.612811e+05
   6.193781e+05   7.764392e+05
  -5.575690e+05   8.680610e+05
  -7.439231e+05   6.977289e+04
   9.571638e+03  -6.084602e+05
   6.891158e+05  -4.532535e+05
   5.126061e+05   1.661664e+05
  -2.651413e+05   3.079915e+05
  -6.731254e+05  -3.618104e+05
  -4.943989e+04  -1.124753e+06
   1.232499e+06  -9.775677e+05
   2.025780e+06   2.867593e+05
   1.469075e+06   1.808780e+06
  -1.392101e+05   2.406115e+06
  -1.571570e+06   1.605957e+06
  -1.846696e+06   5.872980e+04
  -1.126760e+06  -1.043196e+06
  -3.753109e+05  -1.055069e+06
  -2.229296e+05  -4.361138e+05
  -3.636301e+05  -1.570992e+05
  -9.403122e+04  -5.598550e+05
   7.377695e+05  -9.628299e+05
   1.463258e+06  -5.055095e+05
   1.238569e+06   7.346958e+05
  -8.583111e+04   1.665788e+06
  -1.679567e+06   1.263086e+06
  -2.301055e+06  -3.566043e+05
  -1.312438e+06  -1.973599e+06
   6.938312e+05  -2.341509e+06
   2.297885e+06  -1.254985e+06
   2.437755e+06   3.480849e+05
   1.289142e+06   1.292321e+06
  -2.695983e+04   1.210965e+06
  -5.749531e+05   7.356738e+05
  -3.912211e+05   6.693347e+05
  -2.057028e+05   1.045448e+06
  -5.358372e+05   1.121239e+06
  -1.134191e+06   3.095797e+05
  -1.281380e+06  -1.027226e+06
  -5.699533e+05  -1.838906e+06
   5.936461e+05  -1.415861e+06
   1.279773e+06  -7.967174e+04
   9.031201e+05   1.129133e+06
  -1.689704e+05   1.372307e+06
  -9.483342e+05   6.485939e+05
  -8.203752e+05  -3.486612e+05
  -1.409971e+05  -9.040953e+05
   2.373888e+05  -8.429893e+05
  -2.637583e+04  -5.263388e+05
  -3.762686e+05  -3.671357e+05
  -3.479190e+04  -3.922126e+05
   1.023360e+06  -2.845284e+05
   1.895504e+06   1.909387e+05
   1.614271e+06   8.677999e+05
   1.830645e+05   1.291920e+06
  -1.314516e+06   1.124856e+06
  -1.718575e+06   4.536822e+05
  -9.111128e+05  -2.444518e+05
   1.392600e+05  -4.695995e+05
   4.484044e+05  -1.438265e+05
  -1.046078e+04   2.716648e+05
  -4.902254e+05   2.172128e+05
  -4.518296e+05  -3.217699e+05
  -1.006245e+05  -7.261216e+05
   4.544926e+04  -4.587606e+05
  -1.617535e+05   2.049476e+05
  -4.028483e+05   4.168874e+05
  -3.080338e+05  -2.038893e+05
   1.957712e+05  -1.012024e+06
   8.360611e+05  -1.034953e+06
   1.123559e+06  -1.225630e+05
   6.670998e+05   8.542019e+05
  -3.581181e+05   9.725096e+05
  -1.092585e+06   2.199522e+05
  -7.000846e+05  -5.892113e+05
   6.307380e+05  -6.900300e+05
   1.638014e+06  -3.204117e+04
   1.226957e+06   7.990376e+05
  -3.049395e+05   1.133604e+06
  -1.525385e+06   7.320128e+05
  -1.373879e+06  -5.127557e+04
  -2.244900e+05  -5.487061e+05
   6.201197e+05  -3.611158e+05
   3.395007e+05   2.222065e+05
  -6.259441e+05   4.411067e+05
  -1.133230e+06  -1.674822e+05
  -5.351763e+05  -1.187700e+06
   7.035355e+05  -1.604551e+06
   1.508716e+06  -7.849595e+05
   1.237595e+06   7.808506e+05
   2.086348e+05   1.800625e+06
  -7.206540e+05   1.379364e+06
  -9.623886e+05  -6.194772e+04
  -5.570007e+05  -1.172828e+06
   7.712287e+04  -1.057173e+06
   5.242939e+05  -1.559240e+05
   5.626630e+05   3.995658e+05
   2.657631e+05   1.805338e+05
   1.032727e+04  -1.336300e+05
   1.428006e+05   1.956304e+05
   4.730804e+05   9.106028e+05
   3.349997e+05   1.107730e+06
  -5.599473e+05   4.491677e+05
  -1.495282e+06  -4.395924e+05
  -1.407755e+06  -8.217340e+05
  -2.154882e+05  -6.668018e+05
   9.412761e+05  -4.065026e+05
   1.018144e+06  -2.339936e+05
   2.803068e+05  -2.753492e+04
  -1.793820e+05   2.100228e+05
   8.116643e+04   2.811845e+05
   3.834937e+05   1.765974e+05
   6.891836e+02   1.322492e+05
  -7.827155e+05   1.740283e+05
  -1.012953e+06  -3.653485e+04
  -2.498734e+05  -6.323795e+05
   9.303243e+05  -1.077751e+06
   1.571773e+06  -6.804077e+05
   1.229404e+06   4.638882e+05
   2.303369e+05   1.400416e+06
  -7.056205e+05   1.326136e+06
  -1.016504e+06   4.542435e+05
  -6.569102e+05  -2.964121e+05
  -8.107135e+04  -3.428408e+05
   1.666764e+05   2.241728e+04
  -5.128360e+04   1.071273e+05
  -3.625505e+05  -3.306080e+05
  -3.002809e+05  -8.013506e+05
   1.932563e+05  -6.410254e+05
   6.848651e+05   2.005005e+05
   6.506664e+05   1.003603e+06
  -1.079904e+04   9.838960e+05
  -7.962351e+05   1.240430e+05
  -9.698392e+05  -8.052580e+05
  -2.725131e+05  -1.054106e+06
   7.057870e+05  -5.815454e+05
   1.039310e+06   9.376588e+04
   4.710533e+05   5.117114e+05
  -2.564543e+05   5.645480e+05
  -2.730129e+05   3.524229e+05
   3.422661e+05   6.293900e+04
   6.645199e+05  -2.087955e+04
   1.124039e+05   2.771879e+05
  -8.115335e+05   6.871235e+05
  -1.158951e+06   6.295551e+05
  -6.587319e+05  -7.412165e+04
   9.437161e+04  -8.133059e+05
   4.423945e+05  -8.153690e+05
   3.037415e+05  -1.003753e+05
  -6.463615e+03   5.065522e+05
  -2.455124e+05   3.701515e+05
  -3.398610e+05  -2.368884e+05
  -2.367289e+05  -5.687778e+05
   6.361495e+04  -3.320554e+05
   3.750134e+05   8.301806e+04
   4.454010e+05   2.050992e+05
   2.461286e+05   3.579464e+04
   2.444163e+03  -6.798302e+04
  -1.013482e+05   1.088977e+05
  -1.250174e+05   3.893548e+05
  -2.166584e+05   4.130830e+05
  -3.479631e+05   3.749511e+04
  -3.121219e+05  -4.653919e+05
   1.184453e+04  -6.280650e+05
   4.417911e+05  -2.571388e+05
   5.827244e+05   3.269734e+05
   1.972353e+05   5.943739e+05
  -4.686211e+05   3.502844e+05
  -8.067094e+05  -1.072700e+05
  -4.433774e+05  -3.692032e+05
   2.785428e+05  -3.240280e+05
   5.908421e+05  -1.427551e+05
   1.711917e+05  -1.370852e+04
  -4.316654e+05  -2.200012e+04
  -4.260375e+05  -1.720030e+05
   2.574217e+05  -3.365657e+05
   8.670944e+05  -2.439175e+05
