
 $NMID
 id='ANONYMOUS ', fmtdat='(2E16.6)'
 volume=1.0
 tramp=1.0
 $END
   2.114531e+07   5.624350e+05
   1.397589e+07   1.037158e+07
  -3.648374e+05   1.351661e+07
  -9.527259e+06   8.723843e+06
  -7.872527e+06   6.187634e+05
  -3.843117e+05  -3.966216e+06
   4.475580e+06  -1.867923e+06
   3.248381e+06   3.569558e+06
  -1.185995e+06   5.959288e+06
  -4.141909e+06   2.559824e+06
  -3.421572e+06  -2.913101e+06
  -2.868935e+05  -4.566585e+06
   2.147543e+06  -8.895062e+05
   1.577646e+06   3.810511e+06
  -1.388712e+06   4.392412e+06
  -3.624659e+06   3.175481e+05
  -2.544625e+06  -4.296893e+06
   1.150483e+06  -5.297471e+06
   4.177619e+06  -2.375115e+06
   4.095947e+06   1.400712e+06
   1.636743e+06   3.047743e+06
  -3.873265e+05   2.317932e+06
  -1.200566e+05   1.270389e+06
   1.506289e+06   1.693129e+06
   1.812685e+06   3.156370e+06
  -7.102589e+05   3.635055e+06
  -4.419048e+06   1.899661e+06
  -5.786483e+06  -1.019373e+06
  -3.111870e+06  -2.858009e+06
   1.272013e+06  -2.340525e+06
   3.203237e+06  -2.085973e+05
   1.154170e+06   1.628555e+06
  -2.230679e+06   1.637017e+06
  -3.319715e+06  -2.731973e+05
  -1.445137e+06  -2.574401e+06
   9.596553e+05  -3.152190e+06
   1.569550e+06  -1.299253e+06
   4.942956e+05   1.159766e+06
  -5.445664e+05   1.518837e+06
  -3.706551e+05  -6.211921e+05
   7.419893e+05  -2.569844e+06
   1.688231e+06  -1.702814e+06
   1.497286e+06   1.157849e+06
   4.498294e+04   2.608913e+06
  -1.609504e+06   8.386084e+05
  -1.787247e+06  -2.182273e+06
   2.236540e+05  -3.106873e+06
   2.987977e+06  -9.815249e+05
   3.888521e+06   2.055962e+06
   1.732475e+06   3.329262e+06
  -1.772972e+06   2.112670e+06
  -3.546026e+06  -2.114007e+05
  -2.191209e+06  -1.701276e+06
   6.752715e+05  -1.420220e+06
   2.214238e+06  -1.370320e+03
   1.272822e+06   1.031787e+06
  -6.596808e+05   7.096563e+05
  -1.297686e+06  -4.559270e+05
  -8.079840e+04  -1.087898e+06
   1.340489e+06  -4.746646e+05
   1.079731e+06   7.102698e+05
  -7.836931e+05   1.192298e+06
  -2.211618e+06   3.429549e+05
  -1.407558e+06  -1.332467e+06
   1.220402e+06  -2.596913e+06
   3.466612e+06  -2.310560e+06
   3.580994e+06  -3.172661e+05
   1.869389e+06   2.188114e+06
   4.549354e+04   3.491334e+06
  -6.816813e+05   2.952462e+06
  -5.978751e+05   1.614668e+06
  -7.194672e+05   8.891618e+05
  -1.456947e+06   8.464686e+05
  -2.214898e+06   3.564202e+05
  -2.111587e+06  -1.087828e+06
  -8.840275e+05  -2.359379e+06
   8.189674e+05  -1.944391e+06
   1.850610e+06   1.238290e+05
   1.383236e+06   2.090777e+06
  -3.553828e+05   2.255017e+06
  -2.070904e+06   6.036268e+05
  -2.407239e+06  -1.375723e+06
  -1.208042e+06  -2.243570e+06
   3.293915e+05  -1.814161e+06
   9.624247e+05  -9.876548e+05
   7.676670e+05  -6.394349e+05
   9.028004e+05  -7.594058e+05
   1.976838e+06  -6.083178e+05
   3.027269e+06   3.865819e+05
   2.477659e+06   1.933365e+06
   5.901985e+04   3.025371e+06
  -2.570929e+06   2.762583e+06
  -3.343723e+06   1.138597e+06
  -1.835261e+06  -8.265801e+05
   3.504241e+05  -1.784599e+06
   1.237212e+06  -1.172889e+06
   3.715107e+05   1.995601e+05
  -9.748340e+05   8.604405e+05
  -1.314044e+06   1.995121e+05
  -4.395046e+05  -8.316143e+05
   5.706207e+05  -8.383007e+05
   6.068343e+05   2.524043e+05
  -3.745036e+05   9.683149e+05
  -1.384067e+06   4.133266e+04
  -1.323701e+06  -1.936745e+06
   7.627526e+04  -3.004053e+06
   1.980755e+06  -1.930404e+06
   3.014599e+06   4.885816e+05
   2.345338e+06   2.304896e+06
   4.708067e+05   2.339391e+06
  -1.117256e+06   1.104050e+06
  -1.290974e+06   1.528640e+04
  -3.744907e+05  -5.327879e+04
   2.677859e+05   5.623822e+05
  -2.192996e+05   8.881294e+05
  -1.224219e+06   3.938512e+05
  -1.423299e+06  -5.006570e+05
  -3.864600e+05  -9.253296e+05
   8.339958e+05  -4.866214e+05
   8.371849e+05   3.329039e+05
  -5.274887e+05   6.568599e+05
  -1.884401e+06   5.079615e+04
  -1.720549e+06  -1.072145e+06
   2.247423e+04  -1.786207e+06
   1.840756e+06  -1.429063e+06
   2.162012e+06  -2.106293e+05
   8.783182e+05   8.856094e+05
  -6.432551e+05   9.560248e+05
  -9.899451e+05   7.841914e+04
  -3.377767e+04  -7.103244e+05
   1.116283e+06  -4.893575e+05
   1.306939e+06   5.317960e+05
   4.034402e+05   1.247680e+06
  -7.063488e+05   9.132126e+05
  -1.017289e+06  -3.671535e+04
  -3.504329e+05  -5.313333e+05
   4.855339e+05  -7.448053e+04
   4.835954e+05   7.645148e+05
  -5.073972e+05   1.014066e+06
  -1.532584e+06   2.906498e+05
  -1.469119e+06  -8.726716e+05
  -2.385063e+05  -1.544757e+06
   1.059206e+06  -1.209601e+06
   1.291921e+06  -1.923227e+05
   4.467961e+05   6.378448e+05
  -4.739909e+05   6.534513e+05
  -5.905235e+05   3.713883e+04
   7.483716e+03  -4.567698e+05
   5.261505e+05  -3.354978e+05
   3.895529e+05   1.101433e+05
  -1.884794e+05   1.942693e+05
  -4.699258e+05  -3.123896e+05
   3.343994e+04  -8.579371e+05
   1.010078e+06  -6.851265e+05
   1.561712e+06   3.340797e+05
   1.049135e+06   1.494393e+06
  -2.334724e+05   1.877141e+06
  -1.300484e+06   1.176645e+06
  -1.435768e+06  -3.823040e+04
  -8.402413e+05  -8.542270e+05
  -2.750821e+05  -8.386354e+05
  -1.751830e+05  -3.743077e+05
  -2.637653e+05  -1.690652e+05
  -1.989751e+04  -4.453270e+05
   6.282000e+05  -6.967916e+05
   1.151760e+06  -3.117136e+05
   9.223490e+05   6.235930e+05
  -1.405752e+05   1.277539e+06
  -1.361907e+06   8.922457e+05
  -1.771048e+06  -3.938282e+05
  -9.167627e+05  -1.597907e+06
   6.666480e+05  -1.773847e+06
   1.849906e+06  -8.454753e+05
   1.868746e+06   3.918864e+05
   9.397466e+05   1.050125e+06
  -5.968258e+04   9.287824e+05
  -4.642176e+05   5.616967e+05
  -3.432559e+05   5.368683e+05
  -2.370634e+05   8.264578e+05
  -4.956855e+05   8.456425e+05
  -9.103908e+05   1.722629e+05
  -9.517622e+05  -8.767554e+05
  -3.516834e+05  -1.472631e+06
   5.383526e+05  -1.081640e+06
   1.001654e+06   7.015138e+02
   6.378139e+05   9.242634e+05
  -2.061917e+05   1.049025e+06
  -7.565663e+05   4.389758e+05
  -5.925935e+05  -3.181937e+05
  -4.559225e+04  -6.934306e+05
   2.252088e+05  -6.205072e+05
  -4.057472e+03  -4.041736e+05
  -2.782638e+05  -3.145086e+05
  -5.627862e+03  -3.116867e+05
   8.118295e+05  -1.557018e+05
   1.464043e+06   2.656799e+05
   1.206647e+06   7.642134e+05
   6.471656e+04   1.002110e+06
  -1.091905e+06   7.908275e+05
  -1.358037e+06   2.586147e+05
  -6.796146e+05  -2.316837e+05
   1.445751e+05  -3.502393e+05
   3.490132e+05  -8.198971e+04
  -4.001313e+04   2.188523e+05
  -4.037999e+05   1.491781e+05
  -3.368955e+05  -2.818679e+05
  -4.124346e+04  -5.928700e+05
   6.060843e+04  -3.736031e+05
  -1.268784e+05   1.524181e+05
  -3.217805e+05   3.165648e+05
  -2.229450e+05  -1.716765e+05
   2.054404e+05  -7.860183e+05
   7.107005e+05  -7.601790e+05
   8.915466e+05  -1.405415e+04
   4.736426e+05   7.233488e+05
  -3.483576e+05   7.396773e+05
  -8.828074e+05   9.931729e+04
  -5.215359e+05  -5.035868e+05
   5.286974e+05  -5.022320e+05
   1.276540e+06   5.623354e+04
   9.142735e+05   6.698241e+05
  -2.858482e+05   8.553816e+05
  -1.210470e+06   4.972401e+05
  -1.061251e+06  -9.702562e+04
  -1.515571e+05  -4.331320e+05
   4.958809e+05  -2.498143e+05
   2.489139e+05   1.953731e+05
  -5.213333e+05   3.193670e+05
  -8.911542e+05  -1.933022e+05
  -3.617281e+05  -9.753107e+05
   6.458823e+05  -1.239034e+06
   1.238996e+06  -5.429790e+05
   9.364665e+05   6.810372e+05
   7.151977e+04   1.427397e+06
  -6.293538e+05   1.045131e+06
  -7.406137e+05  -9.485989e+04
  -3.749487e+05  -9.364839e+05
   1.045247e+05  -8.104620e+05
   4.108429e+05  -9.147353e+04
   4.236657e+05   3.312592e+05
   2.046945e+05   1.431277e+05
   1.106887e+04  -1.009587e+05
   9.171919e+04   1.760779e+05
   3.201000e+05   7.446966e+05
   2.104905e+05   8.730923e+05
  -4.578758e+05   3.077714e+05
  -1.151430e+06  -4.206870e+05
  -1.063124e+06  -7.050240e+05
  -1.306965e+05  -5.320987e+05
   7.632930e+05  -2.807306e+05
   8.070049e+05  -1.350595e+05
   2.127310e+05   2.467866e+03
  -1.540135e+05   1.607908e+05
   5.683434e+04   2.124709e+05
   3.006709e+05   1.440755e+05
  -6.354451e+03   1.082743e+05
  -6.308349e+05   1.102008e+05
  -7.976089e+05  -8.407555e+04
  -1.577603e+05  -5.314692e+05
   7.989086e+05  -8.112807e+05
   1.281484e+06  -4.400675e+05
   9.479165e+05   4.500087e+05
   1.080486e+05   1.119321e+06
  -6.295628e+05   9.993110e+05
  -8.322038e+05   3.008489e+05
  -5.082111e+05  -2.659623e+05
  -4.460817e+04  -2.790018e+05
   1.396181e+05   1.490303e+04
  -3.522030e+04   7.766729e+04
  -2.635042e+05  -2.710904e+05
  -1.949070e+05  -6.390158e+05
   1.882460e+05  -4.966544e+05
   5.379879e+05   1.911152e+05
   4.680522e+05   8.332880e+05
  -6.375419e+04   7.898754e+05
  -6.483835e+05   6.277163e+04
  -7.330156e+05  -6.917588e+05
  -1.560703e+05  -8.534985e+05
   5.974144e+05  -4.206397e+05
   8.155057e+05   1.369456e+05
   3.321277e+05   4.339546e+05
  -2.441667e+05   4.270636e+05
  -2.340785e+05   2.507616e+05
   2.730218e+05   5.640190e+04
   5.261524e+05   1.645989e+04
   7.017398e+04   2.283663e+05
  -6.734960e+05   4.976780e+05
  -9.344850e+05   4.238159e+05
  -5.028323e+05  -1.053193e+05
   1.229942e+05  -6.358914e+05
   3.958232e+05  -6.060275e+05
   2.522041e+05  -4.830334e+04
  -2.797012e+04   4.060074e+05
  -2.206006e+05   2.794781e+05
  -2.664072e+05  -2.056390e+05
  -1.559814e+05  -4.623030e+05
   7.895336e+04  -2.598187e+05
   2.960107e+05   8.643728e+04
   3.312621e+05   1.883897e+05
   1.845910e+05   4.082034e+04
   1.529443e+04  -5.798737e+04
  -6.666122e+04   8.241214e+04
  -1.135705e+05   3.170769e+05
  -2.083890e+05   3.353996e+05
  -2.985649e+05   1.578927e+04
  -2.331059e+05  -4.006697e+05
   4.376278e+04  -5.151341e+05
   3.683152e+05  -1.839133e+05
   4.480373e+05   2.976964e+05
   1.272654e+05   4.850748e+05
  -3.890709e+05   2.467140e+05
  -6.339257e+05  -1.353443e+05
  -3.293858e+05  -3.180489e+05
   2.455743e+05  -2.395264e+05
   4.839250e+05  -7.659417e+04
   1.368719e+05   8.167781e+03
  -3.499817e+05  -2.792456e+04
  -3.407737e+05  -1.545248e+05
   2.138297e+05  -2.632766e+05
   6.988184e+05  -1.634834e+05
