
 $NMID
 id='ANONYMOUS ', fmtdat='(2E16.6)'
 volume=1.0
 tramp=1.0
 $END
   7.635622e+06  -3.451558e+06
   5.867605e+06   4.084470e+06
  -2.279700e+05   5.987179e+06
  -3.529160e+06   1.993563e+06
  -1.894618e+06  -1.849212e+06
   8.854088e+05  -1.757620e+06
   1.418608e+06   3.760553e+05
   2.296655e+05   1.405934e+06
  -8.045131e+05   9.253656e+05
  -1.186369e+06   1.121649e+05
  -1.112784e+06  -5.387063e+05
  -4.342180e+05  -9.541145e+05
   5.479351e+05  -7.397686e+05
   7.882126e+05   3.522851e+04
  -2.580252e+04   4.273738e+05
  -8.180681e+05  -1.052162e+05
  -6.381802e+05  -8.990324e+05
   1.854677e+05  -1.153161e+06
   9.297215e+05  -8.735750e+05
   1.408985e+06  -2.707692e+05
   1.451919e+06   6.988267e+05
   6.237167e+05   1.576835e+06
  -7.358020e+05   1.333703e+06
  -1.263764e+06  -7.180350e+04
  -3.315248e+05  -1.059552e+06
   8.084427e+05  -3.922496e+05
   6.431089e+05   1.011935e+06
  -5.470736e+05   1.324592e+06
  -1.290799e+06   2.443785e+05
  -9.703521e+05  -9.457207e+05
  -1.670533e+05  -1.283989e+06
   5.419011e+05  -9.065417e+05
   9.617604e+05  -2.196487e+05
   7.936315e+05   4.896481e+05
  -1.843767e+04   7.080608e+05
  -6.195763e+05   1.159997e+05
  -1.244884e+05  -5.934446e+05
   8.819950e+05  -3.824153e+05
   9.531480e+05   5.475485e+05
  -3.917559e+04   9.299343e+05
  -6.631445e+05   3.779514e+05
  -1.900157e+05  -3.554626e+04
   2.800865e+05   4.133201e+05
  -3.302523e+05   8.841396e+05
  -1.300378e+06   3.450512e+05
  -1.238377e+06  -7.693133e+05
  -1.624342e+05  -1.237856e+06
   6.866973e+05  -7.769896e+05
   6.461942e+05  -1.289138e+05
   1.778585e+05   1.657399e+05
  -1.362629e+05   1.690726e+05
  -1.740992e+05  -1.536814e+04
   5.499174e+04  -3.278405e+05
   4.645809e+05  -4.126678e+05
   6.356545e+05   4.130636e+03
   2.551437e+05   4.820219e+05
  -2.241563e+05   3.804330e+05
  -1.098799e+05  -6.685383e+04
   3.817211e+05  -2.556016e+04
   3.461397e+05   5.731732e+05
  -3.723686e+05   8.468746e+05
  -8.830154e+05   3.397457e+05
  -6.444319e+05  -3.104520e+05
  -2.349936e+05  -4.640257e+05
  -2.550335e+05  -3.969558e+05
  -3.210398e+05  -5.609825e+05
   1.247760e+05  -6.620103e+05
   6.759524e+05  -2.457235e+05
   5.423133e+05   3.054818e+05
  -1.038763e+05   2.312917e+05
  -2.998468e+05  -3.797441e+05
   2.725299e+05  -6.417182e+05
   8.543357e+05  -1.300842e+05
   7.220713e+05   6.048217e+05
   5.898879e+04   8.665027e+05
  -4.846404e+05   5.724388e+05
  -5.665383e+05   6.085229e+04
  -2.599504e+05  -3.426837e+05
   1.749550e+05  -3.914656e+05
   3.816844e+05  -8.749871e+03
   1.173726e+05   4.647780e+05
  -3.946728e+05   4.859810e+05
  -5.999116e+05  -8.997273e+03
  -2.866261e+05  -4.575607e+05
   1.430200e+05  -4.051168e+05
   2.388933e+05  -6.646282e+04
   4.595273e+04   7.492721e+04
  -1.107652e+05  -7.877552e+04
  -8.640987e+04  -2.654750e+05
   7.643715e+04  -2.918250e+05
   3.253063e+05  -1.408824e+05
   5.093129e+05   1.487415e+05
   3.641501e+05   4.234297e+05
  -1.035646e+05   4.115230e+05
  -4.347121e+05   7.186729e+04
  -2.646970e+05  -2.154890e+05
   1.296195e+05  -1.110401e+05
   2.068057e+05   1.847706e+05
  -6.444126e+04   2.303679e+05
  -2.399805e+05   1.614559e+03
  -1.269654e+05  -1.472872e+05
   9.531925e+03  -9.616268e+04
  -4.138421e+03  -7.274202e+04
   1.232216e+04  -1.397285e+05
   1.522496e+05  -5.368937e+04
   1.672048e+05   2.206705e+05
  -8.641970e+04   3.091039e+05
  -3.079814e+05   1.150222e+03
  -1.820205e+05  -3.447525e+05
   1.204579e+05  -2.999205e+05
   2.139752e+05   8.847336e+03
   7.838912e+04   1.407866e+05
   6.093132e+03   1.525582e+04
   8.752444e+04  -5.582136e+04
   1.181609e+05   7.611812e+04
  -6.832434e+03   1.994025e+05
  -1.375374e+05   1.247311e+05
  -1.446914e+05  -5.752031e+04
  -7.440541e+04  -1.752702e+05
   2.138345e+04  -1.778147e+05
   1.559492e+05  -7.007894e+04
   2.464147e+05   1.284447e+05
   1.328700e+05   2.803146e+05
  -1.371773e+05   2.028919e+05
  -2.713668e+05  -5.269229e+04
  -1.190039e+05  -1.899749e+05
   9.711855e+04  -5.366867e+04
   9.534030e+04   1.477954e+05
  -8.017424e+04   1.420385e+05
  -1.720814e+05  -4.287891e+04
  -8.602237e+04  -1.734974e+05
   4.239791e+04  -1.437106e+05
   8.649671e+04  -3.874386e+04
   4.933914e+04   4.345996e+04
  -2.095011e+04   6.232735e+04
  -7.453791e+04  -1.124492e+04
  -3.599016e+04  -1.433995e+05
   1.148224e+05  -1.826696e+05
   2.442475e+05  -2.229460e+04
   1.876326e+05   2.049822e+05
  -2.165280e+04   2.550740e+05
  -1.732957e+05   9.118918e+04
  -1.427881e+05  -7.934622e+04
  -1.339146e+04  -9.305293e+04
   7.615429e+04   7.605232e+02
   7.841251e+04   8.185714e+04
   7.443542e+03   1.096020e+05
  -1.046080e+05   7.988468e+04
  -1.733140e+05  -1.763723e+04
  -1.093351e+05  -1.215499e+05
   3.516788e+04  -1.097400e+05
   8.204734e+04   1.886124e+04
  -3.387156e+04   8.896906e+04
  -1.496163e+05  -1.995056e+04
  -9.221143e+04  -1.882749e+05
   8.512070e+04  -2.189315e+05
   1.972568e+05  -9.947924e+04
   1.775752e+05   2.806853e+04
   1.063399e+05   8.880802e+04
   4.747266e+04   1.189398e+05
  -2.386918e+03   1.315273e+05
  -3.102159e+04   9.584933e+04
  -1.741287e+04   4.278434e+04
  -1.531094e+04   4.136570e+04
  -9.312232e+04   5.776487e+04
  -1.805798e+05  -1.486749e+04
  -1.198148e+05  -1.516786e+05
   8.832792e+04  -1.722176e+05
   2.272032e+05   3.594514e+03
   1.323978e+05   2.034483e+05
  -9.230137e+04   2.111933e+05
  -2.207264e+05   3.679071e+04
  -1.795533e+05  -1.315235e+05
  -7.186929e+04  -1.769201e+05
   8.785499e+03  -1.382415e+05
   6.354152e+04  -8.660522e+04
   1.099946e+05  -4.177270e+04
   1.334235e+05  -8.589051e+03
   1.283565e+05   6.797387e+03
   1.073575e+05   3.211249e+04
   5.738092e+04   9.888756e+04
  -4.160400e+04   1.629450e+05
  -1.440447e+05   1.328670e+05
  -1.574610e+05   2.373089e+03
  -5.944404e+04  -1.151742e+05
   6.090846e+04  -1.191862e+05
   1.053660e+05  -3.482867e+04
   6.471206e+04   3.984972e+04
  -4.834602e+03   5.259854e+04
  -5.310149e+04   2.658305e+04
  -5.789128e+04   8.629211e+03
  -2.361115e+04   2.306497e+04
   8.194905e+03   5.169838e+04
  -1.307947e+04   3.880121e+04
  -7.393056e+04  -5.090054e+04
  -8.915755e+04  -1.610815e+05
  -7.075609e+03  -1.770515e+05
   1.096051e+05  -6.312084e+04
   1.524304e+05   7.726295e+04
   9.425330e+04   1.212036e+05
   5.111589e+03   6.642827e+04
  -4.044127e+04   2.567820e+03
  -2.845686e+04  -1.742029e+04
   8.596500e+03  -1.028602e+04
   2.752975e+04   6.066825e+03
   2.906020e+03   3.374262e+04
  -4.211196e+04   5.042290e+04
  -4.383722e+04   2.240703e+04
   2.167145e+04  -2.318564e+04
   8.017849e+04  -1.304936e+04
   3.729084e+04   5.603286e+04
  -8.581810e+04   8.501035e+04
  -1.574960e+05   5.955298e+03
  -9.514654e+04  -1.066125e+05
   3.555137e+04  -1.219966e+05
   1.092964e+05  -2.179034e+04
   8.018313e+04   8.103759e+04
  -2.715849e+03   8.209590e+04
  -7.174273e+04  -8.641393e+03
  -8.384042e+04  -1.004597e+05
  -2.383327e+04  -1.155077e+05
   7.428114e+04  -4.384115e+04
   1.254126e+05   5.494973e+04
   7.355164e+04   9.522044e+04
  -2.539847e+04   4.327479e+04
  -5.505242e+04  -3.761247e+04
   1.584415e+04  -4.837554e+04
   8.750258e+04   3.096490e+04
   5.198586e+04   1.159250e+05
  -7.401061e+04   1.162351e+05
  -1.686877e+05   2.979839e+04
  -1.379231e+05  -7.352836e+04
  -5.398887e+03  -1.271712e+05
   1.173436e+05  -1.054844e+05
   1.336434e+05  -2.195181e+04
   4.425659e+04   7.148374e+04
  -5.943361e+04   1.036717e+05
  -8.910339e+04   4.733683e+04
  -4.626108e+04  -3.906160e+04
  -1.991003e+03  -6.902997e+04
   1.885050e+03  -3.119744e+04
  -4.223812e+03   2.438281e+01
   1.880651e+04  -3.154590e+04
   5.602896e+04  -8.353976e+04
   6.922785e+04  -6.784505e+04
   5.638021e+04   3.252412e+04
   3.882676e+04   1.330000e+05
   1.286031e+04   1.399277e+05
  -3.570612e+04   5.292625e+04
  -7.975326e+04  -3.975257e+04
  -7.018340e+04  -6.087147e+04
  -1.385286e+04  -2.189027e+04
   2.167392e+04   6.207699e+03
   2.919731e+03  -1.337540e+04
  -1.833547e+04  -4.156003e+04
   1.439167e+04  -2.146714e+04
   6.741147e+04   4.300971e+04
   5.435422e+04   8.854906e+04
  -4.283123e+04   6.519947e+04
  -1.381618e+05  -1.384330e+04
  -1.359315e+05  -9.374227e+04
  -3.140256e+04  -1.265937e+05
   9.192702e+04  -9.568239e+04
   1.446363e+05  -1.888172e+04
   1.037062e+05   5.531681e+04
   2.133154e+04   7.547394e+04
  -2.799525e+04   3.603454e+04
  -1.840308e+04  -8.766350e+03
   6.517348e+03  -2.064794e+03
  -7.713998e+03   4.598465e+04
  -5.390844e+04   6.633280e+04
  -7.092829e+04   1.389817e+04
  -2.410030e+04  -7.367888e+04
   4.889804e+04  -1.108765e+05
   8.330475e+04  -5.298270e+04
   5.551941e+04   5.520252e+04
  -8.061520e+03   1.182394e+05
  -6.673647e+04   7.986864e+04
  -8.752468e+04  -2.139682e+04
  -5.267031e+04  -9.021085e+04
   1.993876e+04  -7.333679e+04
   7.071986e+04  -1.233918e+04
   5.010004e+04   1.342066e+04
  -1.569410e+04  -1.596938e+04
  -4.193198e+04  -4.576506e+04
   1.405103e+04  -2.586271e+04
   9.338150e+04   2.742852e+04
   1.015618e+05   6.272641e+04
   2.101800e+04   5.863390e+04
  -6.939905e+04   3.232798e+04
  -8.620884e+04   2.576838e+03
  -2.850147e+04  -2.280871e+04
   3.448700e+04  -2.978112e+04
   4.453087e+04  -4.203053e+03
   7.107552e+03   3.690326e+04
  -3.012045e+04   4.930832e+04
  -3.405440e+04   1.381744e+04
  -1.431035e+04  -3.415063e+04
  -1.253825e+03  -4.590555e+04
  -6.542517e+03  -1.856675e+04
  -1.197024e+04   6.776664e+03
   3.666299e+03   9.637083e+02
   3.432882e+04  -1.868779e+04
   5.018276e+04  -1.453378e+04
   3.032071e+04   2.191208e+04
  -1.359485e+04   5.527230e+04
  -4.775333e+04   4.248436e+04
  -4.642459e+04  -1.609263e+04
  -1.138511e+04  -6.626480e+04
   3.215299e+04  -5.217138e+04
   5.384008e+04   1.788956e+04
   3.762548e+04   7.243754e+04
  -6.041787e+03   5.562820e+04
  -4.380240e+04  -7.157655e+03
  -4.392761e+04  -4.140325e+04
  -7.844053e+03  -1.400208e+04
   2.427776e+04   3.281118e+04
   1.165983e+04   4.019666e+04
  -3.718325e+04   1.721531e+02
  -6.334913e+04  -4.736675e+04
