
 $NMID
 id='ANONYMOUS ', fmtdat='(2E16.6)'
 volume=1.0
 tramp=1.0
 $END
  -5.926641e+07   1.825962e+06
  -3.660469e+07  -3.588549e+07
   6.861959e+06  -4.041580e+07
   2.862496e+07  -1.599602e+07
   1.740612e+07   7.140753e+06
  -3.293882e+06   9.887354e+06
  -1.027041e+07  -1.149413e+06
  -3.048040e+06  -1.015995e+07
   6.278250e+06  -9.790014e+06
   1.001991e+07  -2.264229e+06
   7.516080e+06   6.231529e+06
   1.178055e+06   8.918592e+06
  -4.051745e+06   3.069148e+06
  -2.925531e+06  -5.444888e+06
   3.723623e+06  -6.822655e+06
   8.256857e+06   1.228616e+06
   4.918463e+06   1.055696e+07
  -3.643621e+06   1.246420e+07
  -1.043921e+07   6.527034e+06
  -1.146562e+07  -1.767851e+06
  -7.301054e+06  -7.670646e+06
  -1.061078e+06  -9.190326e+06
   2.977997e+06  -6.568816e+06
   2.083747e+06  -2.826638e+06
  -1.106734e+06  -2.001378e+06
  -4.967278e+05  -4.187759e+06
   5.301973e+06  -4.797222e+06
   9.952010e+06  -9.867280e+05
   7.533927e+06   3.968892e+06
   5.966191e+05   5.292923e+06
  -3.644095e+06   2.939984e+06
  -2.599235e+06   2.717422e+05
   3.976606e+05  -9.052475e+05
   2.158352e+06  -6.592211e+05
   2.331013e+06   1.252721e+06
   9.943755e+05   3.994574e+06
  -1.700366e+06   4.154922e+06
  -3.503564e+06   9.791638e+04
  -2.044903e+06  -3.769809e+06
   7.573408e+05  -2.178384e+06
   5.388898e+05   2.429538e+06
  -2.441077e+06   2.433216e+06
  -2.635256e+06  -3.279647e+06
   2.433693e+06  -6.490864e+06
   7.360931e+06  -1.240580e+06
   5.612379e+06   7.152823e+06
  -1.785407e+06   9.024498e+06
  -7.712303e+06   2.771083e+06
  -7.335831e+06  -4.412238e+06
  -2.048266e+06  -6.184011e+06
   3.516618e+06  -2.877004e+06
   5.442917e+06   1.452573e+06
   2.568877e+06   3.553518e+06
  -2.471773e+06   2.350941e+06
  -4.747684e+06  -8.380267e+05
  -2.110954e+06  -2.792403e+06
   1.747890e+06  -1.487921e+06
   1.815318e+06   1.007679e+06
  -1.393761e+06   9.436622e+05
  -2.619583e+06  -1.850967e+06
   6.437245e+05  -3.673072e+06
   4.880752e+06  -2.099801e+06
   5.600130e+06   1.329567e+06
   2.518592e+06   4.123588e+06
  -1.688171e+06   5.552572e+06
  -4.988883e+06   5.227537e+06
  -6.365011e+06   2.072870e+06
  -4.923463e+06  -3.094128e+06
  -1.232258e+06  -6.377136e+06
   1.800702e+06  -4.994259e+06
   1.826441e+06  -1.252426e+06
   1.329099e+05   3.409316e+05
  -1.867849e+05  -9.915292e+05
   1.488193e+06  -1.971334e+06
   2.870564e+06  -4.581149e+05
   2.210192e+06   1.821667e+06
   1.896042e+05   2.173026e+06
  -1.520973e+06   3.052459e+05
  -1.791183e+06  -2.010571e+06
  -1.474959e+05  -3.003778e+06
   2.775197e+06  -1.853283e+06
   4.706553e+06   1.022528e+06
   3.533272e+06   3.795486e+06
   1.263573e+05   4.452661e+06
  -2.313124e+06   2.948869e+06
  -2.334017e+06   1.252547e+06
  -1.897397e+06   7.342426e+05
  -3.017025e+06   5.637138e+05
  -4.502457e+06  -6.565477e+05
  -3.679382e+06  -2.736975e+06
  -2.747943e+05  -4.236652e+06
   3.147105e+06  -4.124867e+06
   4.197835e+06  -2.363743e+06
   2.762752e+06   2.893039e+05
   4.170092e+05   2.278351e+06
  -1.023581e+06   2.061086e+06
  -5.881706e+05   7.395190e+03
   1.053163e+06  -1.396230e+06
   1.955548e+06  -4.916824e+05
   1.018237e+06   1.211802e+06
  -4.669297e+05   1.169828e+06
  -4.220851e+05  -3.791028e+05
   1.105920e+06  -7.009443e+05
   1.937124e+06   1.361314e+06
   6.877747e+05   3.623203e+06
  -1.631536e+06   3.506566e+06
  -3.222580e+06   1.131823e+06
  -3.393058e+06  -1.438519e+06
  -2.366125e+06  -2.739533e+06
  -5.385029e+05  -2.630063e+06
   1.212543e+06  -1.548365e+06
   1.609820e+06  -3.054716e+05
   5.112901e+05   2.897034e+04
  -3.934687e+05  -7.607728e+05
   3.907871e+05  -1.405557e+06
   1.967302e+06  -6.633928e+05
   2.136033e+06   8.627816e+05
   4.367889e+05   1.458130e+06
  -1.186072e+06   6.194774e+05
  -9.045081e+05  -4.348591e+05
   8.706183e+05  -5.201722e+05
   2.220972e+06   3.032283e+05
   1.784831e+06   1.336575e+06
  -2.159792e+05   1.998159e+06
  -2.314452e+06   1.753137e+06
  -2.843788e+06   3.697018e+05
  -1.303678e+06  -1.274517e+06
   9.040336e+05  -1.602495e+06
   1.627239e+06  -2.571777e+05
   2.600846e+05   1.119063e+06
  -1.541804e+06   8.173298e+05
  -1.795553e+06  -7.578189e+05
  -3.828568e+05  -1.692411e+06
   1.107320e+06  -1.019358e+06
   1.295248e+06   3.046420e+05
   2.584575e+05   8.000827e+05
  -8.279669e+05   7.315733e+04
  -7.952658e+05  -1.065860e+06
   5.429998e+05  -1.490010e+06
   2.051995e+06  -6.340526e+05
   2.141729e+06   1.011388e+06
   4.674008e+05   2.133428e+06
  -1.440211e+06   1.746522e+06
  -1.780072e+06   2.687843e+05
  -5.407991e+05  -8.810156e+05
   6.530508e+05  -8.436399e+05
   6.328391e+05  -1.074850e+05
  -1.209237e+05   3.413931e+05
  -4.728469e+05   2.007257e+05
  -8.070446e+04  -5.203860e+04
   4.869716e+05   1.092665e+05
   5.385521e+05   7.111893e+05
  -2.015942e+05   1.236358e+06
  -1.408159e+06   9.601774e+05
  -2.162133e+06  -3.655847e+05
  -1.577638e+06  -1.960763e+06
   1.405363e+05  -2.501063e+06
   1.612428e+06  -1.493349e+06
   1.726343e+06   8.604901e+04
   8.893170e+05   8.742175e+05
   3.479796e+05   6.160816e+05
   5.284938e+05   1.869567e+05
   6.843151e+05   3.201910e+05
   1.177150e+05   8.089151e+05
  -8.886544e+05   9.518310e+05
  -1.479357e+06   3.620047e+05
  -1.083887e+06  -7.082978e+05
   2.260705e+05  -1.487977e+06
   1.738924e+06  -1.141500e+06
   2.323029e+06   4.310879e+05
   1.221133e+06   2.130970e+06
  -9.871566e+05   2.470001e+06
  -2.602692e+06   1.128115e+06
  -2.430749e+06  -6.247834e+05
  -9.951423e+05  -1.343830e+06
   1.955900e+05  -9.484407e+05
   3.588817e+05  -5.143104e+05
   1.641763e+04  -7.893775e+05
   4.589096e+04  -1.379721e+06
   6.567847e+05  -1.370031e+06
   1.336962e+06  -3.773790e+05
   1.423399e+06   1.066253e+06
   6.435307e+05   1.933121e+06
  -5.870556e+05   1.504036e+06
  -1.321099e+06   3.729495e+04
  -8.714118e+05  -1.306201e+06
   3.751620e+05  -1.451458e+06
   1.203514e+06  -4.300396e+05
   8.560326e+05   7.285773e+05
  -1.195538e+05   1.129008e+06
  -5.575246e+05   8.138585e+05
  -8.327854e+04   4.167115e+05
   4.666951e+05   3.270871e+05
   7.880240e+04   3.927408e+05
  -1.189956e+06   2.487095e+05
  -2.154968e+06  -2.841329e+05
  -1.701283e+06  -1.025927e+06
   1.355398e+04  -1.491536e+06
   1.625138e+06  -1.232765e+06
   1.885167e+06  -3.335994e+05
   8.638110e+05   5.061858e+05
  -2.635319e+05   6.070057e+05
  -5.325474e+05   3.930201e+04
  -5.149579e+04  -4.539882e+05
   4.412260e+05  -2.913405e+05
   5.145955e+05   3.361679e+05
   3.113544e+05   7.364911e+05
   1.378599e+05   4.939472e+05
   1.342640e+05  -8.783270e+04
   2.578992e+05  -2.939676e+05
   2.859057e+05   2.347126e+05
  -1.011149e+05   1.018167e+06
  -8.934764e+05   1.134386e+06
  -1.428753e+06   2.378795e+05
  -9.392177e+05  -9.177351e+05
   3.915123e+05  -1.212807e+06
   1.306804e+06  -4.143344e+05
   7.844714e+05   5.576977e+05
  -7.072205e+05   6.891310e+05
  -1.630279e+06  -5.438255e+04
  -1.034582e+06  -8.570074e+05
   4.863309e+05  -1.013428e+06
   1.517123e+06  -5.120275e+05
   1.252215e+06   1.689574e+05
   1.441896e+05   5.171435e+05
  -6.608265e+05   2.875767e+05
  -4.137926e+05  -2.987151e+05
   5.731661e+05  -5.761662e+05
   1.230179e+06   1.702344e+04
   7.675935e+05   1.186048e+06
  -5.110569e+05   1.798831e+06
  -1.484946e+06   9.982486e+05
  -1.331903e+06  -7.198409e+05
  -2.872500e+05  -1.835510e+06
   7.096941e+05  -1.349150e+06
   9.527352e+05   1.647736e+05
   4.696302e+05   1.212196e+06
  -2.137362e+05   9.876388e+05
  -5.824791e+05   9.477287e+04
  -4.753123e+05  -3.633215e+05
  -1.520466e+05  -1.241228e+05
  -5.368500e+04   9.208281e+04
  -3.305263e+05  -3.140620e+05
  -5.758634e+05  -9.846194e+05
  -2.130629e+05  -1.094827e+06
   7.525920e+05  -4.258374e+05
   1.535660e+06   4.182023e+05
   1.327062e+06   8.075830e+05
   2.145564e+05   7.189778e+05
  -8.393674e+05   4.745387e+05
  -9.973977e+05   2.201692e+05
  -3.936114e+05  -5.816000e+04
   1.307244e+05  -2.435336e+05
   5.616221e+04  -1.944248e+05
  -2.467056e+05  -6.429358e+04
  -7.045898e+04  -1.348167e+05
   6.391657e+05  -2.906034e+05
   1.087428e+06  -4.537558e+04
   5.279574e+05   7.079032e+05
  -7.853879e+05   1.281586e+06
  -1.748583e+06   8.838234e+05
  -1.525290e+06  -3.655845e+05
  -3.655494e+05  -1.436978e+06
   7.396305e+05  -1.469066e+06
   1.063809e+06  -6.298680e+05
   6.856973e+05   1.887576e+05
   1.702557e+05   3.665232e+05
  -4.136376e+04   9.681842e+04
   9.179205e+04   4.693888e+03
   3.097063e+05   3.749247e+05
   2.792994e+05   8.219763e+05
  -1.454340e+05   7.194074e+05
  -7.056713e+05  -6.538822e+04
  -8.370139e+05  -9.245078e+05
  -2.129210e+05  -1.069884e+06
   7.478522e+05  -3.336566e+05
   1.123922e+06   6.598959e+05
   4.408983e+05   1.114343e+06
  -7.002237e+05   7.661193e+05
  -1.180844e+06  -1.121861e+04
  -5.992995e+05  -6.342439e+05
   2.688750e+05  -7.495302e+05
   4.048092e+05  -4.040620e+05
  -2.247419e+05   2.041168e+04
  -6.619872e+05   8.046864e+04
  -1.786709e+05  -3.193630e+05
   8.188215e+05  -7.400554e+05
   1.301768e+06  -5.943892e+05
   8.292987e+05   1.751725e+05
  -5.290956e+04   9.187452e+05
  -5.589275e+05   9.255244e+05
  -4.696481e+05   2.110172e+05
  -1.009338e+05  -4.808592e+05
   2.201951e+05  -4.830697e+05
   3.737704e+05   1.020991e+05
   2.988832e+05   5.834049e+05
  -2.626394e+04   4.750089e+05
  -4.099291e+05  -1.123971e+04
  -5.161384e+05  -2.883488e+05
  -2.545013e+05  -1.068831e+05
   5.702745e+04   1.802124e+05
   8.302922e+04   9.244448e+04
  -7.840085e+04  -3.491199e+05
  -3.828612e+04  -6.143199e+05
   3.039131e+05  -3.050683e+05
   5.424945e+05   3.331190e+05
   2.564300e+05   6.627814e+05
  -3.903320e+05   3.662063e+05
  -7.276550e+05  -2.329069e+05
  -3.128664e+05  -5.680896e+05
   5.157555e+05  -4.104025e+05
   9.392804e+05   1.609891e+04
   5.270979e+05   3.644137e+05
  -2.841194e+05   4.560060e+05
  -6.609614e+05   3.022054e+05
  -2.855145e+05   3.605650e+04
   3.198072e+05  -1.213417e+05
   4.146867e+05   3.267865e+03
  -1.246088e+05   2.912074e+05
  -7.040023e+05   3.296004e+05
