
 $NMID
 id='ANONYMOUS ', fmtdat='(2E16.6)'
 volume=1.0
 tramp=1.0
 $END
  -3.588087e+07   1.009150e+06
  -2.350630e+07  -1.858746e+07
   1.427494e+06  -2.350677e+07
   1.609463e+07  -1.305969e+07
   1.200582e+07   7.709722e+05
  -2.776461e+05   6.274685e+06
  -6.828474e+06   1.700389e+06
  -4.070620e+06  -5.874744e+06
   2.448583e+06  -8.300490e+06
   6.420546e+06  -3.261635e+06
   5.379248e+06   4.215864e+06
   8.347180e+05   6.658948e+06
  -3.041851e+06   1.740148e+06
  -2.458711e+06  -5.008491e+06
   2.071313e+06  -6.079893e+06
   5.619232e+06  -1.911154e+05
   3.987679e+06   6.740799e+06
  -1.724882e+06   8.429214e+06
  -6.588987e+06   4.257710e+06
  -7.016928e+06  -1.554309e+06
  -3.655169e+06  -4.837856e+06
  -2.502009e+04  -4.639724e+06
   8.093039e+05  -2.912094e+06
  -1.056972e+06  -2.262391e+06
  -2.268585e+06  -3.481434e+06
   3.473642e+05  -4.673949e+06
   5.573160e+06  -3.339543e+06
   8.247159e+06   4.243488e+05
   5.093034e+06   3.628536e+06
  -9.852142e+05   3.682435e+06
  -4.047311e+06   1.103361e+06
  -1.877411e+06  -1.468202e+06
   2.176352e+06  -1.962080e+06
   3.801534e+06  -1.171349e+05
   2.179278e+06   2.709808e+06
  -4.566874e+05   4.130597e+06
  -1.862429e+06   2.428174e+06
  -1.436792e+06  -1.063557e+06
  -6.995647e+04  -2.475267e+06
   6.086550e+05   2.466867e+04
  -4.251116e+05   3.176353e+06
  -2.165379e+06   2.390973e+06
  -2.181575e+06  -1.872713e+06
   4.594683e+05  -4.185770e+06
   3.418395e+06  -1.194816e+06
   3.282487e+06   3.892539e+06
  -5.354088e+05   5.367557e+06
  -4.855648e+06   1.825665e+06
  -5.789868e+06  -2.928611e+06
  -2.401467e+06  -4.727851e+06
   2.500393e+06  -2.880192e+06
   4.843476e+06   3.775499e+05
   2.872945e+06   2.409557e+06
  -1.208386e+06   1.975874e+06
  -3.346375e+06  -1.076670e+05
  -1.808122e+06  -1.625950e+06
   1.055788e+06  -1.080921e+06
   1.736506e+06   6.232447e+05
  -2.226811e+05   1.264211e+06
  -1.920129e+06   4.762211e+04
  -8.855395e+05  -1.553750e+06
   1.961783e+06  -1.719319e+06
   3.560115e+06  -1.146490e+05
   2.089172e+06   2.272751e+06
  -1.458609e+06   4.041500e+06
  -4.512432e+06   3.823449e+06
  -5.109813e+06   1.067378e+06
  -3.224285e+06  -2.814413e+06
  -5.724784e+05  -5.028200e+06
   9.377163e+05  -4.180888e+06
   9.244697e+05  -1.925358e+06
   6.540545e+05  -8.450264e+05
   1.321637e+06  -1.198116e+06
   2.541992e+06  -9.977847e+05
   2.875715e+06   8.238921e+05
   1.566993e+06   2.719159e+06
  -6.390798e+05   2.493555e+06
  -2.195010e+06   5.834613e+04
  -1.920302e+06  -2.470025e+06
   1.794067e+05  -2.980457e+06
   2.692913e+06  -1.180569e+06
   3.635408e+06   1.459290e+06
   2.220871e+06   3.085297e+06
  -1.770684e+05   2.930576e+06
  -1.470080e+06   1.782268e+06
  -1.306308e+06   9.976768e+05
  -1.321067e+06   9.869758e+05
  -2.669902e+06   8.577572e+05
  -4.138081e+06  -3.613842e+05
  -3.480829e+06  -2.435916e+06
  -3.089029e+05  -4.035216e+06
   3.150699e+06  -3.912742e+06
   4.267056e+06  -1.920883e+06
   2.541618e+06   7.721364e+05
  -1.314000e+05   2.344701e+06
  -1.393045e+06   1.737098e+06
  -5.128202e+05  -1.775082e+05
   1.176047e+06  -1.247244e+06
   1.764286e+06  -3.842570e+05
   7.268115e+05   1.095005e+06
  -6.287173e+05   1.132940e+06
  -7.033902e+05  -3.199687e+05
   6.038981e+05  -1.136483e+06
   1.845061e+06   2.439169e+05
   1.575505e+06   2.739884e+06
  -3.161401e+05   3.819022e+06
  -2.636514e+06   2.284223e+06
  -3.831639e+06  -6.543901e+05
  -3.030155e+06  -2.795146e+06
  -7.410389e+05  -2.923140e+06
   1.328210e+06  -1.544304e+06
   1.664269e+06  -1.742850e+05
   4.962936e+05   3.391688e+04
  -3.909393e+05  -7.308621e+05
   2.707860e+05  -1.237843e+06
   1.677945e+06  -6.166809e+05
   1.954335e+06   6.352983e+05
   5.257059e+05   1.251166e+06
  -1.098443e+06   6.678777e+05
  -1.063023e+06  -4.018908e+05
   7.115723e+05  -8.111113e+05
   2.413704e+06  -8.143627e+04
   2.201104e+06   1.289518e+06
   2.678367e+04   2.256536e+06
  -2.303442e+06   1.951602e+06
  -2.819755e+06   4.284769e+05
  -1.236107e+06  -1.134851e+06
   8.049701e+05  -1.374105e+06
   1.372558e+06  -1.947440e+05
   1.330543e+05   9.772258e+05
  -1.458132e+06   7.463593e+05
  -1.760821e+06  -6.400288e+05
  -5.569519e+05  -1.622189e+06
   9.209830e+05  -1.181857e+06
   1.318142e+06   6.421825e+04
   4.243258e+05   7.040833e+05
  -6.949670e+05   1.112283e+05
  -7.251011e+05  -1.004632e+06
   5.801031e+05  -1.412948e+06
   2.013294e+06  -5.409894e+05
   2.038715e+06   1.024844e+06
   4.436393e+05   2.039968e+06
  -1.329295e+06   1.687055e+06
  -1.696584e+06   3.305619e+05
  -6.006151e+05  -8.176608e+05
   5.965068e+05  -8.721182e+05
   7.309718e+05  -8.927498e+04
  -2.239148e+04   5.377684e+05
  -6.235331e+05   4.076340e+05
  -4.085670e+05  -1.044159e+05
   3.032901e+05  -1.789724e+05
   6.237889e+05   4.589146e+05
  -2.817353e+04   1.162684e+06
  -1.307216e+06   9.826650e+05
  -2.103779e+06  -3.233559e+05
  -1.523049e+06  -1.898274e+06
   1.473434e+05  -2.484905e+06
   1.607088e+06  -1.605391e+06
   1.839709e+06  -2.853257e+04
   1.094487e+06   9.968586e+05
   4.085093e+05   9.466267e+05
   3.355045e+05   3.946962e+05
   4.533622e+05   2.304780e+05
   8.642849e+04   6.452668e+05
  -7.940065e+05   9.704140e+05
  -1.487525e+06   4.769263e+05
  -1.223866e+06  -7.282847e+05
   1.119829e+05  -1.639611e+06
   1.721904e+06  -1.253535e+06
   2.352064e+06   3.843939e+05
   1.304753e+06   2.054045e+06
  -8.014609e+05   2.408714e+06
  -2.425550e+06   1.224641e+06
  -2.467691e+06  -4.336297e+05
  -1.228205e+06  -1.312332e+06
   5.631606e+04  -1.148160e+06
   5.073533e+05  -7.034787e+05
   2.987352e+05  -7.463927e+05
   1.872910e+05  -1.176665e+06
   5.997755e+05  -1.208912e+06
   1.222132e+06  -3.219700e+05
   1.348151e+06   1.069903e+06
   5.981607e+05   1.910696e+06
  -6.099429e+05   1.472797e+06
  -1.316350e+06   6.684410e+04
  -9.014180e+05  -1.202012e+06
   2.372460e+05  -1.409892e+06
   1.026614e+06  -5.811250e+05
   8.212186e+05   4.685199e+05
   5.274997e+04   9.699774e+05
  -3.329638e+05   8.297799e+05
   3.148594e+03   4.975723e+05
   4.139306e+05   3.688784e+05
   4.916154e+04   4.035204e+05
  -1.090502e+06   2.696005e+05
  -2.005133e+06  -2.383378e+05
  -1.663785e+06  -9.371169e+05
  -1.164689e+05  -1.363894e+06
   1.440068e+06  -1.159383e+06
   1.794818e+06  -4.175770e+05
   8.981467e+05   3.220434e+05
  -1.877267e+05   5.108595e+05
  -4.747276e+05   1.109908e+05
   5.054661e+03  -3.344601e+05
   4.907471e+05  -2.470911e+05
   4.786078e+05   3.364927e+05
   1.641906e+05   7.589914e+05
   4.863284e+03   4.917077e+05
   1.482539e+05  -1.774723e+05
   3.600437e+05  -4.012947e+05
   3.070329e+05   2.146982e+05
  -1.707712e+05   1.042472e+06
  -8.764291e+05   1.083604e+06
  -1.244989e+06   1.389040e+05
  -7.573642e+05  -9.095053e+05
   3.914422e+05  -1.061441e+06
   1.191697e+06  -2.673369e+05
   7.422472e+05   5.976348e+05
  -6.654745e+05   6.994040e+05
  -1.663957e+06   9.758372e+03
  -1.193513e+06  -8.176860e+05
   3.543192e+05  -1.109817e+06
   1.538775e+06  -6.855551e+05
   1.359313e+06   7.660347e+04
   2.085966e+05   5.452566e+05
  -6.398534e+05   3.449489e+05
  -3.633092e+05  -2.545201e+05
   6.332193e+05  -4.944534e+05
   1.196666e+06   1.330298e+05
   6.155745e+05   1.228517e+06
  -6.746234e+05   1.709418e+06
  -1.547952e+06   8.667172e+05
  -1.296108e+06  -7.850290e+05
  -2.351586e+05  -1.854054e+06
   7.291964e+05  -1.401149e+06
   9.728018e+05   9.158575e+04
   5.417849e+05   1.202579e+06
  -1.127589e+05   1.050066e+06
  -5.481891e+05   1.379898e+05
  -5.522583e+05  -3.908889e+05
  -2.424472e+05  -1.598642e+05
  -2.022707e+04   1.211709e+05
  -1.925162e+05  -2.475201e+05
  -5.086192e+05  -9.584531e+05
  -3.081988e+05  -1.118631e+06
   6.260788e+05  -4.387574e+05
   1.540550e+06   4.442280e+05
   1.415725e+06   8.280140e+05
   2.168605e+05   6.958039e+05
  -9.357372e+05   4.429825e+05
  -1.032451e+06   2.373577e+05
  -3.132477e+05  -4.511109e+03
   1.712265e+05  -2.276658e+05
  -4.920270e+04  -2.518937e+05
  -3.600162e+05  -1.375658e+05
  -2.124008e+04  -1.408926e+05
   7.654888e+05  -2.227259e+05
   1.062128e+06   1.771329e+04
   3.316317e+05   6.871954e+05
  -9.211663e+05   1.171065e+06
  -1.670352e+06   7.431480e+05
  -1.349078e+06  -4.646152e+05
  -2.734579e+05  -1.449979e+06
   7.391957e+05  -1.394361e+06
   1.063838e+06  -5.129886e+05
   6.873259e+05   2.726562e+05
   1.076280e+05   3.633936e+05
  -1.420729e+05   2.097188e+04
   5.622665e+04  -7.401314e+04
   3.521214e+05   3.465509e+05
   2.998303e+05   8.228502e+05
  -1.885325e+05   6.811858e+05
  -7.153458e+05  -1.662898e+05
  -7.252760e+05  -1.014513e+06
  -4.895765e+04  -1.045589e+06
   8.136143e+05  -1.918458e+05
   1.046200e+06   7.898669e+05
   3.241555e+05   1.105536e+06
  -7.314760e+05   6.487939e+05
  -1.108580e+06  -8.055583e+04
  -5.105123e+05  -5.669320e+05
   2.779339e+05  -6.300739e+05
   3.207489e+05  -3.661242e+05
  -3.209260e+05  -3.135659e+04
  -6.819916e+05   3.961505e+04
  -1.314657e+05  -2.998470e+05
   8.339611e+05  -7.173211e+05
   1.222187e+06  -6.236179e+05
   7.154104e+05   1.165624e+05
  -9.098853e+04   8.642566e+05
  -4.927475e+05   8.570004e+05
  -3.662117e+05   1.234987e+05
  -2.702329e+04  -5.172515e+05
   2.508254e+05  -4.129616e+05
   3.665783e+05   2.045770e+05
   2.593919e+05   5.892151e+05
  -6.375880e+04   3.834839e+05
  -3.982462e+05  -6.597281e+04
  -4.698080e+05  -2.383367e+05
  -2.487998e+05  -5.764899e+04
   7.074726e+03   1.063949e+05
   8.394852e+04  -5.380001e+04
   6.514859e+04  -4.002230e+05
   1.605765e+05  -4.985860e+05
   3.611493e+05  -1.197424e+05
   3.956098e+05   4.524831e+05
   6.435182e+04   6.702623e+05
  -4.434980e+05   2.984405e+05
  -6.442715e+05  -3.160098e+05
  -2.376066e+05  -6.072086e+05
   4.961784e+05  -3.724267e+05
   8.690085e+05   9.146859e+04
   4.778744e+05   3.811150e+05
  -2.950720e+05   3.692493e+05
  -6.348601e+05   1.878506e+05
  -2.096404e+05   1.263931e+04
   4.183004e+05  -2.749748e+04
   4.436823e+05   1.253263e+05
  -2.207258e+05   3.399808e+05
  -8.436746e+05   2.862168e+05
