
 $NMID
 id='ANONYMOUS ', fmtdat='(2E16.6)'
 volume=1.0
 tramp=1.0
 $END
  -2.902177e+07  -1.571664e+06
  -1.790426e+07  -1.565714e+07
   2.051456e+06  -1.846624e+07
   1.332716e+07  -1.027768e+07
   9.808198e+06   4.083676e+05
  -1.702356e+05   5.017927e+06
  -5.631654e+06   1.579563e+06
  -3.455864e+06  -4.800353e+06
   2.027730e+06  -7.065330e+06
   5.371911e+06  -2.719544e+06
   4.306319e+06   3.816924e+06
   3.473957e+05   5.745236e+06
  -2.724634e+06   1.213759e+06
  -1.934218e+06  -4.597205e+06
   1.906672e+06  -5.258068e+06
   4.650880e+06  -6.172141e+04
   3.054974e+06   5.733223e+06
  -1.772641e+06   6.890302e+06
  -5.652634e+06   3.099039e+06
  -5.612317e+06  -1.836565e+06
  -2.448311e+06  -4.241643e+06
   4.975547e+05  -3.546709e+06
   6.520493e+05  -1.966718e+06
  -1.331495e+06  -1.902672e+06
  -2.144449e+06  -3.448788e+06
   6.289378e+05  -4.335352e+06
   5.296715e+06  -2.578309e+06
   7.255999e+06   1.014284e+06
   4.081153e+06   3.542304e+06
  -1.349900e+06   3.106858e+06
  -3.846443e+06   5.607976e+05
  -1.591517e+06  -1.706925e+06
   2.297771e+06  -1.916834e+06
   3.733008e+06   8.042635e+04
   1.895500e+06   2.787396e+06
  -8.087528e+05   3.808939e+06
  -1.882414e+06   1.867004e+06
  -9.827203e+05  -1.279809e+06
   3.930120e+05  -2.119978e+06
   6.071338e+05   3.962112e+05
  -6.442524e+05   3.017350e+06
  -2.027856e+06   2.063322e+06
  -1.782399e+06  -1.589993e+06
   3.694578e+05  -3.351668e+06
   2.542918e+06  -7.914146e+05
   2.335428e+06   3.249766e+06
  -6.518536e+05   4.236701e+06
  -4.076693e+06   1.201251e+06
  -4.839192e+06  -2.730628e+06
  -1.982831e+06  -4.156881e+06
   2.233836e+06  -2.474508e+06
   4.251082e+06   4.015828e+05
   2.516284e+06   2.121034e+06
  -9.943387e+05   1.640962e+06
  -2.789737e+06  -1.737138e+05
  -1.487143e+06  -1.380897e+06
   9.090497e+05  -8.491136e+05
   1.525352e+06   5.812088e+05
  -5.983649e+04   1.146358e+06
  -1.568467e+06   2.338504e+05
  -9.017058e+05  -1.062137e+06
   1.413449e+06  -1.313777e+06
   2.869991e+06  -1.046943e+05
   1.668245e+06   1.881007e+06
  -1.516581e+06   3.366921e+06
  -4.239761e+06   3.046436e+06
  -4.528920e+06   5.506973e+05
  -2.535423e+06  -2.711523e+06
  -1.563695e+05  -4.406316e+06
   9.234385e+05  -3.602085e+06
   7.579704e+05  -1.784283e+06
   6.710664e+05  -9.440783e+05
   1.480472e+06  -1.117141e+06
   2.549753e+06  -6.825950e+05
   2.622312e+06   1.070266e+06
   1.239616e+06   2.697822e+06
  -8.024153e+05   2.316408e+06
  -2.108411e+06  -5.365461e+04
  -1.675790e+06  -2.390346e+06
   3.401337e+05  -2.707027e+06
   2.506650e+06  -8.508810e+05
   3.089481e+06   1.585860e+06
   1.657442e+06   2.833920e+06
  -3.869863e+05   2.429571e+06
  -1.322757e+06   1.345498e+06
  -1.079605e+06   7.744045e+05
  -1.143968e+06   8.586365e+05
  -2.397155e+06   6.980047e+05
  -3.676010e+06  -4.725174e+05
  -3.016337e+06  -2.321566e+06
  -1.066962e+05  -3.645527e+06
   3.036822e+06  -3.386463e+06
   3.984165e+06  -1.496974e+06
   2.258470e+06   8.914762e+05
  -3.015054e+05   2.153467e+06
  -1.407140e+06   1.482181e+06
  -4.527443e+05  -2.130261e+05
   1.144593e+06  -1.063571e+06
   1.591646e+06  -2.514138e+05
   5.645340e+05   1.016564e+06
  -6.437410e+05   1.002434e+06
  -6.656745e+05  -2.999088e+05
   5.023001e+05  -1.054928e+06
   1.609393e+06   1.300530e+05
   1.420195e+06   2.386220e+06
  -2.334174e+05   3.456420e+06
  -2.359281e+06   2.120545e+06
  -3.493157e+06  -6.198589e+05
  -2.739307e+06  -2.652612e+06
  -5.907820e+05  -2.724983e+06
   1.290580e+06  -1.350045e+06
   1.532565e+06  -6.963544e+04
   4.475196e+05   5.299068e+04
  -3.222747e+05  -6.753460e+05
   2.856352e+05  -1.081544e+06
   1.505949e+06  -4.710289e+05
   1.710862e+06   6.301034e+05
   4.311844e+05   1.121750e+06
  -1.009041e+06   5.635676e+05
  -9.703110e+05  -3.986125e+05
   6.459973e+05  -7.443386e+05
   2.211201e+06  -3.682378e+04
   2.006522e+06   1.242717e+06
  -2.492135e+04   2.081594e+06
  -2.166113e+06   1.704772e+06
  -2.573373e+06   2.779059e+05
  -1.059367e+06  -1.063422e+06
   7.815954e+05  -1.174704e+06
   1.217130e+06  -1.003597e+05
   5.476128e+04   8.749142e+05
  -1.344872e+06   6.016501e+05
  -1.562003e+06  -6.385408e+05
  -4.618647e+05  -1.479113e+06
   8.508455e+05  -1.052687e+06
   1.188490e+06   7.534102e+04
   3.778459e+05   6.352032e+05
  -6.127680e+05   7.148380e+04
  -6.012407e+05  -9.363445e+05
   5.964528e+05  -1.247057e+06
   1.848950e+06  -3.888288e+05
   1.792173e+06   1.023703e+06
   3.090354e+05   1.857856e+06
  -1.263693e+06   1.462602e+06
  -1.539678e+06   2.354568e+05
  -5.182948e+05  -7.551636e+05
   5.680264e+05  -7.687267e+05
   6.826911e+05  -5.135797e+04
  -2.110782e+04   5.131418e+05
  -5.991341e+05   3.802674e+05
  -4.185516e+05  -1.085864e+05
   2.447903e+05  -1.869541e+05
   5.509804e+05   4.020773e+05
  -5.163830e+04   1.037465e+06
  -1.213333e+06   8.363271e+05
  -1.886495e+06  -3.794391e+05
  -1.291553e+06  -1.781692e+06
   2.412092e+05  -2.248710e+06
   1.522903e+06  -1.407263e+06
   1.685833e+06   3.012120e+04
   9.888079e+05   9.634368e+05
   3.531118e+05   9.265068e+05
   2.660524e+05   4.126319e+05
   3.628084e+05   2.240134e+05
   3.965194e+04   5.663727e+05
  -7.481095e+05   8.472940e+05
  -1.369440e+06   3.873198e+05
  -1.103315e+06  -7.126397e+05
   1.489213e+05  -1.504300e+06
   1.611428e+06  -1.081598e+06
   2.122923e+06   4.415952e+05
   1.107322e+06   1.906243e+06
  -8.042972e+05   2.136848e+06
  -2.224077e+06   1.017158e+06
  -2.221364e+06  -4.677334e+05
  -1.094728e+06  -1.230350e+06
   7.081544e+04  -1.066080e+06
   5.066581e+05  -6.523600e+05
   3.484991e+05  -6.693854e+05
   2.497317e+05  -1.034846e+06
   5.934573e+05  -1.045507e+06
   1.108086e+06  -2.274856e+05
   1.167449e+06   1.032614e+06
   4.540711e+05   1.759131e+06
  -6.213324e+05   1.307719e+06
  -1.196376e+06   9.062682e+03
  -7.680549e+05  -1.112824e+06
   2.557753e+05  -1.258706e+06
   9.239450e+05  -5.005964e+05
   7.104517e+05   4.217549e+05
   2.700530e+04   8.520115e+05
  -3.024534e+05   7.331089e+05
  -1.658685e+03   4.611895e+05
   3.539551e+05   3.615002e+05
   2.323924e+04   3.717844e+05
  -9.861925e+05   1.977117e+05
  -1.786488e+06  -3.010607e+05
  -1.462000e+06  -9.099732e+05
  -6.259652e+04  -1.218775e+06
   1.331719e+06  -9.729891e+05
   1.630669e+06  -3.124211e+05
   8.000682e+05   3.008193e+05
  -1.844173e+05   4.382610e+05
  -4.243102e+05   8.936790e+04
   3.224089e+04  -2.877480e+05
   4.658968e+05  -1.990781e+05
   4.151939e+05   3.275349e+05
   9.517453e+04   7.060158e+05
  -3.704321e+04   4.518573e+05
   1.410570e+05  -1.693551e+05
   3.558785e+05  -3.695418e+05
   2.720906e+05   2.047750e+05
  -2.098205e+05   9.465267e+05
  -8.421384e+05   9.381965e+05
  -1.112531e+06   5.006651e+04
  -6.207115e+05  -8.646409e+05
   4.069829e+05  -9.241547e+05
   1.082187e+06  -1.647918e+05
   6.440259e+05   5.824096e+05
  -6.274865e+05   6.070899e+05
  -1.514827e+06  -5.064921e+04
  -1.072498e+06  -7.813455e+05
   3.449778e+05  -1.002911e+06
   1.423592e+06  -5.849386e+05
   1.244417e+06   1.090097e+05
   1.773319e+05   5.059531e+05
  -5.902682e+05   2.940651e+05
  -3.094523e+05  -2.417980e+05
   6.088212e+05  -4.118154e+05
   1.080738e+06   1.911143e+05
   4.850851e+05   1.154813e+06
  -7.143678e+05   1.516948e+06
  -1.458093e+06   7.038359e+05
  -1.141244e+06  -7.797409e+05
  -1.275333e+05  -1.699329e+06
   7.229925e+05  -1.250677e+06
   8.799832e+05   1.125647e+05
   4.516198e+05   1.111140e+06
  -1.291535e+05   9.545041e+05
  -4.968006e+05   1.071101e+05
  -4.978863e+05  -3.797831e+05
  -2.287025e+05  -1.573428e+05
  -1.711991e+04   1.123674e+05
  -1.403167e+05  -2.283555e+05
  -4.098064e+05  -8.909126e+05
  -2.480609e+05  -1.029003e+06
   5.673212e+05  -3.687927e+05
   1.382379e+06   4.728535e+05
   1.265365e+06   8.119951e+05
   1.667777e+05   6.377358e+05
  -8.850906e+05   3.616916e+05
  -9.527387e+05   1.757353e+05
  -2.698457e+05  -1.245008e+04
   1.720261e+05  -1.987662e+05
  -5.260393e+04  -2.356039e+05
  -3.415310e+05  -1.471008e+05
  -5.791722e+03  -1.318338e+05
   7.271371e+05  -1.643134e+05
   9.626866e+05   7.211704e+04
   2.408744e+05   6.431365e+05
  -9.120079e+05   1.013071e+06
  -1.542641e+06   5.791623e+05
  -1.182668e+06  -5.019100e+05
  -1.730301e+05  -1.334625e+06
   7.339259e+05  -1.223656e+06
   9.930619e+05  -4.025843e+05
   6.163376e+05   2.899190e+05
   7.238996e+04   3.367364e+05
  -1.485774e+05   5.340179e+03
   4.557630e+04  -7.551358e+04
   3.104418e+05   3.237331e+05
   2.404461e+05   7.594650e+05
  -2.084247e+05   6.064881e+05
  -6.482000e+05  -1.966923e+05
  -6.020350e+05  -9.707715e+05
   2.622653e+04  -9.547569e+05
   7.631060e+05  -1.205051e+05
   9.100974e+05   7.851951e+05
   2.290907e+05   1.021494e+06
  -7.017208e+05   5.414482e+05
  -9.953169e+05  -1.340441e+05
  -4.231216e+05  -5.300243e+05
   2.856455e+05  -5.424315e+05
   2.955305e+05  -3.095472e+05
  -3.072194e+05  -4.615421e+04
  -6.260208e+05   1.439221e+03
  -9.860351e+04  -2.769400e+05
   7.913551e+05  -6.132548e+05
   1.123320e+06  -5.157635e+05
   6.250140e+05   1.319164e+05
  -1.274794e+05   7.743857e+05
  -4.766854e+05   7.443119e+05
  -3.255980e+05   7.890588e+04
   7.355829e+03  -4.796804e+05
   2.530403e+05  -3.549355e+05
   3.274003e+05   2.175336e+05
   2.047132e+05   5.488134e+05
  -8.374848e+04   3.330860e+05
  -3.593839e+05  -8.576956e+04
  -4.074631e+05  -2.306596e+05
  -2.207012e+05  -5.559892e+04
  -8.824280e+03   8.760000e+04
   7.273222e+04  -6.787081e+04
   9.623904e+04  -3.745051e+05
   2.024167e+05  -4.363691e+05
   3.495335e+05  -6.721918e+04
   3.223813e+05   4.522390e+05
   6.591897e+02   6.206134e+05
  -4.265567e+05   2.439674e+05
  -5.623740e+05  -3.307184e+05
  -1.799781e+05  -5.708308e+05
   4.651487e+05  -3.105416e+05
   7.777704e+05   1.345696e+05
   4.109791e+05   3.711181e+05
  -2.889551e+05   3.099491e+05
  -5.853192e+05   1.249877e+05
  -1.802751e+05  -4.088798e+03
   4.000877e+05   3.257838e+03
   4.071302e+05   1.502941e+05
  -2.277583e+05   3.108476e+05
  -8.018317e+05   2.231246e+05
