
 $NMID
 id='ANONYMOUS ', fmtdat='(2E16.6)'
 volume=1.0
 tramp=1.0
 $END
   3.093393e+07  -8.152746e+05
   2.087332e+07   1.509227e+07
  -2.991985e+05   2.010994e+07
  -1.367259e+07   1.242813e+07
  -1.103641e+07   4.081778e+05
  -3.091942e+05  -5.604755e+06
   6.219809e+06  -2.217588e+06
   4.253272e+06   5.098642e+06
  -1.801170e+06   8.008744e+06
  -5.759031e+06   3.410724e+06
  -4.887298e+06  -3.828298e+06
  -6.904473e+05  -6.164415e+06
   2.809676e+06  -1.433218e+06
   2.249816e+06   4.914301e+06
  -1.836386e+06   5.888188e+06
  -5.100893e+06   4.321924e+05
  -3.744689e+06  -5.987949e+06
   1.388712e+06  -7.585944e+06
   5.795402e+06  -3.752603e+06
   6.051647e+06   1.510048e+06
   2.889219e+06   4.198218e+06
  -1.317711e+05   3.666984e+06
  -3.164547e+05   2.220752e+06
   1.634769e+06   2.263903e+06
   2.346971e+06   3.835534e+06
  -6.345446e+05   4.691517e+06
  -5.602823e+06   2.885656e+06
  -7.779325e+06  -8.268369e+05
  -4.497591e+06  -3.559152e+06
   1.313037e+06  -3.255789e+06
   4.050606e+06  -6.285015e+05
   1.625853e+06   1.814566e+06
  -2.588076e+06   2.044001e+06
  -4.077964e+06  -1.329953e+05
  -2.021347e+06  -3.021269e+06
   8.373520e+05  -4.066288e+06
   1.877000e+06  -2.020631e+06
   9.553730e+05   1.246099e+06
  -3.315497e+05   2.132660e+06
  -4.985184e+05  -4.688812e+05
   7.094212e+05  -3.253821e+06
   2.145721e+06  -2.321559e+06
   2.079544e+06   1.611833e+06
  -8.043622e+04   3.748559e+06
  -2.633012e+06   1.231047e+06
  -2.813796e+06  -3.207361e+06
   2.819180e+05  -4.624755e+06
   4.256455e+06  -1.607858e+06
   5.415440e+06   2.688287e+06
   2.391898e+06   4.464672e+06
  -2.341975e+06   2.834317e+06
  -4.710506e+06  -2.499515e+05
  -2.894973e+06  -2.238201e+06
   9.766856e+05  -1.902458e+06
   3.062300e+06  -1.218829e+04
   1.738451e+06   1.410895e+06
  -9.179202e+05   9.917157e+05
  -1.705834e+06  -5.771894e+05
   2.608029e+04  -1.351744e+06
   1.830236e+06  -4.049499e+05
   1.218946e+06   1.191063e+06
  -1.392086e+06   1.682748e+06
  -3.177494e+06   3.873762e+05
  -1.996990e+06  -1.920293e+06
   1.443365e+06  -3.682489e+06
   4.421044e+06  -3.425582e+06
   4.808596e+06  -7.844161e+05
   2.805803e+06   2.751537e+06
   3.687013e+05   4.709630e+06
  -8.263472e+05   3.993475e+06
  -8.062879e+05   2.053120e+06
  -8.136369e+05   1.039953e+06
  -1.644145e+06   1.145676e+06
  -2.716996e+06   7.012535e+05
  -2.788029e+06  -1.135844e+06
  -1.334149e+06  -2.885641e+06
   8.632701e+05  -2.492409e+06
   2.301118e+06   6.227528e+04
   1.858026e+06   2.585862e+06
  -3.081808e+05   2.934620e+06
  -2.656745e+06   9.795875e+05
  -3.344398e+06  -1.579252e+06
  -1.896303e+06  -2.925027e+06
   2.511445e+05  -2.590749e+06
   1.292964e+06  -1.531305e+06
   1.107119e+06  -9.431776e+05
   1.227147e+06  -1.017122e+06
   2.607171e+06  -8.584679e+05
   4.031143e+06   3.829015e+05
   3.365507e+06   2.428333e+06
   2.275813e+05   3.967929e+06
  -3.206077e+06   3.763908e+06
  -4.272390e+06   1.717019e+06
  -2.442010e+06  -9.103499e+05
   2.936955e+05  -2.315433e+06
   1.481831e+06  -1.614801e+06
   4.833372e+05   2.200919e+05
  -1.212195e+06   1.175874e+06
  -1.715303e+06   3.273836e+05
  -6.427282e+05  -1.068055e+06
   6.779006e+05  -1.096810e+06
   7.469457e+05   3.291998e+05
  -5.385150e+05   1.214901e+06
  -1.841021e+06  -5.947454e+04
  -1.704158e+06  -2.606572e+06
   1.501937e+05  -3.884444e+06
   2.588218e+06  -2.451729e+06
   3.897003e+06   5.960795e+05
   3.070067e+06   2.873492e+06
   6.981292e+05   2.979363e+06
  -1.375006e+06   1.496020e+06
  -1.660583e+06   1.074706e+05
  -4.884650e+05  -4.531031e+04
   3.713483e+05   7.267340e+05
  -2.665659e+05   1.191002e+06
  -1.617485e+06   5.739024e+05
  -1.894196e+06  -6.216611e+05
  -5.183180e+05  -1.212858e+06
   1.086414e+06  -6.495227e+05
   1.075825e+06   4.199911e+05
  -7.018596e+05   8.489827e+05
  -2.444314e+06   9.446673e+04
  -2.235486e+06  -1.332839e+06
  -1.440938e+04  -2.296008e+06
   2.331887e+06  -1.921456e+06
   2.802076e+06  -3.733569e+05
   1.191432e+06   1.122731e+06
  -8.011492e+05   1.302148e+06
  -1.312328e+06   1.588713e+05
  -8.992441e+04  -9.386729e+05
   1.442570e+06  -6.955209e+05
   1.727717e+06   6.492897e+05
   5.526787e+05   1.612041e+06
  -9.072982e+05   1.189230e+06
  -1.317187e+06  -4.569946e+04
  -4.412414e+05  -6.927823e+05
   6.648399e+05  -1.058008e+05
   6.825818e+05   9.972906e+05
  -6.124562e+05   1.369564e+06
  -1.996762e+06   4.722825e+05
  -1.976136e+06  -1.061671e+06
  -3.917207e+05  -2.012694e+06
   1.331847e+06  -1.634155e+06
   1.674978e+06  -3.048572e+05
   5.916160e+05   8.128592e+05
  -5.997418e+05   8.584366e+05
  -7.447570e+05   6.595695e+04
   2.129333e+04  -5.733088e+05
   6.631950e+05  -4.249289e+05
   4.647770e+05   1.338302e+05
  -2.783121e+05   2.325646e+05
  -6.325708e+05  -4.229387e+05
   1.862758e+04  -1.143058e+06
   1.299448e+06  -9.513831e+05
   2.067597e+06   3.588385e+05
   1.457260e+06   1.902499e+06
  -2.036073e+05   2.456590e+06
  -1.632193e+06   1.577390e+06
  -1.850794e+06   5.484470e+03
  -1.099521e+06  -1.044314e+06
  -3.851827e+05  -1.015590e+06
  -2.787827e+05  -4.343500e+05
  -4.010268e+05  -2.142572e+05
  -6.928567e+04  -6.087985e+05
   7.921295e+05  -9.504435e+05
   1.491439e+06  -4.602295e+05
   1.223362e+06   7.595129e+05
  -1.316636e+05   1.656625e+06
  -1.736356e+06   1.225236e+06
  -2.329841e+06  -4.270799e+05
  -1.265036e+06  -2.053188e+06
   8.108008e+05  -2.362642e+06
   2.400084e+06  -1.183143e+06
   2.449554e+06   4.492710e+05
   1.234844e+06   1.329823e+06
  -6.065179e+04   1.180746e+06
  -5.544098e+05   7.185607e+05
  -3.677770e+05   7.157281e+05
  -2.340930e+05   1.117594e+06
  -6.057306e+05   1.154655e+06
  -1.194301e+06   2.839077e+05
  -1.296900e+06  -1.089664e+06
  -5.410465e+05  -1.901683e+06
   6.416289e+05  -1.439038e+06
   1.306096e+06  -4.230889e+04
   8.751243e+05   1.192225e+06
  -2.387212e+05   1.388105e+06
  -1.000394e+06   5.879366e+05
  -8.043054e+05  -4.306510e+05
  -6.906024e+04  -9.364231e+05
   3.049569e+05  -8.247693e+05
  -6.590918e+03  -5.119775e+05
  -3.902467e+05  -3.821595e+05
  -3.310945e+04  -4.026573e+05
   1.068386e+06  -2.492611e+05
   1.953969e+06   2.689574e+05
   1.622950e+06   9.483441e+05
   1.138011e+05   1.332966e+06
  -1.415031e+06   1.107200e+06
  -1.773222e+06   3.924644e+05
  -8.952464e+05  -3.041006e+05
   1.799477e+05  -4.853567e+05
   4.639176e+05  -1.150364e+05
  -2.040807e+04   3.064406e+05
  -5.009819e+05   2.237871e+05
  -4.599074e+05  -3.436496e+05
  -1.156346e+05  -7.565799e+05
   3.265127e+04  -4.832678e+05
  -1.566951e+05   1.898686e+05
  -3.896271e+05   4.074760e+05
  -3.038685e+05  -2.170387e+05
   2.082790e+05  -1.032381e+06
   8.890655e+05  -1.044124e+06
   1.197921e+06  -9.449006e+04
   6.939516e+05   9.121197e+05
  -4.080240e+05   1.013191e+06
  -1.160496e+06   2.119003e+05
  -7.127140e+05  -6.162321e+05
   6.678387e+05  -6.815359e+05
   1.658598e+06   1.665540e+04
   1.197248e+06   8.349851e+05
  -3.534559e+05   1.115285e+06
  -1.550697e+06   6.781882e+05
  -1.369745e+06  -9.194405e+04
  -2.062665e+05  -5.527627e+05
   6.395734e+05  -3.393172e+05
   3.454793e+05   2.502367e+05
  -6.485068e+05   4.575512e+05
  -1.173077e+06  -1.812955e+05
  -5.507324e+05  -1.235900e+06
   7.376723e+05  -1.656783e+06
   1.563137e+06  -7.960548e+05
   1.258142e+06   8.197774e+05
   1.799388e+05   1.845735e+06
  -7.603644e+05   1.382194e+06
  -9.684079e+05  -9.916489e+04
  -5.240938e+05  -1.204746e+06
   1.176218e+05  -1.053531e+06
   5.409567e+05  -1.336546e+05
   5.528715e+05   4.078151e+05
   2.535071e+05   1.736183e+05
   1.695809e+04  -1.264478e+05
   1.596793e+05   2.325746e+05
   4.697575e+05   9.545801e+05
   2.982642e+05   1.123388e+06
  -6.059126e+05   4.268771e+05
  -1.517359e+06  -4.808475e+05
  -1.401612e+06  -8.598423e+05
  -2.001447e+05  -6.903008e+05
   9.560793e+05  -4.087781e+05
   1.036435e+06  -2.140849e+05
   2.960642e+05  -1.267065e+03
  -1.824561e+05   2.175551e+05
   6.228740e+04   2.653822e+05
   3.740013e+05   1.624601e+05
   7.734950e+03   1.398974e+05
  -7.870925e+05   1.861069e+05
  -1.045625e+06  -5.366764e+04
  -2.746777e+05  -6.790845e+05
   9.636963e+05  -1.114090e+06
   1.653364e+06  -6.729111e+05
   1.289068e+06   5.060753e+05
   2.192829e+05   1.443706e+06
  -7.625703e+05   1.350558e+06
  -1.063054e+06   4.608990e+05
  -6.729437e+05  -3.027768e+05
  -8.593468e+04  -3.602322e+05
   1.591284e+05   4.538306e+02
  -5.264956e+04   8.869434e+04
  -3.503082e+05  -3.471943e+05
  -2.824142e+05  -8.232332e+05
   2.098461e+05  -6.620475e+05
   7.042506e+05   2.014680e+05
   6.710542e+05   1.036857e+06
  -7.111962e+03   1.028123e+06
  -8.199267e+05   1.416420e+05
  -1.000022e+06  -8.304851e+05
  -2.731927e+05  -1.098348e+06
   7.428806e+05  -6.023045e+05
   1.080836e+06   1.169548e+05
   4.773492e+05   5.578310e+05
  -2.883887e+05   5.942201e+05
  -3.085248e+05   3.503845e+05
   3.351510e+05   5.141927e+04
   6.798503e+05  -1.494700e+04
   1.146581e+05   2.950920e+05
  -8.454992e+05   6.871374e+05
  -1.210916e+06   5.983813e+05
  -6.856740e+05  -1.170215e+05
   1.159160e+05  -8.428363e+05
   4.930096e+05  -8.266513e+05
   3.429026e+05  -9.962983e+04
  -7.292515e+02   5.185553e+05
  -2.622230e+05   3.888916e+05
  -3.544230e+05  -2.313357e+05
  -2.356796e+05  -5.901020e+05
   7.681327e+04  -3.595013e+05
   3.894206e+05   8.500787e+04
   4.525474e+05   2.357531e+05
   2.456304e+05   5.291375e+04
   3.239658e+03  -8.955214e+04
  -8.879698e+04   8.040232e+04
  -1.036481e+05   4.013215e+05
  -2.067179e+05   4.620123e+05
  -3.668561e+05   7.209778e+04
  -3.493500e+05  -4.771122e+05
  -1.016806e+04  -6.619879e+05
   4.551328e+05  -2.707702e+05
   6.125847e+05   3.421547e+05
   2.055996e+05   6.130311e+05
  -4.954677e+05   3.508700e+05
  -8.433197e+05  -1.235102e+05
  -4.547945e+05  -3.906474e+05
   3.006369e+05  -3.418023e+05
   6.252273e+05  -1.498287e+05
   1.924530e+05  -5.288378e+03
  -4.321193e+05  -3.680277e+03
  -4.392654e+05  -1.593541e+05
   2.469901e+05  -3.389249e+05
   8.693688e+05  -2.519176e+05
