
 $NMID
 id='ANONYMOUS ', fmtdat='(2E16.6)'
 volume=1.0
 tramp=1.0
 $END
  -6.136683e+07  -1.752089e+06
  -3.534951e+07  -3.955126e+07
   9.873840e+06  -4.128264e+07
   3.051319e+07  -1.438419e+07
   1.721907e+07   8.706379e+06
  -4.198042e+06   9.886312e+06
  -1.039804e+07  -2.043665e+06
  -2.290424e+06  -1.063322e+07
   7.139580e+06  -9.451102e+06
   1.038248e+07  -1.547333e+06
   7.297266e+06   6.836093e+06
   6.796952e+05   9.151366e+06
  -4.331590e+06   2.921177e+06
  -2.681535e+06  -5.650673e+06
   4.212225e+06  -6.644837e+06
   8.357684e+06   1.832434e+06
   4.360247e+06   1.112183e+07
  -4.511269e+06   1.253713e+07
  -1.111448e+07   6.084430e+06
  -1.172721e+07  -2.469527e+06
  -7.139355e+06  -8.371639e+06
  -5.439488e+05  -9.654148e+06
   3.611266e+06  -6.636020e+06
   2.492026e+06  -2.622194e+06
  -9.995348e+05  -1.859222e+06
  -4.135933e+05  -4.208312e+06
   5.558159e+06  -4.703771e+06
   1.020282e+07  -5.818425e+05
   7.532031e+06   4.454270e+06
   3.952707e+05   5.525099e+06
  -3.841085e+06   2.933815e+06
  -2.751140e+06   2.573260e+05
   2.420337e+05  -8.780073e+05
   2.063888e+06  -6.861993e+05
   2.340874e+06   1.216698e+06
   9.469119e+05   4.060225e+06
  -1.931023e+06   4.214919e+06
  -3.715548e+06  -5.154736e+04
  -1.977984e+06  -4.055114e+06
   9.664917e+05  -2.327209e+06
   5.501172e+05   2.430173e+06
  -2.564203e+06   2.316919e+06
  -2.454109e+06  -3.536313e+06
   3.000230e+06  -6.494390e+06
   7.759429e+06  -7.431514e+05
   5.355176e+06   7.791018e+06
  -2.449980e+06   9.214042e+06
  -8.122813e+06   2.391732e+06
  -7.212480e+06  -4.928732e+06
  -1.681422e+06  -6.378369e+06
   3.732703e+06  -2.667149e+06
   5.375444e+06   1.817356e+06
   2.313670e+06   3.744236e+06
  -2.719642e+06   2.198706e+06
  -4.793803e+06  -1.190050e+06
  -1.938404e+06  -3.002300e+06
   1.905061e+06  -1.405915e+06
   1.750907e+06   1.130926e+06
  -1.536577e+06   7.968225e+05
  -2.510805e+06  -2.173414e+06
   1.046537e+06  -3.766572e+06
   5.246312e+06  -1.787971e+06
   5.643995e+06   1.789982e+06
   2.288945e+06   4.405457e+06
  -2.002794e+06   5.589897e+06
  -5.297459e+06   5.106636e+06
  -6.593293e+06   1.830783e+06
  -4.916423e+06  -3.398361e+06
  -9.472742e+05  -6.561172e+06
   2.127744e+06  -4.928182e+06
   1.915542e+06  -1.059369e+06
   4.933143e+02   4.273971e+05
  -2.936118e+05  -1.060103e+06
   1.530439e+06  -2.048504e+06
   2.954107e+06  -4.451403e+05
   2.223907e+06   1.873555e+06
   1.715951e+05   2.189707e+06
  -1.491142e+06   2.823421e+05
  -1.707368e+06  -2.049065e+06
  -3.639400e+04  -3.023698e+06
   2.892838e+06  -1.780259e+06
   4.766035e+06   1.236936e+06
   3.442683e+06   4.059324e+06
  -1.072244e+05   4.592069e+06
  -2.556148e+06   2.906309e+06
  -2.477720e+06   1.127622e+06
  -1.961651e+06   6.068297e+05
  -3.055687e+06   3.967819e+05
  -4.489516e+06  -8.853903e+05
  -3.562240e+06  -2.923382e+06
  -8.117591e+04  -4.261500e+06
   3.328930e+06  -4.007557e+06
   4.307880e+06  -2.221169e+06
   2.786689e+06   3.820948e+05
   3.648614e+05   2.315135e+06
  -1.098432e+06   2.052196e+06
  -6.016345e+05  -1.506304e+04
   1.115948e+06  -1.368096e+06
   2.001264e+06  -3.983547e+05
   9.791875e+05   1.283857e+06
  -5.160870e+05   1.153615e+06
  -3.820760e+05  -4.002825e+05
   1.167334e+06  -5.977599e+05
   1.844788e+06   1.545993e+06
   4.166905e+05   3.688066e+06
  -1.884521e+06   3.346080e+06
  -3.267685e+06   8.655799e+05
  -3.249566e+06  -1.628863e+06
  -2.185968e+06  -2.801058e+06
  -4.201816e+05  -2.614745e+06
   1.264914e+06  -1.498660e+06
   1.618846e+06  -2.470465e+05
   5.083728e+05   5.179237e+04
  -3.592757e+05  -7.835082e+05
   4.730227e+05  -1.400679e+06
   2.027220e+06  -5.667900e+05
   2.103742e+06   9.910369e+05
   3.492358e+05   1.497951e+06
  -1.228787e+06   5.596035e+05
  -8.769284e+05  -4.778111e+05
   8.945880e+05  -4.602215e+05
   2.178592e+06   4.180404e+05
   1.692347e+06   1.398826e+06
  -3.110449e+05   1.957243e+06
  -2.381589e+06   1.634895e+06
  -2.855795e+06   2.377930e+05
  -1.242755e+06  -1.347236e+06
   9.958983e+05  -1.575589e+06
   1.662542e+06  -1.753002e+05
   2.122368e+05   1.151393e+06
  -1.591073e+06   7.515408e+05
  -1.759842e+06  -8.510070e+05
  -2.864671e+05  -1.709037e+06
   1.166109e+06  -9.461973e+05
   1.271432e+06   3.874528e+05
   2.010636e+05   8.199027e+05
  -8.496260e+05   3.204687e+04
  -7.608742e+05  -1.111016e+06
   6.037047e+05  -1.481348e+06
   2.087228e+06  -5.574421e+05
   2.108676e+06   1.104993e+06
   3.728187e+05   2.161788e+06
  -1.528059e+06   1.681510e+06
  -1.793207e+06   1.775848e+05
  -4.884600e+05  -9.111895e+05
   6.996568e+05  -8.095043e+05
   6.330654e+05  -7.977158e+04
  -1.369035e+05   3.229538e+05
  -4.643108e+05   1.737648e+05
  -5.790002e+04  -3.846255e+04
   4.832830e+05   1.565034e+05
   4.925385e+05   7.463653e+05
  -2.669006e+05   1.225270e+06
  -1.452588e+06   8.964714e+05
  -2.148759e+06  -4.603015e+05
  -1.496422e+06  -2.032262e+06
   2.474577e+05  -2.492464e+06
   1.671101e+06  -1.410130e+06
   1.704024e+06   1.669071e+05
   8.328473e+05   8.911677e+05
   3.245730e+05   5.956571e+05
   5.436179e+05   1.947191e+05
   6.885764e+05   3.613703e+05
   8.429115e+04   8.247458e+05
  -9.294797e+05   9.080532e+05
  -1.483706e+06   2.949051e+05
  -1.042094e+06  -7.396218e+05
   2.883082e+05  -1.457630e+06
   1.779060e+06  -1.059829e+06
   2.298300e+06   5.289900e+05
   1.121034e+06   2.185304e+06
  -1.109682e+06   2.426882e+06
  -2.661506e+06   1.001830e+06
  -2.391686e+06  -7.451456e+05
  -9.135894e+05  -1.381274e+06
   2.425109e+05  -9.169764e+05
   3.608611e+05  -4.861057e+05
   2.620409e+04  -7.999580e+05
   9.903170e+04  -1.397565e+06
   7.250285e+05  -1.351965e+06
   1.363473e+06  -3.208755e+05
   1.382927e+06   1.128048e+06
   5.632020e+05   1.962316e+06
  -6.506415e+05   1.480870e+06
  -1.322183e+06  -2.268216e+04
  -8.096722e+05  -1.351216e+06
   4.504685e+05  -1.433882e+06
   1.232770e+06  -3.600054e+05
   8.206725e+05   7.879772e+05
  -1.867086e+05   1.132410e+06
  -6.114770e+05   7.828045e+05
  -1.077085e+05   4.030617e+05
   4.573485e+05   3.419101e+05
   6.608865e+04   3.934998e+05
  -1.205416e+06   1.946455e+05
  -2.151710e+06  -3.804295e+05
  -1.657420e+06  -1.105277e+06
   9.119636e+04  -1.499257e+06
   1.694332e+06  -1.165185e+06
   1.903649e+06  -2.419557e+05
   8.340279e+05   5.592723e+05
  -2.974740e+05   6.016801e+05
  -5.364174e+05   9.287415e+03
  -3.521523e+04  -4.650806e+05
   4.472773e+05  -2.751987e+05
   5.008836e+05   3.574178e+05
   2.927938e+05   7.475493e+05
   1.281031e+05   5.013151e+05
   1.332033e+05  -7.435061e+04
   2.579494e+05  -2.771064e+05
   2.754155e+05   2.446136e+05
  -1.336768e+05   1.010756e+06
  -9.407315e+05   1.101643e+06
  -1.455609e+06   1.853090e+05
  -9.162848e+05  -9.593971e+05
   4.443433e+05  -1.208309e+06
   1.334447e+06  -3.697431e+05
   7.632712e+05   5.865679e+05
  -7.382461e+05   6.552106e+05
  -1.619225e+06  -1.288374e+05
  -9.805304e+05  -8.987956e+05
   5.377148e+05  -9.785479e+05
   1.529933e+06  -4.313213e+05
   1.231360e+06   2.277857e+05
   1.166217e+05   5.186758e+05
  -6.736894e+05   2.533861e+05
  -4.050334e+05  -3.216358e+05
   5.930695e+05  -5.603659e+05
   1.233350e+06   5.928454e+04
   7.304894e+05   1.215753e+06
  -5.736826e+05   1.784319e+06
  -1.520778e+06   9.453036e+05
  -1.302028e+06  -7.698765e+05
  -2.131071e+05  -1.842540e+06
   7.628690e+05  -1.311526e+06
   9.408879e+05   2.109939e+05
   4.110384e+05   1.229717e+06
  -2.632750e+05   9.705507e+05
  -5.884691e+05   6.637356e+04
  -4.532741e+05  -3.792494e+05
  -1.393668e+05  -1.263557e+05
  -6.051959e+04   8.613924e+04
  -3.284250e+05  -3.359408e+05
  -5.383749e+05  -1.011313e+06
  -1.569896e+05  -1.098788e+06
   7.810637e+05  -3.897580e+05
   1.514598e+06   4.808287e+05
   1.282101e+06   8.593569e+05
   1.833174e+05   7.283519e+05
  -8.491612e+05   4.419141e+05
  -1.001280e+06   1.763372e+05
  -3.967615e+05  -8.059501e+04
   1.378680e+05  -2.390495e+05
   7.321123e+04  -1.841710e+05
  -2.350805e+05  -6.594039e+04
  -7.016664e+04  -1.380770e+05
   6.397449e+05  -2.715031e+05
   1.091131e+06  -4.557516e+03
   5.145647e+05   7.339266e+05
  -8.280733e+05   1.257650e+06
  -1.792119e+06   8.191376e+05
  -1.523974e+06  -4.231882e+05
  -3.123471e+05  -1.449623e+06
   8.012847e+05  -1.441915e+06
   1.090197e+06  -5.949395e+05
   6.782310e+05   2.095001e+05
   1.607385e+05   3.746907e+05
  -3.732721e+04   1.036374e+05
   9.342836e+04   1.611954e+04
   2.893429e+05   3.893947e+05
   2.422770e+05   8.327388e+05
  -1.729634e+05   7.167540e+05
  -7.030124e+05  -8.619872e+04
  -8.076450e+05  -9.526284e+05
  -1.809880e+05  -1.081746e+06
   7.568847e+05  -3.146019e+05
   1.102279e+06   6.960278e+05
   4.029858e+05   1.133255e+06
  -7.300696e+05   7.459391e+05
  -1.185757e+06  -5.582407e+04
  -5.789422e+05  -6.658664e+05
   3.007227e+05  -7.483072e+05
   4.298528e+05  -3.890941e+05
  -2.164423e+05   1.671342e+04
  -6.626496e+05   5.646881e+04
  -1.688203e+05  -3.285030e+05
   8.478290e+05  -7.059271e+05
   1.331629e+06  -5.339112e+05
   8.296887e+05   2.171631e+05
  -8.950868e+04   9.201257e+05
  -6.042301e+05   9.051684e+05
  -4.880893e+05   1.972980e+05
  -8.744400e+04  -4.816779e+05
   2.382383e+05  -4.795056e+05
   3.705273e+05   1.084600e+05
   2.771471e+05   5.949285e+05
  -4.421455e+04   4.817688e+05
  -4.104808e+05  -2.400607e+04
  -5.063627e+05  -3.151332e+05
  -2.491708e+05  -1.220696e+05
   5.290036e+04   1.898173e+05
   7.693023e+04   1.091373e+05
  -7.702100e+04  -3.490824e+05
  -2.848099e+04  -6.278302e+05
   3.135116e+05  -3.089511e+05
   5.420117e+05   3.466983e+05
   2.452391e+05   6.741484e+05
  -4.010989e+05   3.557441e+05
  -7.250022e+05  -2.567980e+05
  -2.956295e+05  -5.776752e+05
   5.344051e+05  -3.909808e+05
   9.442681e+05   5.006943e+04
   5.152815e+05   3.853981e+05
  -3.033591e+05   4.510324e+05
  -6.765567e+05   2.831999e+05
  -2.934174e+05   2.472621e+04
   3.170342e+05  -1.170777e+05
   4.127199e+05   9.868060e+03
  -1.277331e+05   2.822518e+05
  -7.047806e+05   3.045141e+05
