
 $NMID
 id='ANONYMOUS ', fmtdat='(2E16.6)'
 volume=1.0
 tramp=1.0
 $END
   2.295983e+07  -5.064908e+05
   1.552783e+07   1.075850e+07
   7.827806e+04   1.468832e+07
  -9.884296e+06   9.626626e+06
  -8.277490e+06   8.326281e+05
  -4.729205e+05  -4.146145e+06
   4.624640e+06  -1.999947e+06
   3.456088e+06   3.675293e+06
  -1.075981e+06   6.234089e+06
  -4.267238e+06   2.802187e+06
  -3.755238e+06  -2.890035e+06
  -5.597076e+05  -4.757908e+06
   2.181052e+06  -1.063988e+06
   1.821232e+06   3.873471e+06
  -1.280230e+06   4.638655e+06
  -3.841790e+06   4.631048e+05
  -2.918504e+06  -4.468570e+06
   9.544728e+05  -5.734310e+06
   4.342203e+06  -2.819095e+06
   4.515834e+06   1.208159e+06
   2.028439e+06   3.181737e+06
  -2.316252e+05   2.612043e+06
  -1.391018e+05   1.459391e+06
   1.556521e+06   1.679922e+06
   2.040437e+06   3.119395e+06
  -4.989658e+05   3.808696e+06
  -4.487444e+06   2.274545e+06
  -6.127050e+06  -6.990367e+05
  -3.452014e+06  -2.809795e+06
   1.155857e+06  -2.533045e+06
   3.295899e+06  -4.293641e+05
   1.305998e+06   1.572186e+06
  -2.151449e+06   1.783127e+06
  -3.393943e+06  -6.017050e+04
  -1.672131e+06  -2.502268e+06
   7.245070e+05  -3.302109e+06
   1.524122e+06  -1.512518e+06
   6.504820e+05   1.114810e+06
  -4.113623e+05   1.653187e+06
  -4.387908e+05  -5.362476e+05
   5.812355e+05  -2.684299e+06
   1.664442e+06  -1.872600e+06
   1.619886e+06   1.165246e+06
   8.601926e+04   2.781777e+06
  -1.791695e+06   9.328543e+05
  -2.047229e+06  -2.327627e+06
   1.460170e+05  -3.395889e+06
   3.183115e+06  -1.209216e+06
   4.213139e+06   1.996793e+06
   1.964693e+06   3.418412e+06
  -1.757810e+06   2.274701e+06
  -3.699547e+06  -6.981015e+04
  -2.341864e+06  -1.660274e+06
   6.683355e+05  -1.481451e+06
   2.327528e+06  -7.665242e+04
   1.362409e+06   1.024862e+06
  -6.763427e+05   7.613529e+05
  -1.357651e+06  -4.117926e+05
  -9.221354e+04  -1.081707e+06
   1.366064e+06  -4.763079e+05
   1.062104e+06   7.452357e+05
  -8.780422e+05   1.273559e+06
  -2.350293e+06   4.161889e+05
  -1.549029e+06  -1.378416e+06
   1.120989e+06  -2.841018e+06
   3.481948e+06  -2.676321e+06
   3.757718e+06  -5.857745e+05
   2.142897e+06   2.176749e+06
   2.771878e+05   3.670710e+06
  -5.618413e+05   3.122774e+06
  -5.379696e+05   1.682187e+06
  -6.526293e+05   9.394382e+05
  -1.407146e+06   9.814210e+05
  -2.258926e+06   5.437199e+05
  -2.267927e+06  -9.664767e+05
  -1.074197e+06  -2.368003e+06
   7.118620e+05  -2.044220e+06
   1.894927e+06   2.314920e+04
   1.538068e+06   2.072918e+06
  -2.325304e+05   2.353896e+06
  -2.117556e+06   7.653418e+05
  -2.620910e+06  -1.273569e+06
  -1.438950e+06  -2.286808e+06
   2.224421e+05  -1.965087e+06
   9.748872e+05  -1.134112e+06
   8.008312e+05  -7.261267e+05
   9.184981e+05  -8.345729e+05
   2.038600e+06  -7.338697e+05
   3.190436e+06   2.395708e+05
   2.697810e+06   1.877909e+06
   2.314403e+05   3.150279e+06
  -2.516633e+06   3.031392e+06
  -3.404952e+06   1.394748e+06
  -1.956465e+06  -7.361131e+05
   2.439130e+05  -1.869849e+06
   1.197571e+06  -1.293392e+06
   3.881447e+05   1.842846e+05
  -9.646874e+05   9.469698e+05
  -1.354172e+06   2.728867e+05
  -5.039348e+05  -8.421276e+05
   5.397398e+05  -8.870146e+05
   6.214987e+05   2.416643e+05
  -3.663534e+05   9.999216e+05
  -1.440242e+06   5.948570e+04
  -1.443113e+06  -1.974587e+06
  -3.586409e+04  -3.100949e+06
   1.967445e+06  -2.066125e+06
   3.137087e+06   3.583610e+05
   2.540456e+06   2.246487e+06
   6.173356e+05   2.388598e+06
  -1.088122e+06   1.214603e+06
  -1.332367e+06   9.844347e+04
  -3.899995e+05  -3.077369e+04
   3.055493e+05   5.731296e+05
  -1.912414e+05   9.396641e+05
  -1.263439e+06   4.705309e+05
  -1.503348e+06  -4.578234e+05
  -4.334844e+05  -9.446145e+05
   8.507493e+05  -5.357899e+05
   8.761622e+05   3.143115e+05
  -5.304305e+05   7.049872e+05
  -1.956466e+06   1.401946e+05
  -1.832761e+06  -1.022845e+06
  -6.516114e+04  -1.847705e+06
   1.832487e+06  -1.579647e+06
   2.230561e+06  -3.385345e+05
   9.587764e+05   8.724624e+05
  -6.201447e+05   1.031808e+06
  -1.028758e+06   1.344102e+05
  -7.220683e+04  -7.406048e+05
   1.138076e+06  -5.676790e+05
   1.383680e+06   4.876384e+05
   4.746527e+05   1.271694e+06
  -6.914992e+05   9.707805e+05
  -1.049803e+06   4.067652e+01
  -3.730244e+05  -5.366110e+05
   5.176722e+05  -9.377209e+04
   5.511041e+05   7.834314e+05
  -4.753906e+05   1.095823e+06
  -1.587000e+06   3.949442e+05
  -1.584281e+06  -8.254006e+05
  -3.352748e+05  -1.595911e+06
   1.035556e+06  -1.315965e+06
   1.326945e+06  -2.683758e+05
   4.871988e+05   6.357379e+05
  -4.624806e+05   6.950905e+05
  -6.020402e+05   6.391368e+04
  -2.885195e+03  -4.703187e+05
   5.302716e+05  -3.668088e+05
   3.984317e+05   9.723552e+04
  -1.989241e+05   2.064419e+05
  -5.109987e+05  -3.089822e+05
  -1.088651e+04  -9.034609e+05
   1.017407e+06  -7.755759e+05
   1.650278e+06   2.581774e+05
   1.182655e+06   1.497111e+06
  -1.319672e+05   1.963778e+06
  -1.280731e+06   1.289557e+06
  -1.484669e+06   3.924149e+04
  -9.101171e+05  -8.254471e+05
  -3.324271e+05  -8.306660e+05
  -2.177918e+05  -3.636659e+05
  -3.030190e+05  -1.642925e+05
  -5.651673e+04  -4.734695e+05
   6.133559e+05  -7.680412e+05
   1.183213e+06  -3.947349e+05
   9.971498e+05   5.898804e+05
  -7.250053e+04   1.333520e+06
  -1.367270e+06   1.008353e+06
  -1.867132e+06  -3.072036e+05
  -1.041413e+06  -1.615628e+06
   6.040730e+05  -1.888513e+06
   1.885922e+06  -9.794742e+05
   1.961072e+06   3.117328e+05
   1.020793e+06   1.038761e+06
  -1.813167e+04   9.561571e+05
  -4.408513e+05   5.987818e+05
  -3.071800e+05   5.793031e+05
  -1.879351e+05   8.833081e+05
  -4.681519e+05   9.165463e+05
  -9.426772e+05   2.353985e+05
  -1.044210e+06  -8.555420e+05
  -4.527358e+05  -1.511182e+06
   4.962751e+05  -1.155829e+06
   1.041572e+06  -5.298328e+04
   7.143497e+05   9.321426e+05
  -1.630398e+05   1.105509e+06
  -7.743852e+05   4.902359e+05
  -6.393792e+05  -3.142975e+05
  -7.694642e+04  -7.308584e+05
   2.151409e+05  -6.588309e+05
  -2.041810e+04  -4.132724e+05
  -3.132944e+05  -3.048793e+05
  -2.928465e+04  -3.227220e+05
   8.420061e+05  -2.119021e+05
   1.551256e+06   1.898365e+05
   1.303418e+06   7.305312e+05
   1.153633e+05   1.050156e+06
  -1.103135e+06   8.926193e+05
  -1.402420e+06   3.408948e+05
  -7.175580e+05  -2.161983e+05
   1.338461e+05  -3.807633e+05
   3.629632e+05  -1.019943e+05
  -1.976013e+04   2.371635e+05
  -4.025066e+05   1.828132e+05
  -3.690325e+05  -2.696814e+05
  -9.096416e+04  -6.081396e+05
   3.030738e+04  -3.893736e+05
  -1.218818e+05   1.607983e+05
  -3.113322e+05   3.408890e+05
  -2.461675e+05  -1.674805e+05
   1.583894e+05  -8.304315e+05
   6.964759e+05  -8.405751e+05
   9.431859e+05  -7.868666e+04
   5.513874e+05   7.231193e+05
  -3.164180e+05   8.025545e+05
  -9.186312e+05   1.698748e+05
  -5.747762e+05  -4.872940e+05
   5.213573e+05  -5.527848e+05
   1.326307e+06  -1.355116e+04
   9.784121e+05   6.450769e+05
  -2.557402e+05   8.998528e+05
  -1.227731e+06   5.754761e+05
  -1.101447e+06  -4.629116e+04
  -1.775064e+05  -4.395885e+05
   5.034761e+05  -2.833043e+05
   2.742097e+05   1.929927e+05
  -5.185585e+05   3.687082e+05
  -9.392633e+05  -1.395383e+05
  -4.448324e+05  -9.868867e+05
   5.828701e+05  -1.329640e+06
   1.246457e+06  -6.470588e+05
   1.014236e+06   6.447336e+05
   1.636482e+05   1.474774e+06
  -5.900597e+05   1.118296e+06
  -7.746398e+05  -6.066009e+04
  -4.394210e+05  -9.531071e+05
   7.103478e+04  -8.454464e+05
   4.265434e+05  -1.162401e+05
   4.534254e+05   3.189562e+05
   2.126370e+05   1.360325e+05
   8.627609e+03  -1.027910e+05
   1.181558e+05   1.816566e+05
   3.816378e+05   7.559423e+05
   2.607429e+05   8.931857e+05
  -4.682761e+05   3.468591e+05
  -1.219215e+06  -3.665836e+05
  -1.138001e+06  -6.684509e+05
  -1.682670e+05  -5.469614e+05
   7.668093e+05  -3.384837e+05
   8.274772e+05  -1.863998e+05
   2.289056e+05  -7.102385e+03
  -1.465076e+05   1.758934e+05
   6.268743e+04   2.133144e+05
   3.112943e+05   1.280521e+05
   4.195840e+03   1.131366e+05
  -6.377457e+05   1.562721e+05
  -8.352998e+05  -3.498405e+04
  -2.122067e+05  -5.418180e+05
   7.687061e+05  -8.967479e+05
   1.309180e+06  -5.458187e+05
   1.024619e+06   3.996526e+05
   1.866596e+05   1.153549e+06
  -5.935544e+05   1.082568e+06
  -8.458661e+05   3.724902e+05
  -5.433599e+05  -2.397396e+05
  -6.824010e+04  -2.877396e+05
   1.367361e+05   1.972035e+03
  -3.629319e+04   7.684533e+04
  -2.868850e+05  -2.695847e+05
  -2.377914e+05  -6.534395e+05
   1.632914e+05  -5.294889e+05
   5.681531e+05   1.595012e+05
   5.426715e+05   8.291915e+05
  -5.884279e+03   8.232517e+05
  -6.615944e+05   1.140861e+05
  -8.063801e+05  -6.625825e+05
  -2.228918e+05  -8.758761e+05
   5.908859e+05  -4.820975e+05
   8.607254e+05   8.673841e+04
   3.798262e+05   4.361919e+05
  -2.262149e+05   4.690679e+05
  -2.361292e+05   2.788615e+05
   2.771937e+05   3.866484e+04
   5.453563e+05  -1.784110e+04
   9.116535e+04   2.338274e+05
  -6.682819e+05   5.582654e+05
  -9.526466e+05   4.939273e+05
  -5.389006e+05  -8.275562e+04
   8.605072e+04  -6.713538e+05
   3.796344e+05  -6.596906e+05
   2.665500e+05  -7.464723e+04
   1.074339e+03   4.188184e+05
  -2.085483e+05   3.091735e+05
  -2.878903e+05  -1.884971e+05
  -1.928249e+05  -4.697208e+05
   6.184539e+04  -2.818241e+05
   3.125148e+05   6.747616e+04
   3.597099e+05   1.796637e+05
   1.952930e+05   3.540407e+04
   7.083852e+03  -6.691839e+04
  -6.655898e+04   7.687414e+04
  -8.772815e+04   3.292592e+05
  -1.775329e+05   3.672554e+05
  -3.009578e+05   4.907120e+04
  -2.764188e+05  -3.894546e+05
  -1.664767e+03  -5.337310e+05
   3.658511e+05  -2.180077e+05
   4.890596e+05   2.739589e+05
   1.670433e+05   4.918556e+05
  -3.906189e+05   2.831358e+05
  -6.714171e+05  -9.542765e+04
  -3.648018e+05  -3.086679e+05
   2.386368e+05  -2.703285e+05
   4.981349e+05  -1.181211e+05
   1.482904e+05  -3.065174e+03
  -3.551280e+05  -2.424734e+03
  -3.580786e+05  -1.305426e+05
   1.993256e+05  -2.799841e+05
   7.031894e+05  -2.122416e+05
