
 $NMID
 id='ANONYMOUS ', fmtdat='(2E16.6)'
 volume=1.0
 tramp=1.0
 $END
   4.716301e+07  -5.005702e+05
   2.907642e+07   2.784009e+07
  -4.999970e+06   3.162761e+07
  -2.249790e+07   1.360938e+07
  -1.428458e+07  -4.525037e+06
   2.107693e+06  -7.909841e+06
   8.393326e+06   1.289634e+05
   3.145474e+06   8.017801e+06
  -4.609584e+06   8.629675e+06
  -8.139939e+06   2.392722e+06
  -6.199580e+06  -5.251613e+06
  -8.361595e+05  -7.605854e+06
   3.508711e+06  -2.315771e+06
   2.516061e+06   5.070597e+06
  -2.991499e+06   6.150117e+06
  -6.790091e+06  -7.274846e+05
  -4.154085e+06  -8.599622e+06
   2.882681e+06  -1.019668e+07
   8.490786e+06  -5.150103e+06
   9.109236e+06   1.769203e+06
   5.377104e+06   6.283855e+06
   4.500548e+05   6.949630e+06
  -2.074961e+06   4.738369e+06
  -7.641601e+05   2.416236e+06
   1.507829e+06   2.506069e+06
   8.388191e+04   4.201104e+06
  -5.239395e+06   3.921392e+06
  -8.828017e+06   2.259035e+05
  -6.141529e+06  -3.771418e+06
   1.607434e+05  -4.417981e+06
   3.696921e+06  -2.010316e+06
   2.202348e+06   4.858926e+05
  -1.102491e+06   1.291318e+06
  -2.726239e+06   3.901542e+05
  -2.144867e+06  -1.802900e+06
  -3.097810e+05  -3.870087e+06
   1.745063e+06  -3.237118e+06
   2.508944e+06   4.322834e+05
   1.094426e+06   3.111974e+06
  -7.035712e+05   1.182759e+06
  -9.847795e+04  -2.627747e+06
   2.246470e+06  -2.268866e+06
   2.274200e+06   2.602103e+06
  -1.632086e+06   5.224853e+06
  -5.457842e+06   1.046118e+06
  -4.307872e+06  -5.604751e+06
   1.338984e+06  -7.114981e+06
   6.252185e+06  -2.148832e+06
   6.311861e+06   3.718557e+06
   2.004639e+06   5.337953e+06
  -2.987210e+06   2.688514e+06
  -4.923304e+06  -1.034261e+06
  -2.507919e+06  -2.961720e+06
   1.894608e+06  -2.044196e+06
   3.950075e+06   5.861011e+05
   1.837463e+06   2.228344e+06
  -1.418825e+06   1.225289e+06
  -1.680111e+06  -8.357236e+05
   8.783682e+05  -1.002395e+06
   2.183439e+06   1.048868e+06
  -6.700798e+04   2.641953e+06
  -3.517072e+06   1.770896e+06
  -4.494187e+06  -7.741503e+05
  -2.163841e+06  -3.223501e+06
   1.592897e+06  -4.661193e+06
   4.632934e+06  -4.351118e+06
   5.592411e+06  -1.484242e+06
   3.968264e+06   2.908145e+06
   8.164955e+05   5.553839e+06
  -1.442379e+06   4.399947e+06
  -1.388428e+06   1.427898e+06
  -3.164154e+05   1.492803e+05
  -4.334548e+05   1.042703e+06
  -1.874214e+06   1.480199e+06
  -2.755248e+06  -1.146636e+05
  -1.828903e+06  -2.132208e+06
   1.835585e+05  -2.207575e+06
   1.728599e+06  -1.712140e+05
   1.733040e+06   2.128449e+06
  -3.445671e+04   2.858033e+06
  -2.642124e+06   1.457218e+06
  -4.044036e+06  -1.218428e+06
  -2.785866e+06  -3.384232e+06
   6.730199e+04  -3.634236e+06
   1.908323e+06  -2.307092e+06
   1.826694e+06  -1.056243e+06
   1.584164e+06  -7.746508e+05
   2.743048e+06  -6.160550e+05
   4.136467e+06   5.655843e+05
   3.390541e+06   2.535861e+06
   2.193709e+05   3.962094e+06
  -3.055913e+06   3.807406e+06
  -4.062177e+06   2.020235e+06
  -2.543040e+06  -5.098197e+05
  -1.460789e+05  -2.207912e+06
   1.155193e+06  -1.819864e+06
   5.314427e+05   7.992907e+04
  -1.076038e+06   1.258467e+06
  -1.797477e+06   3.947297e+05
  -8.348317e+05  -1.126482e+06
   5.314416e+05  -1.093019e+06
   5.122304e+05   3.469708e+05
  -8.639760e+05   8.288828e+05
  -1.791618e+06  -8.760684e+05
  -9.607223e+05  -3.105739e+06
   1.074638e+06  -3.440251e+06
   2.846937e+06  -1.495589e+06
   3.385235e+06   1.098739e+06
   2.483472e+06   2.660802e+06
   5.610767e+05   2.630217e+06
  -1.221252e+06   1.458087e+06
  -1.559479e+06   2.161855e+05
  -4.797862e+05  -3.683966e+04
   3.641388e+05   7.202998e+05
  -3.455536e+05   1.269200e+06
  -1.771475e+06   5.855885e+05
  -1.952169e+06  -7.647117e+05
  -4.287435e+05  -1.316887e+06
   1.109168e+06  -5.944715e+05
   9.238532e+05   4.163231e+05
  -7.719871e+05   6.053553e+05
  -2.191727e+06  -1.604194e+05
  -1.852976e+06  -1.277272e+06
   1.334466e+05  -2.006177e+06
   2.225028e+06  -1.720742e+06
   2.705853e+06  -3.369335e+05
   1.196300e+06   1.178059e+06
  -8.467760e+05   1.423138e+06
  -1.453598e+06   1.948686e+05
  -1.798641e+05  -1.016224e+06
   1.449914e+06  -7.297716e+05
   1.687951e+06   7.013489e+05
   4.099397e+05   1.591421e+06
  -9.971340e+05   1.020809e+06
  -1.240795e+06  -2.144628e+05
  -3.003959e+05  -7.312088e+05
   7.411386e+05  -7.580853e+04
   7.201323e+05   1.003588e+06
  -5.506167e+05   1.386154e+06
  -1.950318e+06   5.429087e+05
  -1.988567e+06  -9.976228e+05
  -4.074641e+05  -2.003191e+06
   1.352753e+06  -1.621003e+06
   1.666460e+06  -2.545712e+05
   5.250555e+05   8.240134e+05
  -6.144012e+05   8.070729e+05
  -6.463345e+05   8.443678e+04
   7.972294e+04  -4.063003e+05
   5.153054e+05  -2.713411e+05
   2.107165e+05   7.092394e+04
  -3.867400e+05   7.301148e+03
  -5.385754e+05  -5.807929e+05
   1.364000e+05  -1.145407e+06
   1.312713e+06  -9.072230e+05
   2.033178e+06   3.582555e+05
   1.457165e+06   1.863947e+06
  -1.695030e+05   2.375080e+06
  -1.554550e+06   1.446122e+06
  -1.688661e+06  -5.929432e+04
  -9.163206e+05  -8.933147e+05
  -3.463000e+05  -7.227920e+05
  -4.235495e+05  -2.668789e+05
  -5.561309e+05  -2.763164e+05
  -9.098115e+04  -7.049918e+05
   8.184319e+05  -9.029368e+05
   1.415574e+06  -3.746277e+05
   1.080276e+06   6.936453e+05
  -1.864971e+05   1.475095e+06
  -1.663392e+06   1.112196e+06
  -2.220411e+06  -4.205856e+05
  -1.170912e+06  -2.016616e+06
   8.984349e+05  -2.318438e+06
   2.425273e+06  -1.080593e+06
   2.323955e+06   5.514521e+05
   1.023885e+06   1.282299e+06
  -1.436497e+05   9.818400e+05
  -4.084104e+05   5.609604e+05
  -1.388714e+05   7.342319e+05
  -1.182517e+05   1.232471e+06
  -6.209980e+05   1.232498e+06
  -1.233237e+06   3.201803e+05
  -1.312716e+06  -1.036332e+06
  -5.699486e+05  -1.842255e+06
   5.888093e+05  -1.413577e+06
   1.258688e+06  -2.989777e+04
   8.263498e+05   1.215190e+06
  -3.212638e+05   1.362636e+06
  -1.082821e+06   4.555454e+05
  -7.938718e+05  -6.010788e+05
   5.872041e+04  -1.011712e+06
   4.522086e+05  -7.763663e+05
   5.109892e+04  -4.288952e+05
  -4.188404e+05  -3.332631e+05
  -5.855905e+04  -3.785705e+05
   1.096673e+06  -2.309842e+05
   1.990040e+06   2.783217e+05
   1.594048e+06   9.638130e+05
   2.086726e+04   1.371932e+06
  -1.490612e+06   1.126057e+06
  -1.765787e+06   3.270583e+05
  -8.317684e+05  -4.207049e+05
   2.278588e+05  -5.369526e+05
   4.850298e+05  -5.979908e+04
   2.150093e+04   3.839092e+05
  -4.428762e+05   2.528170e+05
  -4.707006e+05  -3.266180e+05
  -2.277401e+05  -7.129231e+05
  -7.146834e+04  -4.703799e+05
  -1.346175e+05   1.177585e+05
  -2.908479e+05   3.200492e+05
  -2.789409e+05  -2.178445e+05
   1.358511e+05  -9.776754e+05
   8.578192e+05  -1.050501e+06
   1.290393e+06  -1.715094e+05
   8.109827e+05   8.814804e+05
  -3.871074e+05   1.090243e+06
  -1.202934e+06   3.201606e+05
  -7.227044e+05  -5.569711e+05
   6.659775e+05  -6.514737e+05
   1.566022e+06   4.767838e+04
   1.038300e+06   8.150319e+05
  -4.240871e+05   9.984084e+05
  -1.461868e+06   5.374745e+05
  -1.234628e+06  -1.409123e+05
  -1.562414e+05  -5.064658e+05
   6.259700e+05  -2.886480e+05
   3.710660e+05   2.723026e+05
  -5.771330e+05   5.089228e+05
  -1.158075e+06  -7.824692e+04
  -6.549151e+05  -1.155998e+06
   5.752190e+05  -1.670008e+06
   1.451827e+06  -8.782165e+05
   1.244312e+06   7.290584e+05
   2.285209e+05   1.759235e+06
  -7.019462e+05   1.296704e+06
  -9.143508e+05  -1.401156e+05
  -4.609929e+05  -1.157989e+06
   1.764706e+05  -9.647725e+05
   5.431725e+05  -1.008884e+05
   4.791470e+05   3.641408e+05
   1.794102e+05   1.357075e+05
   3.945720e+04  -9.887777e+04
   2.564369e+05   2.756666e+05
   5.091733e+05   9.348655e+05
   2.262890e+05   1.056747e+06
  -6.723471e+05   4.023346e+05
  -1.459390e+06  -4.291723e+05
  -1.289125e+06  -7.958321e+05
  -1.963729e+05  -6.783666e+05
   8.439931e+05  -4.274836e+05
   9.673529e+05  -2.033806e+05
   3.425704e+05   3.813068e+04
  -1.440379e+05   2.233772e+05
  -1.453801e+04   2.082519e+05
   2.792348e+05   9.470533e+04
   4.612103e+04   1.314288e+05
  -6.626259e+05   2.404427e+05
  -1.026258e+06   4.210291e+03
  -4.155563e+05  -6.711801e+05
   8.184466e+05  -1.165287e+06
   1.644924e+06  -7.637606e+05
   1.376891e+06   4.059822e+05
   2.926471e+05   1.378074e+06
  -7.226241e+05   1.360392e+06
  -1.020571e+06   5.399692e+05
  -6.510728e+05  -2.221326e+05
  -1.328020e+05  -3.497310e+05
   8.019716e+04  -6.052277e+04
  -7.391073e+04   2.627188e+04
  -3.077130e+05  -3.503329e+05
  -2.638598e+05  -7.877747e+05
   1.650230e+05  -6.682647e+05
   6.748304e+05   1.120360e+05
   7.399639e+05   9.270871e+05
   1.233135e+05   1.010960e+06
  -7.419274e+05   2.505515e+05
  -1.029739e+06  -6.947790e+05
  -3.588862e+05  -1.062716e+06
   6.883543e+05  -6.735573e+05
   1.095384e+06   5.289310e+04
   5.282419e+05   5.842012e+05
  -2.681112e+05   6.630557e+05
  -3.570937e+05   3.658077e+05
   2.520488e+05   5.305478e+03
   6.392615e+05  -5.164713e+04
   1.474072e+05   2.981787e+05
  -7.957241e+05   6.851821e+05
  -1.216654e+06   5.618867e+05
  -7.428667e+05  -1.531040e+05
   7.719248e+04  -8.524809e+05
   5.173994e+05  -8.478022e+05
   4.077792e+05  -1.610482e+05
   5.990503e+04   4.731666e+05
  -2.274945e+05   4.289835e+05
  -3.507366e+05  -1.430528e+05
  -2.613184e+05  -5.616426e+05
   4.522955e+04  -4.151939e+05
   3.852055e+05   3.790994e+04
   4.700064e+05   2.610398e+05
   2.392750e+05   8.538598e+04
  -3.283077e+04  -1.424257e+05
  -7.985499e+04  -3.063300e+04
   1.208481e+04   3.526243e+05
  -4.997419e+04   5.373260e+05
  -3.144666e+05   2.117976e+05
  -4.523810e+05  -3.707164e+05
  -1.586839e+05  -6.357290e+05
   3.971845e+05  -3.161379e+05
   6.560011e+05   2.636847e+05
   2.602472e+05   5.601742e+05
  -4.884592e+05   3.693932e+05
  -8.658585e+05  -5.695368e+04
  -4.776162e+05  -3.602959e+05
   2.802143e+05  -3.959356e+05
   6.221106e+05  -2.336810e+05
   2.417529e+05  -2.195066e+04
  -3.449376e+05   7.272111e+04
  -4.054056e+05  -5.790716e+04
   1.616977e+05  -2.944048e+05
   7.306734e+05  -2.859049e+05
