
 $NMID
 id='ANONYMOUS ', fmtdat='(2E16.6)'
 volume=1.0
 tramp=1.0
 $END
  -5.238405e+07  -1.245382e+06
  -3.065500e+07  -3.336219e+07
   7.918403e+06  -3.533479e+07
   2.604617e+07  -1.282686e+07
   1.508715e+07   7.073933e+06
  -3.376546e+06   8.585405e+06
  -9.079437e+06  -1.482595e+06
  -2.248115e+06  -9.159964e+06
   6.042771e+06  -8.419289e+06
   8.997301e+06  -1.542818e+06
   6.322420e+06   5.895868e+06
   5.646194e+05   7.948404e+06
  -3.740136e+06   2.470934e+06
  -2.292082e+06  -5.024763e+06
   3.654698e+06  -5.901127e+06
   7.257819e+06   1.466718e+06
   3.853358e+06   9.568378e+06
  -3.799877e+06   1.083970e+07
  -9.509983e+06   5.256638e+06
  -1.000399e+07  -2.114873e+06
  -6.040267e+06  -7.095849e+06
  -4.921540e+05  -8.110681e+06
   2.894157e+06  -5.626560e+06
   1.909442e+06  -2.435317e+06
  -8.984133e+05  -1.905330e+06
  -1.854919e+05  -3.774061e+06
   4.990999e+06  -3.952643e+06
   8.878924e+06  -3.132876e+05
   6.437548e+06   3.924490e+06
   1.990444e+05   4.690325e+06
  -3.416799e+06   2.351899e+06
  -2.288691e+06   4.825067e+04
   4.796717e+05  -7.890327e+05
   2.000483e+06  -4.272674e+05
   1.975191e+06   1.274193e+06
   6.213025e+05   3.582469e+06
  -1.713321e+06   3.552465e+06
  -3.041400e+06  -1.063043e+05
  -1.575846e+06  -3.408933e+06
   7.560842e+05  -1.844041e+06
   3.081036e+05   2.206085e+06
  -2.301217e+06   2.044744e+06
  -2.177581e+06  -3.029152e+06
   2.442142e+06  -5.638574e+06
   6.537285e+06  -7.705775e+05
   4.616284e+06   6.574984e+06
  -1.990550e+06   7.894237e+06
  -6.950118e+06   2.080353e+06
  -6.301250e+06  -4.277351e+06
  -1.527285e+06  -5.602993e+06
   3.275839e+06  -2.390079e+06
   4.783875e+06   1.561791e+06
   2.114056e+06   3.286726e+06
  -2.311528e+06   1.963526e+06
  -4.168456e+06  -9.786790e+05
  -1.727861e+06  -2.577353e+06
   1.628650e+06  -1.228111e+06
   1.565334e+06   9.940235e+05
  -1.281178e+06   7.932883e+05
  -2.251902e+06  -1.741458e+06
   7.072437e+05  -3.220536e+06
   4.392355e+06  -1.649515e+06
   4.894096e+06   1.418909e+06
   2.042948e+06   3.759453e+06
  -1.770085e+06   4.825919e+06
  -4.692352e+06   4.366003e+06
  -5.740165e+06   1.500800e+06
  -4.184012e+06  -2.991406e+06
  -7.537474e+05  -5.708363e+06
   1.844240e+06  -4.344730e+06
   1.678069e+06  -1.043561e+06
   1.213627e+05   2.886496e+05
  -7.359957e+04  -8.844693e+05
   1.455063e+06  -1.643109e+06
   2.575110e+06  -2.162271e+05
   1.840693e+06   1.768439e+06
   1.387656e+04   1.948223e+06
  -1.395565e+06   1.647676e+05
  -1.483482e+06  -1.916469e+06
   4.740603e+04  -2.685944e+06
   2.569313e+06  -1.482398e+06
   4.108391e+06   1.165897e+06
   2.920815e+06   3.536985e+06
  -1.117757e+05   3.931084e+06
  -2.177643e+06   2.487395e+06
  -2.113336e+06   1.003055e+06
  -1.720002e+06   5.720812e+05
  -2.721899e+06   3.575101e+05
  -3.983018e+06  -8.120551e+05
  -3.138675e+06  -2.630502e+06
  -2.031949e+04  -3.796402e+06
   3.031503e+06  -3.511158e+06
   3.872927e+06  -1.868972e+06
   2.437126e+06   4.235536e+05
   2.286328e+05   2.052766e+06
  -1.035547e+06   1.764812e+06
  -5.200891e+05  -3.682841e+04
   1.023793e+06  -1.184270e+06
   1.770941e+06  -3.262571e+05
   8.333159e+05   1.134698e+06
  -4.938604e+05   1.012349e+06
  -3.688688e+05  -3.729804e+05
   1.025573e+06  -5.917750e+05
   1.681470e+06   1.288933e+06
   4.600259e+05   3.266467e+06
  -1.618983e+06   3.076014e+06
  -2.944653e+06   8.792427e+05
  -2.976028e+06  -1.453269e+06
  -1.979656e+06  -2.587718e+06
  -3.386607e+05  -2.390341e+06
   1.168606e+06  -1.314213e+06
   1.451693e+06  -1.785277e+05
   4.527710e+05   5.412930e+04
  -3.108221e+05  -7.032022e+05
   4.223255e+05  -1.235240e+06
   1.789565e+06  -4.878683e+05
   1.861836e+06   8.844286e+05
   3.118478e+05   1.328949e+06
  -1.100758e+06   4.922604e+05
  -7.954794e+05  -4.459126e+05
   8.076649e+05  -4.364798e+05
   1.985299e+06   3.799182e+05
   1.538776e+06   1.298145e+06
  -2.989413e+05   1.788138e+06
  -2.168047e+06   1.447204e+06
  -2.561248e+06   1.754840e+05
  -1.092854e+06  -1.206803e+06
   8.919769e+05  -1.376725e+06
   1.460532e+06  -1.397243e+05
   1.673901e+05   1.011157e+06
  -1.422471e+06   6.452673e+05
  -1.565144e+06  -7.745093e+05
  -2.526665e+05  -1.536950e+06
   1.047837e+06  -8.572297e+05
   1.148426e+06   3.417420e+05
   1.911217e+05   7.357295e+05
  -7.476965e+05   2.696352e+04
  -6.585331e+05  -9.950632e+05
   5.633801e+05  -1.304825e+06
   1.867002e+06  -4.575292e+05
   1.857826e+06   1.017985e+06
   3.024366e+05   1.929584e+06
  -1.379139e+06   1.481436e+06
  -1.603218e+06   1.425844e+05
  -4.338773e+05  -8.198200e+05
   6.338352e+05  -7.202230e+05
   5.770089e+05  -5.472687e+04
  -1.281747e+05   3.123493e+05
  -4.454666e+05   1.607642e+05
  -8.210915e+04  -5.960209e+04
   4.275515e+05   1.075282e+05
   4.520883e+05   6.548470e+05
  -2.365606e+05   1.094641e+06
  -1.305412e+06   7.869274e+05
  -1.912036e+06  -4.388201e+05
  -1.304599e+06  -1.833306e+06
   2.610827e+05  -2.225267e+06
   1.524350e+06  -1.248216e+06
   1.541771e+06   1.708993e+05
   7.465768e+05   8.363678e+05
   2.686929e+05   5.776376e+05
   4.509477e+05   1.944141e+05
   5.908155e+05   3.120601e+05
   6.761163e+04   7.207243e+05
  -8.384060e+05   8.050895e+05
  -1.340665e+06   2.509509e+05
  -9.342094e+05  -6.898637e+05
   2.788167e+05  -1.322833e+06
   1.614434e+06  -9.324005e+05
   2.054381e+06   5.074069e+05
   9.816624e+05   1.970447e+06
  -1.008650e+06   2.158449e+06
  -2.384885e+06   8.747483e+05
  -2.143991e+06  -6.866916e+05
  -8.226569e+05  -1.260885e+06
   2.281784e+05  -8.462271e+05
   3.574843e+05  -4.410744e+05
   6.392060e+04  -6.950129e+05
   1.144122e+05  -1.219886e+06
   6.552823e+05  -1.184865e+06
   1.210227e+06  -2.661719e+05
   1.211717e+06   1.027892e+06
   4.693671e+05   1.760501e+06
  -6.065350e+05   1.310610e+06
  -1.184187e+06  -3.778986e+04
  -7.122836e+05  -1.212860e+06
   4.089558e+05  -1.279693e+06
   1.098785e+06  -3.287589e+05
   7.329110e+05   6.887006e+05
  -1.578513e+05   1.003358e+06
  -5.366428e+05   7.052087e+05
  -9.800537e+04   3.726795e+05
   3.959114e+05   3.152154e+05
   4.883490e+04   3.529915e+05
  -1.072889e+06   1.625365e+05
  -1.906524e+06  -3.620304e+05
  -1.466823e+06  -1.004304e+06
   8.447743e+04  -1.333942e+06
   1.511247e+06  -1.018355e+06
   1.702939e+06  -2.004538e+05
   7.516743e+05   4.959598e+05
  -2.624810e+05   5.277844e+05
  -4.782106e+05   1.056740e+04
  -2.448576e+04  -4.012235e+05
   4.080471e+05  -2.318639e+05
   4.390119e+05   3.262089e+05
   2.330650e+05   6.684207e+05
   9.253805e+04   4.432979e+05
   1.271241e+05  -7.317941e+04
   2.522718e+05  -2.494462e+05
   2.455426e+05   2.227561e+05
  -1.452370e+05   9.013389e+05
  -8.552678e+05   9.661350e+05
  -1.280556e+06   1.417448e+05
  -7.855869e+05  -8.626181e+05
   4.088233e+05  -1.058198e+06
   1.180114e+06  -3.001013e+05
   6.672200e+05   5.394071e+05
  -6.675935e+05   5.782638e+05
  -1.454913e+06  -1.362918e+05
  -8.827100e+05  -8.251060e+05
   4.883816e+05  -8.852168e+05
   1.388631e+06  -3.790508e+05
   1.115313e+06   2.196972e+05
   1.014759e+05   4.727813e+05
  -6.079444e+05   2.234359e+05
  -3.543833e+05  -2.866942e+05
   5.417284e+05  -4.799139e+05
   1.093016e+06   8.340404e+04
   6.157871e+05   1.096175e+06
  -5.547746e+05   1.569623e+06
  -1.376212e+06   8.044093e+05
  -1.146015e+06  -7.151554e+05
  -1.546946e+05  -1.652211e+06
   7.089692e+05  -1.166505e+06
   8.451265e+05   1.972197e+05
   3.565235e+05   1.110366e+06
  -2.437669e+05   8.767722e+05
  -5.264303e+05   5.643019e+04
  -4.063751e+05  -3.539190e+05
  -1.304739e+05  -1.240520e+05
  -5.350858e+04   8.118712e+04
  -2.773916e+05  -2.911981e+05
  -4.600463e+05  -9.073929e+05
  -1.320437e+05  -9.939451e+05
   6.924983e+05  -3.448160e+05
   1.347406e+06   4.577144e+05
   1.142520e+06   7.969362e+05
   1.539104e+05   6.526655e+05
  -7.760208e+05   3.733584e+05
  -9.039516e+05   1.417517e+05
  -3.481981e+05  -6.835425e+04
   1.307034e+05  -2.079624e+05
   6.030104e+04  -1.757908e+05
  -2.174587e+05  -7.692657e+04
  -5.484254e+04  -1.225909e+05
   5.869458e+05  -2.184842e+05
   9.706188e+05   1.878875e+04
   4.288715e+05   6.522467e+05
  -7.699812e+05   1.093326e+06
  -1.601346e+06   6.938150e+05
  -1.333169e+06  -4.042958e+05
  -2.457603e+05  -1.299161e+06
   7.363435e+05  -1.269940e+06
   9.790752e+05  -5.024364e+05
   5.992707e+05   2.075616e+05
   1.312395e+05   3.341431e+05
  -4.175468e+04   7.842635e+04
   8.387044e+04   5.515855e+03
   2.588680e+05   3.524743e+05
   2.057279e+05   7.504709e+05
  -1.687469e+05   6.323333e+05
  -6.233849e+05  -9.975232e+04
  -6.908406e+05  -8.692145e+05
  -1.284654e+05  -9.597061e+05
   6.819405e+05  -2.507114e+05
   9.602307e+05   6.504872e+05
   3.305424e+05   1.013677e+06
  -6.625059e+05   6.417462e+05
  -1.049031e+06  -7.251252e+04
  -5.016605e+05  -5.932321e+05
   2.756521e+05  -6.516186e+05
   3.798095e+05  -3.418848e+05
  -2.016802e+05   6.344586e+02
  -5.940766e+05   3.438911e+04
  -1.418347e+05  -2.921408e+05
   7.706888e+05  -6.151574e+05
   1.193678e+06  -4.642165e+05
   7.302517e+05   1.951254e+05
  -9.594163e+04   8.143753e+05
  -5.445368e+05   7.969307e+05
  -4.242023e+05   1.650121e+05
  -6.060792e+04  -4.325386e+05
   2.204631e+05  -4.162224e+05
   3.236211e+05   1.137157e+05
   2.340138e+05   5.355219e+05
  -4.633796e+04   4.186770e+05
  -3.628498e+05  -3.330080e+04
  -4.460331e+05  -2.822728e+05
  -2.232153e+05  -1.076551e+05
   4.296371e+04   1.600624e+05
   7.521898e+04   8.320500e+04
  -4.510617e+04  -3.114117e+05
  -3.421621e+02  -5.391864e+05
   2.816750e+05  -2.484796e+05
   4.573491e+05   3.239045e+05
   1.876360e+05   5.977838e+05
  -3.668254e+05   3.018400e+05
  -6.314056e+05  -2.459322e+05
  -2.451318e+05  -5.220012e+05
   4.805042e+05  -3.384238e+05
   8.328385e+05   6.422703e+04
   4.489196e+05   3.523670e+05
  -2.752090e+05   3.889917e+05
  -6.011530e+05   2.318542e+05
  -2.536662e+05   1.908075e+04
   2.911490e+05  -8.428960e+04
   3.658072e+05   3.012787e+04
  -1.318495e+05   2.506554e+05
  -6.485019e+05   2.490737e+05
