
 $NMID
 id='ANONYMOUS ', fmtdat='(2E16.6)'
 volume=1.0
 tramp=1.0
 $END
  -5.178964e+07  -2.235722e+05
  -3.117728e+07  -3.157459e+07
   6.505067e+06  -3.476396e+07
   2.509106e+07  -1.396064e+07
   1.529785e+07   5.800023e+06
  -2.742897e+06   8.570902e+06
  -9.073304e+06  -6.912877e+05
  -2.927834e+06  -8.872290e+06
   5.407682e+06  -8.965904e+06
   8.888093e+06  -2.166617e+06
   6.578506e+06   5.781279e+06
   7.851078e+05   8.142491e+06
  -3.790565e+06   2.509173e+06
  -2.581094e+06  -5.305150e+06
   3.392038e+06  -6.362526e+06
   7.321459e+06   1.064932e+06
   4.247461e+06   9.434546e+06
  -3.403440e+06   1.098536e+07
  -9.353723e+06   5.463244e+06
  -9.962967e+06  -2.008238e+06
  -5.932678e+06  -6.964483e+06
  -4.712418e+05  -7.804556e+06
   2.543877e+06  -5.335438e+06
   1.270549e+06  -2.509513e+06
  -1.371898e+06  -2.360789e+06
  -1.652115e+05  -4.254438e+06
   5.404219e+06  -4.176958e+06
   9.327208e+06  -3.076568e+05
   6.603575e+06   4.025498e+06
  -1.402235e+04   4.784268e+06
  -3.786156e+06   2.286542e+06
  -2.380928e+06  -2.856406e+05
   8.778090e+05  -1.183324e+06
   2.572529e+06  -4.678278e+05
   2.219488e+06   1.665325e+06
   4.830982e+05   3.971157e+06
  -1.825991e+06   3.550384e+06
  -2.879862e+06  -3.326874e+05
  -1.352823e+06  -3.418189e+06
   7.860596e+05  -1.520892e+06
   2.187685e+05   2.603024e+06
  -2.371618e+06   2.305021e+06
  -2.349297e+06  -2.905836e+06
   2.051635e+06  -5.650240e+06
   6.182979e+06  -9.652418e+05
   4.649578e+06   6.303850e+06
  -1.684800e+06   7.798969e+06
  -6.866357e+06   2.232209e+06
  -6.639002e+06  -4.124335e+06
  -1.925365e+06  -5.707143e+06
   3.244279e+06  -2.709686e+06
   5.112814e+06   1.282732e+06
   2.478247e+06   3.229194e+06
  -2.157632e+06   2.111047e+06
  -4.239139e+06  -7.734289e+05
  -1.885411e+06  -2.480833e+06
   1.577281e+06  -1.289358e+06
   1.719799e+06   9.347000e+05
  -1.079679e+06   9.564751e+05
  -2.304637e+06  -1.386190e+06
   3.492587e+05  -2.997292e+06
   4.056689e+06  -1.793592e+06
   4.877975e+06   1.081401e+06
   2.220913e+06   3.605238e+06
  -1.740141e+06   4.979449e+06
  -4.890125e+06   4.607806e+06
  -5.949474e+06   1.587395e+06
  -4.279540e+06  -3.092253e+06
  -8.504129e+05  -5.910987e+06
   1.666393e+06  -4.603048e+06
   1.561293e+06  -1.339169e+06
   2.337928e+05   1.455034e+04
   2.360613e+05  -1.056283e+06
   1.802461e+06  -1.652410e+06
   2.843322e+06  -3.476927e+04
   1.956041e+06   2.089538e+06
  -9.197729e+04   2.228038e+06
  -1.682820e+06   1.986224e+05
  -1.740445e+06  -2.137891e+06
   2.297893e+04  -2.940272e+06
   2.749434e+06  -1.559792e+06
   4.295560e+06   1.248687e+06
   2.999025e+06   3.624135e+06
  -8.708999e+04   3.951273e+06
  -2.120836e+06   2.502440e+06
  -2.037277e+06   1.086503e+06
  -1.714144e+06   7.332074e+05
  -2.868741e+06   5.541092e+05
  -4.287686e+06  -6.750295e+05
  -3.475112e+06  -2.687437e+06
  -1.716400e+05  -4.097662e+06
   3.182676e+06  -3.903112e+06
   4.188121e+06  -2.090664e+06
   2.641779e+06   4.868894e+05
   2.034935e+05   2.265427e+06
  -1.158222e+06   1.904713e+06
  -5.574642e+05  -6.377328e+04
   1.104188e+06  -1.302018e+06
   1.878822e+06  -3.959703e+05
   8.833418e+05   1.187113e+06
  -5.367218e+05   1.122165e+06
  -4.807465e+05  -3.683850e+05
   9.641850e+05  -7.720597e+05
   1.828777e+06   1.082401e+06
   8.109341e+05   3.314765e+06
  -1.328832e+06   3.456289e+06
  -3.008947e+06   1.328311e+06
  -3.387726e+06  -1.273970e+06
  -2.422378e+06  -2.742779e+06
  -5.198131e+05  -2.660989e+06
   1.253337e+06  -1.484160e+06
   1.596382e+06  -2.230237e+05
   4.938626e+05   4.291695e+04
  -3.652799e+05  -7.483183e+05
   3.894300e+05  -1.321666e+06
   1.867922e+06  -5.830283e+05
   2.017958e+06   8.438335e+05
   4.082123e+05   1.386178e+06
  -1.158757e+06   5.889594e+05
  -9.208770e+05  -4.419289e+05
   8.188626e+05  -5.696493e+05
   2.215775e+06   2.425071e+05
   1.826938e+06   1.334124e+06
  -1.919783e+05   2.017561e+06
  -2.302906e+06   1.711485e+06
  -2.783590e+06   3.051658e+05
  -1.221429e+06  -1.244256e+06
   9.034211e+05  -1.482072e+06
   1.531651e+06  -1.880909e+05
   1.886802e+05   1.067600e+06
  -1.510163e+06   7.410571e+05
  -1.727762e+06  -7.574872e+05
  -3.755719e+05  -1.646341e+06
   1.060881e+06  -1.009935e+06
   1.264903e+06   2.698665e+05
   2.740656e+05   7.666788e+05
  -7.814306e+05   6.235975e+04
  -7.378008e+05  -1.048650e+06
   5.765891e+05  -1.428819e+06
   2.015110e+06  -5.481245e+05
   2.044692e+06   1.046316e+06
   3.970589e+05   2.074563e+06
  -1.424168e+06   1.654852e+06
  -1.724305e+06   2.312650e+05
  -5.190608e+05  -8.607197e+05
   6.486589e+05  -8.162236e+05
   6.508445e+05  -8.217158e+04
  -9.853467e+04   3.875759e+05
  -5.084383e+05   2.451509e+05
  -1.695690e+05  -6.384682e+04
   4.196527e+05   3.999396e+04
   5.310259e+05   6.369577e+05
  -1.784836e+05   1.182448e+06
  -1.371712e+06   9.118689e+05
  -2.090597e+06  -3.976609e+05
  -1.481257e+06  -1.939403e+06
   2.007249e+05  -2.437812e+06
   1.611668e+06  -1.449575e+06
   1.714353e+06   9.575941e+04
   9.013593e+05   9.070521e+05
   3.417940e+05   6.969657e+05
   4.618145e+05   2.506794e+05
   6.000737e+05   3.052095e+05
   8.839566e+04   7.481401e+05
  -8.630550e+05   9.135229e+05
  -1.454127e+06   3.524317e+05
  -1.080936e+06  -7.189835e+05
   2.224633e+05  -1.488392e+06
   1.720719e+06  -1.106397e+06
   2.269317e+06   4.633083e+05
   1.165657e+06   2.093487e+06
  -9.764434e+05   2.376067e+06
  -2.526215e+06   1.065005e+06
  -2.371161e+06  -6.202750e+05
  -1.001755e+06  -1.329959e+06
   1.767708e+05  -9.756056e+05
   4.020475e+05  -5.452982e+05
   1.107126e+05  -7.612251e+05
   1.175352e+05  -1.294274e+06
   6.616830e+05  -1.280222e+06
   1.286580e+06  -3.209898e+05
   1.346119e+06   1.079142e+06
   5.698302e+05   1.901120e+06
  -6.178643e+05   1.448698e+06
  -1.292677e+06   1.165852e+04
  -8.286106e+05  -1.271580e+06
   3.659273e+05  -1.399308e+06
   1.140621e+06  -4.312691e+05
   8.101466e+05   6.639961e+05
  -9.851136e+04   1.058840e+06
  -5.054335e+05   7.870070e+05
  -6.920054e+04   4.269577e+05
   4.340049e+05   3.410898e+05
   6.028453e+04   3.877261e+05
  -1.142102e+06   2.204962e+05
  -2.060267e+06  -3.164666e+05
  -1.629409e+06  -1.020754e+06
   1.452391e+04  -1.425608e+06
   1.570407e+06  -1.147249e+06
   1.828255e+06  -3.019824e+05
   8.419461e+05   4.678343e+05
  -2.519224e+05   5.615502e+05
  -5.060330e+05   4.487149e+04
  -2.472539e+04  -4.117973e+05
   4.504053e+05  -2.610008e+05
   4.842643e+05   3.408146e+05
   2.469510e+05   7.321926e+05
   8.707473e+04   4.850892e+05
   1.364274e+05  -1.064959e+05
   2.862994e+05  -3.108308e+05
   2.808123e+05   2.290958e+05
  -1.399209e+05   9.988804e+05
  -8.952096e+05   1.075711e+06
  -1.353894e+06   1.740355e+05
  -8.484921e+05  -9.168162e+05
   4.112163e+05  -1.136350e+06
   1.256147e+06  -3.349055e+05
   7.416318e+05   5.744610e+05
  -6.968297e+05   6.588609e+05
  -1.600841e+06  -7.598737e+04
  -1.032650e+06  -8.524143e+05
   4.648014e+05  -1.004328e+06
   1.501487e+06  -5.097647e+05
   1.248987e+06   1.711694e+05
   1.454235e+05   5.168752e+05
  -6.483318e+05   2.804611e+05
  -3.846387e+05  -2.907386e+05
   5.902913e+05  -5.281266e+05
   1.193605e+06   7.720886e+04
   6.811469e+05   1.189208e+06
  -5.868007e+05   1.721554e+06
  -1.492078e+06   9.039665e+05
  -1.274142e+06  -7.534395e+05
  -2.218219e+05  -1.805656e+06
   7.319918e+05  -1.315159e+06
   9.331080e+05   1.647344e+05
   4.492132e+05   1.194413e+06
  -2.062839e+05   9.781892e+05
  -5.632327e+05   9.079765e+04
  -4.767087e+05  -3.745488e+05
  -1.698369e+05  -1.354222e+05
  -4.626432e+04   9.644726e+04
  -2.793929e+05  -2.967898e+05
  -5.211693e+05  -9.697340e+05
  -2.063264e+05  -1.082802e+06
   7.128829e+05  -4.020513e+05
   1.492151e+06   4.535436e+05
   1.301001e+06   8.278286e+05
   1.931739e+05   7.016945e+05
  -8.573113e+05   4.343365e+05
  -9.898011e+05   1.953604e+05
  -3.622457e+05  -5.155607e+04
   1.447265e+05  -2.301614e+05
   3.207945e+04  -2.041696e+05
  -2.698121e+05  -8.873600e+04
  -5.311716e+04  -1.350274e+05
   6.650826e+05  -2.501343e+05
   1.057512e+06  -1.375448e+03
   4.469551e+05   6.983695e+05
  -8.347466e+05   1.203574e+06
  -1.709471e+06   7.843861e+05
  -1.434655e+06  -4.197672e+05
  -2.978478e+05  -1.416475e+06
   7.579620e+05  -1.398545e+06
   1.054609e+06  -5.593601e+05
   6.661908e+05   2.232716e+05
   1.413701e+05   3.615124e+05
  -6.909739e+04   7.312861e+04
   8.058383e+04  -1.440210e+04
   3.053794e+05   3.668089e+05
   2.587290e+05   8.112629e+05
  -1.712579e+05   6.898861e+05
  -6.908346e+05  -1.081115e+05
  -7.656313e+05  -9.480133e+05
  -1.383107e+05  -1.043901e+06
   7.560373e+05  -2.696135e+05
   1.061067e+06   7.067955e+05
   3.728148e+05   1.097012e+06
  -7.106774e+05   7.005197e+05
  -1.134580e+06  -5.751159e+04
  -5.476656e+05  -6.161685e+05
   2.825237e+05  -6.948014e+05
   3.832637e+05  -3.760939e+05
  -2.450302e+05  -8.002105e+00
  -6.540493e+05   5.174861e+04
  -1.544953e+05  -3.109112e+05
   8.225240e+05  -6.973401e+05
   1.266323e+06  -5.575646e+05
   7.765177e+05   1.752318e+05
  -8.408407e+04   8.821427e+05
  -5.509628e+05   8.733509e+05
  -4.360628e+05   1.723254e+05
  -6.703050e+04  -4.816116e+05
   2.345710e+05  -4.480170e+05
   3.601999e+05   1.360570e+05
   2.674422e+05   5.788799e+05
  -4.659446e+04   4.391374e+05
  -3.970392e+05  -3.555402e+04
  -4.855589e+05  -2.809974e+05
  -2.449254e+05  -9.757293e+04
   3.863451e+04   1.576941e+05
   8.016346e+04   5.354422e+04
  -2.955918e+04  -3.558771e+05
   2.973188e+04  -5.693429e+05
   3.184989e+05  -2.410402e+05
   4.822582e+05   3.696749e+05
   1.833758e+05   6.548230e+05
  -4.041295e+05   3.301156e+05
  -6.829545e+05  -2.668588e+05
  -2.718600e+05  -5.728537e+05
   5.086902e+05  -3.787661e+05
   8.987460e+05   5.816010e+04
   4.932411e+05   3.732921e+05
  -2.913463e+05   4.157259e+05
  -6.459189e+05   2.488978e+05
  -2.595008e+05   2.242293e+04
   3.414258e+05  -8.506874e+04
   4.122330e+05   4.622867e+04
  -1.550276e+05   2.940392e+05
  -7.332996e+05   2.924298e+05
