
 $NMID
 id='ANONYMOUS ', fmtdat='(2E16.6)'
 volume=1.0
 tramp=1.0
 $END
  -1.973132e+07  -1.585971e+06
  -1.086629e+07  -1.266446e+07
   3.388327e+06  -1.285097e+07
   9.719052e+06  -4.729745e+06
   5.559387e+06   2.378250e+06
  -1.185684e+06   3.152248e+06
  -3.370906e+06  -3.171091e+05
  -1.007783e+06  -3.338565e+06
   2.099256e+06  -3.366607e+06
   3.383973e+06  -7.166881e+05
   2.431776e+06   2.402651e+06
   1.296943e+05   3.233457e+06
  -1.596696e+06   8.806137e+05
  -1.001149e+06  -2.182401e+06
   1.345279e+06  -2.453254e+06
   2.743729e+06   5.245586e+05
   1.416211e+06   3.681994e+06
  -1.554276e+06   4.094943e+06
  -3.729250e+06   1.810880e+06
  -3.758769e+06  -1.108155e+06
  -2.002481e+06  -2.894403e+06
   1.562537e+05  -2.967179e+06
   1.141052e+06  -1.830503e+06
   3.965092e+05  -8.067967e+05
  -6.812527e+05  -9.730309e+05
  -3.242446e+04  -1.793382e+06
   2.298001e+06  -1.611561e+06
   3.776696e+06   7.792462e+04
   2.527373e+06   1.785000e+06
  -1.959368e+05   1.965343e+06
  -1.682680e+06   8.545037e+05
  -1.033509e+06  -2.587975e+05
   4.027346e+05  -6.367935e+05
   1.167413e+06  -2.321094e+05
   9.478971e+05   7.896102e+05
   7.888276e+04   1.705780e+06
  -8.762145e+05   1.334114e+06
  -1.118088e+06  -3.412257e+05
  -3.540412e+05  -1.436483e+06
   4.337313e+05  -4.833043e+05
   6.311416e+04   1.149860e+06
  -9.584066e+05   9.016913e+05
  -8.442293e+05  -1.143500e+06
   8.605404e+05  -2.057133e+06
   2.291457e+06  -1.606255e+05
   1.565055e+06   2.509289e+06
  -8.257969e+05   2.880133e+06
  -2.676183e+06   6.762763e+05
  -2.510165e+06  -1.690796e+06
  -6.997984e+05  -2.221101e+06
   1.276166e+06  -1.038351e+06
   1.985963e+06   5.141161e+05
   9.478986e+05   1.258595e+06
  -8.459207e+05   7.812909e+05
  -1.616309e+06  -3.632276e+05
  -6.838558e+05  -9.843955e+05
   6.332419e+05  -4.722681e+05
   6.776257e+05   3.753785e+05
  -3.605576e+05   3.549471e+05
  -8.015930e+05  -5.001324e+05
   1.683715e+05  -1.025649e+06
   1.505229e+06  -5.414313e+05
   1.782883e+06   4.900926e+05
   7.595894e+05   1.391570e+06
  -8.005920e+05   1.902378e+06
  -2.052572e+06   1.725266e+06
  -2.397602e+06   4.843292e+05
  -1.604135e+06  -1.350263e+06
  -2.013906e+05  -2.363535e+06
   7.034147e+05  -1.769949e+06
   5.663021e+05  -5.180594e+05
   6.581459e+04  -7.078659e+04
   1.659297e+05  -5.080614e+05
   8.377286e+05  -6.662614e+05
   1.219358e+06   6.240815e+04
   8.014180e+05   9.410626e+05
  -7.463656e+04   9.741418e+05
  -7.415181e+05   1.015129e+05
  -7.365405e+05  -8.964487e+05
   4.101631e+04  -1.215508e+06
   1.157272e+06  -5.810312e+05
   1.699960e+06   6.103224e+05
   1.082640e+06   1.516715e+06
  -1.576295e+05   1.530609e+06
  -8.883672e+05   8.870822e+05
  -7.856135e+05   3.540970e+05
  -6.494667e+05   2.690625e+05
  -1.124977e+06   2.099090e+05
  -1.691654e+06  -2.945757e+05
  -1.364649e+06  -1.097622e+06
  -4.368749e+04  -1.646467e+06
   1.315034e+06  -1.553080e+06
   1.734692e+06  -8.057259e+05
   1.087088e+06   2.489293e+05
   4.735002e+04   9.551907e+05
  -5.222039e+05   7.731149e+05
  -2.403504e+05  -4.242162e+04
   4.667548e+05  -5.277745e+05
   7.657180e+05  -1.419515e+05
   3.364634e+05   4.982353e+05
  -2.369063e+05   4.703751e+05
  -2.156074e+05  -1.279404e+05
   3.360174e+05  -3.136857e+05
   6.715257e+05   3.779060e+05
   3.192468e+05   1.246699e+06
  -4.621138e+05   1.345882e+06
  -1.130428e+06   5.599413e+05
  -1.348607e+06  -4.681526e+05
  -1.008043e+06  -1.094788e+06
  -2.246621e+05  -1.086720e+06
   5.230645e+05  -5.988828e+05
   6.608357e+05  -7.565392e+04
   2.002596e+05   2.306096e+04
  -1.465111e+05  -3.025868e+05
   1.611751e+05  -5.210757e+05
   7.465838e+05  -2.159567e+05
   7.998099e+05   3.447753e+05
   1.623430e+05   5.524554e+05
  -4.628160e+05   2.425744e+05
  -3.854353e+05  -1.647799e+05
   2.998329e+05  -2.353562e+05
   8.813615e+05   7.029247e+04
   7.560228e+05   5.189481e+05
  -5.577317e+04   8.176902e+05
  -9.283745e+05   6.956009e+05
  -1.127447e+06   1.133316e+05
  -4.812586e+05  -5.087799e+05
   3.799528e+05  -5.830231e+05
   6.151868e+05  -5.406227e+04
   6.149230e+04   4.351711e+05
  -6.142789e+05   2.900203e+05
  -6.927971e+05  -3.080438e+05
  -1.551063e+05  -6.594616e+05
   4.158517e+05  -4.107973e+05
   5.063274e+05   9.576064e+04
   1.206089e+05   2.999909e+05
  -3.022429e+05   2.517846e+04
  -2.889612e+05  -4.195160e+05
   2.393131e+05  -5.698145e+05
   8.156160e+05  -2.071575e+05
   8.171766e+05   4.365010e+05
   1.464877e+05   8.381510e+05
  -5.822448e+05   6.567695e+05
  -6.965859e+05   8.487120e+04
  -2.120164e+05  -3.489251e+05
   2.607565e+05  -3.332674e+05
   2.759349e+05  -3.917001e+04
  -1.738833e+04   1.628417e+05
  -1.994130e+05   1.214100e+05
  -9.116690e+04  -6.664111e+03
   1.379139e+05   1.377913e+04
   1.982444e+05   2.387166e+05
  -7.227265e+04   4.592009e+05
  -5.492772e+05   3.556201e+05
  -8.354930e+05  -1.704465e+05
  -5.825130e+05  -7.893578e+05
   9.512554e+04  -9.858022e+05
   6.552538e+05  -5.871313e+05
   6.964708e+05   3.536348e+04
   3.796469e+05   3.729505e+05
   1.541284e+05   3.057373e+05
   1.812947e+05   1.287110e+05
   2.177461e+05   1.318318e+05
   1.736628e+04   2.907093e+05
  -3.471243e+05   3.559604e+05
  -5.795626e+05   1.387344e+05
  -4.374977e+05  -2.898352e+05
   8.367211e+04  -6.004067e+05
   6.912225e+05  -4.419424e+05
   9.123162e+05   1.935178e+05
   4.640461e+05   8.410629e+05
  -3.945296e+05   9.427000e+05
  -1.009738e+06   4.176023e+05
  -9.509086e+05  -2.468407e+05
  -4.151662e+05  -5.295683e+05
   5.555686e+04  -4.012144e+05
   1.658293e+05  -2.396424e+05
   7.087966e+04  -3.195845e+05
   7.522256e+04  -5.173409e+05
   2.792431e+05  -5.014107e+05
   5.175456e+05  -1.140380e+05
   5.350978e+05   4.474562e+05
   2.180485e+05   7.734155e+05
  -2.598342e+05   5.836592e+05
  -5.219571e+05   2.060006e+03
  -3.268999e+05  -5.086984e+05
   1.464678e+05  -5.546425e+05
   4.424007e+05  -1.715635e+05
   3.078961e+05   2.546230e+05
  -4.036286e+04   4.066264e+05
  -1.896519e+05   3.054898e+05
  -1.914866e+04   1.750337e+05
   1.702926e+05   1.470147e+05
   1.895295e+04   1.588036e+05
  -4.537512e+05   7.801039e+04
  -8.159060e+05  -1.435458e+05
  -6.462777e+05  -4.155008e+05
   7.852975e+03  -5.593504e+05
   6.297485e+05  -4.415238e+05
   7.310581e+05  -1.158611e+05
   3.324512e+05   1.768309e+05
  -1.041837e+05   2.140176e+05
  -1.963403e+05   1.754285e+04
   5.265367e+03  -1.601549e+05
   1.920824e+05  -1.008071e+05
   1.909272e+05   1.442095e+05
   8.382746e+04   3.080655e+05
   2.145018e+04   2.042860e+05
   5.214330e+04  -4.895940e+04
   1.179955e+05  -1.375528e+05
   1.097538e+05   8.979641e+04
  -6.724948e+04   4.058623e+05
  -3.668615e+05   4.234412e+05
  -5.362027e+05   4.561755e+04
  -3.223181e+05  -3.834335e+05
   1.801239e+05  -4.444826e+05
   5.082820e+05  -1.098664e+05
   2.953328e+05   2.426968e+05
  -2.824998e+05   2.612042e+05
  -6.472098e+05  -3.359338e+04
  -4.233647e+05  -3.395211e+05
   1.786972e+05  -4.041750e+05
   6.030736e+05  -2.128534e+05
   5.080674e+05   6.262962e+04
   6.300554e+04   2.088468e+05
  -2.589620e+05   1.146106e+05
  -1.483614e+05  -1.177898e+05
   2.499858e+05  -2.073368e+05
   4.859618e+05   4.805893e+04
   2.594072e+05   4.964517e+05
  -2.654708e+05   6.954923e+05
  -6.221075e+05   3.501324e+05
  -5.124722e+05  -3.202377e+05
  -7.596913e+04  -7.371747e+05
   3.027213e+05  -5.337449e+05
   3.743259e+05   6.451458e+04
   1.810507e+05   4.806962e+05
  -7.581793e+04   3.943371e+05
  -2.222164e+05   3.598319e+04
  -1.989587e+05  -1.515550e+05
  -7.816442e+04  -5.330044e+04
  -1.507145e+04   3.991689e+04
  -9.634235e+04  -1.230361e+05
  -1.992730e+05  -3.968741e+05
  -8.777335e+04  -4.370294e+05
   2.793360e+05  -1.536888e+05
   6.039857e+05   1.937937e+05
   5.310032e+05   3.393965e+05
   7.290334e+04   2.827761e+05
  -3.597266e+05   1.732883e+05
  -4.037939e+05   7.698163e+04
  -1.363613e+05  -2.272205e+04
   6.455080e+04  -9.374120e+04
   2.591454e+03  -8.197900e+04
  -1.219357e+05  -3.686428e+04
  -1.705344e+04  -5.712999e+04
   2.845317e+05  -9.850317e+04
   4.291043e+05   1.136473e+04
   1.593212e+05   2.937432e+05
  -3.620821e+05   4.809586e+05
  -6.973607e+05   2.921690e+05
  -5.686347e+05  -1.959933e+05
  -1.054259e+05  -5.811089e+05
   3.181437e+05  -5.550779e+05
   4.354286e+05  -2.105161e+05
   2.726511e+05   1.004172e+05
   5.001782e+04   1.494586e+05
  -4.074496e+04   2.806315e+04
   2.527475e+04  -1.015078e+04
   1.237448e+05   1.449897e+05
   1.029049e+05   3.283516e+05
  -7.797990e+04   2.778089e+05
  -2.854455e+05  -5.478544e+04
  -3.008578e+05  -4.014647e+05
  -3.528300e+04  -4.305927e+05
   3.212165e+05  -9.666879e+04
   4.263777e+05   3.075286e+05
   1.343287e+05   4.518247e+05
  -3.005805e+05   2.711156e+05
  -4.561902e+05  -3.924474e+04
  -2.069600e+05  -2.507787e+05
   1.247963e+05  -2.694679e+05
   1.511951e+05  -1.426772e+05
  -1.105585e+05  -1.249391e+03
  -2.687330e+05   1.469391e+04
  -5.545792e+04  -1.275496e+05
   3.394034e+05  -2.768858e+05
   5.073316e+05  -2.173726e+05
   3.005284e+05   7.628887e+04
  -4.507563e+04   3.543181e+05
  -2.258331e+05   3.411257e+05
  -1.731394e+05   5.398407e+04
  -1.986349e+04  -2.025795e+05
   1.039252e+05  -1.754471e+05
   1.499229e+05   6.654526e+04
   1.019572e+05   2.384567e+05
  -2.948498e+04   1.715714e+05
  -1.626413e+05  -2.188700e+04
  -1.885214e+05  -1.145556e+05
  -9.550052e+04  -3.698680e+04
   6.566667e+03   6.021552e+04
   2.437405e+04   9.288773e+03
  -3.534709e+02  -1.565490e+05
   3.877876e+04  -2.311540e+05
   1.454657e+05  -8.279202e+04
   1.869705e+05   1.708015e+05
   5.424816e+04   2.772152e+05
  -1.737266e+05   1.283164e+05
  -2.721216e+05  -1.235299e+05
  -1.024293e+05  -2.407139e+05
   2.082366e+05  -1.461089e+05
   3.614357e+05   3.869298e+04
   1.943963e+05   1.578827e+05
  -1.258480e+05   1.599796e+05
  -2.670631e+05   8.605899e+04
  -1.000941e+05   1.292197e+03
   1.525329e+05  -3.015030e+04
   1.761892e+05   2.995512e+04
  -6.997067e+04   1.279811e+05
  -3.132098e+05   1.184686e+05
