
 $NMID
 id='ANONYMOUS ', fmtdat='(2E16.6)'
 volume=1.0
 tramp=1.0
 $END
   4.053432e+07  -6.733806e+05
   2.578143e+07   2.292296e+07
  -3.232134e+06   2.712671e+07
  -1.913369e+07   1.292976e+07
  -1.300170e+07  -2.849475e+06
   1.267645e+06  -7.025011e+06
   7.566977e+06  -6.173436e+05
   3.439672e+06   6.946743e+06
  -3.671165e+06   8.253110e+06
  -7.223505e+06   2.648030e+06
  -5.581613e+06  -4.669755e+06
  -7.143050e+05  -6.923276e+06
   3.171898e+06  -1.939770e+06
   2.281304e+06   4.902151e+06
  -2.616646e+06   5.900188e+06
  -6.093270e+06  -3.505847e+05
  -3.897379e+06  -7.546677e+06
   2.342103e+06  -9.082303e+06
   7.377172e+06  -4.547867e+06
   7.832875e+06   1.622031e+06
   4.416847e+06   5.378606e+06
   3.068272e+05   5.654425e+06
  -1.385825e+06   3.839496e+06
   8.520287e+03   2.411913e+06
   1.625730e+06   2.937211e+06
  -2.486667e+05   4.203258e+06
  -5.217013e+06   3.364461e+06
  -8.179695e+06  -2.147042e+05
  -5.377319e+06  -3.608443e+06
   5.438781e+05  -3.848218e+06
   3.666413e+06  -1.421590e+06
   1.872307e+06   9.115295e+05
  -1.617295e+06   1.402409e+06
  -3.067449e+06   9.067829e+04
  -1.947245e+06  -2.177769e+06
   1.490088e+05  -3.766388e+06
   1.726978e+06  -2.710342e+06
   1.878885e+06   6.447066e+05
   5.979683e+05   2.645116e+06
  -5.478543e+05   6.089898e+05
   2.450550e+05  -2.714955e+06
   2.189283e+06  -2.188729e+06
   2.154854e+06   2.231679e+06
  -1.086527e+06   4.648790e+06
  -4.406159e+06   1.136867e+06
  -3.731699e+06  -4.652690e+06
   9.400796e+05  -6.131876e+06
   5.427561e+06  -1.913542e+06
   5.831151e+06   3.331924e+06
   2.031454e+06   4.953237e+06
  -2.743321e+06   2.643694e+06
  -4.737094e+06  -8.190018e+05
  -2.551238e+06  -2.703101e+06
   1.567571e+06  -1.957028e+06
   3.569361e+06   3.923661e+05
   1.758820e+06   1.923273e+06
  -1.222782e+06   1.117306e+06
  -1.640209e+06  -7.568610e+05
   6.105274e+05  -1.118877e+06
   2.065923e+06   5.617312e+05
   3.883719e+05   2.160468e+06
  -2.747030e+06   1.746544e+06
  -3.984245e+06  -3.771299e+05
  -2.063117e+06  -2.732359e+06
   1.523255e+06  -4.188757e+06
   4.452931e+06  -3.857786e+06
   5.162589e+06  -1.162012e+06
   3.434523e+06   2.777044e+06
   5.994892e+05   5.108030e+06
  -1.251469e+06   4.149434e+06
  -1.215749e+06   1.598454e+06
  -5.194461e+05   4.033709e+05
  -8.385104e+05   9.743330e+05
  -2.078062e+06   1.107547e+06
  -2.630300e+06  -4.918786e+05
  -1.539322e+06  -2.320785e+06
   4.520613e+05  -2.197924e+06
   1.856373e+06  -3.086552e+04
   1.664377e+06   2.252127e+06
  -1.744182e+05   2.785779e+06
  -2.569684e+06   1.214764e+06
  -3.659763e+06  -1.330965e+06
  -2.383493e+06  -3.135673e+06
   1.300932e+05  -3.177961e+06
   1.649342e+06  -1.988433e+06
   1.550574e+06  -9.968542e+05
   1.447692e+06  -8.242143e+05
   2.642767e+06  -6.392777e+05
   3.983218e+06   5.525288e+05
   3.248327e+06   2.482569e+06
   1.497595e+05   3.853982e+06
  -3.077638e+06   3.624877e+06
  -4.031145e+06   1.784446e+06
  -2.407129e+06  -6.627770e+05
   4.402719e+04  -2.158505e+06
   1.248030e+06  -1.663951e+06
   4.918687e+05   1.297761e+05
  -1.106052e+06   1.170358e+06
  -1.722160e+06   3.359734e+05
  -7.326162e+05  -1.078795e+06
   5.825653e+05  -1.046383e+06
   5.696218e+05   3.522528e+05
  -7.671982e+05   9.343577e+05
  -1.785420e+06  -6.164057e+05
  -1.150958e+06  -2.908997e+06
   8.227979e+05  -3.517822e+06
   2.756402e+06  -1.731228e+06
   3.463300e+06   9.866079e+05
   2.547802e+06   2.726218e+06
   5.273468e+05   2.685059e+06
  -1.262480e+06   1.399914e+06
  -1.545377e+06   1.430813e+05
  -4.677220e+05  -4.704245e+04
   3.438191e+05   7.081317e+05
  -3.266386e+05   1.205783e+06
  -1.679432e+06   5.438894e+05
  -1.872257e+06  -7.253621e+05
  -4.294809e+05  -1.257211e+06
   1.082757e+06  -5.784518e+05
   9.400769e+05   4.288936e+05
  -7.496709e+05   6.585668e+05
  -2.221970e+06  -1.221990e+05
  -1.900424e+06  -1.309680e+06
   1.299978e+05  -2.048741e+06
   2.235102e+06  -1.694161e+06
   2.666953e+06  -2.890536e+05
   1.143698e+06   1.145808e+06
  -8.247508e+05   1.331170e+06
  -1.367099e+06   1.609001e+05
  -1.326761e+05  -9.599904e+05
   1.416135e+06  -6.740479e+05
   1.643618e+06   6.943176e+05
   4.172619e+05   1.566926e+06
  -9.651709e+05   1.034812e+06
  -1.235701e+06  -1.778700e+05
  -3.278187e+05  -7.103326e+05
   6.977742e+05  -7.549794e+04
   6.710397e+05   9.823842e+05
  -5.768042e+05   1.328410e+06
  -1.914426e+06   4.695388e+05
  -1.907297e+06  -1.022025e+06
  -3.568924e+05  -1.954550e+06
   1.334627e+06  -1.557332e+06
   1.628287e+06  -2.354655e+05
   5.186475e+05   8.091263e+05
  -6.081526e+05   7.913823e+05
  -6.604796e+05   6.001847e+04
   7.381208e+04  -4.510661e+05
   5.613909e+05  -2.974235e+05
   2.831702e+05   1.063621e+05
  -3.521677e+05   8.004422e+04
  -5.524570e+05  -5.263289e+05
   1.128186e+05  -1.115532e+06
   1.287835e+06  -8.744231e+05
   1.979803e+06   3.835984e+05
   1.382242e+06   1.846929e+06
  -2.195349e+05   2.328623e+06
  -1.566196e+06   1.417384e+06
  -1.695458e+06  -7.318246e+04
  -9.267641e+05  -9.420027e+05
  -3.212254e+05  -8.054875e+05
  -3.505571e+05  -3.131415e+05
  -4.880986e+05  -2.488928e+05
  -7.469933e+04  -6.534321e+05
   8.036749e+05  -8.801184e+05
   1.410141e+06  -3.642342e+05
   1.080692e+06   7.206196e+05
  -1.973523e+05   1.491576e+06
  -1.663623e+06   1.085548e+06
  -2.184768e+06  -4.531889e+05
  -1.132592e+06  -1.994854e+06
   8.846249e+05  -2.255910e+06
   2.370558e+06  -1.044163e+06
   2.294412e+06   5.474376e+05
   1.039538e+06   1.289214e+06
  -1.393328e+05   1.020646e+06
  -4.621126e+05   5.816867e+05
  -2.208695e+05   6.924230e+05
  -1.669952e+05   1.151223e+06
  -6.143837e+05   1.162061e+06
  -1.188334e+06   2.807489e+05
  -1.249683e+06  -1.044803e+06
  -5.103693e+05  -1.816493e+06
   6.139034e+05  -1.368597e+06
   1.239109e+06  -9.721620e+03
   7.996124e+05   1.188960e+06
  -3.089544e+05   1.330812e+06
  -1.039323e+06   4.722162e+05
  -7.736022e+05  -5.417117e+05
   2.794071e+04  -9.638150e+05
   4.064582e+05  -7.702620e+05
   4.235057e+04  -4.459850e+05
  -3.891960e+05  -3.450319e+05
  -4.094753e+04  -3.750782e+05
   1.060551e+06  -2.136233e+05
   1.916672e+06   2.982359e+05
   1.542401e+06   9.588927e+05
   3.009347e+04   1.324986e+06
  -1.440524e+06   1.066824e+06
  -1.726282e+06   3.093734e+05
  -8.278938e+05  -3.876343e+05
   2.117285e+05  -5.033788e+05
   4.680807e+05  -6.923699e+04
   4.928223e+03   3.455423e+05
  -4.517608e+05   2.254779e+05
  -4.472176e+05  -3.300238e+05
  -1.702672e+05  -7.043622e+05
  -2.682763e+04  -4.566065e+05
  -1.437713e+05   1.345008e+05
  -3.247295e+05   3.292957e+05
  -2.754320e+05  -2.171597e+05
   1.747452e+05  -9.611139e+05
   8.602590e+05  -1.002201e+06
   1.221524e+06  -1.250222e+05
   7.330273e+05   8.731575e+05
  -3.966684e+05   1.026018e+06
  -1.153784e+06   2.578362e+05
  -6.861350e+05  -5.717425e+05
   6.598060e+05  -6.313544e+05
   1.552005e+06   6.713390e+04
   1.045742e+06   8.238258e+05
  -4.116022e+05   1.004596e+06
  -1.465246e+06   5.389792e+05
  -1.243524e+06  -1.485602e+05
  -1.572184e+05  -5.122946e+05
   6.198922e+05  -2.858228e+05
   3.487016e+05   2.619827e+05
  -5.894813e+05   4.640399e+05
  -1.122731e+06  -1.296881e+05
  -5.784688e+05  -1.154032e+06
   6.387714e+05  -1.599206e+06
   1.456513e+06  -7.958991e+05
   1.195949e+06   7.591141e+05
   1.721733e+05   1.737960e+06
  -7.269272e+05   1.272478e+06
  -9.055451e+05  -1.407335e+05
  -4.466468e+05  -1.150916e+06
   1.728592e+05  -9.662535e+05
   5.301976e+05  -9.985295e+04
   4.810801e+05   3.798301e+05
   1.942198e+05   1.511705e+05
   3.409417e+04  -1.056180e+05
   2.151317e+05   2.526247e+05
   4.650368e+05   9.206694e+05
   2.222189e+05   1.055737e+06
  -6.392006e+05   3.912170e+05
  -1.426367e+06  -4.610340e+05
  -1.272109e+06  -8.212692e+05
  -1.800491e+05  -6.661437e+05
   8.624115e+05  -3.889705e+05
   9.660026e+05  -1.812547e+05
   3.189468e+05   2.729689e+04
  -1.558662e+05   2.105702e+05
   4.477597e+03   2.248492e+05
   2.969767e+05   1.238735e+05
   2.961038e+04   1.290790e+05
  -6.852896e+05   1.980210e+05
  -9.999355e+05  -3.289287e+04
  -3.459004e+05  -6.536771e+05
   8.589380e+05  -1.093505e+06
   1.607982e+06  -6.842660e+05
   1.296268e+06   4.451169e+05
   2.337972e+05   1.360680e+06
  -7.368459e+05   1.303778e+06
  -1.009685e+06   4.793064e+05
  -6.314116e+05  -2.540692e+05
  -1.072848e+05  -3.427338e+05
   1.014247e+05  -3.322598e+04
  -6.861863e+04   4.587459e+04
  -3.071519e+05  -3.465847e+05
  -2.473789e+05  -7.820299e+05
   1.856607e+05  -6.418174e+05
   6.583228e+05   1.508345e+05
   6.747849e+05   9.448242e+05
   5.937429e+04   9.824271e+05
  -7.443412e+05   1.911575e+05
  -9.714584e+05  -7.346335e+05
  -3.009336e+05  -1.045038e+06
   6.936549e+05  -6.164357e+05
   1.054671e+06   8.969904e+04
   4.880886e+05   5.646968e+05
  -2.742605e+05   6.158466e+05
  -3.361020e+05   3.469308e+05
   2.694010e+05   2.893642e+04
   6.329671e+05  -2.535399e+04
   1.276505e+05   2.892323e+05
  -8.005256e+05   6.501800e+05
  -1.190958e+06   5.377770e+05
  -7.021188e+05  -1.460961e+05
   1.012549e+05  -8.213610e+05
   5.073924e+05  -8.091570e+05
   3.741142e+05  -1.330340e+05
   2.802369e+04   4.720903e+05
  -2.372417e+05   3.978247e+05
  -3.346775e+05  -1.738467e+05
  -2.345374e+05  -5.576988e+05
   5.813761e+04  -3.825203e+05
   3.723025e+05   5.884978e+04
   4.477727e+05   2.520761e+05
   2.347892e+05   7.660127e+04
  -2.057385e+04  -1.195977e+05
  -8.597122e+04   4.802725e+03
  -3.463412e+04   3.523460e+05
  -1.046962e+05   4.878662e+05
  -3.185142e+05   1.518969e+05
  -3.936981e+05  -3.967934e+05
  -9.351749e+04  -6.205886e+05
   4.074842e+05  -2.824449e+05
   6.142421e+05   2.902928e+05
   2.227068e+05   5.626720e+05
  -4.817745e+05   3.441957e+05
  -8.289540e+05  -9.022985e+04
  -4.487551e+05  -3.665200e+05
   2.824558e+05  -3.610439e+05
   6.045322e+05  -1.890029e+05
   2.180994e+05  -1.450822e+04
  -3.606211e+05   3.518669e+04
  -3.983660e+05  -9.800746e+04
   1.922468e+05  -2.932108e+05
   7.579164e+05  -2.469286e+05
