
 $NMID
 id='ANONYMOUS ', fmtdat='(2E16.6)'
 volume=1.0
 tramp=1.0
 $END
   2.715461e+03   8.368008e+01
   1.827823e+03   1.470294e+03
   5.846760e+01   1.734294e+03
  -1.024826e+03   1.037552e+03
  -9.065335e+02   2.751858e+02
  -1.184595e+02  -6.479789e+01
   1.625276e+02  -1.612151e+01
   2.820516e+01   4.309904e+02
  -2.530316e+02   3.827187e+02
  -5.719776e+02   5.662837e+01
  -3.320934e+02  -4.853615e+02
   1.341636e+01  -6.111579e+02
   1.997473e+02  -2.096507e+02
   2.297409e+02   3.194474e+02
   2.649381e+01   3.604578e+02
  -4.529712e+02  -6.782746e+01
  -2.981100e+02  -4.527216e+02
   1.157385e+02  -5.855344e+02
   3.475289e+02  -3.028947e+02
   2.872950e+02   2.191095e+01
   1.594813e+02   4.546825e+02
  -2.123452e+01   1.078154e+02
   2.183518e+00   7.930407e+01
   2.068107e+02   1.649978e+02
   3.159780e+02   2.276477e+02
  -1.381096e+02   3.359160e+02
  -4.687908e+02   1.087193e+02
  -5.660104e+02  -2.008188e+02
  -1.791162e+02  -3.130296e+02
   4.021558e+02  -9.751299e+01
   3.821229e+02   1.205146e+02
   1.562541e+02   3.841987e+02
  -2.829228e+02   2.897463e+02
  -5.543585e+02   1.158370e+02
  -2.461116e+02  -1.975665e+02
  -1.318939e+02  -2.962555e+02
  -1.242479e+01  -1.577507e+02
  -1.299008e+01   1.085451e+02
  -2.336695e+02   1.374576e+02
  -1.869435e+02  -1.129367e+02
  -1.437371e+01  -4.282900e+02
   2.136469e+02  -3.502950e+02
   2.470936e+02   2.870775e+01
   5.856787e+01   1.525621e+02
  -1.564265e+02   9.977749e+01
  -1.477765e+02  -2.295592e+02
   1.654639e+02  -3.019843e+02
   4.282352e+02  -3.777198e+01
   4.550073e+02   3.392294e+02
   1.146200e+02   4.406223e+02
  -2.915437e+02   2.481310e+02
  -4.865059e+02  -7.167353e+01
  -2.909035e+02  -2.582634e+02
   6.862656e+01  -2.250084e+02
   2.610871e+02  -9.732478e+01
   2.613660e+02   2.037806e+01
   9.499762e+01   9.340282e+00
   4.377392e+01  -3.420922e+01
   1.368604e+02  -1.396047e+00
   1.960609e+02   1.202518e+02
   1.335497e+02   2.287991e+02
  -1.141269e+02   2.722873e+02
  -3.268235e+02   1.424057e+02
  -2.815796e+02  -1.011620e+02
   1.604413e+01  -3.153850e+02
   2.886604e+02  -3.863259e+02
   3.705185e+02  -1.560947e+02
   2.736722e+02   1.748334e+02
   9.277529e+01   3.132294e+02
  -2.273246e+00   2.867605e+02
   3.493013e+01   8.878958e+01
  -1.374555e+01   1.116021e+02
  -1.254089e+02   1.317192e+02
  -2.177826e+02   4.891219e+01
  -2.145749e+02  -1.138377e+02
  -7.329441e+01  -2.085568e+02
   1.059653e+02  -1.227529e+02
   2.386172e+02   6.447119e+01
   1.186954e+02   2.818078e+02
  -8.849849e+01   2.499421e+02
  -2.949784e+02   1.567185e+02
  -3.486922e+02  -1.729028e+02
  -1.796999e+02  -2.913652e+02
   5.882178e+01  -2.672903e+02
   1.730887e+02  -1.939138e+02
   1.787168e+02  -1.033568e+02
   1.354818e+02  -7.209555e+01
   2.406338e+02  -9.885542e+00
   3.691918e+02   1.056433e+02
   2.936399e+02   3.531342e+02
  -1.473970e+01   4.202457e+02
  -3.468347e+02   3.654026e+02
  -4.489301e+02   1.468318e+02
  -2.880783e+02  -1.364652e+02
  -3.956389e+01  -2.441475e+02
   2.824565e+01  -2.008579e+02
   4.268800e+01   1.725446e+01
  -7.235537e+01   2.893183e+01
  -1.443451e+02  -1.968821e+00
  -2.903431e+00  -1.430322e+02
   7.422744e+01  -1.203974e+02
   7.789628e+01   4.380463e+01
   1.394717e+01   1.173458e+02
  -1.602490e+02   1.959841e+00
  -1.296348e+02  -2.432732e+02
   1.217886e+00  -3.242413e+02
   2.321169e+02  -2.803935e+02
   3.609884e+02   7.912672e+00
   2.509071e+02   2.636608e+02
   9.772479e+01   2.531044e+02
  -1.309923e+02   1.286619e+02
  -1.543738e+02   9.204370e+00
  -4.087660e+01   6.189091e-01
   4.395358e+01   6.285334e+01
  -6.360084e+00   1.023281e+02
  -1.647887e+02   2.546238e+01
  -1.680702e+02  -6.290514e+01
  -5.685149e+01  -4.092726e+01
   1.218110e+02   9.529202e-01
   6.512973e+01   1.447248e+02
  -1.256846e+02   8.165668e+01
  -3.259572e+02  -4.690567e+00
  -2.766775e+02  -1.689298e+02
  -3.544035e+01  -2.573434e+02
   2.141863e+02  -2.285692e+02
   2.842704e+02  -6.013174e+01
   1.385507e+02   2.676842e+01
  -5.664321e+01   5.276413e+01
  -6.382836e+01  -5.651163e+01
   5.223547e+01  -1.502924e+02
   2.041818e+02  -5.522112e+01
   1.752098e+02   9.576517e+01
   6.475241e+01   1.903904e+02
  -8.097604e+01   1.822081e+02
  -1.456324e+02  -1.624030e+01
   4.544837e-01  -2.875622e+01
   1.018670e+02   2.353533e+01
  -1.806964e+00   1.464144e+02
  -1.130344e+02   1.425845e+02
  -2.465701e+02   7.291692e+01
  -2.145800e+02  -1.542335e+02
   3.530771e+00  -2.198890e+02
   1.446138e+02  -1.719733e+02
   1.470573e+02  -1.212443e+01
   1.148356e+01   6.938900e+01
  -7.430719e+01   4.507088e+01
  -8.677829e+01  -2.607223e+01
   4.690039e-01  -8.012785e+01
   6.508718e+01  -3.514557e-01
   3.230193e+01   3.127795e+01
  -7.779831e+01  -6.573197e+00
  -8.079160e+01  -6.014664e+01
  -4.976584e+01  -1.502909e+02
   1.242813e+02  -1.183203e+02
   2.475296e+02  -2.387194e+01
   2.198698e+02   1.759362e+02
  -5.544747e+00   2.212184e+02
  -6.833183e+01   1.262760e+02
  -1.324747e+02   4.601741e+01
   1.479525e+01  -8.537202e+01
  -3.844798e+01  -6.866736e+01
  -1.394878e+01   7.697097e+01
  -8.296969e+01   5.170904e+01
  -4.443542e+01  -4.330971e+01
   2.049434e+01  -1.348593e+02
   1.100627e+02  -1.083203e+02
   8.391273e+01   6.453447e+01
  -3.231699e+01   1.667287e+02
  -1.372455e+02   1.157966e+02
  -2.073990e+02  -4.941892e+01
  -1.209515e+02  -2.318330e+02
   1.101824e+02  -2.116254e+02
   2.871605e+02  -1.120629e+02
   2.422372e+02   5.382290e+01
   1.013134e+02   1.440774e+02
  -1.205628e+01   1.315395e+02
  -4.391923e+01   7.988007e+01
  -7.104571e+01   9.351348e+01
  -1.735817e+01   8.710527e+01
  -8.040446e+01   4.900769e+01
  -1.783043e+02  -3.973819e+01
  -1.431578e+02  -1.502493e+02
   3.747074e+00  -2.128002e+02
   1.019124e+02  -1.941497e+02
   1.863902e+02   3.033415e+01
   1.179541e+02   1.563100e+02
  -2.282786e+01   1.306231e+02
  -5.766422e+01   6.910747e+01
  -4.754966e+01  -3.539291e+00
   1.514259e+01  -5.845815e+01
   4.123083e+01  -1.750567e+01
  -7.169400e+01   3.744514e+01
  -1.302891e+02  -1.705363e+01
  -2.771395e+01  -5.583812e+01
   7.016328e+01  -6.226832e+01
   1.653246e+02  -4.943361e+01
   1.396264e+02   5.631505e+01
  -2.170356e+00   1.048450e+02
  -1.612159e+02   1.182495e+02
  -1.691307e+02  -3.323262e+01
  -7.488136e+01  -8.273952e+01
   5.302034e+01  -7.065597e+01
   8.566603e+01  -7.064494e+00
   6.129503e+01   7.004359e+01
  -2.575958e+01   5.296471e+01
  -3.047452e+01  -9.817584e+00
  -1.333757e+01  -7.945932e+01
   5.760597e+00  -4.632925e+01
  -2.285755e+01   4.437265e+01
  -2.859562e+01  -8.735641e+00
  -8.137842e+01  -4.264998e+01
  -1.042861e+01  -1.440059e+02
   1.197427e+02  -1.555088e+02
   1.637673e+02  -7.556004e+01
   1.702605e+02   8.758781e+01
   1.567838e+01   1.313986e+02
  -7.894218e+01   8.721913e+01
  -8.231315e+01   1.532541e+01
   3.563817e+01   2.922289e-01
   7.752006e+01  -7.966017e+00
   4.030548e+01   1.050507e+02
  -9.148154e+01   7.919852e+01
  -1.480340e+02   2.341125e+01
  -1.639974e+02  -3.940353e+01
   7.253587e+00  -7.637137e+01
   1.333118e+01  -7.090581e+01
   2.504064e+01  -3.945196e+01
  -4.435727e+01   4.003827e+01
  -7.394342e+01  -2.570995e+01
  -4.433483e+01  -1.268770e+02
   1.275746e+02  -1.892397e+02
   1.326416e+02  -3.152713e+01
   1.259449e+02   8.921586e+01
   1.556718e+00   1.523689e+02
  -4.084800e+01   1.355437e+02
  -1.078340e+02  -8.208570e+00
  -4.956111e+01  -9.963404e+01
   4.188558e+01  -5.381454e+01
   9.560055e+01  -3.037135e+00
   3.879791e+01   3.205932e+01
   2.717829e+01   3.237504e+00
  -7.396025e+00  -7.495488e+00
   1.956127e+01   1.241212e+01
   5.384390e+01   9.730213e+01
   2.370558e+01   8.404559e+01
  -1.709783e+01   4.023236e+01
  -1.113781e+02  -3.747052e+01
  -9.516304e+01  -4.190200e+01
  -1.662917e+01  -9.425243e+01
   7.924715e+01  -5.565477e+01
   4.739168e+01  -3.775802e+01
   3.446420e+01   2.031160e+01
   1.953744e+01  -2.771090e+01
   1.766956e+01   4.117675e+01
   3.711821e+01   6.046285e+00
  -6.183499e+00   5.629506e-01
  -6.466111e+01  -2.809080e+01
  -1.268173e+02   3.775995e+01
  -1.843240e+01  -8.144102e+01
   6.389919e+01  -1.347030e+02
   1.701989e+02  -9.140697e+01
   1.735871e+02   3.645754e+01
   6.502959e+01   1.470441e+02
  -4.228948e+01   1.295965e+02
  -8.578563e+01   6.460230e+01
  -8.704668e+01  -3.003929e+01
  -3.490701e+01  -1.354322e+01
  -3.025580e+01   7.604538e+00
  -1.719868e+01   1.023843e+01
  -2.543129e+01  -7.959540e+01
  -1.469376e+01  -6.756993e+01
   1.443402e+01  -6.917929e+01
   5.930109e+01  -3.942908e+00
   7.797710e+01   1.286352e+02
   7.940189e+00   1.138970e+02
  -7.291603e+01  -2.719334e+01
  -8.201297e+01  -4.480790e+01
  -7.596451e+01  -6.669177e+01
   5.299129e+01  -1.009911e+02
   1.058905e+02   1.329201e+01
   5.399871e+00   5.547271e+01
  -2.303941e+01   3.062161e+01
  -5.085819e+00   3.490939e+01
   1.646363e+01  -4.498622e+01
   4.046812e+01  -2.982720e+01
   1.242263e+01   1.377483e+01
  -8.729818e+01   4.466223e+01
  -9.452186e+01   3.915157e+01
  -6.683990e+01  -3.755718e+01
   1.212876e+01  -1.145488e+02
   5.890821e+01  -7.427972e+01
   6.007234e+01  -1.954836e+01
   6.046806e+00   5.451336e+01
   5.028328e+00   1.499251e+01
  -5.765682e+01   1.106672e+01
  -3.303761e+01  -5.658620e+01
  -1.242577e+01  -5.059851e+01
   6.938653e+01  -8.922840e-01
   1.212227e+01   2.087428e+01
   1.112611e+01   1.111039e+01
  -2.177290e+01  -6.239735e+01
  -2.705128e+01   1.184155e+01
   8.232469e+00   8.092279e+00
   1.885732e+01   2.645590e+01
  -4.994168e+00   5.415899e+01
  -9.303415e+01  -3.676077e+01
  -2.851051e+01  -4.777326e+01
   3.322981e+01  -3.658100e+01
   2.901663e+01  -3.978303e+00
   2.984178e+00   6.330773e+01
  -6.656970e+01   5.052354e+01
  -1.120877e+02  -2.962217e+01
  -5.681083e+01  -2.775103e+01
   4.017042e+01  -2.918048e+01
   4.411734e+01  -2.682112e+01
   2.199677e+01  -1.615238e+01
  -5.161783e+01  -3.363087e+01
  -4.169204e+01  -3.501756e+01
   2.827426e+01  -3.014050e+00
   8.650648e+01  -1.209584e+01
