
 $NMID
 id='ANONYMOUS ', fmtdat='(2E16.6)'
 volume=1.0
 tramp=1.0
 $END
   1.473722e+03  -6.314102e+01
   9.763012e+02   8.428539e+02
  -2.978975e+02   1.050808e+03
  -8.589631e+02   3.302071e+02
  -3.630307e+02  -2.428625e+02
   2.464175e+02  -2.072449e+02
   2.444541e+02   2.386601e+02
   1.203721e+01   3.933232e+02
  -2.022499e+02   2.738343e+02
  -2.566018e+02  -1.942341e+01
  -1.906955e+02  -3.242164e+02
   4.475873e+01  -3.643400e+02
   1.032640e+02  -1.632852e+01
   9.362292e+01   3.374151e+02
  -6.107138e+01   2.721047e+02
  -3.016855e+02   3.260914e+01
  -1.842174e+02  -1.712631e+02
   1.731483e+02  -1.885417e+02
   3.158317e+02   5.141994e+01
   2.278044e+02  -1.494957e+01
  -1.043976e+02   1.598073e+02
   7.781771e+01   5.094811e+01
  -1.795201e+01   7.006940e+01
  -5.775323e+01   5.769243e+00
   9.758691e+01   6.138988e+01
   5.899904e+01   1.499552e+02
  -1.292319e+02  -2.686383e+01
  -2.489239e+02  -5.664911e+01
  -1.937958e+02  -2.183680e+02
   1.209747e+02  -2.678841e+02
   2.118540e+02  -2.460673e+01
   1.135609e+02   2.529050e+02
  -9.496227e+01   1.109940e+02
  -2.321394e+02   9.077189e+01
  -1.495910e+02  -4.640644e+01
  -2.607634e+01  -1.648634e+02
   1.217243e+02  -8.383919e+01
   7.214754e+01   1.734032e+02
  -7.330455e+01   1.640643e+02
  -1.576008e+02  -3.570014e+01
  -9.060468e+01  -2.555539e+02
   1.514100e+02  -2.078866e+02
   2.028028e+02   5.759074e+01
  -1.667055e+01   2.114577e+02
  -1.341055e+02   9.517807e+01
  -1.440582e+02  -1.922658e+02
   3.900000e+01  -2.468695e+02
   2.081816e+02  -8.083847e+01
   2.090724e+02   1.546028e+02
   7.203755e+01   2.533401e+02
  -1.713252e+02   1.031159e+02
  -2.544641e+02  -3.519027e+01
  -1.083610e+02  -1.663509e+02
   1.054187e+02  -1.335224e+02
   1.960937e+02  -8.398986e-01
   4.812793e+01   9.416195e+01
  -1.121068e+02   5.347878e+01
  -5.690343e+01  -3.849823e+01
   8.969329e+01  -9.318786e+01
   1.084291e+02   2.890115e+01
   2.487280e+01   1.002401e+02
  -8.771666e+01   9.248729e+01
  -1.361867e+02   2.934296e+01
  -8.186922e+01  -6.533772e+01
   1.910490e+00  -1.093653e+02
   8.612699e+01  -1.255046e+02
   1.205628e+02  -4.359114e+01
   1.098603e+02   7.429162e+01
   1.387792e+00   1.303679e+02
  -5.831405e+01   1.072740e+02
  -3.848808e+01  -8.438759e+00
   3.339738e+00   1.389570e+01
  -8.718715e+00   5.941387e+01
  -6.551038e+01   6.283812e+01
  -1.166307e+02  -4.511393e+01
  -5.744890e+01  -1.169924e+02
   3.381652e+01  -1.078071e+02
   8.407845e+01  -1.495985e+01
   7.696587e+01   1.085721e+02
   1.429616e+01   1.258029e+02
  -1.141366e+02   3.088074e+01
  -1.520395e+02  -7.611600e+01
  -4.745606e+01  -1.274088e+02
   1.900604e+01  -1.048501e+02
   9.831592e+01  -5.706275e+00
   4.560729e+01  -3.834965e+01
   5.332586e+01  -4.141551e+01
   1.050940e+02  -1.882065e+01
   1.614072e+02   5.628315e+01
   1.428134e+02   1.003247e+02
  -4.012610e+01   1.747251e+02
  -1.472755e+02   1.486949e+02
  -1.930327e+02   4.248076e+01
  -9.891043e+01  -5.783080e+01
  -1.369952e+01  -1.060881e+02
   6.063057e+01  -7.121878e+01
   6.285289e+00   2.500545e+01
  -5.179066e+01   7.083214e+01
  -3.524900e+01   2.272833e+00
  -2.468388e+01  -6.214090e+01
   6.782279e+01  -4.746644e+01
   6.194445e+01   2.827681e+01
  -9.671662e+00   6.883546e+01
  -8.881612e+01   1.007322e+01
  -5.714493e+01  -1.248976e+02
   1.731631e+01  -1.426052e+02
   1.597630e+02  -8.141637e+01
   1.413520e+02   5.181819e+01
   8.882299e+01   1.534378e+02
  -4.962665e+01   1.022380e+02
  -8.435506e+01   9.468962e+01
  -6.684834e+01  -2.932133e+00
  -1.821521e+01  -8.095755e+00
   2.964789e+01   1.333656e+01
   1.171312e+01   6.827106e+01
  -5.392104e+01   7.811219e+01
  -5.800821e+01  -8.741329e+00
  -3.477761e+01  -5.809745e+01
   5.211449e+01  -2.391002e+01
   3.943823e+01   4.845594e+01
  -5.656005e+01   5.838702e+01
  -9.016965e+01  -1.825908e+01
  -7.853409e+01  -7.043872e+01
  -5.362746e+01  -1.157696e+02
   2.903124e+01  -1.041118e+02
   1.186915e+02  -4.839828e+01
   6.106911e+01   1.787166e+01
  -1.821403e+01   5.158023e+01
   2.748946e+01  -2.359732e+01
   2.437463e+01  -3.014088e+01
   1.080074e+02  -4.089951e+01
   9.841038e+01   2.447448e+01
   5.194635e+01   1.066512e+02
  -7.001387e+00   6.878374e+01
  -3.478314e+01   3.713441e+01
  -1.043719e+01  -1.752093e+01
  -4.106703e+00  -3.336251e+00
   3.424587e+01   3.636282e+01
  -6.068826e+01   7.314898e+01
  -6.092391e+01   3.125537e+01
  -6.285018e+01  -7.044804e+00
  -5.524425e+00  -8.714759e+01
   5.733737e+01  -3.732921e+01
   6.915988e+01   2.241975e+01
   1.556429e+01   7.436243e+01
  -1.019161e+01   4.429414e+01
  -6.223128e+01  -9.948202e+00
  -3.414833e+01  -3.169092e+01
  -6.228220e+00  -5.330782e+01
  -1.271160e+01   1.699929e+01
  -1.932632e+01  -6.024683e+01
  -2.622030e+01  -5.049365e+01
  -4.265271e+00  -2.575676e+01
   6.658923e+01  -2.208189e+01
   7.321299e+01   1.007619e+00
   5.993830e+01   3.733151e+01
   6.615258e+00   6.884110e+01
  -5.760934e+01   5.580325e+01
  -6.358553e+01   7.203692e+00
  -5.952760e+00  -6.436638e+01
   1.841865e+01  -4.927366e+01
  -4.295922e+00  -4.075552e+01
   2.647544e+01  -1.250728e+01
   8.510555e+00   1.350632e+01
   2.814800e+01   7.648307e+00
   2.277686e+01   4.045979e+00
   8.738006e+00   5.519515e+01
  -3.612785e+01   1.320207e+01
  -4.668015e+01  -2.161084e+00
  -5.699458e+01  -1.796602e+01
  -4.786190e+00  -7.080607e+01
  -7.360075e+00  -8.390674e+01
   7.251912e+01  -5.553700e+01
   5.555254e+01   1.282593e+00
   3.451719e+01   5.761694e+01
  -2.802770e+01   5.277440e+01
  -1.515816e+01  -5.163490e+00
  -5.047451e+00   3.835905e+01
  -2.021321e+01   3.596798e+01
  -5.972353e+01   4.893952e+01
  -6.211620e+01   6.887358e+00
  -5.953675e+01  -6.780924e+01
   8.172660e+00  -8.474046e+01
   3.922963e+01  -3.074453e+01
   4.112082e+01   3.895786e+01
   1.355416e+01   3.975061e+01
   1.349112e+01   4.446138e+01
  -3.230461e+01   8.488347e+00
  -3.448011e+00  -1.912000e+01
   8.940760e+00  -1.141674e+01
  -1.586196e+01  -2.552846e+01
  -1.370391e+01  -9.811178e+00
  -3.530570e+01  -1.559680e+01
  -2.188646e+01   5.000864e+00
   2.906406e+01   8.542565e+00
   8.655790e+01   1.369854e+01
  -2.476517e+01  -1.516700e+00
  -2.425679e+00   2.432556e+01
  -3.121661e+01   2.108213e+01
  -1.752632e+01   3.494817e-01
   2.863278e+01  -7.023469e+00
   4.709731e+01   4.973585e+00
   3.301867e+00   5.584317e+00
   3.585880e+00  -2.754173e+00
  -1.513597e+01  -6.508885e+00
   3.880003e+00  -2.408400e+01
  -2.518812e+01  -4.187559e+01
   2.253068e+01   2.430162e+01
   2.730162e+01   1.104347e+01
   2.849568e-01   2.442691e+01
   1.404220e+01  -1.122602e+01
   4.845713e+01  -1.962415e+01
  -2.043805e+01  -1.666731e+01
   6.488586e+01  -8.399722e+00
   6.363499e+01   1.751721e+01
   1.405505e+01   1.260289e+01
  -6.498998e+01   4.769174e+01
  -2.705309e+01   2.562681e+00
  -1.000257e+01  -2.159932e+01
   1.844054e+01   5.691379e+00
   4.381181e+01   1.624309e+01
  -3.441314e+01   3.184740e+01
  -6.610110e+01   2.332617e+01
  -4.382859e+01  -2.001619e+01
  -2.484648e+01  -6.418266e+01
   4.075074e+01  -3.164301e+01
   3.286537e+01   1.146295e+01
  -4.770953e+01  -1.296151e+01
  -4.211494e+01  -2.736968e+01
   1.143856e+01  -5.047218e+01
   5.353373e+01  -7.887875e+01
   8.625920e+01  -1.907205e+01
   8.428421e+01   5.099484e+01
   1.202011e+01   7.814663e+01
  -2.540288e+01   5.130630e+01
  -3.836235e+01  -2.003146e+01
   5.012650e+01  -4.820491e+01
   4.699892e+01  -2.326665e+01
  -2.717650e+01   2.775685e+00
   1.960768e+01  -6.023707e+00
   1.135924e+01   3.506507e+01
   3.105453e+00  -1.771596e+01
   3.373500e+01   2.255951e+01
   3.232042e+01   3.439925e+01
   4.020926e+00   4.694972e+01
  -2.370291e+01   4.555359e+00
  -7.209539e+01   1.565718e+01
  -6.106457e+01   4.367830e+00
  -6.366044e+00  -3.992237e+01
   3.449440e+01  -6.560500e+01
   4.145980e+01  -8.576137e+00
  -2.026980e+01   1.753336e+01
  -4.865007e+01   2.356414e+01
   1.284802e+01   8.130769e+00
   1.706039e+01   1.452189e+00
   1.892491e+01  -2.142994e+01
   3.988267e+00   6.762750e+00
  -3.031394e+01   3.836121e+00
   1.186377e+00  -2.088887e+01
   4.759677e+01  -8.348704e+01
   6.886956e+01  -8.711620e+00
   7.706404e+01   1.912686e+01
   5.542081e+01   6.736222e+01
  -6.115450e-01   6.374471e+01
  -3.494616e+00   5.286980e+01
  -4.358859e+01   1.838253e+00
  -2.908639e+01  -1.188913e+00
   2.592740e+01   1.042597e+01
  -1.248388e+01  -2.545882e+01
  -5.923653e+00   1.310014e+01
   1.165257e+01  -2.569147e+01
   2.638333e+01  -8.898318e+00
   1.949386e+00   9.637953e+00
   2.035159e+01   4.319993e+01
   1.234353e+01   9.827669e+00
  -1.575939e+01  -6.617419e-01
  -5.461805e+01   1.219527e+01
   4.430651e+00  -7.827331e+00
   3.224015e+01  -4.420495e+01
   1.156035e+01  -1.761926e+01
   3.705733e+01  -1.238725e+01
   7.622482e-01   3.153446e+01
  -1.510811e+01  -1.441300e+01
   2.793536e+01  -8.908464e+00
   6.127741e+01   4.652353e+00
   1.001529e+01  -2.171338e+01
   8.731314e+00  -3.033359e+00
  -2.997839e+01   2.652825e+01
  -5.907884e+01   7.145179e+00
  -6.856664e+00  -7.882556e+00
   2.246145e+01  -7.047051e+01
  -1.938375e+00  -3.787891e+01
   1.171794e+01  -3.553359e+00
   2.404870e+01   1.924158e+01
   2.081404e+00  -9.579381e+00
  -1.395103e+01   2.681536e+01
  -1.315960e+01  -4.611321e+01
   2.450122e+01  -3.440290e+01
   2.985280e+01   1.421802e+01
   8.645076e-01   4.165324e+01
   1.990431e+01   3.378421e+01
   2.356280e+01  -9.052201e+00
   3.559122e+00  -5.355734e+00
  -3.055552e+00   1.515041e+01
  -4.875257e+00   1.415891e+01
  -2.399951e+01   2.174195e+00
  -1.821780e+01   3.049276e+00
   2.202709e+01   2.344128e+01
   2.723161e+01   2.561910e+01
  -2.480323e+00   4.572954e+00
  -6.219212e+00   2.133343e+01
  -2.228910e+01  -4.002926e+01
  -4.269388e+01  -1.678939e+01
  -8.025086e+00  -6.062972e+00
   5.322938e+01   2.825068e-01
   1.702769e+00  -2.571079e+01
  -2.861580e+01   4.908086e+00
  -7.467624e+00   3.863042e+00
   3.716935e+01  -8.567096e+00
   1.724062e+01   9.922231e+00
