
 $NMID
 id='ANONYMOUS ', fmtdat='(2E16.6)'
 volume=1.0
 tramp=1.0
 $END
  -2.701017e+03   1.732359e+02
  -1.937320e+03  -1.284772e+03
  -3.596914e+02  -1.792189e+03
   1.011795e+03  -1.365755e+03
   9.566750e+02  -5.598208e+02
   4.087623e+02   1.224804e+01
  -1.301019e+02  -3.852210e+01
   4.701042e+01  -3.398618e+02
   3.829497e+02  -6.457849e+02
   5.364408e+02  -2.615633e+02
   4.524855e+02   3.126818e+02
   3.081792e+02   5.129811e+02
  -2.780694e+02   2.449548e+02
  -1.866473e+02  -1.889674e+02
   9.531665e+00  -5.450237e+02
   3.722363e+02  -2.348395e+02
   3.014970e+02   4.312625e+02
  -1.354010e+02   6.278739e+02
  -2.626058e+02   2.702851e+02
  -3.910108e+02  -1.756485e+02
  -1.695354e+02  -2.705030e+02
  -6.872035e+01  -9.463453e+01
  -2.216847e+01   6.329441e+01
  -1.968281e+02  -4.662925e+01
  -3.610742e+02  -2.105689e+02
   2.031863e+02  -3.083672e+02
   5.741856e+02  -1.638941e+02
   6.559755e+02   1.142441e+02
   4.428668e+01   3.632599e+02
  -2.305528e+02   4.928540e+01
  -4.770882e+02  -1.937838e+02
  -1.575381e+02  -2.864281e+02
   1.532689e+02  -2.005339e+02
   3.407372e+02  -5.211603e+01
   3.398145e+02   1.782731e+02
   7.672942e+01   1.286282e+02
   1.020968e+02   1.884661e+02
   1.578585e+02   5.450817e+00
   1.939893e+02  -1.142840e+02
   1.013126e+01   8.628829e+01
  -4.900552e+01   4.204954e+02
  -2.019039e+02   4.231993e+02
  -2.373311e+02   3.416817e+01
  -6.041242e+01  -2.243380e+02
   8.936408e+01  -9.894333e+01
   9.885549e+01   2.457959e+02
  -1.618542e+02   3.354129e+02
  -4.209700e+02   5.970465e+01
  -4.437706e+02  -3.736536e+02
  -1.445853e+02  -4.148358e+02
   2.146136e+02  -2.246639e+02
   4.519799e+02   1.820621e+01
   3.417026e+02   1.533083e+02
   1.226464e+00   1.697570e+02
  -2.380685e+02   1.019471e+02
  -1.761704e+02   2.196855e+01
  -7.090067e+01  -5.747714e+00
   1.833379e+01  -1.993944e+01
  -6.544988e+01   8.147230e+01
  -1.798328e+02   1.629319e+01
  -1.268557e+02  -1.554829e+02
   1.183567e+02  -2.599975e+02
   3.592808e+02  -1.682792e+02
   2.493017e+02   1.256264e+02
  -4.802323e+00   3.714621e+02
  -3.124435e+02   3.851602e+02
  -3.591766e+02   1.073837e+02
  -2.618515e+02  -1.676563e+02
  -1.153904e+01  -3.211341e+02
   6.065206e+00  -2.956904e+02
  -6.084307e+01  -1.755895e+02
   7.710462e+00  -9.899958e+01
   1.241958e+02  -1.623183e+02
   3.002414e+02  -8.608053e+01
   2.392534e+02   1.236764e+02
   1.397002e+02   2.257566e+02
  -8.420206e+01   1.984730e+02
  -1.588601e+02   1.984149e+00
  -1.225774e+02  -2.012727e+02
   4.412715e+01  -2.025779e+02
   2.192078e+02  -2.312858e+01
   2.624118e+02   1.853398e+02
   1.161312e+02   2.351188e+02
  -4.840115e+01   2.232128e+02
  -1.217900e+02   1.816663e+02
  -1.284433e+02   1.177644e+02
  -1.072885e+02   4.299331e+01
  -2.963181e+02   2.144266e+01
  -4.034199e+02  -6.571481e+01
  -3.001226e+02  -2.638510e+02
  -1.039711e+01  -4.347183e+02
   3.006876e+02  -4.750427e+02
   4.255243e+02  -1.585050e+02
   2.657262e+02   8.138256e+01
   3.209313e+01   2.408137e+02
  -3.796777e+01   1.166189e+02
   1.605740e+01  -2.936154e+01
   1.883804e+02  -3.255737e+01
   1.465902e+02   6.766774e+01
   2.251752e+00   1.648240e+02
  -1.099983e+02   6.705406e+01
  -1.035384e+02  -5.356630e+01
   4.691921e+01  -7.960152e+01
   1.682647e+02   5.206051e+01
   1.885808e+02   1.990865e+02
   1.345148e+00   3.037823e+02
  -2.537089e+02   1.944506e+02
  -3.451261e+02  -3.961022e+01
  -2.670311e+02  -2.181392e+02
  -4.430513e+01  -2.519679e+02
   1.304200e+02  -1.194762e+02
   9.329538e+01   1.183545e+01
  -5.235774e+00  -1.676800e+01
  -6.912754e+01  -9.184928e+01
  -8.072690e+00  -1.573949e+02
   1.532840e+02  -1.028760e+02
   1.489930e+02   5.340696e+01
   4.959688e+01   5.219784e+01
  -3.650799e+01   2.724247e+01
  -3.871486e-01  -8.046442e+01
   1.672982e+02  -7.054677e+01
   2.962924e+02   2.179140e+01
   2.561243e+02   2.165543e+02
  -3.668431e+01   2.968737e+02
  -2.237131e+02   2.491858e+02
  -2.956666e+02   5.312601e+01
  -6.976011e+01  -6.275094e+01
   6.425576e+01  -9.554279e+01
   7.563395e+01  -7.174164e+00
  -6.240138e+01   7.697808e+01
  -2.196752e+02   5.603586e+01
  -1.918971e+02  -4.893517e+01
  -3.720376e+01  -1.502540e+02
   1.344761e+02  -8.201060e+01
   1.542632e+02  -1.895704e+00
   2.247292e+01   6.524490e+01
  -9.373764e+01  -6.072976e+01
  -7.374316e+01  -1.187659e+02
   1.168918e+02  -1.155608e+02
   2.239200e+02  -3.335398e+01
   2.130127e+02   1.678016e+02
   1.778874e+01   1.952963e+02
  -1.490712e+02   1.568395e+02
  -1.629379e+02   2.154658e+01
  -2.213824e+01  -7.135170e+01
   8.434490e+01  -1.208995e+02
   6.868459e+01  -8.815231e+00
  -1.960967e+00   2.569491e+01
  -5.618256e+01   4.150401e+01
   1.356763e+00  -1.061676e+01
   8.267914e+01  -7.054576e+00
   1.359858e+02   9.866279e+01
   3.297231e+00   1.791894e+02
  -1.330383e+02   1.582012e+02
  -2.503974e+02   1.155980e+01
  -1.713043e+02  -1.841091e+02
  -8.186938e+00  -1.941108e+02
   1.013445e+02  -1.375330e+02
   1.514604e+02   1.988963e+01
   6.588534e+01   4.759148e+01
   1.220487e+01  -3.096658e+00
   8.965611e+00  -3.610798e+01
   8.080961e+01  -2.505101e+01
   5.091796e+01   6.718593e+01
  -3.739449e+00   1.141383e+02
  -1.163788e+02   9.648704e+01
  -1.238159e+02  -5.637228e+01
  -1.385210e+01  -1.417442e+02
   1.687061e+02  -9.245522e+01
   1.893935e+02   1.238075e+02
   6.385043e+01   2.208972e+02
  -9.799186e+01   2.052400e+02
  -2.314659e+02   5.266651e+01
  -2.132424e+02  -9.093225e+01
  -1.111526e+02  -1.573119e+02
   3.527907e+01  -1.292374e+02
   8.032897e+01  -8.935323e+01
   7.141192e+01  -4.363269e+01
   1.728641e+01  -5.427441e+01
   5.286122e+01  -8.223742e+01
   9.460730e+01  -4.329577e+00
   1.227154e+02   1.397655e+02
   3.232297e+01   2.348261e+02
  -1.100914e+02   1.838495e+02
  -1.638862e+02  -9.205415e+00
  -1.391457e+02  -8.356492e+01
   1.539611e+01  -1.786729e+02
   6.210452e+01  -6.961480e+01
   1.220498e+02   4.376771e+01
  -2.689722e+00   7.863207e+01
   3.874161e+00   2.326124e+01
   1.128913e+00   3.032686e+00
   4.489131e+01   1.134468e+01
   4.989011e+01   4.352075e+01
  -8.677466e+01   5.900116e+01
  -1.326927e+02  -4.096948e+01
  -1.306371e+02  -9.222104e+01
  -4.208656e+00  -8.622171e+01
   8.604424e+01  -3.915273e+01
   1.293612e+02   3.958687e+01
   4.095327e+01   5.493404e+01
  -8.123039e+01   6.381075e+01
  -5.329315e+01   1.612702e+01
  -4.141603e+01  -5.440769e+01
   5.110896e+01  -7.724928e+01
   7.058334e+01  -1.608850e+01
   6.160648e+01  -4.580570e+00
  -1.077527e+01   6.412934e+01
   4.583488e+01  -9.308581e+00
   4.850473e+01  -2.556680e+01
   1.205685e+02   4.575961e+01
  -2.239386e+01   1.559306e+02
  -1.258887e+02   1.504564e+02
  -1.643308e+02   5.653669e+01
  -1.349511e+02  -9.538224e+01
   2.053539e+01  -1.397686e+02
   9.144984e+01  -2.718231e+01
   3.637595e+01   2.589830e+01
  -6.880624e+01   4.112011e+01
  -1.253498e+02  -5.630441e+01
  -5.158085e+01  -1.211946e+02
   6.081611e+01  -1.338162e+02
   2.080779e+02  -7.949942e+01
   1.150265e+02   5.371399e+01
   2.978057e+01   9.910713e+01
  -9.873185e+01   2.933974e+01
  -2.413379e+01  -5.914181e+00
   2.755362e+01  -4.010011e+01
   6.738636e+01   2.952967e+01
   3.875098e+01   1.053274e+02
  -6.756992e+01   9.402464e+01
  -1.244179e+02   8.093067e+01
  -1.273818e+02  -8.125750e+01
  -2.491796e+01  -1.837221e+02
   4.365654e+01  -1.206850e+02
   1.228186e+02   1.128383e+01
   3.794983e+01   1.527113e+02
  -7.275700e+01   1.041568e+02
  -4.738813e+01  -1.712628e+01
  -2.584140e+01  -2.511863e+01
  -4.811053e-01   8.869836e+00
   3.480506e+00   2.120690e+00
  -6.918741e+01  -1.393551e+01
  -1.043216e+02  -7.649220e+01
  -5.050990e+01  -1.007516e+02
   4.407453e+01  -5.134075e+01
   1.139707e+02   6.096128e+00
   1.107070e+02   3.778620e+01
   5.463176e+01   5.265910e+01
  -3.174940e+01   3.770848e+01
  -1.074439e+02  -4.119947e+01
  -1.483816e+01  -4.518238e+01
   3.156721e+01  -3.111379e+01
   3.281671e+01   2.888377e+01
   1.274394e+00   2.557281e+00
  -8.446847e-01  -1.938990e+01
   5.174791e+01  -4.380255e+01
   9.250896e+01   6.219439e+00
   5.152687e+01   6.886820e+01
  -4.408873e+01   9.950533e+01
  -1.791456e+02   9.492097e+01
  -1.830795e+02  -4.058351e+01
  -4.778642e+01  -1.593900e+02
   7.538575e+01  -1.512504e+02
   1.109474e+02  -7.248379e+01
   1.007016e+02  -1.468987e+00
   1.516880e+01   4.267328e+01
  -1.223632e+01   5.787078e+01
   1.570500e+01   1.739623e+01
   1.051505e+01   5.148111e+01
   3.209875e+01   1.013793e+02
  -3.216299e+01   3.632562e+01
  -1.013796e+02  -2.733566e+01
  -8.644429e+01  -3.604072e+01
  -3.060625e+01  -7.877458e+01
   5.197016e+01  -5.384410e+01
   6.096454e+01  -2.858333e+01
   2.405814e+01   7.337944e+01
  -7.738258e+01   7.297153e+01
  -1.056312e+02  -4.808856e+00
  -1.253439e+01  -7.294405e+01
   2.725025e+01  -1.040679e+02
   3.234096e+01  -1.066554e+01
  -7.177046e+00   3.294724e+01
  -5.773408e+01   2.587805e+01
   1.742413e+01  -2.695110e+01
   1.057940e+02  -6.568760e+01
   1.122067e+02  -2.758723e+01
   7.089503e+01   4.441997e+01
  -2.474961e+01   8.364684e+01
  -9.778472e+01   5.916302e+01
  -5.723415e+01   5.421486e+01
  -2.850912e+01  -3.058548e+01
   2.492737e+01   8.325465e+00
   1.744815e+01   1.973358e+01
  -7.363821e-01   5.830283e+01
  -3.949759e+00   2.901211e+01
  -6.525756e+01  -3.199656e+01
  -2.569612e+01  -5.431922e+01
   8.670064e+00  -1.032579e+00
   2.501712e+01   2.992584e+01
  -1.044876e+01   6.040652e+01
  -2.876968e+01  -3.612752e+01
   8.056934e+00  -1.089540e+02
   9.657963e+01  -3.488715e+01
   9.439210e+01   4.258952e+01
   2.099920e+01   9.149781e+01
  -5.389880e+01   4.507492e+01
  -1.231032e+02  -2.123903e+01
  -4.214030e+01  -5.213437e+01
   7.997589e+01  -8.701785e+00
   8.720412e+01   1.896611e+01
   3.696437e+01   2.402522e+01
  -2.717263e+01  -5.292346e+00
  -4.456537e+01   1.696766e+01
  -2.363140e+01  -1.397830e+01
   5.060850e+01  -1.206456e+01
   1.282923e+01   1.832349e+01
   1.007626e+01   2.302803e+01
  -2.817298e+01   9.819371e-01
