
 $NMID
 id='ANONYMOUS ', fmtdat='(2E16.6)'
 volume=1.0
 tramp=1.0
 $END
  -2.026615e+03   4.844589e+01
  -1.537189e+03  -9.631063e+02
   1.178309e+00  -1.271359e+03
   5.322199e+02  -8.515198e+02
   5.751098e+02  -6.719124e+02
   2.041913e+02  -6.217687e+01
  -2.131477e+02   1.435150e+02
  -1.280826e+02  -3.631204e+02
   2.658342e+02  -3.126979e+02
   3.223792e+02   3.187766e+01
   2.870731e+02   3.455408e+02
   5.901447e+01   3.169169e+02
  -1.083012e+02   2.787173e+02
  -6.126992e+01  -1.284208e+02
   2.119405e+01  -5.308983e+02
   4.482601e+02  -9.702529e+01
   3.350534e+02   3.182590e+02
   3.133061e+01   5.045754e+02
  -2.396525e+02   3.976496e+02
  -2.435222e+02  -1.320484e+01
  -1.229834e+02  -1.129941e+02
   1.598332e+02  -1.488774e+02
  -1.418354e+01  -1.019003e+01
  -2.916970e+02   8.262500e+01
  -2.203912e+02  -2.007246e+02
   8.419506e+01  -2.541104e+02
   3.931855e+02   1.846854e+00
   3.488165e+02   7.860029e+01
  -8.493310e+00   1.959546e+02
  -3.883610e+02   1.178442e+02
  -3.802522e+02  -8.078422e+01
  -9.116234e+01  -3.553984e+02
   2.411746e+02  -2.410659e+02
   3.413378e+02  -1.081105e+02
   1.234496e+02   9.398894e+01
  -2.973283e+01   2.126236e+02
  -1.969280e+01   1.724211e+02
   1.520084e+02  -1.263974e+02
   2.322408e+02  -1.349178e+02
   7.542727e+01   9.380951e+01
  -1.412064e+02   3.252211e+02
  -1.872007e+02   3.383231e+02
  -1.181353e+02   2.942463e+01
  -5.981213e+01  -2.096824e+02
   5.368086e+01  -7.342484e+01
   7.767522e+01   2.179780e+02
  -8.485412e+01   2.857543e+02
  -3.127066e+02   4.425067e+01
  -3.725395e+02  -2.857816e+02
  -1.576072e+02  -3.831632e+02
   2.100893e+02  -2.204702e+02
   4.025956e+02   6.001418e+01
   2.767284e+02   1.990248e+02
  -2.955602e+01   1.527065e+02
  -2.584175e+02   6.367780e+01
  -2.147522e+02  -4.349678e+00
  -3.152153e+01  -2.375979e+01
   3.538947e+01  -1.534655e+01
  -5.168717e+01  -6.432296e+00
  -1.425680e+02  -4.754691e+00
  -1.042329e+02  -1.115476e+02
   9.827288e+01  -2.276429e+02
   2.631255e+02  -1.509942e+02
   2.108478e+02   9.886220e+01
   2.384722e+00   2.882717e+02
  -2.255380e+02   3.006846e+02
  -2.982502e+02   1.003762e+02
  -1.827943e+02  -1.684524e+02
  -1.925330e+01  -2.735292e+02
  -5.898529e+00  -2.256802e+02
   9.108989e+00  -1.279901e+02
   4.171035e+01  -1.010712e+02
   1.163196e+02  -1.112032e+02
   2.131380e+02  -8.311143e+01
   1.714202e+02   1.059996e+02
   2.385629e+01   1.993490e+02
  -9.485721e+01   1.632239e+02
  -1.677921e+02  -5.011218e+01
  -1.383999e+02  -2.673938e+02
   3.416794e+01  -2.532614e+02
   2.505913e+02  -6.675018e+01
   3.313926e+02   1.315076e+02
   1.713370e+02   2.188530e+02
  -2.960987e+01   1.745186e+02
  -1.228613e+02   9.669756e+01
  -5.666622e+01   5.007076e+01
  -3.631006e+01   9.035128e+01
  -1.322883e+02   1.099262e+02
  -2.905329e+02  -4.508580e+01
  -3.025304e+02  -2.069523e+02
  -3.429952e+01  -3.584977e+02
   2.674035e+02  -3.199007e+02
   3.767199e+02  -1.194215e+02
   2.174642e+02   8.325631e+01
   6.459275e+00   2.161365e+02
  -8.895481e+01   1.164784e+02
   2.137950e+01   4.147735e+00
   1.068876e+02  -2.677273e+01
   3.752892e+01   6.497400e+01
  -1.683293e+01   1.612657e+02
  -9.504631e+01   1.104893e+02
  -7.156861e+01  -5.204510e+01
   7.798960e+00  -1.455484e+02
   1.197763e+02  -6.808203e+01
   1.175613e+02   1.744535e+02
   1.391584e+01   2.956348e+02
  -1.554819e+02   1.793948e+02
  -2.979677e+02  -2.893040e+01
  -2.068613e+02  -2.233872e+02
  -9.699530e+00  -2.430446e+02
   1.121524e+02  -9.999790e+01
   9.287126e+01   2.819069e+00
   2.047356e+01   2.695370e+01
  -8.648902e+01  -6.654834e+01
  -4.166957e+01  -1.078064e+02
   1.323917e+02  -5.593057e+01
   1.290752e+02   2.278134e+01
   1.179630e+01   1.077339e+01
  -9.561675e+01  -1.575992e+01
  -1.784091e+01  -8.952659e+01
   9.928345e+01  -7.845360e+01
   2.296329e+02   1.918606e+01
   1.959706e+02   1.073208e+02
   1.035470e+01   2.235455e+02
  -1.595323e+02   1.660438e+02
  -2.296048e+02   1.000370e+02
  -1.223693e+02  -3.482951e+01
   2.036171e+00  -3.577894e+01
   6.162038e+00  -1.679522e+01
  -7.088630e+01   4.700855e+01
  -1.400378e+02   1.315057e+01
  -1.285091e+02  -8.575739e+01
  -4.018336e+01  -1.776669e+02
   1.003560e+02  -6.702818e+01
   1.181645e+02  -1.755279e+00
   4.327301e+01   5.339763e+01
  -5.656947e+01   3.198725e+01
  -5.482272e+01  -8.526399e+01
   7.815576e+01  -1.132339e+02
   1.892192e+02  -1.360221e+01
   1.459318e+02   8.610703e+01
  -5.835616e+00   1.432076e+02
  -1.232409e+02   9.834645e+01
  -9.199820e+01  -2.660441e+01
  -1.945897e+01  -1.129458e+02
   2.031816e+01  -7.523393e+01
   5.963984e+01   1.679917e+01
  -1.238996e+00   1.948294e+01
  -2.826253e+01   3.363510e+01
   6.748947e+00  -7.913540e+00
   5.048088e+01  -3.284193e+01
   4.855707e+01   5.297870e+01
   7.754507e+00   1.645413e+02
  -1.573672e+02   9.825829e+01
  -1.553682e+02  -7.503909e+00
  -1.378645e+02  -1.336020e+02
   5.698376e+00  -1.605876e+02
   8.589509e+01  -9.378941e+01
   1.054831e+02  -1.443845e+01
   6.353755e+01   2.895463e+01
   4.083679e+01   2.335466e+01
   6.579449e+01  -2.902508e+01
   1.114394e+02  -5.719364e+01
   7.856664e+01   7.727515e+01
  -1.041444e+01   1.474443e+02
  -1.023740e+02   7.870975e+01
  -1.009829e+02  -5.122226e+01
  -1.008383e+01  -1.304475e+02
   1.226804e+02  -1.087970e+02
   1.628364e+02   5.792034e+01
   5.787773e+01   1.630851e+02
  -1.041437e+02   1.401066e+02
  -2.419637e+02   3.324041e+01
  -2.055045e+02  -7.457524e+01
  -1.119456e+02  -1.573917e+02
   4.374810e+01  -1.363622e+02
   9.513101e+01  -6.712233e+01
   6.401832e+01  -5.542185e+01
   5.986249e+00  -1.818762e+01
   2.238966e+01  -6.265681e+01
   8.835297e+01   2.258842e+01
   1.107624e+02   1.147301e+02
   5.067675e+01   1.790964e+02
  -4.888874e+01   1.366082e+02
  -1.061510e+02   2.373825e+01
  -7.678710e+01  -6.060541e+01
  -3.270004e-01  -9.718243e+01
   3.118786e+01  -6.830754e+01
   2.229945e+01   3.183865e+01
   9.444974e+00   8.549673e+01
  -4.999949e+01   4.351288e+01
   4.206593e+01  -3.057311e+01
   7.996095e+01  -2.567218e+00
   1.940607e+01   2.856001e+01
  -5.092655e+01   5.088513e+01
  -1.836194e+02   4.263565e+00
  -1.534596e+02  -5.894947e+01
  -5.240686e+01  -7.581819e+01
   1.263443e+02  -6.619374e+01
   1.106509e+02   1.210540e+01
   8.442882e+01   2.871840e+01
  -3.997595e+01   5.053107e+01
  -7.539320e+01  -2.769454e+01
  -1.990029e+01  -4.402671e+01
   1.679103e+01  -7.193907e+01
   8.897907e+01  -1.359178e+01
   4.501696e+01   3.573421e+01
   4.186330e+00   5.147026e+01
   4.684200e+01  -1.621435e+01
   6.420140e+01   2.770056e+01
   2.678180e+01   2.972124e+01
  -4.676218e+01   7.760872e+01
  -1.269865e+02   1.253095e+02
  -1.121276e+02   3.431801e+01
  -9.879843e+01  -5.785340e+01
   2.207408e+01  -1.023972e+02
   1.235748e+02  -5.726430e+01
   7.331294e+01   3.031240e+01
  -6.072048e+01   6.301824e+01
  -1.085974e+02   2.820332e+01
  -8.052062e+01  -2.080925e+01
   2.767019e+00  -1.168308e+02
   1.392374e+02  -3.204536e+01
   1.149427e+02   3.091957e+01
   2.014668e+01   5.468362e+01
  -7.081011e+00   3.742654e+01
  -3.462702e+01  -3.845718e+01
   1.481861e+01  -4.984119e+01
   7.800786e+01  -2.351843e+01
   9.062628e+00   9.840825e+01
  -1.685196e+01   1.213081e+02
  -7.185748e+01   6.147959e+01
  -8.236802e+01  -5.331191e+01
  -3.018418e+01  -1.629333e+02
   2.746711e+01  -1.081245e+02
   3.330750e+01   7.671259e+00
   1.583503e+01   7.367273e+01
  -1.466254e+01   9.904930e+01
   1.035485e+00  -3.640905e+00
  -6.449179e+01   1.558259e+01
  -3.332951e+01   1.223794e+00
   1.566863e+01   2.180314e+01
  -5.928180e+00   1.050626e+01
  -5.535545e+01  -5.201143e+01
  -5.395738e+01  -1.048712e+02
   3.223726e+01  -3.340976e+01
   9.496883e+01   4.283415e+01
   9.048928e+01   1.019271e+02
   6.720741e+01   4.819632e+01
  -1.167820e+01   1.379749e-01
  -4.680055e+01  -1.024207e+01
  -4.559024e+01  -1.312764e+01
   5.989243e+00  -9.937900e+00
   2.134896e+01   2.887220e+01
   2.074920e+01  -1.527558e+01
  -5.680410e+00  -3.036642e+01
   2.713259e+01   2.282304e+01
   6.678452e+01   2.191838e+01
   7.407167e-01   4.640657e+01
  -9.450251e+01   6.162905e+01
  -1.303186e+02   5.421554e+01
  -1.442779e+02  -7.523240e+00
  -2.022490e+01  -9.363197e+01
   3.238760e+01  -1.389240e+02
   1.306224e+02  -5.768600e+01
   7.690805e+01  -2.237513e+01
  -2.765986e+01   3.559334e+01
   1.996309e+01   3.976620e+01
   3.120305e+01   4.041140e+01
   7.848166e+00   7.520044e+01
   9.586616e+00   3.907299e+01
  -2.051633e+01   8.827499e+01
  -6.605129e+01   2.970871e+01
  -4.785810e+01  -8.181053e+01
   2.438442e+01  -5.049841e+01
   1.172199e+02  -3.563933e+01
   8.653068e+01   4.219695e+01
   3.041194e+00   1.013458e+02
  -5.679921e+01   8.078166e+01
  -5.782355e+01   5.880760e+00
  -5.103094e-01  -7.071759e+01
   6.437477e+01  -4.938491e+01
   6.467842e+01  -2.879982e+01
   2.132024e+01  -1.023223e+01
  -6.778078e+01   1.014223e+01
  -2.581762e+01  -3.782062e+01
   7.972054e+01  -7.699830e+01
   1.326454e+02  -6.346450e+01
   3.518335e+01   5.039049e+01
   8.902485e+00   1.132662e+02
  -5.828571e+01   1.038990e+02
  -7.521846e+01   4.329148e+01
  -2.776896e+01  -5.801607e+01
  -3.206114e+01  -5.200320e+01
   2.365910e+01   1.971286e+01
  -2.119697e+01   8.396088e+01
  -3.289874e+01   2.824441e+01
  -1.256942e+01  -5.733160e+00
   1.289789e+01  -4.632737e+01
   6.942456e-01  -3.340957e+01
   6.753658e-01   1.491943e+01
  -4.357466e+00   1.134246e+01
   2.877667e+01  -2.219111e+01
  -3.921656e+01  -3.916455e+01
   5.189055e+01  -5.733885e+01
   6.062854e+01   4.866299e+01
   4.301367e+01   4.181043e+01
  -4.735191e+01   1.267913e+01
  -7.454365e+01  -1.356173e+01
  -2.007902e+01  -7.565302e+01
   4.869109e+01  -6.625542e+01
   4.233989e+01  -1.660817e+01
   6.636040e+01   5.496405e+01
   2.865862e+01   6.147857e+01
  -5.011021e+01   4.936261e+01
  -1.821215e+01  -2.335106e+01
   4.760330e+01  -1.432343e+01
  -2.790099e+00   6.037239e+00
  -5.321318e+01   6.290225e+00
  -5.462574e+01   2.870769e+01
