
 $NMID
 id='ANONYMOUS ', fmtdat='(2E16.6)'
 volume=1.0
 tramp=1.0
 $END
  -2.645164e+03   8.066413e+01
  -1.641908e+03  -1.259360e+03
   1.561148e+02  -1.707045e+03
   1.093725e+03  -9.069515e+02
   7.268232e+02  -2.168919e+02
  -4.325459e+01  -2.395009e+01
  -2.842171e+02  -1.307138e+02
  -4.920320e+01  -4.975456e+02
   4.303395e+02  -5.307244e+02
   4.819621e+02  -1.111015e+02
   3.081864e+02   4.315156e+02
  -1.089465e+02   5.566747e+02
  -3.780465e+02   3.136685e+02
  -3.910616e+01  -4.482049e+02
   2.371747e+02  -4.533480e+02
   2.014705e+02   1.309440e+01
   3.801960e+02   5.034387e+02
  -2.905812e+01   5.495816e+02
  -4.479377e+02   7.922343e+01
  -4.817965e+02  -4.554273e+01
  -4.580339e+01  -1.512600e+02
  -1.552207e+02  -2.185755e+02
   2.001631e+02  -4.597471e+01
  -8.693030e+01  -8.422957e+01
  -2.953156e+02  -2.440058e+02
  -6.250777e+01  -2.607227e+02
   4.464697e+02  -3.481510e+01
   4.368683e+02   2.490180e+02
   1.617342e+02   3.768260e+02
  -2.786358e+02   2.135095e+02
  -4.772046e+02  -1.120226e+02
  -1.254799e+02  -2.979098e+02
   2.852666e+02  -3.658938e+02
   3.466128e+02  -1.332504e+02
   3.012032e+02   1.353766e+02
   1.012646e+02   3.001163e+02
  -6.577548e+01   1.361302e+02
   1.634960e+01  -1.173338e+02
   1.313238e+02  -1.415994e+02
   1.497296e+02   1.165126e+02
   1.883255e+01   3.845439e+02
  -1.063174e+02   3.223246e+02
  -4.069783e+02   4.684117e+01
  -3.202472e+01  -2.200459e+02
   7.680243e+01  -9.913446e+01
   1.327067e+02   2.829771e+02
  -1.263562e+02   2.921261e+02
  -4.126467e+02   1.324549e+01
  -4.296765e+02  -3.115325e+02
  -1.433411e+02  -4.451304e+02
   3.057645e+02  -2.324004e+02
   4.079614e+02   8.230663e+01
   2.595239e+02   2.400274e+02
  -2.464296e+01   2.386760e+02
  -2.504298e+02   1.035148e+02
  -1.865566e+02  -1.251873e+01
  -8.933785e+01   1.520706e+00
   1.255709e+01   1.529098e+01
  -9.092386e+01   7.531796e+00
  -5.633929e+01  -6.000369e+01
  -3.662085e+01  -1.560537e+02
   1.432559e+02  -2.014964e+02
   2.619878e+02  -1.139395e+02
   2.066453e+02   1.496871e+02
   1.223631e+01   2.966264e+02
  -2.474824e+02   3.905562e+02
  -3.662955e+02   1.505289e+02
  -3.093708e+02  -1.449253e+02
  -7.722377e+01  -3.541162e+02
   3.071202e+01  -2.949463e+02
   1.017710e+01  -1.709496e+02
   3.913221e+01  -1.190485e+02
   8.656175e+01  -7.922858e+01
   2.346749e+02   2.063715e+01
   2.245029e+02   1.325963e+02
   9.539372e+01   2.748241e+02
  -9.306933e+01   1.749409e+02
  -2.093516e+02  -1.546307e+01
  -8.293387e+01  -2.187372e+02
   2.519419e+01  -2.213779e+02
   2.688952e+02  -6.681022e+01
   2.588553e+02   1.140576e+02
   1.331325e+02   1.997080e+02
  -4.348061e+01   1.840648e+02
  -8.155320e+01   1.433853e+02
  -1.422265e+02   9.844515e+01
  -1.290915e+02   1.011904e+02
  -2.432554e+02   3.457110e+01
  -3.319033e+02  -7.409604e+01
  -2.709403e+02  -2.474977e+02
  -1.664292e+01  -4.117282e+02
   3.065797e+02  -3.150045e+02
   3.944238e+02  -1.335612e+02
   2.314852e+02   1.159706e+02
   2.323530e+01   2.137821e+02
  -6.108033e+01   1.798671e+02
   3.539663e+01   7.447473e+01
   1.200867e+02  -2.635278e+01
   1.007512e+02   4.030516e+01
  -2.053401e+01   4.796407e+01
  -1.178204e+02   5.373181e+01
  -1.359554e+02  -1.135234e+02
   3.327964e+01  -8.931386e+01
   1.299179e+02  -8.712487e+00
   1.964457e+02   2.606990e+02
  -1.568822e+01   3.078235e+02
  -2.371897e+02   2.295298e+02
  -3.490334e+02  -9.800220e+01
  -2.480504e+02  -2.187990e+02
  -1.833170e+01  -2.463347e+02
   1.099781e+02  -1.038150e+02
   1.131231e+02   2.809740e+01
   3.923806e+01   2.255625e+01
  -3.196256e+01  -6.716745e+00
   1.717007e+01  -1.041529e+02
   9.474030e+01  -6.481305e+01
   1.212293e+02   6.224473e+01
   1.655384e+01   6.316790e+01
  -4.122554e+01  -5.032243e+00
  -4.158909e+01  -8.531426e+01
   1.308514e+02  -7.208673e+01
   2.340581e+02   1.374236e+01
   1.867231e+02   1.338317e+02
  -1.772908e+01   2.359036e+02
  -1.838549e+02   2.345056e+02
  -2.609236e+02   6.342828e+01
  -1.182809e+02  -6.655825e+01
   3.128752e+01  -8.861371e+01
   9.036870e+01  -5.513451e+01
  -2.191852e+01   3.202301e+01
  -1.628775e+02   1.585994e+01
  -1.391780e+02  -6.531083e+01
  -1.762449e+01  -1.580871e+02
   6.978309e+01  -1.062324e+02
   1.104714e+02   1.112806e+00
   5.537440e+01   2.391511e+01
  -7.221289e+00  -3.062151e+01
   6.916143e+00  -1.242387e+02
   1.005380e+02  -1.256216e+02
   1.871878e+02  -1.120081e+01
   1.522969e+02   1.178308e+02
   2.704106e+01   2.130151e+02
  -1.087938e+02   8.039933e+01
  -1.448663e+02   1.388298e+01
  -3.967479e+01  -6.438677e+01
   6.920010e+01  -7.923745e+01
   1.481995e+00  -6.177120e+01
  -8.096381e-01   3.655452e+01
  -2.312658e+01   1.210377e+01
  -3.679290e+00  -1.979989e+01
   3.547302e+01   6.291592e+00
   6.219800e+01   7.797997e+01
   2.568227e+01   1.113232e+02
  -1.096075e+02   1.119364e+02
  -1.916719e+02   2.678939e+01
  -1.619029e+02  -1.268471e+02
   3.703313e+00  -2.312258e+02
   7.330268e+01  -1.489141e+02
   1.494302e+02  -5.308722e+01
   1.062871e+02   7.092603e+00
   5.855663e+01   3.862474e+01
   7.571612e+01   1.447839e+01
   6.829865e+01   2.224537e+01
   4.623896e+01   7.172404e+01
  -1.022589e+01   9.488896e+01
  -1.161399e+02   6.656376e+01
  -6.481735e+01  -3.205607e+01
   1.563323e+01  -8.816293e+01
   1.219889e+02  -5.303192e+01
   1.494188e+02   7.253518e+01
   2.776396e+01   2.118981e+02
  -1.484845e+02   2.252623e+02
  -2.355711e+02   3.450785e+01
  -2.584548e+02  -1.099041e+02
  -8.974295e+01  -1.933285e+02
   6.276904e+01  -1.475483e+02
   8.501089e+01  -8.473451e+01
   1.091322e+02  -4.750626e+01
   4.701076e+01  -9.554557e+01
   9.904330e+01  -6.364975e+01
   1.264669e+02  -5.605376e+00
   7.227966e+01   1.370197e+02
   6.025998e+01   1.599644e+02
  -6.052897e+01   1.297717e+02
  -1.431547e+02   4.974335e+01
  -8.206638e+01  -9.802979e+01
   7.587876e+00  -9.380012e+01
   8.735253e+01  -5.827459e+01
   5.007366e+01  -2.326168e+01
   3.119814e+00   4.811727e+01
  -3.099768e+01   4.244896e+01
   5.146202e+00   1.635964e+01
   4.192626e+01   6.272502e+01
   2.178730e+01   2.498099e+01
  -7.486100e+01   5.007647e+01
  -1.523553e+02   4.524991e+00
  -1.360488e+02  -8.270055e+01
   3.451102e+01  -1.177288e+02
   1.286081e+02  -5.291308e+01
   1.565606e+02   7.370923e+00
   6.024833e+01   8.288934e+01
  -8.651137e+01   6.462258e+01
  -8.033203e+01  -1.369147e+01
  -3.142476e+01  -8.239497e+01
   5.309655e+01  -8.949526e+01
   5.382621e+01  -7.015130e+00
   6.081565e+01   4.836234e+01
   2.758006e+01   4.188022e+01
   3.999715e+01   3.156066e+01
   3.090318e+01   8.216686e+00
   4.163388e+01   2.208753e+01
  -9.617238e+00   1.223419e+02
  -1.052622e+02   1.239823e+02
  -1.454604e+02   1.728632e+01
  -1.352965e+02  -8.961053e+01
  -1.898365e+01  -1.412111e+02
   1.020944e+02  -5.657925e+01
   8.334082e+01  -8.447553e-02
  -6.479194e+01   4.982596e+01
  -1.098983e+02  -3.167061e+01
  -8.372192e+01  -4.786431e+01
   9.003816e+01  -1.072254e+02
   1.330852e+02  -5.266521e+01
   1.639637e+02   2.090023e+01
   1.792715e+01   6.953856e+01
  -6.164995e+01   5.008925e+01
  -5.944838e+01   1.213821e+01
   2.941928e+01  -5.408263e+01
   5.535387e+01   1.227881e+01
   2.866703e+01   8.056750e+01
  -9.874360e+01   9.917046e+01
  -1.194695e+02   3.641014e+01
  -7.224500e+01  -9.765836e+01
   1.003500e+01  -1.869282e+02
   7.455498e+01  -1.669020e+02
   6.183705e+01   3.205852e+01
   8.503529e+01   1.204024e+02
   4.075304e+01   8.484756e+01
  -4.723961e+01   3.472116e+01
  -3.278196e+01   1.301483e+01
  -1.621618e+01   5.227203e+01
  -6.339226e+01   1.162343e+00
  -8.775681e+01   3.651457e+00
  -8.185267e+01  -8.194497e+01
   5.021719e+00  -1.317351e+02
   4.264915e+01  -4.506196e+01
   1.192368e+02   5.663223e+01
   1.310420e+02   5.028209e+01
   2.377244e+01   5.490485e+01
  -8.911723e+01   2.779727e+01
  -9.299421e+01  -1.654637e+01
  -2.579146e+01   9.766421e+00
   1.115309e+01  -9.578206e+00
   1.179752e+01  -8.483925e+00
   1.921245e-01   3.515885e+01
  -3.122403e+01  -1.687492e+01
   2.628712e+01   2.242705e+00
   9.913194e+01   3.829642e+01
   1.590390e+01   6.179406e+01
  -9.506864e+01   1.156829e+02
  -1.846487e+02   5.090236e+01
  -1.686102e+02  -5.425942e+01
  -9.342832e+00  -9.723066e+01
   4.482837e+01  -1.251186e+02
   1.392972e+02  -8.429987e+01
   9.431180e+01  -1.759249e+01
   1.724385e+01   3.234757e+01
  -2.902541e+00   5.737016e+00
   3.343679e+01   3.111668e+01
  -1.123757e+01   3.198979e+01
   4.907430e+01   9.145848e+01
  -4.147128e+01   5.100446e+01
  -3.851852e+01  -8.659940e+00
  -1.015799e+02  -9.493644e+01
  -1.164267e+01  -7.404364e+01
   5.096293e+01  -3.412916e+01
   1.206427e+02   8.038534e+01
   4.403301e+01   1.134869e+02
  -6.250524e+01   7.880894e+01
  -1.528878e+02   1.000777e+01
  -7.172536e+01  -1.529917e+01
   3.055110e+01  -5.768262e+01
   1.426905e+01  -3.093672e+01
  -3.229054e+01  -1.200145e+01
  -6.639245e+01   1.412309e+01
  -3.629402e+01  -2.004891e+01
   8.303550e+01  -8.867947e+01
   1.209232e+02  -4.944141e+01
   7.167937e+01   3.731277e+01
  -1.165624e+01   4.004244e+01
  -9.338429e+01   8.965966e+01
  -1.691199e+01   2.957172e+01
   1.097677e+01  -5.307443e+01
   4.900761e+00  -4.094665e+01
   2.801919e+01  -1.298675e+01
   4.183006e+01   2.807042e+01
   6.515408e+00   3.303759e+01
  -4.167218e+01  -1.726750e+01
  -2.158783e+01   2.470975e+00
  -2.058514e+01  -1.817072e+01
  -1.857251e+01  -1.046998e+01
   1.942859e+01   9.455081e+00
  -1.837613e+01  -3.964801e+01
   2.044555e+01  -8.814546e+01
   1.772567e+01  -4.097778e+00
   7.516929e+01   5.533477e+00
   6.115593e+01   7.024677e+01
  -3.953032e+01   2.892162e+01
  -6.660403e+01  -4.207897e+01
  -1.631024e+01  -4.786421e+01
   4.471466e+01  -6.273398e+00
   1.207433e+02   2.839267e+01
   6.551850e+01   3.672409e+01
  -6.353292e+01   5.765251e+01
  -7.723483e+01   3.706219e+01
  -4.445951e+01  -2.981579e+00
   4.078205e+01   1.224264e+01
   4.686645e+01  -1.196982e+01
  -1.941164e+01   4.213325e+01
  -1.109553e+02   2.210075e+01
