
 $NMID
 id='ANONYMOUS ', fmtdat='(2E16.6)'
 volume=1.0
 tramp=1.0
 $END
  -3.428976e+03   1.305198e+02
  -2.353267e+03  -1.870665e+03
   4.759202e+02  -2.479318e+03
   1.335188e+03  -1.024763e+03
   7.342137e+02   1.690874e+02
  -2.241233e+02   3.026251e+02
  -6.533919e+02  -2.242881e+02
  -2.429075e+02  -8.154910e+02
   4.754734e+02  -6.212316e+02
   7.394694e+02  -6.997600e+01
   5.237391e+02   5.734216e+02
  -1.410360e+02   8.470591e+02
  -6.023256e+02   1.583148e+02
  -9.000663e+01  -6.940496e+02
   1.445139e+02  -5.111222e+02
   6.767633e+02  -1.630401e+01
   3.735267e+02   5.414556e+02
  -4.680597e+02   6.449844e+02
  -6.203365e+02   3.603868e+01
  -3.922914e+02  -3.220440e+02
   2.509360e+01  -4.276069e+02
   2.507774e+02  -2.153839e+02
   2.641771e+01   6.434500e+01
  -1.599465e+02   8.882173e+01
  -4.919314e+02  -3.493294e+02
  -1.094867e+02  -5.497810e+02
   4.145753e+02  -3.454529e+02
   7.432844e+02   7.126862e+01
   4.419357e+02   5.225356e+02
  -3.249534e+02   3.688396e+02
  -6.573634e+02  -9.313362e+01
  -2.752725e+02  -3.993490e+02
   2.179566e+02  -2.975780e+02
   4.178151e+02  -2.407519e+02
   2.787260e+02   7.909883e+01
   1.100204e+02   3.570396e+02
  -1.136883e+02   1.475125e+02
  -1.223589e+02  -2.021505e+02
   1.471958e+02  -2.504255e+02
   2.986362e+02   8.276884e+01
   1.574090e+02   5.057041e+02
  -2.955928e+02   5.440004e+02
  -4.340339e+02  -3.143624e+00
  -1.829952e+02  -3.991439e+02
   2.366726e+02  -2.315214e+02
   3.635864e+02   3.195992e+02
  -8.222226e+01   4.579977e+02
  -4.637724e+02   1.740689e+02
  -5.467067e+02  -3.592179e+02
  -1.979553e+02  -4.884993e+02
   2.726060e+02  -2.739366e+02
   5.183692e+02   4.837757e+01
   3.235377e+02   2.409296e+02
  -5.837521e+01   2.909734e+02
  -3.104042e+02   1.246623e+02
  -2.400379e+02  -1.205375e+02
  -1.824353e+01  -9.249898e+01
   7.006702e+01   5.862811e+01
  -1.326413e+02   1.522817e+02
  -2.459307e+02  -3.157093e+01
  -8.672253e+01  -1.981988e+02
   1.321164e+02  -2.790057e+02
   2.332763e+02  -1.702654e+02
   1.794027e+02   2.873992e+01
   2.374441e+01   2.670358e+02
  -1.967575e+02   3.271626e+02
  -3.600010e+02   1.904141e+02
  -2.898300e+02  -1.780541e+02
  -3.113704e+01  -3.940023e+02
   1.073726e+02  -3.125302e+02
   9.803463e+01  -1.490817e+02
  -2.008591e+01  -7.264472e+01
   8.642906e+01  -8.636182e+01
   2.583867e+02  -9.232577e+01
   2.810047e+02   1.155253e+02
   1.562370e+02   2.422038e+02
  -7.585554e+01   2.129293e+02
  -2.456808e+02  -4.608233e+01
  -1.847251e+02  -2.375830e+02
   5.866165e+01  -2.563929e+02
   3.061111e+02  -9.929115e+01
   3.208763e+02   1.890566e+02
   1.446386e+02   3.097687e+02
  -9.368596e+01   2.897634e+02
  -1.670635e+02   1.068191e+02
  -1.010317e+02   3.514058e+01
  -9.422414e+01   5.069059e+01
  -2.673166e+02   7.466308e+01
  -4.075322e+02  -4.267356e+01
  -3.013274e+02  -2.648895e+02
   2.694066e+01  -4.075194e+02
   3.530665e+02  -3.871961e+02
   4.051751e+02  -1.674427e+02
   2.468224e+02   1.170487e+02
   1.246834e+01   2.710134e+02
  -1.283896e+02   2.013811e+02
  -4.214311e+01  -2.578334e+01
   8.865543e+01  -1.000630e+02
   1.777039e+02   2.653794e+01
   4.599397e+01   2.261906e+02
  -1.699022e+02   1.213495e+02
  -1.810618e+02  -8.058425e+01
   2.707933e+01  -2.111798e+02
   2.228176e+02  -2.724163e+01
   1.711761e+02   2.982425e+02
  -6.676316e+01   3.385595e+02
  -2.407990e+02   1.940617e+02
  -3.370105e+02  -5.387506e+01
  -2.627537e+02  -2.388028e+02
  -5.715072e+01  -2.598952e+02
   1.252646e+02  -1.097279e+02
   1.677998e+02   4.973505e+01
   6.809406e+01   3.868940e+01
  -1.066377e+02   1.728833e+01
  -6.052176e+00  -1.336207e+02
   7.735456e+01  -1.121602e+02
   1.427776e+02  -3.428786e+01
   6.101150e+01   6.996399e+01
  -5.733245e+00   1.991064e-03
   3.606996e+00  -6.953413e+01
   6.465729e+01  -6.791811e+01
   2.734309e+02   4.543936e+00
   3.115170e+02   1.283393e+02
   1.163445e+02   2.388390e+02
  -1.089404e+02   2.460220e+02
  -2.316195e+02   1.436791e+02
  -1.580261e+02  -3.290414e+01
   1.852607e+01  -5.317171e+01
   7.959733e+01   9.850813e+00
  -5.030873e+01   1.192577e+02
  -2.073924e+02   6.719306e+01
  -1.970572e+02  -1.222669e+02
  -1.153333e+02  -2.518264e+02
   1.270919e+02  -1.687875e+02
   9.521890e+01  -6.037092e+01
  -1.734510e+01   4.046769e+01
   9.534247e+00  -2.695249e+01
  -4.079929e+00  -1.402119e+02
   1.069159e+02  -1.235300e+02
   1.863453e+02  -5.314445e+01
   1.590618e+02   8.216798e+01
   3.570660e+01   2.058485e+02
  -1.396478e+02   1.432879e+02
  -1.888475e+02   1.559971e+01
  -4.484990e+01  -1.409961e+02
   1.048320e+02  -9.140349e+01
   4.166733e+01  -5.163149e+01
  -2.696911e+01   4.773364e+01
  -4.443739e+01  -9.133913e+00
   2.822755e+01   1.248384e+01
   1.144448e+02   2.726089e+01
   1.134119e+02   1.204168e+02
  -5.663120e+01   1.496049e+02
  -1.099958e+02   8.366357e+01
  -2.544033e+02   4.438064e+01
  -1.514232e+02  -1.864200e+02
  -1.543417e+01  -2.387410e+02
   1.053080e+02  -1.931235e+02
   1.212437e+02   6.606850e+00
   9.942991e+01   3.115399e+01
   3.944981e+01   5.709669e+01
   3.218131e+01  -2.704262e+01
   7.513628e+01   3.523377e-01
   1.051367e+02   7.554478e+01
  -4.595400e+01   7.436715e+01
  -1.171007e+02   7.200543e+01
  -1.353737e+02  -3.747434e+01
  -3.019078e+01  -1.225405e+02
   1.407528e+02  -1.007732e+02
   1.885512e+02   3.127181e+01
   8.269032e+01   1.992328e+02
  -1.014753e+02   2.153359e+02
  -2.466388e+02   1.042072e+02
  -2.580461e+02  -9.176170e+01
  -1.324223e+02  -1.540968e+02
   8.142365e+01  -1.430555e+02
   7.425872e+01  -1.106435e+02
   7.700189e+01  -7.257803e+01
   1.165522e+02  -8.977899e+01
   8.914483e+01  -6.717755e+01
   1.366218e+02   1.669477e+01
   9.320335e+01   1.138523e+02
   1.523916e+01   1.707980e+02
  -1.149967e+02   1.356490e+02
  -1.950132e+02   4.926107e+01
  -1.267401e+02  -1.407525e+02
  -8.220939e+00  -9.485034e+01
   7.962204e+01  -5.713749e+01
   7.326293e+01  -2.144103e+01
  -3.393828e+01   3.817612e+00
  -1.815534e+00   4.731245e+01
   2.734165e+01  -6.035585e+00
   5.637655e+01   4.107414e+01
  -5.353890e+00   3.696217e+01
  -7.452114e+01   2.013388e+01
  -1.082667e+02  -6.979372e+00
  -9.927616e+01  -4.281958e+01
   3.061761e+01  -8.066775e+01
   8.128252e+01  -6.281414e+01
   1.239231e+02   1.471849e+01
   1.079497e+02   4.310261e+01
  -9.485973e+00   5.226260e+01
  -3.810103e+01  -1.050385e+01
   2.434896e+00  -9.346416e+01
   6.920151e+01  -1.610856e+01
   3.764620e+01   4.263491e+01
   2.490191e+01   4.346134e+01
   3.443038e+01   4.095560e+01
   2.654450e+01   7.115862e+01
   1.341516e+01   2.961531e+01
   3.399900e+01   2.130154e+01
  -3.703432e+01   1.306584e+02
  -1.257811e+02   1.272640e+02
  -1.931176e+02   2.138745e+01
  -1.248538e+02  -5.639444e+01
  -2.604074e+01  -1.355639e+02
   1.062793e+02  -5.181244e+01
   5.555283e+01   1.448049e+01
  -8.548531e+01   2.827962e+01
  -1.460857e+02   1.518773e+01
  -9.601656e+01  -1.379266e+02
   1.218138e+02  -5.096610e+01
   1.402330e+02  -5.780873e+01
   1.470987e+02  -1.167607e+00
   3.515378e+01   9.450310e+01
  -7.694944e+01   2.593874e+01
  -8.018118e+01   1.481954e+01
   8.982604e+01  -3.670741e+01
   1.441490e+02   1.857750e+01
   6.230369e+01   9.910484e+01
  -5.568434e+01   1.644979e+02
  -1.673022e+02   1.037708e+02
  -6.620535e+01  -8.396177e+01
  -2.134142e+01  -1.559273e+02
   9.662638e+01  -9.103651e+01
   1.107317e+02   6.553756e+01
   1.073697e+02   1.123563e+02
  -1.125604e+01   1.065241e+02
  -4.750243e+01   8.563316e+00
  -7.192128e+01  -8.591738e+00
  -3.284216e+01  -1.396653e+01
  -2.185239e+01  -2.093713e+01
  -1.062443e+00  -3.255292e+00
  -7.831478e+01  -8.075610e+01
  -2.433412e+01  -9.775698e+01
   5.230707e+01  -6.137748e+01
   1.839049e+02   3.938773e+01
   1.256150e+02   6.286202e+01
   3.542297e+01   3.872513e+01
  -5.228873e+01   1.352536e+01
  -6.260718e+01  -2.597565e+01
  -3.843618e+01  -1.688769e+01
   2.507512e+01  -1.884618e+01
   2.902613e+01  -8.385621e+00
   3.426869e+01   2.071857e+01
  -5.278250e+00  -1.133861e+01
   7.992638e+01   5.200620e+00
   1.378283e+02  -7.507331e+00
  -1.865812e+01   8.303772e+01
  -9.866918e+01   1.307501e+02
  -1.278231e+02   9.184040e+01
  -1.183072e+02  -6.154243e+01
  -4.157821e+01  -1.372715e+02
   1.104512e+01  -1.157569e+02
   9.581680e+01  -8.028065e+01
   8.096463e+01   2.324619e+01
  -2.415178e+01   4.518150e+01
   2.206971e+01   1.177238e+01
   2.502007e+01   1.753393e+00
   4.050297e+01   7.554327e+01
  -2.035791e+00   7.336058e+01
  -1.275263e+01   1.111347e+01
  -9.867225e+01  -2.919196e+01
  -9.241463e+01  -8.319043e+01
  -5.987649e+00  -8.600522e+01
   1.005375e+02  -3.418553e+01
   8.604042e+01   5.300326e+01
   1.149128e+01   7.453173e+01
  -9.492479e+01   4.032541e+01
  -1.052880e+02  -1.586191e+01
  -8.280926e+01  -6.131580e+01
   2.702824e+01  -2.910958e+01
   2.490651e+01  -2.202154e+01
  -2.969434e+01  -2.275947e+01
  -5.567725e+01   1.100852e+01
  -2.859133e+01  -4.936958e+01
   5.102110e+01  -4.967042e+01
   1.042215e+02  -3.034799e+01
   3.118389e+01  -1.020635e+00
  -4.329880e+00   7.984357e+01
  -8.683651e+01   7.578133e+01
  -2.446320e+01  -2.382792e+01
   1.653896e+01  -3.334521e+01
   2.469762e+01  -3.125860e+01
   2.070379e+01   3.238379e+01
   4.453379e+01   4.701919e+01
   1.556387e+00   6.655244e+01
  -4.784694e+01  -2.139101e+01
  -2.812254e+01  -3.801248e+01
   1.169430e+01   5.996762e+00
  -1.022329e+01   4.005111e+00
   2.916291e+01  -4.589413e+01
  -3.945377e+01  -5.540613e+01
  -1.101189e+01  -5.625113e+01
   5.256822e+01  -1.537313e+01
   6.676311e+01   1.886214e+01
   2.087421e+00   5.272270e+01
  -5.105932e+01   5.902468e+01
  -3.314490e+01  -1.505507e+01
  -1.806796e+01  -1.898374e+01
   7.768275e+01  -5.582771e+01
   7.101238e+01   3.114130e+01
   1.923213e+01   5.525237e+01
  -5.526730e+01   4.573252e+01
  -1.228601e+02   9.593945e+00
  -5.323653e+01   9.950694e+00
   1.914369e+01   2.709249e+01
   3.233194e+01  -1.405100e+01
  -1.380405e+01   3.648948e+01
  -9.438378e+01   1.212416e+01
