
 $NMID
 id='ANONYMOUS ', fmtdat='(2E16.6)'
 volume=1.0
 tramp=1.0
 $END
   3.883388e+03   2.943891e+02
   2.217641e+03   2.091628e+03
  -5.602514e+02   2.528541e+03
  -1.952520e+03   7.946456e+02
  -7.319629e+02  -7.703466e+02
   6.276536e+02  -6.283306e+02
   9.253190e+02   4.758384e+02
  -3.002144e+01   1.041673e+03
  -8.449585e+02   7.720828e+02
  -9.412465e+02  -5.748718e+01
  -6.014273e+02  -7.567675e+02
   8.353305e+01  -7.274103e+02
   5.990235e+02  -1.630729e+02
   2.973647e+02   7.357752e+02
  -2.246446e+02   9.208702e+02
  -4.817862e+02   2.352653e+01
  -7.119826e+01  -6.104989e+02
   3.053647e+02  -5.931309e+02
   4.860821e+02  -4.284027e+01
   2.546402e+02   4.573672e+02
   4.961106e+01   3.379940e+02
  -3.165897e+02   1.444950e+02
  -2.661111e+02  -2.022205e+01
   2.149176e+02  -1.075703e+02
   2.571611e+02   2.457002e+01
   1.266471e+02   4.686142e+02
  -4.289108e+02   5.629577e+02
  -7.510017e+02   6.155645e+01
  -3.347939e+02  -5.210520e+02
   3.851287e+02  -4.262476e+02
   6.609805e+02   9.698054e+01
   3.367829e+02   4.217038e+02
  -2.730860e+02   5.129101e+02
  -5.327361e+02   1.255901e+02
  -3.350661e+02  -1.782249e+02
   8.042720e+00  -3.446743e+02
   2.064655e+02  -3.340510e+02
   1.478720e+02   1.567408e+02
  -2.156725e+02   4.553775e+02
  -4.848995e+02   3.994244e+01
  -2.426683e+02  -5.716094e+02
   3.059563e+02  -6.601640e+02
   5.681190e+02   2.197828e+01
   2.978695e+02   5.540089e+02
  -2.647371e+02   3.632976e+02
  -4.497768e+02  -2.262006e+02
   3.451814e+00  -4.660074e+02
   4.562158e+02  -1.667207e+02
   5.432240e+02   3.630525e+02
   1.068511e+02   5.169281e+02
  -3.776840e+02   3.322711e+02
  -5.535585e+02  -1.960232e+01
  -3.473727e+02  -3.382249e+02
   9.393914e+01  -3.122182e+02
   3.579580e+02  -8.077376e+01
   1.706824e+02   1.661568e+02
  -3.953609e+01   5.235279e+01
  -1.484816e+02  -1.075763e+02
   8.471470e+01  -1.271587e+02
   2.754524e+02   6.949088e+01
   1.551884e+02   2.434250e+02
  -1.240763e+02   2.416858e+02
  -2.584750e+02   5.723011e+01
  -1.803382e+02  -1.394194e+01
  -7.205955e+01  -1.922199e+02
   1.043344e+02  -2.646667e+02
   2.828377e+02  -2.170803e+02
   2.617542e+02   7.721423e+01
   1.171463e+02   3.676032e+02
  -1.061207e+02   3.004092e+02
  -1.350200e+02   7.467944e+01
   1.340376e+00  -4.154151e+01
   7.265686e+01   5.248308e+01
  -7.624752e+01   1.769109e+02
  -2.252707e+02  -3.292741e+00
  -1.925086e+02  -1.703085e+02
   2.667843e+01  -2.475127e+02
   1.901535e+02  -2.233197e+01
   2.196672e+02   1.718051e+02
   2.793562e+01   2.224675e+02
  -2.264927e+02   9.483562e+01
  -3.116780e+02  -1.232029e+02
  -1.829110e+02  -2.490105e+02
   9.146311e+01  -2.517456e+02
   2.221172e+02  -1.229166e+02
   1.502839e+02   8.979076e+00
   6.466493e+01   2.173262e+00
   1.562822e+02  -1.099265e+02
   3.397705e+02   3.275722e+00
   3.038262e+02   1.927545e+02
   9.460033e+01   4.112452e+02
  -2.488331e+02   4.112402e+02
  -4.332611e+02   2.321964e+02
  -3.118872e+02  -7.401737e+01
  -3.246580e+01  -2.631926e+02
   1.374390e+02  -1.893203e+02
   5.217368e+01  -1.771941e+01
  -1.060712e+02   1.048360e+02
  -1.904430e+02  -3.242456e+01
   9.806128e+00  -1.888886e+02
   1.358117e+02  -1.287084e+02
   1.687534e+02   4.962010e+01
  -9.813538e-01   1.773564e+02
  -1.193884e+02   3.191372e+01
  -1.323172e+02  -1.815692e+02
   4.170552e+01  -2.808664e+02
   1.906487e+02  -1.254972e+02
   2.693669e+02   6.154896e+01
   2.091674e+02   1.547340e+02
   4.514367e+01   2.003129e+02
  -6.979270e+01   7.750140e+01
  -1.299151e+02  -6.247927e+00
  -1.268520e+01  -5.843998e+01
   7.980154e+01   4.269758e+01
   3.132631e+01   8.764075e+01
  -6.554376e+01   9.825476e+01
  -1.340287e+02   3.108993e+01
  -3.391487e+01  -2.518347e+01
   6.871517e+01   1.059092e+01
   7.797400e+01   9.941369e+01
  -1.354270e+02   8.352262e+01
  -2.751938e+02   1.760056e+01
  -2.279783e+02  -8.807462e+01
  -6.421198e+01  -2.155108e+02
   1.483406e+02  -2.448009e+02
   2.179837e+02  -1.078079e+02
   1.238872e+02   3.912635e+01
   5.888297e+00   1.099767e+02
  -3.465010e+01   3.079582e+00
   5.040352e+01  -9.619326e+01
   1.556089e+02  -1.020208e+02
   1.618699e+02   7.752875e+01
   4.392862e+01   1.457317e+02
  -1.018467e+02   1.205594e+02
  -9.219400e+01   3.584904e+01
  -1.575914e+01  -2.811136e+01
   3.558724e+01  -1.949048e+01
   4.152774e+01   3.846090e+01
  -2.685158e+01   9.894496e+01
  -1.409225e+02   4.818063e+01
  -1.726035e+02  -7.268899e+01
  -6.341462e+01  -1.374200e+02
   1.074500e+02  -1.257651e+02
   1.410121e+02  -1.252256e+01
   9.188711e+01   8.440941e+01
  -9.188038e+01   2.846125e+01
  -6.715931e+01  -2.169356e+01
  -8.843847e+00  -1.269093e+01
   5.320714e+01   5.567966e+01
  -1.594842e+01  -1.258833e+01
  -7.411880e+01   8.140219e+00
  -9.935965e+01  -1.131513e+02
  -7.119601e+01  -1.497558e+02
   9.898550e+01  -1.672374e+02
   2.175634e+02  -5.560816e+01
   2.383313e+02   8.489033e+01
   6.565041e+01   2.312198e+02
  -4.948844e+01   1.645047e+02
  -1.366901e+02   6.979675e+01
  -1.984145e+01  -5.195807e+01
   4.056506e+00   2.151889e+01
  -5.187594e+01   3.091667e+01
  -1.306570e+02  -1.072311e+00
  -4.463207e+01  -8.034837e+01
   2.722671e+01  -8.114328e+01
   8.488001e+01  -3.916111e+01
   5.316964e+01   4.348967e+01
  -1.409902e+01   1.130006e+02
  -1.256974e+02   9.118188e+01
  -1.681390e+02   1.102156e+01
  -9.766358e+01  -1.147078e+02
   7.153293e+01  -1.755971e+02
   1.677941e+02  -1.082881e+02
   1.966914e+02   6.051031e+01
   3.238065e+01   1.294049e+02
  -2.954345e+01   9.680574e+01
  -7.584159e+01   4.242686e+01
  -4.448798e+01   5.551390e+01
  -3.065544e+01   8.701554e+01
  -8.900742e+01   7.342531e+01
  -7.758095e+01  -6.011937e+01
  -1.111278e+02  -1.142680e+02
  -3.169935e+01  -1.908121e+02
   4.524122e+01  -1.354852e+02
   1.666519e+02   5.243348e+00
   1.585393e+02   9.391796e+01
   7.847484e+01   1.661538e+02
  -6.804313e+01   8.450659e+01
  -9.754855e+01  -4.790096e+00
  -1.341633e+01  -2.346056e+01
  -4.784081e+01  -1.008929e+01
  -4.658423e+01  -1.323555e+01
  -5.380877e+01   9.751075e-01
  -2.412856e+01  -4.817514e+01
   5.805283e+01  -3.480911e+01
   1.346930e+02  -2.141028e+01
   1.431083e+02   1.244065e+01
   1.965369e+01   8.085297e+01
  -5.956887e+01   1.071185e+02
  -1.320979e+02   2.337461e+01
  -7.591224e+01  -3.523167e+01
   5.242885e+01  -9.471568e+01
   2.098812e+01  -1.503078e+01
   1.706169e+01   5.160520e+01
  -1.701613e+01   6.679849e+01
  -1.691339e+01  -7.538226e+00
  -1.582167e+01   1.202491e+01
  -5.260869e+01   9.743902e+00
  -4.733762e+01  -2.952098e+00
  -5.443729e+00  -1.679810e+01
  -2.195374e+01  -4.528931e+01
   5.679280e+01  -1.045384e+02
   7.910068e+01  -1.276623e+02
   1.265517e+02  -3.055742e+01
   1.330872e+02   6.074415e+01
  -6.409887e+00   1.049616e+02
  -1.099023e+02   2.223882e+01
  -6.676518e+01  -3.084255e+00
   2.223351e+01  -6.158758e+01
   1.135923e+02   4.109422e+01
   8.140994e+01   1.116242e+02
  -9.013489e+01   8.014392e+01
  -1.681122e+02   4.876737e+01
  -1.659506e+02  -1.930598e+01
  -2.450963e+01  -6.558512e+01
   8.589116e+01  -5.410387e+01
   7.266917e+01  -4.278154e+01
   1.803181e+01   6.877795e+00
  -8.083507e+01  -6.666367e+00
  -4.640761e+01  -7.499086e+01
   5.179986e+01  -1.263293e+02
   1.185756e+02  -7.303096e+01
   9.816829e+01   1.154690e+02
  -3.285791e+01   1.628375e+02
  -5.881384e+01   8.423454e+01
  -7.032634e+01  -1.284865e+01
  -2.065549e+01  -1.181624e+02
  -1.507507e+01  -1.039173e+02
   1.523202e+00  -2.902243e+01
   6.829941e+01   3.187722e+01
   3.262206e+01   1.872690e+01
   2.131174e-02   3.118771e+01
   5.211911e+00   6.680461e+00
   4.990126e+01   9.221207e+01
   2.344770e+01   1.043029e+02
  -1.088016e+01   9.059539e+01
  -1.408386e+02   1.773000e+01
  -1.146530e+02  -7.718079e+01
  -4.776310e+01  -3.595546e+01
   7.374698e+01  -3.381663e+01
   7.840663e+01  -6.868683e+00
   9.660655e+00   1.424890e+01
  -2.599377e+01  -2.772917e+01
   2.046858e+01   3.025898e+01
  -2.434582e+01   2.200354e+01
  -1.401155e+01   2.863409e+01
  -9.343067e+01  -3.169042e+01
  -4.559438e+01  -7.140033e+00
   4.547796e+01  -7.537075e+01
   1.181364e+02  -3.840555e+01
   1.623162e+02  -3.135688e+01
   9.419391e+01   5.853476e+01
   9.613242e+00   1.088329e+02
  -3.584869e+01   8.962204e+01
  -7.452183e+01   2.807639e+01
  -5.043137e+01  -6.804531e+01
  -5.007646e+00  -1.195095e+01
  -3.141516e+01  -1.342224e+01
  -4.177864e+01   6.255808e+00
  -3.413478e+01  -5.078470e+01
   1.079683e+01  -7.491408e+01
   5.205440e+01  -6.157599e+01
   1.215150e+01   2.200310e+01
   4.966931e+01   8.663150e+01
  -1.615294e+01   1.354614e+02
  -8.411048e+01   1.806831e+00
  -4.973506e+01  -6.179428e+01
  -3.834766e+01  -1.077100e+02
   4.768052e+01  -7.191646e+01
   6.610051e+01   3.430391e+01
  -9.418116e+00   2.181350e+01
  -2.992741e+01   1.959934e+01
   3.433569e+01   3.613198e+01
   6.895909e+01  -1.749466e+01
   7.906018e+01   1.197994e+01
   4.486499e+01  -1.031586e+01
  -5.272481e+01   4.369526e+01
  -6.505926e+01   6.780035e+01
  -5.398148e+01   2.521850e+01
  -2.266495e+00  -8.990379e+01
   4.559841e+01  -7.738364e+01
  -5.095134e+00   2.553791e+00
  -3.265078e+01   1.064235e+02
  -1.681178e+01   5.405600e-01
  -4.700933e+01  -9.987060e+00
  -2.546141e+01  -3.931732e+01
  -7.232940e-01  -5.889799e+01
  -2.135289e+01  -1.195773e+00
   2.969635e+01  -6.713383e+00
   1.545777e+01   2.117360e+01
   5.530760e+01  -3.910402e+01
   3.601069e+01  -9.545787e-01
   3.992587e+01   5.636283e+01
  -4.991181e+00   2.485380e+01
   1.164967e+01  -2.743395e+01
  -2.612167e+01  -3.873654e+01
   1.831556e+01  -3.941931e+01
   4.770084e+01  -3.775242e+01
   3.323059e+01   2.102840e+01
   1.496156e+01   5.838861e+01
  -6.850711e+01   1.021508e+01
  -1.004993e+02   1.099767e+00
  -8.139740e-01  -8.009571e+01
   5.464047e+01  -1.439816e+01
   7.296842e+01  -4.786492e+00
   3.662063e+01  -1.987976e+01
  -3.116027e+01  -2.131481e+01
  -4.909130e+01  -2.061285e+01
   3.584956e+01  -6.419136e+01
   5.781734e+01   1.114880e+01
