
 $NMID
 id='ANONYMOUS ', fmtdat='(2E16.6)'
 volume=1.0
 tramp=1.0
 $END
  -3.821532e+02  -1.334260e+02
  -2.233818e+02  -1.369731e+02
  -8.242612e+01  -1.723369e+02
  -9.025590e+00  -1.371881e+02
   1.425308e+01  -1.100722e+02
   9.280418e+01  -1.634097e+02
   2.028809e+01  -9.428375e+01
   4.772920e+01  -3.156112e+01
   5.932274e+01  -2.474270e+01
   8.080359e+01   6.958722e+01
   5.132257e+01   7.302451e+01
  -4.559905e+01   3.777077e+01
   6.981761e+00   1.187114e+02
   1.582097e+01   6.982037e+01
  -2.573007e+01   4.110165e+01
  -1.444775e+01   3.463676e+01
   6.780442e+01   1.887957e+01
  -4.085242e+01  -3.458262e+01
  -2.637932e+01  -4.526247e+00
   4.709846e+01  -3.167396e+01
   5.028567e+01   1.024069e+01
  -1.518422e+01   8.496295e+00
   8.058966e+00  -1.275387e+01
   9.198754e+00   3.159538e+01
  -7.860936e+01  -2.704582e+00
  -8.680027e+01   7.133582e+00
  -1.678079e+00   2.316022e+01
  -3.258358e+00   4.883427e+01
  -8.940116e+01  -3.442356e+01
  -9.328860e+01  -3.736195e+01
  -4.493006e+01  -8.662690e+01
  -7.752981e+01  -8.677218e+00
  -3.267351e+01  -4.041995e+01
   3.248166e+01   3.796717e+01
  -2.356876e+01   7.455128e-01
  -2.166219e+00   4.639083e+01
   4.278993e+01   1.730932e+01
   1.516644e+01   7.096023e+01
  -3.299697e+01   5.091712e+00
  -4.574814e+01   2.171031e+01
  -6.253058e+00   2.092877e+01
  -8.589952e+00   3.221437e+01
  -3.583862e+01   3.041459e+00
  -1.051366e+01  -1.021041e+01
  -3.927592e+01  -2.310039e+01
  -2.066136e+01   2.485577e+00
  -2.108557e+01   1.238074e+01
  -1.687977e+01  -2.456926e+01
  -2.359279e+01  -6.351124e+01
  -4.183632e+01  -4.636959e+01
   6.118427e+00   2.827251e+00
   4.866752e+01  -5.079151e+01
   1.706614e+01   9.157729e-01
   3.425967e+01   2.745715e+01
   1.046381e+00   3.524967e+01
   2.979692e+01  -3.591383e+00
   2.589105e+01  -8.957489e-01
  -7.376947e+00  -2.350583e+01
  -2.033951e+01  -4.692570e+00
  -2.130552e+01   5.575032e+00
  -2.271589e+01  -7.888534e+00
  -2.769320e+00  -1.799183e+01
   2.705218e+01  -1.615460e+01
  -4.324471e+00  -2.133958e+01
  -2.108747e+01  -1.173863e+01
  -2.449188e+01   2.890359e+01
  -4.378591e+00   5.348283e+01
  -4.144861e+01  -2.220440e+01
   7.698172e+00  -2.559900e+01
  -1.634869e+01  -1.907062e+01
  -1.865018e+01  -3.795590e+01
   1.506102e+00   1.391043e+00
   1.919211e+01  -9.030328e+00
  -1.819891e+01  -6.905486e+00
   5.632350e+01   2.350962e+00
   1.955994e+01   2.778646e+01
   1.576764e+01   7.666879e+00
  -2.180535e+01  -6.628161e+00
  -5.234040e+00  -5.808122e+00
  -8.115168e+00  -1.132858e+01
   1.653983e+01  -1.692486e+00
   2.125780e+01  -4.261160e+00
   7.887522e+00  -5.937548e+00
  -1.124434e+01   7.597090e+00
  -1.494374e+01   3.637390e+01
  -1.031561e+00   1.908216e+01
   7.240591e+00  -2.343597e+01
  -1.572414e+01   2.104189e+00
  -5.623002e+01  -1.314272e+01
  -1.144384e+01  -6.573648e+00
  -4.903554e+00  -2.794368e+01
   2.524110e+01  -4.632488e+01
   2.310228e+01  -6.201619e+01
  -1.550051e+01  -6.654124e+00
  -1.440546e+01   6.744290e+00
   1.170264e+01   5.284303e+01
   1.766181e+01   5.008065e+01
   5.701745e+01  -1.387853e+01
   4.151999e+01  -1.051440e+01
   1.164911e+01   8.254532e+00
  -4.389995e+00   1.961990e+01
   3.066096e+00   1.348254e+01
   1.929035e+01   2.640035e+01
   1.071765e+01  -1.391207e+01
  -1.719097e+00   1.456444e+01
  -2.411361e+01   1.134923e+01
   9.240831e+00   1.712158e+01
   9.945546e+00  -1.739869e+01
  -1.133714e+01  -3.531992e+00
  -2.055013e+01  -1.419433e+01
   1.073659e+01  -3.606361e+01
  -1.121886e+01  -2.067332e+01
  -8.431575e-02  -3.657792e+01
   3.331161e+00  -4.720074e+01
  -5.796684e+00  -5.972538e-01
  -4.284003e+00   9.111634e-01
   1.262402e+01  -7.334805e+00
   4.863369e+01  -1.496607e+01
  -5.329782e+00  -3.335378e+00
   1.024968e+01  -4.530149e+01
   1.504810e+01   2.517021e+01
   1.508216e+01   2.098995e+01
   2.974879e+01   3.549347e+01
   3.845146e+01   1.173674e+01
  -4.060811e+01   7.240126e+00
  -6.380973e+00  -1.033828e+01
  -1.611089e+00   3.323999e+00
  -5.887928e+00   3.440273e+01
   8.742182e+00  -1.266134e+01
   2.399501e+01  -6.675456e-01
  -1.791682e+01   5.253294e+01
  -2.429539e+01   1.435774e+01
  -5.300573e+01  -1.702118e+01
   1.159109e+01  -3.398010e+01
  -5.877162e+00  -2.614013e+01
  -1.870919e+01  -2.351989e+01
   3.578707e+01  -1.277171e+00
   5.634788e+01  -2.152942e+01
  -6.285485e+00  -2.659041e+01
   6.274200e+00  -3.098648e+00
   5.022079e+00   9.801057e+00
   3.665692e+00  -5.403699e-01
  -2.334387e+01   4.291051e+01
  -2.208642e+01   1.903961e+01
  -1.265006e+01   1.410909e+01
  -4.637673e+01  -1.394942e+01
  -5.245897e+01  -2.079470e+01
   6.203667e+00   2.328274e+01
  -3.023482e+01  -2.871386e+00
  -8.614437e+00  -2.505705e+00
   4.707223e+01   2.990685e+01
  -1.264177e+01   8.802237e+00
   1.651342e+01   1.412244e+01
  -1.157421e+00  -1.365956e+01
  -7.360856e+00   1.689429e+01
  -1.328106e+01   4.336674e+00
  -3.794526e+01  -2.574668e+01
   1.483054e+01   2.154923e+01
  -1.333809e+00  -3.471400e+01
   1.574275e+01  -3.646633e+01
   4.235296e+01   2.075236e+01
   4.487601e+01  -8.850025e+00
   2.901397e+01  -2.151281e+01
   2.658365e+01  -1.269821e+01
   3.557694e+01  -7.671929e+00
   1.529771e+01   9.867981e-01
   1.971462e+00   1.711907e+01
   1.250924e+01   6.468897e+00
   2.336168e+01  -3.944582e+01
   3.387464e+01   2.030344e+01
  -1.516767e+01   3.340423e+01
  -1.283241e+01   4.235961e+01
  -3.108845e+01   5.888842e+00
  -6.284400e+01   5.709274e+01
   1.176551e+00   1.900942e+01
  -1.415259e+01  -3.919714e+01
  -3.046626e+01  -1.414787e+01
   3.630491e+01  -2.192952e+01
   1.238272e+01  -4.623137e+01
  -6.832464e+00  -1.934193e+01
  -2.885796e+00  -1.309063e+01
   5.431790e+00   4.171238e+01
   2.398363e-01   1.849573e+01
  -3.527017e+00   7.581226e+00
   4.175953e+01  -1.640245e+01
  -3.476143e+00   1.768873e+01
  -4.657322e+01   1.328419e+01
  -4.911281e+00  -6.773695e+00
  -4.798812e+01   3.296541e+01
  -2.291636e+01  -2.542700e+01
   1.364880e+01  -7.432322e+00
   7.101456e+00  -2.075943e+01
   8.713754e+00   4.838467e+00
  -2.398721e+01  -1.670428e+00
  -2.346162e+01   1.922164e+01
   1.060379e-01   8.911836e+00
  -6.315063e+00  -4.765047e+00
  -3.402588e+01   1.120465e+00
   1.501023e+01   1.793786e+01
  -2.687649e+01   2.091901e+00
  -1.296570e+01   3.055070e+00
  -3.411262e+01  -2.484903e+01
   3.796346e+00  -1.449142e+01
   1.861009e+00   2.001564e+01
  -3.848320e+00  -3.601738e+01
   9.799699e+00  -1.171440e+01
   1.492588e+01  -1.374494e+01
   1.352206e+01  -1.672295e+01
   3.130738e+01   8.144552e+00
   7.799346e+00   8.212431e-01
  -3.332902e+01   6.987242e+00
  -4.027176e+00   1.094190e+01
   9.692396e+00   1.616000e+01
  -5.375442e+00   3.847035e+01
  -2.954496e+01  -7.421343e+00
  -1.683239e+01  -3.401456e+01
  -1.933152e+01  -2.795053e+01
  -8.162382e+00   1.340407e+01
  -2.197102e+01  -3.611992e+01
  -1.122959e+01  -9.755035e+00
   1.902073e+01  -1.385175e+01
   3.439984e+01   1.231887e+01
  -1.190800e+00   2.020748e+01
   2.510259e+01  -2.758805e+01
   5.746655e+01   5.801107e+00
   2.383045e+01  -5.114439e+00
  -1.291924e+01   8.467697e+00
   4.190589e+01   2.856008e+00
   4.019647e+01   4.433695e+01
   2.459416e+01   2.494616e+01
   1.155572e+01   1.045709e+01
  -1.111836e+00   1.611078e+01
   1.383834e+00   4.425309e+00
   1.828182e+01   8.705135e+00
  -2.843694e+01  -2.084875e+01
  -3.204118e+00  -6.436858e+00
  -2.667956e+01  -2.056416e+01
   9.868028e+00   3.217609e+00
  -3.049820e+00  -1.106624e+01
   1.457095e+01  -1.854488e+01
   1.562726e+00  -9.805678e-01
  -9.707189e+00  -9.385477e+00
  -9.129735e+00   2.166151e+01
  -1.653228e+01  -5.605169e+00
  -1.545092e+01   1.391415e+01
  -3.437920e+01   4.901858e+00
  -7.035171e+00   4.092691e+00
  -1.391161e+01  -3.122387e+01
   2.449470e+01   1.568013e+01
  -7.045917e+00   4.038145e+00
  -1.300382e+01  -7.499553e+00
   3.405822e+00   2.107902e+01
   5.396880e+00   1.044158e+01
   1.407629e+01   6.201974e+00
   1.004265e+01   2.711780e+01
  -3.458496e+00   1.052376e+01
   1.133857e+01   4.190196e+01
  -1.179972e+01   1.596639e+01
  -2.450559e+01  -1.399945e+01
  -2.901741e+01   1.444240e+01
  -4.212768e+01   2.168101e+01
  -1.723552e+01   3.087987e+01
   7.274165e+00  -1.692851e+01
  -1.116047e+01  -1.612995e+01
   6.351058e+01  -2.038252e+01
  -6.914695e+00  -1.581045e+01
  -3.435345e+01   3.937704e+00
  -1.299200e+01  -1.333833e+01
   2.788248e+00  -4.153489e+01
  -7.619506e+00  -3.649459e+00
   2.088854e+01   1.599260e+01
   3.178511e+01  -9.721299e+00
  -1.311934e+01  -1.602838e+01
  -2.715974e+01  -3.969829e+01
  -6.794102e+00   5.654784e+00
   4.554301e+01   1.690261e+01
   3.019797e+00   3.923034e+01
  -6.807709e+00   3.724186e+01
   4.909178e+00   4.197812e+00
  -5.316208e-01  -1.342813e+01
  -9.979922e+00   3.457174e+00
   1.452223e+00  -3.013738e+01
  -1.145735e+01   8.173551e+00
   9.320873e+00   4.037393e+01
   1.171357e+00  -1.241039e+01
   4.551930e+00   6.760160e+00
  -2.542681e+01  -3.551802e+00
   2.590646e+01   1.245262e+00
  -1.889824e+01   2.857977e+01
   9.188701e+00  -3.748026e+00
  -6.128000e+00  -1.264706e+01
   2.735483e+01  -4.875885e+00
  -4.130957e+01  -7.062866e+00
  -2.449113e+01  -3.196893e-02
   2.271975e+01  -9.525622e+00
   4.172144e+00  -8.741041e+00
  -3.922922e+00   3.133725e+01
  -1.068800e+01   6.658326e+00
   1.329601e+01  -1.426056e+01
   1.472686e+00   7.976992e+00
  -1.395806e+00   3.391809e+00
  -9.831916e+00   1.602859e+01
   1.156962e+01   1.200716e+01
  -5.581261e+00   3.467039e+01
  -3.351865e+01  -3.448087e+01
  -2.342200e+01  -1.593971e+01
  -2.740983e+00  -1.015482e+01
  -1.273824e+01   9.785599e-01
  -2.763936e+01   1.936302e+01
  -4.305825e+00  -2.532814e+01
  -4.019151e+00  -3.906817e+00
   1.813379e+01  -2.984764e+01
   1.376703e+01   2.774672e+01
  -3.567920e+01   2.795266e+01
  -1.065362e+01   4.901980e+01
   4.258479e+00  -1.763470e+01
   2.789060e+01   2.110370e+01
   2.430894e+01   1.454564e+01
  -2.589525e+01   3.918548e+01
  -3.163690e+00  -3.337162e+01
