
 $NMID
 id='ANONYMOUS ', fmtdat='(2E16.6)'
 volume=1.0
 tramp=1.0
 $END
   4.254077e+02   2.413607e+01
   1.658435e+02  -3.227776e+01
  -8.800251e+01   1.782422e+01
  -2.547947e+01   1.665316e+01
   6.566661e+00  -4.052716e+00
   2.156173e+01   1.461825e+01
  -7.591466e+01  -5.028041e+01
   1.103278e+01   4.714958e+01
   5.522128e+01   3.217048e+01
  -2.176565e+01   2.500584e+01
  -1.813827e+01  -2.810456e+01
   7.222241e+01  -7.167370e+01
   7.653151e+01  -6.410252e+01
  -1.048372e+02  -2.723778e+01
  -1.049396e+01   8.750053e+01
   9.230400e+01  -5.185470e+01
   5.931019e+01  -2.685780e+01
  -6.066002e+01  -1.030484e+01
  -2.803948e+01  -8.535053e+01
  -4.629232e+00   9.939820e+01
  -4.673971e+01   5.476240e+01
   1.544738e+01  -5.806458e+01
   8.064144e+01  -3.478575e+01
   5.086602e+01   4.724186e+01
  -3.996956e-01  -3.869926e+01
  -4.957558e+01  -5.412363e+01
   2.721627e+01   2.118287e+01
  -4.542863e+01  -7.347734e+01
  -4.048430e+01   1.257895e+01
   7.078116e+01   3.236474e+01
  -5.037428e+01   2.443803e+01
   2.531801e+01   7.383873e+01
  -2.260844e+01  -9.514845e+01
  -8.309558e+01  -1.524226e+01
  -5.581088e+00   2.938486e+01
  -6.929612e+01   6.073021e+00
  -5.168719e+01  -2.084312e+01
  -4.035804e+00  -2.961704e+01
  -5.305702e+01   2.850175e+01
  -7.208097e+00   2.981112e+01
   6.089696e+01  -4.866961e+01
   6.574091e+01  -1.630269e+01
  -1.297437e+01  -1.533599e+01
   3.016502e-01  -1.951342e+01
  -1.026259e+01  -3.954617e+01
  -1.555049e+01   1.593270e+01
   6.746830e+00   9.124211e+00
   2.115024e+01   4.499034e+01
   5.573365e+00  -3.191551e+01
   3.163300e+01  -2.506631e+01
  -1.141449e+01  -3.127889e+01
  -2.229961e+01  -3.266443e+01
  -1.827578e+01  -3.594641e+01
  -4.504589e+00  -9.417698e+00
   1.737229e+01   3.390057e+01
   1.410060e+01   2.363275e+01
   3.669706e+01   1.082473e+01
  -1.046857e+01   8.632212e+00
  -1.051101e+00  -2.264265e+01
   2.336970e+01   1.603746e+01
  -1.019757e+01   9.979723e+00
  -4.035770e+01  -6.733014e-01
   3.158264e+01  -1.786201e+01
   3.506980e+01   3.841556e+01
   5.653232e+01   1.704124e+01
   6.824201e+00  -3.300985e+01
   1.191595e+01  -6.783166e+01
  -1.579797e+01  -8.326507e+00
  -3.701333e+01   1.296024e+00
  -3.286659e+01   5.680228e+01
  -6.252730e-01  -2.952981e+00
   2.371823e+01   1.697533e+01
   1.411359e+01  -3.939919e+01
  -4.174822e+01  -2.735606e+01
   3.420265e+00  -4.870780e+01
  -1.278167e+00   3.955516e+01
  -3.544345e+01   9.498085e+00
  -9.906656e+00  -3.300750e+00
  -1.160711e+01  -1.361533e+01
   4.275012e+01   6.386292e-01
  -1.076482e+00  -4.492530e+01
  -8.084713e+00  -1.215604e+01
  -1.772590e+01   4.971644e+00
  -1.209479e+01   2.228639e+01
   6.576097e+00  -2.474877e+01
   3.321294e+01  -8.754272e+00
  -1.980674e+01   4.843418e-01
  -7.027401e+00   3.712053e+00
  -1.376497e+01  -9.659483e+00
   1.038842e+01   6.060078e+00
  -1.626890e+01  -1.145081e+01
  -2.579979e+01  -2.168718e+01
   6.408390e+00   1.319064e+01
   8.448968e+00   4.416183e+01
   1.287959e+01   7.117174e+00
   3.271697e+01  -2.060442e+01
  -3.979784e+01  -1.660815e+01
  -1.779918e+01   9.578035e+00
  -4.756796e+01   1.611378e+01
   1.136791e+01   4.118023e+00
   2.818319e+01  -2.996797e+01
   3.324294e+00  -3.589635e+01
   5.446655e+00  -2.212923e+01
  -2.269278e+01   1.830695e+01
  -3.920548e+01   1.015386e+01
   7.036034e+00  -1.702520e+01
   3.687629e+00   1.049816e+00
  -5.672860e+00  -1.492711e+01
  -1.272900e+01   1.953686e-02
  -1.085300e+01  -1.292318e+01
   2.422067e+00   9.211415e+00
  -1.004656e+01   3.276681e+00
  -2.007883e+01  -2.403362e+01
   3.388993e+01  -3.551723e+00
  -1.129184e+01   1.703937e+01
  -8.636193e+00   1.074127e+01
  -1.345146e+01   1.642985e+00
  -3.191221e+00  -2.047667e+01
   2.136642e+01  -3.535594e+01
   3.511961e+01  -9.957342e+00
   5.222288e+00  -1.366709e+01
  -5.633451e+01  -3.663026e+01
  -2.170134e+01  -7.415312e+00
  -3.192900e+00   8.489051e+00
   4.055576e+01   2.428679e+01
   1.350731e+01  -2.373056e+01
   7.397297e+00  -9.947245e-02
  -3.002635e+01  -3.782798e+00
   1.331683e+01   2.434678e-01
   5.345015e+00   2.923364e+01
   2.355542e+01  -1.798192e+01
  -2.814280e+01  -1.396245e+01
  -8.482942e-01   1.790427e+01
   3.040053e+00   1.294552e+01
   5.363636e+00   1.427151e+01
  -1.946966e+01   3.506739e+01
  -2.341335e+01  -2.032680e+01
  -1.607604e+01   4.897227e+01
  -4.995091e+01   2.934461e+01
   4.522229e+01   1.653942e-01
   2.210469e+01  -1.127754e+01
   3.643534e+01  -9.688014e+00
   3.043580e+01  -9.607058e+00
  -8.520662e+00  -7.834801e+00
   1.466399e+01   3.647738e+00
  -3.434527e+00  -2.545497e+00
   2.576412e+01  -7.982178e+00
   3.315056e+01  -2.807481e+01
  -1.874177e+01  -2.953513e+01
   1.661642e+01  -3.133694e+01
   1.338795e+01  -2.742666e+01
   1.446543e+01   3.634380e+01
   3.248218e+00  -1.295083e+00
  -1.516761e+01  -2.918241e+01
  -5.725883e+00   4.418350e-01
   2.318535e+01   5.828777e+00
   1.138697e+01   9.607991e+00
   3.293204e+01   3.346875e+01
  -4.256126e+01  -9.510446e+00
   2.899765e+01  -9.620701e+00
   1.461436e+01   2.426699e+00
  -1.008072e+01   1.591623e+01
  -2.542241e+01   5.086488e+00
   3.300783e+01  -2.086244e+01
   2.144989e+01   3.960901e+00
  -1.048517e+01   2.128800e+01
   5.726409e+00  -2.971474e+01
  -1.743371e+01   2.515983e+01
  -7.732635e-02  -5.416565e+00
   2.270076e+01  -6.883938e+00
  -5.095080e+01  -5.554620e+01
  -3.541637e+00  -2.074016e+01
  -9.546245e+00   2.027699e+01
   1.731171e+01   3.254840e+01
  -9.868424e+00   2.206871e+01
  -1.486679e+01  -2.489071e+01
  -2.289480e+01  -4.172826e+00
  -3.707580e+01   1.763082e+01
  -1.146395e+01   3.293383e+01
  -1.954907e+00  -2.098355e+01
  -2.995246e+01   1.686368e+01
   1.851433e+01  -3.430562e+00
  -8.071426e-02   3.033344e+01
   9.615369e+00  -4.035142e+00
   7.418309e-01   2.355619e+01
   5.109068e+00  -9.115284e+00
   2.957092e+01  -3.861774e+01
  -1.303657e+01  -1.469148e+01
  -5.769282e+00   1.254181e+01
  -1.191035e+00  -4.492607e+00
  -1.897445e+01  -1.947174e+01
   2.432667e+00  -2.140229e+01
  -2.567326e+01  -1.119600e+01
  -1.164180e+01   7.199743e-01
   5.787886e+00   4.793829e+01
   6.442916e+01   3.849366e+00
   2.043104e+01  -2.273212e+00
   9.520817e+00   1.147000e+01
   1.105273e+01   2.168702e+01
   2.220373e+01  -3.743910e+01
   4.489485e+01   1.383950e+01
  -1.232102e+01  -8.338538e+00
   6.361903e+00  -2.632383e+01
   1.022718e+01  -9.184299e+00
  -4.399267e+01  -2.414381e+01
  -5.259290e+00  -2.277475e+01
  -1.948355e+01   2.203592e+00
  -5.128731e+01  -3.576385e+00
  -5.029376e+00  -6.694313e+00
   1.089057e+01   9.793908e-01
  -1.490509e+01   1.325042e+01
  -5.338031e+00   1.643477e+01
   2.893414e+01   1.946529e+01
   6.107360e+01  -2.988430e+01
   2.796048e+01   1.051275e+00
  -5.677476e+00  -2.341159e+01
  -7.685361e+00   4.319542e+01
   3.371672e+01   2.402954e+00
   2.807848e+00  -9.999728e+00
   1.240053e+01  -1.493580e+01
  -2.942459e+01  -1.779726e+01
  -1.996335e+01   6.218922e+00
   8.799623e+00   3.171811e+01
  -4.449905e+01   4.577940e+00
  -5.292310e+01  -1.177475e+01
   1.754174e+01  -3.780243e+01
   3.047774e+00   5.527564e+00
  -1.215739e+01   1.663770e+01
  -1.888916e+01  -2.249204e+01
   2.561091e+01   1.938450e+01
   7.437047e+00   2.322619e+01
   8.682825e+00  -3.641915e+01
  -7.086420e+00   1.139085e+01
   6.125949e+00   3.611975e+01
  -7.430530e+00   1.903686e+01
  -4.426505e+01   1.608168e+00
   2.747714e+01  -2.366233e+01
  -3.246270e+01  -3.457724e+01
  -1.047994e+01   4.092168e+01
   1.161954e+01   1.742309e+01
   5.192098e+00  -6.355743e+00
   6.594844e+00  -2.286253e+01
  -5.008529e+00   2.598892e+01
  -9.903432e-01   4.051449e+01
   3.402300e+01   1.129879e+01
  -1.573478e+01  -2.278738e+01
  -6.429472e+00  -2.476919e+01
   1.353728e+01  -4.458427e+00
  -1.727573e+01   3.169429e+01
  -5.025065e+00   2.757683e+01
   3.734245e+01  -1.229602e+00
  -1.629718e+01  -1.975917e+01
  -2.805652e+01  -1.176203e+01
  -2.901100e+00   2.059484e+01
   1.891773e+01  -2.541654e-02
  -2.774191e+01  -7.296343e+00
  -7.652877e+00   2.262703e+01
  -5.982711e+00  -9.916138e+00
  -1.739541e+00  -5.138800e+01
  -2.028329e+00  -1.452102e+01
   2.347422e+01  -3.379986e+00
   1.366694e+01   3.257644e+01
  -1.574788e+01  -1.791308e+01
  -1.713885e+00  -1.692772e+01
  -2.760887e+01  -2.321732e+01
  -5.801694e-01   1.629785e+00
  -1.439612e+00  -2.066559e+01
  -2.881535e+00   2.610848e+01
  -7.633966e-01  -3.718674e+01
  -3.269898e+01  -8.478038e+00
   3.367355e+00   2.932546e+01
   4.079844e+01  -1.416201e+01
   1.090180e+01   1.303595e+01
  -1.920277e+01   2.010142e+01
  -1.022102e+01  -4.004867e+00
  -2.678272e+01  -7.474583e+00
  -2.959790e+01   5.646454e+01
  -7.991396e+00   1.684571e+01
  -6.635471e-01   1.138633e+01
   2.260938e+01   1.226619e+01
   3.164984e+01   2.453144e+01
  -8.825787e+00   1.355779e+01
  -1.189116e+01   1.674530e+01
   1.222849e+01  -1.341952e+01
   3.953087e+01  -1.394100e+01
  -5.552867e+00  -1.842490e+01
  -1.532426e+01   2.736872e+01
   1.658640e+01   4.181645e+01
  -1.620084e+01  -1.051835e+01
  -3.479783e+01  -1.696613e+01
  -7.931543e+00  -3.197131e+01
  -2.392360e+01   4.334306e+00
  -3.312997e+01   3.794265e+00
  -2.683017e+01  -3.195571e+00
   9.273886e-01   1.036750e+00
  -7.149156e+01   2.812633e+01
  -2.241547e+01  -7.464130e+00
   5.842379e+00  -9.249561e+00
  -4.301508e+00   1.173429e+01
   2.277935e+01   9.225878e+00
   4.062365e+01  -2.831275e+01
   2.272169e+01  -1.040413e+01
   9.703474e+00   1.046201e+01
  -1.821172e+01   5.246040e-01
  -3.227684e+01   2.733918e+01
   2.380132e+01  -9.474116e-01
  -2.411082e+01  -2.414437e+01
  -3.425891e-01   2.495047e+01
  -4.199553e+01   1.615154e+01
  -3.231765e+01  -4.236939e+00
   1.112465e+00   2.998574e+01
   3.911905e-01   4.513604e+00
  -4.340858e+01   1.587621e+01
  -2.341178e+01  -1.633763e+01
   3.471645e+01  -3.309450e+01
  -9.363145e+00   1.084698e+01
   5.036665e+00  -4.722695e+01
  -2.960420e+01   3.427074e+01
   2.947254e+00   2.505126e+01
   2.907311e+01   4.337676e+00
