
 $NMID
 id='ANONYMOUS ', fmtdat='(2E16.6)'
 volume=1.0
 tramp=1.0
 $END
  -2.221328e+03   1.977002e+02
  -1.334671e+03  -1.281346e+03
   3.292698e+02  -1.413266e+03
   8.470843e+02  -7.952688e+02
   5.247528e+02   1.485296e+02
  -2.187040e+02   3.175427e+02
  -5.213528e+02  -1.748470e+02
   8.467797e+01  -3.466769e+02
   3.721906e+02  -3.236600e+02
   4.422434e+02  -8.951309e+01
   2.193206e+02   3.366669e+02
  -1.972940e+02   4.618263e+02
  -4.529917e+02   1.610903e+02
  -2.222209e+02  -2.838226e+02
   1.006578e+02  -4.501809e+02
   2.450321e+02   1.272990e+02
   2.675917e+02   4.205195e+02
  -7.119517e+01   2.786076e+02
  -3.492219e+02   1.384252e+02
  -3.407125e+02  -1.728141e+02
  -5.883860e+01  -2.797133e+02
   1.583791e+02  -2.260838e+02
   8.482501e+01   1.245943e+01
   9.317433e+01  -8.938976e+01
  -9.865273e+01  -1.201680e+02
  -1.609048e+02  -3.269111e+02
   3.314532e+02  -1.090249e+02
   5.000508e+02   7.958817e+01
   1.608318e+02   2.243235e+02
  -1.761856e+02   2.552276e+02
  -3.386436e+02   4.419674e+01
  -1.832613e+02  -2.011878e+02
   1.206840e+02  -3.502898e+02
   4.163398e+02  -1.692317e+02
   2.543146e+02   1.460855e+02
   5.761470e+00   2.873830e+02
  -9.563863e+01   2.475076e+02
  -9.983213e+01  -1.048248e+02
  -4.433618e+01  -1.925805e+02
   2.526252e+02  -2.154377e+01
   2.212590e+02   4.093061e+02
  -2.141101e+02   3.659540e+02
  -3.377329e+02   6.605758e+00
  -1.569937e+02  -2.982059e+02
   1.375595e+02  -1.609179e+02
   2.440178e+02   2.417551e+02
  -3.741385e+01   3.614836e+02
  -3.362590e+02   7.681612e+01
  -4.084367e+02  -2.225110e+02
  -1.094684e+02  -3.833941e+02
   2.077587e+02  -2.144478e+02
   3.531207e+02   1.909572e+01
   2.229745e+02   2.074006e+02
  -1.121954e+02   2.201741e+02
  -2.471924e+02   8.568107e+01
  -1.653332e+02  -7.624850e+01
   4.899478e-01  -9.297063e+01
   2.788002e+01   6.666021e+01
  -1.003319e+02   7.281995e+01
  -1.903859e+02  -5.532333e+01
  -8.784980e+01  -1.534278e+02
   1.197723e+02  -1.370314e+02
   1.922476e+02  -1.497951e+01
   8.100820e+01   5.778709e+01
   9.915484e+00   1.523822e+02
  -1.574030e+02   1.671678e+02
  -2.166249e+02   1.315659e+02
  -1.976149e+02  -7.648292e+01
  -7.238530e+01  -2.577904e+02
   5.627469e+01  -2.474049e+02
   6.959906e+01  -1.036509e+02
   6.473909e+01   2.116991e+00
   1.184913e+01  -3.141621e+01
   1.248764e+02  -8.332962e+01
   1.604905e+02   2.808076e+01
   1.091919e+02   1.796629e+02
  -4.858093e+01   1.618023e+02
  -1.584052e+02   1.970799e+00
  -1.076534e+02  -1.898296e+02
   1.659685e+01  -1.631987e+02
   1.781311e+02  -5.051712e+01
   2.104753e+02   1.185720e+02
   1.232112e+02   2.215175e+02
  -6.184433e+01   2.162494e+02
  -1.457017e+02   9.749743e+01
  -1.024048e+02  -2.504196e+01
  -6.378703e+01  -3.814620e+00
  -1.348038e+02  -2.154516e+00
  -2.380307e+02  -1.931762e+00
  -1.914235e+02  -1.425884e+02
   1.628002e+01  -2.735256e+02
   2.357914e+02  -2.693690e+02
   2.370723e+02  -1.070460e+02
   1.798929e+02   9.255179e+01
   4.090006e+01   2.217890e+02
  -4.181845e+01   1.317908e+02
  -4.153228e+01   4.257976e+01
   6.189739e+01  -6.345789e+01
   1.211114e+02  -9.992036e+00
   3.880687e+01   9.385892e+01
  -6.964028e+01   1.001986e+02
  -1.375829e+02  -5.379450e+01
  -2.963277e+01  -9.180936e+01
   1.488659e+02   1.988031e+00
   1.299370e+02   1.255397e+02
  -2.069208e+01   1.472949e+02
  -1.180064e+02   1.433767e+02
  -1.999654e+02  -1.330095e+01
  -1.996586e+02  -1.171339e+02
  -6.775877e+01  -1.055850e+02
   9.203228e+01  -7.632626e+01
   1.038035e+02   3.212187e+01
   5.244556e+01   1.079082e+01
  -4.956423e+01  -5.600954e+01
  -3.192118e+01  -1.449121e+02
   8.815138e+01  -9.534865e+01
   1.349547e+02   1.743312e+00
   3.625398e+01   1.231802e+02
  -7.486581e+01   3.542485e+01
  -1.737684e+01  -6.687759e+01
   1.219458e+02  -4.196840e+01
   1.695266e+02   9.474113e-01
   1.301022e+02   1.097847e+02
   1.175788e+01   1.700135e+02
  -1.353189e+02   1.559205e+02
  -1.534102e+02   7.201765e+01
  -1.099850e+02  -5.755109e+01
   5.186758e+01  -1.121635e+02
   4.357927e+01  -7.793110e+00
  -3.932825e+01   1.542233e+01
  -1.426314e+02   3.244441e+01
  -1.204650e+02  -3.545627e+01
  -3.427736e+01  -8.251954e+01
   7.031792e+01  -8.325708e+01
   1.094481e+02   2.490833e+01
   3.506922e+01   3.259048e+01
  -3.553599e+01  -4.187221e+01
  -4.139827e+01  -1.391725e+02
   1.671849e+01  -8.390577e+01
   1.323378e+02  -2.762391e+01
   1.425360e+02   9.574882e+01
  -3.829706e+01   1.416550e+02
  -1.018436e+02   7.934172e+01
  -1.106544e+02  -4.248410e+01
  -2.294403e+01  -7.684144e+01
   6.848041e+01  -1.513137e+01
   6.553336e+01   2.219059e+01
  -4.240298e+01   6.660510e+01
  -8.718623e+00   3.457247e+01
  -2.040544e+01  -1.012465e+01
   1.596930e+01  -4.183017e+01
   1.818750e+01   5.645092e+01
   1.415717e+01   9.901741e+01
  -9.560280e+01   1.316818e+02
  -1.121340e+02   4.754346e+01
  -1.723891e+02  -9.689675e+01
  -6.577617e+01  -1.510066e+02
   6.236385e+01  -1.243657e+02
   7.725726e+01   2.799076e+00
  -2.049272e+00   4.471838e+00
  -6.987060e+00  -3.192218e+01
   2.320877e+01   1.529063e+00
   1.229146e+02   4.926918e+01
   6.489385e+01   5.688593e+01
  -1.179045e+01   2.807662e+01
  -7.043936e+01   5.025149e+01
  -1.365659e+02   1.597378e+01
  -8.454525e+00  -4.435940e+01
   4.435205e+01  -4.984204e+01
   1.187221e+02   2.573994e+01
   4.049469e+01   1.404101e+02
  -1.177731e+02   1.028705e+02
  -1.976283e+02   1.701215e+01
  -1.585408e+02  -1.069580e+02
  -6.331891e+01  -9.840783e+01
   8.527847e+01  -6.145894e+01
   6.711997e+01  -2.111905e+01
   6.052854e+01  -3.085778e+01
   6.000041e+01  -5.994306e+01
   5.072735e+01  -4.245915e+01
   6.825288e+01   3.665354e+01
   7.755899e+01   1.295694e+02
  -4.049408e+00   1.629323e+02
  -7.456494e+01   1.002231e+02
  -6.582383e+01  -3.180825e+01
  -5.066692e+01  -8.837776e+01
  -1.502716e+01  -9.231090e+01
   7.980360e+01  -9.161632e+01
   3.875235e+01   2.198413e+00
  -2.619462e+01   9.068529e+00
  -6.331741e-01  -1.746301e+01
   1.856933e+01  -2.738303e+01
   6.101180e+01   1.302055e+01
   2.211339e+01   2.732351e+01
  -6.861239e+01  -4.332191e+00
  -1.053366e+02   2.428177e+01
  -9.808435e+01  -3.781224e+01
  -6.971436e+00  -7.108789e+01
   1.154205e+02  -7.000010e+01
   1.212347e+02  -4.305779e+00
   2.950611e+01   4.160276e+01
  -7.455820e+01   3.272919e+01
  -5.879484e+01  -2.543558e+01
   1.089484e+00  -5.045336e+01
   3.971623e+01  -5.718230e+01
   7.334809e+01   4.908939e+01
   2.339161e+01  -1.677133e+01
   7.117529e+01   3.871840e+01
   1.027782e+01   1.270091e+01
  -4.549820e+00  -5.315758e+00
   3.609714e+01   3.336002e+01
  -1.615139e+00   1.097090e+02
  -1.039479e+02   6.939673e+01
  -1.481306e+02   2.835290e+01
  -1.245177e+02  -1.916759e+01
  -4.800773e+01  -1.191299e+02
   4.642503e+01  -6.238746e+01
   4.173606e+01   2.287832e+01
  -3.616458e+01  -1.974116e+01
  -3.295910e+01  -4.444294e+01
  -3.692079e+01  -9.688971e+01
   8.520000e+01  -9.096367e+01
   1.407728e+02  -1.459754e+01
   9.758632e+01   2.739135e+01
   4.833724e+01   3.945454e+01
  -2.063289e+01   4.889428e+01
  -1.712674e+01  -1.212413e+01
   4.282686e+00  -2.783544e+01
   7.772077e+01   1.205601e+01
   3.341692e+01   1.013506e+02
  -7.896480e+01   1.027465e+02
  -1.029847e+02   4.088145e+01
  -6.314662e+01  -1.796398e+01
  -2.343743e+01  -9.240435e+01
   1.396155e+01  -5.302854e+01
   4.664461e+01   2.129154e+01
  -1.703762e+00   1.046039e+02
   2.374996e+00   8.528597e+01
  -6.300924e+00  -1.191095e+01
  -2.644616e+01  -2.775622e+01
   2.539212e+01   1.532020e+01
  -3.194560e+00   1.296755e+01
  -1.189465e+01  -1.473893e+01
  -6.584753e+01  -4.253620e+01
  -8.600912e+01  -1.020668e+02
   8.244017e+01  -8.055173e+01
   1.397272e+02   4.397087e+01
   7.943081e+01   3.292441e+01
   1.430193e+01  -1.997730e+01
  -3.594883e+01  -3.268590e+01
  -5.357216e+01   4.711126e+01
  -2.149559e+01  -1.009199e+01
   5.597762e+00  -2.014573e+01
   3.064583e+01  -8.830565e+00
   1.066766e+01   2.516464e+01
  -5.646896e+00   3.094619e+01
   1.339325e+01  -9.017233e+00
   1.909904e+01   2.543418e+01
   2.661807e+01   8.439904e+01
  -8.981891e+01   7.260825e+01
  -1.438770e+02  -3.112258e+00
  -7.604543e+01  -2.395517e+01
  -2.212015e+01  -9.475494e+01
   9.247923e+00  -9.195115e+01
   9.588351e+01   1.844273e+01
   8.606934e+01   2.186713e+01
  -1.690799e+01  -4.967195e+00
   3.690141e+01  -3.006545e+00
   4.251528e+01   3.601849e+01
   3.645178e+01  -2.720030e+01
   2.499305e+01   3.879287e+01
  -3.732687e+01   4.312920e+01
  -5.257777e+01   1.562248e+01
  -6.866204e+01   3.243177e+00
  -7.944216e+00  -7.519968e+01
   6.781674e+01  -3.604423e+01
   2.387059e+01   5.365439e+01
  -3.515148e+01   5.179453e+01
  -6.938421e+01   1.251728e+01
  -5.043024e+01   2.702182e+00
  -2.822450e+01  -7.676774e+00
  -1.026659e+01  -3.857490e+01
   1.271003e+01  -3.449447e+01
   3.626051e+00  -7.455889e+00
  -6.490622e+01   1.852456e+01
   1.736942e+00  -3.675797e+01
   1.215611e+01   8.303848e+00
   1.321224e+02  -3.332180e+01
   6.541404e+01   3.926274e+01
  -2.368218e+01   4.411006e+01
  -5.904617e+01   5.126510e+01
  -4.785966e+01   3.101651e+01
   2.452728e+00  -7.458907e+01
   2.202711e+01  -1.330541e+01
   2.849796e+01   2.163478e+01
  -1.565998e+01   1.230280e+01
   4.573378e+00   4.233716e+01
  -1.276013e+00   3.209253e+01
  -1.215194e+01  -2.179878e+01
   2.659647e+00   2.808172e+01
   3.281624e+00   3.119692e+01
  -1.995471e+01  -6.369739e+00
  -2.334183e+01  -1.140452e+01
   2.089415e+01   5.217288e+00
   1.842326e+01   4.710105e+00
   2.583288e+01   5.595323e+01
   2.389360e+01   2.278694e+00
  -5.633606e+01  -1.706389e+01
  -2.037491e+01  -1.726190e+01
   2.459794e+00  -2.742476e+01
   3.952355e+01  -2.908775e+01
   4.498294e+01   3.340394e+01
   5.925422e+01   8.605633e+01
  -6.250050e+00   3.533418e+00
  -3.198100e+01  -6.333574e-01
  -2.366979e+01  -1.315471e+01
   2.577243e+01  -1.469998e+01
   4.330471e+01   2.831547e+01
  -1.583342e+01   4.032820e+01
  -7.432474e+01  -2.853771e+00
