
 $NMID
 id='ANONYMOUS ', fmtdat='(2E16.6)'
 volume=1.0
 tramp=1.0
 $END
  -3.197214e+03  -2.063733e+02
  -1.999675e+03  -1.471231e+03
   1.303702e+02  -1.779905e+03
   1.100969e+03  -1.027540e+03
   7.601360e+02  -1.699296e+02
  -6.204291e+01   2.753770e+02
  -4.333245e+02  -1.377549e+02
  -1.797520e+02  -6.361146e+02
   5.983795e+02  -5.929678e+02
   6.440877e+02  -1.709700e+02
   3.893157e+02   5.057048e+02
  -5.126197e+01   7.014951e+02
  -2.591379e+02   5.151061e+01
  -3.776632e+01  -6.051266e+02
  -4.540670e+01  -5.426865e+02
   4.240332e+02   4.384160e+01
   2.561711e+02   4.312366e+02
   2.207735e+01   5.748743e+02
  -5.304307e+02   1.490085e+02
  -3.348205e+02  -2.419963e+02
  -1.889425e+02  -3.675219e+02
  -5.174290e+00  -1.592291e+02
   6.751126e+01  -1.301361e+02
  -1.471876e+02  -1.329531e+02
  -1.602647e+02  -3.615428e+02
   4.949322e+01  -2.884291e+02
   4.702776e+02  -1.043909e+02
   5.470581e+02   2.071208e+02
   2.114928e+02   2.678252e+02
  -2.069285e+02   1.553805e+02
  -3.680221e+02  -8.189025e+01
  -2.546410e+02  -3.429043e+02
   2.245102e+02  -3.934679e+02
   5.913181e+02  -1.525574e+02
   3.683613e+02   2.974287e+02
   5.200564e+01   3.716220e+02
  -9.687241e+01   1.865300e+02
  -4.321845e+00  -8.933302e+01
   1.554876e+02  -1.435817e+02
   2.211520e+02   1.192153e+02
   4.087013e+01   4.387565e+02
  -2.607897e+02   4.236677e+02
  -3.226235e+02   1.660538e+01
  -1.416050e+02  -2.711855e+02
   1.865972e+02  -1.687810e+02
   1.916445e+02   2.038511e+02
   8.206961e+00   3.703059e+02
  -3.892893e+02   1.975749e+02
  -5.095087e+02  -2.686135e+02
  -2.571157e+02  -4.856614e+02
   2.535165e+02  -3.738899e+02
   5.444092e+02  -2.449120e+01
   4.348980e+02   2.239795e+02
   4.173166e+01   2.500013e+02
  -3.433245e+02   1.200020e+02
  -2.642909e+02  -7.742346e+00
  -3.670992e+01  -3.984350e+01
   1.141667e+02  -6.141026e+00
  -6.705919e+01   4.107337e+01
  -2.082929e+02  -7.057329e+01
  -1.374034e+02  -1.703599e+02
   1.373573e+02  -2.736287e+02
   3.644906e+02  -1.457527e+02
   3.058795e+02   9.991553e+01
   3.043335e+01   3.292201e+02
  -2.795375e+02   3.781220e+02
  -3.566014e+02   1.429474e+02
  -2.667481e+02  -1.470388e+02
  -7.780908e+01  -3.597591e+02
   8.564806e+00  -3.422959e+02
   4.589122e+01  -2.080529e+02
   2.860987e+01  -1.291173e+02
   1.089504e+02  -1.466093e+02
   2.359319e+02  -6.303186e+01
   2.635524e+02   1.199233e+02
   7.370492e+01   2.405237e+02
  -8.064426e+01   2.110868e+02
  -2.193986e+02  -3.506808e+01
  -1.526496e+02  -2.401047e+02
   3.902060e+01  -2.824067e+02
   3.126713e+02  -8.952608e+01
   3.333300e+02   1.750345e+02
   1.647533e+02   2.727192e+02
  -6.397115e+01   2.502835e+02
  -2.188193e+02   1.519898e+02
  -1.869927e+02   8.195626e+01
  -1.795461e+02   5.986302e+01
  -2.812601e+02   1.568329e+01
  -4.459989e+02  -1.138333e+02
  -2.950073e+02  -3.111728e+02
  -5.616636e+01  -4.674260e+02
   3.451729e+02  -3.869866e+02
   4.621957e+02  -1.990058e+02
   3.002440e+02   4.754113e+01
   3.403024e+01   1.888092e+02
  -7.084474e+01   1.707850e+02
  -4.566127e-01   1.221126e+01
   1.211341e+02  -4.832105e+01
   1.366870e+02  -4.334572e+00
   2.938455e+01   1.506614e+02
  -1.114153e+02   1.254695e+02
  -8.389188e+01  -3.290169e+01
   7.431429e+00  -8.216192e+01
   1.330647e+02  -8.547205e+00
   9.200102e+01   1.786565e+02
  -5.810248e+01   3.065230e+02
  -2.061786e+02   2.315414e+02
  -3.609964e+02  -4.547253e+01
  -2.780613e+02  -2.845113e+02
  -6.000105e+01  -2.559065e+02
   1.050228e+02  -1.615371e+02
   1.249203e+02  -8.952082e+01
   7.211096e+01  -4.918841e+01
   1.317623e+01  -7.983442e+01
   5.647404e+01  -1.022225e+02
   1.159796e+02  -5.043283e+01
   1.653462e+02  -1.250039e-01
   1.144836e+01   1.605449e+01
  -3.074055e+01   3.515364e+01
  -2.782729e+01  -6.938899e+01
   1.570197e+02  -8.131091e+01
   2.797119e+02  -1.588373e+01
   2.751151e+02   1.820991e+02
   8.181381e+00   2.727551e+02
  -2.187091e+02   2.135101e+02
  -2.568491e+02   9.320835e+01
  -1.465967e+02  -7.097558e+01
   3.469958e+01  -1.086319e+02
   7.723481e+01  -2.841589e+00
   6.900508e-01   9.348190e+01
  -1.704568e+02   1.718132e+01
  -2.085987e+02  -1.546630e+02
  -1.059651e+02  -1.711015e+02
   8.479770e+01  -1.417216e+02
   1.507900e+02  -3.061081e+01
   9.104462e+01   4.652440e+01
  -4.580003e+01  -1.479910e+01
  -4.255204e+01  -1.220383e+02
   7.448385e+01  -1.470528e+02
   2.036812e+02  -3.519772e+01
   1.877334e+02   7.657263e+01
   1.539268e+01   1.840403e+02
  -1.621552e+02   1.547324e+02
  -1.703533e+02   7.442374e+01
  -4.674325e+01  -5.093284e+01
   7.540229e+01  -5.570010e+01
   5.128358e+01  -7.510350e+01
  -1.441713e+00  -1.320267e+01
   1.099152e+01  -2.411503e+01
   1.512867e+01   4.208974e+00
   3.754646e+01   6.751956e+00
   7.057937e+01   5.613605e+01
  -1.694807e+01   1.297569e+02
  -1.497113e+02   1.014260e+02
  -2.239465e+02   2.548230e+01
  -1.931191e+02  -1.515355e+02
  -9.993312e+00  -2.359422e+02
   8.468214e+01  -1.919274e+02
   1.900381e+02  -1.086191e+02
   8.994684e+01   7.862314e-01
   8.358408e+01   5.575736e+01
   9.420166e+01   2.939397e+01
   1.261077e+02   4.884225e+01
   8.992700e+01   9.744043e+01
  -2.940139e+01   1.344421e+02
  -1.378178e+02   7.803341e+01
  -1.571162e+02  -6.611539e+01
   1.394675e+01  -1.468131e+02
   1.314564e+02  -1.150659e+02
   1.555657e+02   7.937523e+01
   9.889034e+01   2.084436e+02
  -1.203820e+02   2.651193e+02
  -2.728909e+02   5.206973e+01
  -2.236846e+02  -1.060611e+02
  -9.024241e+01  -1.756495e+02
   8.148897e+01  -1.148299e+02
   1.284119e+02  -1.262968e+02
   6.012164e+01  -6.256778e+01
   1.007105e+02  -8.020340e+01
   7.278300e+01  -6.166421e+01
   1.487939e+02   4.001829e+01
   7.732759e+01   1.722827e+02
   3.190337e+01   1.936279e+02
  -8.237538e+01   1.663160e+02
  -1.711690e+02  -1.509215e+01
  -1.333869e+02  -1.014089e+02
  -5.832672e+01  -1.307425e+02
   8.769299e+01  -3.399916e+01
   8.660171e+01   5.039863e+01
   2.048530e+01   3.733761e+01
  -3.220668e+01   7.753366e+01
  -2.112628e+01  -1.062128e+01
   7.758051e+01   6.401245e+00
   2.944426e+01   9.503715e+00
  -3.517461e+01   9.765122e+00
  -1.588637e+02   2.072602e+00
  -1.475521e+02  -4.985632e+01
   2.305470e+01  -6.812788e+01
   1.569708e+02  -6.684786e+01
   1.658265e+02  -5.173404e+01
   6.658040e-01   2.722285e+01
  -2.798504e+01   6.491766e+01
  -8.592992e+01  -1.579747e+01
  -2.283656e+01  -4.689683e+01
   5.661642e+01  -7.531655e+00
   7.832698e+01   4.441914e+01
   6.177564e+01   3.541881e+01
   3.241121e+01   3.710260e+01
   2.479206e+01  -3.895904e+01
   9.487705e+01   1.110444e+01
   7.231971e+01   9.565906e+01
  -5.905443e+01   2.008599e+02
  -1.789263e+02   1.489815e+02
  -1.740589e+02  -1.292611e+00
  -1.359183e+02  -1.289867e+02
  -4.463146e+01  -1.227518e+02
   7.004140e+01  -7.348959e+01
   7.417941e+01  -4.352991e+00
  -3.617478e+01   1.535667e+01
  -1.052093e+02   2.499182e+01
  -6.016055e+01  -8.364409e+01
   6.167482e+01  -5.512168e+01
   1.576670e+02  -6.647005e+01
   1.260358e+02   3.627386e+01
   2.586276e+01   5.516722e+01
  -3.457011e+01   3.052459e+01
  -5.402442e+01  -7.594012e+00
   6.701537e+01  -3.018461e+01
   1.054766e+02   4.633564e+01
   5.598294e+01   1.212604e+02
  -6.760458e+01   1.678658e+02
  -1.749496e+02   7.084877e+01
  -1.237554e+02  -7.761928e+01
  -6.948953e+01  -1.870309e+02
   2.678696e+01  -1.298590e+02
   7.994878e+01   1.865452e+01
   6.330978e+01   9.697034e+01
   1.283142e+01   1.186694e+02
  -1.725158e+01   9.953212e+00
  -4.503941e+01  -2.730148e+01
  -3.693556e+01   6.686971e+00
  -5.179824e+00   1.935986e+00
  -3.912639e+01  -2.282104e+01
  -1.026044e+02  -9.005876e+01
  -6.460729e+01  -9.693449e+01
   7.522638e+01  -6.703661e+01
   9.475343e+01   6.283638e+01
   1.057694e+02   1.118396e+02
   3.347446e+01   4.301216e+01
  -9.297232e+01   1.081774e+01
  -7.431025e+01   2.968205e+01
  -4.094384e+01  -1.048765e+01
   2.693929e+01  -8.188169e+00
   2.403554e+01   3.691391e+01
  -3.796476e+01   2.907907e+00
  -9.672689e+00   3.473916e+01
   4.220110e+01  -4.028404e+00
   1.169781e+02   7.614638e+00
   2.349525e+01   5.614285e+01
  -6.552874e+01   8.516231e+01
  -2.103139e+02   2.672517e+01
  -2.072098e+02  -3.866242e+01
  -3.279639e+01  -1.562541e+02
   7.604798e+01  -1.450160e+02
   1.402361e+02  -7.912975e+01
   9.060485e+01   2.654836e+01
   1.669204e+01   5.114233e+01
   1.483317e+01  -1.854641e+01
   1.801866e+01  -3.470630e+01
   2.316375e+01   1.821414e+01
   1.152451e+01   8.444985e+01
   8.913563e+00   5.891972e+01
  -5.315735e+01   3.139171e+01
  -8.864968e+01  -7.469251e+01
  -6.387692e+01  -1.422256e+02
   2.311688e+01  -3.392793e+01
   8.170761e+01   9.424758e+01
   1.749769e+01   1.198707e+02
  -6.733249e+01   5.173438e+01
  -9.508189e+01  -2.796964e+01
  -1.223247e+02  -2.606891e+01
  -2.137967e+00  -1.645851e+01
   2.340873e+01  -5.059238e+01
  -2.882160e+01  -3.348501e+01
  -6.546992e+01  -1.541580e+01
   5.766059e+00  -9.148343e+00
   1.034781e+02  -9.819909e+01
   9.476795e+01   1.426859e+01
   6.232681e+01   2.520327e+01
  -1.259281e+01   5.032805e+01
  -5.885729e+01   9.137218e+01
  -2.980090e+01   1.357358e+01
  -1.675773e+01  -8.907995e+01
   5.564702e+01  -4.477549e+01
   5.581977e+01  -8.715785e-02
   3.209721e+01   9.328500e+01
   3.050203e+01   7.936081e+01
  -1.264908e+00   6.683368e+00
  -3.917360e+01   1.265982e+01
  -1.386272e+01   3.460982e+01
  -2.123406e+01   2.427219e+01
  -3.181388e+01  -4.409911e+01
   6.222340e+00  -4.102145e+01
  -6.104689e+00  -3.076829e+01
   1.963280e+01  -3.268760e+01
   3.167730e+01   1.881710e+01
   2.349794e+00   6.815407e+01
  -2.713058e+01   5.267680e+01
  -5.289339e+01  -1.866222e+01
   1.553871e+01  -9.060606e+01
   5.602697e+01  -4.653485e+01
   9.293606e+01  -2.470277e+01
   3.542574e+01   5.389644e+01
  -2.241991e+01   3.226767e+01
  -8.118654e+01   3.949544e+01
  -6.153545e+01   1.960324e+01
   5.083225e+00   3.821067e+01
   2.340747e+01  -9.031553e+00
  -1.176256e+01   2.282900e+01
  -5.399470e+01   1.852110e+01
