
 $NMID
 id='ANONYMOUS ', fmtdat='(2E16.6)'
 volume=1.0
 tramp=1.0
 $END
   3.396440e+03   1.408381e+02
   2.023594e+03   1.915553e+03
  -3.846280e+02   2.161672e+03
  -1.317464e+03   1.205772e+03
  -7.508154e+02   1.041610e+02
   2.307413e+02  -3.745728e+02
   6.502403e+02   6.868024e+01
  -5.490791e+00   7.711045e+02
  -6.122110e+02   7.112084e+02
  -8.210195e+02   1.540894e+02
  -3.522410e+02  -6.794712e+02
   2.252780e+02  -6.701062e+02
   4.619062e+02  -1.825369e+02
   3.352199e+02   5.585336e+02
  -3.344162e+02   4.876686e+02
  -5.133946e+02  -2.103358e+02
  -5.566086e+02  -5.480509e+02
   1.438200e+02  -5.903629e+02
   3.669243e+02  -3.522028e+02
   4.930195e+02   1.820768e+02
   2.450957e+02   3.211429e+02
  -1.147227e+02   2.070960e+02
  -6.977954e+01  -6.867345e+01
   7.316782e+01   1.759925e+01
   1.983418e+02   2.976418e+02
   1.847023e+02   4.535833e+02
  -4.400180e+02   1.611073e+02
  -5.852324e+02  -2.074396e+02
  -1.710132e+02  -4.253455e+02
   2.625153e+02  -2.595348e+02
   5.742483e+02   4.454351e+01
   2.316662e+02   3.308826e+02
  -2.165399e+02   3.557963e+02
  -4.767276e+02   1.748339e+02
  -3.319112e+02  -2.314354e+02
   7.227063e+01  -3.178647e+02
   1.689994e+02  -1.763291e+02
  -3.012344e+01   1.334334e+02
  -1.089384e+02   1.650242e+02
  -2.207715e+02  -1.470424e+02
   9.117060e+00  -4.236108e+02
   2.761819e+02  -3.568234e+02
   2.797110e+02   3.452109e+01
   1.015281e+02   3.126473e+02
  -1.332229e+02   9.071585e+01
  -1.795254e+02  -2.644273e+02
   9.540522e+01  -3.553907e+02
   4.132968e+02  -6.049882e+00
   5.276411e+02   4.201044e+02
   1.638515e+02   5.179673e+02
  -3.296649e+02   3.047507e+02
  -5.603916e+02  -2.217153e+01
  -3.420970e+02  -2.515882e+02
   7.814806e+01  -2.765826e+02
   3.007574e+02  -1.208465e+02
   2.200304e+02   3.091887e+01
   2.734860e+01   6.835777e+01
  -4.466148e+01  -1.874407e+01
   7.962819e+01  -5.028807e+01
   2.317133e+02   6.108733e+01
   1.128358e+02   2.240459e+02
  -1.529625e+02   2.845351e+02
  -3.733102e+02   1.059495e+02
  -3.103203e+02  -1.324737e+02
   4.971650e+01  -3.254568e+02
   3.464849e+02  -3.542902e+02
   4.267635e+02  -1.050625e+02
   2.419764e+02   2.070532e+02
   1.466180e+01   4.212702e+02
  -7.310569e+01   3.704566e+02
  -4.265977e+01   2.048707e+02
  -4.796445e+01   1.146695e+02
  -1.660764e+02   8.012717e+01
  -2.731385e+02   2.124866e+01
  -2.762756e+02  -1.384576e+02
  -1.189199e+02  -2.794798e+02
   8.437271e+01  -2.073744e+02
   1.997741e+02   2.279583e+01
   1.534040e+02   2.419866e+02
  -1.026220e+02   2.330835e+02
  -3.217323e+02   6.289801e+01
  -2.793074e+02  -1.955155e+02
  -1.359008e+02  -3.265852e+02
   1.064992e+02  -2.395490e+02
   1.970896e+02  -1.281349e+02
   1.356426e+02  -3.096444e+01
   1.644574e+02  -1.891041e+01
   2.818103e+02   3.581594e+00
   3.785603e+02   1.628134e+02
   2.571631e+02   2.956867e+02
  -9.988995e+01   4.350378e+02
  -4.277850e+02   4.077008e+02
  -5.038302e+02   1.609936e+02
  -3.146715e+02  -1.352552e+02
  -4.528228e+00  -3.070266e+02
   1.459455e+02  -1.997250e+02
   2.243662e+01  -3.361525e+01
  -1.039690e+02   5.656300e+01
  -1.372532e+02  -4.999327e+01
  -3.308334e+01  -2.053589e+02
   9.821188e+01  -1.721101e+02
   9.049350e+01   7.767162e+00
  -1.338900e+01   1.204819e+02
  -1.210422e+02  -4.203078e+01
  -1.173308e+02  -2.407491e+02
   7.060466e+01  -3.871621e+02
   3.073677e+02  -2.187492e+02
   4.110094e+02   1.150393e+02
   2.743468e+02   3.061615e+02
   6.069134e+01   3.234765e+02
  -1.808777e+02   1.495456e+02
  -1.413665e+02   2.939491e+01
  -1.818175e+01   1.128855e+01
   2.911183e+01   4.364321e+01
  -3.168844e+01   1.286601e+02
  -1.364128e+02   4.442124e+01
  -1.993410e+02  -1.668918e+01
  -4.340103e+01  -8.607882e+01
   5.551907e+01  -4.099047e+01
   3.376603e+01   7.966773e+01
  -1.125344e+02   6.298138e+01
  -2.698062e+02  -7.254433e+01
  -2.338043e+02  -2.374999e+02
   4.075310e+01  -3.414598e+02
   2.308859e+02  -2.089678e+02
   3.017708e+02  -3.119862e+01
   1.475696e+02   9.011576e+01
  -2.009598e+01   1.564100e+02
  -2.895536e+01  -3.066441e+00
   8.650361e+01  -1.301410e+02
   2.083211e+02  -5.609494e+01
   1.854444e+02   1.427963e+02
   1.260835e+01   2.122842e+02
  -1.343098e+02   1.033605e+02
  -1.221293e+02  -2.081836e+00
  -5.664530e+01  -5.992991e+01
   4.712896e+01  -3.184466e+01
   1.781260e+01   9.850066e+01
  -7.883194e+01   9.194298e+01
  -2.206555e+02   2.845115e+01
  -1.866954e+02  -1.802082e+02
  -2.337005e+01  -2.163923e+02
   1.654740e+02  -1.577934e+02
   1.842528e+02  -1.772275e+01
   5.223174e+01   1.151648e+02
  -3.190284e+01   6.795664e+01
  -8.975681e+01   3.123627e+01
  -1.098677e+01  -3.966278e+01
   2.342753e+01  -4.046373e+01
  -8.524380e+00   4.075793e+01
  -9.546343e+01   1.762332e-01
  -7.893838e+01  -6.347448e+01
  -2.206880e+01  -1.613273e+02
   1.661561e+02  -1.469361e+02
   2.624704e+02  -1.534457e+01
   2.212881e+02   1.927438e+02
   2.002080e+01   2.566350e+02
  -1.276837e+02   1.707483e+02
  -1.386966e+02   6.652672e+01
  -5.888634e+01  -5.554748e+01
  -4.123842e+01  -4.378866e+01
  -4.894587e+01   3.234611e+01
  -6.519469e+01   4.497288e+00
  -5.063171e+01  -9.726824e+01
   6.415353e+01  -1.308874e+02
   1.220187e+02  -1.008150e+02
   1.336085e+02   2.453752e+01
   1.358543e+01   1.490873e+02
  -1.271687e+02   1.189793e+02
  -1.615975e+02  -7.701179e+01
  -9.099931e+01  -1.969072e+02
   1.235405e+02  -2.153058e+02
   2.406366e+02  -2.401296e+01
   2.382451e+02   1.341526e+02
   7.136178e+01   2.013907e+02
  -9.123786e+01   1.787004e+02
  -9.377990e+01   9.295228e+01
  -1.048726e+02   4.328332e+01
  -7.292861e+01   6.772967e+01
  -6.748445e+01   4.268130e+01
  -1.386245e+02  -3.458035e+00
  -1.698536e+02  -1.836434e+02
  -3.398430e+01  -2.549821e+02
   1.246856e+02  -1.763123e+02
   1.930954e+02  -6.534676e+00
   1.530580e+02   1.198544e+02
   4.629889e+01   1.325149e+02
  -4.216536e+01   1.312416e+02
  -8.693180e+01  -9.764189e+00
  -1.067083e+01  -1.529269e+00
   2.500542e+01  -2.709322e+01
  -9.615354e+01   3.724624e+00
  -9.799607e+01  -5.076777e+01
  -7.521150e+01  -8.109250e+01
   2.587780e+01  -7.298308e+01
   1.974537e+02  -6.993229e+00
   1.674399e+02   6.185390e+01
   2.685287e+01   1.150304e+02
  -1.015996e+02   5.748855e+01
  -1.012032e+02   7.534351e+00
  -2.800901e+01   1.312886e+00
   4.716433e+01  -6.061509e+01
   7.103753e+01   2.231417e+01
   8.031043e+00   9.641322e+01
  -8.143855e+01   1.182328e+02
  -1.180076e+02  -3.259206e+01
  -9.047150e+01  -7.250981e+01
  -4.199836e+01  -6.887656e+01
  -1.282734e+02   3.841283e+01
  -6.154072e+01   3.333178e+01
  -3.466056e+01  -7.074667e+01
   5.537446e+01  -1.634624e+02
   1.638215e+02  -1.227972e+02
   2.125763e+02  -3.430180e+01
   1.278211e+02   1.587292e+02
   3.052147e+01   1.271265e+02
  -1.143492e+02   1.726955e+01
  -7.100886e+01  -3.802623e+01
   7.176161e+01  -3.273036e+01
   1.652560e+02   7.580072e+01
   8.550885e+01   1.211536e+02
  -1.240437e+02   1.274596e+02
  -1.991358e+02   2.876850e+01
  -1.275938e+02  -7.900027e+01
  -2.334642e+01  -9.940954e+01
   6.603099e+01  -5.276018e+01
   7.088290e+01   2.962591e+00
  -4.986547e+01   4.569541e+01
  -8.266047e+01  -2.825676e+01
  -7.956485e+01  -1.216693e+02
   4.753449e+01  -1.790803e+02
   1.736148e+02  -4.753735e+01
   1.255534e+02   1.258609e+02
   1.323924e+01   2.290836e+02
  -6.113464e+01   1.511503e+02
  -1.026415e+02  -2.791635e+01
  -3.172451e+01  -1.437924e+02
   6.804346e+01  -8.374546e+01
   1.485050e+01  -2.020504e+01
   1.100778e+00   2.332720e+00
  -1.431523e+01  -3.270438e+01
  -5.167737e-01  -8.471338e+01
   4.015287e+01  -2.566491e+00
   7.917336e+01   3.742292e+01
   4.584567e+01   1.301632e+02
  -2.551641e+01   4.873053e+01
  -1.512642e+02  -7.574672e+01
  -8.874275e+01  -7.372701e+01
   4.398044e+01  -4.470562e+01
   1.001956e+02  -7.461406e+00
   6.758906e+01   1.069806e+01
   2.501219e+01  -1.155703e+01
  -5.916702e+01   5.053207e+01
  -2.584642e+01   2.842046e+01
   9.829753e+00  -2.968529e+00
  -9.426550e+00   4.409894e+00
  -8.166393e+01  -8.326693e+00
  -1.342480e+02  -1.382926e+01
  -3.899669e+01  -6.452918e+01
   9.956162e+01  -1.170131e+02
   1.973671e+02  -7.076296e+01
   1.574332e+02   6.454455e+01
   5.252119e+00   1.743580e+02
  -8.979750e+01   1.527610e+02
  -1.019843e+02   3.516508e+01
  -1.183122e+02  -5.717780e+01
  -1.814605e+01  -4.754281e+01
   3.441232e+01  -6.755936e+00
  -1.805306e+01   3.046242e+01
  -2.590417e+01  -8.536371e+00
   3.186515e+01  -1.412953e+02
   2.379380e+01  -1.155537e+02
   1.086613e+02   1.445336e+01
   7.547180e+01   1.389064e+02
  -2.906895e+01   1.532860e+02
  -6.279868e+01   3.382856e+01
  -8.915900e+01  -1.102527e+02
  -6.898037e+01  -1.753854e+02
   5.468562e+01  -2.352822e+01
   1.022080e+02   2.300470e+01
   4.726955e+01   7.015536e+01
  -4.521064e+01   7.117185e+01
  -3.952358e+01  -1.558483e+01
   1.464901e+01  -7.030777e+00
   7.147169e+01  -2.402715e+00
   3.723708e+00   3.783171e+01
  -8.306711e+01   3.667835e+01
  -1.192350e+02   2.235742e+01
  -1.127076e+02  -4.550923e+01
   1.069172e+01  -9.151015e+01
   7.347022e+01  -1.109337e+02
   5.091416e+01  -9.046581e+00
   1.075557e+01   7.151479e+01
  -6.362468e+01   6.972979e+01
  -5.919854e+01   2.265083e+01
  -2.349202e+01  -8.935184e+01
   2.258061e+01  -3.502631e+01
   3.139529e+01   1.392133e+01
   1.265306e+01   4.400837e+01
  -2.324679e+01   1.237204e+01
  -3.647013e+01  -5.285773e+00
  -5.699386e+00  -1.865511e+01
   8.569572e+00  -4.724374e+00
   1.026156e+01   4.903369e+01
  -3.448675e+01  -4.482230e+00
  -1.877962e+01  -5.481608e+01
   3.480691e+00  -7.355497e+01
   2.044845e+01  -9.017904e+00
   6.043077e+01   1.992721e+01
  -2.390132e+01   7.439402e+01
  -6.692337e+01   2.542224e+01
  -9.910982e+01  -1.928415e+01
  -4.750490e+01  -1.181397e+01
   5.496754e+01  -3.504867e+01
   4.077138e+01  -4.083322e+01
  -1.529352e+01   6.591156e+01
  -6.526889e+01   9.509228e+00
  -2.189821e+01  -2.578276e+01
   6.158889e+01  -1.444906e+01
   9.019386e+01  -4.855408e+01
