
 $NMID
 id='ANONYMOUS ', fmtdat='(2E16.6)'
 volume=1.0
 tramp=1.0
 $END
  -4.457590e+03   1.289300e+02
  -2.823513e+03  -2.609634e+03
   5.168450e+02  -2.729108e+03
   2.055445e+03  -1.110256e+03
   9.813602e+02   6.121894e+02
  -5.301418e+02   4.139773e+02
  -8.145990e+02  -4.005308e+02
   1.499682e+02  -1.037440e+03
   8.860617e+02  -9.011529e+02
   1.000757e+03   4.863350e+01
   4.765288e+02   7.993947e+02
  -2.810982e+02   8.477689e+02
  -4.803272e+02   2.676378e+02
  -4.056247e+02  -5.602553e+02
   2.551447e+02  -8.870577e+02
   6.490642e+02   4.581332e-01
   3.298389e+02   8.005849e+02
  -5.281502e+01   5.660203e+02
  -4.655591e+02   1.144747e+02
  -3.335259e+02  -3.775457e+02
   8.754215e+01  -3.683075e+02
   2.083275e+02  -4.026239e+02
   7.373486e+00  -1.376209e+02
  -8.288507e+01  -3.510498e+01
  -3.518017e+02  -1.613574e+02
  -1.258029e+02  -3.770660e+02
   4.589531e+02  -2.937795e+02
   7.415376e+02   1.757161e+02
   4.450203e+02   4.799737e+02
  -3.714555e+02   4.254076e+02
  -7.473647e+02  -9.216545e+01
  -3.538245e+02  -5.453234e+02
   2.693645e+02  -4.707779e+02
   6.756493e+02  -1.566257e+02
   4.928603e+02   2.758094e+02
   4.631550e+01   5.112948e+02
  -2.741536e+02   1.759701e+02
  -1.058367e+02  -2.219638e+02
   2.185425e+02  -3.622296e+02
   4.415147e+02   6.239504e+01
   2.011138e+02   7.400880e+02
  -4.208933e+02   6.549758e+02
  -6.322015e+02  -2.609056e+01
  -2.320618e+02  -5.791316e+02
   3.033908e+02  -3.436661e+02
   3.702484e+02   3.048445e+02
  -6.131872e+01   5.144376e+02
  -5.298448e+02   1.550086e+02
  -5.795452e+02  -4.054808e+02
  -1.171351e+02  -6.177058e+02
   4.171072e+02  -3.277655e+02
   6.010524e+02   1.323690e+02
   3.930841e+02   3.982766e+02
  -1.575924e+02   3.692984e+02
  -4.613208e+02   5.031033e+01
  -2.545796e+02  -1.569913e+02
   1.209663e+02  -1.161862e+02
   1.123656e+02   1.476988e+02
  -1.709689e+02   1.896397e+02
  -3.696686e+02  -6.241726e+01
  -1.395143e+02  -2.550426e+02
   2.007637e+02  -3.020390e+02
   3.807790e+02  -1.022991e+02
   1.889733e+02   4.003099e+01
  -5.615897e+01   2.919235e+02
  -2.189667e+02   3.372512e+02
  -3.202005e+02   2.128892e+02
  -2.178459e+02  -1.096683e+02
  -4.475432e+01  -4.489498e+02
   9.877224e+01  -3.412112e+02
   1.110090e+01  -1.003120e+02
  -2.705065e+01   4.792548e+00
   3.175656e+01  -1.388327e+02
   2.143253e+02  -1.082472e+02
   2.884484e+02   6.344766e+01
   1.657288e+02   3.017893e+02
  -8.401804e+01   2.199011e+02
  -2.210585e+02  -9.032254e+00
  -1.763745e+02  -2.438107e+02
   4.274040e+01  -3.150547e+02
   3.251889e+02  -9.591953e+01
   3.912218e+02   1.474339e+02
   1.864710e+02   3.646013e+02
  -1.172964e+02   3.054984e+02
  -2.276396e+02   1.191754e+02
  -1.543441e+02  -4.427677e+01
  -7.894562e+01   1.576208e+01
  -2.436574e+02   6.996910e+01
  -4.332396e+02   2.883073e+00
  -3.344459e+02  -2.847038e+02
  -2.336339e+01  -4.577462e+02
   3.802935e+02  -4.069699e+02
   4.593500e+02  -1.960791e+02
   3.406242e+02   1.163132e+02
   8.720652e+01   3.166784e+02
  -1.085842e+02   2.541568e+02
  -5.488744e+01   5.958324e+01
   1.196874e+02  -7.026737e+01
   2.343890e+02   1.395331e+01
   6.642141e+01   1.914781e+02
  -1.880264e+02   1.902628e+02
  -2.018443e+02  -4.284540e+01
   2.715122e+01  -1.597118e+02
   1.601951e+02  -2.446749e+00
   1.457522e+02   2.389377e+02
  -4.286947e+01   3.394630e+02
  -2.087562e+02   2.291311e+02
  -2.862464e+02  -5.536523e+01
  -2.882245e+02  -2.339486e+02
  -9.175963e+01  -2.722984e+02
   1.340290e+02  -1.717824e+02
   2.201995e+02  -2.635661e-01
   5.634764e+01   3.512556e+01
  -6.452647e+01  -6.984352e+01
  -3.084439e+01  -1.532062e+02
   1.212166e+02  -9.674923e+01
   1.932804e+02   7.667597e+01
   4.423494e+01   1.281987e+02
  -8.269634e+01  -2.266694e+01
  -1.000169e+02  -6.307608e+01
   1.358102e+02  -5.864106e+01
   2.915667e+02   2.488646e+00
   2.700431e+02   1.343951e+02
   1.556674e+01   2.359020e+02
  -1.806445e+02   2.426343e+02
  -2.645620e+02   1.312010e+02
  -1.237814e+02  -3.108302e+01
   2.697063e+01  -9.880929e+01
   9.271389e+01  -1.587794e+01
  -5.531275e+01   1.328689e+02
  -1.927502e+02   3.330686e+01
  -2.138224e+02  -1.376608e+02
  -8.630942e+01  -2.433041e+02
   1.303454e+02  -1.493167e+02
   1.787553e+02   1.015643e+01
   6.515419e+01   5.115180e+01
  -4.316391e+01   5.290359e+00
  -7.320406e+01  -1.162066e+02
   5.576081e+01  -1.089559e+02
   1.898012e+02  -2.906841e+01
   2.421147e+02   1.605890e+02
   4.838024e+01   2.184828e+02
  -1.682318e+02   1.611430e+02
  -2.082459e+02   2.351829e+01
  -9.370260e+01  -1.270089e+02
   4.790457e+01  -1.053229e+02
   8.223871e+01   4.905652e+00
  -2.163499e+01   1.825884e+01
  -9.739499e+01   1.102730e+01
  -3.156168e+01  -1.849564e+01
   7.410900e+01   1.535167e+01
   8.482786e+01   9.814021e+01
   3.822050e+01   1.398775e+02
  -1.136783e+02   1.137643e+02
  -2.772777e+02   1.619164e+01
  -2.005086e+02  -1.545293e+02
  -3.625281e+01  -2.190389e+02
   1.575401e+02  -1.821334e+02
   1.612801e+02   1.222769e+01
   5.910613e+01   1.183094e+02
   2.155190e+01   8.880665e+01
   3.729984e+01  -2.809371e+00
   5.729149e+01  -1.771474e+01
   1.677872e+01  -1.291174e+00
  -4.651991e+01   4.017593e+01
  -8.779493e+01   5.780234e+01
  -1.005657e+02  -4.842660e+01
   5.894317e+01  -1.051270e+02
   1.601623e+02  -1.395117e+02
   2.244508e+02   2.542193e+01
   1.034750e+02   1.841905e+02
  -1.170547e+02   2.000214e+02
  -2.457314e+02   1.059882e+02
  -2.435613e+02  -4.732885e+01
  -9.857967e+01  -1.676173e+02
   3.249045e+01  -1.291457e+02
   1.402638e+02  -9.585365e+01
   9.234531e+01  -6.153241e+01
   5.801248e+01  -1.003303e+02
   5.986820e+01  -8.235018e+01
   9.695298e+01   3.392027e+01
   1.017720e+02   1.734618e+02
   4.568369e+01   2.165651e+02
  -1.195901e+02   1.456400e+02
  -1.778019e+02   6.176424e+00
  -1.192303e+02  -1.424801e+02
   3.105910e+01  -1.133002e+02
   6.076993e+01  -1.055223e+02
   2.364823e+01  -1.834030e+01
  -1.074071e+01   8.702088e+01
  -1.917950e+01   8.881253e+01
   2.420783e+01   1.514806e+01
   7.471137e+01   7.842242e+00
   1.343504e+01   6.478111e+01
  -1.019088e+02   4.291865e+01
  -1.860513e+02   6.876460e+00
  -1.288095e+02  -6.805990e+01
  -6.776124e+01  -1.435896e+02
   1.106185e+02  -9.717664e+01
   1.565149e+02  -2.403173e+01
   8.734572e+01   6.440111e+01
  -3.778588e+01   3.223905e+01
  -5.884624e+01  -6.655975e-01
  -2.472672e+01  -5.540843e+01
   5.565594e+01  -5.700987e+01
   9.298132e+01  -2.238401e+01
   3.281383e+01   6.251393e+01
   9.502440e+01   4.447527e+01
   1.061113e+02   3.155953e+00
   7.442848e+01   6.920132e+00
   1.742827e+01   1.268116e+02
  -4.860406e+01   1.319253e+02
  -1.396174e+02   1.063761e+02
  -1.667218e+02   1.370374e+01
  -1.387301e+02  -1.428216e+02
   3.679686e+01  -1.238464e+02
   1.023122e+02  -4.754250e+01
   6.324811e+01  -1.940460e+01
  -7.044984e+01   2.487870e+01
  -1.434953e+02  -4.800667e+01
  -9.526606e+01  -8.999861e+01
   1.340507e+02  -1.212105e+02
   1.738845e+02  -9.638994e+00
   1.007058e+02   6.704707e+01
   3.551070e+01   1.161351e+02
  -4.255007e+01   5.147958e+01
  -4.727406e+01  -7.230395e+01
   7.079532e+01  -4.297790e+01
   8.667338e+01   3.371488e+01
   7.799010e+01   1.262489e+02
  -8.163513e+01   1.442810e+02
  -1.850813e+02   5.598182e+01
  -1.068732e+02  -1.044730e+02
  -4.212966e+00  -1.748311e+02
   1.156692e+02  -1.435008e+02
   1.000855e+02  -1.180406e+01
   1.381719e+01   1.405613e+02
  -2.343212e+01   1.659245e+02
  -8.105351e+01  -2.843924e+00
  -4.312982e+01  -1.638400e+01
  -4.717274e+01  -2.669677e+01
  -2.898680e+01   3.776655e+00
  -1.215830e+01  -2.890712e+01
  -6.627916e+01  -1.061234e+02
  -6.872163e+01  -9.844039e+01
   1.594029e+01  -4.544934e+01
   1.197738e+02   7.450927e+01
   1.317430e+02   8.867038e+01
   3.696363e+01   5.735234e+01
  -6.550661e+01   9.150234e+00
  -9.710268e+01   2.013572e+01
  -3.221198e+01  -7.869712e+00
   1.368739e+01   1.162722e+00
   2.713702e+00   4.307213e-01
  -3.896250e+01   3.090424e+01
   4.273063e+00   6.870984e+00
   8.465215e+01  -1.798349e+01
   6.630286e+01   2.854054e+01
   4.263797e+01   8.130507e+01
  -1.158964e+02   1.023192e+02
  -1.966295e+02   2.463562e+01
  -1.546465e+02  -9.660445e+01
  -2.683131e+01  -1.685021e+02
   8.845261e+01  -2.198742e+02
   1.326696e+02  -6.272518e+01
   9.277820e+01   1.866472e+01
   2.749636e+01   5.464919e+01
   1.055193e+01   6.515076e+00
   1.193982e+01   7.565986e+00
   7.815632e+01   2.026970e+01
   1.934474e+01   8.750402e+01
  -2.296891e+01   7.600560e+01
  -1.391123e+02   1.924788e+01
  -7.222166e+01  -1.002742e+02
  -1.136850e+01  -1.648948e+02
   4.417075e+01  -5.529723e+01
   1.241944e+02   4.398574e+01
   5.161618e+01   5.574495e+01
  -5.923623e+01   6.543803e+01
  -9.483593e+01   2.606261e+01
  -2.367893e+01   3.804477e+01
   2.274895e+01  -1.469745e+01
   2.595186e+01   4.588091e+00
  -6.972420e+01  -1.837844e+01
  -1.277362e+02  -2.585716e+01
   1.033002e+00  -8.517855e+01
   6.767664e+01  -7.077571e+01
   1.421300e+02   8.459707e+00
   6.562296e+01   6.650976e+01
  -1.886243e+01   8.664395e+01
  -5.115233e+01   8.185833e+01
   1.345997e+00  -1.626390e+01
  -2.160639e+01  -5.316271e+01
   5.690482e+01  -1.326619e+01
   4.994331e+01   6.071997e+01
   3.769231e+00   6.129002e+01
  -7.685637e+01   4.150004e+01
  -6.579239e+01   2.534568e+01
  -1.669377e+01  -7.148928e+01
   4.073190e+01  -2.261994e+01
   3.704497e+01   9.142640e-01
   4.493020e+00   5.188670e+01
  -2.163431e+00  -2.823629e+01
   4.970881e+01  -1.433922e+01
   2.503384e+01   1.181698e-01
  -1.676093e+00   1.111561e+01
   1.111779e+01   6.081419e+01
  -7.628114e+01   2.165586e+01
  -3.960005e+01  -1.904889e+01
   4.727244e+01  -8.146429e+01
   4.123454e+01  -1.537090e+01
   8.837106e+01   2.706956e+00
   3.636379e+01   2.892777e+01
  -5.407800e+01   6.748435e+01
  -5.390091e+01   9.184435e+01
  -3.558383e+01  -2.674656e+00
   1.968488e+01  -2.836492e+01
   4.260537e+01  -1.968675e+01
  -6.068274e+01   5.978732e+01
  -7.656828e+01   1.690785e+01
