
 $NMID
 id='ANONYMOUS ', fmtdat='(2E16.6)'
 volume=1.0
 tramp=1.0
 $END
   4.566132e+03   4.242801e+01
   2.818630e+03   2.698606e+03
  -9.126285e+02   2.754747e+03
  -2.447861e+03   7.253887e+02
  -9.788255e+02  -7.970545e+02
   7.509307e+02  -5.470150e+02
   1.084298e+03   5.113011e+02
   5.058425e+00   1.197515e+03
  -9.306631e+02   8.167302e+02
  -1.024278e+03  -1.615660e+02
  -4.945980e+02  -8.206697e+02
   3.324128e+02  -9.815382e+02
   8.788516e+02  -3.849175e+01
   2.927926e+02   8.555194e+02
  -1.945404e+02   7.181978e+02
  -7.757410e+02  -8.038793e+01
  -1.607996e+02  -6.581470e+02
   4.149308e+02  -6.900870e+02
   8.466309e+02  -8.924046e+01
   3.871867e+02   5.351183e+02
  -1.672091e+02   3.681772e+02
   1.058299e+01   2.273848e+02
  -3.290471e+02  -5.222981e+01
   8.792184e+01  -3.186947e+01
   5.237518e+02   2.232065e+02
   2.868196e+02   5.794864e+02
  -5.601318e+02   4.751231e+02
  -8.959420e+02  -8.691315e+01
  -5.894716e+02  -6.633028e+02
   3.020240e+02  -5.733000e+02
   8.042768e+02  -2.809438e+01
   4.581617e+02   5.281330e+02
  -2.891137e+02   5.677020e+02
  -6.350490e+02   2.409853e+02
  -4.969256e+02  -2.606798e+02
  -7.265316e+01  -5.866242e+02
   3.824371e+02  -3.260373e+02
   2.268815e+02   2.586144e+02
  -2.073284e+02   5.247759e+02
  -4.860809e+02  -3.857715e+00
  -3.293446e+02  -6.852418e+02
   3.052830e+02  -7.896132e+02
   8.059675e+02  -4.809310e+01
   2.904729e+02   6.289669e+02
  -3.261346e+02   3.649441e+02
  -4.405317e+02  -3.519486e+02
   5.420379e+01  -5.928629e+02
   6.064723e+02  -2.051988e+02
   6.577470e+02   3.945790e+02
   2.484617e+02   6.059667e+02
  -4.018803e+02   3.880937e+02
  -6.729332e+02  -3.960473e+01
  -3.879305e+02  -4.368582e+02
   1.882228e+02  -4.698279e+02
   5.443057e+02  -7.996940e+01
   2.577435e+02   2.910960e+02
  -1.387320e+02   1.781286e+02
  -1.701154e+02  -2.018567e+02
   1.812964e+02  -2.243378e+02
   3.833421e+02   8.273354e+01
   1.392806e+02   3.391420e+02
  -2.215446e+02   3.106720e+02
  -3.167136e+02   1.150896e+01
  -1.711597e+02  -1.350177e+02
   6.208158e+01  -2.402034e+02
   2.146159e+02  -2.755456e+02
   3.638792e+02  -1.619921e+02
   3.200566e+02   1.758031e+02
   5.326678e+01   4.801156e+02
  -1.292162e+02   3.972856e+02
  -2.000795e+02   7.360386e+01
  -2.106581e+01  -6.217748e+01
  -6.547182e+00   8.134960e+01
  -1.972508e+02   1.720367e+02
  -2.750469e+02  -2.539194e+01
  -1.842739e+02  -2.269599e+02
   6.749589e+01  -2.645304e+02
   2.328587e+02  -4.467076e+01
   2.088617e+02   2.400333e+02
  -3.903014e-01   2.620536e+02
  -2.828999e+02   1.574469e+02
  -3.910043e+02  -1.521546e+02
  -1.673146e+02  -3.382706e+02
   1.826820e+02  -2.891352e+02
   2.345401e+02  -1.058095e+02
   1.464476e+02  -2.553891e+01
   6.160753e+01   7.213188e+00
   1.882212e+02  -7.589594e+01
   3.873773e+02   4.782638e+01
   3.417461e+02   3.014014e+02
  -2.667476e+01   4.414423e+02
  -3.097108e+02   3.978871e+02
  -4.958847e+02   1.916835e+02
  -3.519788e+02  -8.247067e+01
  -5.292217e+01  -3.108763e+02
   1.169656e+02  -2.564036e+02
   1.142260e+02  -4.903941e+01
  -1.112662e+02   1.683080e+02
  -1.855847e+02   2.041624e+01
  -9.508945e+01  -1.835564e+02
   1.491274e+02  -2.285549e+02
   1.709337e+02   2.397732e+01
  -4.161179e+00   2.422744e+02
  -1.546102e+02   4.148580e+01
  -1.722280e+02  -2.120655e+02
  -2.132127e+01  -3.453109e+02
   2.188453e+02  -1.926592e+02
   3.136038e+02   1.246003e+02
   2.862038e+02   1.772342e+02
   1.538764e+02   2.153185e+02
  -1.090728e+02   1.852914e+02
  -2.071061e+02   4.642223e+01
  -1.111031e+02   1.815234e+01
   7.271670e+01   4.292997e+01
   6.516748e+01   1.241758e+02
  -1.048664e+02   8.076686e+01
  -1.645485e+02  -1.576651e+01
  -1.127154e+02  -7.138644e+01
   9.001478e+01  -7.099533e+00
   4.599696e+01   1.097930e+02
  -7.877790e+01   9.535843e+01
  -2.267328e+02   6.364341e+01
  -2.908740e+02  -9.376233e+01
  -7.425651e+01  -2.778616e+02
   1.667380e+02  -2.705335e+02
   2.139187e+02  -1.763420e+02
   1.701835e+02   7.656324e+01
  -1.052906e+01   1.330308e+02
  -1.134792e+02   3.989238e+01
   3.745044e+01  -1.221849e+02
   1.356549e+02  -1.025875e+02
   2.015854e+02   6.436249e+01
   7.111099e+01   1.978095e+02
  -1.155383e+02   1.977448e+02
  -1.536639e+02   4.481879e+01
  -7.705466e+01  -3.779015e+01
   4.462417e+01   2.919315e+01
   5.334840e+01   4.750094e+01
  -5.473611e+01   1.047909e+02
  -1.815194e+02   1.942153e+01
  -1.957956e+02  -9.643975e+01
  -6.753112e+01  -1.905946e+02
   8.736131e+01  -2.153760e+02
   1.443123e+02  -2.823654e+01
   5.431724e+01   7.701940e+01
  -1.629961e+01   1.291778e+02
  -6.649851e+01   4.748826e+01
   1.107920e+01  -3.088564e+01
   3.583139e+01  -1.740316e+01
  -2.742356e+01  -2.160639e+01
  -5.209348e+01   2.919356e+01
  -9.009276e+01  -6.674432e+01
  -1.724403e+01  -1.543989e+02
   1.498269e+02  -2.076528e+02
   2.193799e+02  -1.031528e+02
   2.264430e+02   1.001527e+02
   3.894895e+01   2.393708e+02
  -1.130067e+02   1.480074e+02
  -1.408985e+02   3.369263e+01
  -9.119936e+01  -4.453525e+01
   1.414173e+01   2.253026e+00
  -2.304955e+01  -1.837830e+00
  -4.214446e+01   1.364651e+01
  -5.395631e+01  -4.853888e+01
  -1.763708e+00  -1.064822e+02
   1.114277e+02  -3.787464e+01
   8.247032e+01   1.937544e+01
  -4.893619e+00   7.950870e+01
  -1.042648e+02   6.438214e+01
  -1.653441e+02  -4.095971e+01
  -1.209510e+02  -2.020385e+02
   5.006732e+01  -2.411372e+02
   2.182217e+02  -1.449822e+02
   2.380272e+02   6.215840e+01
   1.468490e+02   1.913131e+02
  -4.667197e+00   2.024224e+02
  -1.254090e+02   1.423291e+02
  -7.979606e+01   6.480797e+01
  -7.482519e+01   1.022126e+02
  -5.635812e+01   5.764568e+01
  -1.311533e+02  -6.216826e+01
  -1.055643e+02  -1.112651e+02
  -5.576792e+01  -2.082149e+02
   1.006013e+02  -1.745255e+02
   1.952594e+02  -8.919861e+00
   1.006920e+02   1.018256e+02
  -1.406876e+01   1.489734e+02
  -1.102214e+02   4.804161e+01
  -6.640905e+01   1.185951e+01
  -7.743554e+00   2.953602e+01
   2.032891e+01  -5.409359e+01
   4.258615e+00  -4.061304e+01
  -6.248936e+01  -1.405524e+01
   2.085340e+01  -1.546427e+01
   7.613195e+01  -5.026828e+00
   1.385988e+02   2.054626e+01
   7.933202e+01   3.634900e+01
  -2.777883e+01   5.546288e+01
  -1.055309e+02   3.535058e+01
  -1.241388e+02  -2.989877e+00
  -1.014992e+02  -2.931469e+01
   1.010049e+01  -6.818065e+01
   7.605816e+01   2.223616e+01
   2.670705e+01   4.852928e+01
  -2.891767e+01   1.010912e+02
  -2.909163e+01  -2.810209e+00
  -2.902506e+01  -2.682289e+01
  -2.105846e+01  -2.371761e+01
  -1.728335e+01  -1.928948e+00
  -6.013980e+01   1.239156e+01
  -5.782127e+01  -5.994486e+01
  -2.375402e+01  -1.580692e+02
   1.141117e+02  -1.742035e+02
   1.693246e+02  -3.318324e+01
   1.112795e+02   7.448181e+01
   4.360429e+00   1.338906e+02
  -8.106643e+01   4.795642e+01
  -3.841050e+01  -2.053935e+01
   5.603884e+01  -2.131815e+01
   1.320798e+02   2.901781e+01
   8.758405e+01   1.171522e+02
  -3.770857e+01   1.403854e+02
  -1.335142e+02   3.770704e+01
  -1.695672e+02  -5.715874e+01
  -7.023247e+01  -9.357419e+01
   3.975879e+01  -6.896605e+01
   3.434878e+01  -9.635604e+00
  -4.036349e+00   2.327753e+00
  -6.928600e+01   3.863014e+00
   1.570337e+01  -2.051531e+02
   1.119803e+02  -1.491329e+02
   1.530979e+02  -4.748578e+01
   1.313411e+02   1.283222e+02
   1.480920e+01   2.100761e+02
  -7.181398e+01   1.384215e+02
  -5.717580e+01   3.715344e+01
  -3.775466e+01  -8.153360e+01
   2.574434e+01  -8.408079e+01
   8.898484e+01  -1.745919e+01
   2.480420e+01   1.150721e+01
   2.350622e+01   3.529363e+01
   3.889870e+00  -1.182331e+01
  -1.073874e+01   2.217510e+01
   6.483916e+01   1.137053e+02
   2.454613e+01   1.241410e+02
  -7.084338e+01   8.271200e+01
  -1.771210e+02  -5.570872e+01
  -1.215083e+02  -7.888770e+01
  -2.610427e+01  -4.977801e+01
   8.874173e+01  -6.658874e+00
   1.206860e+02  -4.107590e+00
   4.292628e+01   1.012359e+01
  -4.510067e+01   1.259713e+01
  -1.390538e+01   2.910356e+00
   5.010965e+01  -2.294112e+01
   1.020561e+00  -3.143911e+01
  -5.202485e+01   3.060886e+01
  -5.231675e+01  -1.910114e+00
  -1.689164e+01  -2.953615e+01
   1.202668e+02  -8.453693e+01
   1.570910e+02  -6.159090e+01
   1.309644e+02   9.879526e+01
   3.411949e+01   1.667504e+02
  -8.038367e+01   1.606430e+02
  -8.277617e+01   4.748940e+01
  -9.663572e+01  -1.950913e+01
  -1.559206e+01  -3.417134e+01
   1.955541e+01  -1.976885e+01
   1.448094e+01   3.724816e+01
  -2.563040e+01  -6.157754e+01
  -2.955607e+01  -1.085043e+02
  -2.539361e+01  -1.084128e+02
   4.476016e+01  -1.693682e+01
   7.704938e+01   8.352777e+01
   1.646615e+01   7.511494e+01
  -1.045469e+02   1.580608e+01
  -7.822534e+01  -6.164672e+01
  -1.098168e+01  -1.241492e+02
   6.272091e+01  -4.240984e+01
   9.943482e+01   1.919126e+01
   4.982044e+01   3.723069e+01
  -3.725136e+01   1.444807e+01
  -9.209292e-01   2.298124e+01
   6.269589e+01  -1.528980e+01
   4.532278e+01   1.959036e+01
   2.030222e+01   1.557090e+01
  -5.707914e+01   8.408439e+01
  -1.087655e+02   6.219936e+01
  -6.801199e+01   3.318196e+00
   1.122697e+01  -6.637058e+01
   4.485091e+01  -3.976422e+01
   2.649391e+01   3.373767e+01
   4.101570e+00   4.853870e+01
  -1.923884e+01   1.826204e+00
   2.936656e+00  -1.902402e+01
  -8.572712e-01  -6.157911e+01
   3.006727e+01  -6.265108e+01
   5.869571e+01   2.341575e+01
   3.367542e+01  -6.916884e+00
   1.869919e+01   4.916448e+00
   2.016842e+01   1.362002e+01
   5.867786e+00   3.507726e+01
  -1.738101e+01   5.027877e+01
  -1.544493e+01   2.498013e+01
  -2.712508e+01   4.123116e+01
   1.345233e+01  -5.387902e+01
   1.976521e+01  -5.765582e+01
   4.490184e+01  -5.525844e+00
   8.646422e+01   3.676361e+01
   2.027844e+01   7.719352e+01
  -1.041326e+02   3.439635e+01
  -9.845366e+01  -4.831135e+01
  -4.216764e+01  -1.272982e+01
   2.420312e+01  -4.794600e+01
   4.603961e+01  -4.976996e-01
   5.161787e+01   1.851863e+01
  -1.810216e+01  -1.960016e+01
  -7.243359e+01  -2.360746e+01
   7.768173e+00   5.478895e+00
   9.094551e+01   1.619325e+01
