
 $NMID
 id='ANONYMOUS ', fmtdat='(2E16.6)'
 volume=1.0
 tramp=1.0
 $END
  -3.150919e+03  -2.188683e+02
  -1.734471e+03  -1.710595e+03
   1.942381e+02  -1.842781e+03
   1.173462e+03  -9.609121e+02
   9.267265e+02   9.076103e+01
  -2.956541e+02   4.075880e+02
  -4.086987e+02  -1.466209e+02
  -1.013533e+02  -6.205930e+02
   4.738065e+02  -5.193913e+02
   6.132578e+02   1.022374e+02
   2.937695e+02   6.326786e+02
  -1.151435e+02   6.305661e+02
  -4.021637e+02   1.608269e+02
  -2.312638e+02  -5.021685e+02
   3.284656e+02  -3.457622e+02
   4.872148e+02  -7.220094e+01
   2.781469e+02   4.093866e+02
  -2.682665e+01   4.164700e+02
  -4.123082e+02   1.111811e+02
  -2.473732e+02  -1.531135e+02
  -3.080098e+01  -1.689444e+02
   1.399516e+02  -1.913426e+02
   4.434418e+01  -1.560922e+02
   3.896240e+01  -1.439290e+02
  -4.413317e+02  -1.926566e+02
  -3.116676e+02  -4.544091e+02
   2.803737e+02  -1.224062e+02
   5.555269e+02   1.820355e+02
   2.830503e+02   4.197211e+02
  -1.835384e+02   3.274541e+02
  -4.491728e+02  -1.445631e+02
  -1.891544e+02  -4.159805e+02
   2.622108e+02  -3.006278e+02
   3.886246e+02  -1.392011e+02
   3.624976e+02   4.926688e+01
   6.079349e+01   2.450091e+02
  -1.132340e+02   2.278769e+02
  -1.667589e+01  -9.113580e+01
   4.591884e+01  -1.611064e+02
   2.128537e+02   1.791033e+01
   2.375912e+02   4.630045e+02
  -2.610077e+02   4.904985e+02
  -3.679415e+02   5.229293e+01
  -9.969252e+01  -2.911966e+02
   1.285096e+02  -6.558432e+01
   1.808369e+02   2.824873e+02
  -1.129025e+02   3.374281e+02
  -3.722746e+02   2.215346e+01
  -3.561517e+02  -3.057923e+02
  -1.093930e+02  -4.059999e+02
   2.201777e+02  -2.177084e+02
   4.055676e+02   5.632713e+01
   2.312602e+02   2.560258e+02
  -4.219588e+01   2.738402e+02
  -2.278434e+02   7.816421e+00
  -1.921261e+02  -7.412615e+01
   2.794848e+01  -2.981900e+01
   2.357174e+01   1.275592e+02
  -1.108207e+02   1.306079e+02
  -2.461012e+02  -1.185809e+02
  -8.526598e+01  -2.057424e+02
   1.113166e+02  -1.519651e+02
   3.146178e+02  -4.742081e+01
   2.076006e+02   1.525306e+02
  -3.449690e+01   2.224793e+02
  -2.500306e+02   2.437090e+02
  -3.221529e+02   2.035214e+02
  -2.312531e+02  -1.369667e+02
  -5.205783e+01  -2.987679e+02
   5.343300e+01  -2.072584e+02
   4.417264e+01  -1.169845e+02
   1.988354e+01  -5.742287e+01
   5.294303e+01  -9.458779e+01
   1.810489e+02  -5.620631e+01
   2.238637e+02   1.162482e+02
   1.029703e+02   1.943241e+02
  -1.211020e+02   1.660534e+02
  -1.748745e+02  -4.706722e+01
  -7.407296e+01  -1.687951e+02
   2.784542e+01  -1.683442e+02
   1.935672e+02  -4.882015e+01
   1.838512e+02   1.201839e+02
   1.202953e+02   2.547352e+02
  -6.937367e+01   2.537283e+02
  -1.438210e+02   5.683526e+01
  -1.461463e+02   9.133490e+00
  -1.323833e+02   2.996886e+01
  -2.065095e+02   4.389700e+01
  -3.180159e+02  -8.309690e+01
  -2.587302e+02  -2.778798e+02
   4.927798e+01  -3.343540e+02
   3.562880e+02  -3.020237e+02
   3.422983e+02  -1.241255e+02
   2.035759e+02   7.763213e+01
   1.137376e+01   2.260377e+02
  -1.050496e+02   1.398388e+02
  -5.794408e+00   1.735110e+01
   5.403300e+01  -3.546149e+01
   9.481245e+01  -2.616060e+00
  -1.188899e+01   1.100122e+02
  -1.103065e+02   1.005904e+02
  -1.255831e+02  -5.420007e+01
   2.182912e+01  -1.130361e+02
   1.380689e+02   1.488456e+01
   1.445755e+02   1.796129e+02
  -5.204583e+01   2.419761e+02
  -1.858174e+02   1.224828e+02
  -2.512680e+02  -6.220878e+01
  -1.837660e+02  -2.047980e+02
  -3.217925e+01  -2.200061e+02
   6.639020e+01  -1.102955e+02
   1.212209e+02  -2.142733e+01
   8.176656e+01  -3.671854e+01
   7.344097e+00  -4.355680e+01
   1.107502e+01  -3.059510e+01
   7.542198e+01  -2.996687e+01
   9.787194e+01   2.622345e+01
   2.551088e+01   6.471427e+01
  -2.769315e+01   1.234872e+01
  -3.944808e+01  -6.795991e+01
   1.201358e+02  -7.137650e+01
   2.230231e+02  -2.720647e+01
   1.916738e+02   1.284619e+02
  -2.233402e+00   1.918097e+02
  -1.104334e+02   1.863423e+02
  -1.481380e+02   8.446171e+01
  -1.180990e+02  -5.152472e+01
   1.472616e+01  -3.555860e+01
   3.012343e+01  -9.147163e+00
  -5.811791e+00   6.317867e+01
  -1.381252e+02   2.699325e+01
  -1.428133e+02  -5.266181e+01
  -2.712297e+01  -1.021207e+02
   7.203029e+01  -1.049575e+02
   1.043582e+02  -4.431916e+01
   3.500272e+01  -1.601315e+01
  -3.335476e+01  -1.331138e+01
  -3.742947e+01  -5.326979e+01
   1.372784e+02  -1.005946e+02
   1.481614e+02  -1.197463e+01
   1.247849e+02   1.129342e+02
   2.319799e+01   1.498650e+02
  -1.299197e+02   1.243908e+02
  -1.129566e+02   3.922379e+00
  -7.092972e+01  -6.921274e+01
   4.455676e+01  -7.031253e+01
   2.560245e+01  -1.193193e+01
   3.111560e+00  -1.838691e+01
  -3.641111e+01   5.425096e+00
   2.825752e+01  -1.319689e+01
   7.031636e+01  -8.488248e+00
   5.383869e+01   8.171425e+01
   1.634089e+00   1.186568e+02
  -1.389002e+02   1.166129e+02
  -1.328882e+02  -1.529120e+01
  -1.808282e+02  -1.530893e+02
  -1.621884e+01  -1.356309e+02
   5.160977e+01  -1.170354e+02
   8.636561e+01  -2.624308e+01
   7.485115e+01   3.027174e+01
   2.289582e+01   1.418148e+01
   7.208362e+01   6.527237e+00
   5.171492e+01   3.827429e+01
   1.292150e+01   3.360712e+01
  -8.440774e+01   9.045538e+01
  -6.347940e+01   3.049305e+01
  -6.455434e+01  -4.343710e+00
   6.237625e+01  -5.918418e+01
   1.130681e+02  -7.864008e+01
   1.420401e+02   6.008393e+01
   8.180633e+01   1.366047e+02
  -1.425496e+02   2.071923e+02
  -2.112041e+02   5.203566e+01
  -2.004895e+02  -2.352592e+01
  -6.106318e+01  -1.561670e+02
   3.077460e+01  -8.435225e+01
   6.818375e+01  -5.555644e+01
   7.252739e+01  -6.469860e+01
   7.043254e+01  -9.708492e+01
   7.506388e+01  -5.386134e+01
   8.292364e+01   2.462727e+01
   9.372115e+01   9.611997e+01
   1.198734e+01   1.796680e+02
  -3.727998e+01   1.095009e+02
  -1.523844e+02  -2.640394e+01
  -6.123944e+01  -9.518490e+01
   1.858695e+01  -1.709652e+02
   4.973519e+01  -6.556516e+01
   7.765117e+01   3.967145e+00
   2.849488e+01   2.895957e+01
  -1.623199e+01   6.028666e+01
   2.562429e+01   4.519166e+01
   3.612493e+01   2.447748e+01
  -1.299379e+01   5.171493e+01
  -7.767383e+01   1.822180e+01
  -1.901358e+02   1.742698e+01
  -1.295856e+02  -5.989234e+01
  -5.862587e+01  -6.840131e+01
   7.820317e+01  -9.004051e+01
   7.396645e+01   9.323216e+00
   5.614184e+01   2.647586e+01
  -5.609484e+01   1.542116e+01
  -4.537041e+01  -3.669267e+01
   1.707303e+00  -7.068402e+01
   2.076535e+00  -4.860119e+01
   2.079660e+01  -3.384985e+01
   1.845554e+01   3.589052e+01
   3.373962e+01   4.355941e+01
   5.665493e+01  -8.430836e+00
   6.954004e+01   3.783932e+01
   4.580173e+01   3.619487e+01
  -5.820088e+01   1.159537e+02
  -1.001206e+02   7.694923e+01
  -1.145297e+02   1.121590e+01
  -9.187351e+01  -9.967703e+01
  -1.397256e+01  -7.837899e+01
   8.311680e+01  -6.285226e+01
   2.867419e+01   5.710240e+01
  -4.206663e+01   1.974626e+00
  -9.840007e+01  -4.797637e+01
  -5.532217e+01  -8.122768e+01
   5.682884e+01  -6.843109e+01
   1.117749e+02  -2.774513e+01
   8.048133e+01   3.959698e+01
  -7.785670e+00   8.255987e+00
  -5.216258e+01   8.754681e+00
  -3.072212e+01  -2.102856e+01
   1.637572e+01  -6.053720e+01
   7.418106e+01  -2.411887e+01
   4.845098e+01   7.564349e+01
  -4.605753e+01   1.257516e+02
  -1.585169e+02   3.963362e+01
  -6.901044e+01  -3.535646e+01
   5.596568e+00  -1.425445e+02
   5.615475e+01  -7.947493e+01
   2.230567e+01   3.869441e+01
   2.152846e+01   8.504419e+01
  -8.426316e-01   5.700863e+01
  -2.009644e+01   3.454493e+01
  -1.258184e+01  -5.211552e+01
  -2.433818e+01  -1.601293e+01
   2.876912e+01   2.883389e+01
   4.137621e+00  -1.187596e+01
  -7.774149e+01  -6.335250e+01
   1.595073e+01  -6.796828e+01
   3.679816e+01  -4.365313e+01
   8.899995e+01   9.754509e+01
   9.327805e+01   7.565282e+01
  -9.274122e+00   1.511933e+01
  -8.091012e+01  -3.997482e+00
  -4.298838e+01   3.379789e+01
  -4.636915e+01   1.151881e+01
  -1.661131e+01   5.895825e+00
   1.288996e+01   8.848004e+00
  -1.182236e-01  -2.655550e+01
  -1.650252e+01  -1.932946e+01
   8.206938e+01   7.105731e+00
   9.022231e+01   1.750658e+01
   2.691779e+01   8.246621e+01
  -6.423703e+01   9.498186e+01
  -1.140772e+02   3.842575e+01
  -1.466498e+02  -2.629514e+01
  -1.553383e+01  -1.316224e+02
   4.282963e+01  -9.369094e+01
   5.826467e+01  -3.692317e+01
   7.107908e+01   9.396197e+00
  -1.289859e+01  -2.421225e+01
   1.621051e+01   1.066961e+01
   3.310778e+01   6.214036e+00
   2.049286e+01   2.535854e+01
   3.037151e+00   9.404765e+01
   2.173531e+01   3.091380e+01
  -9.116025e+01  -1.116036e+01
  -5.706424e+01  -7.275832e+01
   2.267884e+01  -1.144845e+02
   3.444034e+01  -3.171300e+01
   8.027542e+01   7.015072e+01
   1.442693e+01   1.145329e+02
  -6.704831e+01   6.785623e+01
  -7.843410e+01  -3.978412e+01
  -5.433084e+01  -1.531684e+01
   1.461145e+01  -9.092545e+00
   2.794112e+01  -2.187063e+00
   8.873382e+00   1.371796e+01
  -6.347890e+01  -2.737489e+01
  -4.549887e+01  -8.923547e+00
   6.143334e+01  -8.183287e+00
   9.139538e+01  -2.904842e+01
   7.752171e+01   6.033400e+01
  -1.247764e+01   7.274430e+01
  -2.473445e+01   6.673829e+01
  -2.744115e+01   1.241485e+01
  -9.754341e+00  -3.058922e+01
   1.677633e+01  -2.931483e+01
   7.366367e+01   9.468064e+00
   2.756119e+00   2.342205e+01
   1.065750e+01  -5.739271e-01
  -2.966519e+01  -1.879374e+01
   1.574462e+00  -5.138949e+01
   1.042552e+01   2.582538e+00
   5.458239e+01   6.429386e+01
  -2.798034e+01  -6.701632e-01
  -2.318017e+01   5.146854e-01
   4.351589e+00  -5.545954e+01
   3.774159e+01  -4.146177e+01
  -8.213598e+00  -1.555971e+01
  -6.311874e+00   4.068822e+01
  -6.715134e+01   2.968160e+01
  -5.351307e+01   6.626219e+00
   5.523123e+00  -4.001727e+01
   2.002398e+01  -4.109566e+01
   6.648272e+01   1.174831e+01
   7.403610e+01   1.813774e+01
  -1.563821e+00   5.551815e+01
  -6.085677e+01   1.929461e+01
  -3.106673e+01  -4.587623e+01
   1.888248e+01   1.421862e+01
   3.951355e+01   1.060953e+01
   1.672407e+01   3.472800e+01
  -7.326525e+01   6.009906e+00
