
 $NMID
 id='ANONYMOUS ', fmtdat='(2E16.6)'
 volume=1.0
 tramp=1.0
 $END
  -4.374842e+03   2.087388e+02
  -2.786923e+03  -2.950865e+03
   8.086902e+02  -2.982701e+03
   2.156065e+03  -1.243505e+03
   1.035063e+03   7.118997e+02
  -5.921857e+02   5.367413e+02
  -9.021941e+02  -5.086771e+02
  -6.823756e+01  -1.068719e+03
   9.491026e+02  -8.453553e+02
   9.210553e+02   1.083171e+02
   3.199529e+02   9.494547e+02
  -1.784838e+02   9.433076e+02
  -6.783271e+02   1.479748e+02
  -5.435092e+02  -7.229346e+02
   3.671228e+02  -7.707262e+02
   7.798501e+02  -9.194804e+01
   4.541640e+02   7.562861e+02
  -4.366601e+02   5.782204e+02
  -3.454479e+02   1.730015e+02
  -4.256119e+02  -6.205684e+02
   1.055184e+02  -3.489050e+02
   2.842938e+02  -2.183751e+02
   1.663728e+02  -6.411603e+00
  -4.654599e+01   9.606986e+01
  -4.011613e+02  -1.890012e+02
  -2.242091e+02  -3.497793e+02
   4.379206e+02  -4.005177e+02
   8.365299e+02   5.616353e+01
   4.541288e+02   6.631050e+02
  -5.836857e+02   3.782013e+02
  -6.997614e+02  -1.576419e+02
  -3.361783e+02  -5.640062e+02
   2.768170e+02  -5.621306e+02
   6.462312e+02  -1.778662e+02
   4.236895e+02   2.700373e+02
   1.386702e+02   4.338084e+02
  -1.925188e+02   2.276190e+02
  -1.645075e+02  -2.139969e+02
   1.712158e+02  -4.682075e+02
   4.578609e+02   5.923342e+01
   3.170188e+02   7.390012e+02
  -3.608455e+02   7.008524e+02
  -6.401309e+02  -6.518884e+01
  -2.192316e+02  -6.169752e+02
   3.083339e+02  -2.902789e+02
   4.267291e+02   3.380247e+02
  -9.562168e+01   5.919758e+02
  -4.910069e+02   1.171626e+02
  -4.764002e+02  -3.941176e+02
  -1.035476e+02  -5.615085e+02
   3.644172e+02  -3.452309e+02
   5.629628e+02   9.811790e+01
   3.730102e+02   4.605020e+02
  -1.639878e+02   4.276973e+02
  -4.450622e+02   9.451173e+01
  -2.530264e+02  -1.837636e+02
   8.341000e+01  -1.552306e+02
   1.763794e+02   9.862467e+01
  -1.188510e+02   2.234114e+02
  -3.709970e+02  -9.020470e+01
  -1.573274e+02  -2.927630e+02
   2.112465e+02  -1.973464e+02
   3.439785e+02  -9.052512e+01
   1.871841e+02   4.703184e+01
  -2.277236e+01   2.108658e+02
  -2.558912e+02   3.415116e+02
  -3.148940e+02   2.610947e+02
  -2.727366e+02  -1.378785e+02
  -1.097780e+02  -4.464052e+02
   1.160298e+02  -3.983614e+02
   1.076954e+02  -1.073901e+02
   1.693285e+01   2.414803e+01
   3.200828e+01  -6.554125e+01
   1.982590e+02  -1.517782e+02
   3.097634e+02   1.751290e+01
   1.956887e+02   2.596434e+02
  -9.534145e+01   2.077368e+02
  -2.301059e+02  -2.781756e+01
  -1.855161e+02  -2.274638e+02
   6.437514e+01  -2.376971e+02
   3.256246e+02  -9.061694e+01
   3.664774e+02   2.367921e+02
   1.890262e+02   3.753953e+02
  -1.030456e+02   3.120129e+02
  -2.168333e+02   1.350526e+02
  -1.621982e+02   4.550845e+01
  -1.619450e+02   4.949723e+01
  -2.679078e+02   8.309034e+01
  -4.803316e+02  -8.254579e+01
  -3.263390e+02  -3.123263e+02
   5.039782e+01  -5.047667e+02
   3.942155e+02  -4.342395e+02
   5.271750e+02  -2.400535e+02
   2.849301e+02   1.006709e+02
   4.934929e+01   3.303893e+02
  -1.146617e+02   2.739654e+02
  -7.820765e+00   3.781127e+01
   8.619359e+01  -1.481112e+02
   2.300840e+02   5.848353e+00
   4.741717e+00   2.042242e+02
  -1.672971e+02   1.743571e+02
  -1.291514e+02  -8.171571e+01
   5.336092e+01  -1.274284e+02
   1.651397e+02  -3.004733e+01
   1.446311e+02   2.414567e+02
   9.457417e+00   3.649889e+02
  -2.183850e+02   2.114242e+02
  -3.007198e+02  -5.599974e+01
  -2.811048e+02  -2.369027e+02
  -1.435819e+02  -2.494180e+02
   1.257424e+02  -1.300286e+02
   1.939176e+02  -8.690405e+00
   6.608303e+01   2.978376e+01
  -1.206122e+02  -6.590751e+01
  -2.488249e+01  -1.247887e+02
   1.057018e+02  -9.015044e+01
   1.792645e+02   2.208281e+01
   7.176061e+01   8.434852e+01
  -8.346290e+01   4.703206e+01
  -7.019064e+01  -1.023361e+02
   9.489618e+01  -1.514616e+02
   2.940916e+02   4.268258e+01
   2.375209e+02   1.949396e+02
   3.320199e+01   2.783479e+02
  -1.864825e+02   2.259602e+02
  -2.325409e+02   1.162650e+02
  -1.947009e+02  -8.208954e+01
   1.079560e+01  -1.135402e+02
   1.205444e+02  -2.471680e+01
  -4.925087e+01   9.253283e+01
  -2.129216e+02   4.665277e+01
  -1.742087e+02  -9.922838e+01
  -7.220994e+01  -1.892563e+02
   9.036492e+01  -1.348445e+02
   1.374128e+02  -6.172951e+01
   5.480384e+01   6.217213e+01
  -6.449502e+01  -5.880161e+00
  -3.436394e+01  -1.056832e+02
   8.756440e+01  -9.673550e+01
   2.198471e+02   3.210631e+00
   1.396230e+02   8.371108e+01
   1.323056e+01   2.166415e+02
  -1.488581e+02   2.038991e+02
  -1.864704e+02   4.225105e+01
  -2.648907e+01  -9.887574e+01
   2.152354e+01  -1.434068e+02
   1.260655e+01  -3.984127e+01
  -1.415338e+01  -2.240226e+01
   1.075155e+01   6.697660e+00
   3.567037e+01  -2.016867e+01
   9.145731e+01   3.192757e+01
   9.000423e+01   1.257464e+02
  -1.570613e+01   1.740006e+02
  -1.725429e+02   1.336520e+02
  -2.386561e+02  -6.300645e-01
  -2.230325e+02  -1.327414e+02
  -4.565924e+01  -2.151785e+02
   1.038490e+02  -1.883763e+02
   1.470377e+02  -9.751171e+01
   7.704121e+01   1.565097e+01
   2.227368e+00  -3.836661e-01
   3.756769e+01  -2.904458e+00
   9.116355e+01  -9.042055e+00
   6.848063e+01   9.458472e+01
  -3.181947e+01   7.224985e+01
  -1.117914e+02   1.986685e+01
  -1.030841e+02  -5.991163e+01
   2.717957e+01  -1.286518e+02
   1.696051e+02  -1.280250e+02
   2.138967e+02   6.674730e+01
   1.303088e+02   2.069365e+02
  -4.902928e+01   2.295781e+02
  -2.018201e+02   1.323980e+02
  -2.381653e+02  -4.746219e+01
  -1.337697e+02  -1.720202e+02
   1.914272e+00  -1.806692e+02
   3.052209e+01  -6.696159e+01
   8.127004e+01  -7.222445e+01
   6.961306e+01  -7.726178e+01
   8.514256e+01  -2.695248e+01
   1.108404e+02   1.644659e+01
   1.571402e+02   1.291916e+02
   2.620262e+01   1.980667e+02
  -1.111644e+02   1.706184e+02
  -2.110585e+02  -3.927900e+01
  -1.581775e+02  -1.684970e+02
  -1.394404e+01  -1.240950e+02
   5.649304e+01  -8.921752e+01
   9.627966e+01  -4.038085e+00
   8.288393e+01   7.999313e+00
   1.968575e+01   1.634261e+01
   2.021910e+01   3.174351e+01
   6.274987e+01   7.515286e+01
  -9.802376e-01   2.670241e+01
  -1.167143e+02   2.500192e+01
  -1.629282e+02  -2.553296e+01
  -1.222589e+02  -3.549807e+01
   4.944718e+00  -8.264791e+01
   1.154602e+02  -4.987119e+01
   1.499621e+02   3.358926e-01
   2.539626e+01   6.026122e+01
  -8.587178e+01   4.999532e+01
  -8.606063e+01  -3.257773e+01
  -5.615212e+00  -1.085560e+02
   5.482076e+01  -6.711622e+01
   4.765039e+01  -1.901036e+01
   1.648061e+01   1.679749e+01
   3.173979e+01   2.444717e+01
   9.157680e+01  -2.427300e+01
   7.064091e+01  -6.165075e+00
   5.508338e+01   1.294008e+02
  -3.493313e+01   1.617895e+02
  -1.146020e+02   7.812570e+01
  -1.884343e+02   2.289778e+00
  -1.181705e+02  -1.149101e+02
  -2.913441e+01  -1.072473e+02
   9.746355e+01   1.386384e+01
   9.274281e+01   4.799912e+01
  -3.972134e+01   3.227581e+01
  -1.593977e+02  -4.703496e+01
  -1.260387e+02  -1.054007e+02
   5.358087e+01  -8.062264e+01
   1.976489e+02  -5.437958e+01
   1.761425e+02   3.356973e+01
   2.236107e+01   1.156535e+02
  -6.525666e+01   5.828421e+01
  -6.441796e+01  -1.513847e+01
   8.060022e+01  -2.255691e+01
   1.174215e+02  -1.689368e+00
   2.099741e+01   1.385442e+02
  -1.062090e+02   1.645178e+02
  -1.799047e+02   7.336829e+01
  -9.967476e+01  -1.162626e+02
   1.883701e+01  -1.746027e+02
   8.428077e+01  -1.354274e+02
   1.117962e+02  -1.669192e+01
   9.339478e+01   1.445038e+02
  -3.517224e+01   1.058495e+02
  -2.645326e+01   1.762672e+01
  -4.044615e+01  -1.430334e+01
  -4.220790e+01  -6.967806e+00
  -3.137330e+00  -1.045311e+00
  -9.559912e+00  -2.977864e+01
  -1.589739e+01  -8.507641e+01
  -2.320248e+01  -1.385108e+02
   7.510791e+01  -5.795405e+01
   1.768807e+02   4.672587e+01
   9.090677e+01   1.203088e+02
  -4.558158e+00   8.672760e+01
  -9.630564e+01   5.112094e+01
  -8.855263e+01   1.221257e+01
  -7.715536e+00  -4.338914e+00
   5.450044e+01  -3.965005e+01
   2.610350e+01  -7.622607e+01
  -5.588505e+00  -1.834096e+01
   5.354939e+01   2.078886e+01
   9.320425e+01   3.718265e+01
   8.408017e+01   6.403184e+01
  -2.682211e+01   1.548565e+02
  -1.426302e+02   1.208941e+02
  -1.557830e+02   2.911331e+01
  -1.422175e+02  -7.027584e+01
  -4.702443e+01  -1.830772e+02
   8.887004e+00  -1.117390e+02
   9.267783e+01  -4.295631e+01
   9.996323e+01  -1.791355e+01
   6.838339e+01   3.699063e+00
  -2.813853e+01  -2.112538e+01
   3.778749e+01  -3.605468e+01
   7.296896e+01   6.579140e+01
   1.050896e+01   1.193856e+02
  -5.760721e+01   3.808746e+01
  -7.317302e+01  -3.921044e+01
  -6.056931e+01  -9.074906e+01
   2.399372e+01  -8.619264e+01
   1.504956e+02  -3.806521e+00
   1.195421e+02   1.026803e+02
  -8.593300e+00   1.446822e+02
  -1.058044e+02   5.556811e+01
  -1.185835e+02  -2.430294e+01
  -4.091478e+01  -3.616446e+01
   3.202102e+01  -5.966132e+01
   6.785232e+01  -4.956643e+01
   3.234570e-01   1.380360e+00
  -6.148446e+01   7.703752e+00
  -3.713949e+01  -3.864268e+01
   5.281144e+01  -8.338727e+01
   1.000217e+02  -8.234055e+01
   7.822966e+01   1.287319e+01
  -1.080367e+01   5.316577e+01
  -4.811861e+01   8.216310e+01
  -5.120952e+01   4.244728e+01
   3.041233e+01  -4.743281e+01
   4.457815e+01  -4.463872e+00
   1.530660e+01   3.347300e+01
   2.349621e+00   3.636901e+01
  -5.359422e+01   1.586841e+01
  -2.664794e+01   3.768690e+01
  -6.200187e+01  -1.934774e+01
  -2.238443e+01  -4.704512e+01
  -4.193752e+01   2.066337e+01
  -3.361123e+01  -2.945021e+01
   9.497419e+00  -4.227624e+01
   4.488704e+01  -5.506696e+01
   8.720155e+01  -1.421278e+01
   5.273189e+01   2.033535e+01
   4.877806e+00   4.397934e+01
  -3.414825e+01   2.881512e+01
  -2.487135e+01  -3.311371e+01
  -2.386697e+01  -9.980784e+01
   2.616703e+01  -2.275217e+01
   4.889374e+01   2.036806e+01
   6.209265e+01   4.711457e+01
  -1.034752e+01   5.285252e+01
  -5.740591e+01  -9.906525e+00
  -2.884742e+01  -1.529873e+01
   4.238098e+01   3.243539e+01
   1.784896e+01   6.385461e+00
  -1.244818e+01   1.328814e+01
  -8.391293e+01   2.477578e+00
