
 $NMID
 id='ANONYMOUS ', fmtdat='(2E16.6)'
 volume=1.0
 tramp=1.0
 $END
   4.830179e+03   1.699090e+01
   2.814648e+03   2.649879e+03
  -8.989168e+02   3.009128e+03
  -2.340562e+03   1.143264e+03
  -9.234666e+02  -5.933604e+02
   7.594806e+02  -5.753950e+02
   9.950018e+02   4.896446e+02
   1.184689e+02   1.183890e+03
  -8.304652e+02   7.570041e+02
  -8.572998e+02   1.212615e+02
  -5.734036e+02  -8.931151e+02
   2.445306e+02  -8.919623e+02
   5.142738e+02  -8.473054e+01
   5.244072e+02   7.669244e+02
  -1.537986e+02   9.598961e+02
  -4.163244e+02   7.088411e+01
  -4.132760e+02  -7.289186e+02
   3.529130e+02  -5.143716e+02
   7.079020e+02   4.383340e+01
   4.806330e+02   4.131397e+02
   6.675676e+01   4.821713e+02
  -3.657257e+02   2.710875e+02
  -2.521823e+02   1.619856e+01
   1.889638e+02  -1.633090e+02
   5.422585e+02   1.958590e+02
   3.098408e+02   3.703208e+02
  -5.076384e+02   5.001964e+02
  -9.185423e+02   9.181686e+01
  -4.058748e+02  -5.235361e+02
   4.346469e+02  -5.418068e+02
   8.142518e+02   2.014182e+02
   4.073111e+02   5.128728e+02
  -1.991574e+02   6.069379e+02
  -4.880449e+02   1.124091e+02
  -5.133024e+02  -1.841691e+02
  -1.829276e+02  -4.931608e+02
   1.043389e+02  -3.176592e+02
   1.794507e+02   2.582955e+02
  -1.631025e+02   4.586775e+02
  -4.738623e+02  -8.939483e+01
  -2.879719e+02  -8.326067e+02
   4.074529e+02  -8.359686e+02
   7.397173e+02  -1.897766e+01
   3.308634e+02   5.899730e+02
  -3.872113e+02   3.900993e+02
  -4.811360e+02  -3.919420e+02
   9.105432e+01  -6.203259e+02
   6.415604e+02  -9.429878e+01
   6.206719e+02   4.406901e+02
   1.749900e+02   6.186211e+02
  -3.839234e+02   3.623772e+02
  -6.612342e+02  -8.135791e+01
  -4.574357e+02  -4.668027e+02
   8.069437e+01  -4.025737e+02
   5.145164e+02  -5.544360e+01
   2.714534e+02   2.435854e+02
  -1.173447e+02   1.396206e+02
  -1.704936e+02  -1.869525e+02
   2.215614e+02  -2.605598e+02
   3.946571e+02   2.905696e+01
   1.585967e+02   3.295482e+02
  -2.637090e+02   2.988825e+02
  -3.666283e+02   5.700394e+01
  -1.513529e+02  -8.812299e+01
   8.619562e+01  -2.419446e+02
   2.419617e+02  -2.950915e+02
   3.671900e+02  -2.103555e+02
   3.138503e+02   1.653283e+02
   3.695060e+01   4.179869e+02
  -1.713678e+02   3.651352e+02
  -1.339306e+02   1.248955e+02
  -1.550864e+01   7.832250e+01
  -3.227701e+01   1.273839e+02
  -1.542534e+02   1.250345e+02
  -3.150133e+02  -6.712406e+01
  -1.905700e+02  -3.201729e+02
   9.717591e+00  -2.974787e+02
   1.901239e+02  -3.410135e+01
   2.397321e+02   1.828354e+02
   8.284748e+01   3.067542e+02
  -2.240647e+02   1.581780e+02
  -3.837502e+02  -1.415195e+02
  -1.550873e+02  -4.094360e+02
   1.403424e+02  -3.898376e+02
   2.569908e+02  -1.014787e+02
   1.259477e+02   2.850264e+01
   6.598809e+01   1.327799e+01
   2.053590e+02  -8.906356e+01
   4.844980e+02   1.805630e+01
   3.708601e+02   3.252343e+02
   4.665041e+01   5.504596e+02
  -3.719271e+02   4.750031e+02
  -5.150322e+02   2.073550e+02
  -3.754461e+02  -7.449899e+01
  -1.802655e+01  -3.259713e+02
   1.603797e+02  -2.278791e+02
   8.337447e+01  -1.732046e+01
  -1.565836e+02   1.074994e+02
  -1.810662e+02  -4.696663e+01
  -9.616724e+01  -2.059984e+02
   1.480093e+02  -2.557079e+02
   1.965307e+02   5.901167e+01
  -1.214290e+01   2.265982e+02
  -1.576771e+02   4.808407e+01
  -1.753232e+02  -2.512734e+02
  -3.314957e+01  -3.686605e+02
   1.584726e+02  -2.356408e+02
   3.203104e+02   5.216588e+01
   2.868149e+02   2.519055e+02
   1.407104e+02   2.763409e+02
  -9.941834e+01   1.283890e+02
  -1.668806e+02   1.877188e+01
  -5.378713e+01  -7.395294e+01
   8.814035e+01   2.225203e+01
   6.366791e+01   1.855175e+02
  -1.213180e+02   1.098530e+02
  -2.312126e+02  -1.412504e+01
  -8.451544e+01  -1.326596e+02
   1.140376e+02  -1.703622e+01
   1.053433e+02   5.716748e+01
  -9.940412e+01   1.342235e+02
  -2.931409e+02   5.952450e+01
  -2.938020e+02  -1.241092e+02
  -8.295502e+01  -2.818548e+02
   1.711775e+02  -3.055279e+02
   2.431776e+02  -1.804155e+02
   1.844087e+02   1.871234e+01
   1.935519e+00   1.121360e+02
  -7.472780e+01   2.102528e+01
   9.851474e-01  -8.953201e+01
   2.290193e+02  -8.092140e+01
   2.198451e+02   9.741904e+01
   8.315325e+01   1.551455e+02
  -6.999718e+01   1.693271e+02
  -1.475043e+02   1.314587e+00
  -1.089880e+02  -1.058795e+02
   3.532534e+01  -3.892071e+01
   6.534203e+01   4.124686e+01
  -5.523368e+01   1.002158e+02
  -1.511616e+02   2.762505e+01
  -1.762790e+02  -1.282215e+02
  -9.407882e+00  -1.961081e+02
   1.957204e+02  -1.764944e+02
   2.701198e+02   2.110548e+01
   7.327792e+01   1.206408e+02
  -7.840729e+01   1.286947e+02
  -5.105631e+01   6.068240e+01
  -7.227772e+01  -2.739031e+01
   5.810037e+00  -3.404052e+01
  -3.319098e+01  -1.370979e+01
  -4.444241e+01  -1.163522e+00
  -8.962666e+01  -2.582414e+01
  -5.137330e+01  -1.876013e+02
   4.834283e+01  -1.817732e+02
   1.830977e+02  -6.110152e+01
   2.197891e+02   9.182788e+01
   4.476465e+01   2.159598e+02
  -1.534249e+02   1.737546e+02
  -1.528847e+02  -3.685188e+00
  -4.727420e+01  -9.232302e+01
  -3.227305e+01  -4.505577e+01
  -1.475784e+01  -1.914475e+01
  -3.281904e+01  -1.010040e+01
   1.903786e+01  -4.718046e+01
   2.752360e+01  -1.016197e+02
   9.457714e+01  -4.035910e+01
   1.041732e+02   8.337586e+01
  -4.786803e+01   1.020251e+02
  -1.262191e+02   9.614666e+01
  -2.068630e+02  -4.003920e+01
  -8.937841e+01  -1.848692e+02
   9.105155e+01  -2.419687e+02
   2.765499e+02  -1.165810e+02
   2.788772e+02   4.692944e+01
   9.205373e+01   2.223186e+02
   1.598068e+01   1.843323e+02
  -1.019275e+02   1.243980e+02
  -1.316491e+02   5.119390e+01
  -1.427951e+02   7.620246e+01
  -1.826063e+02   6.188331e+01
  -1.226928e+02  -4.279971e+01
  -1.098254e+02  -1.531712e+02
  -3.893374e+01  -2.067700e+02
   1.242147e+02  -1.846536e+02
   1.872956e+02  -2.565099e+01
   2.083161e+02   1.533275e+02
   1.057841e+02   1.492595e+02
  -6.233842e+01   1.173645e+02
  -6.312165e+01   4.729239e+01
  -3.805031e+01  -2.046770e+01
  -6.253028e+01  -7.922902e+00
  -6.381624e+01  -4.141220e+01
  -1.066064e+02  -3.041499e+01
  -3.918513e+01  -6.676005e+01
   5.018208e+01  -1.200181e+01
   1.285175e+02  -5.516299e+01
   1.057461e+02   5.930989e+01
   1.196989e+00   1.053623e+02
  -1.529838e+02   1.186059e+02
  -1.190600e+02   6.536575e+01
  -1.816114e+01  -6.148018e+01
   4.023661e+01  -5.286458e+01
   9.013324e+01  -3.833331e+00
  -7.319910e+00   9.439729e+01
  -4.551406e+01   5.360247e+01
  -8.525581e+01  -5.288408e+01
  -8.990888e+00  -6.313001e+01
  -1.274886e+00  -6.002684e+01
  -1.962820e+01  -7.555741e+00
  -5.116339e+01   1.681478e+01
  -5.158199e+01  -8.485234e+01
   4.053715e+00  -1.403925e+02
   1.176707e+02  -1.542302e+02
   1.569412e+02  -5.684827e+01
   1.890817e+02   9.715384e+01
   8.052084e+01   1.262688e+02
  -7.464847e+01   7.070760e+01
  -9.645368e+01   5.840504e+00
   8.966615e+01  -9.538864e+01
   1.858137e+02   2.632311e+01
   1.082107e+02   1.081091e+02
  -4.081473e+01   1.253042e+02
  -1.508165e+02   1.195980e+02
  -1.566193e+02  -8.871289e+00
  -3.992334e+01  -7.687606e+01
   5.284623e+01  -1.072268e+02
   6.259695e+01  -3.532963e+01
  -3.538226e+01   4.471217e+01
  -7.852415e+01   5.244651e+00
   7.484699e+00  -1.340927e+02
   8.169391e+01  -1.633247e+02
   2.019645e+02  -3.371717e+01
   1.203541e+02   1.450324e+02
   7.308753e+00   2.418308e+02
  -9.208229e+01   1.444020e+02
  -1.638158e+02   3.795386e+00
  -1.232982e+02  -1.450056e+02
  -5.250303e+01  -1.194208e+02
   4.595858e+01  -2.911733e+01
   6.747124e+01   5.702181e+00
  -1.805449e+00   2.121980e+01
  -1.350448e+01  -3.816861e+01
   2.445360e+01  -2.212807e+01
   1.054088e+02   4.078653e+01
   9.561220e+01   1.047157e+02
  -5.812019e+01   5.724026e+01
  -9.277385e+01  -6.272467e+00
  -1.223928e+02  -8.230798e+01
  -4.552135e+01  -5.669072e+01
   6.689617e+01  -5.711732e+01
   1.055430e+02  -2.577878e+01
   1.349623e+01   3.038524e+00
  -4.266651e+01   2.438488e+01
  -3.134105e+01   5.106052e+01
  -8.594219e+00  -2.232858e+01
   1.868493e+01   7.647010e+00
  -6.563153e+01  -4.885010e+00
  -8.792334e+01   5.997101e+00
  -3.433990e+01  -1.390789e+02
   1.029901e+02  -1.072969e+02
   1.952585e+02  -3.614035e+01
   1.487362e+02   8.742973e+01
   2.104915e+01   2.074146e+02
  -5.916224e+01   1.508734e+02
  -1.347139e+02   1.122228e+02
  -8.987869e+01   2.152595e+01
  -2.117869e+01  -4.725209e+01
  -2.224196e+01  -5.935915e+01
  -4.432135e+01  -1.443841e+01
   2.231973e+01  -4.554935e+01
  -7.949322e+00  -8.383440e+01
   6.257651e+01  -1.263695e+02
   9.781862e+01   2.699865e+01
   1.095879e+02   1.305830e+02
   3.590577e+01   1.181551e+02
  -9.021317e+01   2.858856e+01
  -1.056121e+02  -6.468289e+01
  -1.153266e+01  -1.265315e+02
   2.221131e+01  -4.515468e+01
   9.726217e+01  -1.664495e+01
   6.906985e+01   7.740629e+01
  -4.271481e+01   1.576172e+01
  -3.090114e+01   3.582732e+01
   2.201727e+01  -2.737959e+01
   8.008856e+01   2.531011e+01
   5.034942e+01   1.781501e+01
  -1.516527e+02   1.031587e+02
  -1.006360e+02   6.915235e+01
  -3.719553e+01  -9.431441e+00
   4.980474e+01  -1.312079e+02
   6.930922e+01  -4.014144e+01
   2.182181e+01  -3.252394e+01
   3.484632e+01   5.779865e+01
  -2.992177e+01   8.688254e+01
  -2.161283e+01   4.991046e+00
  -4.779595e+01  -5.342978e+01
  -2.449969e+00  -7.419735e+01
  -1.806122e+01   5.772532e+01
  -3.802050e+00   3.692962e+01
  -3.097712e+01  -3.505137e+01
  -5.257209e-01  -7.821904e+01
   1.716489e+01   4.685010e+01
  -8.202671e-01   3.950639e+01
  -5.820763e+01   8.673162e+01
  -6.414971e+01   1.882080e+01
   2.976652e+00  -5.980308e+01
   2.103121e+01  -5.373915e+01
   7.201383e+00  -3.980749e+01
   7.683026e+01   7.471423e+01
   1.393803e+01   8.854859e+01
  -5.054564e+01   1.872126e+00
  -1.035816e+02   9.535760e+00
  -6.497094e+00  -4.898616e+01
   8.633870e+01   1.225992e+01
   4.009051e+01  -3.959770e+01
   4.747464e+01   4.331548e+00
  -6.431027e+01   2.166048e+00
  -2.169735e+01  -2.819589e+01
   4.800213e+01  -2.766528e+01
   1.364524e+02  -4.983966e+01
