
 $NMID
 id='ANONYMOUS ', fmtdat='(2E16.6)'
 volume=1.0
 tramp=1.0
 $END
   4.401845e+03  -9.474566e+01
   2.777811e+03   2.749243e+03
  -7.189939e+02   2.847730e+03
  -2.131133e+03   1.001914e+03
  -1.207962e+03  -5.515407e+02
   5.330662e+02  -6.116309e+02
   9.832021e+02   4.725194e+02
   5.316013e+01   1.178986e+03
  -9.291445e+02   7.323277e+02
  -9.818409e+02   5.569066e+00
  -4.646287e+02  -9.112866e+02
   1.927104e+02  -7.794598e+02
   5.528416e+02  -5.762765e+01
   5.327672e+02   6.470245e+02
  -1.931125e+02   6.492552e+02
  -6.485940e+02  -1.979047e+00
  -1.851722e+02  -7.733849e+02
   4.053005e+02  -4.931670e+02
   7.382714e+02  -1.761608e+02
   4.707391e+02   3.232830e+02
   2.322848e+01   3.550862e+02
   3.915422e+00   3.595790e+02
  -1.885342e+02   2.332550e+01
   2.157124e+02   2.554123e+01
   3.469758e+02   1.296255e+02
   3.156046e+02   4.555878e+02
  -6.127456e+02   4.577002e+02
  -8.987530e+02  -1.061472e+02
  -4.537497e+02  -6.375191e+02
   5.242042e+02  -6.431034e+02
   8.074653e+02  -5.285283e+01
   3.352495e+02   5.040458e+02
  -3.139068e+02   5.519294e+02
  -5.987114e+02   2.747278e+02
  -3.456617e+02  -2.078200e+02
  -7.381774e+01  -4.475673e+02
   1.642890e+02  -2.582399e+02
   9.044557e+01   1.970652e+02
  -1.226015e+02   4.370026e+02
  -5.373158e+02  -7.799086e+01
  -2.226739e+02  -8.286148e+02
   3.776410e+02  -7.413053e+02
   7.321219e+02   2.903702e+01
   1.992025e+02   6.379131e+02
  -3.771820e+02   3.340436e+02
  -4.129491e+02  -3.697449e+02
   9.156338e+01  -6.364546e+02
   6.265472e+02  -1.776374e+02
   6.336505e+02   4.234285e+02
   1.775700e+02   6.397822e+02
  -3.902819e+02   3.851483e+02
  -6.443331e+02  -3.588207e+01
  -4.034058e+02  -3.613423e+02
   1.800776e+02  -3.620160e+02
   4.288824e+02  -6.290020e+01
   2.384397e+02   1.999220e+02
  -1.175037e+02   1.261448e+02
  -1.424245e+02  -1.656829e+02
   1.791750e+02  -2.085567e+02
   3.372222e+02   7.487490e+01
   1.686709e+02   2.931384e+02
  -1.922636e+02   2.613381e+02
  -2.831176e+02   8.290758e+01
  -1.805339e+02  -3.406493e+01
   3.310334e+01  -1.694164e+02
   2.160034e+02  -2.837951e+02
   2.792214e+02  -2.604325e+02
   3.047755e+02   9.171244e+01
   9.427256e+01   4.436625e+02
  -7.620044e+01   4.454463e+02
  -1.131417e+02   2.010457e+02
  -9.915962e+00   1.353754e+01
  -9.466205e+01   7.787277e+01
  -2.273825e+02   1.002311e+02
  -3.115135e+02  -5.733804e+01
  -1.515965e+02  -2.374485e+02
   9.435325e+01  -2.400837e+02
   2.444894e+02  -2.294567e+01
   2.163523e+02   2.607554e+02
  -1.377823e+01   3.197424e+02
  -2.581771e+02   7.207343e+01
  -3.273609e+02  -1.607950e+02
  -1.831366e+02  -3.538180e+02
   8.647020e+01  -3.289642e+02
   2.321641e+02  -1.484530e+02
   2.116240e+02   4.004971e+01
   9.882513e+01  -2.046284e+01
   2.438128e+02  -9.839178e+01
   3.885538e+02   7.560479e+00
   3.404382e+02   3.031580e+02
  -2.266485e-01   4.816476e+02
  -4.138449e+02   4.722410e+02
  -5.342418e+02   2.114357e+02
  -3.221776e+02  -1.320814e+02
  -5.383820e+01  -3.567972e+02
   1.006379e+02  -2.591257e+02
   6.924226e+01  -2.514700e+01
  -6.372143e+01   8.867673e+01
  -1.894325e+02  -1.368298e+01
  -5.486369e+01  -1.984298e+02
   1.599375e+02  -2.067163e+02
   1.690854e+02   6.823393e+01
  -2.617215e+01   2.040572e+02
  -1.501246e+02   4.566511e+01
  -1.846283e+02  -2.212274e+02
  -2.044895e+01  -3.548112e+02
   1.677853e+02  -2.406006e+02
   3.646997e+02   2.610952e+01
   3.155910e+02   2.201348e+02
   1.182413e+02   2.633221e+02
  -1.541152e+02   1.415308e+02
  -2.054778e+02  -1.987548e+01
  -6.420239e+01  -1.065952e+00
   9.037187e+01   1.970149e+01
   1.984827e+01   1.310688e+02
  -1.571510e+02   9.914896e+01
  -1.762963e+02  -6.820496e+00
  -3.702145e+01  -6.606982e+01
   3.320939e+01  -2.800850e+01
   3.372267e+01   6.771717e+01
  -1.315685e+02   4.751925e+01
  -2.492316e+02   6.118120e+00
  -2.712371e+02  -1.109610e+02
  -2.096014e+01  -2.441621e+02
   1.651439e+02  -3.011997e+02
   2.533784e+02  -1.779654e+02
   1.927838e+02   3.326545e+01
   7.247141e-02   1.047506e+02
  -1.011559e+02   1.146876e+01
   1.980325e+01  -8.666455e+01
   2.028307e+02  -3.814453e+01
   2.366556e+02   1.104310e+02
   4.198790e+01   2.581633e+02
  -1.042001e+02   1.779887e+02
  -1.269587e+02  -1.161576e+01
  -9.506306e+01  -4.400449e+01
  -2.521619e+01   1.080179e+01
   3.096846e+01   9.617169e+01
  -1.095371e+02   1.437643e+02
  -2.044594e+02   1.282687e+01
  -2.003502e+02  -1.539462e+02
  -3.511520e+01  -2.454036e+02
   1.360619e+02  -1.775225e+02
   1.812867e+02   2.309408e+01
   1.033166e+02   1.020102e+02
  -7.391997e+01   6.504512e+01
  -3.438272e+01   3.260544e+00
   8.243082e+01  -4.381021e+01
   6.153854e+01  -2.067316e+01
   2.590711e+00  -2.017375e+01
  -8.768678e+01   1.627088e+01
  -1.173568e+02  -8.418611e+01
   3.249291e+01  -1.500571e+02
   1.624006e+02  -1.934080e+02
   2.633911e+02   2.636562e+01
   1.797633e+02   1.797685e+02
   7.295889e-01   2.681730e+02
  -1.190152e+02   1.594100e+02
  -1.452959e+02   3.552626e+00
  -9.522743e+01  -7.251559e+01
  -2.986968e+01  -2.143693e+01
  -1.552472e+01   4.567643e+01
  -6.754822e+01   6.335220e+00
  -1.311111e+01  -1.362511e+01
  -3.305974e+00  -1.082918e+02
   6.790512e+01  -4.670000e+01
   6.368163e+01   6.177373e+01
  -4.477222e+01   6.761538e+01
  -1.485204e+02   1.159283e+02
  -2.167267e+02  -1.068126e+02
  -9.364073e+01  -2.095752e+02
   1.433095e+02  -2.648300e+02
   2.743903e+02  -1.273487e+02
   2.775204e+02   1.031160e+02
   7.372003e+01   1.599558e+02
  -4.977463e+01   1.582241e+02
  -9.942949e+01   1.188435e+02
  -6.920248e+01   6.521011e+01
  -5.881307e+01   1.047494e+02
  -1.094212e+02   1.037706e+02
  -1.546718e+02   1.493831e+01
  -1.703326e+02  -1.780392e+02
  -4.835172e+01  -2.447074e+02
   1.547774e+02  -1.756931e+02
   2.003384e+02   5.254107e+00
   1.658465e+02   1.833024e+02
   1.753404e+01   1.674747e+02
  -1.012961e+02   1.022875e+02
  -7.019380e+01  -5.849887e+01
   7.265532e+00  -5.055365e+01
  -1.032434e+00  -2.907114e+01
   1.926441e+01  -2.072338e+01
  -5.440103e+01   4.174197e+01
  -4.268740e+01  -7.946950e+01
   4.815720e+01  -4.259858e+01
   1.749916e+02   1.672754e+00
   1.434292e+02   3.848290e+01
   4.807137e+00   8.339371e+01
  -1.118241e+02   1.106521e+02
  -1.453031e+02   7.055198e+01
  -1.814977e+01  -6.043082e+01
   7.887889e+01  -1.982786e+01
   4.333980e+01   5.084727e+01
   1.707224e+00   4.482060e+01
  -8.345704e+01   7.954100e+01
  -3.378596e+01  -2.328431e+01
  -4.003841e+01  -8.062611e+01
  -3.934467e+01  -4.058976e+01
  -4.933388e+01   7.152650e+01
  -7.551864e+01   3.019900e+01
  -7.281397e+01  -3.132595e+01
   2.068272e+00  -1.856763e+02
   9.158095e+01  -1.714912e+02
   1.358899e+02  -4.758642e+01
   1.100878e+02   9.074980e+01
   1.033717e+01   1.372563e+02
  -1.232056e+02   3.143018e+01
  -7.486154e+01  -4.086448e+01
   2.572985e+01  -7.430261e+00
   1.878684e+02   4.676246e+01
   7.179614e+01   1.080196e+02
  -8.412640e+01   1.025442e+02
  -2.090612e+02   5.970993e+01
  -1.880280e+02  -3.419305e+01
  -2.767124e+01  -1.058554e+02
   6.674330e+01  -7.314251e+01
  -3.991193e+01  -3.629469e+01
  -4.479285e+01   8.691394e+00
  -9.829848e+01  -4.379037e+01
  -3.144450e+01  -1.202587e+02
   1.245150e+02  -1.667286e+02
   1.816148e+02  -8.171964e+01
   1.171809e+02   1.118895e+02
   5.061307e+01   2.426842e+02
  -6.518982e+01   1.422796e+02
  -1.105957e+02  -2.647053e+01
  -8.339032e+01  -1.121377e+02
  -2.370510e+00  -1.291268e+02
   4.383971e+01   1.596264e+01
   1.709761e+01   6.928827e+01
   1.845550e+01   8.806414e+00
  -2.268076e+01  -4.556277e+01
   2.314330e+01  -3.570448e+01
   2.883625e+01   8.252872e+01
   8.445952e+01   7.641067e+01
  -2.108654e+01   3.813240e+01
  -1.269934e+02  -5.297128e+01
  -1.015139e+02  -4.795146e+01
   3.709501e+00  -7.267644e+01
   7.636303e+01   7.258445e+00
   7.746273e+01  -1.715838e+01
  -2.284036e+01   2.167681e+01
  -4.532496e+01   1.850909e+01
  -2.670784e+01  -1.464968e+01
   3.636935e+01   2.225723e+01
  -8.517495e+00  -3.575666e+01
  -6.064629e+01  -6.348806e+00
  -1.135312e+02   4.011610e+00
   5.695740e+00  -6.763706e+01
   9.241590e+01  -1.162692e+02
   1.892061e+02  -5.695533e+01
   1.044803e+02   4.866119e+01
   2.361808e+01   1.798808e+02
  -5.853414e+01   1.913455e+02
  -1.014819e+02   6.933784e+01
  -9.314552e+01  -2.122893e+01
  -2.092456e+01  -4.187861e+01
   3.892917e+00  -1.094024e+01
  -9.029164e+00   4.112922e+00
  -1.253810e+01  -5.027709e+01
  -4.255322e+01  -9.823133e+01
   6.215862e-01  -5.955025e+01
   6.007865e+01   1.895364e+01
   4.419528e+01   1.121546e+02
   3.813265e+01   9.135090e+01
  -5.186126e+01   5.781647e+01
  -1.076845e+02  -1.178467e+02
  -4.631480e+01  -1.083814e+02
   4.790911e+01  -4.787260e+01
   1.104263e+02  -4.178535e+00
   6.539935e+01   1.698315e+01
  -3.269523e+01   3.168104e+01
  -2.863324e+01  -2.132952e+01
   5.056855e+01  -7.000157e+00
   1.120075e+02  -3.925571e+01
   1.236598e+00   9.871087e+00
  -9.650961e+01   6.352497e+01
  -8.862676e+01   7.974329e+01
  -7.382235e+01  -3.266362e+01
   5.706689e+01  -9.064619e+01
   9.571821e+01  -6.578527e+01
   2.989951e+01   1.936032e+01
   2.286481e+01   6.780495e+01
  -3.510481e+01   8.138329e+01
  -3.354515e+01  -2.621270e+01
  -2.157266e+01  -6.855709e+01
  -1.102558e+01  -2.418480e+01
   1.185919e+01   2.591795e+01
   4.019281e+01   1.024719e+01
  -1.920464e+01  -2.767016e+01
  -1.762617e+01  -5.531491e+01
  -7.353849e+00  -1.809790e+01
   1.560329e+01  -1.038403e+01
  -1.076708e+01   5.247084e+01
  -6.878272e+00  -2.051663e+01
   2.507951e+01  -3.335247e+01
   7.556651e+00  -7.664799e+01
   2.824901e+01  -1.422476e+01
   7.068272e+01   7.337474e+01
  -3.762457e+01   8.831659e+01
  -5.687500e+01   6.312809e+01
  -1.089327e+02   3.437065e+01
  -5.400609e+01  -8.979712e+01
   3.787029e+01  -3.998965e+01
   8.325656e+01   5.119305e+00
   4.307440e+01  -6.339853e+01
  -6.530787e+01  -1.558214e+01
  -5.993313e+01  -1.973143e+01
   6.256041e+00  -3.797348e+01
   8.560355e+01  -4.708908e+01
