
 $NMID
 id='ANONYMOUS ', fmtdat='(2E16.6)'
 volume=1.0
 tramp=1.0
 $END
  -3.615938e+03   2.535930e+02
  -2.061916e+03  -2.031898e+03
   1.533315e+02  -2.180961e+03
   1.668259e+03  -1.125448e+03
   8.697253e+02   1.523346e+02
  -4.620271e+01   3.559542e+02
  -5.868476e+02  -2.401435e+02
  -7.414187e+01  -6.239757e+02
   7.269705e+02  -6.073665e+02
   9.079339e+02  -8.424792e+00
   5.638809e+02   7.100972e+02
   3.140522e+01   7.528405e+02
  -4.982431e+02   1.310275e+02
  -2.105404e+02  -4.917082e+02
   1.025742e+02  -6.457708e+02
   4.047470e+02   9.650834e+01
   2.196860e+02   5.269040e+02
  -1.860150e+02   5.711671e+02
  -3.774523e+02   2.292863e+02
  -5.127960e+02  -2.611461e+02
  -1.210602e+02  -2.288341e+02
   1.137040e+02  -2.421821e+02
   1.783068e+02   2.150084e+01
  -1.350135e+02  -2.143037e+01
  -3.279088e+02  -1.137574e+02
  -1.475540e+00  -3.669625e+02
   5.094356e+02  -2.698354e+02
   8.298015e+02   1.936936e+02
   3.248969e+02   3.562368e+02
  -4.018197e+02   3.251497e+02
  -4.121697e+02  -1.012111e+02
  -2.364354e+02  -2.837773e+02
   2.066558e+02  -4.453445e+02
   6.209641e+02  -1.392148e+02
   3.083835e+02   8.806864e+01
   8.124231e+01   3.113716e+02
  -5.033028e+01   1.331900e+02
  -9.892687e+00  -2.053232e+02
   1.874069e+02  -2.540769e+02
   3.036188e+02   1.936842e+01
   1.222353e+02   5.036618e+02
  -2.504071e+02   5.423278e+02
  -4.500081e+02   3.356568e+01
  -1.956547e+02  -4.434464e+02
   1.389500e+02  -2.263419e+02
   2.679211e+02   2.027184e+02
  -4.975714e+01   4.475577e+02
  -4.471920e+02   1.020900e+02
  -5.259865e+02  -3.614611e+02
  -1.925119e+02  -5.239152e+02
   3.294365e+02  -2.898759e+02
   5.740842e+02   7.537315e+01
   4.288712e+02   2.748579e+02
  -2.923232e+01   2.705746e+02
  -3.264199e+02   1.120765e+02
  -1.945645e+02  -5.673979e+01
   7.714565e+01  -2.752262e+01
   1.239612e+02   8.681475e+01
  -1.323435e+02   1.350867e+02
  -3.293801e+02  -1.582624e+01
  -1.647707e+02  -2.091410e+02
   1.918968e+02  -2.410264e+02
   3.405235e+02  -1.468207e+02
   1.933095e+02   6.941897e+01
  -2.446985e+01   2.551602e+02
  -2.794669e+02   3.364007e+02
  -3.073612e+02   1.875560e+02
  -2.593668e+02  -1.212761e+02
  -2.998447e+01  -3.277100e+02
   8.970800e+01  -2.851436e+02
   1.405632e+02  -1.474146e+02
   6.648602e+00  -2.596364e+01
   6.027744e+01  -6.626382e+01
   1.525177e+02  -8.125522e+01
   2.664106e+02   1.056128e+02
   9.186738e+01   2.341566e+02
  -3.028165e+01   2.128826e+02
  -1.437964e+02  -4.409111e+01
  -1.078945e+02  -2.293767e+02
   5.102503e+01  -2.284622e+02
   2.588626e+02  -8.803748e+01
   3.372154e+02   2.036924e+02
   1.458506e+02   3.144019e+02
  -9.703720e+01   2.819317e+02
  -2.166990e+02   1.435163e+02
  -1.756715e+02   5.176454e+01
  -1.273047e+02   4.461080e+01
  -2.304977e+02  -3.698309e+01
  -4.173426e+02  -1.158152e+02
  -3.090975e+02  -2.549702e+02
   9.978018e+00  -3.760150e+02
   3.540953e+02  -3.288344e+02
   4.231163e+02  -2.375683e+02
   2.264704e+02   6.445649e+01
   2.588021e+01   2.350629e+02
  -1.072343e+02   1.991124e+02
  -4.725669e+01   6.227982e+01
   1.349074e+02  -1.301272e+02
   1.506029e+02  -9.989598e+00
   7.050241e+01   2.044139e+02
  -1.164272e+02   1.872870e+02
  -1.755846e+02  -3.641705e+01
  -9.225534e+00  -1.824012e+02
   1.428084e+02  -5.505356e+01
   1.806972e+02   2.538660e+02
   8.772929e+00   3.169967e+02
  -2.341822e+02   2.205341e+02
  -3.394156e+02  -5.223711e+01
  -2.612624e+02  -2.446078e+02
  -2.859906e+01  -2.442942e+02
   1.599056e+02  -1.393375e+02
   1.653302e+02  -2.315593e+00
   4.481479e+01  -8.700221e+00
  -7.338189e+01  -4.083063e+01
   1.505862e+01  -8.015440e+01
   1.298126e+02  -6.648238e+01
   1.337527e+02  -8.447104e+00
   1.397022e+01   4.828781e+01
  -5.140076e+01   3.412693e+00
  -4.360705e+01  -1.376859e+00
   1.257686e+02  -1.320231e+02
   2.886268e+02  -2.254992e+00
   2.886318e+02   1.151336e+02
   2.926204e+01   2.485695e+02
  -1.899698e+02   2.333942e+02
  -2.981586e+02   1.048174e+02
  -1.072588e+02  -2.647601e+01
   3.399042e+01  -5.669877e+01
   1.298013e+02   2.477677e+01
  -5.985589e+01   1.075227e+02
  -1.717524e+02   6.850255e+01
  -2.568500e+02  -1.014550e+02
  -7.582150e+01  -1.406471e+02
   6.292510e+01  -1.108540e+02
   8.932632e+01  -1.529264e+01
   4.638891e+01  -2.568828e+01
  -5.212560e+01   4.156592e+00
  -5.308691e+01  -1.134263e+02
   7.032105e+01  -1.139530e+02
   2.006065e+02  -4.236519e+01
   1.971592e+02   1.494602e+02
   2.805076e+01   1.905902e+02
  -1.761456e+02   1.637529e+02
  -1.474387e+02   2.837928e+00
  -4.688273e+01  -7.013406e+01
   5.613925e+01  -9.383262e+01
   2.219667e+01  -7.054128e+01
  -3.207830e+00   1.301600e+01
  -4.454976e+00  -4.950149e-01
   5.998444e+01  -2.528021e+01
   1.044138e+02  -2.169961e+01
   1.216911e+02   7.698194e+01
   4.446915e+01   1.323907e+02
  -1.154837e+02   1.796038e+02
  -1.991767e+02  -2.693405e+01
  -1.541138e+02  -1.197289e+02
  -8.202253e+01  -1.819053e+02
   1.196346e+02  -8.567655e+01
   1.703160e+02  -3.544924e+01
   8.916662e+00   5.978117e+01
   8.772773e-01  -1.423810e+01
   1.979504e+01  -5.520990e+00
   6.439263e+01  -1.886172e+01
   2.920262e+01   5.042856e+01
  -2.257813e+01   1.160504e+02
  -1.491956e+02   8.683646e+01
  -1.057381e+02  -8.071888e+01
   8.172046e+00  -1.246698e+02
   1.469022e+02  -8.322262e+01
   2.155185e+02   3.674776e+01
   1.255497e+02   1.921046e+02
  -1.254928e+02   1.966898e+02
  -2.400064e+02   5.642966e+01
  -1.725882e+02  -7.583665e+01
  -8.009234e+01  -1.169234e+02
   8.533322e+01  -1.253923e+02
   1.161141e+02  -3.014176e+01
   6.331850e+01  -8.313906e+01
   5.371368e+01  -7.765148e+01
   8.391815e+01  -1.178326e+02
   1.423838e+02   5.221801e+01
   7.161400e+01   1.771695e+02
   5.851220e+01   2.399911e+02
  -9.020256e+01   1.466909e+02
  -1.674493e+02   2.273591e+01
  -1.901340e+02  -6.376345e+01
  -5.965495e+01  -1.581670e+02
   4.755897e+01  -6.783622e+01
   7.321215e+01  -4.294378e+01
   1.431654e+01   7.176831e+01
  -7.857907e+00   6.013461e+01
  -6.567782e-01   3.559149e+01
   7.194113e+01  -1.473184e+01
   3.985454e+00   3.781470e+01
  -9.080806e+01   1.691571e+01
  -1.492424e+02   1.713230e+01
  -1.446434e+02  -5.232197e+01
  -1.764176e+01  -1.303503e+02
   1.177312e+02  -1.325066e+02
   1.026604e+02   1.639762e+01
   4.022035e+01   4.938752e+01
  -4.305276e+01  -2.038227e+00
  -3.860219e+01  -4.771337e+01
  -1.642752e+01  -8.027556e+01
   5.517516e+01  -8.312537e+01
   5.111961e+01   4.140104e+01
   9.830380e+01   2.850062e+01
   1.122337e+02   5.847404e+01
   5.697987e+01  -1.119970e+01
   4.161779e+01   4.213272e+00
   1.134616e+01   1.133881e+02
  -2.804198e+01   1.913378e+02
  -9.537155e+01   1.505295e+02
  -1.633315e+02  -1.195135e+00
  -1.788471e+02  -7.919537e+01
  -2.318718e+01  -1.130222e+02
   9.494539e+01  -6.761728e+01
   5.443494e+01  -1.240234e+01
  -3.817047e+01   8.726763e+00
  -1.226291e+02  -5.029075e+01
  -6.314070e+01  -5.271772e+01
   7.654737e+01  -8.060463e+01
   1.798167e+02  -5.636048e+01
   1.455601e+02   1.425273e+01
   4.535521e+01   8.729807e+01
  -7.417059e+01   7.759966e+01
  -8.250120e+01  -9.943723e+00
   2.141680e+01  -3.020905e+01
   1.112218e+02   5.143127e-01
   2.932314e+01   1.082213e+02
  -4.045422e+01   1.570165e+02
  -1.303474e+02   9.091897e+01
  -1.034847e+02  -8.468900e+01
  -3.054880e+01  -1.762007e+02
   8.875315e+01  -1.668749e+02
   8.674222e+01   5.541056e+01
   3.366978e+01   1.488101e+02
  -3.078843e+01   1.266012e+02
  -5.534076e+01  -1.295753e+01
  -4.493397e+01  -1.888172e+01
  -1.254731e+01  -2.577435e+01
  -2.527024e+01   2.587882e+01
  -2.711964e+01  -2.171248e+01
  -3.524748e+01  -6.731541e+01
  -4.909604e+01  -9.270621e+01
   6.159528e+01   3.063608e+00
   1.624428e+02   3.434154e+01
   1.180121e+02   1.639018e+01
   1.191167e+01   3.122030e+01
  -9.346343e+01   3.350645e+01
  -5.365200e+01   3.352179e+01
  -4.896656e+01   1.446129e+01
   2.929333e+01  -1.121697e+01
  -1.562806e+01  -2.002360e+01
  -1.441612e+01  -2.634854e+01
   4.233514e+01  -1.878796e+01
   2.270513e+01  -1.766820e+01
   7.520765e+01   6.077472e+01
   2.627258e+01   5.233724e+01
  -7.890545e+01   9.207799e+01
  -1.795764e+02   9.652486e+01
  -1.544831e+02  -8.181565e+01
  -1.285082e+01  -1.522984e+02
   5.141541e+01  -1.331615e+02
   1.564917e+02  -5.580523e+01
   7.128531e+01   3.847935e+01
   2.284918e+01   4.254721e+01
   1.509277e+00   2.517688e+01
  -1.103220e+01   3.586836e+00
   1.835952e+00   4.554828e+01
   4.324347e+01   6.741400e+01
  -9.976158e+00   4.284964e+01
  -8.412006e+01  -3.051780e+01
  -7.020637e+01  -1.333936e+02
  -2.235785e+00  -1.481858e+02
   1.103257e+02   1.341104e+00
   1.438231e+02   8.396335e+01
   5.816104e+01   1.677054e+02
  -6.384114e+01   9.345683e+01
  -8.543653e+01  -1.299411e+01
  -7.527554e+01  -6.605615e+01
  -1.408666e+01  -4.631523e+01
   2.797029e+01  -4.279504e+01
   1.188133e+01  -3.842377e+01
  -5.560291e+01   3.832221e+00
  -1.807699e+01  -3.466658e+01
   9.975283e+01  -4.339278e+01
   1.024365e+02  -3.935281e+01
   7.905596e+01  -8.003368e+00
  -1.523402e+01   9.750775e+01
  -3.643825e+01   6.915035e+01
  -4.502724e+01   3.448608e+01
  -1.835697e+01  -6.105511e+01
  -2.008612e+00  -1.917975e+01
   5.444438e+01   3.300175e+00
   4.592877e+01   2.642486e+01
   3.146889e+00   4.321582e+01
  -3.941802e+01  -3.694366e+01
  -3.465617e+01  -1.225490e+01
  -2.746403e+01  -1.486678e+01
   1.694324e+01   4.140930e+00
   1.362711e+01   1.431678e+01
  -7.481375e-02  -6.485622e+01
  -2.234393e-01  -3.087123e+01
   3.205930e+00  -3.948820e+01
   1.502551e+01   5.640690e+01
  -1.098607e+01   7.350337e+01
  -3.784861e+01   1.705559e+01
  -4.596944e+01  -6.625256e+01
  -1.624660e+01  -6.719997e+01
   5.560412e+01  -2.043960e+01
   1.180643e+02  -1.232088e+01
   4.265836e+01   2.376941e+01
  -3.799990e+01   4.024224e+01
  -7.229349e+01   1.056068e+01
  -9.302467e+00   2.451202e+01
   8.916020e+00  -9.988775e+00
   2.110481e+01  -1.760331e+00
  -3.457764e+01   6.288483e+01
  -6.717551e+01  -8.091726e-01
