
 $NMID
 id='ANONYMOUS ', fmtdat='(2E16.6)'
 volume=1.0
 tramp=1.0
 $END
   4.382375e+03   2.303377e+02
   2.702245e+03   2.992013e+03
  -6.407292e+02   2.813856e+03
  -1.994806e+03   7.569947e+02
  -8.287701e+02  -6.543343e+02
   8.249590e+02  -5.690927e+02
   9.782758e+02   5.218013e+02
  -7.167023e+01   1.189997e+03
  -7.705442e+02   8.516122e+02
  -9.685123e+02  -3.697133e+01
  -4.228817e+02  -9.324954e+02
   1.162899e+02  -8.202141e+02
   7.142709e+02  -7.945850e+01
   3.384255e+02   8.567054e+02
  -4.062209e+02   8.171413e+02
  -6.105432e+02  -1.965296e+01
  -3.378900e+02  -7.077317e+02
   3.183094e+02  -7.457068e+02
   6.678682e+02  -6.930722e+01
   3.581856e+02   4.186473e+02
   4.269202e+01   3.904412e+02
  -2.936850e+02   2.057561e+02
  -1.827238e+01  -1.505952e+01
   9.236231e+01  -7.485642e+01
   2.536614e+02   5.794230e+01
   2.500349e+02   3.423127e+02
  -4.983415e+02   5.425389e+02
  -9.643749e+02  -8.101656e+01
  -4.577632e+02  -6.631159e+02
   4.557216e+02  -5.926077e+02
   9.109999e+02   3.917822e+01
   2.689797e+02   6.737921e+02
  -3.953252e+02   5.577438e+02
  -5.273826e+02   2.331175e+02
  -4.086490e+02  -2.783314e+02
  -5.047430e+01  -5.371354e+02
   2.372298e+02  -2.286990e+02
   2.114431e+02   2.575255e+02
  -1.879663e+02   5.170686e+02
  -6.365581e+02  -8.400427e+00
  -2.908437e+02  -7.542334e+02
   4.483484e+02  -7.886736e+02
   7.164806e+02   1.508411e+01
   3.043904e+02   6.032785e+02
  -3.314571e+02   3.442550e+02
  -4.531022e+02  -3.676925e+02
   7.831216e+01  -5.653277e+02
   5.709800e+02  -1.465600e+02
   6.174099e+02   4.010519e+02
   1.518679e+02   6.400938e+02
  -3.809349e+02   3.954632e+02
  -6.385142e+02  -6.787593e+01
  -3.656285e+02  -4.109165e+02
   1.773248e+02  -4.004637e+02
   4.774961e+02  -2.530358e+01
   2.466575e+02   2.460571e+02
  -1.587170e+02   7.956044e+01
  -2.004162e+02  -1.937395e+02
   1.689622e+02  -2.152433e+02
   4.190770e+02   7.428930e+01
   1.986657e+02   3.152969e+02
  -2.257357e+02   2.340369e+02
  -3.247656e+02   1.386676e+01
  -2.010955e+02  -6.531434e+01
  -1.733710e+01  -2.173458e+02
   2.046734e+02  -2.884375e+02
   3.400559e+02  -1.985948e+02
   2.744792e+02   1.406238e+02
   8.892560e+01   4.265822e+02
  -1.219950e+02   3.489504e+02
  -9.047396e+01   3.189988e+01
   2.221801e+01  -2.932407e+00
  -1.872771e+01   1.359462e+02
  -2.664912e+02   1.981640e+02
  -2.904548e+02  -4.124241e+01
  -1.417315e+02  -2.766269e+02
   7.637354e+01  -3.206429e+02
   2.596302e+02  -5.028846e+01
   2.102967e+02   2.314474e+02
   7.182643e+00   3.183718e+02
  -3.036620e+02   1.536959e+02
  -3.967286e+02  -1.731379e+02
  -1.847230e+02  -3.436826e+02
   1.702973e+02  -3.096137e+02
   2.750014e+02  -1.036793e+02
   1.451653e+02   6.121864e+01
   6.963845e+01  -3.414142e+01
   2.086239e+02  -6.042476e+01
   3.329683e+02   1.351047e+02
   3.007962e+02   2.840739e+02
   4.347063e+01   3.960809e+02
  -3.258776e+02   3.987321e+02
  -4.808644e+02   1.456302e+02
  -3.231604e+02  -1.137927e+02
  -9.139712e+01  -3.251596e+02
   1.680306e+02  -2.980184e+02
   1.580196e+02   1.577316e+01
  -6.390335e+01   1.517324e+02
  -1.974249e+02   3.456395e+01
  -6.281565e+01  -2.344853e+02
   1.861335e+02  -2.077515e+02
   1.744221e+02   7.299423e+01
  -3.165740e+01   2.051386e+02
  -2.188826e+02   3.710165e+01
  -1.683694e+02  -2.746910e+02
   8.459197e+01  -3.996519e+02
   2.133469e+02  -2.138651e+02
   3.351725e+02   7.190151e+01
   2.938044e+02   1.690203e+02
   1.178702e+02   2.374371e+02
  -1.072973e+02   2.049694e+02
  -1.962833e+02   1.812542e+01
  -6.106453e+01  -4.990932e+00
   1.192851e+02   8.366060e+01
   3.284749e+01   1.220295e+02
  -1.507613e+02   7.593795e+01
  -2.544910e+02  -6.467577e+01
  -1.193797e+02  -9.657183e+01
   8.173193e+01  -2.107537e+01
   6.128822e+01   8.192026e+01
  -1.298336e+02   4.528431e+01
  -2.259926e+02   4.184163e+00
  -2.891325e+02  -1.415592e+02
  -1.125297e+02  -2.787247e+02
   1.642925e+02  -3.113647e+02
   2.762407e+02  -1.968908e+02
   1.773480e+02   6.307401e+01
  -3.065732e+01   1.524349e+02
  -4.786660e+01  -3.812563e+00
   5.958336e+01  -1.349727e+02
   2.271230e+02  -1.096133e+02
   2.416271e+02   1.475120e+02
   7.084500e+01   2.091509e+02
  -1.326867e+02   2.067491e+02
  -1.420085e+02   7.369737e+01
  -6.282038e+01  -1.763553e+01
  -1.357043e-04  -5.218244e+00
   2.623798e+01   7.096070e+01
  -6.257097e+01   1.130767e+02
  -2.198031e+02   4.101219e+01
  -1.949355e+02  -9.262200e+01
  -7.163331e+01  -2.244582e+02
   1.205320e+02  -1.694239e+02
   2.301719e+02   1.764634e+00
   6.606461e+01   1.202017e+02
  -9.231761e+01   9.843043e+01
  -4.804589e+01  -2.354287e+01
  -2.318487e+01  -4.214228e+01
   2.647631e+01  -1.291588e+01
  -1.940641e+01  -4.177580e+00
  -8.423035e+01  -4.905059e+01
  -7.436769e+01  -7.619038e+01
  -2.731726e+00  -1.275895e+02
   1.369903e+02  -1.401846e+02
   2.119709e+02   1.887180e+00
   2.175552e+02   1.467470e+02
   5.999428e+01   2.379161e+02
  -9.199080e+01   1.792382e+02
  -1.515835e+02   3.366858e+01
  -1.143386e+02  -4.129227e+01
  -5.282904e+01  -7.472655e+01
  -7.066670e+01   1.748007e+01
  -6.864286e+01  -1.801650e+01
  -1.103832e+01  -3.626918e+01
   6.673023e+01  -7.175052e+01
   9.193911e+01  -8.417509e+01
   6.638601e+01   2.158876e+01
  -2.360327e+01   1.154718e+02
  -8.661003e+01   7.490517e+01
  -1.789625e+02  -1.906717e+01
  -9.644227e+01  -1.972395e+02
   8.696003e+01  -2.553267e+02
   2.248638e+02  -9.439626e+01
   2.715666e+02   5.877253e+01
   1.226961e+02   1.865443e+02
  -5.206456e+01   1.572127e+02
  -9.766015e+01   8.514781e+01
  -3.653713e+01   9.717345e+01
  -6.800493e+01   1.263495e+02
  -4.805467e+01   3.808119e+01
  -1.631775e+02  -3.486383e+01
  -8.427094e+01  -1.630040e+02
  -5.741230e+01  -1.950534e+02
   9.693536e+01  -1.637319e+02
   2.162457e+02  -1.308522e+00
   1.737401e+02   9.472511e+01
   4.706231e+01   1.219468e+02
  -4.998685e+01   1.076309e+02
  -5.012056e+01   1.224229e+01
  -6.321231e+00  -1.677816e+01
   2.024205e+01  -1.111672e+00
  -5.060228e+01  -6.647959e-01
  -1.061068e+02  -3.967413e+01
  -7.659708e-01  -1.771182e+01
   7.436981e+01  -4.578826e+01
   1.468382e+02   1.129063e+01
   9.156359e+01   3.259448e+01
  -7.116852e+00   1.316038e+02
  -1.675414e+02   6.143011e+01
  -1.279548e+02  -4.449977e+00
  -5.092314e+01  -5.085437e+01
   7.770373e+01  -1.976091e+01
   7.945199e+01  -1.475767e+01
   2.627506e+01   9.242481e+01
  -8.332817e+01   3.393208e+01
  -8.290303e+01  -3.862053e+01
  -2.068086e+01  -1.047174e+02
  -2.582186e+01  -1.275824e+01
  -2.124967e+01  -3.238056e+00
  -7.347350e+01  -1.988403e+01
  -5.078259e+00  -9.536844e+01
   2.447832e+01  -1.214359e+02
   1.370419e+02  -1.251363e+02
   1.370638e+02  -2.799506e+01
   9.054821e+01   8.583765e+01
   5.491382e+00   6.095459e+01
  -8.732217e+01   6.627510e+01
  -3.496550e+01  -1.418298e+01
   6.319311e+01  -4.118611e+01
   1.368039e+02   5.400825e+01
   9.290220e+01   1.127479e+02
  -7.288370e+01   1.240743e+02
  -1.583503e+02   4.563839e+01
  -1.453207e+02   1.621085e+01
  -4.130698e+01  -8.335119e+01
   6.191536e+01  -4.242614e+01
   2.267250e+01   1.197989e+01
  -4.161608e+01   6.251079e+00
  -7.691938e+01  -5.226478e+01
  -4.681926e+01  -1.380246e+02
   9.202239e+01  -1.839843e+02
   1.864125e+02  -3.311657e+01
   1.514982e+02   7.951737e+01
   1.305397e+01   2.018796e+02
  -8.152449e+01   9.609334e+01
  -1.021988e+02  -2.713256e+01
  -5.617593e+01  -8.583456e+01
   8.565941e-01  -7.567660e+01
   8.997953e+01   3.260802e+01
   1.732372e+01   6.673772e+00
   2.991700e+00   8.329239e+00
   6.020635e+00   6.344084e+00
   2.655376e+01   1.848741e+01
   5.721129e+01   6.855088e+01
   2.646102e+01   9.951531e+01
  -6.288685e+01   6.458789e+01
  -1.404057e+02  -4.597578e+01
  -1.038033e+02  -3.994902e+01
   4.787823e+00  -4.040826e+01
   8.506983e+01  -5.129795e+00
   1.142276e+02  -1.636346e+01
  -2.877704e+01   3.597687e+01
  -8.857436e+01   2.337130e+01
  -2.348700e+01   1.042792e+01
   1.487812e+01  -3.171577e+01
   1.808246e+01   5.110634e+00
  -8.087007e+01   8.500270e+00
  -8.688008e+01  -9.580289e+01
   1.162334e+00  -1.006336e+02
   9.060618e+01  -1.289809e+02
   2.070780e+02  -4.940837e+01
   1.897599e+02   3.074988e+01
   1.798182e+01   1.033080e+02
  -5.924791e+01   1.360283e+02
  -9.461098e+01   6.001168e+01
  -5.634741e+01   2.704125e+01
  -2.296185e+01   1.585120e+01
   1.297672e+01  -3.151466e+01
   1.117773e+01   9.007751e+00
  -3.481534e+01  -4.229723e+01
  -1.092774e+01  -7.387207e+01
   2.273938e+01  -4.901144e+01
   4.412085e+01   3.964875e+01
   1.407902e+01   8.711989e+01
   4.922031e+00   4.229440e+01
  -6.145098e+01  -7.554103e+00
  -8.579540e+01  -8.083081e+01
  -4.734742e+01  -9.317483e+01
   9.676896e+01  -4.784689e+01
   8.353963e+01   4.190080e+01
   3.797000e+01   8.348928e+01
  -4.868206e+00   3.915875e+01
  -4.386729e+01   4.487075e+01
   1.191767e+01   1.765715e+01
   5.823030e+01   1.466828e+01
   2.489929e+01   2.618710e+01
  -1.316274e+02   5.620509e+01
  -1.077784e+02   4.644412e+01
  -1.015500e+02  -4.550331e+01
   2.181751e+01  -7.587321e+01
   6.479063e+01  -3.651454e+01
   3.991646e+01  -8.983958e+00
   4.696099e+01   3.862991e+00
  -1.683935e+01   3.628888e+01
  -4.054533e+01  -6.302052e+01
  -3.023226e+01  -5.130905e+01
   2.820945e+01  -5.277361e+01
   3.532566e+01   2.350268e+01
   2.854331e+01   4.175336e+01
  -1.572451e+00   3.492297e+00
   2.257218e+01  -3.112598e+01
  -1.421795e+01   2.199802e+01
   1.981906e+01  -5.407754e+00
  -2.425184e+01   5.094681e+01
  -3.788156e+01   1.450444e+01
  -3.725261e+01  -2.560044e+01
  -3.168657e+01  -8.397546e+01
   6.443634e+01  -1.888148e+01
   5.692538e+01   7.433588e+01
   1.358905e+01   4.061457e+01
  -3.963240e+01   1.782761e+01
  -8.601579e+01  -5.557185e+01
  -1.695315e+01  -1.308899e+01
  -9.678085e-01  -1.379298e+01
   1.030819e+02  -2.512162e+01
   6.705959e+01  -2.998146e-01
  -5.635152e+01   3.653211e+01
  -6.722028e+01  -5.379907e+01
   7.078413e+00  -3.321828e+01
   9.420659e+01  -2.173305e+01
