
 $NMID
 id='ANONYMOUS ', fmtdat='(2E16.6)'
 volume=1.0
 tramp=1.0
 $END
  -5.005940e+03  -7.220982e+01
  -3.036790e+03  -2.831317e+03
   8.161686e+02  -3.185465e+03
   2.439512e+03  -1.032551e+03
   9.505391e+02   9.152536e+02
  -8.884854e+02   7.892206e+02
  -1.025321e+03  -6.316714e+02
   2.030140e+02  -1.343718e+03
   1.060692e+03  -8.470951e+02
   1.204227e+03   1.336105e+02
   4.088782e+02   9.369047e+02
  -2.444512e+02   9.713441e+02
  -6.010537e+02   1.309307e+02
  -4.476515e+02  -6.425718e+02
   1.560225e+02  -7.472723e+02
   5.652294e+02   2.209752e+02
   3.164410e+02   8.586468e+02
  -4.136472e+02   7.013827e+02
  -6.023220e+02   3.510286e+02
  -4.343103e+02  -2.552977e+02
   1.285012e+02  -5.508862e+02
   3.007246e+02  -2.349273e+02
   4.825799e+02  -1.173283e+02
  -1.257765e+01   5.076370e+01
  -4.409231e+02  -4.367142e+01
  -4.705844e+02  -4.434315e+02
   3.993677e+02  -3.951090e+02
   8.636972e+02  -5.404014e+01
   4.418983e+02   5.877437e+02
  -4.442063e+02   5.299102e+02
  -8.002022e+02  -7.487804e+01
  -3.950820e+02  -4.017961e+02
   2.017848e+02  -7.191417e+02
   4.927028e+02  -1.610221e+02
   3.718914e+02   2.912851e+02
   6.714487e+01   4.550864e+02
  -1.874480e+02   3.442629e+02
  -2.254583e+02  -2.386507e+02
   5.329156e+01  -4.629895e+02
   5.191960e+02  -1.917216e+00
   3.517243e+02   7.679291e+02
  -3.129356e+02   8.150737e+02
  -7.531609e+02   1.148321e+01
  -3.104943e+02  -6.216476e+02
   3.368056e+02  -3.913884e+02
   4.109857e+02   3.276309e+02
  -1.106713e+02   6.047287e+02
  -6.074000e+02   1.282998e+02
  -6.106004e+02  -4.806074e+02
  -1.211769e+02  -6.451561e+02
   4.348453e+02  -3.879825e+02
   6.913231e+02   1.069591e+02
   4.118048e+02   4.623834e+02
  -1.584670e+02   4.673514e+02
  -4.958021e+02   1.116069e+02
  -3.008799e+02  -2.117110e+02
   1.350663e+02  -1.199673e+02
   1.930254e+02   2.012799e+02
  -1.938968e+02   2.656987e+02
  -4.496048e+02  -1.014214e+02
  -2.165456e+02  -3.239438e+02
   2.373067e+02  -2.478501e+02
   3.312814e+02  -4.633352e+01
   1.303618e+02   3.733311e+01
  -4.365691e+01   2.236920e+02
  -1.806733e+02   3.647724e+02
  -3.016317e+02   2.770784e+02
  -3.585740e+02  -1.621301e+02
  -1.959183e+02  -5.147387e+02
   6.876858e+01  -4.490465e+02
   1.852753e+02  -1.515718e+02
   1.296992e+02   5.744557e+01
   7.958803e+01  -1.396457e+01
   1.647985e+02  -1.223176e+02
   2.755194e+02  -4.331229e+00
   1.660004e+02   2.147166e+02
  -5.487087e+01   3.064618e+02
  -2.377273e+02   9.823868e+01
  -2.567821e+02  -2.460419e+02
  -2.638522e+01  -3.446792e+02
   3.049095e+02  -1.690225e+02
   4.309353e+02   1.743761e+02
   2.125504e+02   3.762219e+02
  -1.147608e+02   2.827465e+02
  -2.679994e+02   1.020895e+02
  -1.335505e+02   5.582141e+01
  -5.440432e+01   3.131721e+01
  -2.141664e+02   4.056381e+01
  -3.974380e+02  -1.064405e+02
  -3.221357e+02  -2.534347e+02
   3.874336e+00  -4.022069e+02
   3.233479e+02  -3.734866e+02
   4.967944e+02  -1.870922e+02
   3.543382e+02   9.093472e+01
   5.103749e+01   3.175963e+02
  -1.250641e+02   2.932188e+02
  -9.034539e+01   3.911187e+01
   1.237132e+02  -1.223748e+02
   1.541082e+02  -2.099400e+01
   2.246251e+01   1.948659e+02
  -1.503874e+02   2.419391e+02
  -1.799310e+02  -9.777861e+01
   2.382589e+01  -2.066397e+02
   1.781367e+02  -8.548152e+01
   1.551434e+02   2.637325e+02
   1.018356e+01   3.875776e+02
  -2.256628e+02   1.886940e+02
  -3.593492e+02  -5.466537e+01
  -2.660179e+02  -2.304283e+02
  -7.094898e+01  -2.542295e+02
   1.318960e+02  -1.328791e+02
   1.923013e+02  -2.830007e+00
   4.469646e+01   1.218907e+01
  -1.046186e+02  -5.284771e+01
  -7.804260e+01  -1.061774e+02
   1.151432e+02  -7.636529e+01
   2.088963e+02  -4.226164e+01
   9.023906e+01   2.839526e+01
  -6.298272e+01  -9.195828e+00
  -5.209561e+01  -3.741500e+01
   1.196010e+02  -9.746315e+01
   2.994721e+02   5.344919e+00
   2.479434e+02   1.332632e+02
   1.023593e+02   2.760743e+02
  -1.817829e+02   2.610193e+02
  -3.214386e+02   1.694756e+02
  -2.212959e+02  -3.489715e+01
  -1.547544e+01  -1.396793e+02
   7.175772e+01  -5.657366e+01
  -1.730224e+01   8.278914e+01
  -1.713397e+02   8.831730e+01
  -2.072072e+02  -8.414840e+01
  -9.728671e+01  -2.177288e+02
   1.069737e+02  -1.551597e+02
   1.433608e+02  -4.947924e+01
   8.741045e+01   5.447200e+01
   6.094776e+00   1.352585e+01
  -4.130762e+01  -8.222818e+01
   2.361786e+01  -5.689892e+01
   1.562135e+02  -1.999703e+01
   1.781986e+02   1.442535e+02
   4.081581e+01   2.295297e+02
  -1.619714e+02   1.558952e+02
  -2.223444e+02  -3.387523e+01
  -8.141014e+01  -1.296920e+02
   5.625820e+01  -1.274225e+02
   8.827981e+01  -6.271322e+00
   3.970727e+01   3.152016e+01
  -2.432076e+01   3.742675e+01
   5.249830e+01   6.750132e+00
   8.529869e+01   3.215828e+01
   8.209158e+01   9.106009e+01
   4.556417e+00   1.691017e+02
  -1.011932e+02   1.655539e+02
  -2.131748e+02   7.261874e+01
  -2.435295e+02  -1.249927e+02
  -9.094687e+01  -2.402763e+02
   1.081592e+02  -2.266441e+02
   1.353401e+02  -8.955759e+01
   8.776529e+01   6.272522e+01
   3.447270e+01   5.631106e+01
   4.459973e+01  -3.099609e+01
   5.564413e+00  -5.682888e+00
   5.462805e+00   4.535187e+01
  -3.244394e+01   7.976088e+01
  -4.573473e+01   2.713682e+01
  -4.236988e+01  -5.676655e+01
   2.078447e+01  -1.054041e+02
   1.328607e+02  -9.071700e+01
   1.782367e+02   4.225171e+01
   9.456023e+01   1.359412e+02
  -5.156394e+01   2.533425e+02
  -2.405134e+02   1.066508e+02
  -2.570891e+02  -6.027008e+01
  -1.133114e+02  -1.525379e+02
   4.182829e+01  -1.359789e+02
   8.352122e+01  -4.609182e+01
   6.220778e+01  -7.003436e+01
   4.409796e+01  -8.152959e+01
   8.082021e+01  -6.361037e+01
   1.451870e+02   1.425923e+01
   1.276822e+02   1.250432e+02
   1.750060e+01   2.238655e+02
  -1.128423e+02   1.793340e+02
  -1.982746e+02   7.208755e+01
  -1.568446e+02  -1.274655e+02
  -2.827406e+00  -2.075990e+02
   4.117887e+01  -1.182347e+02
   1.100263e+02   7.186840e-01
   4.987268e+01   1.306344e+01
  -1.068236e+01   2.321253e+01
   1.862044e+01  -7.143694e+01
   9.810919e+01   2.662346e+01
   8.206708e+01   9.092893e+01
  -5.647983e+01   5.575029e+01
  -1.716739e+02   2.827635e+01
  -1.487804e+02  -1.062727e+01
  -4.902155e+00  -6.111204e+01
   1.304327e+02  -1.071054e-01
   1.747284e+02   2.377886e+00
   3.417838e+01   2.282175e+01
  -9.571914e+01   3.689764e+01
  -1.038970e+02  -2.950659e+01
  -3.014469e+01  -6.554059e+01
   5.926213e+01  -6.776280e+01
   9.462598e+01  -2.584080e+01
   3.410406e+01   4.202851e+01
   6.212886e+01   8.038846e+01
   5.527872e+01  -3.110092e+01
   6.996823e+01  -2.609218e+01
   2.292418e+01   9.909228e+01
  -3.440469e+01   1.171461e+02
  -1.211652e+02   1.403687e+02
  -1.104507e+02   3.195246e+01
  -1.152807e+02  -8.392613e+01
  -2.140618e+01  -1.055782e+02
   7.601387e+01  -3.555982e+01
   6.036214e+01   4.584525e+01
  -3.090815e-01  -6.262623e+00
  -1.051546e+02  -5.595999e+01
  -8.958481e+01  -8.313201e+01
   8.047781e+01  -1.218338e+02
   1.938687e+02  -7.030783e+01
   1.749031e+02   5.285833e+01
   5.126055e+01   8.627404e+01
  -6.962188e+01   2.596737e+01
  -4.509316e+01   2.298804e+01
   6.048096e+01  -2.491287e+00
   8.274457e+01   8.442875e+00
   6.367861e+01   4.679721e+01
  -6.205304e+01   1.106049e+02
  -1.081275e+02   7.988380e+01
  -1.311015e+02  -9.342389e+01
  -4.349008e+01  -1.976222e+02
   5.492948e+01  -1.280556e+02
   8.197304e+01  -5.130466e+00
   3.655919e+01   7.183929e+01
  -4.066580e+01   7.502129e+01
  -5.573087e+01  -6.075262e+01
  -2.233192e+01  -7.598624e+01
  -1.895991e+01   7.682387e+01
   2.429653e+01   1.652465e+01
  -8.591085e+00  -3.360005e+01
  -3.802418e+01  -9.484552e+01
  -7.597962e+00  -9.663601e+01
   3.699445e+01  -3.816472e+01
   1.392348e+02   8.206203e+01
   1.332560e+02   5.802513e+01
   1.033957e+01   4.676869e+01
  -9.533334e+01   1.727861e+01
  -1.440265e+02  -2.000387e+01
  -2.460810e+01   1.295853e+01
   7.906139e+01  -1.655005e+01
  -1.848465e+01   6.601234e+00
  -1.242402e+01   3.652917e+01
   1.674743e+01   3.025379e+00
   7.914217e+01   4.316903e+01
   1.195189e+02   5.406243e+01
  -3.897550e+01   1.069463e+02
  -1.714428e+02   1.439445e+02
  -2.048586e+02   4.665046e+01
  -1.348307e+02  -5.267130e+01
  -5.080531e+01  -1.937469e+02
   1.088209e+02  -1.266657e+02
   1.478545e+02  -4.340121e+00
   8.967849e+01   6.172652e+01
   9.294355e-01   1.815102e+01
  -1.885950e+01   2.439210e+01
   1.047044e+01   9.722961e+00
   3.108488e+01   2.360376e+01
   5.022775e+00   9.060157e+01
  -4.189481e+01   7.597911e+01
  -9.802186e+01  -6.049229e+01
  -5.784316e+01  -1.479297e+02
   2.580762e+01  -1.175158e+02
   6.816095e+01  -3.756696e+01
   8.591628e+01   8.206832e+01
   3.761143e+01   1.247647e+02
  -6.565877e+01   1.943499e+01
  -1.040201e+02   3.691904e+00
  -4.979905e+01  -2.550513e+01
   1.473199e+01  -9.691192e+01
   1.444295e+01   8.114425e+00
  -6.592658e+01  -4.110843e+01
  -6.348339e+01  -3.978855e+01
   4.778414e+01  -1.932608e+01
   1.346077e+02  -6.139551e+01
   1.212625e+02  -2.975848e+01
   5.828577e+01   4.789552e+01
  -1.486656e+01   1.146155e+02
  -4.545774e+01   8.512804e+01
  -5.269493e+01  -1.768604e+01
   2.954050e+01  -3.271435e+01
   3.150439e+01  -1.790175e+01
  -1.642169e+00   4.046469e+01
   5.009677e+01   7.658824e+01
  -2.899872e+01   1.571598e+01
  -6.506846e+01  -1.609168e+01
  -1.417189e+01  -4.647051e+01
   1.902353e+01  -3.314757e+01
  -3.534365e+01  -5.332682e+00
  -4.756734e+00   7.865241e-01
  -2.459181e+00  -7.282730e+01
   7.039722e+01  -3.395940e+01
   1.130163e+02   8.982609e+00
   2.628097e+01   6.452463e+01
  -9.737715e+00   8.378258e+01
  -3.554813e+01   2.975031e+01
  -5.120943e+01  -1.844418e+01
  -1.969560e+01  -7.700926e+01
   4.347196e+01  -6.590496e+01
   1.145193e+02  -3.668402e+00
   3.889879e+01   2.829145e+01
  -4.942305e+01   3.581449e+01
  -1.034762e+02   7.120704e+00
  -5.963591e+01   2.180383e+01
   3.864172e+01   1.299252e+01
   1.271836e+01   2.991823e+01
  -5.421716e+01   2.927684e+01
  -1.023264e+02   7.626816e+01
