
 $NMID
 id='ANONYMOUS ', fmtdat='(2E16.6)'
 volume=1.0
 tramp=1.0
 $END
   4.516190e+03   3.254693e+02
   2.350504e+03   2.308713e+03
  -4.293107e+02   2.377945e+03
  -1.858914e+03   1.136319e+03
  -1.070814e+03  -2.750069e+02
   4.990471e+02  -4.276082e+02
   6.966876e+02   3.704175e+02
   1.663806e+02   9.737577e+02
  -7.604426e+02   7.724752e+02
  -8.572502e+02  -4.475429e+01
  -5.628254e+02  -7.909080e+02
   8.326034e+01  -7.254930e+02
   5.477199e+02  -8.871133e+01
   3.618273e+02   6.490953e+02
  -2.555639e+02   7.787112e+02
  -5.028172e+02   1.513259e+01
  -4.263145e+02  -7.375101e+02
   1.736968e+02  -6.747122e+02
   5.979444e+02  -8.385321e+01
   3.666998e+02   3.000000e+02
  -2.246825e+01   3.579798e+02
  -2.533981e+02   3.671288e+02
  -3.356386e+02  -1.138530e+01
   1.905027e+02   3.399205e+01
   3.147255e+02   1.823312e+02
   3.881591e+00   3.697023e+02
  -4.340473e+02   4.060443e+02
  -6.699132e+02  -2.055132e+02
  -1.832381e+02  -3.627359e+02
   2.559621e+02  -4.284082e+02
   6.621075e+02  -7.880435e-01
   3.457986e+02   3.742012e+02
  -2.876434e+02   5.061932e+02
  -4.881805e+02   1.471715e+02
  -4.530349e+02  -1.702258e+02
   1.110303e+01  -4.667650e+02
   1.794083e+02  -2.203266e+02
   7.609441e+01   5.484069e+01
  -1.654557e+02   2.590655e+02
  -3.502182e+02  -7.602262e+01
  -1.047162e+02  -5.950611e+02
   2.442870e+02  -5.444699e+02
   4.801495e+02   5.538706e+01
   1.760523e+02   4.729247e+02
  -2.217715e+02   2.114558e+02
  -3.468280e+02  -3.001279e+02
   7.669244e+01  -4.757145e+02
   4.285091e+02  -3.289862e+01
   5.444123e+02   3.170738e+02
   1.640644e+02   4.686943e+02
  -3.342418e+02   2.734167e+02
  -5.803799e+02  -1.655776e+01
  -3.508190e+02  -2.578368e+02
   8.122408e+01  -2.855358e+02
   3.753182e+02  -1.056047e+02
   1.980352e+02   1.436407e+02
  -1.117570e+02   6.100814e+01
  -1.148568e+02  -9.073054e+01
   1.219015e+02  -1.618135e+02
   2.552981e+02   3.542222e+01
   5.308985e+01   2.733872e+02
  -2.190828e+02   2.395695e+02
  -3.004056e+02   5.409168e+01
  -2.119612e+02  -1.388064e+02
   6.544585e+01  -3.172355e+02
   1.770845e+02  -3.363933e+02
   3.361478e+02  -1.917549e+02
   2.690151e+02   1.796382e+02
   7.254842e+01   3.754322e+02
  -1.039488e+02   3.263044e+02
  -6.161334e+01   1.130296e+02
  -9.713020e+00   8.989693e+00
  -6.106707e+01   5.741518e+01
  -2.228152e+02   9.648405e+01
  -2.726472e+02  -8.728587e+01
  -1.226676e+02  -1.962091e+02
   8.465887e+01  -1.938522e+02
   2.139605e+02   1.342955e+01
   1.622208e+02   2.246528e+02
  -2.926213e+01   2.591451e+02
  -3.056457e+02   1.530372e+02
  -3.794965e+02  -1.730607e+02
  -1.723930e+02  -3.813256e+02
   8.872706e+01  -2.966288e+02
   1.811030e+02  -1.727745e+02
   1.774637e+02  -2.860111e+01
   8.728915e+01  -3.504456e+01
   2.736896e+02  -4.962092e+01
   3.646602e+02   7.528746e+01
   2.884352e+02   3.485868e+02
  -3.408893e+01   4.244209e+02
  -3.872711e+02   3.404971e+02
  -4.762676e+02   1.429002e+02
  -3.088132e+02  -1.514393e+02
  -2.574749e+01  -3.058152e+02
   1.502657e+02  -2.412107e+02
   3.893990e+01  -9.658409e+00
  -9.338993e+01   3.021388e+01
  -1.168498e+02  -4.160818e+00
  -4.903682e+01  -1.702366e+02
   9.356044e+01  -1.500905e+02
   1.177479e+02   5.905063e+01
  -2.967981e+01   1.497314e+02
  -1.574107e+02   8.249525e-01
  -1.213871e+02  -2.470554e+02
   7.732607e+01  -3.347299e+02
   1.866501e+02  -1.997305e+02
   2.996695e+02   3.983723e+01
   2.166689e+02   2.646920e+02
   5.011187e+01   2.317084e+02
  -1.368898e+02   1.286913e+02
  -1.727460e+02   9.069140e+00
  -6.096440e+01  -4.151934e+01
   6.387741e+01   2.322622e+01
   2.790159e+01   7.505453e+01
  -1.216035e+02   4.302494e+01
  -1.067221e+02  -1.629216e+01
  -5.526692e+01  -1.948914e+01
   9.523463e+01  -3.789885e+01
   3.267073e+01   5.605093e+01
  -5.104498e+01   7.339460e+01
  -2.406798e+02  -1.868892e+01
  -2.676320e+02  -1.130333e+02
  -6.899482e+01  -2.002731e+02
   1.807102e+02  -2.390160e+02
   3.169410e+02  -1.206345e+02
   1.667669e+02   4.699854e+01
  -3.207459e+01   1.291280e+02
  -8.044180e+01   1.765630e+01
   2.564513e+01  -3.811659e+01
   1.313358e+02  -2.516225e+01
   1.653357e+02   6.622722e+01
   4.848608e+01   1.807335e+02
  -1.038154e+02   1.100825e+02
  -1.360060e+02   1.327487e+00
  -4.688570e+01  -5.449593e+01
   2.442342e+01   8.175848e+00
   7.621562e+01   5.276145e+01
  -7.451966e+01   1.318683e+02
  -2.004322e+02   5.118646e+01
  -1.505936e+02  -1.487572e+02
   4.453595e+01  -2.169374e+02
   1.797231e+02  -1.239865e+02
   1.991689e+02  -1.038384e+01
   1.060316e+02   8.477723e+01
  -5.727736e+01   1.501260e+02
  -5.662512e+01   4.139535e+01
  -3.670928e+01  -2.094575e+01
   2.740750e+01  -1.645770e+01
  -7.162095e+00   2.710676e+01
  -3.949149e+01   3.907223e+01
  -8.194518e+01  -4.565583e+01
  -1.229139e+01  -1.532677e+02
   1.303430e+02  -1.140933e+02
   1.929204e+02  -1.921787e+01
   1.854206e+02   1.121521e+02
   5.406515e+01   1.940512e+02
  -8.323466e+01   1.250380e+02
  -1.595219e+02   3.322234e+01
  -1.428678e+02  -4.438128e+01
  -1.705763e+01   1.216410e+01
  -6.407140e+01   2.228482e+01
  -1.142229e+01  -8.238734e+00
  -4.278478e+01  -1.071006e+02
   3.247002e+01  -9.384591e+01
   9.765303e+01  -2.019493e+01
   1.231587e+02   7.421762e+01
  -2.227033e+01   8.423381e+01
  -1.385402e+02   7.703419e+01
  -2.006264e+02  -9.236488e+01
  -6.951158e+01  -2.293366e+02
   1.340785e+02  -1.785127e+02
   2.839450e+02  -2.591234e+01
   2.551261e+02   7.477334e+01
   7.798330e+01   1.931975e+02
  -6.002250e+01   1.512615e+02
  -1.308301e+02   1.512275e+02
  -8.431479e+01   4.486871e+01
  -5.460603e+01   4.069704e+01
  -9.047278e+01   3.163066e+01
  -1.401077e+02  -3.066054e+01
  -1.204021e+02  -1.574598e+02
   1.451316e+01  -2.367960e+02
   8.408364e+01  -1.739957e+02
   1.578271e+02   4.641412e+01
   8.903340e+01   1.080765e+02
   2.422184e+00   1.140630e+02
  -4.724698e+01   6.004193e+01
  -3.056734e+01   1.993223e+01
   5.281717e+01   2.197945e+01
   5.328198e+00   1.076717e+01
  -3.767710e+01   3.493507e+01
  -1.119275e+02  -5.190919e+01
  -2.408052e+01  -6.070956e+01
   4.263178e+01  -3.274129e+01
   2.024775e+02   3.222001e+01
   9.714186e+01   1.245472e+02
   5.961388e+00   1.092754e+02
  -1.290264e+02   4.244299e+01
  -1.185615e+02  -3.132468e+01
  -7.993667e+00  -3.732422e+01
   1.227689e+02  -7.237908e+01
   8.191960e+01   3.820011e+01
   5.776788e+01   4.079545e+01
  -4.428320e+01   2.682876e+01
  -5.098168e+01   7.196415e+00
  -5.193124e+01  -1.989589e+01
  -4.079287e+01   4.468580e+00
  -6.076173e+01   4.873232e+00
  -9.987200e+01  -2.278715e+01
  -3.244502e+01  -7.658280e+01
   5.470673e+01  -1.427157e+02
   1.275404e+02  -1.254349e+02
   1.846008e+02   2.995254e+00
   5.653447e+01   9.949159e+01
  -1.851319e+01   1.085405e+02
  -9.312805e+01   6.515565e+00
  -6.663078e+01   1.531021e+01
   6.495627e+01  -5.233368e+01
   1.104917e+02   7.669952e+01
   1.109654e+02   8.614112e+01
  -7.448825e+01   1.400863e+02
  -1.846528e+02   4.038959e+01
  -1.274099e+02  -4.311012e+01
  -1.979550e+01  -9.733732e+01
   6.307857e+01  -3.996012e+01
   9.232274e+01  -6.187397e+00
  -4.045207e+01   9.269156e+01
  -9.302945e+01   2.850082e+01
  -3.136796e+01  -8.205316e+01
   5.517373e+01  -1.470197e+02
   1.639005e+02  -6.775862e+01
   1.722032e+02   9.852694e+01
   1.699169e+01   1.930324e+02
  -8.954484e+01   1.419495e+02
  -8.139870e+01  -4.846079e+00
  -7.539430e+01  -1.109541e+02
  -8.924732e+00  -9.721801e+01
   2.215740e+01  -7.099240e+01
   3.713586e+01   7.424844e+00
   1.289748e+01  -2.097584e+01
  -3.458345e+01   1.658351e+00
   4.738837e+01  -2.691467e+01
   6.868976e+01   7.237932e+01
   7.185567e+01   9.092643e+01
  -4.443522e+01   6.223204e+01
  -1.815583e+02   5.421414e+00
  -1.229707e+02  -4.875342e+01
  -5.363841e+01  -7.552242e+00
   9.236538e+01  -3.377796e+01
   1.725963e+01  -3.365269e+01
   5.755926e+01   2.758024e+01
  -5.552988e+01  -1.240434e+01
   2.273975e+01  -2.095992e+00
   3.180296e+01  -8.970259e+00
   3.629814e+01   2.244807e+01
  -3.877341e+01   2.948133e+01
  -6.532812e+01   8.615011e+00
   9.691460e+00  -8.275690e+01
   1.178825e+02  -8.595190e+01
   1.258734e+02  -2.553093e+01
   1.093906e+02   4.390326e+01
  -6.234350e+01   1.674823e+02
  -6.885192e+01   1.750976e+02
  -9.432044e+01   7.420165e+01
  -2.910701e+01  -2.970458e+01
  -1.649392e+01  -2.466487e+01
   2.258361e+00   7.017868e+00
  -1.243393e+01  -2.641385e+01
  -1.944595e+01  -5.051728e+01
   2.172462e+01  -1.104119e+02
   4.107797e+01  -6.630498e+01
   1.020811e+02  -1.319183e+01
   1.131086e+02   1.134500e+02
   5.014496e+01   1.256666e+02
  -2.813441e+01   2.646705e+01
  -1.130091e+02  -5.870296e+01
  -3.545953e+01  -5.119131e+01
   1.552900e+01  -5.129292e+00
   6.715740e+01   4.910181e+01
  -3.007821e+01   5.972379e+01
  -6.630587e+01   4.711722e+01
  -8.689477e+01  -2.339909e+00
   1.952906e+00   1.534702e+01
   7.541570e+01  -2.164470e+01
   4.405813e+01   1.394000e+01
  -8.295921e+01   1.334393e+01
  -1.232490e+02   4.860980e+01
  -3.549694e+01  -9.028408e+00
  -8.357808e+00  -1.137579e+01
   1.015875e+02  -8.024524e+01
  -5.977611e+00   2.338569e+01
   3.903421e+01   7.841387e+01
  -4.252986e+01   8.842057e+01
  -5.933645e+01  -1.422105e+01
  -4.233498e+01  -5.742132e+01
  -1.879720e+00  -6.891342e+01
   4.034856e+00   3.891767e+01
   4.510635e+01  -1.393637e+01
   2.532508e+01   1.573975e+00
   3.703753e+01  -6.151041e+01
   4.871103e+00   1.937135e+01
  -9.231330e+00   1.896690e+01
   2.221157e+00   6.011614e+01
   9.575145e+00   2.667262e+01
  -1.503684e+01  -6.997013e+01
   2.783993e+01  -1.146645e+02
   2.934383e+01  -5.049451e+01
   3.354306e+01   4.365348e+01
  -3.654715e+01   8.179410e+01
  -1.202958e+02  -3.814837e+00
  -1.073977e+02  -3.894233e+01
  -1.450550e+01  -3.988314e+01
   5.660155e+01  -1.385486e+01
   1.034162e+02  -1.612899e+00
   2.417913e+01   2.893992e+01
  -4.888233e+01   1.429700e+00
  -4.804672e+01   8.664499e+00
   1.144636e+01  -3.031975e+01
   6.616646e+01  -4.708276e+00
