
 $NMID
 id='ANONYMOUS ', fmtdat='(2E16.6)'
 volume=1.0
 tramp=1.0
 $END
   4.599967e+03   2.461544e+02
   2.875261e+03   2.868447e+03
  -5.768945e+02   3.092987e+03
  -2.331798e+03   1.294407e+03
  -9.949294e+02  -6.977542e+02
   7.838833e+02  -6.212595e+02
   1.164731e+03   4.215713e+02
   7.084397e+01   1.189191e+03
  -6.856642e+02   9.001489e+02
  -1.032179e+03   1.684073e+00
  -4.512657e+02  -1.050006e+03
   1.390001e+02  -8.776935e+02
   7.364699e+02  -1.709684e+02
   5.983168e+02   8.292448e+02
  -4.407621e+02   7.492403e+02
  -7.230102e+02   2.158347e+02
  -2.620836e+02  -7.868612e+02
   4.626143e+02  -7.144119e+02
   7.095755e+02  -2.287150e+02
   5.297186e+02   2.903014e+02
   2.382657e+02   4.520928e+02
  -2.574832e+02   5.645247e+01
  -1.999541e+02  -2.552276e+01
   1.516149e+02  -2.583523e+01
   4.196972e+02  -1.219187e+01
   3.291318e+02   4.238738e+02
  -4.893234e+02   4.546433e+02
  -9.302094e+02  -1.207369e+02
  -6.089714e+02  -5.655425e+02
   4.964417e+02  -5.911638e+02
   8.015176e+02  -7.593630e+01
   3.234716e+02   5.730107e+02
  -3.684187e+02   5.313154e+02
  -6.515814e+02   2.320062e+02
  -3.491771e+02  -2.370212e+02
  -6.703205e+01  -5.592812e+02
   2.847331e+02  -2.375187e+02
   2.140887e+02   2.596747e+02
  -1.759943e+02   4.370901e+02
  -4.451535e+02  -2.494428e+01
  -2.106217e+02  -7.428536e+02
   3.968321e+02  -7.647866e+02
   6.113068e+02   5.267323e+01
   2.992541e+02   5.684162e+02
  -2.608252e+02   3.444831e+02
  -3.610475e+02  -2.532786e+02
   6.817067e+01  -5.838614e+02
   5.902347e+02  -1.514102e+02
   6.232690e+02   4.454667e+02
   1.388675e+02   6.652840e+02
  -4.205138e+02   3.897763e+02
  -6.959645e+02  -1.068653e+02
  -3.565344e+02  -4.249242e+02
   2.165981e+02  -3.356693e+02
   4.863660e+02  -1.342718e+00
   2.458207e+02   2.229578e+02
  -1.699200e+02   1.711016e+02
  -1.803712e+02  -1.297558e+02
   1.169096e+02  -1.953072e+02
   3.522733e+02  -7.573633e+00
   1.821708e+02   2.723742e+02
  -1.782223e+02   2.998732e+02
  -3.643012e+02   1.226277e+02
  -2.224811e+02  -6.252834e+01
   1.993315e+01  -2.651408e+02
   2.346784e+02  -3.375011e+02
   2.809239e+02  -2.316251e+02
   2.137020e+02   1.421490e+02
   8.247804e+01   4.511152e+02
  -1.492920e+02   3.873098e+02
  -9.663555e+01   1.168666e+02
  -1.850523e+00  -7.159870e+00
  -1.598481e+01   1.144125e+02
  -1.987160e+02   1.509543e+02
  -3.081120e+02  -4.802665e+00
  -2.172551e+02  -2.778163e+02
   9.696247e+00  -2.310216e+02
   2.350386e+02  -2.269098e+01
   1.827134e+02   1.969816e+02
  -1.972712e+01   2.643123e+02
  -2.867100e+02   7.147008e+01
  -3.273808e+02  -1.543026e+02
  -1.536385e+02  -4.142390e+02
   1.358103e+02  -3.737983e+02
   2.737982e+02  -1.835367e+02
   1.352905e+02   1.443805e+01
   1.158323e+02  -3.245872e+01
   2.493750e+02  -5.702941e+01
   3.950174e+02   1.681871e+01
   3.001484e+02   2.629539e+02
  -2.700412e+01   4.834999e+02
  -3.444961e+02   3.890705e+02
  -4.685843e+02   2.240695e+02
  -3.107597e+02  -1.043475e+02
  -9.189954e+01  -2.625878e+02
   1.156798e+02  -2.826385e+02
   8.558538e+01  -9.227078e+01
  -8.936336e+01   1.179157e+02
  -2.236624e+02   3.740216e+01
  -7.919468e+01  -1.481041e+02
   1.249703e+02  -1.817493e+02
   1.840120e+02  -1.792408e+01
  -1.419877e+01   1.237001e+02
  -2.119799e+02   4.344285e+01
  -1.255231e+02  -2.535373e+02
   2.924463e+01  -3.631603e+02
   2.764079e+02  -2.206362e+02
   3.787528e+02   9.506758e+01
   2.976353e+02   2.537327e+02
   8.851733e+01   3.039034e+02
  -1.260477e+02   1.852061e+02
  -1.758204e+02   1.023009e+01
  -8.253080e+01  -1.306015e+01
   7.366317e+01   5.304152e+01
   1.455507e+01   1.530424e+02
  -1.022185e+02   1.073735e+02
  -1.548471e+02   1.665332e+00
  -4.827683e+01  -8.411777e+01
   5.779419e+01  -2.437883e+01
   4.255868e+01   9.295078e+01
  -1.080984e+02   1.206795e+02
  -2.871525e+02  -9.453219e+00
  -2.510554e+02  -1.419524e+02
  -7.591212e+01  -2.172190e+02
   2.412643e+02  -2.463107e+02
   2.898054e+02  -1.077042e+02
   1.829422e+02   7.219513e+01
  -5.040482e+01   9.407837e+01
  -1.180454e+02   1.099202e+01
   1.831026e+01  -1.071402e+02
   1.947459e+02  -1.139580e+02
   1.910486e+02   7.309112e+01
   5.233937e+01   1.692321e+02
  -1.367192e+01   1.333731e+02
  -1.074225e+02   1.261004e+01
  -4.213651e+01  -4.055260e+01
  -1.729933e+01   2.569710e+01
   6.465179e+01   1.130751e+02
  -4.709666e+01   8.845761e+01
  -2.284630e+02   5.187293e+01
  -2.158438e+02  -1.214104e+02
  -4.851564e+01  -2.057704e+02
   1.667085e+02  -1.514455e+02
   1.745301e+02   5.863603e+00
   8.288352e+01   1.332422e+02
  -9.971452e+01   9.299135e+01
  -8.764396e+01   1.426430e+01
  -6.544253e+01  -8.929212e+01
   1.582155e+01  -7.671578e+01
  -3.076690e+00  -5.888955e+01
  -9.958742e+01  -1.806525e+01
  -6.549540e+01  -6.430311e+01
  -7.248770e+00  -1.525393e+02
   1.465093e+02  -1.255024e+02
   2.673025e+02  -5.275655e+01
   1.937615e+02   1.339337e+02
   3.000199e+01   2.259309e+02
  -1.329868e+02   1.512002e+02
  -1.430639e+02  -7.625511e+00
  -6.914406e+01  -5.317650e+01
   3.732184e+01  -3.116886e+01
   6.250949e+00   2.892472e+01
  -2.391439e+01   2.780698e+01
  -1.991134e+01  -4.962549e+00
  -8.908818e-01  -8.299569e+01
   1.147154e+02  -3.231183e+01
   7.907678e+01   3.227701e+00
  -1.366584e+01   1.075172e+02
  -1.453170e+02   1.255570e+02
  -1.888575e+02  -4.059158e+01
  -1.066339e+02  -2.053133e+02
   9.746352e+01  -1.670534e+02
   2.476124e+02  -8.001542e+01
   2.383882e+02   9.531443e+01
   9.886371e+01   1.673571e+02
  -4.091261e+01   1.230408e+02
  -9.965796e+01   4.699414e+01
  -1.053028e+02   2.552749e+01
  -6.404770e+01   6.430161e+01
  -8.768930e+01   4.510554e+01
  -7.356390e+01  -4.261139e+01
  -1.025205e+02  -1.129236e+02
   1.694976e+01  -2.006442e+02
   1.062684e+02  -1.561547e+02
   1.394467e+02  -2.478445e+01
   1.055821e+02   1.383544e+02
  -2.831383e+01   1.461410e+02
  -6.772364e+01   1.235857e+02
  -7.881657e+01  -3.798562e+01
   5.463000e+01  -7.004074e+01
   3.848050e+01  -3.733414e+01
  -4.386231e+01  -2.628089e+01
  -8.166683e+01  -3.821494e+01
  -3.773213e+01  -3.678539e+01
   6.291422e+01  -3.566679e+01
   1.825856e+02  -1.193060e+01
   1.267447e+02   5.666344e+01
   7.129692e+00   7.190857e+01
  -1.335114e+02   7.856115e+01
  -1.366584e+02   1.736909e+01
  -7.343345e+01  -7.249926e+01
   7.759337e+01   2.518710e+00
   5.555817e+01   3.285492e+00
   1.999168e+01   8.312707e+01
  -7.175427e+01   1.718414e+01
  -1.073708e+02  -1.435184e+01
  -2.973564e+01  -6.588215e+01
  -2.177987e+01  -4.107195e+01
  -2.413596e+00  -1.015669e+01
  -4.588511e+01  -4.356384e+01
   5.175260e+00  -6.206346e+01
   2.309648e+01  -1.117554e+02
   1.114911e+02  -8.963321e+01
   1.246328e+02  -3.366045e+01
   9.345430e+01   8.180005e+01
   2.584516e+00   9.126276e+01
  -1.031777e+02   4.593130e+01
  -5.806814e+01  -3.859851e+01
   5.033605e+01  -4.189387e+01
   2.008499e+02   4.542168e+01
   7.458145e+01   9.785302e+01
  -5.793012e+01   1.082138e+02
  -2.377116e+02   5.458562e+01
  -1.690694e+02   1.440184e+01
  -6.086805e+01  -6.721811e+01
   8.116688e+01  -5.517806e+01
   3.100480e+01  -2.262155e+01
  -6.224081e+01   3.614262e+01
  -9.395011e+01  -2.902869e+00
  -4.730455e+01  -1.041086e+02
   6.815790e+01  -1.416391e+02
   1.508381e+02  -7.152818e+01
   1.028793e+02   6.260697e+01
  -1.370373e+01   1.696523e+02
  -5.520245e+01   1.464947e+02
  -5.706295e+01  -4.688420e+01
  -3.344904e+01  -1.056856e+02
   4.789254e+01  -7.971211e+01
   5.880930e+01  -6.010606e+01
   3.852490e+01   9.446699e+01
   3.245114e+01   1.401828e+01
  -2.684850e+01  -2.441830e+01
  -6.669523e+00   4.133646e+01
   2.740077e+01   8.099484e+01
   3.775435e+01   1.119604e+02
  -5.187730e+01   3.608770e+01
  -1.443660e+02  -2.946535e+01
  -1.377475e+02  -8.149823e+01
  -1.659773e+01  -8.074368e+01
   1.289450e+02  -3.670005e+01
   6.664410e+01  -5.486693e+00
   1.821021e+01   2.713109e+01
  -5.031154e+01   3.195473e+01
  -5.622834e+01   5.395309e+00
  -2.649841e-01   1.422573e+01
   8.757240e+00  -6.090744e+01
  -8.656404e+01  -3.682236e+01
  -8.939982e+01  -3.859507e+01
  -2.596863e+01  -1.042514e+02
   9.783826e+01  -1.366143e+02
   1.791907e+02  -6.043144e+01
   1.388927e+02   6.603950e+01
   1.073745e+01   1.593254e+02
  -5.481135e+01   1.313584e+02
  -8.824213e+01   4.986862e+01
  -6.848737e+01  -3.263363e+01
  -1.221236e+00  -6.193155e+01
  -2.098259e+01  -2.032246e+01
  -2.407646e+01   2.765287e+00
  -6.377575e+01  -2.067894e+01
  -7.745272e+01  -7.453743e+01
   2.346827e+01  -8.059684e+01
   8.693397e+01  -1.927733e+01
   8.438502e+01   1.224686e+02
   5.451034e+01   1.282625e+02
  -1.128774e+02   6.761589e+00
  -1.430646e+02  -6.856908e+01
   1.751102e+01  -1.079555e+02
   1.007860e+02  -4.920669e+01
   1.557328e+02   3.313513e+01
   4.466077e+01   9.098178e+01
  -1.285511e+01   2.857710e+01
  -6.316971e+01   4.293118e+01
   3.718589e+01  -7.505409e+00
   1.260007e+02   4.877442e+00
   2.436249e+01   1.969993e+01
  -9.508567e+01   5.094887e+01
  -1.462722e+02   7.256900e+01
  -6.336518e+01  -3.956633e+00
   2.957541e+01  -8.307786e+01
   6.536447e+01  -8.553920e+01
   2.314078e+01  -4.405819e+01
   1.790988e+01   4.571676e+01
  -6.152432e+01   1.084787e+02
   1.055378e+01   1.070894e+01
  -1.277702e+01  -6.698578e+01
   5.958518e+00  -4.114935e+01
   5.361373e+01   1.387994e+01
   4.547382e+01   5.066606e+01
   1.786075e+01   1.225842e+01
  -4.588270e+01   7.768488e-01
  -1.195632e+01  -3.153550e+01
  -7.873048e-01   2.752562e+00
  -1.230974e+01  -1.321168e+00
  -2.402307e+01   2.912993e+00
  -6.835096e+01  -4.824399e+01
  -1.147784e+01  -6.429881e+01
   2.994281e+01  -3.814750e+01
   7.652054e+01   3.624013e+01
   1.517114e+01   6.945900e+01
  -3.618451e+01   2.961400e+01
  -6.553194e+01  -1.809636e+01
  -4.720960e+01  -6.347968e+01
  -2.105289e+00  -1.342035e+01
   6.895516e+01   7.147632e+00
   2.685028e+01   1.694579e+01
  -4.686900e+01   1.910762e+01
  -2.000453e+00   8.675810e+00
   6.772630e+01  -3.423007e+01
   9.629818e+01  -4.373056e+01
