
 $NMID
 id='ANONYMOUS ', fmtdat='(2E16.6)'
 volume=1.0
 tramp=1.0
 $END
  -4.979402e+03  -1.237872e+01
  -2.704948e+03  -3.298642e+03
   1.136307e+03  -3.426970e+03
   2.593518e+03  -7.456619e+02
   1.058037e+03   1.000962e+03
  -8.430642e+02   6.975295e+02
  -1.161609e+03  -5.489289e+02
  -3.204285e+01  -1.345837e+03
   1.060062e+03  -9.514273e+02
   1.065671e+03  -4.980416e+00
   6.704893e+02   9.644830e+02
  -4.246468e+02   1.000411e+03
  -6.766460e+02   6.772468e+01
  -4.957436e+02  -8.532516e+02
   4.166329e+02  -9.120817e+02
   7.160357e+02  -1.625481e+02
   1.278101e+02   8.118267e+02
  -3.459810e+02   9.257649e+02
  -7.308318e+02  -7.310003e+01
  -4.728135e+02  -5.229892e+02
  -4.400375e+01  -4.897687e+02
   2.508747e+02  -1.886651e+02
   2.773290e+02  -1.026657e+02
  -3.161118e+02   2.073680e+02
  -4.288227e+02  -2.800387e+02
  -2.055826e+02  -4.913909e+02
   4.795129e+02  -4.031787e+02
   9.999222e+02   8.138548e+01
   4.119844e+02   5.957287e+02
  -4.531440e+02   5.915800e+02
  -7.736224e+02  -9.305212e+00
  -4.233687e+02  -5.127468e+02
   2.764130e+02  -5.744255e+02
   6.670829e+02  -2.223375e+02
   4.029868e+02   2.761672e+02
  -7.400517e+00   5.475271e+02
  -2.021512e+02   3.600551e+02
  -1.855381e+02  -2.587678e+02
   2.147420e+02  -5.454418e+02
   5.517317e+02   3.120158e+00
   2.553860e+02   6.339054e+02
  -2.728648e+02   8.119206e+02
  -6.394208e+02   7.905836e+01
  -3.192245e+02  -5.792035e+02
   3.489887e+02  -3.833759e+02
   5.085449e+02   3.808223e+02
  -2.377234e+01   6.092587e+02
  -6.438067e+02   2.032882e+02
  -6.461815e+02  -4.218578e+02
  -1.142536e+02  -6.249303e+02
   4.205974e+02  -3.031588e+02
   6.233328e+02   1.632721e+02
   3.337821e+02   4.498688e+02
  -2.022181e+02   3.914175e+02
  -4.495817e+02   3.587763e+01
  -2.420361e+02  -2.643146e+02
   1.367904e+02  -1.427677e+02
   1.490790e+02   1.581427e+02
  -2.100202e+02   2.571494e+02
  -3.938417e+02  -5.874719e+01
  -9.715622e+01  -2.792383e+02
   2.097725e+02  -2.887426e+02
   2.999446e+02  -4.222105e+01
   1.355529e+02   5.027906e+01
  -5.045458e+01   2.009422e+02
  -1.944564e+02   2.914704e+02
  -3.559127e+02   1.635404e+02
  -2.707297e+02  -1.475627e+02
  -5.702652e+01  -4.675522e+02
   1.907638e+02  -3.882871e+02
   2.169053e+02  -5.755262e+01
   4.297952e+01   3.076406e+01
   1.180925e+01  -5.073277e+01
   1.628167e+02  -1.387417e+02
   2.757187e+02   1.059278e+02
   1.826874e+02   3.113632e+02
  -4.738668e+01   2.966387e+02
  -2.611298e+02   3.448923e+01
  -2.523880e+02  -2.662494e+02
   2.780348e+00  -3.673080e+02
   2.800897e+02  -1.227301e+02
   3.456970e+02   2.174034e+02
   1.648543e+02   3.911070e+02
  -1.491111e+02   2.953248e+02
  -2.249124e+02   7.764788e+01
  -1.322129e+02  -8.386496e+01
  -5.660164e+01   3.645539e+00
  -1.860019e+02   8.228554e+01
  -4.461378e+02  -5.223877e+01
  -3.473123e+02  -2.742883e+02
   4.443307e+01  -4.066747e+02
   3.860747e+02  -3.859541e+02
   5.151460e+02  -1.990504e+02
   3.605543e+02   1.195829e+02
   8.018743e+00   3.085463e+02
  -1.756850e+02   2.865939e+02
  -1.065157e+02   4.342225e+01
   8.459860e+01  -7.287625e+01
   2.295442e+02   9.960969e+00
   5.833248e+01   2.395912e+02
  -1.786300e+02   1.585364e+02
  -2.582331e+02  -9.982797e+01
   1.033639e+01  -2.734024e+02
   1.845882e+02  -7.789207e+01
   1.825264e+02   2.349019e+02
  -1.517732e+01   3.621863e+02
  -2.221885e+02   2.157912e+02
  -3.068824e+02  -1.118282e+02
  -2.321072e+02  -2.547535e+02
  -6.968260e+01  -2.471738e+02
   5.079562e+01  -1.204938e+02
   1.484444e+02   1.726733e+01
   1.475222e+01   3.922767e+01
  -7.088625e+01  -2.246822e+01
   1.550123e+01  -1.167443e+02
   1.868751e+02  -1.329954e+02
   2.305647e+02   1.348180e-01
   9.453095e+01   1.183570e+02
  -1.269157e+02   8.640437e+01
  -9.263444e+01  -4.180363e+00
   1.096231e+02  -9.132220e+01
   3.004080e+02  -3.039332e+01
   2.473137e+02   1.529287e+02
   4.213431e+01   2.491369e+02
  -2.117298e+02   2.743627e+02
  -3.185381e+02   1.318782e+02
  -2.031636e+02  -8.274370e+01
   1.045869e+01  -9.220024e+01
   1.101866e+02   4.684084e+01
  -3.007977e+01   1.328988e+02
  -1.868594e+02   9.332583e+01
  -2.409551e+02  -9.706887e+01
  -9.255963e+01  -2.116917e+02
   1.340318e+02  -1.795648e+02
   1.857877e+02  -1.011132e+01
   1.088842e+02   5.902406e+01
  -2.241100e+01   7.705709e+01
  -5.128268e+01  -6.522727e+01
   7.477445e+01  -1.243025e+02
   1.837321e+02  -6.514041e+01
   1.501551e+02   1.416200e+02
  -5.160193e+00   2.293011e+02
  -1.999763e+02   1.649674e+02
  -2.322506e+02   1.687133e+01
  -1.036363e+02  -8.712426e+01
   1.505568e+01  -8.397408e+01
   5.351327e+01  -6.488372e+01
   6.989054e+01  -3.370101e+00
  -5.214256e+00   1.759727e+01
   5.568139e+00   5.956761e+00
   1.140017e+02   1.379342e+01
   3.421443e+01   1.147874e+02
   1.514975e+01   1.356624e+02
  -1.081364e+02   1.439317e+02
  -2.705220e+02   7.531051e+01
  -2.801094e+02  -1.576759e+02
  -5.425418e+01  -2.639695e+02
   1.101413e+02  -1.774673e+02
   1.638444e+02  -8.111384e+01
   8.481645e+01   2.685108e+01
  -5.265184e+00   8.503253e+01
   6.213885e+01   1.042587e+01
   1.106075e+02   2.583496e+01
   3.173984e+01   6.409275e+01
  -8.707300e+01   6.148311e+01
  -1.272998e+02   1.533395e+01
  -8.058166e+01  -4.345612e+01
   3.260040e+01  -1.067514e+02
   1.676802e+02  -8.803096e+01
   2.288627e+02   2.152332e+01
   1.280513e+02   1.978877e+02
  -7.345588e+01   2.588601e+02
  -2.879979e+02   9.887877e+01
  -2.574638e+02  -3.602577e+01
  -1.369666e+02  -1.448860e+02
   6.117055e-02  -1.430440e+02
   9.521931e+01  -7.465815e+01
   5.590696e+01  -8.850197e+01
   8.914664e+01  -1.472754e+02
   1.811136e+02  -5.137778e+01
   1.526389e+02   3.725319e+01
   1.259778e+02   1.824442e+02
   5.566602e+01   2.099634e+02
  -1.251073e+02   1.662934e+02
  -1.373838e+02   8.828925e+00
  -1.281051e+02  -1.026420e+02
  -9.121884e+00  -1.134906e+02
   9.670781e+01  -9.761578e+01
   6.681064e+01  -1.128617e+01
  -1.311403e+01   4.539080e+01
  -3.771394e+00   7.728003e+00
   5.515932e+01   4.989100e+01
   8.779438e+01   2.263521e+01
   2.182587e+01   3.577058e+01
  -7.166757e+01   6.884847e+01
  -1.677357e+02   2.326574e+01
  -1.540212e+02  -8.280466e+01
  -1.383406e+01  -1.203015e+02
   1.230910e+02  -1.349746e+02
   2.087408e+02  -1.531724e+01
   6.794356e+01   7.211036e+01
  -1.739975e+01   2.354844e+01
  -5.707860e+01   4.070412e+01
  -1.852429e+00  -5.417154e+01
   7.862287e+01  -3.926506e+01
   9.958205e+01   2.861941e+01
   1.438317e+01   7.015696e+01
   4.065561e+01   5.050039e+01
   6.744052e+01   1.009360e+01
   5.502735e+01  -3.428424e+01
   1.422768e+01   3.584464e+01
  -4.320828e+00   1.741409e+02
  -1.281931e+02   1.685012e+02
  -1.450149e+02   4.186828e+01
  -1.483781e+02  -6.264803e+01
  -2.684921e+01  -9.736212e+01
   1.039043e+02  -6.344080e+01
   6.657357e+01   4.176933e+01
  -9.536318e+01   2.066799e+01
  -1.249110e+02  -7.159864e+01
  -3.175669e+01  -1.151161e+02
   9.720037e+01  -1.239896e+02
   2.004783e+02  -5.655876e+01
   1.566351e+02   2.209730e+01
  -1.266645e+00   5.148564e+01
  -5.570362e+01   4.166057e+01
  -7.295636e+01   4.841976e+01
   1.738046e+01  -3.598415e+01
   1.317619e+02   2.281315e+01
   2.566185e+01   9.667832e+01
  -1.067049e+02   1.727970e+02
  -1.759531e+02   7.742790e+01
  -1.450098e+02  -1.056595e+02
   8.704267e+00  -2.224302e+02
   1.347625e+02  -1.219714e+02
   1.353779e+02   4.510589e+01
   2.725422e+01   1.133734e+02
  -2.275812e+01   1.019469e+02
  -5.376362e+01  -2.923428e+01
  -3.668455e+01  -5.086144e+01
  -1.417856e+01   1.539529e+01
  -1.957584e+01   2.083797e+01
  -3.119249e+01   1.007962e+01
  -6.661930e+01  -8.077507e+01
  -6.103720e+01  -1.278206e+02
   3.774390e+01  -5.283201e+01
   1.414098e+02   6.597050e+01
   7.424102e+01   4.443668e+01
  -2.094171e+01   4.872875e+01
  -9.011989e+01   4.074378e+01
  -5.110231e+01  -1.545076e+01
   6.290358e+01  -4.837942e+01
   4.547714e+01  -5.262860e+01
   1.317587e+01  -4.103140e+01
   2.780809e+00   2.287373e+01
   2.934668e+01   2.595735e+01
   8.470463e+01   2.010186e+01
   7.732326e+01   2.784285e+01
   9.885219e+00   4.427743e+01
  -9.958110e+01   1.251396e+02
  -1.723891e+02   6.160978e+01
  -1.126636e+02  -3.048822e+01
   2.608044e+01  -1.668641e+02
   8.725002e+01  -1.289699e+02
   9.940831e+01  -3.221473e+01
   1.045873e+02   3.162900e+01
   3.011260e+01   9.139040e+01
  -1.925670e+01   7.787878e+00
   2.618025e+01  -2.514090e+01
   2.223855e+01   8.113948e+01
  -9.115246e+00   7.836001e+01
  -5.762426e+01   5.503901e+01
  -1.568186e+02  -3.334639e+00
  -9.390022e+01  -1.578919e+02
   8.392982e+00  -1.762386e+02
   8.398517e+01  -2.381293e+01
   8.519191e+01   4.045029e+01
   5.706824e+01   6.925499e+01
  -7.839831e+01   2.587602e+01
  -9.793513e+01   4.447677e+00
  -3.833293e+01  -2.480712e+01
   1.094452e+01  -4.159855e+01
   3.966346e+01  -5.767638e+01
  -5.596663e+01  -4.567947e+01
  -4.454048e+01  -2.443997e+01
   1.167646e+01  -4.144643e+01
   4.918221e+01  -5.171053e+01
   8.321425e+01   1.564980e+01
   8.222813e+01   4.587974e+01
  -2.866203e+01   6.529859e+01
  -5.832901e+01   4.050641e+01
  -1.271427e+01  -3.852929e+01
   6.174538e+00  -5.225859e+01
   6.994537e+00  -3.593678e+01
   3.384609e+01  -4.082247e+01
   3.401366e+01   5.456515e+01
  -1.956135e+01   5.812408e+01
  -1.824034e+01  -1.839269e+01
  -5.506254e+01  -1.705932e+01
  -2.562038e+00  -4.635469e-01
  -2.519265e+01  -3.713283e+01
  -3.252334e-01  -2.153021e+01
   3.541975e+01  -5.568737e+01
   1.725959e+01  -4.215801e+01
  -7.398164e+00   2.013193e+01
   1.292106e+01   3.368933e+01
   1.019201e+01   4.177329e+01
  -6.717903e+01   4.807330e+01
  -7.161727e+01  -6.163392e+01
   2.064098e+00  -8.835501e+01
   7.979242e+01  -2.640846e+01
   7.177324e+01   5.513989e+01
  -1.553197e+01   4.424048e+01
  -7.631165e+01   4.319195e+00
  -6.849075e+01   1.309629e+01
  -2.203741e+01   8.222938e-01
   3.752913e+01   3.607502e+01
   8.569456e+01   1.289464e+01
  -4.099123e+01   2.363542e+01
  -6.752238e+01   8.049123e+00
