
 $NMID
 id='ANONYMOUS ', fmtdat='(2E16.6)'
 volume=1.0
 tramp=1.0
 $END
   4.419553e+03  -1.258881e+02
   2.619840e+03   3.194506e+03
  -9.226586e+02   3.237206e+03
  -2.339780e+03   9.094401e+02
  -8.858697e+02  -9.422880e+02
   7.110794e+02  -8.101449e+02
   1.123351e+03   7.274404e+02
   8.539009e+01   1.211718e+03
  -1.120967e+03   8.284459e+02
  -1.025132e+03  -8.985714e+01
  -5.528920e+02  -8.542405e+02
   4.943176e+02  -1.091598e+03
   8.201027e+02  -1.026781e+02
   4.054385e+02   8.472528e+02
  -4.424762e+02   7.624623e+02
  -6.924310e+02  -1.159207e+02
  -7.517047e+01  -8.057465e+02
   3.796409e+02  -7.355382e+02
   5.935536e+02   6.680653e+01
   3.587412e+02   6.396333e+02
  -6.153101e+01   4.554826e+02
  -1.451574e+02   4.410470e+02
  -1.503512e+02  -7.572766e+01
   1.805448e+02  -1.010788e+02
   4.159626e+02   8.320799e+01
   2.321876e+02   5.121773e+02
  -5.562572e+02   4.644101e+02
  -9.397706e+02  -1.351972e+02
  -5.126531e+02  -6.944719e+02
   3.780701e+02  -7.232650e+02
   8.397058e+02  -4.027249e+01
   3.278985e+02   4.734101e+02
  -3.156944e+02   5.284001e+02
  -4.930784e+02   2.084589e+02
  -3.723691e+02  -1.678747e+02
  -1.131236e+02  -4.757958e+02
   2.806990e+02  -2.793953e+02
   2.882794e+02   2.861350e+02
  -1.955884e+02   4.878493e+02
  -5.525726e+02   6.030781e+01
  -3.119281e+02  -7.361048e+02
   4.007704e+02  -7.421896e+02
   6.642187e+02   4.312815e+00
   2.354510e+02   6.689458e+02
  -4.088827e+02   4.028021e+02
  -4.623600e+02  -3.973195e+02
   1.278214e+02  -6.211813e+02
   6.392529e+02  -2.182557e+02
   6.008409e+02   4.417287e+02
   1.393562e+02   6.387814e+02
  -3.891193e+02   3.421824e+02
  -6.225683e+02  -3.929591e+01
  -3.652913e+02  -3.759884e+02
   1.387802e+02  -3.443590e+02
   4.355357e+02  -6.384075e+01
   2.403325e+02   2.356682e+02
  -1.483197e+02   1.397513e+02
  -1.070425e+02  -1.817696e+02
   2.353439e+02  -2.003382e+02
   4.001231e+02   7.342337e+01
   1.467494e+02   3.439271e+02
  -2.382566e+02   2.634721e+02
  -3.223222e+02   5.683358e+01
  -1.676199e+02  -4.661941e+01
   4.878532e+01  -2.020647e+02
   2.192138e+02  -2.478166e+02
   3.350150e+02  -2.256286e+02
   3.623489e+02   1.183562e+02
   5.918101e+01   4.792644e+02
  -1.896890e+02   3.790122e+02
  -1.853313e+02   1.397021e+02
  -5.099623e+01  -6.586543e+01
   3.132481e+01   1.107921e+02
  -1.779394e+02   1.780998e+02
  -2.543731e+02  -2.968714e+01
  -1.972597e+02  -2.602177e+02
   6.494658e+01  -3.287708e+02
   2.450834e+02  -3.561215e+01
   1.794834e+02   1.993589e+02
   2.732924e+01   3.288929e+02
  -3.129102e+02   1.986186e+02
  -3.853490e+02  -2.215116e+02
  -2.093325e+02  -4.168279e+02
   1.858843e+02  -4.035095e+02
   3.692174e+02  -1.074341e+02
   2.147306e+02   9.311143e+01
   6.888378e+01   4.554006e+00
   1.636593e+02  -3.314793e+01
   3.757942e+02   5.603908e+01
   3.080987e+02   3.173278e+02
  -1.717733e+01   4.753688e+02
  -3.795377e+02   3.564914e+02
  -5.303321e+02   1.821843e+02
  -3.741658e+02  -1.424588e+02
  -5.230237e+01  -2.898925e+02
   1.589186e+02  -2.576107e+02
   1.117194e+02  -3.861920e+01
  -1.086227e+02   1.419551e+02
  -2.453180e+02  -5.516041e+01
  -7.197003e+01  -1.925805e+02
   1.836180e+02  -1.973887e+02
   2.227797e+02   1.043424e+01
  -4.122343e+01   2.156931e+02
  -2.236457e+02  -6.421357e+00
  -1.197267e+02  -2.463912e+02
   7.748041e+01  -3.666127e+02
   2.606852e+02  -1.454184e+02
   3.486044e+02   1.182787e+02
   2.622242e+02   2.565099e+02
   1.349753e+02   2.503204e+02
  -1.302579e+02   1.450912e+02
  -1.756085e+02   4.081412e-01
  -4.732437e+01  -2.585974e+01
   9.411245e+01   1.021422e+01
   5.632127e+01   1.318676e+02
  -1.635656e+02   1.312741e+02
  -2.117180e+02  -1.952962e+01
  -1.013288e+02  -5.617530e+01
   9.423061e+01  -3.616155e+01
   1.688886e+01   6.982161e+01
  -1.862461e+02   7.705908e+01
  -2.743495e+02  -3.052530e+01
  -2.620760e+02  -1.385090e+02
  -1.683484e+01  -3.089419e+02
   2.381776e+02  -2.980102e+02
   3.508064e+02  -1.711672e+02
   2.223882e+02   4.899540e+01
   1.174501e+00   1.299860e+02
  -8.127031e+01   1.067873e+00
   2.259873e+01  -7.130574e+01
   1.900541e+02  -3.682470e+01
   2.556091e+02   1.087854e+02
   5.809879e+01   2.138088e+02
  -1.165312e+02   1.390346e+02
  -1.657463e+02   7.399045e+01
  -1.094842e+02  -1.510753e+01
  -4.233693e-01   2.420084e+01
   9.526855e+00   7.303384e+01
  -6.653713e+01   7.173016e+01
  -1.603890e+02   2.425536e+01
  -1.842708e+02  -1.135323e+02
   4.675563e+01  -2.504668e+02
   1.590178e+02  -1.138949e+02
   2.000875e+02   1.353458e-01
   1.402325e+01   1.533872e+02
  -7.993884e+01   1.390015e+02
  -8.391456e+01   4.185085e+01
  -1.329264e+01  -3.139681e+01
   1.944061e+01  -8.895722e+00
  -6.589919e+01  -6.282773e+00
  -8.528602e+01  -5.576921e+01
  -5.125355e+01  -8.830167e+01
   7.918161e+00  -1.478841e+02
   1.419057e+02  -1.097894e+02
   2.250736e+02   2.055729e+01
   2.282261e+02   1.316016e+02
  -6.763201e-01   1.911144e+02
  -1.304515e+02   1.574884e+02
  -1.518529e+02   1.105898e+01
  -5.815790e+01  -2.544031e+01
  -2.380226e+01  -3.308868e+01
  -5.546343e+01   4.688944e+01
  -7.301116e+01  -2.355983e+01
  -5.071593e+01  -6.567733e+01
   3.353385e+01  -5.445324e+01
   1.134530e+02  -2.587865e+01
   8.741420e+01   4.718103e+01
  -3.558077e+01   1.391782e+02
  -1.329633e+02   7.714062e+01
  -2.229472e+02  -2.380327e+01
  -1.143894e+02  -1.746836e+02
   1.382534e+02  -2.554303e+02
   3.335295e+02  -1.294910e+02
   2.987722e+02   1.001456e+02
   1.159941e+02   2.059274e+02
  -1.448605e+01   1.922839e+02
  -1.422638e+02   9.475623e+01
  -1.319736e+02   7.626263e+01
  -1.056755e+02   7.063103e+01
  -8.091617e+01   2.752395e+01
  -1.067933e+02  -8.486718e+01
  -1.077578e+02  -1.845358e+02
  -2.124919e+01  -2.100934e+02
   9.329054e+01  -1.780809e+02
   1.857085e+02   4.407852e-01
   1.822401e+02   1.927465e+02
   4.619124e+01   1.632922e+02
  -5.576849e+01   9.509044e+01
  -7.955672e+01   2.727373e+01
  -2.090691e+01  -1.476879e+01
   1.805952e+01  -7.072478e+01
  -4.155774e+01  -3.286612e+01
  -7.041533e+01  -1.108669e+01
  -2.965276e+01  -4.034486e+01
   4.641917e+01  -2.945844e+01
   1.538791e+02  -4.527787e+01
   1.516713e+02   4.672594e+01
  -1.301039e-01   6.080536e+01
  -1.158874e+02   7.785798e+01
  -1.432038e+02   4.914423e+01
  -5.494092e+01  -4.443747e+00
   5.633971e+01  -4.679341e+01
   7.009904e+01  -1.533720e+01
   3.437779e+01   7.266053e+01
  -5.322685e+01   6.373176e+01
  -9.186937e+00   2.345628e+01
  -4.381255e+00  -8.312305e+00
  -5.266206e+01  -2.352078e+01
  -7.251669e+01  -2.005647e+00
  -9.719559e+01   3.657448e+01
  -3.443363e+01  -4.478941e+01
   3.416034e+00  -1.715223e+02
   1.082095e+02  -1.594662e+02
   1.752969e+02   8.135815e+00
   1.872602e+02   1.166393e+02
   9.656622e+00   1.092982e+02
  -9.113014e+01   8.162704e+01
  -4.676145e+01  -1.664304e+01
   9.099312e+01  -1.776842e+01
   1.550819e+02   4.163486e+01
   9.364204e+01   9.075717e+01
  -8.291499e+01   9.767194e+01
  -1.939821e+02   1.965929e+01
  -1.954070e+02  -4.138441e+01
  -3.297727e+01  -7.997769e+01
   4.369491e+01  -8.561547e+01
   2.643737e+01   7.404841e+00
  -3.601482e+01   9.406547e+00
  -6.308347e+01  -1.176358e+01
  -8.299574e+00  -9.716754e+01
   7.881498e+01  -1.341737e+02
   1.511401e+02  -4.620893e+01
   1.018813e+02   1.294033e+02
  -6.087508e+00   2.350232e+02
  -8.251296e+01   1.319039e+02
  -8.419394e+01  -2.313894e+01
  -7.211878e+01  -1.372892e+02
   1.076623e+01  -1.109487e+02
   5.038327e+01  -2.569892e+01
   6.562810e+01   1.829286e+01
   2.395288e+01  -4.123371e+01
   2.625645e+01  -1.927954e+00
   2.859784e+01   4.885304e+01
   3.943300e+01   1.174089e+02
   1.826394e+01   1.433079e+02
  -7.216591e+01  -1.238123e+01
  -1.182863e+02  -5.714255e+01
  -8.956591e+01  -4.661328e+01
   2.299657e+00   2.902531e+00
   8.575004e+01  -4.385091e+00
   9.067007e+01   1.215852e+01
   1.499638e+01  -6.916586e+00
  -3.883642e+00   3.946479e+01
   1.347420e+01   1.710179e+01
   2.247349e+01  -6.202506e+00
  -1.594186e+01  -8.034385e+00
  -1.234373e+02   8.867239e-01
  -1.179241e+02  -4.583666e+01
   2.730208e+00  -9.314628e+01
   1.223694e+02  -1.318963e+02
   2.084543e+02  -5.314472e+01
   1.384792e+02   3.766586e+01
   4.696165e+01   1.386754e+02
  -9.250666e+01   1.862978e+02
  -1.178352e+02   8.223020e+01
  -5.537198e+01  -4.701702e-01
  -6.986456e+00  -7.215022e+00
  -2.944815e+01   7.752881e+00
  -5.110211e+01  -4.550129e+01
  -5.365126e+01  -1.627166e+01
  -1.711927e+01  -6.411121e+01
   3.885971e+01  -8.396835e+01
   8.454365e+01   6.676612e+01
   5.901585e+01   1.219649e+02
  -3.748094e+01   1.127676e+02
  -9.109870e+01   1.727587e+01
  -1.124492e+02  -8.743760e+01
   3.012978e+00  -1.257144e+02
   1.373218e+02  -4.927274e+01
   8.991694e+01   3.958235e+01
   2.579950e+01   8.608756e+01
  -3.553082e+01   3.392431e+01
  -2.684712e+01   7.934007e+00
   5.845284e+01  -1.394186e+01
   4.104744e+01  -2.570164e+01
   6.414481e+00   6.772926e+01
  -7.713274e+01   5.318683e+01
  -1.064362e+02   4.065361e+01
  -5.476481e+01  -1.548781e-01
  -4.083310e+00  -9.123165e+01
   4.490355e+01  -7.892945e+01
   3.330971e+01  -1.002925e+01
  -2.375559e+01   5.351172e+01
  -6.104820e+01   4.432937e+01
  -5.704766e+01   3.156789e+01
  -1.842853e+01  -4.205934e+01
  -1.720181e+01  -3.793616e+01
  -9.135293e+00   2.213587e+01
   4.519092e+01   2.993532e+01
   9.147721e+00   4.031941e+00
  -1.216122e+01  -5.464274e+00
   2.471247e+01   2.090481e+01
   2.074290e+01   9.223467e+00
  -6.236395e+00   1.651427e+01
  -5.997334e+01   1.556614e+01
  -4.573334e+01  -6.232785e+01
   4.866423e-02  -3.975083e+01
   5.841103e+01  -1.709654e+01
   7.575086e+01   6.798865e+01
  -5.110995e+00   7.037178e+01
  -5.343281e+01   3.041931e+01
  -7.666898e+01   3.136447e+01
   1.741699e+00  -3.886002e+01
   4.379665e+01  -4.298052e+01
   6.530727e+01  -3.031037e+00
   1.190709e+01   7.541244e+00
  -2.584936e+01  -4.181278e+01
  -1.734742e+01  -2.075230e+01
   5.027362e+01  -2.751989e+01
   1.252113e+02  -4.434318e+01
