
 $NMID
 id='ANONYMOUS ', fmtdat='(2E16.6)'
 volume=1.0
 tramp=1.0
 $END
  -4.147077e+03  -8.587540e+01
  -2.612659e+03  -2.784241e+03
   8.240458e+02  -2.804135e+03
   2.163316e+03  -7.051260e+02
   9.210440e+02   7.696756e+02
  -8.114542e+02   7.093753e+02
  -8.860050e+02  -4.509398e+02
   1.489641e+02  -1.027112e+03
   9.453220e+02  -9.412508e+02
   1.099903e+03   1.018990e+02
   4.157309e+02   8.407424e+02
  -8.966463e+01   9.041174e+02
  -6.950511e+02   8.652287e+01
  -2.307663e+02  -8.728415e+02
   4.007121e+02  -7.756349e+02
   6.001633e+02   2.152862e+02
   8.045145e+01   7.221990e+02
  -2.527343e+02   4.410078e+02
  -2.910116e+02   2.653866e+02
  -4.646400e+02  -4.957482e+02
   1.255125e+02  -4.352866e+02
   1.171418e+02  -1.334810e+02
   2.315316e+02  -1.095707e+02
  -1.421345e+02   2.096986e+02
  -4.643042e+02  -2.929534e+01
  -1.921617e+02  -5.833787e+02
   2.908778e+02  -3.716390e+02
   8.319669e+02   8.109618e+01
   4.514546e+02   6.280716e+02
  -3.971648e+02   4.674383e+02
  -7.903944e+02  -2.312256e+01
  -3.518030e+02  -5.394342e+02
   3.704015e+02  -5.142981e+02
   5.943166e+02  -1.815551e+02
   3.661231e+02   2.967036e+02
   8.544932e+01   4.968704e+02
  -2.141740e+02   1.847247e+02
  -2.321900e+02  -3.506247e+02
   1.784100e+02  -3.948317e+02
   5.306489e+02   7.068158e+00
   2.148107e+02   7.342299e+02
  -4.180435e+02   8.164684e+02
  -7.556773e+02  -4.009754e+01
  -1.915641e+02  -6.625750e+02
   3.733243e+02  -3.871980e+02
   4.957038e+02   2.594306e+02
  -6.503346e+01   5.605566e+02
  -5.952712e+02   1.440531e+02
  -5.956033e+02  -4.522137e+02
  -1.179104e+02  -5.979390e+02
   4.365021e+02  -3.186399e+02
   6.298525e+02   1.327811e+02
   3.597204e+02   4.097776e+02
  -1.953208e+02   3.866910e+02
  -4.749959e+02   1.479769e+01
  -2.485949e+02  -2.670835e+02
   1.372282e+02  -1.146175e+02
   1.671660e+02   1.921550e+02
  -2.046893e+02   2.493838e+02
  -3.718835e+02  -4.031736e+01
  -1.506114e+02  -3.144193e+02
   1.997927e+02  -2.987220e+02
   2.954457e+02  -8.880276e+01
   1.786143e+02   6.040273e+01
  -1.940462e+01   2.244093e+02
  -1.915770e+02   3.279242e+02
  -3.173470e+02   2.217119e+02
  -3.258286e+02  -1.759790e+02
  -9.385259e+01  -4.393764e+02
   1.983918e+02  -3.682553e+02
   1.382658e+02  -5.026874e+01
  -3.822674e+00   4.606866e+01
  -4.907676e+01  -1.053437e+02
   1.672298e+02  -1.665991e+02
   2.861855e+02   3.181891e+01
   1.862368e+02   2.582698e+02
  -9.768201e+01   2.821002e+02
  -2.181091e+02   5.478703e+01
  -1.834028e+02  -2.719226e+02
   2.134573e+01  -3.074619e+02
   2.861475e+02  -1.137841e+02
   3.577042e+02   2.049362e+02
   1.899240e+02   3.986451e+02
  -1.114350e+02   3.209105e+02
  -2.425435e+02   8.915813e+01
  -1.726277e+02   3.750574e+01
  -1.157846e+02   3.861530e+01
  -2.631663e+02   6.384234e+01
  -4.226562e+02  -8.185017e+01
  -3.455923e+02  -3.393794e+02
   3.658194e+01  -3.973831e+02
   3.741535e+02  -3.537314e+02
   4.790106e+02  -2.027985e+02
   2.691111e+02   1.094283e+02
   5.454888e+01   3.220040e+02
  -1.291142e+02   2.730990e+02
  -7.863223e+01   3.080115e+01
   8.334544e+01  -1.111575e+02
   1.980844e+02   3.073403e+01
   5.702571e+01   2.377690e+02
  -1.520951e+02   2.230437e+02
  -2.134165e+02  -1.087677e+02
   2.213989e+01  -2.046663e+02
   2.027179e+02  -5.356520e+01
   1.539393e+02   2.589599e+02
  -9.247386e+00   3.525173e+02
  -2.146092e+02   2.138703e+02
  -2.945509e+02  -5.077156e+01
  -2.720671e+02  -2.627915e+02
  -1.050155e+02  -2.509493e+02
   8.414150e+01  -1.553285e+02
   1.857851e+02  -1.264522e+01
   2.632795e+01  -4.755695e+00
  -8.230479e+01  -7.157493e+01
  -1.098695e+01  -1.251778e+02
   1.296328e+02  -8.793095e+01
   2.009194e+02   2.451354e+01
   7.995429e+01   8.781461e+01
  -9.154522e+01   2.183939e+01
  -5.382428e+01  -6.284342e+01
   1.142379e+02  -4.998515e+01
   2.543316e+02   5.501015e+01
   2.498646e+02   1.134861e+02
   3.388759e+01   2.120006e+02
  -1.524547e+02   2.305087e+02
  -2.481483e+02   1.005657e+02
  -1.521276e+02  -5.943515e+01
   1.401385e+01  -6.471172e+01
   8.484260e+01   3.310680e+01
  -4.701656e+01   1.639549e+02
  -2.074731e+02   1.148736e+02
  -1.858899e+02  -9.216764e+01
  -3.648647e+01  -1.635392e+02
   8.782785e+01  -1.635636e+02
   7.361668e+01  -3.401351e+01
   8.547784e+00   6.046591e+01
  -2.802147e+01   1.901303e+01
  -3.673126e+01  -7.158918e+01
   7.685303e+01  -9.573006e+01
   2.084973e+02  -7.610433e+01
   2.002591e+02   7.393357e+01
   2.712019e+01   2.030002e+02
  -1.872362e+02   1.699974e+02
  -1.704853e+02   4.833806e+01
  -6.759849e+01  -6.847722e+01
   5.622424e+01  -1.163499e+02
   5.667235e+01  -1.469187e+01
   4.757536e+01   1.095334e+00
  -3.957348e+01   2.112710e+00
   1.910232e+01   5.154779e+00
   5.512413e+01   3.201070e+01
   7.942664e+01   6.665773e+01
   1.158078e+01   1.260343e+02
  -1.239690e+02   1.332914e+02
  -2.007752e+02   2.005304e+01
  -1.738785e+02  -1.249949e+02
  -7.428166e+01  -2.723615e+02
   1.098306e+02  -1.963093e+02
   1.788089e+02  -4.313928e+01
   1.133135e+02   5.590812e+01
   4.615109e+01   3.605417e+01
   7.959290e+01  -2.257210e+01
   4.629093e+01  -2.598181e+01
   6.041988e+01   5.776141e+01
  -8.900340e+01   1.004502e+02
  -1.588452e+02   6.676932e+01
  -8.232190e+01  -2.296740e+01
  -1.789400e+01  -9.609669e+01
   1.587820e+02  -1.027976e+02
   2.164585e+02   6.425008e+01
   9.642862e+01   1.744974e+02
  -9.568096e+01   2.600358e+02
  -2.485736e+02   6.969225e+01
  -2.313068e+02  -9.855968e+01
  -1.511027e+02  -1.824108e+02
   1.664725e+01  -1.387271e+02
   7.485059e+01  -3.311899e+01
   8.148940e+01  -8.481089e+01
   8.342429e+01  -1.067616e+02
   6.119687e+01  -7.009260e+01
   1.087133e+02  -2.485301e+01
   1.064778e+02   9.941512e+01
   4.925321e+01   2.167685e+02
  -7.535635e+01   2.004300e+02
  -1.390934e+02   6.501907e+01
  -1.443186e+02  -8.535057e+01
  -4.839331e+00  -1.543181e+02
   8.219325e+01  -5.655695e+01
   2.821153e+01  -2.740241e+01
  -1.908547e+01  -7.241735e+00
  -8.794082e+00   1.986318e+01
   5.294966e+01  -2.255056e+01
   1.106089e+02   4.035369e+01
   1.186661e+01   6.061118e+01
  -7.145961e+01   7.966853e+01
  -1.611255e+02  -1.012506e+00
  -1.597670e+02  -5.007128e+01
  -2.748639e+01  -9.838895e+01
   1.449170e+02  -6.224133e+01
   1.308341e+02  -2.088827e+01
   1.522950e+01   7.013142e+01
  -1.098830e+02   7.096976e+01
  -9.565574e+01  -2.083887e+01
  -8.424101e+00  -1.344132e+02
   5.925784e+01  -7.804655e+01
   7.490172e+01  -1.468243e+01
   4.460240e+01   7.533705e+01
   9.022202e+01   3.284538e+01
   7.062619e+01   1.981226e+01
   6.451633e+01  -3.070233e+01
   4.665885e+01   4.667371e+01
   3.465654e+00   1.519462e+02
  -1.107254e+02   1.724113e+02
  -1.508394e+02   7.162972e+01
  -1.672505e+02  -9.351865e+01
  -7.463146e+00  -1.437778e+02
   9.730948e+01  -3.836729e+01
   9.558426e+01   3.779733e+01
  -7.368630e+01   1.966716e+01
  -1.267294e+02  -1.961816e+01
  -2.468108e+01  -9.578004e+01
   1.133097e+02  -1.231597e+02
   1.881092e+02  -7.524247e+01
   1.265299e+02   2.131162e+01
   6.360459e+01   4.813007e+01
  -3.383068e+01   8.370847e+01
  -7.702921e+01   6.920404e+00
   3.970276e+01  -2.438115e+01
   4.407733e+01   4.291338e+01
   1.576329e+01   1.191899e+02
  -1.309795e+02   1.690214e+02
  -1.850019e+02   6.901232e+01
  -1.112144e+02  -1.190655e+02
  -3.216267e+01  -1.723021e+02
   1.073843e+02  -1.504973e+02
   1.154324e+02   1.085015e+01
   6.389735e+01   1.082263e+02
  -1.316933e+01   8.526785e+01
  -1.647325e+01  -1.077598e+01
  -5.430678e+01  -9.015631e+01
  -1.722167e+01  -1.419322e+01
  -8.050311e-01   6.434810e+01
  -1.830222e+01   5.558036e+01
  -5.086550e+01  -1.170353e+02
  -5.259567e+01  -1.249826e+02
   6.208710e+01  -8.611210e+01
   1.646049e+02   3.640751e+01
   1.491036e+02   1.085210e+02
   2.154965e+01   5.319250e+01
  -1.140368e+02   6.259591e+01
  -1.079840e+02   5.271739e+01
  -5.300319e+01   6.581423e+01
   3.354983e+01  -4.579699e+01
   6.838289e+01  -6.861663e+01
  -3.930556e+01  -4.444862e+01
  -2.477790e+01  -4.175653e+01
   7.253689e+01  -4.156677e+00
   8.967540e+01   2.709086e+01
   3.023823e+01   4.310806e+01
  -9.770389e+01   1.292269e+02
  -1.689288e+02   5.753564e+01
  -1.155866e+02  -1.154075e+02
  -2.983946e+01  -1.120923e+02
   6.168561e+01  -1.654035e+02
   1.240880e+02  -6.218949e+01
   9.065337e+01   5.212927e+01
   1.400438e+01   5.373502e+01
  -1.580454e+01   2.894246e+01
   5.091998e+01  -4.265590e+01
   3.299372e+01   6.711435e+01
   2.526592e+01   6.968552e+01
  -3.747937e+01   7.142861e+01
  -7.254163e+01  -1.727168e+01
  -6.788360e+01  -1.383581e+02
  -2.388642e+01  -1.007711e+02
   5.242904e+01  -2.401303e+01
   1.098503e+02   6.131331e+01
   2.342004e+01   1.477428e+02
  -9.221466e+01   7.452819e+01
  -1.045849e+02  -6.273814e+01
  -3.678690e+01  -9.617305e+01
   4.622376e+01  -1.761349e+01
   3.118720e+01  -5.693053e+01
  -4.035542e+01  -3.966573e+00
  -7.840839e+01   6.993762e+00
  -1.367367e+01  -2.668977e+01
   7.471632e+01  -7.091306e+01
   1.060186e+02  -3.491991e+01
   6.788953e+01   6.411327e+01
  -2.437519e+01   1.418768e+02
  -3.021838e+00   1.382319e+02
  -3.993393e+01  -1.065829e+01
   3.008904e+01  -1.023541e+02
  -1.061358e+01  -5.163231e+01
   2.604410e+01  -1.308133e+00
  -3.266834e+00   2.731666e+01
  -1.083063e+01   4.853718e+01
  -5.026135e+01  -6.714380e+00
  -4.456813e+01  -3.534920e+01
  -3.219447e+01   9.804891e+00
   1.968003e+00   1.298883e+01
  -7.763831e+00  -2.535133e+01
   2.888808e+01  -3.908972e+01
   1.470023e+01  -6.641332e+01
   7.006447e+01  -1.283395e+01
   2.762976e+01   2.211854e+01
   1.664345e+01   7.819965e+01
  -3.968053e+01   3.285574e+01
  -5.490288e+01  -4.203480e+01
  -1.161991e+01  -6.688816e+01
   4.875378e+01  -3.477061e+01
   9.498512e+01   1.436247e+01
   4.588200e+01   5.114452e+01
  -1.331883e+01   4.329334e+01
  -1.086773e+02   3.757424e+01
  -3.215325e+01   3.121218e+00
   1.886156e+01  -3.930194e+00
   3.740922e+01   4.825317e+01
   1.502679e+01   6.229539e+01
  -1.006102e+02   9.932731e+00
