
 $NMID
 id='ANONYMOUS ', fmtdat='(2E16.6)'
 volume=1.0
 tramp=1.0
 $END
  -3.007147e+03  -1.461862e+01
  -1.978410e+03  -1.537857e+03
   4.259779e+01  -1.779142e+03
   1.456326e+03  -9.704551e+02
   7.294002e+02   2.057524e+01
   9.879165e+01   6.901502e+01
  -3.952473e+02  -3.587226e+02
   3.325433e+01  -6.931470e+02
   3.890198e+02  -5.403078e+02
   5.351461e+02  -1.914607e+01
   4.003588e+02   6.002175e+02
   7.833844e+01   5.181388e+02
  -2.976375e+02   1.279067e+02
  -1.168792e+02  -4.049392e+02
   1.677435e+02  -6.070382e+02
   3.244783e+02  -1.867365e+02
   2.837439e+02   4.616322e+02
  -1.755612e+02   6.760367e+02
  -5.110259e+02   2.452690e+02
  -5.016210e+02  -1.913004e+02
   1.462321e+01  -2.681440e+02
  -4.367076e+01  -6.217093e+01
   8.798469e+01  -1.813645e+02
  -2.487287e+02   8.262646e+01
  -1.523722e+02  -1.667054e+02
  -5.362905e+01  -4.066034e+02
   2.215805e+02  -1.712547e+02
   6.045062e+02   1.451918e+02
   2.918916e+02   3.323624e+02
  -2.270941e+02   2.430974e+02
  -4.679482e+02  -7.065951e+01
  -2.165387e+02  -3.841361e+02
   2.480839e+02  -3.169450e+02
   4.493248e+02  -7.334986e+01
   2.766740e+02   1.450052e+02
   1.461071e+01   3.033622e+02
   5.256277e+00   1.791649e+02
  -1.510305e+01  -1.532859e+02
   2.185116e+02  -1.217034e+02
   2.542071e+02   1.162506e+02
   1.997305e+01   3.945453e+02
  -2.879126e+02   4.185593e+02
  -4.376992e+02  -4.811625e+01
  -8.268076e+01  -2.804220e+02
   1.677713e+02  -7.418006e+01
   1.958619e+02   2.479493e+02
  -1.162741e+02   3.347519e+02
  -3.866929e+02   6.333987e+01
  -4.141702e+02  -3.094699e+02
  -1.513759e+02  -4.286727e+02
   2.139603e+02  -2.938579e+02
   4.326765e+02   2.162347e+01
   3.332218e+02   1.841155e+02
   1.218220e-01   1.957065e+02
  -2.346214e+02   4.483236e+01
  -2.242173e+02  -3.536722e+01
  -1.038090e+00  -1.853766e+01
   8.168201e+01   3.580787e+01
  -4.387552e+01   6.765386e+01
  -2.222145e+02  -6.206942e+01
  -1.221545e+02  -1.833890e+02
   1.202323e+02  -1.899494e+02
   2.963031e+02  -9.928189e+01
   2.724209e+02   1.062854e+02
  -3.791224e+01   3.159123e+02
  -2.734789e+02   3.374579e+02
  -3.184142e+02   1.679330e+02
  -2.340347e+02  -1.709701e+02
  -5.095269e+00  -3.721055e+02
   2.651570e+01  -3.425376e+02
  -2.144605e+01  -1.598486e+02
   3.691661e+01  -8.739332e+01
   1.311371e+02  -1.453652e+02
   2.699646e+02  -8.242951e+01
   2.531593e+02   1.477226e+02
   1.096562e+02   2.358490e+02
  -1.056663e+02   1.619720e+02
  -1.616262e+02  -6.329151e+01
  -7.507046e+01  -2.792419e+02
   7.281661e+01  -2.350125e+02
   2.191073e+02  -1.152061e+01
   2.862495e+02   1.966103e+02
   1.464952e+02   2.920332e+02
  -3.396796e+01   2.790830e+02
  -1.198197e+02   1.089374e+02
  -1.530058e+02   9.416521e+01
  -1.692416e+02   8.046019e+01
  -2.989209e+02   1.520012e+01
  -4.295825e+02  -1.208037e+02
  -3.235599e+02  -2.953637e+02
   5.005839e+01  -4.349946e+02
   4.094054e+02  -4.133828e+02
   4.567997e+02  -1.627602e+02
   2.694973e+02   6.640169e+01
   1.696231e+01   2.212513e+02
  -1.048239e+02   2.374240e+02
   1.787674e+01   2.693016e+01
   1.395517e+02  -4.209664e+01
   1.560848e+02   7.373843e+01
   7.743778e+01   1.132821e+02
  -5.961783e+01   9.943676e+01
  -1.139171e+02  -5.126961e+00
   5.292015e+01  -1.136940e+02
   9.886031e+01  -2.840716e+00
   9.820873e+01   2.590712e+02
  -2.921419e+01   3.373480e+02
  -2.445617e+02   1.847339e+02
  -3.627109e+02  -6.973736e+01
  -2.705714e+02  -2.532140e+02
  -5.183324e+01  -2.746528e+02
   1.191849e+02  -1.188177e+02
   1.536953e+02  -3.763396e+01
   6.355570e+01  -4.013225e+01
  -5.553882e+01  -6.842607e+01
   7.542931e+00  -1.618861e+02
   1.343139e+02  -6.850358e+01
   1.345447e+02   9.626830e+01
   4.355495e+01   9.081031e+01
  -8.765575e+01   7.028810e+00
  -5.736685e+01  -1.139298e+02
   1.301808e+02  -9.209694e+01
   2.997286e+02   2.737923e+01
   2.314964e+02   1.654732e+02
   1.125307e+01   2.502233e+02
  -2.598367e+02   1.976338e+02
  -2.742425e+02   7.169400e+01
  -1.351853e+02  -7.907613e+01
   4.363778e+01  -1.036142e+02
   9.383671e+01  -1.140935e+00
  -1.678514e+01   8.066887e+01
  -2.195923e+02   2.605580e+01
  -1.695090e+02  -9.069749e+01
  -1.605949e+01  -1.961325e+02
   9.667153e+01  -1.627777e+02
   1.219928e+02   2.644105e-01
   6.363503e+01   4.118809e+01
  -7.734086e+01  -1.514429e+01
  -1.675012e+01  -1.197351e+02
   8.852795e+01  -1.450965e+02
   2.138739e+02  -3.019136e+00
   2.038739e+02   1.255118e+02
   8.505394e+01   1.882337e+02
  -1.382756e+02   1.299575e+02
  -1.567187e+02   2.025860e+01
  -5.521294e+01  -9.127852e+01
   2.443750e+00  -8.381055e+01
   5.738846e+01  -5.702490e+01
   3.217047e+01   8.598440e+00
  -4.277022e+01   3.696068e+00
   3.064536e+01   9.701998e+00
   6.129394e+01  -1.297034e+01
   7.014970e+01   8.195591e+01
  -1.257870e+01   1.611169e+02
  -1.423817e+02   6.814904e+01
  -2.179602e+02  -4.214315e+01
  -1.465771e+02  -1.592724e+02
   5.784378e+00  -2.293159e+02
   6.993029e+01  -1.677103e+02
   1.199358e+02  -2.318108e+01
   9.934065e+01   7.214188e+01
   5.852355e+01   3.578098e+01
   6.081247e+01  -2.211377e+01
   8.492926e+01  -4.285457e+01
   3.277787e+01   6.828923e+01
  -1.007615e+01   1.011315e+02
  -1.190131e+02   7.666963e+01
  -1.522676e+02  -5.601373e+01
   4.140191e+01  -1.182135e+02
   1.600031e+02  -7.447120e+01
   2.055882e+02   9.899172e+01
   9.181928e+01   2.453596e+02
  -9.658313e+01   2.005673e+02
  -2.364175e+02   4.513999e+01
  -2.250199e+02  -7.770648e+01
  -8.622725e+01  -1.320457e+02
   6.990418e+01  -1.316890e+02
   8.595660e+01  -5.497744e+01
   3.765416e+01  -1.014910e+02
   4.330051e+01  -1.083280e+02
   1.114813e+02  -1.015563e+02
   1.190482e+02   7.605897e+01
   1.005087e+02   1.396973e+02
   5.900793e+00   2.092314e+02
  -1.146007e+02   1.255312e+02
  -1.644143e+02  -4.559410e+01
  -9.590820e+01  -1.495054e+02
   8.951945e+00  -1.451608e+02
   9.206560e+01  -9.870490e+01
   2.188140e+01   2.035278e+01
  -6.278805e+01   4.940682e+01
  -2.649545e+01   2.727574e+01
   2.794742e+01   3.044262e+01
   9.129194e+01   1.751491e+01
   3.223350e+01   5.403656e+01
  -6.146543e+01  -1.202655e+01
  -2.068311e+02  -1.767729e+01
  -1.252990e+02  -4.363615e+01
  -2.467127e+01  -6.779062e+01
   1.849074e+02  -4.246156e+01
   1.841506e+02   3.934591e+01
   4.271685e+01   3.813506e+01
  -7.035731e+01   6.828143e+01
  -6.846108e+01  -3.694214e+01
  -6.144374e+00  -4.659985e+01
   1.067122e+01  -5.650125e+01
   5.173113e+01   4.992753e+01
   3.703714e+01   5.256340e+01
   7.380466e+00   5.381192e+01
   3.445078e+01   2.438339e+00
   9.492849e+01   7.941720e+00
   3.298867e+01   1.292032e+01
  -4.870542e+01   1.001738e+02
  -1.317818e+02   1.317309e+02
  -1.848908e+02  -8.928864e+00
  -1.156611e+02  -1.076416e+02
   1.626041e+01  -1.595569e+02
   1.038972e+02  -5.627549e+01
   5.161543e+01   1.066730e+01
  -3.435481e+01   3.090171e+01
  -1.074182e+02  -2.049550e+01
  -7.980522e+01  -7.796992e+01
   5.124403e+01  -1.227750e+02
   1.320344e+02  -7.270973e+01
   1.075180e+02   3.401571e+01
   2.755094e+01   8.866147e+01
  -6.318341e+01   2.500221e+01
  -2.985862e+01  -4.043727e+01
   6.003977e+01  -2.805199e+01
   6.881713e+01   5.765322e+01
   4.301368e+01   1.320366e+02
  -6.195484e+01   1.533014e+02
  -1.370364e+02   4.090129e+01
  -9.909837e+01  -1.157949e+02
  -2.918944e+01  -1.833103e+02
   4.647688e+01  -1.570336e+02
   9.020690e+01   1.159971e+01
   1.121401e+02   5.697231e+01
  -4.193407e+00   1.283614e+02
  -5.252657e+01   6.295298e+00
  -1.656259e+01   1.909323e+01
  -1.232718e+01   8.945774e+00
  -3.096705e+01  -1.449526e+01
  -4.465714e+01  -6.012589e+01
  -2.593266e+01  -6.739082e+01
  -1.978958e+01  -8.943060e+01
   9.187155e+01  -6.375616e+01
   1.580486e+02   7.531531e+01
   1.437440e+02   7.351407e+01
   3.265183e+01   6.304801e+01
  -4.607011e+01   2.141227e+01
  -8.155069e+01   3.431737e+01
  -6.696088e+00  -1.465218e+00
   1.749048e+01  -4.720340e+00
   9.020912e+00   7.481377e-02
  -2.282754e+01   3.226756e+01
  -4.761886e+00   3.493658e+01
   6.903671e+01  -2.805088e+01
   6.393320e+01   2.801305e+01
   3.135041e+01   3.032493e+01
  -6.137015e+01   1.165639e+02
  -2.000661e+02   9.837603e+01
  -1.699219e+02  -8.053636e+00
  -1.546380e+01  -1.517607e+02
   3.408559e+01  -1.411493e+02
   9.695462e+01  -3.309792e+01
   3.602241e+01   1.142626e+01
   2.469617e+01   2.554594e+00
  -2.255242e+00  -8.106459e+00
   2.388778e+01   1.472466e+01
   2.880832e+01   7.699202e+01
   6.433416e+01   9.049407e+01
  -4.849832e+01   7.499937e+01
  -1.314404e+02  -9.887985e+00
  -9.929613e+01  -7.144799e+01
   4.097622e+00  -9.726477e+01
   9.380869e+01  -2.668101e+01
   1.028634e+02   9.818576e+00
   4.314658e+01   1.203271e+02
  -5.401742e+01   4.094102e+01
  -3.848859e+01   9.471980e+00
  -1.051171e+02  -6.201228e+01
   1.707983e+01  -8.143228e+01
   3.313687e+01  -5.422165e+01
  -1.349460e+00  -3.676895e+01
  -8.594251e+01   4.140192e+00
   3.064657e+00  -4.345292e+01
   7.320028e+01  -7.626154e+01
   1.503382e+02  -1.039929e+02
   7.847311e+01   5.695777e+01
  -3.134204e+01   5.426283e+01
  -3.001383e+01   9.315522e+01
  -5.665491e+01   2.350284e+00
  -4.890496e+01  -5.079159e+01
   5.050844e+01  -4.296596e+01
   1.173731e+01   1.345625e+01
   4.560799e+00   1.295076e+01
   3.146344e+01   2.874627e+01
  -3.229563e+00  -2.172224e+00
  -8.728243e+01  -1.968254e+01
   1.849046e+01  -2.872955e+00
   3.827759e+01   3.407075e+01
  -2.399820e+01  -6.397758e+00
  -9.831042e+00  -2.064568e+01
  -5.060835e+00  -3.016966e+01
   9.551356e+00  -3.447766e+00
   4.454382e+01   3.324213e+01
  -1.026318e+01   8.190519e+01
   1.861736e+01   2.556370e+00
  -5.992977e+01  -1.590495e+00
  -4.013953e+01  -6.072009e+01
   6.255686e+01  -3.955907e+01
   7.931614e+01   2.278743e+01
   6.453141e+01   3.552557e+01
  -3.283836e+01   5.898715e+01
  -5.666582e+01   5.595037e+01
  -6.064913e+01   8.505153e+00
   4.440932e+01   1.973266e+01
   2.706336e+01  -2.078053e+01
  -2.912933e+01   3.065079e+01
  -3.043616e+01   5.444120e+01
