
 $NMID
 id='ANONYMOUS ', fmtdat='(2E16.6)'
 volume=1.0
 tramp=1.0
 $END
   5.018022e+03   2.679719e+02
   3.263190e+03   3.003792e+03
  -6.195821e+02   3.454421e+03
  -2.565125e+03   9.292510e+02
  -1.123237e+03  -8.615551e+02
   5.670156e+02  -7.123171e+02
   9.657330e+02   4.572396e+02
   1.203384e+02   1.360158e+03
  -8.881549e+02   8.669981e+02
  -1.119210e+03  -8.245020e+01
  -7.775182e+02  -9.568050e+02
   2.705153e+02  -1.025630e+03
   7.212643e+02  -2.176687e+02
   6.473888e+02   7.897947e+02
  -2.601221e+02   8.641297e+02
  -4.696793e+02  -4.734573e+01
  -2.107382e+02  -7.938215e+02
   4.599204e+02  -5.632967e+02
   6.942117e+02  -3.447343e+02
   5.290613e+02   4.720990e+02
  -2.250260e+02   4.484834e+02
  -4.367575e+02   2.482190e+02
  -2.189127e+02  -7.336156e+01
   1.056391e+02   7.971121e+00
   4.739090e+02   6.851518e+01
   3.461359e+02   4.277597e+02
  -5.404522e+02   6.332497e+02
  -8.989283e+02   1.389662e+02
  -5.255635e+02  -5.501205e+02
   3.921079e+02  -6.548673e+02
   8.383219e+02  -1.576077e+01
   4.056709e+02   4.396802e+02
  -2.946620e+02   6.217598e+02
  -5.555347e+02   1.918059e+02
  -4.303818e+02  -1.313382e+02
  -1.074993e+02  -3.644739e+02
   2.426750e+02  -2.653722e+02
   1.073752e+02   2.400205e+02
  -2.283061e+02   4.885008e+02
  -5.425715e+02  -1.991529e+01
  -2.497425e+02  -7.917033e+02
   3.756263e+02  -7.145089e+02
   6.024110e+02   1.254010e+02
   1.682864e+02   7.801134e+02
  -3.495483e+02   3.640299e+02
  -4.249530e+02  -3.426985e+02
   2.763413e+01  -6.643517e+02
   5.547567e+02  -1.402389e+02
   6.252596e+02   4.930504e+02
   1.487635e+02   6.627689e+02
  -4.044868e+02   3.859080e+02
  -7.032486e+02  -8.930685e+01
  -4.416508e+02  -4.388341e+02
   1.287746e+02  -3.983936e+02
   4.606781e+02  -3.478110e+01
   2.385962e+02   2.313301e+02
  -1.813675e+02   1.190841e+02
  -1.982782e+02  -1.585900e+02
   1.984342e+02  -2.219603e+02
   4.408536e+02   5.207436e+01
   1.765751e+02   3.662363e+02
  -2.683543e+02   3.279828e+02
  -4.056077e+02   1.182720e+02
  -2.003358e+02  -7.819350e+01
   6.111147e+01  -2.352270e+02
   2.376640e+02  -3.429474e+02
   3.111627e+02  -2.291995e+02
   3.191332e+02   1.628136e+02
   9.192231e+01   4.599703e+02
  -1.327297e+02   3.957558e+02
  -1.645667e+02   1.020605e+02
  -7.308833e+00  -3.518373e+01
  -1.678132e+01   8.285594e+01
  -1.887905e+02   1.420114e+02
  -2.463679e+02  -3.693698e+01
  -1.826198e+02  -2.894406e+02
   4.881711e+01  -2.664863e+02
   2.071155e+02   2.142507e+01
   2.114119e+02   2.355192e+02
   5.291745e+01   2.761705e+02
  -2.030092e+02   7.817637e+01
  -3.294091e+02  -1.848219e+02
  -2.051214e+02  -3.951168e+02
   1.310848e+02  -3.080636e+02
   2.679117e+02  -1.001878e+02
   1.797038e+02   1.018556e+01
   1.219070e+02  -2.077913e+01
   2.548317e+02  -4.726999e+01
   4.181028e+02   1.083838e+02
   3.433607e+02   3.554320e+02
   2.287021e+01   5.188444e+02
  -3.270740e+02   4.299055e+02
  -4.881882e+02   2.392006e+02
  -4.436444e+02  -5.280114e+01
  -1.168613e+02  -2.785218e+02
   8.767799e+01  -3.056813e+02
   1.150551e+02  -5.794154e+01
  -7.984881e+01   1.119907e+02
  -1.887465e+02  -1.551653e+01
  -6.221529e+01  -2.207339e+02
   1.414222e+02  -2.127594e+02
   1.986915e+02   2.900921e+01
  -3.219763e+01   2.001567e+02
  -1.585173e+02   1.466718e+01
  -1.482981e+02  -2.407394e+02
   6.367447e+01  -3.471135e+02
   2.566488e+02  -1.703993e+02
   3.364204e+02   2.683810e+01
   3.157888e+02   1.769778e+02
   9.979088e+01   2.575562e+02
  -1.695409e+02   1.983155e+02
  -2.052125e+02   4.292182e+01
  -6.492862e+01  -4.124351e+01
   1.075703e+02   4.310980e+01
   2.481240e+00   8.931900e+01
  -1.324525e+02   1.242460e+02
  -2.024320e+02  -4.805774e+01
  -5.764260e+01  -1.340751e+02
   1.037645e+02  -5.795441e+01
   4.485787e+01   3.663737e+01
  -1.039598e+02   9.955956e+01
  -2.529417e+02  -1.558315e+01
  -2.457917e+02  -1.167814e+02
  -5.996663e+01  -2.717300e+02
   1.646777e+02  -2.682584e+02
   2.967202e+02  -1.304200e+02
   2.310157e+02   5.897379e+01
  -9.367867e+00   1.246507e+02
  -8.994539e+01   1.328541e+01
   7.841440e+01  -6.500442e+01
   2.293570e+02  -7.393172e+01
   2.143428e+02   7.024009e+01
   5.005485e+01   2.085819e+02
  -7.492952e+01   1.439863e+02
  -1.558541e+02   3.160089e+00
  -6.480054e+01  -4.418067e+01
  -5.799284e+00   1.328127e+01
   2.589315e+01   8.231061e+01
  -5.118078e+01   1.068064e+02
  -1.815498e+02   2.812763e+01
  -1.539153e+02  -1.236028e+02
  -6.578972e+00  -1.607011e+02
   1.744945e+02  -1.757708e+02
   2.018796e+02  -2.751983e+01
   9.679372e+01   1.336735e+02
  -6.965423e+01   7.882443e+01
  -8.140404e+01   9.927137e+00
  -4.515078e+01  -1.754872e+01
   6.799649e+00  -2.378800e+01
  -3.426241e+01  -5.566950e+01
  -2.500745e+01  -2.432798e+01
  -7.017196e+01  -6.711385e+01
   2.360873e+01  -1.408909e+02
   9.749604e+01  -1.657824e+02
   2.608406e+02  -2.034416e+01
   2.233579e+02   1.278517e+02
   4.567859e+01   2.733561e+02
  -1.636285e+02   1.669166e+02
  -1.775850e+02   4.232722e+01
  -5.121160e+01  -9.934835e+01
  -1.240001e+01  -2.990673e+01
  -5.918270e+00   2.810249e+01
  -1.018290e+02   2.915747e+01
  -2.847310e+01  -2.733516e+01
   3.873298e+01  -5.813455e+01
   1.133607e+02  -8.350267e+00
   5.156982e+01   5.077176e+01
  -2.966041e+01   6.920661e+01
  -1.870793e+02   6.764469e+01
  -2.125010e+02  -5.817640e+01
  -7.649976e+01  -1.531791e+02
   1.170394e+02  -1.771174e+02
   2.871582e+02  -8.991319e+01
   2.229385e+02   1.095383e+02
   4.255819e+01   1.761741e+02
  -4.814905e+01   1.753890e+02
  -2.343936e+01   1.140909e+02
  -2.630859e+01   6.581969e+01
  -8.356827e+01   4.144911e+01
  -9.221188e+01   5.117360e+01
  -1.167186e+02  -4.382900e+01
  -1.064408e+02  -1.379199e+02
  -1.054109e+01  -2.286619e+02
   1.399710e+02  -1.644280e+02
   2.090955e+02   1.698858e+01
   1.239762e+02   9.696435e+01
   3.055914e+01   2.096747e+02
  -7.538405e+01   8.837310e+01
  -6.605084e+01   3.205649e+01
   1.705603e+01  -1.929786e+00
   5.073674e+01  -6.183961e+01
  -1.608611e+01  -9.127512e+01
  -7.946713e+01  -5.661316e+00
  -6.565087e+00  -3.397849e+01
   4.502442e+01  -3.225144e+01
   1.448993e+02   3.436043e+01
   1.078611e+02   2.248727e+01
  -9.826287e+00   3.766846e+01
  -1.021147e+02   5.322979e+01
  -1.614387e+02   1.299201e+01
  -3.965632e+01  -1.743517e+00
   6.682416e+01  -1.095678e+01
   7.752588e+01  -2.456653e+01
   7.133446e+00   1.299367e+01
  -4.592931e+01   8.981279e+01
  -1.767554e+01  -2.137803e+01
  -9.340483e+00  -5.313553e+01
   1.354670e+01  -7.143580e+01
  -4.455697e+01   2.847284e-01
  -1.218161e+02   2.476383e+01
  -2.330251e+01  -3.503583e+01
   4.151288e+01  -1.622811e+02
   1.469668e+02  -1.124341e+02
   1.459614e+02   1.953065e+01
   1.050550e+02   9.907119e+01
   2.349493e+01   1.127863e+02
  -6.891035e+01   5.774971e+01
  -5.028957e+01   3.984165e+00
   8.034493e+01   1.207286e+01
   1.266640e+02   6.490849e+01
   4.887695e+01   1.267721e+02
  -8.296594e+01   9.252493e+01
  -1.804306e+02   6.945877e+01
  -1.322121e+02  -2.270427e+01
  -3.856293e+01  -9.208514e+01
   5.407866e+01  -9.165125e+01
   2.149370e+01  -4.822466e+01
   2.551820e+01   1.205803e+01
  -4.839844e+01  -3.368145e+01
  -2.140802e+01  -2.019099e+02
   1.657215e+02  -1.212189e+02
   1.784016e+02  -4.928339e+01
   1.269465e+02   1.371188e+02
  -9.655152e+00   1.831055e+02
  -9.891930e+01   1.160037e+02
  -9.329144e+01  -1.521623e+00
  -4.641284e+01  -1.002515e+02
  -7.933096e+00  -6.270359e+01
  -8.407361e+00   2.936858e+01
   9.802472e+01   3.412191e+01
   4.190794e+01   2.004143e+01
  -2.557080e+01  -1.946084e+01
  -2.040439e+01   2.342102e+01
   2.410054e+00   1.085449e+02
  -6.125514e-01   9.276611e+01
  -9.872567e+01   2.951293e+01
  -1.450885e+02  -6.929402e+01
  -1.296836e+02  -8.181613e+01
   4.318289e+00   1.164317e+01
   8.634491e+01  -4.381572e+01
   1.142388e+02  -1.851862e+00
   2.027561e+01  -1.412457e+01
  -4.344180e+00   6.335683e+01
  -1.966373e+01   6.693612e+01
   3.745965e+01   2.354074e+01
   2.991330e+00  -9.889508e+00
  -9.756871e+01   2.433393e+01
  -1.137439e+02  -4.465549e+01
  -1.683169e+01  -8.410634e+01
   1.271657e+02  -7.633302e+01
   2.304743e+02  -3.283213e+01
   1.563580e+02   1.122600e+02
   1.794017e+01   2.152772e+02
  -8.016023e+01   1.168607e+02
  -1.148358e+02   2.334205e+01
  -9.182866e+01  -2.149566e+01
  -2.944606e+01  -4.145795e+01
  -1.100589e+01   8.517165e+00
  -4.667663e+01  -3.230474e+01
  -3.231191e+01  -5.793834e+01
  -1.709950e+01  -1.140131e+02
   4.534477e+01  -2.473354e+01
   1.010234e+02   3.318152e+01
   7.901046e+01   1.090536e+02
   9.773126e+00   1.205258e+02
  -1.246539e+02  -4.738085e+00
  -1.270958e+02  -5.794772e+01
  -5.098853e+01  -1.198481e+02
   7.099807e+01  -7.516566e+01
   9.640412e+01  -9.722117e+00
   4.227302e+01   7.567918e+01
  -5.485464e+01   4.508595e+01
  -3.315198e+01   4.726896e+00
   5.010286e+01  -2.148200e+01
   1.182968e+02  -1.496516e+01
   1.588262e+01   4.354306e+01
  -1.015559e+02   9.401025e+01
  -6.869447e+01   5.686943e+01
  -3.297618e+01   7.065585e+00
   6.578633e+00  -8.802963e+01
  -7.318206e+00  -6.097089e+01
   4.021975e+01   4.360741e+01
  -2.051969e+01   9.602233e+01
  -3.052851e+01   6.426845e+01
  -2.641564e+01  -1.994179e+01
  -3.896516e+01  -1.497990e+01
   1.563322e+01  -5.123187e+01
   5.633215e+00   1.734311e+01
   2.366774e+01   3.006794e+01
   4.445787e+01  -1.930019e+01
   1.794898e+01  -4.291166e+01
   3.425404e+01   2.922641e+01
   2.031714e+01   4.078902e+01
  -2.761745e+01   5.950305e+00
  -3.897902e+01  -2.243169e+00
  -1.412038e+01  -2.743084e+01
   2.088606e+01  -3.488186e+01
   5.786873e+01  -1.030464e+01
  -3.879221e+00   6.342945e+01
   1.809115e+01   3.997160e+01
  -2.550798e+01   4.659196e+00
  -1.107607e+02  -5.901305e+00
  -3.369414e+01  -2.473420e+01
   2.681222e+01  -6.662130e+01
   2.047224e+01  -3.711472e+01
   1.133224e+01  -1.332679e+00
  -3.916519e+01   1.660756e+01
  -4.618762e+01  -1.690111e+01
   5.187763e+01  -2.612346e+01
   5.010227e+01  -1.155136e+01
