
 $NMID
 id='ANONYMOUS ', fmtdat='(2E16.6)'
 volume=1.0
 tramp=1.0
 $END
   4.052337e+03  -1.422743e+02
   2.505619e+03   2.868467e+03
  -7.553962e+02   2.870204e+03
  -1.862793e+03   1.004746e+03
  -9.684016e+02  -3.925934e+02
   5.601965e+02  -6.188384e+02
   8.756733e+02   4.376684e+02
   8.864629e+01   1.012705e+03
  -6.417390e+02   9.558804e+02
  -8.095602e+02  -4.585036e+01
  -5.071290e+02  -8.594146e+02
   1.272385e+02  -1.025106e+03
   6.760128e+02  -1.508879e+02
   3.038212e+02   5.917108e+02
  -3.796147e+02   8.662498e+02
  -4.052002e+02  -3.206456e+01
  -1.908203e+02  -4.945035e+02
   2.500274e+02  -6.125152e+02
   4.573756e+02  -3.762986e+01
   4.507531e+02   1.798838e+02
   3.417315e+02   5.119592e+02
  -5.041886e+01   4.829870e+02
  -2.549239e+02  -1.891347e+00
   2.376178e+02  -2.064927e+02
   4.713813e+02  -1.582974e+01
   2.589798e+00   3.005579e+02
  -4.475711e+02   4.136227e+02
  -9.424575e+02  -1.933229e+02
  -4.328093e+02  -5.667598e+02
   4.203362e+02  -5.688617e+02
   7.266891e+02   5.247443e+01
   2.538043e+02   3.994010e+02
  -3.734183e+02   4.813485e+02
  -6.397738e+02   1.915729e+02
  -3.695791e+02  -1.341911e+02
  -7.725997e+01  -4.320331e+02
   1.824768e+02  -2.638412e+02
   2.038158e+02   2.364113e+02
  -2.386376e+02   5.246096e+02
  -4.138920e+02   5.033212e+01
  -1.596850e+02  -6.689883e+02
   3.475520e+02  -7.482944e+02
   6.388388e+02  -6.176422e+01
   3.100665e+02   5.629161e+02
  -3.055312e+02   4.127144e+02
  -4.619156e+02  -3.199292e+02
   6.581050e+01  -5.972331e+02
   5.256683e+02  -1.462399e+02
   6.186551e+02   3.796989e+02
   1.662101e+02   5.539859e+02
  -3.769130e+02   3.400804e+02
  -5.980020e+02  -6.712201e+01
  -3.923665e+02  -4.196810e+02
   1.801345e+02  -3.453183e+02
   4.774192e+02  -9.397832e+01
   2.998628e+02   2.167353e+02
  -7.087034e+01   1.643287e+02
  -1.035010e+02  -9.877378e+01
   1.450525e+02  -1.452900e+02
   3.677191e+02   4.807147e+01
   8.957914e+01   3.225414e+02
  -2.192819e+02   2.524907e+02
  -3.285351e+02   7.376621e+01
  -1.617862e+02  -7.015302e+01
   3.772663e+01  -2.175208e+02
   2.630804e+02  -3.305249e+02
   3.979382e+02  -1.918919e+02
   3.120640e+02   1.975689e+02
  -4.981800e+00   4.369917e+02
  -1.338498e+02   3.306003e+02
  -9.694239e+01   6.904550e+01
   2.923368e+01   9.141228e+00
  -1.684076e+01   1.001933e+02
  -1.860910e+02   1.154423e+02
  -2.297330e+02  -6.454346e+01
  -1.733141e+02  -2.756209e+02
   8.267568e+01  -2.132298e+02
   1.746282e+02  -1.806150e+01
   1.445692e+02   2.267717e+02
   1.098050e+01   2.865601e+02
  -2.776219e+02   1.175927e+02
  -3.591151e+02  -1.489574e+02
  -1.458703e+02  -3.809592e+02
   1.471703e+02  -3.367513e+02
   2.509632e+02  -8.210936e+01
   1.262998e+02   5.747190e+01
   6.063496e+01  -1.659164e+00
   2.213116e+02  -5.030626e+01
   3.662924e+02   4.834727e+01
   3.072342e+02   2.909457e+02
   1.093102e+00   3.917944e+02
  -3.535775e+02   4.028051e+02
  -4.132912e+02   2.158609e+02
  -3.309507e+02  -3.999490e+01
  -6.409238e+01  -2.531053e+02
   1.251908e+02  -2.380456e+02
   8.721544e+01   6.812402e+00
  -1.356642e+02   1.007934e+02
  -1.920844e+02   5.401779e+01
  -2.926409e+01  -1.567492e+02
   1.649087e+02  -1.262671e+02
   1.778539e+02   3.718262e+01
  -4.757728e+01   1.466510e+02
  -2.163073e+02  -1.867147e+01
  -1.790343e+02  -2.089837e+02
   4.673265e+01  -3.106351e+02
   2.447507e+02  -2.243748e+02
   3.247787e+02   2.924534e+01
   2.680856e+02   2.129206e+02
   7.242124e+01   2.514851e+02
  -1.351438e+02   1.604579e+02
  -1.661045e+02  -3.268750e+01
   1.582395e+01  -3.745567e+01
   1.097175e+02   6.975917e+01
   1.439631e+01   1.660430e+02
  -1.713352e+02   1.117835e+02
  -1.587921e+02  -4.550515e+01
  -1.504024e+01  -4.657991e+01
   1.255962e+02   1.881672e+01
  -2.439058e+00   1.290522e+02
  -1.668819e+02   7.276267e+01
  -3.075871e+02  -5.970555e+01
  -2.435557e+02  -1.795207e+02
  -1.566630e+01  -2.642723e+02
   2.150264e+02  -2.439729e+02
   3.030889e+02  -1.285662e+02
   1.626413e+02   2.022179e+01
  -2.149867e+01   6.590774e+01
  -9.839414e+01  -2.748783e+01
   2.791756e+01  -9.625966e+01
   2.085874e+02  -1.263103e+01
   2.221303e+02   1.388346e+02
   1.031430e+02   2.029435e+02
  -9.960120e+01   1.585019e+02
  -1.431024e+02   5.320261e+00
  -3.184298e+01   3.225452e+01
   3.197531e+01   1.561257e+01
   4.422120e+01   6.595467e+01
  -7.027835e+01   1.113236e+02
  -1.903561e+02   2.516214e+01
  -2.404098e+02  -1.132022e+02
  -5.829599e+01  -1.990419e+02
   1.370191e+02  -1.812245e+02
   1.865962e+02   9.203523e+00
   1.007733e+02   1.115480e+02
  -1.098142e+02   1.321830e+02
  -9.829346e+01   1.122978e+01
  -3.395996e+01  -6.702583e+01
   5.146133e+01  -5.802726e+01
   1.248567e+01  -3.050559e+01
  -5.353192e+01  -3.259692e+01
  -5.250986e+01  -7.652290e+01
  -9.262183e+00  -1.662439e+02
   1.228362e+02  -9.408348e+01
   2.374266e+02  -3.276518e+01
   1.946208e+02   1.437119e+02
   1.573288e+01   2.494309e+02
  -1.887628e+02   1.615837e+02
  -1.290556e+02   5.037761e+01
  -4.495951e+01  -3.933089e+01
  -1.063303e+01  -1.042756e+01
  -7.911102e+01   2.956045e+01
  -1.036401e+02   2.519997e+01
  -3.949389e+01  -7.779637e+01
   3.933385e+01  -1.041502e+02
   1.285533e+02  -5.046186e+01
   8.649920e+01   7.457468e+01
  -1.108477e+01   1.027982e+02
  -2.200805e+02   1.098228e+02
  -2.407516e+02  -5.480304e+01
  -1.119916e+02  -2.436948e+02
   8.993089e+01  -2.019058e+02
   2.932986e+02  -8.623216e+01
   2.657367e+02   8.431342e+01
   7.738115e+01   1.857563e+02
  -2.252716e+00   1.248372e+02
  -8.758554e+01   5.249141e+01
  -8.032691e+01   8.012997e+01
  -2.979470e+01   9.583882e+01
  -8.388051e+01   3.730615e+01
  -9.388573e+01  -2.943414e+01
  -1.054936e+02  -1.141473e+02
  -3.195635e+01  -2.025445e+02
   9.415111e+01  -1.754771e+02
   2.062343e+02   2.847881e+01
   1.078099e+02   1.542280e+02
   1.092198e+01   2.026832e+02
  -1.021592e+02   1.341948e+02
  -5.860963e+01  -6.065878e+00
   3.302601e+01  -3.305438e+01
  -3.425025e+00  -2.624496e+01
  -3.723960e+01  -3.928114e+01
  -9.640708e+01  -5.461349e+01
  -4.244228e+01  -1.486084e+01
   6.460539e+01   1.188855e+00
   1.760131e+02  -1.710297e+01
   1.380924e+02   6.174594e+01
   1.212763e+01   9.683725e+01
  -1.356563e+02   7.334167e+01
  -1.540276e+02   2.006552e+01
  -3.193746e+01  -2.954144e+01
   7.778904e+01  -5.566080e+01
   5.801227e+01  -2.595744e+01
   4.336080e+01   4.343194e+01
  -4.433585e+01   2.955342e+01
  -1.259146e+01   7.615109e+00
  -5.516858e+01  -5.371373e+01
  -3.083544e+01  -4.713443e+01
  -7.490145e+01   3.445506e+01
  -5.763399e+01  -1.680653e+01
  -4.168377e+01  -1.106775e+02
   4.288240e+01  -1.395503e+02
   1.328538e+02  -1.364526e+02
   1.672358e+02  -6.885180e+01
   8.994409e+01   7.357323e+01
   1.610554e+01   1.419378e+02
  -8.985889e+01   1.717402e+01
  -5.952085e+01  -1.543430e+01
   6.928380e+01  -4.941467e+01
   1.536228e+02   4.312813e+01
   7.587716e+01   8.521800e+01
  -6.465784e+01   1.207057e+02
  -1.554319e+02   3.240040e+01
  -1.697148e+02  -2.151437e+00
  -2.659370e+01  -5.043542e+01
   9.446451e+01  -6.804455e+01
   3.666069e+01  -1.005279e+01
  -3.802021e+01   1.490732e+01
  -5.227394e+01  -4.986577e+01
  -1.869565e+01  -1.136403e+02
   4.096987e+01  -1.412676e+02
   2.093114e+02  -5.727701e+01
   1.155628e+02   9.586781e+01
   1.781896e+01   2.100570e+02
  -9.432364e+01   1.515657e+02
  -1.191323e+02   7.162294e+01
  -4.425682e+01  -6.883075e+01
  -2.632957e+01  -1.163408e+02
   4.574913e+01  -3.151930e+01
   7.960441e+01   2.207785e+01
   3.452829e+01   6.345296e+00
  -3.443099e+01   3.856617e+01
  -5.208452e+00   1.222239e+00
   7.133231e+01   4.292903e+01
   3.410172e+01   1.009584e+02
  -6.515876e+01   4.895502e+01
  -1.596038e+02  -2.181831e+01
  -1.240360e+02  -9.733251e+01
   2.355175e+01  -9.556548e+00
   7.476652e+01  -1.041108e+01
   7.738089e+01   8.513701e-01
  -2.085780e+01   1.541380e+01
  -2.107967e+01   1.750906e+01
  -4.204129e+01   1.873794e+00
   1.717432e+01   1.226373e+01
   4.118819e+00   4.488220e+00
  -1.232973e+02   1.807496e+01
  -9.309467e+01  -2.478697e+01
  -2.207439e+01  -8.390143e+01
   9.970084e+01  -1.030527e+02
   1.950123e+02  -7.464019e+01
   1.378894e+02   2.702989e+01
   2.786622e+01   1.653980e+02
  -8.893136e+01   1.254785e+02
  -1.037791e+02   7.204459e+01
  -4.656629e+01  -2.096116e+01
  -2.387921e+01  -3.219867e+01
  -5.409870e+01  -3.997989e+01
  -3.252687e+01  -2.682761e+01
  -5.894042e+01  -6.516278e+01
  -4.011179e+01  -1.283270e+02
   5.571815e+00  -8.628778e+01
   7.943922e+01  -2.764868e+01
   9.081391e+01   8.652469e+01
   1.456619e+01   7.110515e+01
  -6.601584e+01   8.027133e+00
  -3.915550e+01  -5.257426e+01
   5.390367e+00  -7.256984e+01
   7.602296e+01  -5.454120e+01
   6.117932e+01   3.574967e+01
   4.837291e+01   4.516471e+01
  -2.082474e+01   8.713631e+01
  -2.910871e+01   8.113886e+00
  -1.234541e+01   9.201833e+00
   5.200826e+01   1.919639e+01
  -9.568131e+00   5.605704e+01
  -7.901440e+01   7.919494e+01
  -1.532835e+02   4.364361e+01
  -2.447490e+01  -4.897594e+01
   2.447295e+01  -7.361374e+01
   3.376683e+01  -5.284381e+01
   4.755208e+01   1.799366e+00
   2.907078e+00   5.074771e+01
   3.438924e+01   6.321956e+01
  -4.236783e+01  -2.283680e+00
  -4.088275e+01  -2.462255e+01
   2.593927e+01  -7.705423e+00
   1.711702e+01  -7.335036e+00
   1.710535e+01   2.665567e+01
   1.382627e+01  -1.936347e+01
   2.141068e+01  -2.113642e+00
   3.943437e+01  -9.404050e+00
   4.727707e+01   1.784508e+01
  -1.731094e+01   1.156552e+01
  -4.870400e+01  -1.062860e-02
  -3.632409e+01  -8.802682e+01
   1.294077e+01  -3.404273e+01
   4.897548e+01  -6.380781e+01
   1.496979e+01   3.932157e+01
   1.165662e+01   5.335681e+01
  -9.273722e+01   3.008107e+01
  -4.745597e+01   1.404207e+01
  -2.506061e+01  -1.093769e+01
   6.738932e+01  -1.391035e+01
   7.921322e+01   1.176542e+01
   1.597526e+01  -1.144747e+01
  -3.678343e+01   4.719181e+01
  -6.917355e+01   3.697339e+01
  -1.962031e+01  -3.968371e+01
   3.687282e+01  -6.288833e+01
