
 $NMID
 id='ANONYMOUS ', fmtdat='(2E16.6)'
 volume=1.0
 tramp=1.0
 $END
  -4.892833e+03   2.035311e+02
  -2.835099e+03  -2.940722e+03
   1.081821e+03  -2.934374e+03
   2.564269e+03  -1.067516e+03
   1.047335e+03   7.757650e+02
  -7.887479e+02   7.578166e+02
  -9.097552e+02  -4.642124e+02
  -1.024883e+01  -1.188599e+03
   1.002216e+03  -9.467409e+02
   1.074095e+03   1.943146e+02
   5.122883e+02   1.011133e+03
  -3.433881e+02   1.007105e+03
  -7.292638e+02   1.838304e+02
  -4.609481e+02  -8.773968e+02
   2.572144e+02  -8.795982e+02
   6.598176e+02  -5.389268e+01
   1.657063e+02   7.876008e+02
  -3.395650e+02   5.109105e+02
  -6.301011e+02  -4.280719e+01
  -5.056112e+02  -2.624866e+02
  -6.248236e+01  -5.427134e+02
   3.701074e+02  -2.815778e+02
   6.162416e+01   1.627680e+01
  -2.874208e+02   1.609544e+02
  -4.872382e+02  -9.143661e+01
  -2.820981e+02  -5.220590e+02
   5.125570e+02  -3.554182e+02
   1.013373e+03  -5.214780e+01
   4.063217e+02   7.171160e+02
  -5.518766e+02   5.601214e+02
  -8.014410e+02  -2.372566e+01
  -3.647035e+02  -5.398738e+02
   3.234435e+02  -6.684607e+02
   6.806626e+02  -2.518165e+02
   3.931381e+02   3.076243e+02
   2.230677e+01   5.967646e+02
  -2.508192e+02   3.780891e+02
  -2.319248e+02  -3.555513e+02
   1.851275e+02  -5.117540e+02
   5.503731e+02   6.068660e+01
   2.330131e+02   7.774732e+02
  -4.866911e+02   7.752861e+02
  -6.867812e+02  -1.647031e+01
  -3.353475e+02  -6.168318e+02
   2.792848e+02  -3.565142e+02
   4.257271e+02   3.892482e+02
  -2.716266e+01   6.310350e+02
  -6.192018e+02   7.572248e+01
  -6.530011e+02  -5.094201e+02
  -1.688461e+02  -6.635127e+02
   4.378611e+02  -3.140695e+02
   7.160757e+02   1.625091e+02
   4.300689e+02   4.848131e+02
  -2.143316e+02   3.895100e+02
  -5.373206e+02   1.788847e+01
  -3.042377e+02  -2.505441e+02
   1.413230e+02  -8.361384e+01
   1.833993e+02   2.393429e+02
  -1.479214e+02   2.108195e+02
  -4.170084e+02  -7.970217e+01
  -2.255001e+02  -2.991748e+02
   1.863733e+02  -2.687690e+02
   3.833251e+02  -7.961221e+01
   2.020987e+02   7.375922e+01
  -3.588268e+01   2.300697e+02
  -2.287384e+02   3.472720e+02
  -3.558181e+02   2.327258e+02
  -3.274738e+02  -9.723865e+01
  -1.177137e+02  -4.690094e+02
   1.141115e+02  -4.286359e+02
   1.157212e+02  -1.601012e+02
  -5.591067e+00  -3.116200e+00
   1.098397e+01  -1.477755e+02
   2.178855e+02  -2.287612e+02
   3.255691e+02   8.207132e+00
   2.325779e+02   3.262060e+02
  -2.287993e+01   2.546456e+02
  -2.015518e+02   1.670422e+01
  -2.064861e+02  -2.712218e+02
   9.585012e+00  -2.794151e+02
   2.745117e+02  -5.318094e+01
   3.627581e+02   2.198064e+02
   1.745064e+02   3.921822e+02
  -1.143942e+02   2.798536e+02
  -2.459859e+02   9.377966e+01
  -1.306711e+02   3.922185e+01
  -1.394674e+02   8.764480e+01
  -2.787103e+02   7.189148e+01
  -3.828634e+02  -1.152819e+02
  -2.969492e+02  -3.308500e+02
   5.657891e+01  -4.358464e+02
   3.362424e+02  -4.245096e+02
   5.164840e+02  -1.978051e+02
   3.699915e+02   9.717217e+01
   9.119964e+01   3.116031e+02
  -1.705713e+02   3.179415e+02
  -1.158960e+02   3.208219e+01
   1.278730e+02  -1.225992e+02
   2.597167e+02  -1.504882e+01
   4.816236e+00   2.311675e+02
  -2.211359e+02   2.311384e+02
  -2.309738e+02  -8.060123e+01
   8.500215e+01  -2.059608e+02
   1.814158e+02  -2.474801e+01
   1.093550e+02   2.664927e+02
  -8.048104e+01   3.354845e+02
  -2.529374e+02   1.536512e+02
  -3.148000e+02  -1.133057e+02
  -2.650605e+02  -2.643684e+02
  -1.138240e+02  -3.235211e+02
   1.393431e+02  -1.647389e+02
   1.977220e+02  -1.666307e+01
   1.048169e+02   7.636795e+01
  -1.170189e+02  -6.575318e+01
  -4.904455e+01  -1.617675e+02
   1.360359e+02  -1.335010e+02
   2.285497e+02  -3.528110e+00
   6.148732e+01   1.109691e+02
  -6.136893e+01   5.997813e+01
  -1.963892e+01  -8.258771e+01
   1.497349e+02  -9.704607e+01
   2.445894e+02   2.189790e+01
   2.687911e+02   1.787199e+02
   1.063484e+02   2.882155e+02
  -1.988864e+02   3.124266e+02
  -2.842538e+02   1.602807e+02
  -1.984840e+02  -7.947767e+01
   6.159508e+01  -1.354576e+02
   7.740444e+01  -2.775654e+01
  -2.047498e+01   9.167707e+01
  -2.103325e+02   4.675835e+01
  -2.356964e+02  -1.502732e+02
  -7.092906e+01  -2.219425e+02
   1.221191e+02  -1.666961e+02
   1.379455e+02   7.387661e+00
   6.223047e+01   3.843761e+01
  -1.320813e+01   4.885927e+00
  -5.912858e+01  -7.772535e+01
   1.756343e+01  -1.609364e+02
   1.844192e+02  -3.845307e+01
   2.421011e+02   1.056039e+02
   5.419050e+01   2.791651e+02
  -2.109578e+02   1.786924e+02
  -2.028664e+02  -6.196035e+00
  -9.354633e+01  -1.521458e+02
   7.144831e+01  -9.897471e+01
   9.245528e+01  -1.300184e+01
   4.736454e+01   2.949149e+01
  -3.615888e+01  -1.395772e+01
  -1.937858e+01  -4.394310e+00
   1.356696e+01  -1.375850e+01
   9.447375e+01   1.021890e+02
   1.861073e+01   1.701086e+02
  -1.148593e+02   1.520629e+02
  -2.158818e+02   6.409934e-01
  -2.073102e+02  -1.886470e+02
  -8.837593e+01  -2.233699e+02
   1.109592e+02  -1.724598e+02
   1.283459e+02   1.281502e+01
   9.811501e+01   5.457458e+01
   2.112231e+01   1.129381e+01
   1.311546e+02  -7.800732e+01
   1.031333e+02  -2.528258e+01
   5.650635e+01   3.600410e+01
  -4.062924e+01   1.436320e+02
  -1.057681e+02   7.432143e+01
  -7.630602e+01  -2.397081e+01
   3.108715e+01  -1.502105e+02
   1.797334e+02  -9.140441e+01
   1.674041e+02   1.155484e+02
   5.239912e+01   2.460567e+02
  -1.635141e+02   2.890762e+02
  -3.028896e+02   7.547624e+01
  -2.736653e+02  -1.151386e+02
  -9.597745e+01  -2.143718e+02
   3.393364e+01  -1.626001e+02
   7.900337e+01  -8.092977e+01
   7.897513e+01  -6.940036e+01
   1.914597e+01  -1.028367e+02
   7.007247e+01  -8.179952e+01
   1.832161e+02   6.543727e+01
   1.167938e+02   1.962281e+02
   4.080003e+01   3.058341e+02
  -1.542248e+02   1.691141e+02
  -1.610199e+02  -2.177826e+01
  -1.232026e+02  -1.976862e+02
   1.409144e+01  -1.840645e+02
   4.239704e+01  -4.200714e+01
   7.359402e+01  -5.052020e+00
   7.222808e+01   9.277189e+01
   5.542288e+01   3.542722e+01
   5.116715e+01   1.818598e+01
   3.650943e+01   3.491513e+01
  -1.978176e+00   3.465950e+01
  -1.170734e+02   6.700375e+01
  -1.998552e+02  -2.740741e+01
  -1.311807e+02  -5.636774e+01
  -5.489347e+00  -9.888575e+01
   1.006226e+02  -7.264806e+01
   1.260301e+02   1.185415e+00
  -5.134750e+00   3.020672e+01
  -9.113053e+01   4.478669e+01
  -8.349544e+01  -3.927691e+01
  -6.819223e+00  -6.930132e+01
   6.144240e+01  -5.971232e+01
   4.125722e+01  -1.000980e+01
   9.060928e+00   3.843295e+01
   5.710481e+01   4.656730e+01
   8.806384e+01  -3.523310e+01
   7.492611e+01   5.322730e+01
   2.575472e+01   4.353045e+01
  -1.793534e+01   1.773402e+02
  -1.173734e+02   9.506723e+01
  -1.345670e+02   3.664713e+01
  -1.488601e+02  -8.929078e+01
   1.664572e+01  -9.955686e+01
   8.790120e+01   1.150224e+01
   8.095160e+01   1.073100e+01
  -8.700003e+01   3.864794e+01
  -1.352123e+02  -7.607051e+01
  -5.058903e+01  -1.615258e+02
   1.182895e+02  -1.109042e+02
   2.079798e+02  -5.075897e+00
   1.808143e+02   3.276596e+01
   5.730911e+01   5.361290e+01
  -6.686269e+01   6.599875e+01
  -1.101486e+01  -7.703273e+00
   6.360402e+01  -2.803715e+01
   8.245373e+01   2.609895e+01
  -1.703245e+01   1.347560e+02
  -1.048821e+02   1.644001e+02
  -1.612889e+02   7.932988e+01
  -1.421671e+02  -1.045909e+02
   6.519556e+00  -2.334914e+02
   7.585326e+01  -1.227397e+02
   9.026384e+01  -4.125349e+00
   3.494038e+01   1.393188e+02
   1.732925e+01   1.072415e+02
   1.889455e+00   2.525889e+01
  -5.737328e+01  -3.089740e+00
  -1.245627e+01  -4.646967e-01
  -5.436600e+01   3.663163e+01
  -6.106753e+01  -1.051138e+01
  -6.150922e+01  -1.053588e+02
  -4.742837e+01  -1.292911e+02
   4.778231e+01  -2.040325e+01
   1.675600e+02   7.497213e+01
   1.736181e+02   1.425537e+02
   3.153414e+01   9.687567e+01
  -1.216740e+02   3.516009e+01
  -1.263594e+02   6.912407e+00
  -2.428903e+01  -1.488522e+01
   3.673755e+01  -1.141001e+00
   2.878598e+01  -2.752723e+01
   5.358369e+00   1.632372e+01
   2.699236e+01   1.123968e+01
   6.780915e+01   6.287982e+01
   8.229237e+01   2.275393e+01
  -1.170704e+01   8.588997e+01
  -1.569005e+02   8.992486e+01
  -1.819456e+02   2.893272e+01
  -1.408212e+02  -9.267257e+01
  -2.262948e+01  -1.754562e+02
   8.966743e+01  -1.609467e+02
   1.153334e+02  -6.716912e+01
   1.039628e+02  -8.728365e-02
   3.796595e+01   1.184891e+01
   1.160205e+01  -9.717965e+00
   3.518322e+01  -2.047479e+01
  -1.963864e-01   6.425129e+01
   5.030160e+01   9.090910e+01
  -1.595986e+01   9.023360e+01
  -5.616768e+01  -5.245862e+01
  -7.245308e+01  -1.071733e+02
   5.088704e+01  -1.120920e+02
   1.171816e+02   1.709888e+00
   8.019309e+01   1.050946e+02
   2.376069e+01   1.224949e+02
  -1.064189e+02   5.323041e+01
  -4.954386e+01   5.363315e+00
  -1.858830e+01  -3.659041e+01
   4.632563e+01  -2.586558e+01
   2.750631e+01  -1.866051e+01
  -4.213956e+01  -7.602404e+00
  -7.618145e+01   8.131297e+01
  -2.290942e+01  -2.074573e+01
   5.478162e+01  -3.549580e+01
   1.498676e+02  -3.851367e+01
   8.740024e+01   1.381295e+01
  -4.472000e+01   1.105077e+02
  -6.076896e+01   7.075345e+01
  -3.987625e+01  -1.703574e+01
   2.076138e+01  -7.573587e+01
   3.384750e+01  -6.889626e+01
   4.302250e+01   5.522225e+01
   5.470849e+01   5.336250e+01
   1.404208e+01   2.791385e+01
  -3.955608e+01   1.036258e+01
  -3.105805e+01  -6.089335e+01
  -3.035080e+01  -1.315747e+01
   3.268453e+01   5.811103e+00
   2.426843e+01   1.199889e+01
   5.854777e+01  -6.464243e+01
  -4.966268e+00  -4.841358e+01
   1.063753e+01   1.869556e+00
   2.108409e+01   5.429984e+01
  -2.064564e+01   5.503767e+01
  -8.718118e+01   2.155718e+00
  -3.304860e+01  -7.411556e+01
   2.031331e+00  -3.796561e+01
   6.785209e+01  -3.710662e+01
   7.482210e+01   5.822017e+01
   2.546995e+01   9.249117e-01
   7.959012e+00   3.448989e+01
  -1.545246e+01   7.809598e+00
   3.937333e+01   2.726088e+01
   3.442597e+01   3.874065e+01
   4.939095e+01   3.852144e+01
  -3.662597e+01   3.595481e+01
  -1.213443e+02  -1.031296e+01
