
 $NMID
 id='ANONYMOUS ', fmtdat='(2E16.6)'
 volume=1.0
 tramp=1.0
 $END
   4.026061e+03   1.359084e+02
   2.105639e+03   2.199521e+03
  -6.949281e+02   2.638747e+03
  -2.066840e+03   9.421119e+02
  -1.051451e+03  -4.193651e+02
   3.743193e+02  -3.295502e+02
   6.595988e+02   1.364888e+02
  -1.642467e+01   6.821245e+02
  -6.408645e+02   7.325497e+02
  -8.679439e+02   1.211255e+02
  -4.054907e+02  -6.658729e+02
   6.231436e+01  -8.583147e+02
   3.762480e+02  -1.453295e+01
   2.674031e+02   6.781244e+02
  -1.985348e+02   8.254592e+02
  -4.034393e+02   1.457833e+02
  -4.553654e+02  -6.016487e+02
   3.711577e+02  -7.126106e+02
   5.026311e+02  -1.739334e+02
   3.319844e+02   2.981696e+02
   2.516441e+02   1.131518e+02
  -1.920025e+02   3.642914e+01
  -8.878384e+01   1.386073e+02
  -7.664666e+01   2.297424e+01
   3.635953e+02   3.178202e+02
   1.479572e+02   3.589352e+02
  -3.162182e+02   3.371559e+02
  -6.304784e+02  -9.428259e+01
  -3.260764e+02  -4.820329e+02
   2.639649e+02  -3.325615e+02
   6.196550e+02   2.165736e+01
   3.380839e+02   3.633557e+02
  -1.916979e+02   5.721856e+02
  -4.911994e+02   2.354061e+02
  -4.549641e+02  -1.530468e+02
  -2.540287e+01  -3.402617e+02
   1.565701e+02  -3.331010e+02
   1.491353e+02   4.281095e+01
  -9.055357e+01   2.390656e+02
  -2.819803e+02  -1.617621e+02
  -1.883847e+02  -5.297004e+02
   3.498901e+02  -5.069794e+02
   4.441196e+02   1.068550e+01
   2.416883e+02   4.487053e+02
  -1.943119e+02   2.609479e+02
  -2.969667e+02  -2.571810e+02
   1.270285e+02  -4.417304e+02
   4.910653e+02  -9.787771e+01
   4.840785e+02   3.099386e+02
   1.433513e+02   4.926085e+02
  -3.160361e+02   2.999892e+02
  -5.608436e+02  -7.576532e+01
  -2.568544e+02  -3.139320e+02
   1.522780e+02  -3.148037e+02
   3.416092e+02  -2.023590e+01
   1.845433e+02   1.480937e+02
  -8.683215e+01   1.004628e+02
  -9.531069e+01  -6.322729e+01
   1.418450e+02  -1.615042e+02
   2.055858e+02   3.808272e+01
   1.101083e+02   2.371113e+02
  -2.139600e+02   2.152467e+02
  -3.281872e+02   1.269255e+02
  -2.043621e+02  -1.089486e+02
   3.295263e+01  -3.305232e+02
   2.145483e+02  -3.339039e+02
   3.215345e+02  -1.846118e+02
   2.423614e+02   1.564440e+02
   1.148003e+02   4.197228e+02
  -8.953489e+01   3.388840e+02
  -7.384251e+01   1.481387e+02
  -2.987397e+01   7.488443e+01
  -1.121357e+02   7.191279e+01
  -2.553784e+02   7.053856e+01
  -2.363875e+02  -1.428393e+02
  -1.453211e+02  -3.273774e+02
   1.256706e+02  -2.450087e+02
   2.514246e+02   3.269992e+01
   1.518368e+02   2.622063e+02
  -4.465975e+01   3.245258e+02
  -2.661979e+02   1.202169e+02
  -3.289179e+02  -1.291977e+02
  -1.604519e+02  -3.437916e+02
   4.770858e+01  -3.049278e+02
   1.747645e+02  -1.564598e+02
   1.149702e+02  -1.811546e+01
   1.578705e+02  -4.126403e+01
   2.756837e+02  -5.023320e+01
   4.379153e+02   9.546315e+01
   3.086955e+02   2.983130e+02
  -1.206667e+01   4.420441e+02
  -3.310354e+02   4.296965e+02
  -4.678911e+02   1.912051e+02
  -2.934301e+02  -3.097977e+01
  -4.180186e+01  -2.698402e+02
   5.953992e+01  -1.941711e+02
   6.547369e+01  -7.150150e+01
  -9.851424e+01   1.128521e+01
  -1.347818e+02  -1.762000e+01
  -3.149281e+01  -1.510880e+02
   7.707303e+01  -1.059050e+02
   7.613814e+01   1.096382e+02
  -9.031673e+01   1.681621e+02
  -2.319047e+02  -1.655716e+01
  -1.543417e+02  -2.766495e+02
  -3.320300e+00  -3.513624e+02
   2.909801e+02  -2.553840e+02
   3.436972e+02   2.921628e+01
   3.213887e+02   2.312089e+02
   1.046979e+02   2.829173e+02
  -7.293670e+01   2.114120e+02
  -1.612274e+02   6.888895e+01
  -9.298509e+01   1.563037e+01
   1.825179e+00   8.242756e+01
  -7.585502e+01   7.027443e+01
  -1.262722e+02   8.705363e+01
  -8.083097e+01  -5.824739e+01
  -4.322484e+01  -4.334203e+01
   6.949387e+01   1.485004e+00
   2.123255e+01   9.724413e+01
  -1.193071e+02   8.472183e+01
  -2.703715e+02   1.661561e+01
  -2.327897e+02  -1.695428e+02
  -4.495290e+01  -2.364743e+02
   1.509258e+02  -2.206479e+02
   2.512683e+02  -1.012427e+02
   1.197487e+02   3.799497e+01
  -1.463736e+01   1.006246e+02
  -9.764603e+01  -4.968150e+00
   5.468389e+01  -8.587387e+01
   1.756260e+02  -1.072732e+02
   2.095678e+02   2.483760e+01
   6.079418e+01   1.908879e+02
  -5.830414e+01   1.165432e+02
  -1.596119e+02   1.716756e+01
  -7.591534e+01   5.702539e+00
   2.290726e+01   1.719933e+01
   6.317715e+01   8.197400e+01
  -3.563685e+01   1.281757e+02
  -1.809786e+02   2.404277e+01
  -1.869482e+02  -1.504953e+02
  -3.568552e+01  -1.968370e+02
   1.410617e+02  -1.083027e+02
   2.096460e+02  -1.654965e+01
   9.445015e+01   7.629375e+01
  -4.281173e+01   7.430178e+01
  -9.330423e+01   5.531655e+01
   5.056710e+01  -2.344990e+00
   4.569485e+01   2.389546e+01
   7.377061e+00   4.391730e+01
  -1.366684e+02  -1.934557e+00
  -1.295276e+02  -5.995032e+01
  -6.194368e+01  -1.591512e+02
   1.272923e+02  -1.794125e+02
   2.337078e+02  -3.125636e+01
   1.963060e+02   1.447395e+02
   4.567405e+01   2.320313e+02
  -9.300595e+01   1.512156e+02
  -1.515249e+02   2.722978e+01
  -5.378860e+01  -3.974726e+01
  -3.034269e+01  -1.325774e+01
  -5.372674e+01   2.459918e+01
  -8.810968e+01   2.330629e+01
  -3.314808e+01  -7.913905e+01
   5.173721e+01  -1.065994e+02
   1.125494e+02  -6.985604e+01
   1.080288e+02   4.259476e+01
  -1.240876e+01   9.264984e+01
  -1.357250e+02   7.038065e+01
  -1.646878e+02  -6.963240e+01
  -6.440771e+01  -2.327999e+02
   1.154032e+02  -2.042740e+02
   2.387498e+02  -1.063868e+02
   2.517823e+02   1.131183e+02
   1.012136e+02   1.663491e+02
  -5.915007e+01   1.284254e+02
  -9.119783e+01   6.736513e+01
  -2.157755e+01   3.862067e+01
  -6.566707e+01   1.021123e+02
  -9.392509e+01   7.959234e+01
  -1.766341e+02  -2.779393e+01
  -1.274240e+02  -1.513551e+02
   6.684158e+00  -1.978385e+02
   1.378708e+02  -1.614784e+02
   1.636743e+02  -2.262160e+01
   9.387254e+01   1.099883e+02
   2.940674e+01   1.534241e+02
  -4.879040e+01   6.621656e+01
  -6.953401e+01  -3.866096e+01
  -8.314038e+00  -2.256095e+01
   1.896861e+00  -4.571270e+00
  -2.004188e+01   1.917575e+01
  -7.446737e+01  -3.466865e+01
  -7.020796e+01  -6.246868e+01
   7.449025e+01  -4.625059e+01
   1.444698e+02   3.488574e+00
   1.387681e+02   7.687371e+01
  -1.586616e+01   1.069054e+02
  -9.623811e+01   6.694836e+01
  -1.585416e+02   3.551514e+01
  -3.452740e+01  -1.861968e+01
   4.940841e+01  -6.284862e+01
   5.219966e+01   2.127863e+01
   1.307192e+01   5.080640e+01
  -6.104286e+01   9.427581e+01
  -8.029493e+01  -3.565512e+01
  -4.281617e+01  -8.550273e+01
  -5.593082e+01  -8.663104e+01
  -5.347355e+01  -2.744523e+01
  -1.004775e+02  -8.226365e+00
  -7.502600e+00  -9.532031e+01
   7.619818e+00  -2.170122e+02
   1.376808e+02  -1.427951e+02
   1.513123e+02  -2.321977e+01
   1.447991e+02   8.568375e+01
  -1.626065e+01   1.373732e+02
  -5.581843e+01   8.555159e+01
  -6.371201e+01   2.808942e+00
   3.789960e+01  -5.385437e+01
   9.865796e+01   5.332906e+01
   5.336844e+01   1.259293e+02
  -4.453783e+01   1.205543e+02
  -1.908400e+02   3.491415e+01
  -1.371810e+02  -4.733228e+01
  -1.543063e+01  -1.203753e+02
   1.104912e+02  -5.983708e+01
   3.978357e+01   9.881272e+00
  -2.165023e+01   1.121508e+01
  -8.323571e+01  -1.290761e+01
  -2.231874e+01  -1.294433e+02
   8.162593e+01  -1.263850e+02
   1.579539e+02  -8.262758e+01
   1.371016e+02   1.066865e+02
  -1.122612e+01   1.746416e+02
  -5.774879e+01   1.653562e+02
  -1.223760e+02  -2.839487e+01
  -5.134509e+01  -9.820864e+01
   1.398896e+01  -1.117514e+02
   1.603528e+01   4.300174e+01
   1.379805e+01   5.650985e+01
   4.681949e+01   5.601150e+00
   7.128911e+00  -6.035406e+01
  -8.791480e+00  -3.358898e+01
   4.224014e+01   7.102775e+01
   1.082413e+02   9.335384e+01
  -4.085939e+01   5.025462e+01
  -1.073457e+02  -3.281117e+01
  -1.309338e+02  -1.849187e+01
  -2.932320e+01  -1.182211e+01
   1.296189e+02  -4.000683e+01
   9.284624e+01  -3.102914e+01
  -2.257575e+01   3.423906e+00
  -4.819166e+01   1.597615e+01
  -1.691118e+01   5.203972e+00
   7.445740e+00   2.360634e-01
   1.294811e+00  -6.646007e+00
  -4.544650e+01  -2.423434e+01
  -3.037858e+01  -2.030250e+01
   1.015294e+01  -8.893698e+01
   1.167446e+02  -1.292354e+02
   1.614641e+02  -4.806182e+01
   1.103417e+02   5.290452e+01
   2.206991e+01   1.700491e+02
  -3.005103e+01   1.833812e+02
  -1.044504e+02   6.464437e+01
  -6.300118e+01  -4.500131e+01
   7.339741e+00  -3.867697e+01
   6.135986e+01  -3.788955e+00
  -1.810792e+01  -2.575708e+01
  -1.373376e+01  -1.004604e+00
  -2.105631e+01  -6.589561e+01
   5.554478e+01  -8.033202e+01
   1.089155e+02   7.591978e+01
   7.903103e+01   1.184010e+02
   1.544423e+01   1.161539e+02
  -9.650827e+01   1.050834e+01
  -1.030584e+02  -8.528090e+01
  -3.453076e+01  -1.287973e+02
   7.349699e+01  -3.549220e+01
   8.565283e+01   3.737176e+01
   2.671945e+01   1.305309e+02
  -3.457302e+01   4.779153e+01
  -8.116007e+01   6.460223e+01
   1.458820e+01  -1.121138e+00
   8.834801e+01  -6.014502e+01
  -6.240603e+00   4.101562e+01
  -8.586920e+01   3.863645e+01
  -1.414541e+02   8.713149e+01
  -5.697772e+01  -2.912246e+01
  -1.510043e+01  -8.188145e+01
   5.852309e+01  -1.014076e+02
   8.492227e+01  -3.361616e+01
   1.217540e+01   2.672415e+01
  -2.525287e+01   2.784441e+01
  -4.723128e+01   1.164386e+01
  -2.715311e+01  -5.108825e+01
  -9.526629e+00  -2.760677e+01
   4.231777e+01   1.490047e+01
   6.175378e+01   8.960227e+00
   6.129727e+01   6.301856e+00
  -3.738942e+01  -4.031691e+01
  -1.287649e+01   6.806614e+00
   2.826308e+01   6.282397e+01
  -4.341225e+01   2.573933e+01
  -2.968961e+01  -6.518370e+00
  -2.882823e+01  -2.345954e+01
  -1.905523e+01  -4.633656e+01
   4.306965e+01  -5.257979e+01
   6.741126e+01   1.264445e+01
  -9.934518e+00   3.357116e+01
  -5.719311e+01   7.084849e+01
  -7.677776e+01  -6.413986e+00
  -4.471481e+01  -4.425498e+01
   2.904343e+00  -3.969963e+01
   5.795476e+01  -4.204011e+01
   1.396166e+01  -1.675074e+01
  -2.194271e+01   5.353215e+00
  -4.534078e+01  -1.200268e+01
   2.669465e+01  -1.875076e+01
   9.097115e+01   2.709072e+01
