
 $NMID
 id='ANONYMOUS ', fmtdat='(2E16.6)'
 volume=1.0
 tramp=1.0
 $END
   4.516690e+03  -1.624288e+01
   2.641014e+03   2.829474e+03
  -4.371254e+02   3.031579e+03
  -2.105508e+03   1.072093e+03
  -1.086547e+03  -5.139096e+02
   7.437076e+02  -4.689069e+02
   8.718682e+02   3.196972e+02
  -1.080479e+01   9.112812e+02
  -8.990763e+02   6.942215e+02
  -9.723283e+02  -4.444920e+01
  -3.850902e+02  -8.140217e+02
   1.897685e+02  -9.318653e+02
   7.531221e+02  -1.833456e+02
   4.954194e+02   7.684671e+02
   4.645301e+01   8.334807e+02
  -8.803957e+02  -3.413593e+01
  -1.891880e+02  -6.657136e+02
   3.119855e+02  -5.452894e+02
   6.955394e+02  -1.027852e+02
   5.369554e+02   4.060405e+02
  -2.359292e+01   5.011602e+02
  -1.022756e+02   3.244555e+02
  -2.239466e+02   1.331268e+01
   1.951042e+02  -4.580639e+01
   4.261780e+02   2.578607e+01
   3.190386e+01   4.680142e+02
  -5.652066e+02   4.891017e+02
  -8.200100e+02  -1.260554e+02
  -4.707890e+02  -6.513221e+02
   4.710318e+02  -4.099255e+02
   8.594850e+02  -2.133175e+01
   2.744969e+02   5.809534e+02
  -3.250304e+02   5.715727e+02
  -5.759231e+02   3.032998e+02
  -4.014600e+02  -3.408714e+02
  -9.852751e+01  -4.247035e+02
   1.756379e+02  -2.664510e+02
   1.557593e+02   1.816025e+02
  -1.126259e+02   4.274687e+02
  -4.369104e+02   2.246511e+00
  -1.716896e+02  -6.548155e+02
   3.524362e+02  -6.524554e+02
   6.336430e+02   6.165112e+01
   2.288710e+02   6.617158e+02
  -3.283411e+02   3.548161e+02
  -4.021707e+02  -3.543275e+02
   4.732434e+01  -5.985474e+02
   5.486156e+02  -1.545355e+02
   5.871527e+02   4.465086e+02
   2.273701e+02   6.349461e+02
  -3.529679e+02   3.075560e+02
  -6.566516e+02  -1.205478e+02
  -4.042744e+02  -4.037153e+02
   1.111093e+02  -4.072162e+02
   4.461477e+02  -6.447538e+01
   2.464605e+02   1.749369e+02
  -1.160325e+02   1.105710e+02
  -1.406251e+02  -1.162816e+02
   1.697899e+02  -1.913307e+02
   3.146161e+02   1.214744e+01
   1.107008e+02   2.307796e+02
  -2.426960e+02   2.444575e+02
  -3.734138e+02   1.259429e+02
  -2.488433e+02  -6.759225e+01
   6.976186e+01  -3.050444e+02
   2.690319e+02  -3.813277e+02
   3.644789e+02  -2.257320e+02
   2.887170e+02   1.002971e+02
   1.094096e+02   4.418088e+02
  -9.863984e+01   3.855923e+02
  -1.127106e+02   9.260705e+01
  -3.149740e+01  -2.706977e+00
  -6.817119e+01   1.105320e+02
  -2.435283e+02   9.816223e+01
  -2.478557e+02  -6.905059e+01
  -1.163407e+02  -2.560779e+02
   8.083152e+01  -2.572421e+02
   2.359228e+02  -1.285912e+01
   2.301603e+02   2.268484e+02
  -2.116297e+01   3.311769e+02
  -2.799630e+02   1.519743e+02
  -3.400368e+02  -1.640283e+02
  -1.537209e+02  -3.558020e+02
   8.846535e+01  -2.891744e+02
   2.074204e+02  -1.290424e+02
   1.771558e+02  -3.654989e+01
   9.763102e+01  -8.145844e+01
   2.653498e+02  -1.020476e+02
   4.346134e+02   5.388733e+01
   3.509560e+02   3.247493e+02
   7.729643e-01   4.989644e+02
  -3.676133e+02   4.598904e+02
  -5.536007e+02   2.187473e+02
  -3.662469e+02  -1.282775e+02
  -8.382314e+01  -3.703807e+02
   1.567954e+02  -2.690187e+02
   9.752957e+01   4.495805e+00
  -6.799461e+01   8.972521e+01
  -2.233480e+02  -3.835147e+01
  -4.140050e+01  -1.978714e+02
   1.855751e+02  -1.413450e+02
   1.616079e+02   1.120759e+02
  -5.559186e+01   2.414455e+02
  -2.194383e+02   2.552561e+01
  -1.993197e+02  -2.556097e+02
   1.548334e+01  -3.517579e+02
   2.181381e+02  -2.114185e+02
   3.166928e+02   4.529908e+01
   2.853487e+02   2.237832e+02
   5.670228e+01   2.452400e+02
  -1.563568e+02   1.784084e+02
  -1.989499e+02   2.308250e+01
  -1.966571e+01  -3.825961e+01
   8.310976e+01   2.708275e+01
  -2.223755e+00   9.083558e+01
  -1.613017e+02   7.718755e+01
  -1.951485e+02  -3.132652e+01
  -5.962045e+01  -4.062155e+01
   8.055017e+01  -2.482466e+01
   7.996267e+01   1.154979e+02
  -1.205445e+02   8.123312e+01
  -2.931221e+02  -3.592275e+01
  -2.928385e+02  -1.755093e+02
  -5.735298e+01  -2.616587e+02
   1.462163e+02  -2.894459e+02
   2.370173e+02  -1.329803e+02
   2.138651e+02   4.582423e+01
   1.137369e+01   9.112455e+01
  -8.534115e+01   1.154951e+01
   4.805535e+01  -1.198277e+02
   1.964381e+02  -8.014767e+01
   2.184690e+02   1.341849e+02
   7.417228e+01   2.459317e+02
  -6.407433e+01   1.403343e+02
  -1.416570e+02   1.927091e+01
  -7.392901e+01  -7.138000e+01
   3.597627e+01  -4.473069e+01
   9.155926e+01   1.035127e+02
  -4.301497e+01   1.396513e+02
  -2.340793e+02   7.910614e+00
  -2.102625e+02  -1.503818e+02
  -4.004156e+01  -1.957507e+02
   1.487101e+02  -1.794445e+02
   2.246896e+02  -2.091284e+01
   1.024046e+02   1.294915e+02
  -7.941005e+01   9.295407e+01
  -6.295204e+01   2.978112e+01
   2.384566e+01   2.116374e+01
  -1.402624e-01   9.848602e+00
  -8.651416e+00   5.097419e+01
  -9.721829e+01  -1.173535e+01
  -1.060453e+02  -1.435780e+02
   1.592322e+01  -2.063634e+02
   1.538090e+02  -1.284648e+02
   2.259620e+02  -3.997505e+01
   2.310917e+02   1.524301e+02
   3.731132e+01   2.713518e+02
  -1.059775e+02   1.488345e+02
  -1.551997e+02   2.905479e+01
  -8.834837e+01  -1.477586e+01
  -2.481629e+01  -5.562044e+00
  -5.899870e+01   2.921780e+01
  -9.375305e+01  -2.155235e+01
  -1.553188e+01  -6.454681e+01
   5.878588e+01  -1.012967e+02
   7.831927e+01  -6.368972e+01
   1.079348e+02   7.266055e+01
  -5.923101e+00   1.288977e+02
  -1.070023e+02   3.015253e+01
  -1.942053e+02  -7.008137e+01
  -8.683536e+01  -2.438301e+02
   1.625803e+02  -2.898938e+02
   2.773901e+02  -9.524576e+01
   2.612143e+02   1.384759e+02
   8.259337e+01   1.893589e+02
  -2.791270e+01   2.095089e+02
  -9.881517e+01   8.658209e+01
  -2.208842e+01   8.924609e+01
  -4.949677e+01   9.944036e+01
  -8.141799e+01   1.007707e+02
  -1.227480e+02  -2.430968e+01
  -1.064461e+02  -1.124352e+02
  -7.747815e+01  -2.363801e+02
   4.781289e+01  -2.049901e+02
   1.460141e+02  -1.359024e+01
   1.728635e+02   1.361729e+02
   2.658104e+01   1.259903e+02
  -7.132281e+01   1.087035e+02
  -1.233370e+02  -9.458052e+00
  -4.819836e+01  -1.102077e+02
  -3.075570e+01  -1.823005e+01
  -1.134207e+01  -2.135648e+00
  -2.950362e+01  -3.514900e+01
  -2.431707e+01  -6.208999e+01
   7.373352e+01  -3.938179e+01
   1.294393e+02   3.256231e+01
   1.278315e+02   3.699871e+01
  -3.627085e+00   9.991799e+01
  -1.177282e+02   4.916004e+01
  -6.927650e+01   1.111780e-01
   6.067626e+00  -3.621235e+01
   9.225228e+01   4.847895e+00
   7.425686e+01   1.968714e+01
  -2.233570e+01   1.017784e+02
  -5.535677e+01   5.967831e+01
  -5.583689e+01   1.502629e+01
  -5.830507e+01  -8.469075e+01
  -6.406861e+01  -5.851688e+01
  -8.258799e+01  -2.225954e+01
  -1.211517e+02  -6.812681e+01
  -1.800944e+00  -8.516276e+01
   6.877548e+01  -1.772189e+02
   1.499371e+02  -1.593069e+02
   1.778425e+02  -4.913744e+00
   1.295884e+02   1.569511e+02
  -6.709539e-01   1.670427e+02
  -8.828244e+01   6.740304e+01
  -7.792241e+01  -7.030267e+01
   5.938510e+01  -1.068149e+02
   1.488085e+02   1.983191e+01
   9.879964e+01   5.624445e+01
  -8.770476e+01   1.272695e+02
  -1.667725e+02   8.071777e+01
  -1.591356e+02  -4.116641e+01
  -1.812433e+00  -5.270575e+01
   4.713339e+01  -4.897470e+01
   8.309158e+01   7.831961e-01
  -6.692149e+01   2.061538e+01
  -1.094255e+02   1.635195e+00
  -3.682741e+01  -1.093252e+02
   1.030508e+02  -1.709190e+02
   1.930617e+02  -8.307798e+01
   1.498665e+02   1.076536e+02
   1.200185e+01   2.011606e+02
  -1.217229e+02   1.584514e+02
  -1.042662e+02   8.149154e+00
  -7.511425e+01  -1.323733e+02
  -3.781847e-01  -9.198247e+01
   3.466331e+01  -3.929036e+01
   1.072039e+01   2.983584e+01
   5.179332e+01  -1.168878e+01
   2.102084e+01  -5.952264e+01
   3.096178e+01   2.422949e+01
   5.238882e+01   9.445391e+01
   6.107109e+01   1.481668e+02
  -9.248511e+01   1.950369e+01
  -1.631223e+02  -5.364485e+01
  -1.205799e+02  -9.136452e+01
   3.062844e+01  -6.845395e+01
   7.857383e+01  -2.015441e+01
   1.291623e+02  -2.069077e+00
   1.316356e+01   4.736817e+01
  -2.227142e+01   2.758659e+01
   7.336059e+00   1.519167e+01
   3.620461e+01   4.441537e+01
  -1.901026e+01   2.722073e+01
  -1.283617e+02   6.299241e+00
  -1.436647e+02   1.860410e+01
  -3.780222e+01  -8.620666e+01
   1.077066e+02  -1.094524e+02
   1.751199e+02  -6.802304e+01
   1.464131e+02   7.336713e+01
   2.486400e+00   1.452882e+02
  -8.397145e+01   1.589382e+02
  -1.135689e+02   6.088791e+01
  -6.635783e+01  -4.549921e+01
  -1.320034e+01  -5.764971e+01
   9.686146e+00  -5.558726e+01
  -1.296919e+01  -2.087032e+01
   7.537050e+00  -5.230317e+01
  -3.729606e+01  -9.082666e+01
   4.538703e+01  -1.164908e+02
   7.604417e+01   6.082227e+01
   1.177686e+02   1.343332e+02
  -1.135360e+01   1.745241e+02
  -1.023792e+02   3.798612e+01
  -1.555052e+02  -7.998650e+01
  -4.928985e+01  -8.245571e+01
   8.326576e+01  -6.041283e+01
   6.778821e+01  -3.621117e+00
   6.641227e+01   8.469757e+01
  -7.506497e+01   1.365550e+01
  -5.058695e+01   2.072104e+01
   3.002513e+01   2.308989e+01
   9.458367e+01  -4.791557e+01
   2.974271e+01   6.970470e-02
  -5.234700e+01   3.978039e+01
  -1.112036e+02   6.606834e+01
  -7.494979e+01  -1.847021e+01
   3.370316e+01  -8.159718e+01
   5.721699e+01  -1.157974e+02
   6.705303e+01   2.356844e+01
   1.318397e+01   4.095758e+01
  -2.743082e+01   6.889920e+00
  -8.492098e+01   1.189332e+01
  -3.831586e+01  -1.280759e+01
   5.979191e+00   7.534866e-02
   4.305557e+01   4.043934e+01
   2.198215e+01   2.958354e+01
   3.807065e+01   9.304874e+00
  -2.094298e-01   1.540797e+00
  -1.723418e+01  -8.260487e+00
   2.386719e+01   3.094106e+01
  -5.112683e+01   3.896963e+01
  -3.234931e+01  -3.146165e+01
  -3.393101e+01  -1.230321e+01
  -3.826521e+00  -2.171753e+01
   2.704161e+01  -1.028458e+01
   5.614680e+01   7.880673e+01
   9.487367e+00   8.729042e+01
  -5.995925e+01   4.393006e+01
  -6.561861e+01  -8.491225e-01
  -4.275566e+01  -7.082149e+01
   4.003150e+01  -5.720032e+01
   4.838742e+01  -4.508870e+01
   4.436736e+01   9.939181e-02
  -4.147744e+01  -1.915330e+01
  -4.858521e+01  -5.616095e+00
   4.575336e+01  -4.850888e+01
   8.817831e+01  -3.144993e+00
