
 $NMID
 id='ANONYMOUS ', fmtdat='(2E16.6)'
 volume=1.0
 tramp=1.0
 $END
   2.907820e+03   1.238054e+02
   2.000679e+03   1.729926e+03
  -9.761163e+01   2.015740e+03
  -1.206905e+03   1.124219e+03
  -7.813127e+02   1.382209e+02
   1.443238e+02  -1.421441e+02
   3.704356e+02   1.485353e+02
  -2.559002e+01   4.314034e+02
  -3.371371e+02   5.589100e+02
  -6.326676e+02   2.566878e+01
  -4.011221e+02  -5.153078e+02
  -3.320536e+00  -5.604564e+02
   4.402173e+02  -1.136369e+02
   2.660829e+02   3.747403e+02
  -4.057645e+01   5.410847e+02
  -3.691913e+02   1.088050e+01
  -1.612958e+02  -2.230116e+02
   1.448502e+02  -3.572098e+02
   4.950192e+02  -4.710265e+01
   3.156057e+02   4.980213e+01
   3.498130e+02   4.103770e+02
  -6.996177e+00   3.543439e+02
  -1.524798e+02   9.062125e+01
   1.059506e+02   1.162169e+02
   8.239077e+01   1.437216e+02
  -1.155129e+01   2.033287e+02
  -3.310654e+02   1.411986e+02
  -5.624979e+02  -9.580849e+01
  -2.746916e+02  -2.700835e+02
   3.341340e+02  -1.651729e+02
   4.753531e+02   7.815591e+01
   2.163130e+02   3.309790e+02
  -2.614828e+02   3.704758e+02
  -4.696535e+02   9.656875e+01
  -2.635812e+02  -1.784896e+02
  -4.829071e+01  -3.027375e+02
  -3.404453e+01  -1.716819e+02
  -6.343265e+01   5.520083e+01
  -1.622489e+02   1.355427e+02
  -2.087440e+02  -1.297443e+02
  -1.483336e+01  -4.843060e+02
   2.120031e+02  -4.700875e+02
   3.382917e+02  -2.510246e+01
   2.124640e+02   2.369502e+02
  -1.230938e+02   1.339405e+02
  -1.238875e+02  -3.201832e+02
   1.289017e+02  -3.559375e+02
   4.051409e+02  -1.576297e+01
   4.174660e+02   3.031344e+02
   1.341747e+02   3.986376e+02
  -2.174506e+02   2.119016e+02
  -4.447954e+02  -8.754539e+01
  -2.723221e+02  -2.657252e+02
   5.756497e+01  -2.363425e+02
   2.972329e+02  -7.954346e+01
   2.553016e+02   1.127229e+02
   1.566772e+01   3.050388e+01
  -5.143385e+01  -1.221648e+02
   1.577225e+02  -8.402602e+01
   2.955645e+02   7.672257e+01
   1.556093e+02   2.395234e+02
  -1.529932e+02   2.264668e+02
  -3.724384e+02   1.283769e+02
  -2.339407e+02  -5.826766e+01
   3.061278e+01  -2.835067e+02
   2.948818e+02  -3.261400e+02
   3.175317e+02  -1.453202e+02
   1.984711e+02   1.762385e+02
   1.611423e+01   3.403862e+02
  -1.082633e+02   2.540472e+02
  -2.608225e+01   1.312426e+02
  -3.053897e+01   8.512485e+01
  -1.183424e+02   9.546822e+01
  -1.943725e+02   5.072264e+01
  -2.427537e+02  -1.159054e+02
  -5.616711e+01  -2.041706e+02
   8.777569e+01  -1.571701e+02
   1.310646e+02   4.246268e+00
   1.403244e+02   1.789645e+02
  -3.032102e+01   2.336499e+02
  -1.631614e+02   8.914136e+01
  -2.715311e+02  -8.770642e+01
  -1.257416e+02  -2.587992e+02
   4.422137e+01  -2.194780e+02
   1.526315e+02  -1.460372e+02
   1.417906e+02  -1.181556e+02
   1.573557e+02  -4.885423e+01
   2.274256e+02  -1.978079e+01
   3.207984e+02   8.058278e+01
   2.131084e+02   2.355231e+02
  -8.142845e+00   3.534961e+02
  -2.810007e+02   3.853627e+02
  -4.064238e+02   1.458292e+02
  -2.303565e+02  -1.110024e+02
  -2.748125e+01  -2.710602e+02
   8.345002e+01  -1.791245e+02
   4.268325e+01  -3.256103e+01
  -5.787905e+01   5.800546e+01
  -1.110295e+02   4.937020e+01
   6.942030e-01  -9.342081e+01
   1.028759e+02  -8.598651e+01
   1.189626e+02   3.879256e+01
  -9.284449e+00   1.378947e+02
  -1.740028e+02   2.196391e+01
  -1.252558e+02  -1.953713e+02
   2.020458e+01  -2.136558e+02
   2.297389e+02  -1.601231e+02
   2.565297e+02   6.986956e+01
   2.724708e+02   2.153246e+02
   5.684126e+01   2.304535e+02
  -9.922945e+01   1.608686e+02
  -1.449687e+02   2.314711e+01
  -4.828682e+01   1.933998e+01
   5.937903e+00   4.108760e+01
  -1.510147e+01   8.856220e+01
  -1.362073e+02  -1.254622e+00
  -1.484014e+02  -4.338293e+01
  -2.284538e+01  -3.581330e+01
   6.434549e+01  -2.526929e+01
   6.809599e+01   3.018490e+01
  -1.208533e+02   3.040989e+01
  -2.260733e+02  -4.729483e+01
  -2.413861e+02  -1.530895e+02
  -4.836940e+01  -2.373749e+02
   1.681699e+02  -1.678190e+02
   2.242448e+02  -1.135646e+02
   1.422528e+02   2.421830e+01
  -3.845169e+01  -1.434266e+01
  -1.802719e+01  -9.562685e+00
   9.688081e+01  -7.656585e+01
   1.397107e+02   2.164125e+01
   1.591661e+02   1.709044e+02
   3.334640e+01   1.736122e+02
  -7.555508e+01   1.130421e+02
  -8.720273e+01   2.375385e+01
  -5.056755e+01   1.607170e-01
   1.329364e+01   5.699439e+01
  -6.115549e+00   8.515885e+01
  -1.165710e+02   8.506850e+01
  -1.483937e+02   1.971980e+01
  -1.334237e+02  -8.129931e+01
  -4.556000e+01  -1.723873e+02
   1.499042e+02  -9.396042e+01
   1.397339e+02  -1.413418e+01
   3.995383e+01   4.902193e+01
  -5.854486e+01   6.113388e+01
  -5.421331e+01   6.407184e+00
   3.243627e+01  -7.467156e+00
   2.132400e+01   4.442830e+01
  -2.115130e+01   4.314022e+01
  -9.835947e+01  -4.140120e+00
  -1.104158e+02  -5.084794e+01
  -7.477849e-01  -1.541016e+02
   1.172503e+02  -1.651041e+02
   2.383643e+02  -1.729333e+01
   1.424486e+02   1.441602e+02
   3.395171e+01   2.364157e+02
  -1.000539e+02   1.275707e+02
  -9.864961e+01   2.238427e+01
  -3.191916e+01  -4.710524e+01
  -3.239187e+01  -4.995575e+01
  -7.301104e+01   1.497358e+01
  -5.806351e+01  -2.368162e+01
  -4.037728e+01  -5.912279e+01
   3.567074e+01  -6.650015e+01
   1.376062e+02  -5.697956e+01
   9.671964e+01   4.129355e+01
  -2.953809e+01   9.937619e+01
  -1.479568e+02   6.283136e+01
  -1.808419e+02  -4.374572e+01
  -8.810927e+01  -2.168067e+02
   1.032908e+02  -1.826462e+02
   2.187246e+02  -7.148775e+01
   1.870569e+02   3.997722e+01
   5.800428e+01   1.578154e+02
  -2.714832e+01   9.664168e+01
  -1.148821e+02   8.957763e+01
  -6.304723e+01   8.612892e+01
  -7.853438e+01   1.060654e+02
  -8.943565e+01   7.865847e+01
  -1.128488e+02   3.689698e+01
  -1.095588e+02  -1.162726e+02
  -5.269397e+01  -2.057946e+02
   4.675518e+01  -1.240267e+02
   1.198709e+02  -2.736609e+01
   1.200892e+02   9.345964e+01
  -2.793586e+01   1.030508e+02
  -4.027446e+01   6.046157e+01
  -4.200116e+01  -4.535312e+01
   3.405340e+01  -2.496128e+01
   2.966370e+00   1.592424e+00
   1.053638e+01  -3.796070e+01
  -3.388510e+01  -3.160831e+01
  -1.954645e+01  -4.695193e+01
   8.348904e+01  -2.195708e+01
   1.573639e+02   1.524445e+01
   1.334326e+02   7.187014e+01
   3.662800e+00   1.609289e+02
  -1.405401e+02   1.075504e+02
  -1.561329e+02   1.146813e+01
  -5.704133e+01  -6.923539e+01
   3.533552e+01  -5.544119e+01
   6.290978e+01   4.725415e+01
  -1.610330e+01   7.758005e+01
  -8.329827e+01   6.938713e+01
  -3.577096e+01   3.312379e+01
  -1.835775e+01  -6.885236e+01
  -3.570143e+01  -3.180654e+01
  -2.663082e+01   9.125173e+00
  -7.103422e+01   4.327194e+01
  -3.397532e+01  -8.410903e+01
   3.255071e+01  -1.081406e+02
   1.227940e+02  -1.223349e+02
   1.589398e+02  -5.451364e+01
   1.178062e+02   7.736157e+01
   9.429464e+00   1.154296e+02
  -4.813966e+01   5.684911e+01
  -6.972598e+01  -1.275111e+01
   2.546344e+01   2.037567e+01
   1.201919e+02   4.280056e+01
   1.165376e+02   7.182486e+01
  -5.197230e+01   1.041340e+02
  -1.628377e+02   1.935118e+01
  -1.266926e+02   7.282165e+00
  -5.420595e+01  -9.538032e+01
   7.988597e+01  -1.912647e+01
   2.420795e+01  -3.167589e+00
  -6.741580e+01   4.342007e+01
  -9.114833e+01  -1.793189e+01
  -5.707309e+01  -1.006643e+02
   7.492914e+01  -1.675587e+02
   1.142371e+02  -1.328494e+02
   1.371348e+02   2.688035e+01
   1.179291e+00   1.583609e+02
  -4.675441e+01   1.250533e+02
  -6.331693e+01   3.570677e-01
  -5.111514e+01  -1.315947e+02
  -8.000265e+00  -1.336712e+02
   1.550827e+01  -9.464100e+00
   4.908179e+01   1.814513e+01
  -1.325690e+00  -1.789289e+01
   1.131769e+01  -1.116355e+01
   3.677014e+01   4.090285e+01
   7.343896e+01   1.017237e+02
   2.405571e-02   9.875091e+01
  -7.837130e+01   6.382756e+01
  -1.206661e+02  -3.133404e+01
  -1.317018e+02  -4.888265e+01
  -5.028341e+01  -4.778510e+01
   7.835584e+01  -3.396336e+01
   7.385184e+01  -3.581990e+01
   3.744887e+01  -2.073125e+01
  -3.135921e+01   3.491312e+01
   4.524783e+00   1.414968e+00
   4.817881e+01   2.372646e+01
  -4.457796e+00   6.362329e+01
  -6.409733e+01   2.706707e+00
  -1.262356e+02  -3.658159e+01
  -2.208058e+00  -8.860412e+01
   9.950162e+01  -1.020679e+02
   1.636554e+02  -1.289280e+02
   1.419401e+02   5.244710e+01
   7.538284e+01   1.352669e+02
  -1.440716e+01   1.547845e+02
  -6.009447e+01   6.444160e+01
  -5.320392e+01  -1.467830e+01
  -2.808280e+00  -9.396291e+01
  -2.506327e+01   4.272708e+00
   1.567249e+01  -6.981176e+01
  -6.020651e+01  -5.615630e+01
  -4.718056e+01  -1.114411e+02
   1.988917e+01  -4.989919e+01
   1.071225e+02  -5.797805e+00
   8.215771e+01   6.250770e+01
   5.005007e+01   9.791696e+01
  -8.219868e+01   2.295495e+01
  -1.271046e+02  -5.683447e+01
  -7.230641e+01  -5.756809e+01
   3.320246e+01  -5.701673e+01
   1.015673e+02  -5.207398e+01
   5.990443e+01   3.869492e+01
  -5.246290e+01   6.066784e+01
  -3.056956e+01   4.750531e+01
  -1.840801e+00   3.648225e+01
   8.782346e+01  -4.875086e+01
   3.577439e+01  -9.449801e+00
  -7.589917e+01   6.670355e+01
  -9.722663e+01   8.195091e+01
  -7.560752e+01   3.371579e+00
   5.310952e+00  -9.445651e+01
   4.295802e+01  -1.078448e+02
   2.724535e+01  -2.617464e+01
   6.493236e+00   7.667530e+01
   3.596777e+00   6.520331e+01
  -5.691230e+01  -1.126218e+01
  -1.459695e+01  -4.629117e+01
  -1.382151e+01  -2.202526e+01
   5.211269e+01   8.502828e+00
   6.594487e+01   8.841722e+01
   5.886801e+01  -5.003273e+00
   5.047013e+00  -2.611944e+01
   8.303612e+00  -1.393166e+01
  -4.340083e+01   5.959646e+00
  -1.216782e+01   7.277184e+01
   2.295294e+01   2.898245e+01
  -1.078531e+01  -6.012368e+01
  -8.746649e+00  -6.670083e+01
  -1.428354e+01  -2.807226e+00
   7.590827e+01   3.780301e+01
   1.338839e+01   2.917172e+01
  -8.173488e+01  -2.525367e+01
  -9.486765e+01   1.648664e+01
  -5.346000e+01  -7.575744e+01
  -1.420800e+01   1.233227e+01
   5.244892e+01  -2.327714e+01
   2.437678e+01  -2.016391e+01
  -2.259442e+01  -3.221565e+00
  -1.862537e+01  -2.431500e+00
   5.353474e+01  -3.408332e+01
   5.316073e+01  -1.859653e+00
