
 $NMID
 id='ANONYMOUS ', fmtdat='(2E16.6)'
 volume=1.0
 tramp=1.0
 $END
  -3.034471e+03  -1.373734e+01
  -1.967942e+03  -1.845326e+03
   1.614410e+02  -1.998042e+03
   1.257571e+03  -1.070904e+03
   1.033451e+03  -1.135633e+02
   2.594057e+01   1.589410e+02
  -3.136273e+02  -3.080075e+02
  -1.422004e+02  -6.705211e+02
   4.927528e+02  -4.720086e+02
   6.351992e+02   5.663902e+01
   2.929303e+02   4.648275e+02
  -7.465167e+01   7.602978e+02
  -4.278482e+02   3.217944e+02
  -3.739920e+02  -4.324514e+02
   1.322637e+02  -5.309576e+02
   4.002365e+02   9.597192e+01
   2.594162e+02   3.888418e+02
  -2.158228e+02   6.103265e+02
  -3.918216e+02   2.459833e+02
  -3.322618e+02  -2.972407e+02
  -5.009489e+01  -3.675143e+02
   1.897799e+02  -3.942638e+02
   1.039616e+02  -1.650611e+02
  -1.282939e+02   2.179161e+01
  -3.569342e+02  -3.037844e+02
  -3.478471e+01  -2.847959e+02
   5.304520e+02  -1.987248e+02
   5.356134e+02   7.155920e+01
   2.666626e+02   3.136982e+02
  -2.711048e+02   2.633762e+02
  -5.413959e+02  -9.997807e+01
  -1.859168e+02  -3.174437e+02
   2.092026e+02  -3.118890e+02
   3.817934e+02  -1.198767e+02
   3.030506e+02   9.875104e+01
   4.824220e+01   3.562026e+02
  -1.183470e+02   2.249018e+02
  -7.439585e+01  -3.617435e+01
   7.944626e+01  -2.107578e+02
   1.280961e+02   1.122931e+02
   4.145328e+01   3.782413e+02
  -2.050271e+02   4.357378e+02
  -2.898703e+02   2.513109e+01
  -1.399537e+02  -2.994038e+02
   1.321094e+02  -1.207116e+02
   1.749456e+02   2.577679e+02
  -1.013093e+02   3.870841e+02
  -3.585490e+02   5.277660e+01
  -4.322504e+02  -2.963662e+02
  -9.030963e+01  -4.033551e+02
   2.560505e+02  -2.019703e+02
   4.418400e+02   6.819899e+01
   2.392371e+02   2.490796e+02
  -7.366802e+01   2.634473e+02
  -2.699091e+02   9.021651e+01
  -2.043767e+02  -7.567829e+00
  -4.902232e+00  -5.467051e+01
   1.075905e+01   2.525416e+01
  -8.219079e+01   1.060508e+02
  -2.566682e+02  -3.302362e+01
  -1.398471e+02  -2.046644e+02
   1.247747e+02  -2.613808e+02
   3.075756e+02  -1.466136e+02
   2.862269e+02   9.619900e+01
  -7.200407e+00   3.061858e+02
  -2.589117e+02   3.054114e+02
  -3.216403e+02   1.366627e+02
  -2.085383e+02  -1.256130e+02
  -1.124048e+01  -3.255583e+02
   3.837099e+01  -3.141188e+02
   2.506798e+01  -1.575324e+02
   2.217683e+01  -5.835275e+01
   1.314523e+02  -1.058914e+02
   2.196388e+02  -4.681221e+01
   1.902212e+02   1.174104e+02
   7.983157e+01   2.726081e+02
  -9.703496e+01   1.835288e+02
  -2.115961e+02  -5.580193e+01
  -1.526805e+02  -2.838740e+02
   4.297821e+01  -2.369127e+02
   2.806410e+02  -5.508473e+01
   3.485123e+02   1.920067e+02
   1.542938e+02   2.974179e+02
  -1.153832e+02   2.205329e+02
  -1.798271e+02   1.733198e+02
  -1.630288e+02   7.293747e+01
  -1.391397e+02   9.200307e+01
  -2.464366e+02   3.721795e+00
  -4.071101e+02  -1.537174e+02
  -3.022118e+02  -2.977879e+02
   1.276955e+00  -4.099259e+02
   3.534183e+02  -3.270620e+02
   4.256022e+02  -1.654283e+02
   2.461309e+02   3.923926e+01
   1.706830e+01   2.182454e+02
  -1.080393e+02   1.822551e+02
   7.504540e+00   2.822676e+01
   6.267758e+01  -4.210378e+01
   1.178630e+02   3.071214e+01
  -1.635035e+00   8.371572e+01
  -1.225567e+02   7.396363e+01
  -9.347172e+01  -9.023374e+01
   5.111746e+01  -1.253924e+02
   2.153194e+02   2.924711e+00
   1.039380e+02   2.368782e+02
  -4.088859e+01   3.354133e+02
  -2.632231e+02   1.482871e+02
  -3.467167e+02  -7.812844e+01
  -2.809334e+02  -2.837286e+02
  -6.709232e+01  -2.842973e+02
   1.632975e+02  -2.145660e+02
   2.056519e+02  -2.900549e+01
   8.158318e+01   1.735149e+01
  -3.919623e+01  -5.418206e+01
   5.215895e+01  -7.222266e+01
   1.104330e+02  -7.782259e+01
   1.171605e+02   3.276375e+01
   3.745915e+01   6.539253e+01
  -6.341857e+01  -2.717538e+01
  -1.522902e+01  -6.920859e+01
   1.556265e+02  -4.450156e+01
   3.065319e+02  -2.296175e+01
   2.579328e+02   1.502550e+02
  -5.298143e+00   2.351357e+02
  -1.886304e+02   1.750051e+02
  -2.528030e+02   7.403584e+01
  -1.522618e+02  -8.389651e+01
   1.939498e+01  -7.400031e+01
   1.048128e+02  -2.390874e+01
  -1.704668e+01   8.734755e+01
  -1.427204e+02   7.915403e+01
  -1.577098e+02  -9.336402e+01
  -4.510853e+01  -1.718007e+02
   1.087601e+02  -1.299847e+02
   7.199981e+01  -2.211778e+01
   2.530985e+01   6.383915e+01
  -1.461722e+01  -2.363563e+01
  -2.971836e+01  -5.943957e+01
   6.386814e+01  -7.636349e+01
   1.634338e+02  -3.402248e+01
   1.383820e+02   1.249897e+02
  -4.523059e+00   1.847506e+02
  -1.947174e+02   1.128138e+02
  -1.480096e+02  -1.206306e+01
  -5.356022e+01  -9.366387e+01
   5.724286e+01  -9.734527e+01
   9.211035e+01  -6.765393e+01
  -6.315221e+00  -2.907210e+00
  -4.796686e+01   8.341182e+00
  -6.999572e+00  -3.601587e+01
   7.056535e+01  -1.409240e+01
   1.172924e+02   8.342961e+01
   2.873153e+01   1.502375e+02
  -1.462057e+02   1.515167e+02
  -1.944175e+02  -2.895928e+01
  -1.877399e+02  -1.763822e+02
  -5.990884e+01  -2.290347e+02
   9.220493e+01  -1.997254e+02
   1.502666e+02  -3.818178e+00
   8.718259e+01   6.906828e+01
   6.969636e+01   2.584555e+01
   7.719740e+01   5.909589e+01
   8.471114e+01  -1.694799e+00
   1.012270e+01   9.748486e+01
  -5.446183e+01   3.738699e+01
  -1.324764e+02   1.704061e+01
  -9.633608e+01  -7.934886e+01
   9.791189e+01  -1.146486e+02
   1.680495e+02  -6.953118e+01
   2.262466e+02   7.592638e+01
   5.354951e+01   2.176330e+02
  -1.716882e+02   1.969233e+02
  -2.477312e+02   1.043084e+02
  -2.537728e+02  -9.770423e+01
  -3.058770e+01  -1.450206e+02
   9.162983e+01  -1.404368e+02
   8.260242e+01  -8.524150e+01
   9.424223e+01  -8.667119e+01
   1.560870e+01  -5.963272e+01
   6.559416e+01  -3.381693e+01
   7.686617e+01   5.293863e+01
   7.161587e+01   1.662360e+02
   4.752251e+01   2.450524e+02
  -9.968879e+01   1.577907e+02
  -1.484054e+02   3.452713e+00
  -1.386161e+02  -1.715088e+02
  -2.223488e+01  -1.684610e+02
   7.121949e+01  -5.844502e+01
   6.118162e+01   3.270121e+01
   1.064941e+01   5.425865e+01
  -1.198351e+01   3.990064e+01
   3.511138e+01   8.138739e+00
   1.003612e+02   4.353488e+01
   2.555856e+01   3.503900e+01
  -4.472094e+01   6.125561e+01
  -2.160371e+02   2.005036e-02
  -1.478848e+02  -7.345216e+01
  -2.460064e+01  -5.271660e+01
   1.313317e+02  -1.134859e+02
   1.707988e+02  -2.230695e+01
   2.543420e+01   4.283541e+01
  -6.829783e+01   6.714831e+01
  -1.197154e+02  -1.590628e+01
  -6.184600e+01  -1.041040e+02
   5.768513e+01  -6.995814e+01
   8.159677e+01   1.900660e+01
   7.524634e+01   6.517808e+01
   8.772158e+01   2.577378e+01
   7.582429e+01  -3.882673e+01
   4.450105e+01   2.300852e+01
   1.236807e+01   6.720131e+01
  -4.068366e+01   1.462867e+02
  -1.228141e+02   1.553202e+02
  -1.542784e+02  -7.298783e+00
  -1.116840e+02  -9.091723e+01
   7.857871e-01  -1.649329e+02
   1.104347e+02  -4.106618e+01
   4.086079e+01   3.482810e+01
  -4.394829e+01   2.430532e+01
  -1.694733e+02  -3.183650e+01
  -5.452012e+01  -8.582893e+01
   3.851795e+01  -8.833839e+01
   1.587421e+02  -6.970367e+01
   1.759568e+02   6.017051e+01
  -4.418801e-01   7.217960e+01
  -4.276645e+01   9.765105e+01
  -1.992710e+01   2.201363e+01
   4.719217e+01   2.487159e+01
   6.699068e+01   1.656331e+01
   2.569591e+01   9.108630e+01
  -9.054717e+01   1.181503e+02
  -1.821315e+02   5.914792e+01
  -1.348419e+02  -1.180862e+02
  -3.103808e+01  -1.691051e+02
   7.497531e+01  -1.576165e+02
   1.345951e+02   2.575327e+01
   5.906380e+01   1.346105e+02
  -1.971014e+01   5.837027e+01
  -3.459980e+01   5.613300e+01
  -4.823440e+01  -1.282192e+01
   2.505119e+01  -1.145768e+01
  -4.374222e+01   3.137968e+01
  -4.780222e+01  -1.954873e+01
  -1.064813e+02  -8.885592e+01
  -7.315084e+01  -1.314264e+02
   5.814502e+01  -6.493736e+01
   1.262196e+02   8.010495e+01
   1.089438e+02   9.005650e+01
   4.800859e+00   6.789549e+01
  -1.038167e+02  -3.061201e+00
  -9.738313e+01  -1.293644e+01
  -8.030576e+01  -2.473024e+01
   3.709679e+01  -6.611247e+01
  -9.611591e+00  -3.185847e+01
  -2.783865e+00  -1.437653e+01
   3.354893e+01  -6.818811e+00
   9.857611e+01  -3.852234e+01
   1.395728e+02  -8.413213e+00
   4.331370e+01   8.385635e+01
  -6.668308e+01   1.103918e+02
  -2.103868e+02   9.436473e+01
  -1.616737e+02  -6.380060e+01
  -5.009896e+01  -8.827965e+01
   8.224302e+01  -1.628872e+02
   1.365726e+02  -6.259713e+01
   7.253291e+01   6.911067e+00
  -5.618725e+00   2.110295e+01
  -2.199604e+00   4.500183e+00
  -1.434226e+00  -8.194833e+00
   6.453630e+01   7.026182e+01
   3.242953e+01   5.663874e+01
  -9.415051e+00   5.239512e+01
  -8.618622e+01   5.226019e+00
  -8.686962e+01  -1.005162e+02
   1.069847e+01  -1.219135e+02
   7.712086e+01  -9.393915e+00
   1.032040e+02   7.141734e+01
   4.482955e+00   1.442167e+02
  -4.715916e+01   4.980428e+01
  -1.063655e+02  -4.803553e+00
  -1.917277e+01  -7.416740e+01
   4.131330e+01  -6.912146e+01
   4.802277e+01  -4.725135e+00
  -2.123862e+01  -1.064513e+01
  -1.019956e+02   3.644421e+01
  -4.220661e+01   1.891049e+01
   9.148938e+01  -1.133621e+02
   7.157178e+01  -5.442197e+01
   6.941126e+01   4.637397e+01
  -2.290311e+01   7.074302e+01
  -7.795518e+01   7.015363e+01
  -4.509824e+01   1.176981e+01
  -2.508375e+01  -4.532918e+01
   5.603528e+01  -8.121295e+00
   1.434192e+01  -3.319708e+01
   1.790522e+01   4.209668e+01
  -5.142821e+00   4.993192e+00
  -3.968740e+01   8.118974e+00
  -2.793310e+01   3.472599e+00
  -5.346676e+01  -1.151642e+01
   3.647784e+00   1.830321e+01
   4.476836e+01   2.230696e+01
   1.648760e+01  -4.988050e+01
   3.273493e+01  -3.234052e+01
   1.562050e+01   5.746662e+00
  -3.890198e-01   6.024181e+01
  -1.266588e+01   7.332375e+01
  -3.491667e+01  -1.764435e+01
  -5.418129e+01  -3.384922e+01
   4.765260e+00  -1.090293e+02
   4.072674e+01  -4.130466e+01
   5.517675e+01   2.350110e+01
   5.832057e+01   6.463695e+01
  -1.116262e+01   6.384061e+01
  -1.269938e+01  -2.558012e+00
  -2.182930e+01  -3.590894e+00
   3.678455e+01   9.754103e+00
  -1.646863e+01   5.688784e+01
  -7.705155e+00   7.193933e+01
  -1.114993e+02  -8.043492e+00
