
 $NMID
 id='ANONYMOUS ', fmtdat='(2E16.6)'
 volume=1.0
 tramp=1.0
 $END
   4.035694e+03   9.366336e+01
   2.154683e+03   2.357234e+03
  -2.957016e+02   2.673817e+03
  -1.914297e+03   1.105631e+03
  -1.125917e+03  -1.366471e+02
   4.014609e+02  -3.199670e+02
   8.596025e+02   2.166108e+02
  -2.991287e+01   9.381946e+02
  -6.218905e+02   7.215173e+02
  -9.344261e+02   1.563310e+02
  -4.266130e+02  -7.828972e+02
   5.712735e+01  -7.856098e+02
   5.118972e+02  -2.009325e+02
   2.861665e+02   6.627833e+02
  -6.195564e+01   7.774813e+02
  -6.419357e+02   5.621254e+01
  -1.604818e+02  -5.471382e+02
   3.554913e+02  -6.241598e+02
   5.374900e+02  -2.831474e+02
   4.847613e+02   2.492198e+02
   2.174128e+02   4.686353e+02
  -2.433530e+02   1.017270e+02
  -1.715263e+02   1.995038e+01
   1.067393e+02  -1.424504e+02
   3.303022e+02   1.331073e+02
   1.150899e+02   4.059113e+02
  -4.110581e+02   2.416818e+02
  -9.189859e+02  -1.976678e+01
  -3.544602e+02  -4.641791e+02
   3.989376e+02  -3.145099e+02
   7.183724e+02   7.503416e+01
   3.022375e+02   4.276835e+02
  -2.537085e+02   3.692865e+02
  -5.044827e+02   2.007020e+02
  -3.925855e+02  -2.280857e+02
  -1.407083e+02  -4.273546e+02
   3.923720e+01  -3.485689e+02
   7.605291e+01   1.938306e+02
  -1.605637e+02   3.685742e+02
  -3.330804e+02  -1.010432e+02
  -1.256505e+02  -6.238845e+02
   3.371513e+02  -6.620672e+02
   4.775010e+02   2.742680e+01
   3.085130e+02   4.086034e+02
  -1.342017e+02   2.086697e+02
  -2.353269e+02  -2.683797e+02
   9.839511e+01  -4.642147e+02
   4.926389e+02  -5.483299e+01
   5.004441e+02   4.036197e+02
   1.374235e+02   5.501903e+02
  -3.928692e+02   3.084598e+02
  -6.092512e+02  -6.929870e+01
  -3.683491e+02  -3.525870e+02
   7.548243e+01  -3.203419e+02
   3.319321e+02  -7.973859e+01
   1.940163e+02   8.906229e+01
  -4.334421e+01   3.478517e+01
  -8.502523e+01  -1.149612e+02
   2.167710e+02  -1.449834e+02
   3.119864e+02   6.991038e+01
   1.322877e+02   2.375515e+02
  -2.294487e+02   2.172366e+02
  -3.508034e+02   6.477256e+01
  -2.190358e+02  -1.340239e+02
   1.201912e+02  -2.587417e+02
   3.006325e+02  -3.576239e+02
   3.262801e+02  -1.972220e+02
   2.296967e+02   1.299793e+02
   4.498340e+01   4.347298e+02
  -7.642707e+01   4.094631e+02
  -5.425023e+01   1.807583e+02
  -4.100921e+01   1.807502e-01
  -1.354661e+02   4.892163e+01
  -2.297460e+02   2.986641e+01
  -2.439663e+02  -1.150824e+02
  -1.583345e+02  -2.791765e+02
   9.586516e+01  -2.266114e+02
   2.184033e+02  -1.821823e+01
   2.278932e+02   2.043642e+02
  -2.364741e+01   2.849968e+02
  -2.688992e+02   9.850575e+01
  -3.309576e+02  -1.326573e+02
  -1.876334e+02  -3.754336e+02
   1.176974e+02  -3.379136e+02
   2.179261e+02  -1.694136e+02
   1.283224e+02   1.620579e+01
   1.029341e+02  -3.788989e+01
   2.392043e+02  -5.282714e+01
   3.962839e+02  -2.611780e+00
   3.490032e+02   2.866378e+02
   2.314781e+01   4.671219e+02
  -3.533202e+02   4.601828e+02
  -4.685222e+02   2.200481e+02
  -2.871666e+02  -1.229833e+02
  -6.809799e+01  -2.838856e+02
   8.778064e+01  -2.704388e+02
   2.528929e+01  -1.170939e+01
  -1.177450e+02   8.805021e+01
  -1.596070e+02   1.479178e+01
  -4.177470e+01  -1.487925e+02
   1.061808e+02  -1.771678e+02
   1.742235e+02   4.962966e+01
  -1.181388e+01   1.198257e+02
  -1.649532e+02   4.302647e+01
  -1.981019e+02  -2.416282e+02
   2.252434e+01  -3.765088e+02
   2.806386e+02  -2.382837e+02
   3.289748e+02   4.327487e+01
   2.673211e+02   2.344324e+02
   7.332217e+01   2.776680e+02
  -5.507691e+01   1.653631e+02
  -9.428657e+01   1.704821e+01
  -5.445552e+01  -4.542948e+01
   4.230864e+01   4.014627e+01
  -5.719293e+01   1.667193e+02
  -1.282226e+02   1.345580e+02
  -1.967495e+02   2.823337e+01
  -3.216016e+01  -1.115298e+02
   1.073998e+02  -5.254994e+01
   2.296733e+01   9.038286e+01
  -1.887780e+02   1.011392e+02
  -3.114425e+02   1.963895e+01
  -2.704277e+02  -1.968022e+02
  -4.343312e+01  -3.142808e+02
   2.282438e+02  -2.380161e+02
   3.053434e+02  -7.770060e+01
   2.076076e+02   5.865579e+01
  -3.551684e+00   8.682991e+01
  -9.740906e+01   1.637483e+01
   3.961947e+01  -1.365226e+02
   2.020505e+02  -5.368905e+01
   2.101516e+02   1.633940e+02
   4.167277e+01   2.530235e+02
  -1.038446e+02   1.829266e+02
  -1.708991e+02   2.224065e+01
  -6.631007e+01  -1.067704e+02
   6.155823e+01   3.397294e+01
   1.079404e+01   1.167540e+02
  -1.055112e+02   1.580873e+02
  -2.355357e+02   5.492133e+00
  -2.156624e+02  -1.401428e+02
  -3.351080e+01  -2.672942e+02
   2.124538e+02  -2.201543e+02
   2.083570e+02   2.406938e+01
   7.522770e+01   1.924598e+02
  -2.028501e+01   1.474343e+02
  -9.768687e+01   3.071397e+01
   1.120384e+01  -2.794560e+01
   3.103460e+01  -1.246746e+01
  -4.184428e+01   4.218542e+01
  -1.263719e+02  -2.963127e+01
  -7.963859e+01  -1.063337e+02
  -3.439905e+01  -1.465495e+02
   1.775577e+02  -1.785349e+02
   2.933638e+02  -5.045646e+01
   1.791786e+02   1.816768e+02
   5.211861e+01   2.046386e+02
  -1.210469e+02   1.520270e+02
  -1.441753e+02   2.845902e+01
  -8.767069e+01  -5.829587e+01
  -1.338716e+01  -2.035380e+01
  -6.093413e+01   7.237075e-01
  -1.163595e+02  -2.528844e+01
  -5.274429e+01  -4.767220e+01
   3.217499e+01  -1.617383e+02
   1.897678e+02  -1.685735e+01
   1.356570e+02   4.036556e+01
   1.327871e+01   1.415066e+02
  -1.646453e+02   6.809067e+01
  -2.048242e+02  -7.951188e+01
  -1.012074e+02  -1.584507e+02
   1.061119e+02  -1.865967e+02
   2.722377e+02  -9.495266e+01
   2.523135e+02   3.766902e+01
   8.339257e+01   1.950086e+02
  -3.191328e+01   1.493754e+02
  -7.890411e+01   8.530053e+01
  -5.943599e+01   7.615453e+01
  -6.262004e+01   7.062695e+01
  -1.389822e+02   6.506831e+01
  -1.212559e+02   5.788170e+00
  -1.176057e+02  -1.609415e+02
  -2.483865e+01  -2.225537e+02
   9.192743e+01  -1.786039e+02
   1.697090e+02  -5.399280e+01
   1.136898e+02   8.202591e+01
   5.126005e+01   1.294706e+02
  -8.109991e+01   1.119061e+02
  -6.566437e+01   2.731388e+01
   2.730839e+01  -4.436738e+01
   4.374588e+01  -2.978325e+01
  -2.945091e+01  -3.666338e+01
  -7.824228e+01  -2.263793e+01
  -4.676139e+01  -4.192071e+01
   3.282793e+01  -2.811134e+00
   1.862116e+02  -2.716244e+01
   1.078471e+02   4.288867e+01
   2.831872e+01   8.919294e+01
  -1.277580e+02   8.573131e+01
  -1.319345e+02   1.962367e+01
  -5.972061e+01  -5.887461e+01
   6.144313e+01  -7.315842e+01
   9.304884e+01   3.999289e+01
   3.041772e+01   7.772514e+01
  -4.024680e+01   1.166341e+02
  -6.136350e+01   2.854822e+01
  -2.928015e+01  -2.007701e+01
  -5.158576e+01  -3.315897e+01
  -6.397734e+01  -3.543845e+00
  -1.109001e+02   2.526821e+01
  -7.146684e+01  -3.321467e+01
  -9.466072e+00  -1.314823e+02
   1.068352e+02  -1.633452e+02
   2.338765e+02  -4.974481e+01
   1.537325e+02   1.106474e+02
  -1.631310e+00   1.542033e+02
  -8.540038e+01   7.466293e+01
  -8.835516e+01   1.837142e+01
   1.846017e+01  -5.285307e+01
   1.521742e+02   8.452368e+00
   1.169260e+02   1.217947e+02
  -5.659807e+01   1.031373e+02
  -1.595250e+02   1.909292e+01
  -2.015273e+02  -3.119687e+01
  -7.415293e-01  -6.295422e+01
   3.990750e+01  -3.423685e+01
   2.205100e+01  -6.942920e+00
  -3.775781e+01   3.948098e+01
  -5.842294e+01  -2.172105e+01
  -2.271813e+01  -1.428849e+02
   8.991264e+01  -1.679253e+02
   1.866399e+02  -6.333370e+01
   1.229845e+02   8.410093e+01
   1.205951e+01   1.955163e+02
  -9.198763e+01   1.445934e+02
  -1.176304e+02  -8.497085e+00
  -7.936270e+01  -6.787790e+01
   1.021723e+01  -1.259605e+02
   1.826375e+00  -2.634788e+01
   1.445762e+01   5.760571e+00
   1.802949e+01   2.471527e+01
   1.755554e+01  -5.762131e+01
   3.283037e+01  -1.059454e+01
   7.183491e+01   9.695645e+01
   7.024239e+01   8.877387e+01
  -5.578326e+00   3.741304e+01
  -1.191277e+02  -3.691189e+01
  -1.112425e+02  -4.201162e+01
   1.161896e+01  -5.560581e+00
   1.239206e+02  -1.223425e+01
   1.061211e+02   1.043734e+01
  -1.816834e+00   4.477416e+01
  -4.151317e+01   6.219886e+01
  -8.544527e+01   2.124191e+01
   1.960124e+01   2.128158e+00
  -2.909167e+01   4.306234e+00
  -9.387330e+01  -3.975534e+01
  -1.311093e+02  -2.631218e+01
  -2.635355e+01  -5.379250e+01
   5.391034e+01  -1.718693e+02
   2.064200e+02  -8.046224e+01
   1.385148e+02   8.033781e+01
   4.923424e+01   1.266912e+02
  -4.618259e+01   1.819793e+02
  -1.683786e+02   6.291767e+01
  -1.031939e+02  -3.699959e+01
  -2.112138e+01  -8.843078e+01
  -1.424281e+01  -2.394018e+01
   7.248952e+00  -6.420875e+01
  -1.858891e+01  -7.878674e+01
  -6.661125e+01  -5.685753e+01
   5.341294e+01  -1.026635e+02
   1.192286e+02   8.558611e+00
   1.084909e+02   6.817449e+01
   4.650688e+00   1.220229e+02
  -7.048034e+01   5.810138e+00
  -1.117321e+02  -2.646004e+01
  -1.915963e+01  -9.688614e+01
   7.133834e+01  -4.843116e+01
   8.897332e+01   1.241415e+01
   1.274057e+01   3.591905e+01
  -3.225328e+01   7.736370e+01
  -6.275805e+01  -1.319586e+01
   7.678059e+01   1.447474e+01
   5.041608e+01  -1.277202e+01
   1.793442e+01   2.989311e+01
  -7.172519e+01   4.997953e+01
  -1.012975e+02   8.598490e+01
  -7.533314e+01  -2.702079e+00
   1.729063e+01  -6.373693e+01
   7.378961e+01  -6.877315e+01
   2.721829e+01  -1.839443e+00
   9.146698e+00   5.868969e+01
  -1.115608e+00   6.914599e+01
  -3.970099e+01  -2.018757e+01
  -1.924069e+01  -6.747664e+01
   5.662819e+00  -2.281164e+01
   2.523058e+01  -2.403984e+01
   2.952518e+01   8.885329e+00
   9.949220e+00   3.694457e+00
   2.018486e+01  -9.625942e+01
   1.828796e+01  -2.097866e+01
  -1.340227e+01   1.335535e+01
   3.044998e+01   1.010953e+02
  -8.898594e+01   5.995979e+01
  -5.917415e+01  -3.337930e+00
  -3.537175e+01  -8.567832e+01
   2.957024e+01  -6.694154e+01
   3.837695e+01   2.709130e+01
   4.021764e+01   9.081520e+00
  -4.222836e+01   4.358226e+01
  -1.127781e+02  -1.094731e+01
  -4.520439e+01  -7.629716e+01
   2.796903e+01  -5.485773e+01
   1.065151e+02  -1.162755e+01
   3.825532e+01   1.272956e+01
  -1.495691e+01  -5.253374e+00
  -4.768938e+01  -1.866468e+01
   2.622809e+01  -7.461647e+01
   8.288000e+01  -1.052702e+01
