
 $NMID
 id='ANONYMOUS ', fmtdat='(2E16.6)'
 volume=1.0
 tramp=1.0
 $END
  -4.150221e+03   4.781523e+01
  -2.876905e+03  -2.538326e+03
   6.876345e+02  -2.938049e+03
   2.039796e+03  -7.966150e+02
   1.108617e+03   6.168443e+02
  -3.605089e+02   5.931446e+02
  -8.487537e+02  -4.444185e+02
   4.780507e-01  -1.047534e+03
   7.585204e+02  -8.464024e+02
   1.058762e+03   2.388280e+01
   5.678889e+02   9.489841e+02
  -1.490731e+02   8.760900e+02
  -5.697902e+02   9.315038e+01
  -4.472161e+02  -7.090082e+02
   2.190348e+02  -7.580064e+02
   7.944230e+02   2.590622e+01
   3.605584e+02   5.919533e+02
  -3.958679e+02   5.600761e+02
  -6.509247e+02  -1.575771e+02
  -3.423218e+02  -3.691943e+02
   3.359047e+01  -3.993635e+02
   2.970625e+02  -3.549811e+02
   1.664677e+02   1.005215e+02
  -2.301359e+02   1.791010e+02
  -4.149393e+02  -1.370641e+02
  -1.019165e+02  -3.671963e+02
   5.135332e+02  -2.230227e+02
   9.296014e+02   5.101391e+01
   3.430761e+02   5.522275e+02
  -5.305918e+02   4.564569e+02
  -6.566402e+02  -2.138696e+02
  -3.521293e+02  -4.971613e+02
   2.098675e+02  -5.000851e+02
   5.850445e+02  -9.953598e+01
   4.134391e+02   2.233696e+02
   4.328878e+01   5.231517e+02
  -1.455145e+02   4.058564e+02
  -1.110083e+02  -3.122645e+02
   2.634409e+02  -5.095785e+02
   4.595288e+02   5.399764e+01
   2.433566e+02   7.377405e+02
  -3.452258e+02   7.521874e+02
  -6.256741e+02   1.209866e+02
  -3.139204e+02  -5.289350e+02
   2.470469e+02  -3.286703e+02
   4.479527e+02   3.649373e+02
  -2.638762e+01   5.257076e+02
  -5.406707e+02   1.058817e+02
  -6.093139e+02  -3.951778e+02
  -2.337995e+02  -5.315604e+02
   3.835967e+02  -3.216188e+02
   6.698077e+02   9.576571e+01
   4.298626e+02   4.264609e+02
  -1.208537e+02   3.844652e+02
  -4.137960e+02   8.743845e+01
  -2.613428e+02  -1.771615e+02
   1.643108e+01  -8.188766e+01
   1.119407e+02   1.898175e+02
  -1.519608e+02   2.157244e+02
  -3.778279e+02  -4.453346e+00
  -1.445321e+02  -2.475423e+02
   1.740625e+02  -3.127568e+02
   3.286271e+02  -9.921228e+01
   1.880584e+02   1.053797e+02
  -6.591703e+01   2.163143e+02
  -2.617026e+02   2.961453e+02
  -3.307757e+02   2.180823e+02
  -2.457026e+02  -1.284458e+02
  -8.463538e+01  -4.580131e+02
   1.188409e+02  -3.937286e+02
   1.277294e+02  -1.251825e+02
   6.432007e+01  -7.073006e+01
   6.591862e+01  -9.298397e+01
   2.028643e+02  -1.585221e+02
   3.533711e+02   4.912694e+01
   2.137077e+02   3.108638e+02
  -3.816069e+01   3.014726e+02
  -2.689593e+02   9.418906e+01
  -2.612352e+02  -2.352893e+02
   2.822936e+01  -3.359662e+02
   2.656636e+02  -1.491827e+02
   3.316406e+02   1.783918e+02
   1.691775e+02   3.555600e+02
  -9.608891e+01   2.819183e+02
  -1.898958e+02   1.001394e+02
  -1.382472e+02  -1.609864e+01
  -8.282023e+01   4.809921e+01
  -1.907279e+02   8.327027e+01
  -3.903599e+02  -1.443321e+01
  -2.958882e+02  -2.208213e+02
   1.141168e+01  -4.460779e+02
   3.462612e+02  -4.938586e+02
   4.873020e+02  -1.716300e+02
   3.982981e+02   1.532754e+02
   5.274113e+01   2.927736e+02
  -1.228004e+02   2.718871e+02
  -8.804010e+01  -2.987774e+01
   1.012449e+02  -1.000436e+02
   1.972654e+02   7.541304e+01
   2.968229e+01   2.484371e+02
  -1.727369e+02   1.694833e+02
  -2.126363e+02  -5.717702e+01
   2.451900e+01  -2.273490e+02
   1.860398e+02  -3.660188e+01
   1.428562e+02   2.988525e+02
  -6.611799e+01   3.830164e+02
  -2.099747e+02   2.135372e+02
  -3.436812e+02  -8.820702e+01
  -2.620296e+02  -2.598929e+02
  -1.006732e+02  -2.546192e+02
   8.187593e+01  -9.281006e+01
   1.340453e+02  -3.334289e+01
   8.372330e+01   1.087183e+01
  -9.629839e+00  -8.155725e+01
   1.688650e+01  -1.304367e+02
   1.136175e+02  -6.367460e+01
   2.079207e+02   8.132974e+01
   9.081153e+01   8.233770e+01
  -1.034123e+02   3.248268e+00
  -7.607614e+01  -9.961911e+01
   1.317573e+02  -1.361855e+02
   3.113521e+02  -4.466906e+01
   3.331899e+02   9.361707e+01
   8.347949e+01   2.479614e+02
  -1.746866e+02   3.267337e+02
  -3.079210e+02   1.154586e+02
  -1.642494e+02  -8.228999e+01
   1.893387e+01  -9.875661e+01
   8.752099e+01   5.465040e+01
  -7.337187e+01   1.405517e+02
  -2.412929e+02   9.537351e+01
  -2.379460e+02  -1.692541e+02
  -5.120125e+01  -2.901183e+02
   1.307375e+02  -2.042315e+02
   1.743868e+02  -1.584919e+01
   7.123565e+01   5.508622e+01
  -5.876441e+01   2.454186e+01
   2.095159e+01  -9.078299e+01
   7.802005e+01  -1.296100e+02
   2.053769e+02   8.325312e+00
   1.951815e+02   1.548075e+02
   1.778682e+01   2.481185e+02
  -2.207124e+02   1.741728e+02
  -1.926802e+02  -2.731068e+01
  -5.205302e+01  -1.738909e+02
   9.647340e+01  -1.131593e+02
   9.185178e+01  -2.575543e+01
   2.798527e+00   9.513154e+01
  -7.886030e+01   3.145867e+01
  -6.981004e+01  -5.331104e+01
   7.427436e+01   1.996742e+01
   1.580883e+02   8.270896e+01
   3.259931e+01   1.732494e+02
  -1.268468e+02   1.543284e+02
  -2.617743e+02   3.360754e+01
  -2.334845e+02  -1.604962e+02
  -7.339119e+01  -2.619282e+02
   8.476574e+01  -1.912443e+02
   1.087614e+02  -3.346584e+01
   5.535716e+01   1.127913e+02
   2.283060e+01   6.699697e+01
   5.033161e+01  -2.532309e+01
   7.057882e+01  -4.444467e+01
   1.676068e+01   5.881303e+01
  -2.393781e+01   8.871063e+01
  -7.814704e+01   1.028870e+02
  -1.111563e+02  -2.784842e+01
   5.398535e+00  -1.099132e+02
   1.540475e+02  -1.064471e+02
   1.983981e+02   6.293024e+01
   1.360127e+02   2.333220e+02
  -9.022347e+01   2.738573e+02
  -2.733324e+02   1.382807e+02
  -3.162076e+02  -9.982787e+01
  -1.173427e+02  -1.787308e+02
  -5.066258e+00  -1.712310e+02
   8.383371e+01  -9.017875e+01
   4.659682e+01  -9.095759e+01
   1.602876e+01  -1.440282e+02
   5.735344e+01  -1.151325e+02
   1.372712e+02  -1.388779e+01
   1.563278e+02   1.240310e+02
   9.220127e+01   2.412111e+02
  -5.951630e+01   1.714627e+02
  -2.022200e+02   1.782440e+01
  -1.192898e+02  -1.411199e+02
  -5.542458e+01  -1.171281e+02
   9.151090e+01  -8.317348e+01
   6.991238e+01   1.197392e+01
   2.553026e+01   4.566826e+01
  -2.605977e+01   6.660335e+01
   3.738439e+01   6.532090e-03
   6.545353e+01   2.557899e+01
   1.582790e+01   2.807499e+01
  -9.071884e+01   6.424783e+01
  -1.695649e+02   5.509798e+00
  -1.254136e+02  -1.173727e+01
  -9.656714e+00  -1.016145e+02
   1.140614e+02  -1.266532e+02
   1.128469e+02  -6.110314e+01
   4.477092e+01   1.414140e+01
  -5.680924e+01  -6.962188e+00
  -7.738226e+01  -2.682663e+01
   6.006242e+01  -7.304779e+01
   1.022889e+02  -4.720918e+01
   8.544471e+01   3.692169e+01
   9.313662e+01   9.053442e+01
   7.207320e+01   2.979402e+01
   7.490967e+01   3.132984e+01
   6.076295e+01  -1.389133e+00
   2.820030e+01   7.409154e+01
  -3.362086e+01   1.672638e+02
  -1.303467e+02   1.266912e+02
  -2.074696e+02   3.063201e+01
  -1.134720e+02  -1.233421e+02
  -1.579332e+01  -1.503445e+02
   8.165099e+01  -9.377807e+01
   7.164717e+01   3.240444e+01
  -6.612044e+01   2.021872e+01
  -1.528018e+02  -3.589030e+01
  -8.355082e+01  -9.921113e+01
   5.541886e+01  -1.129892e+02
   1.437093e+02  -9.314023e+01
   1.587443e+02   1.672430e+01
   8.212370e+01   7.039704e+01
  -6.894097e+01   4.752663e+01
  -4.547044e+01  -4.762114e+00
   1.301639e+01  -1.168089e+00
   7.611256e+01   2.187303e+01
   2.929917e+01   1.049007e+02
  -6.581980e+01   1.557005e+02
  -1.665687e+02   3.925884e+01
  -1.414768e+02  -1.355260e+02
  -3.141037e+01  -2.065359e+02
   6.382459e+01  -1.354581e+02
   1.239063e+02   1.886384e+01
   6.910161e+01   1.574019e+02
  -3.361907e+00   4.646744e+01
  -6.126911e+01   4.032853e+01
  -6.184147e+01  -1.927379e+01
  -5.842038e+01   7.467742e+00
  -2.790561e+01   6.606103e+00
  -1.528032e+01   1.588595e+01
  -8.130289e+01  -1.096503e+02
  -1.590641e+01  -8.553893e+01
   5.132814e+01  -7.043663e+01
   1.170785e+02   3.481698e+01
   1.352503e+02   4.040330e+01
   2.807654e+01   1.253965e+01
  -1.043730e+02   2.674245e+01
  -7.554774e+01   2.167309e+01
  -4.259248e+01  -1.948068e+01
   1.087767e+01   1.733398e+01
   7.041525e-01  -3.741989e+01
  -1.888510e+01  -1.386703e+01
   5.893008e+01   2.603524e+01
   1.002293e+02   3.503588e+01
   1.175376e+02   3.693751e+01
   2.810138e+01   1.116751e+02
  -1.543092e+02   1.499480e+02
  -1.930110e+02   5.895818e+01
  -1.034867e+02  -1.038119e+02
  -1.870858e+01  -1.142804e+02
   1.031240e+02  -1.542691e+02
   1.106526e+02  -6.683321e+01
   5.446300e+01   3.287628e+01
  -2.616242e+01   2.314952e+01
   8.801618e-02  -4.071942e+01
   1.750213e+00  -7.399002e+01
   6.568208e+01   3.906706e+01
   2.282466e+01   8.280364e+01
  -9.923501e+00   7.116648e+01
  -8.048904e+01  -2.497185e+01
  -9.729876e+01  -8.251711e+01
   2.493920e+01  -1.066990e+02
   6.878930e+01  -3.139709e+01
   6.929788e+01   8.135408e+01
   2.489223e+01   9.650877e+01
  -4.865468e+01   6.831240e+01
  -5.995447e+01  -5.250374e-01
  -6.632804e+00  -5.965818e+01
   7.281440e+01  -8.536827e+01
   6.348279e+01  -7.321184e+01
  -7.606739e+00  -2.609703e+01
  -7.054075e+01   2.813488e+00
  -3.675668e+01   2.639727e+01
   8.177100e+01  -7.722461e+01
   1.125205e+02  -8.024852e+01
   1.046148e+02  -1.263682e+01
  -5.824380e+00   4.321913e+01
  -4.586606e+01   6.682267e+01
  -1.262735e+01   1.276032e+01
  -5.644402e+00  -6.889234e+01
   6.563439e+00  -4.234428e+01
   7.859450e+01  -1.379852e+00
   4.357819e+01   6.551104e+01
   2.159298e+01   4.250078e+01
  -4.745565e+01   1.983638e+01
  -7.494881e+01  -6.215208e+00
  -1.118319e+00   4.324147e+01
   5.153831e+01   4.227548e+01
   2.817545e+01  -1.511633e+01
  -4.416558e+00  -5.702062e+01
  -8.191530e+00  -6.661778e+01
   1.921090e+01   1.971859e+01
   4.307228e+01   6.110779e+01
   4.425291e+00   6.481254e+01
  -8.774818e+01   2.520882e+01
  -7.242779e+01  -6.196784e+01
   4.213431e+01  -7.750099e+01
   7.323573e+01  -4.306749e+01
   8.807297e+01   2.739110e+01
   3.035838e+01   7.691708e+01
  -5.686422e+01   6.156540e+01
  -7.766838e+01   2.116746e+01
  -3.038547e+01   1.113553e+00
   3.417700e+01   4.189758e+01
   7.698141e+01   1.760683e+01
  -4.318648e+01   4.207669e+01
  -1.046924e+02   2.612639e+00
