
 $NMID
 id='ANONYMOUS ', fmtdat='(2E16.6)'
 volume=1.0
 tramp=1.0
 $END
  -2.572860e+03  -1.289826e+02
  -1.447176e+03  -1.226512e+03
  -1.588716e+02  -1.408769e+03
   9.875857e+02  -1.113443e+03
   6.754255e+02  -5.414871e+01
   2.343165e+02  -4.685506e+01
  -3.105455e+02  -2.205279e+02
   7.045175e+00  -4.571231e+02
   3.825418e+02  -3.866435e+02
   5.004395e+02   1.477251e+02
   3.945429e+02   6.194584e+02
  -7.913902e+01   6.191004e+02
  -2.119191e+02   1.397926e+02
  -2.855350e+02  -3.756685e+02
   7.409361e+01  -3.972607e+02
   3.084165e+02  -9.291566e+01
   2.170588e+02   3.171618e+02
  -2.464390e+02   5.396714e+02
  -5.464897e+02   2.491645e+02
  -3.616726e+02  -1.333938e+02
  -4.461832e+01  -2.222613e+02
   1.276965e+02  -3.910517e+02
   1.154187e+01  -1.365923e+02
  -1.673093e+02  -6.166267e+01
  -3.586169e+00  -2.494769e+02
   5.630510e+01  -2.582571e+02
   4.606776e+02  -1.185598e+02
   3.517786e+02   1.759131e+02
   1.546209e+02   9.119288e+01
  -2.984460e+02   1.101060e+02
  -4.233202e+02  -1.924956e+02
  -1.523629e+02  -2.349937e+02
   1.698015e+02  -2.470660e+02
   3.219883e+02  -5.372532e+01
   1.633247e+02   1.311101e+02
   4.172457e+01   3.232165e+02
  -3.741587e+01   1.295459e+02
   1.123597e+02  -4.661418e+01
   1.143511e+02  -4.164557e+01
   1.145155e+02   1.845838e+02
  -8.199782e+01   3.167988e+02
  -1.987785e+02   2.817094e+02
  -1.295822e+02   3.188880e+01
  -5.927432e+01  -1.957444e+02
   4.790889e+01  -1.446915e+01
   4.056151e+01   2.308667e+02
  -1.713729e+02   2.776411e+02
  -3.797559e+02   1.050180e+01
  -3.490185e+02  -3.215074e+02
  -1.409047e+02  -3.895944e+02
   2.553927e+02  -2.068828e+02
   4.087987e+02   3.304621e+01
   2.333713e+02   2.134211e+02
  -2.454243e+01   1.756223e+02
  -2.268557e+02   6.218217e+01
  -1.775835e+02  -3.893836e+01
  -4.143106e+01   3.860298e+01
  -3.649272e+01   7.501500e+00
  -1.230580e+02  -2.238776e+01
  -1.568019e+02  -1.238050e+02
  -1.143050e+02  -2.458451e+02
   1.906495e+02  -2.535755e+02
   3.228742e+02  -1.596562e+02
   2.493880e+02   7.982114e+01
  -1.462311e+01   3.148191e+02
  -2.273319e+02   3.045285e+02
  -2.764045e+02   7.471301e+01
  -1.740458e+02  -1.658552e+02
  -4.819380e+01  -2.797898e+02
   5.315079e+01  -2.353528e+02
   2.960568e+01  -1.512446e+02
   4.185111e+01  -8.099004e+01
   1.052038e+02  -9.504388e+01
   2.151449e+02  -3.354967e+01
   1.937540e+02   8.927232e+01
   2.283264e+01   2.723610e+02
  -9.132975e+01   1.740479e+02
  -1.855036e+02  -7.679476e+01
  -1.029421e+02  -2.574744e+02
   7.669821e+01  -2.249496e+02
   2.617053e+02   1.349051e+01
   2.766750e+02   2.009191e+02
   1.203794e+02   2.489362e+02
  -9.089935e+01   2.282501e+02
  -1.477118e+02   1.613760e+02
  -1.341257e+02   8.316374e+01
  -1.463518e+02   5.676431e+01
  -2.415640e+02  -3.972670e+00
  -3.321643e+02  -1.622734e+02
  -2.810742e+02  -2.923894e+02
   3.971314e+01  -3.760022e+02
   3.137751e+02  -2.876062e+02
   4.144413e+02  -1.210390e+02
   2.617283e+02   4.897975e+01
   5.288937e+00   2.400113e+02
  -7.691908e+01   2.097447e+02
  -3.727365e+01   7.845705e+01
   4.244372e+01  -4.915304e+00
   6.896293e+01  -4.632382e+00
  -4.929235e+01   8.327394e+01
  -7.623205e+01   5.600901e+01
  -3.689271e+01  -8.320527e+01
   8.820217e+01  -9.960201e+01
   1.476473e+02  -3.145449e+01
   8.874699e+01   2.266200e+02
  -4.304367e+01   3.267384e+02
  -1.960168e+02   1.526268e+02
  -2.967064e+02  -7.596840e+01
  -2.345824e+02  -2.261561e+02
  -3.983460e+01  -2.338131e+02
   1.133095e+02  -1.201392e+02
   8.812567e+01  -1.182732e+01
   2.407961e+01  -2.499206e+01
  -4.050092e+01  -8.462636e+01
   1.611637e+01  -1.069430e+02
   8.668747e+01  -2.127779e+01
   6.527971e+01   8.287686e+00
  -3.789227e+00  -2.327958e+01
  -9.585725e+01  -5.099044e+01
  -5.421722e+01  -1.018766e+02
   1.853875e+02  -7.312107e+01
   2.756372e+02  -2.029320e-02
   1.857556e+02   1.477085e+02
  -7.122075e+00   2.452626e+02
  -1.868674e+02   2.125419e+02
  -1.932968e+02   3.351814e+01
  -1.119026e+02  -3.810700e+01
   1.045704e+01  -3.944345e+01
   3.846183e+01   2.316022e+01
  -9.978012e+01   3.557977e+01
  -1.632225e+02  -2.918326e+00
  -1.573335e+02  -1.276364e+02
  -2.407956e+01  -1.639481e+02
   9.625726e+01  -7.983522e+01
   9.724696e+01  -1.393752e+01
   5.231555e+01   1.918754e+01
  -1.420862e+01  -3.358055e+01
  -1.537126e+01  -1.120149e+02
   3.580886e+01  -9.206304e+01
   1.750644e+02   1.441471e+01
   1.299011e+02   1.287229e+02
  -4.481906e+01   1.856747e+02
  -1.499099e+02   1.029214e+02
  -1.047664e+02  -4.937961e+01
  -2.596211e+01  -1.176613e+02
   3.904507e+01  -4.095470e+01
   6.151583e+01   1.182974e+01
   2.052105e+01   4.034495e+01
  -9.484903e+00   4.940075e+00
   3.840200e+01  -5.030992e+01
   8.779490e+01  -1.138631e+01
   8.459081e+01   6.555390e+01
  -1.394231e+01   1.702022e+02
  -1.756603e+02   1.346975e+02
  -1.805811e+02   1.119794e+01
  -1.742106e+02  -9.392826e+01
  -3.940700e+01  -1.693098e+02
   8.454608e+01  -1.374121e+02
   1.195953e+02  -2.263841e+01
   1.786594e+01   5.958408e+01
   6.565372e+00   5.130312e+01
   2.039060e+01  -5.243524e+01
   2.736561e+01   2.328591e+01
   1.103709e+01   7.010916e+01
  -4.008988e+01   5.835655e+01
  -9.611079e+01   6.175252e+01
  -7.979938e+01  -2.867613e+01
   4.551659e+01  -1.429088e+02
   1.417444e+02  -5.458201e+01
   1.511302e+02   6.419839e+01
   5.960017e+01   2.323040e+02
  -1.122857e+02   1.723463e+02
  -2.341326e+02   3.613846e+01
  -2.163357e+02  -1.287280e+02
  -8.138252e+01  -1.685137e+02
   1.615364e+01  -1.088092e+02
   6.523853e+01  -6.509637e+01
   3.690440e+01  -6.190544e+01
   5.419310e+01  -9.681478e+01
   8.312548e+01  -6.072475e+01
   1.062699e+02   4.267683e+01
   1.002427e+02   1.515127e+02
  -2.795343e+01   1.734230e+02
  -1.320096e+02   1.360831e+02
  -1.554745e+02  -2.700339e+01
  -1.309863e+02  -1.243219e+02
  -1.060614e+01  -1.806874e+02
   9.100174e+01  -9.513328e+01
   9.116970e+01   8.393457e+00
  -2.251949e+01   2.632229e+01
  -1.265703e+01   5.942594e-01
   4.481775e+01  -2.841804e+01
   5.644430e+01   4.170044e+01
   7.725117e+00   3.213681e+01
  -2.522680e+01   4.988472e+01
  -1.392421e+02  -1.266665e+01
  -1.291591e+02  -6.026453e+01
  -3.086140e+01  -1.007270e+02
   1.154189e+02  -8.245231e+01
   6.783343e+01  -4.317914e+00
   2.662607e+01   6.363864e+01
  -5.815725e+01   2.693160e+01
  -6.729016e+01  -1.257918e+01
  -3.527089e+01  -1.994861e+01
   9.301665e+01  -7.797604e+01
   5.057496e+01  -1.183822e+01
   5.234819e+01   2.572076e+01
   9.773661e+00   2.763132e+01
   7.446939e+01  -9.065269e+00
   7.777544e+01   4.284780e+01
   4.574721e+01   2.693228e+01
  -5.962648e+01   1.789885e+02
  -1.185866e+02   9.096022e+01
  -1.334223e+02   5.973788e+01
  -1.144821e+02  -8.861719e+01
  -2.144570e+00  -1.394630e+02
   5.071605e+01  -7.131791e+01
   1.800856e+01   2.327900e+01
  -3.216313e+01   5.467903e+01
  -1.294431e+02  -5.555163e+01
  -3.946605e+01  -9.443167e+01
   7.764512e+01  -6.430330e+01
   1.341918e+02  -6.561817e+01
   1.523510e+02   1.367058e+02
   4.118917e+01   6.509506e+01
  -2.887058e+01   5.225794e+01
  -1.034195e+02   1.375485e+01
  -5.128038e-01   2.603333e+00
   6.510644e+01   1.614837e+01
   2.217057e+01   7.914060e+01
  -1.019777e+02   1.082965e+02
  -1.266483e+02   3.465955e+01
  -8.659985e+01  -7.802438e+01
  -1.216652e+00  -1.447524e+02
   8.535197e+01  -1.424896e+02
   1.057406e+02   1.696799e+01
   3.706350e+01   1.139453e+02
  -7.075942e-01   9.242593e+01
  -7.023456e+01   3.294510e+01
  -3.919521e+01   2.343550e+00
  -5.535820e+01   5.307015e+01
  -3.748277e+01   6.592504e+01
  -9.653148e+01  -2.436811e+01
  -5.737885e+01  -6.546710e+01
  -4.293540e+00  -6.359165e+01
   5.437592e+01  -5.156527e+01
   1.181952e+02   2.863055e+01
   1.248151e+02   8.239483e+01
   3.940439e+01   3.575607e+01
  -4.149492e+01   3.255088e+01
  -1.041337e+02   1.793262e+01
  -3.744240e+01  -5.764941e-01
  -5.158457e+00  -1.889085e+01
  -6.583632e+00  -2.093723e+01
  -5.896256e+01   8.453487e-01
   2.214216e+01   1.914720e+01
   8.630695e+01   5.048313e+01
   9.468433e+01   8.920916e+00
   5.438460e+00   6.388785e+01
  -1.602724e+02   6.798276e+01
  -1.511102e+02   6.588759e+01
  -1.449997e+02  -7.295733e+01
  -3.156220e+01  -1.669437e+02
   3.882577e+01  -1.706241e+02
   9.529722e+01  -5.294795e+01
   9.011945e+01  -8.095478e+00
   1.162386e+01   1.551019e+01
  -2.656253e+00  -3.541811e+01
   2.947941e+01  -1.521175e+01
   4.086520e+01   2.854920e+01
   1.343264e+01   8.899039e+01
  -5.999151e+01   6.850986e+01
  -8.123294e+01  -3.901318e+01
  -7.426780e+01  -1.159012e+02
  -5.201969e+01  -9.014905e+01
   4.414209e+01  -2.678483e+01
   9.509269e+01   7.154529e+01
   2.737794e+01   7.457689e+01
  -8.290233e+01   6.736999e+01
  -1.045607e+02  -3.439779e+01
  -4.910729e+01  -8.031799e+01
   4.619243e+01  -7.714910e+01
   4.772364e+01  -6.413439e+01
  -5.591804e+01  -3.152593e+00
  -4.816961e+01   2.435905e+01
   1.929516e+01   7.178413e+00
   6.545180e+01  -8.035791e+01
   1.193135e+02  -1.774662e+01
   5.165156e+01  -9.065848e+00
  -2.780865e+01   7.660771e+01
  -4.357345e+01   7.275474e+01
  -3.219292e+01   1.929968e+01
   2.404347e+01  -4.492542e+01
   5.986625e+01  -7.165528e+01
   5.747993e+01   3.090154e+00
   3.197628e+01   5.983278e+01
   1.999311e+01   1.523680e+01
  -4.816177e+01  -3.176942e+01
  -4.767422e+01  -6.348264e+01
  -4.684164e+01   4.459987e+01
   1.139804e+01   4.518778e+01
   2.227291e+01   9.717111e+00
   1.906915e+01  -4.355603e+01
  -3.711753e+00  -5.629035e+01
   4.038518e+01  -3.665675e+01
   5.571711e+01   7.820994e+00
   3.411578e+01   3.757473e+01
  -1.308128e+01  -1.499541e+01
  -3.872309e+01   7.352403e+00
  -4.142282e+01  -7.046594e+01
   4.171828e+01  -4.573252e+01
   5.533399e+01  -5.174218e+01
   4.116016e+01  -6.271883e+00
  -1.640332e+01   3.165138e+01
  -5.910924e+01   3.815218e+01
  -8.085094e+00   3.428349e+01
   2.544127e+01  -2.974303e+00
   4.825895e+01   1.218055e+01
  -5.363668e+01   6.781548e+00
  -8.180263e+01   4.612746e+01
