
 $NMID
 id='ANONYMOUS ', fmtdat='(2E16.6)'
 volume=1.0
 tramp=1.0
 $END
   4.696989e+03  -1.107186e+02
   2.891964e+03   2.624803e+03
  -8.238825e+02   2.780274e+03
  -2.440660e+03   8.315224e+02
  -9.672467e+02  -7.840038e+02
   6.240241e+02  -5.831915e+02
   9.386450e+02   4.056011e+02
   6.824527e+01   1.185143e+03
  -7.063991e+02   8.019764e+02
  -1.030172e+03  -8.159523e+01
  -5.620253e+02  -8.861359e+02
   2.161387e+02  -1.081692e+03
   7.456823e+02  -1.738128e+02
   3.498062e+02   7.892158e+02
  -4.622160e+02   9.202688e+02
  -5.543916e+02  -1.839677e+02
  -4.749211e+02  -7.865393e+02
   1.411685e+02  -7.185942e+02
   5.292325e+02  -2.601683e+02
   5.311328e+02   4.024494e+02
   4.688152e+01   3.306502e+02
  -4.301011e+02   3.122556e+02
  -3.900403e+02  -4.179845e+01
   7.161575e+01  -2.781011e+01
   4.678753e+02   1.723703e+02
   1.217265e+02   4.307540e+02
  -5.677710e+02   4.249436e+02
  -9.653014e+02  -1.026484e+02
  -3.196461e+02  -5.924102e+02
   4.424951e+02  -4.255495e+02
   8.206388e+02   7.755546e+00
   3.492476e+02   6.080817e+02
  -3.415450e+02   6.301954e+02
  -6.614610e+02   3.216640e+02
  -5.256080e+02  -3.337498e+02
  -7.559007e+01  -6.025988e+02
   2.036203e+02  -3.440526e+02
   2.216194e+02   2.796012e+02
  -2.953261e+02   4.934013e+02
  -5.968401e+02  -7.543646e+01
  -3.336260e+02  -7.858719e+02
   3.133394e+02  -7.289861e+02
   6.940612e+02  -5.193038e+00
   3.689946e+02   6.113659e+02
  -2.267463e+02   3.636085e+02
  -4.502784e+02  -3.259742e+02
  -2.858862e+00  -6.193710e+02
   5.501652e+02  -1.756200e+02
   6.781652e+02   4.180873e+02
   1.823719e+02   6.488950e+02
  -4.542574e+02   4.095226e+02
  -7.161502e+02  -7.139052e+01
  -3.684063e+02  -3.821312e+02
   1.684322e+02  -4.170353e+02
   4.735210e+02  -1.182851e+02
   2.611356e+02   1.482089e+02
  -1.362980e+02   8.861406e+01
  -1.450632e+02  -1.605232e+02
   1.294220e+02  -2.157197e+02
   3.676352e+02   2.255123e+01
   2.105295e+02   2.763196e+02
  -1.763532e+02   2.967384e+02
  -3.316682e+02   6.680942e+01
  -2.489278e+02  -1.149091e+02
  -1.049601e+00  -2.304198e+02
   2.426745e+02  -2.787606e+02
   3.380967e+02  -1.942440e+02
   2.640229e+02   7.664758e+01
   1.000748e+02   3.775928e+02
  -6.814173e+01   3.943608e+02
  -5.366987e+01   1.427850e+02
  -7.208830e+01   5.546204e+01
  -9.401648e+01   1.127545e+02
  -2.450836e+02   1.316225e+02
  -3.257317e+02  -1.623356e+01
  -1.800344e+02  -2.690902e+02
   6.331694e+01  -2.999932e+02
   1.835787e+02  -6.406128e-01
   1.771092e+02   2.524448e+02
  -2.677674e+01   3.099282e+02
  -2.891501e+02   1.155377e+02
  -3.841446e+02  -2.028708e+02
  -1.851424e+02  -3.894346e+02
   8.601517e+01  -3.240698e+02
   2.336332e+02  -1.223632e+02
   1.357437e+02   2.024050e+01
   6.521787e+01  -2.881832e+00
   1.938070e+02  -9.133190e+01
   3.774731e+02  -2.204761e+00
   3.315582e+02   2.585362e+02
   5.407168e+01   4.393324e+02
  -3.676505e+02   4.314689e+02
  -4.971416e+02   1.821924e+02
  -3.398764e+02  -6.794330e+01
  -3.815985e+01  -3.129663e+02
   1.245819e+02  -2.336041e+02
   8.188108e+01  -2.895067e+01
  -1.272385e+02   1.028404e+02
  -2.124845e+02  -3.263785e+01
  -8.536224e+01  -1.783708e+02
   1.790308e+02  -2.049192e+02
   1.830114e+02   2.034589e+01
  -5.359242e+00   1.800384e+02
  -1.950095e+02  -1.532974e+01
  -1.578835e+02  -2.880657e+02
  -1.676894e+01  -3.650938e+02
   2.685022e+02  -1.894765e+02
   3.702216e+02   6.385206e+01
   2.931198e+02   2.454288e+02
   1.312722e+02   2.915051e+02
  -1.094854e+02   1.974143e+02
  -1.721056e+02   2.273728e+01
  -1.928837e+01  -5.478481e+01
   1.055522e+02   4.564731e+01
   2.053982e+01   1.294526e+02
  -1.329890e+02   1.059532e+02
  -1.695965e+02  -4.620855e+01
  -4.301144e+01  -1.066122e+02
   1.131119e+02  -2.950657e-01
   9.591951e+01   1.039315e+02
  -1.263324e+02   7.112519e+01
  -2.535251e+02  -1.632295e+01
  -2.373264e+02  -1.759038e+02
  -5.101169e+01  -2.395257e+02
   2.144482e+02  -2.614401e+02
   3.178467e+02  -1.132334e+02
   2.203719e+02   7.735858e+01
  -4.335836e+01   1.716972e+02
  -1.096991e+02   3.046215e+01
   4.142153e+00  -5.761560e+01
   2.283889e+02  -7.967107e+01
   2.373649e+02   8.251453e+01
   6.944774e+01   2.184220e+02
  -1.129547e+02   1.255375e+02
  -1.440688e+02  -4.456781e+01
   2.044551e+01  -8.962564e+01
   8.925663e+01  -1.568469e+01
   6.990470e+01   9.998327e+01
  -7.638501e+01   1.679871e+02
  -2.581714e+02   8.045627e+01
  -2.031120e+02  -1.323176e+02
   1.231549e+01  -2.483607e+02
   1.971103e+02  -1.182381e+02
   2.319500e+02  -1.379517e+01
   1.112612e+02   1.192663e+02
  -5.259914e+01   1.073034e+02
  -9.967399e+01   4.791481e+01
  -1.255715e+01  -1.381837e+01
   1.873445e+01   2.763501e+01
  -1.776007e+01   1.242481e+01
  -6.238609e+01   1.951249e+01
  -1.328288e+02  -2.839605e+01
  -5.359606e+01  -1.594506e+02
   1.092759e+02  -1.664260e+02
   2.459282e+02  -5.645372e+01
   2.479678e+02   2.059513e+02
   2.040653e+01   2.549082e+02
  -1.573796e+02   1.894197e+02
  -1.508692e+02   3.982608e+01
  -6.693944e+01  -5.462621e+01
  -4.339356e+01  -8.028347e+01
  -1.067319e+02   4.728977e+01
  -1.638286e+02  -2.544614e+01
  -6.221326e+01  -1.118672e+02
   6.741389e+01  -8.904445e+01
   1.241255e+02  -7.817291e+01
   9.684001e+01   3.094756e+01
  -1.992251e+01   9.212843e+01
  -1.747077e+02   1.072846e+02
  -2.086138e+02  -7.607367e+01
  -1.476405e+02  -2.149349e+02
   9.968134e+01  -2.810534e+02
   2.620010e+02  -6.726967e+01
   2.862291e+02   8.801238e+01
   1.429953e+02   1.519675e+02
  -3.745714e+01   1.233626e+02
  -7.595285e+01   5.454683e+01
  -5.149273e+01   5.556653e+01
  -5.671657e+01   1.399435e+02
  -8.515020e+01   8.274096e+01
  -1.379366e+02  -3.373737e+01
  -1.369422e+02  -1.558755e+02
  -4.386659e+01  -2.572513e+02
   7.090074e+01  -1.954158e+02
   2.006264e+02  -5.617033e+00
   1.474927e+02   1.786295e+02
   3.062032e+01   1.601859e+02
  -9.704156e+01   1.283439e+02
  -6.231801e+01  -1.757178e+00
   5.752174e+00  -3.718881e+01
   1.688587e+01  -9.258013e+00
  -9.574434e+01  -8.184487e+00
  -1.197879e+02  -3.226489e+01
  -4.095391e+01  -8.045044e+01
   6.375111e+01  -5.967667e+01
   2.217011e+02   1.263870e+01
   1.118273e+02   4.306545e+01
   6.534027e+00   6.893186e+01
  -1.018658e+02   7.047914e+01
  -1.497204e+02   3.293483e+01
  -5.444880e+01  -6.774063e+01
   2.338849e+01  -4.251428e+00
   1.118726e+02   2.333011e+01
  -2.371339e+00   3.766359e+01
  -4.867325e+01   6.247861e+01
  -1.116837e+02  -4.406683e+01
  -3.754569e+01  -4.385564e+01
   2.343227e+00  -2.518687e+01
  -1.897262e+01   3.230981e+01
  -7.437186e+01  -2.146935e+00
  -7.867108e+01  -7.725636e+01
  -1.400000e+01  -1.650914e+02
   9.300722e+01  -1.508725e+02
   1.446916e+02  -6.611388e+01
   1.749233e+02   9.846316e+01
   4.632256e+00   1.489861e+02
  -7.926104e+01   7.035162e+01
  -8.382559e+01  -1.943630e+01
   5.808333e+01  -3.413093e+01
   1.555899e+02   2.463883e+01
   8.976045e+01   1.311989e+02
  -7.422195e+01   1.663072e+02
  -2.279314e+02   4.782508e+01
  -1.162302e+02  -4.510856e+01
  -3.440427e+01  -7.118074e+01
   4.458397e+01  -7.010992e+01
   1.260217e+01  -3.028376e+01
  -3.016093e+01   1.824496e+01
  -9.684197e+01   1.968350e+01
  -2.346748e+01  -1.364116e+02
   7.565468e+01  -1.530487e+02
   1.781142e+02  -6.751674e+01
   1.653408e+02   8.026818e+01
   3.585856e+01   2.093915e+02
  -6.271333e+01   1.300704e+02
  -1.146023e+02   3.608277e+00
  -8.379901e+01  -8.971545e+01
  -1.195609e+01  -8.513075e+01
   7.711539e+01  -3.322826e+01
   3.725825e+01   1.423954e+01
   1.514417e+01   4.636096e+01
  -4.567968e+01   1.728994e+01
  -4.775188e+01  -3.942143e+01
   5.520395e+01   6.099751e+01
  -1.334307e+00   8.598730e+01
  -5.872716e+01   2.229730e+01
  -1.365648e+02  -6.438910e+01
  -9.051218e+01  -7.703752e+01
   3.749085e+01  -1.199785e+02
   1.004948e+02  -1.139624e+00
   8.908925e+01   1.003105e+00
  -1.334866e+01  -1.564973e+01
  -1.185709e+01   5.240112e+01
   2.563254e+01   1.816830e+01
   1.948462e+01  -6.100619e+00
   3.766521e+00   1.725390e+01
  -9.296321e+01   1.751702e+01
  -1.073177e+02  -4.742458e+01
  -3.360207e+01  -8.407115e+01
   1.253685e+02  -1.318534e+02
   1.857696e+02  -6.800873e+01
   1.209869e+02   9.455533e+01
   3.166664e+01   1.718584e+02
  -8.365971e+01   1.863541e+02
  -4.656615e+01   7.639567e+01
  -9.748895e+01  -6.465964e+00
  -6.398246e+00  -5.245475e+01
   1.730329e+00   1.378715e+01
   2.096504e+00  -2.920658e+01
  -7.347194e+01  -2.915871e+01
  -3.353386e+01  -9.044936e+01
   3.488708e+01  -1.098073e+02
   9.905673e+01  -2.061892e+01
   1.059405e+02   7.947651e+01
   1.143446e+01   9.608601e+01
  -5.799270e+01  -1.251765e+01
  -1.216627e+02  -7.974654e+01
  -2.061578e+01  -7.835292e+01
   7.668619e+01  -7.371513e+01
   1.372780e+02  -1.480974e+01
   7.931407e+01   3.851716e+01
   1.078218e+01   5.644200e+01
  -1.525096e+01   4.691832e+01
   3.087336e+01   1.167564e+01
   9.864512e+01   3.020157e+01
   7.037084e+00   4.336450e+01
  -6.727145e+01   5.413002e+01
  -1.050463e+02   4.545590e+01
  -5.961016e+01  -3.475045e+01
  -1.557599e+01  -5.814754e+01
   5.810307e+01  -5.355867e+01
   8.012396e+00  -3.805287e+00
   3.135802e+01   4.514466e+01
   1.371139e+01  -1.204173e+01
  -1.333770e+01  -8.312415e+00
  -1.547825e+01  -2.440935e+01
  -1.982495e+01  -2.401884e+01
   3.204765e+00   3.068636e+01
   1.129119e+01   4.973765e+01
   1.506095e+00  -1.039368e+01
   1.810192e+01   6.188929e+00
  -9.702957e+00  -3.748344e+01
  -1.974817e+01   1.340934e+01
  -3.594000e-01   1.233766e+01
  -3.526717e+01   2.239104e+01
  -2.936031e+01  -4.739107e+01
  -1.949816e+00  -9.256151e+01
   5.290055e+01  -5.295652e+00
   5.956294e+01   5.616775e+01
   2.852407e+01   6.198199e+01
  -1.050293e+02   5.751067e+01
  -8.869586e+01  -2.662321e+01
  -5.384661e+01  -4.813407e+01
   3.507106e+01  -6.498243e+01
   6.999523e+01  -9.406719e+00
   3.464949e+01  -8.507364e+00
  -4.689963e+01  -1.690521e+01
  -5.823337e+01  -1.472489e+01
   6.285048e+01  -1.548679e+01
   4.149332e+01   1.834889e+01
