
 $NMID
 id='ANONYMOUS ', fmtdat='(2E16.6)'
 volume=1.0
 tramp=1.0
 $END
  -4.123536e+03  -1.216688e+01
  -2.036413e+03  -2.402993e+03
   7.187692e+02  -2.402861e+03
   1.905964e+03  -9.333263e+02
   9.989007e+02   4.610685e+02
  -4.402190e+02   3.504249e+02
  -9.039645e+02  -2.680277e+02
  -1.638664e+02  -9.229386e+02
   7.671757e+02  -7.159350e+02
   9.494575e+02   3.187197e+01
   6.133446e+02   9.620311e+02
  -1.234508e+02   7.917858e+02
  -5.093676e+02   4.366344e+02
  -4.136693e+02  -7.898369e+02
   3.934557e+02  -6.755003e+02
   5.678987e+02  -5.310089e+01
   1.652009e+02   3.450033e+02
  -4.178529e+02   5.517123e+02
  -7.027596e+02   2.395651e+02
  -3.564302e+02  -2.851600e+02
  -1.124240e+02  -3.632780e+02
   3.603513e+02  -1.350510e+02
   2.632092e+01   1.678108e+01
  -7.035953e+01   8.815460e+00
  -4.785954e+02  -1.837126e+02
  -1.510149e+02  -2.550446e+02
   5.452366e+02  -3.164827e+02
   7.444952e+02   8.727444e+01
   2.921694e+02   4.983894e+02
  -4.864909e+02   4.056076e+02
  -5.897713e+02  -5.350895e+01
  -1.989653e+02  -4.308084e+02
   3.243551e+02  -4.382564e+02
   4.790134e+02  -1.420415e+02
   2.803095e+02   1.137776e+02
  -1.780552e+01   3.993716e+02
  -6.234957e+01   2.271091e+02
  -3.030450e+01  -1.744697e+02
   1.934655e+02  -3.340625e+02
   3.654496e+02   8.036472e+01
   1.934864e+02   5.503741e+02
  -3.147293e+02   5.426472e+02
  -4.016806e+02  -4.741093e+01
  -1.911480e+02  -3.891942e+02
   2.198634e+02  -2.200455e+02
   2.820285e+02   2.905130e+02
  -8.455642e+01   4.622610e+02
  -4.988089e+02   1.864807e+02
  -4.496415e+02  -3.643538e+02
  -1.174475e+02  -5.338322e+02
   3.716680e+02  -3.133210e+02
   5.115250e+02   6.521093e+01
   3.887022e+02   3.302178e+02
  -7.706678e+01   3.157085e+02
  -3.205890e+02   1.015618e+02
  -2.136555e+02  -1.615123e+01
   4.647315e+01  -2.019052e+01
   5.351603e+01   1.534066e+02
  -1.407853e+02   1.697803e+02
  -2.934796e+02  -1.109102e+02
  -1.763979e+02  -2.622150e+02
   1.631489e+02  -2.111232e+02
   3.432438e+02  -6.092531e+01
   2.765627e+02   1.492925e+02
  -3.367388e+01   2.757830e+02
  -2.399935e+02   3.138560e+02
  -3.400889e+02   2.027380e+02
  -2.625773e+02  -9.439649e+01
  -1.103338e+02  -3.656345e+02
   4.936976e+01  -3.445526e+02
   4.683862e+01  -1.097010e+02
   4.106332e+00  -4.639686e+01
   1.214935e+02  -8.875842e+01
   2.280550e+02  -1.107410e+02
   2.452924e+02   4.232900e+01
   1.476222e+02   2.365069e+02
  -9.191692e+01   2.891245e+02
  -2.029274e+02   3.403121e+00
  -1.974615e+02  -1.994708e+02
  -4.469566e+00  -2.830805e+02
   2.072837e+02  -1.502897e+02
   3.773085e+02   1.468916e+02
   1.881876e+02   2.963586e+02
  -8.985042e+01   2.492560e+02
  -2.288723e+02   1.439736e+02
  -1.795744e+02   6.542949e+01
  -1.228896e+02   1.026789e+02
  -2.251751e+02   6.012849e+01
  -3.870252e+02  -1.099131e+02
  -3.315136e+02  -3.346073e+02
   8.553551e+01  -4.318118e+02
   3.444767e+02  -3.654361e+02
   5.022873e+02  -1.785764e+02
   3.252776e+02   6.585802e+01
   1.541445e+01   2.580007e+02
  -7.164500e+01   1.986443e+02
  -4.943986e+01   2.824719e+01
   1.121887e+02  -8.619144e+01
   1.428552e+02  -1.599305e+01
   8.103175e+01   2.040003e+02
  -1.537987e+02   1.439899e+02
  -1.436006e+02  -2.055537e+01
  -6.595909e+00  -1.937039e+02
   1.545578e+02  -2.350631e+01
   1.524632e+02   2.312597e+02
   1.028859e+01   3.673892e+02
  -2.545917e+02   2.385651e+02
  -3.673343e+02  -8.399878e+01
  -2.789332e+02  -2.458992e+02
  -7.837720e+01  -2.809401e+02
   1.406557e+02  -1.994813e+02
   2.073012e+02  -1.686271e+01
   1.143619e+01   3.922647e+01
  -6.287351e+01  -6.881355e+01
  -7.768522e+01  -1.243580e+02
   9.538168e+01  -9.859580e+01
   1.879691e+02  -1.423744e+01
   1.088158e+02   7.352995e+01
  -5.928334e+01  -2.228911e+01
  -3.762187e+01  -8.228903e+01
   1.613032e+02  -6.577243e+01
   2.853797e+02  -2.069855e+01
   2.586884e+02   1.428605e+02
  -1.304139e+01   2.875956e+02
  -1.873921e+02   3.002488e+02
  -3.015071e+02   1.185565e+02
  -1.291652e+02  -5.753181e+01
   1.673803e+01  -1.276907e+02
   7.219338e+01  -3.262381e+01
  -8.177656e+01   1.279778e+02
  -1.922416e+02   3.644678e+01
  -1.903454e+02  -1.090173e+02
  -6.330204e+01  -1.801543e+02
   7.057612e+01  -1.221225e+02
   1.254300e+02  -2.175982e+01
   7.781550e+01   4.653403e+00
  -3.556695e+01  -1.226713e+01
  -5.085509e+01  -1.000332e+02
   7.864206e+01  -6.255253e+01
   2.071954e+02  -1.866212e+01
   1.271404e+02   1.033693e+02
   8.088790e+00   2.227826e+02
  -1.810087e+02   1.375908e+02
  -1.744922e+02  -4.121006e+00
  -5.456931e+01  -1.194580e+02
   2.257403e+01  -1.070669e+02
   4.241032e+01  -3.703355e+01
  -2.416523e+01   4.764800e+01
  -6.188246e+01  -7.718525e+00
   1.856697e+01   1.849162e+00
   8.022763e+01  -4.627972e+00
   1.057762e+02   9.255674e+01
  -1.549044e+01   9.620358e+01
  -1.472082e+02   1.881696e+02
  -2.305300e+02   1.308505e+01
  -1.610961e+02  -1.252802e+02
  -1.676384e+01  -2.175561e+02
   1.238376e+02  -1.734974e+02
   1.075111e+02  -3.890953e+01
   5.697886e+01   1.803464e+01
  -2.450549e+00   6.293968e+01
   8.785603e+01   2.718951e+01
   8.894544e+01  -1.784602e+01
   2.119361e+01   4.514134e+01
  -6.190926e+01   5.320721e+01
  -1.176430e+02   6.844090e+01
  -8.933817e+01  -5.264811e+01
   2.666068e+01  -1.240403e+02
   1.491882e+02  -5.167556e+01
   1.621127e+02   8.369601e+01
   9.634875e+01   2.214691e+02
  -1.199532e+02   2.310389e+02
  -2.675671e+02   9.934500e+01
  -2.682249e+02  -1.037721e+02
  -1.419676e+02  -1.374336e+02
   8.591072e+00  -1.431902e+02
   8.458107e+01  -9.311220e+01
   7.928390e+01  -8.555115e+01
   9.070642e+01  -1.040768e+02
   7.417991e+01  -1.045589e+02
   1.299743e+02   1.965348e+01
   1.300620e+02   1.471440e+02
  -1.080064e+01   2.137735e+02
  -1.119034e+02   1.864393e+02
  -1.063736e+02   8.376374e+00
  -8.567533e+01  -1.363428e+02
   2.605642e+01  -1.304092e+02
   9.346047e+01  -9.599394e+01
   4.601795e+01   1.170404e+01
  -5.407760e+00   6.136085e+01
  -2.264001e+00   8.071258e+01
   2.160068e+01   3.842677e+01
   5.871272e+01   5.575866e+01
   1.901663e+01   3.026842e+01
  -7.997498e+01   4.447442e+01
  -1.794463e+02  -4.407069e+01
  -1.945968e+02  -6.826921e+01
   5.704742e+00  -1.098150e+02
   9.946177e+01  -7.975591e+01
   1.319537e+02  -4.516403e+01
   2.784879e+01   1.675065e+01
  -1.489431e+01   3.830344e+01
  -3.541894e+01   1.362465e+00
   1.127077e+01  -5.473193e+01
   4.525540e+01  -5.191919e+01
   4.613768e+01   2.112473e+01
   7.636325e+00   8.780030e+01
   5.273406e+01   5.729256e+01
   2.111366e+01   8.315772e+00
   4.296109e+01  -8.981586e+00
   1.095790e+01   6.728388e+01
  -3.469473e+00   1.120110e+02
  -1.306025e+02   1.167761e+02
  -1.905671e+02   1.382678e+01
  -1.031659e+02  -7.881167e+01
  -2.956619e+00  -1.523010e+02
   6.971839e+01  -9.416078e+01
  -5.596058e+00   1.829257e+01
  -4.668703e+01  -9.055389e+00
  -1.242100e+02  -1.758354e+00
  -4.667426e+01  -7.719124e+01
   9.347479e+01  -8.352038e+01
   1.721720e+02  -7.725803e+01
   1.262534e+02   1.260701e+01
   3.240601e+01   5.016178e+01
  -9.294020e+01   8.896885e+01
  -5.654701e+01  -3.066725e+01
   2.645791e+00   1.483303e+01
   8.720034e+01  -3.623284e+00
   6.074602e+01   9.268350e+01
  -4.155438e+01   1.311022e+02
  -1.199622e+02   6.896192e+01
  -1.207452e+02  -1.077209e+02
  -3.656711e+01  -1.465992e+02
   5.766382e+01  -1.010489e+02
   6.769709e+01   7.795063e+00
   2.838871e+01   1.091194e+02
  -2.112831e+01   9.604615e+01
  -6.025967e+01   1.821519e+01
  -6.628835e+01  -3.824694e+01
  -5.391107e+01  -3.895894e+01
  -1.308525e+01   1.900076e+01
  -2.894008e+01   1.550987e-01
  -3.190479e+01  -4.464595e+01
  -3.646798e+01  -5.871007e+01
   4.965095e+01  -4.803442e+01
   1.317870e+02   1.407119e+01
   7.899028e+01   4.507484e+01
  -2.293559e+01   2.756672e+01
  -7.309067e+01   1.315579e+01
  -5.537798e+01   4.842378e+01
  -2.499316e+01   2.021870e-01
  -5.747747e+00  -9.816549e+00
   2.543792e+01  -2.452935e+01
  -4.287252e-01   1.395384e+01
  -1.765971e+00   4.248498e+01
   4.105078e+01  -4.486342e-01
   5.423099e+01  -1.137774e+01
  -3.931864e+01   6.398253e+01
  -1.203052e+02   1.121228e+02
  -1.939300e+02   5.079665e+01
  -1.287519e+02  -8.383306e+01
  -2.972488e+01  -1.646533e+02
   1.015757e+02  -1.678502e+02
   8.666043e+01  -5.019188e+01
   1.117630e+02   7.064113e+01
   4.917641e+01   2.735730e+01
   3.805563e+00  -2.748031e+00
   2.914403e+01   2.329380e+01
   4.349923e+01   6.419970e+01
   1.910617e+01   1.205654e+02
  -6.810994e+01   3.338323e+01
  -9.589349e+01  -1.920743e+01
  -9.486539e+01  -4.557853e+01
   9.593243e+00  -1.154200e+02
   7.996277e+01  -1.095936e+01
   9.388150e+01   6.703897e+01
   2.417911e+01   1.181498e+02
  -1.367778e+02   3.660250e+01
  -8.237497e+01  -2.743840e+01
  -4.610661e+01  -2.007307e+01
   3.602963e+01  -8.972188e+00
   1.914721e+01  -6.594829e+00
  -5.872194e+01  -1.060748e+01
  -4.794017e+01  -2.797736e+01
  -4.714460e+01  -4.150455e+01
   8.798462e+01  -1.072096e+02
   1.254566e+02  -2.521920e+01
   7.187400e+01  -6.259047e+00
   2.176058e+01   9.684139e+01
  -7.711486e+01   7.884811e+01
  -6.634864e+01   3.070669e+01
  -2.416786e+01  -3.865247e+01
   2.462572e+01  -7.444074e+01
   5.523076e+01   1.585374e+01
  -5.075671e+00   3.557281e+01
  -1.175037e+01   2.690916e+01
  -5.395655e+01  -2.584032e+00
  -4.096702e+01  -8.027810e+01
  -4.025579e+00  -1.462648e+01
  -2.394080e+01  -9.569224e+00
  -4.498695e+01   4.257627e+01
  -1.952502e+01  -6.180254e+01
  -2.419971e+01  -6.356731e+01
   4.794231e+01   4.089134e+00
  -8.548383e-01   2.479555e+00
   3.012795e+01   2.837559e+01
  -7.758456e+01   2.788243e+01
  -6.871003e+01  -6.849367e+01
  -2.778874e+00  -6.847502e+01
   6.988317e+01  -3.836921e+01
   1.072344e+02   3.980033e+01
   2.034003e+01   5.943170e+01
  -4.332455e+01   3.725703e+01
  -7.658807e+01  -1.936126e+01
  -2.809730e+01  -2.638501e+01
   1.208936e+01   2.311093e+01
  -1.839785e+00  -4.045160e+01
  -5.150679e+01   6.569327e+01
  -4.682942e+01   2.419648e+01
