
 $NMID
 id='ANONYMOUS ', fmtdat='(2E16.6)'
 volume=1.0
 tramp=1.0
 $END
   3.799590e+03   2.266930e+01
   2.151100e+03   1.967201e+03
  -3.970133e+02   2.421588e+03
  -1.694409e+03   1.235890e+03
  -1.036470e+03  -2.928340e+02
   2.195786e+02  -4.803612e+02
   4.902457e+02   2.913335e+02
   1.001220e+02   8.192462e+02
  -6.480096e+02   5.899599e+02
  -8.333130e+02   5.654477e+01
  -3.951046e+02  -6.364011e+02
   3.535354e+02  -7.863123e+02
   4.278607e+02  -1.974419e+02
   3.716437e+02   3.815637e+02
  -4.599588e+01   4.790797e+02
  -6.343994e+02  -9.825731e+01
  -3.772974e+02  -6.402127e+02
   2.712135e+02  -5.903504e+02
   5.428504e+02  -3.335327e+02
   3.518028e+02   1.569223e+02
   8.195611e+01   3.588505e+02
  -2.818140e+02   9.061391e+01
  -2.811357e+02   1.241516e+01
   1.003306e+02   1.775515e+02
   3.550970e+02   3.161046e+02
   1.768352e+02   3.812190e+02
  -3.537795e+02   2.998106e+02
  -5.831673e+02  -3.257096e+01
  -3.046070e+02  -3.133818e+02
   2.868992e+02  -3.198884e+02
   5.999645e+02   3.994012e+01
   2.736967e+02   5.759402e+02
  -2.321644e+02   3.785148e+02
  -3.858537e+02   2.091751e+02
  -3.910720e+02  -1.534121e+02
  -1.184556e+02  -4.435462e+02
   1.287274e+02  -2.791852e+02
   3.673166e+01   8.814355e+01
  -9.885706e+01   2.678648e+02
  -2.763388e+02  -6.372136e+01
  -1.271545e+02  -5.587595e+02
   2.439761e+02  -5.012498e+02
   3.762765e+02   1.496630e+00
   1.650476e+02   3.495433e+02
  -2.358946e+02   1.940617e+02
  -2.807449e+02  -2.442492e+02
   1.048470e+02  -4.319086e+02
   4.818987e+02  -9.168113e+01
   5.201310e+02   3.824352e+02
   2.265616e+02   4.982894e+02
  -2.560642e+02   3.019019e+02
  -5.168332e+02  -4.598973e+01
  -3.191515e+02  -2.503409e+02
   4.623229e+01  -2.292233e+02
   2.499040e+02  -1.902047e+01
   1.763652e+02   1.382240e+02
  -4.015508e+01   6.319790e+01
  -4.108448e+01  -1.004260e+02
   1.471677e+02  -1.529172e+02
   2.097657e+02   3.593189e+01
   5.494222e+01   2.665333e+02
  -2.257948e+02   2.897674e+02
  -3.497448e+02   5.870157e+01
  -2.456564e+02  -1.880811e+02
   4.439069e+01  -3.342302e+02
   2.930727e+02  -3.537007e+02
   3.797334e+02  -1.618855e+02
   2.374629e+02   1.344943e+02
   8.495441e+01   3.621398e+02
  -1.840623e+01   3.544040e+02
  -6.323691e+01   2.127349e+02
  -6.683729e+01   1.106215e+02
  -1.729448e+02   1.299486e+02
  -2.489806e+02   3.912947e+01
  -2.228941e+02  -1.557814e+02
  -1.096468e+02  -2.985260e+02
   6.093048e+01  -2.134263e+02
   2.280125e+02   3.584637e+01
   1.535713e+02   2.633543e+02
  -4.703589e+01   2.724042e+02
  -2.373884e+02   6.757530e+01
  -3.320639e+02  -1.542970e+02
  -1.430209e+02  -2.812825e+02
   7.572377e+01  -2.032650e+02
   1.314271e+02  -8.359248e+01
   1.048579e+02  -4.814655e+01
   1.051566e+02  -8.717476e+01
   2.392990e+02  -7.388554e+01
   4.179102e+02   8.607503e+01
   3.180382e+02   2.690248e+02
  -1.068107e+01   4.535319e+02
  -3.231814e+02   4.152966e+02
  -4.975102e+02   1.577109e+02
  -3.297340e+02  -1.113663e+02
  -4.659362e+01  -2.778034e+02
   1.516244e+02  -1.982574e+02
   5.289606e+01  -1.109044e+01
  -9.600173e+01   4.656293e+01
  -1.715369e+02  -3.576209e+01
  -2.538840e+01  -1.482377e+02
   1.446622e+02  -1.410350e+02
   1.157105e+02   5.122098e+01
  -3.900771e+01   1.328673e+02
  -2.004534e+02  -2.586420e+01
  -1.201853e+02  -2.645377e+02
   7.392289e+01  -3.327120e+02
   2.533455e+02  -1.556509e+02
   3.418422e+02   1.091826e+02
   2.355439e+02   2.635581e+02
   2.905049e+01   2.655127e+02
  -1.258383e+02   1.343728e+02
  -1.478985e+02  -3.191789e+01
  -4.068895e+01  -1.628392e+01
   4.671128e+01   5.292516e+01
  -1.132667e+00   8.095174e+01
  -1.181692e+02   6.845780e+01
  -1.187418e+02  -3.813694e+01
   4.148849e+00  -7.405927e+01
   5.069442e+01   1.454554e+01
   1.894451e+01   8.770821e+01
  -1.581766e+02   1.374205e+02
  -3.012130e+02   2.639012e+01
  -2.477760e+02  -1.845650e+02
  -2.576920e+00  -3.121112e+02
   1.680489e+02  -2.764511e+02
   2.754403e+02  -1.054188e+02
   1.651264e+02   5.259045e+01
  -3.124428e+00   9.640860e+01
  -7.276404e+01   5.079519e+00
   6.538174e+01  -6.194587e+01
   1.824708e+02  -3.761801e+01
   1.747890e+02   1.206460e+02
   6.517242e+01   1.966191e+02
  -1.449490e+02   1.266568e+02
  -1.404602e+02   1.305351e+01
  -2.120047e+00  -3.665914e+01
   4.092856e+01   1.503004e+01
   4.327359e+01   9.778574e+01
  -6.390988e+01   1.038626e+02
  -1.806162e+02   5.933443e+00
  -1.677103e+02  -8.507134e+01
  -4.408791e+01  -2.135959e+02
   9.816940e+01  -2.089504e+02
   2.258604e+02  -3.381337e+01
   8.881493e+01   9.880658e+01
  -1.967154e+01   1.049048e+02
  -4.944189e+01  -1.468329e+01
  -2.187692e+00   2.469931e+00
   1.256792e+01  -4.346355e+00
  -2.609940e+01   1.760277e+01
  -9.551771e+01  -3.702810e+01
  -7.791294e+01  -1.096497e+02
   2.441756e+01  -1.763992e+02
   1.904989e+02  -1.378347e+02
   2.583213e+02   1.749857e+01
   2.130125e+02   1.868617e+02
   2.926728e+01   2.358707e+02
  -1.456233e+02   1.333031e+02
  -1.424656e+02   7.928150e+01
  -6.765682e+01   3.800473e+00
  -2.719413e+00  -1.470932e+01
  -1.286727e+01   1.153559e+01
  -1.149528e+02  -2.860762e+01
  -5.843713e+01  -5.476956e+01
   5.962871e+01  -8.992702e+01
   1.114339e+02  -7.745699e+01
   7.008879e+01   7.609362e+01
  -9.135895e+01   1.093975e+02
  -1.732801e+02   8.362172e+01
  -1.823736e+02  -2.340683e+01
  -1.192691e+02  -1.895298e+02
   9.078367e+01  -2.310928e+02
   2.515142e+02  -7.966493e+01
   2.593927e+02   6.178506e+01
   1.221326e+02   2.044548e+02
  -1.406185e+01   1.641023e+02
  -6.721422e+01   2.795703e+01
  -3.914486e+01   7.249863e+01
  -5.937549e+01   1.042895e+02
  -8.778384e+01   9.437013e+01
  -1.461253e+02  -3.188026e+01
  -1.441102e+02  -1.051561e+02
   1.983825e+00  -2.078993e+02
   8.256514e+01  -1.756294e+02
   1.711355e+02  -1.157534e+01
   1.263597e+02   1.203858e+02
  -5.715467e+01   1.790406e+02
  -1.165665e+02   7.193634e+01
  -5.088937e+01  -2.335279e+01
   2.624408e+01  -5.336959e+01
   4.438204e+01  -4.855339e+01
  -4.599628e+01  -3.766899e+01
  -1.328828e+02  -3.452422e+01
  -1.653391e+01  -7.915455e+01
   1.289560e+02  -2.419441e+01
   1.815883e+02   9.891972e+00
   1.342457e+02   9.541374e+01
  -1.543749e+01   1.518224e+02
  -1.064723e+02   2.925575e+01
  -1.467221e+02  -2.576152e+01
  -4.830261e+01  -1.038754e+02
   5.791185e+01  -7.457893e+01
   1.255112e+02   1.947033e+01
   1.840143e+01   7.744090e+01
  -2.465215e+01   3.507398e+01
  -7.233835e+01   3.133220e+01
  -6.229983e+01  -4.742470e+01
  -2.116333e+01  -5.231577e+01
  -2.579343e+01   4.920508e+00
  -6.859692e+01   3.759877e+01
  -1.091961e+00  -4.589598e+01
   2.212004e+01  -1.386854e+02
   1.304313e+02  -1.100585e+02
   1.706613e+02  -3.941992e+01
   1.301881e+02   1.116824e+02
   1.910926e+01   1.258276e+02
  -8.582755e+01   5.190924e+01
  -8.237242e+01  -1.036210e+01
   4.206687e+01  -3.650557e+01
   1.230727e+02   4.860885e+01
   2.300194e+01   1.008682e+02
  -1.010014e+02   6.512016e+01
  -1.592087e+02   4.760918e+01
  -9.302928e+01  -1.976872e+01
  -2.262501e+01  -4.755056e+01
   8.428969e+01  -4.680045e+01
   2.877210e+01  -1.222044e+01
  -4.881748e+01   5.669141e+01
  -3.150814e+01  -3.918981e+01
  -3.761522e+01  -7.576272e+01
   7.276139e+01  -1.396977e+02
   1.400120e+02  -1.014521e+02
   8.522282e+01   8.312886e+01
  -4.829490e+00   2.049352e+02
  -1.337483e+02   1.479135e+02
  -1.132680e+02   2.959532e+01
  -4.677542e+01  -8.621084e+01
   1.753379e+01  -8.046394e+01
   4.982003e+01  -2.905499e+01
   3.928511e+01   7.732805e+00
   2.229997e+01   3.454789e+00
   3.806488e+01  -4.747620e+01
   2.158761e+01  -2.492466e+01
   5.009235e+01   4.666730e+01
   6.496389e+01   9.723966e+01
  -6.623527e+01   8.858053e+01
  -1.466731e+02  -5.051869e+01
  -9.533788e+01  -8.565988e+01
   9.658554e+00  -1.853296e+01
   7.934712e+01   3.671836e+00
   3.424463e+01  -5.439931e+00
  -2.266798e+01   1.591080e+01
  -4.197743e+01  -2.875338e+01
  -1.920418e+01   2.362200e+01
  -2.731301e+00  -1.290809e+01
  -1.542745e+01  -1.094173e+01
  -1.005997e+02  -5.220932e+01
  -1.348838e+02  -3.956519e+01
  -4.509998e+01  -8.582936e+01
   1.420830e+02  -1.070762e+02
   1.687928e+02  -8.648614e+01
   1.359567e+02   6.466395e+01
   8.139131e+01   1.664011e+02
  -4.288453e+01   1.487696e+02
  -8.336318e+01   3.921389e+01
  -6.329445e+01  -3.916086e+01
  -4.743390e+01  -6.502684e+01
   1.356230e+01  -2.495538e+01
  -1.411833e+01  -5.506936e+00
  -3.199238e+01  -8.698384e+01
  -1.377276e+01  -7.431307e+01
   2.036058e+01  -7.436299e+01
   9.599157e+01  -1.049281e+01
   5.653183e+01   1.167774e+02
  -1.826275e+01   1.346673e+02
  -6.888815e+01   6.266903e+01
  -1.122397e+02  -2.208423e+01
  -8.851696e+00  -1.012874e+02
   1.205138e+02  -5.720066e+01
   9.050714e+01   3.239303e+01
   1.959693e+01   3.340662e+01
  -8.460469e+01   1.030707e+02
  -4.197129e+01   3.791101e+01
   2.167728e+01   2.202588e+01
   4.487619e+01   2.475548e+00
  -1.089018e+01   2.116713e+01
  -7.869210e+01   6.643402e+01
  -1.130999e+02   4.019207e+01
  -2.390215e+01  -5.304981e+01
   1.500201e+01  -8.453457e+01
   3.495815e+01  -5.596943e+01
   8.444957e+01   1.310574e+00
   1.393999e+01   1.027618e+02
  -1.453501e+01   3.742504e+01
  -6.420988e+01  -3.358552e+01
   1.651743e+00  -7.708731e+01
   2.017033e+01  -3.743526e+01
   6.273641e+01   4.221228e+01
   3.925940e+01   7.187377e+01
   1.496023e+01   4.439583e+01
  -4.073299e+00  -2.821210e+01
   1.641957e+01   3.261017e+01
   5.424172e+00   3.097937e+01
   1.066498e+01   7.716397e+01
  -9.415315e+00   2.340232e+01
  -4.824497e+01  -4.610003e+01
  -3.230626e+01  -6.239339e+01
   6.379010e+00  -2.661094e+01
   7.983099e+01  -3.255993e+01
   6.318971e+01   3.387057e+01
  -3.832941e+01   4.103770e+01
  -1.065708e+02  -1.633862e+01
  -3.044858e+01  -3.547650e+01
   2.795749e+01  -5.166983e+01
   6.880136e+01  -2.918567e+01
  -1.200917e+01   6.928870e+00
  -1.859282e+01   5.858750e-01
   2.825017e+00  -4.093996e+01
   3.116398e+01  -1.920627e+01
   7.098188e+01  -2.663592e+01
