
 $NMID
 id='ANONYMOUS ', fmtdat='(2E16.6)'
 volume=1.0
 tramp=1.0
 $END
  -3.372781e+03  -1.334498e+02
  -2.201181e+03  -2.036859e+03
   1.584908e+02  -2.335312e+03
   1.444554e+03  -1.055236e+03
   8.854973e+02  -7.444541e+01
  -1.280660e+02   2.818970e+02
  -5.472096e+02  -2.098020e+02
  -8.630487e+01  -6.462692e+02
   5.256760e+02  -5.904734e+02
   7.135868e+02   1.452119e+01
   3.705728e+02   6.511220e+02
   4.388363e+01   8.344238e+02
  -2.719657e+02  -1.211174e+01
  -3.135748e+02  -6.589990e+02
   2.669206e+02  -4.032920e+02
   4.763307e+02  -1.063396e+02
   3.515762e+02   3.536920e+02
  -8.449702e+01   6.367210e+02
  -5.122319e+02   2.845080e+02
  -3.394559e+02  -1.969238e+02
  -1.865889e+02  -4.177645e+02
   1.771892e+02  -1.861296e+02
  -4.590875e+01  -1.436340e+02
  -1.427684e+02   2.414705e+01
  -4.059203e+02  -2.814875e+02
  -1.059335e+02  -6.377075e+02
   2.640354e+02  -3.242410e+02
   7.391758e+02   1.904820e+02
   3.006635e+02   4.349024e+02
  -3.558087e+02   4.071674e+02
  -5.949284e+02  -7.381196e+01
  -2.006552e+02  -3.280992e+02
   3.179670e+02  -4.557359e+02
   4.563044e+02  -4.232200e+01
   2.590909e+02   1.663783e+02
   5.865778e+01   4.060765e+02
  -8.520433e+01   1.904482e+02
  -1.337321e+02  -1.590135e+02
   1.347553e+02  -1.929982e+02
   2.631270e+02   1.494916e+02
   1.495412e+02   5.360099e+02
  -3.241676e+02   5.511150e+02
  -4.288399e+02  -2.267956e+01
  -1.669908e+02  -3.985381e+02
   3.028958e+02  -2.162307e+02
   2.920615e+02   2.996575e+02
  -1.100575e+02   5.086796e+02
  -5.134641e+02   1.654517e+02
  -5.781136e+02  -3.571203e+02
  -1.776611e+02  -5.825401e+02
   3.040117e+02  -3.405182e+02
   5.321094e+02   9.108093e+01
   3.303131e+02   3.051873e+02
  -8.714023e+01   2.674571e+02
  -2.832193e+02  -1.777686e+00
  -1.796090e+02  -1.327663e+02
   5.532529e+01  -7.399826e+00
   9.012421e+01   1.161274e+02
  -1.516967e+02   1.359741e+02
  -2.485765e+02  -6.405302e+01
  -1.398675e+02  -1.669494e+02
   1.815910e+02  -2.216906e+02
   3.318554e+02  -1.367118e+02
   2.403637e+02   4.245453e+01
   4.530642e+01   2.827575e+02
  -2.752445e+02   4.342123e+02
  -3.999636e+02   2.089279e+02
  -2.754327e+02  -1.367557e+02
  -3.039837e+01  -3.399616e+02
   1.161944e+02  -2.940834e+02
   4.239249e+01  -1.137441e+02
  -4.395638e+01  -1.102696e+02
   5.445835e+01  -1.297403e+02
   2.452391e+02  -8.477547e+01
   2.832818e+02   1.602288e+02
   1.080117e+02   2.860446e+02
  -1.134113e+02   2.316120e+02
  -2.482509e+02  -3.266016e+01
  -1.670297e+02  -2.723769e+02
   7.633646e+01  -2.670786e+02
   2.458562e+02  -6.654157e+01
   2.867303e+02   1.651045e+02
   1.253808e+02   3.286763e+02
  -8.597888e+01   2.579534e+02
  -1.591706e+02   1.279558e+02
  -7.584278e+01   3.669857e+01
  -8.768981e+01   5.807373e+01
  -2.603420e+02   4.923489e+01
  -4.660487e+02  -2.181170e+01
  -3.642058e+02  -2.673727e+02
  -1.540814e+01  -4.367841e+02
   3.928971e+02  -4.437017e+02
   4.918494e+02  -1.633454e+02
   3.184951e+02   1.603086e+02
   2.648905e+01   2.747808e+02
  -1.468580e+02   1.465199e+02
  -5.502567e+01  -3.268404e+01
   1.135163e+02  -1.006568e+02
   2.253989e+02   6.183864e+01
   1.025451e+02   1.485171e+02
  -1.248841e+02   1.856454e+02
  -1.543130e+02  -3.115652e+01
   1.953282e+01  -1.557504e+02
   2.082995e+02  -3.078112e+01
   1.819217e+02   2.653311e+02
  -1.852476e+01   4.187732e+02
  -2.312341e+02   2.647307e+02
  -3.741822e+02  -5.239275e+01
  -3.158949e+02  -2.952351e+02
  -9.326867e+01  -3.241179e+02
   1.402936e+02  -1.671596e+02
   1.604028e+02  -2.368492e+01
   6.092820e+01   2.215872e+01
  -1.383940e+01  -6.232183e+01
   5.335592e+01  -9.582050e+01
   1.436356e+02  -1.171701e+02
   1.500396e+02   2.138755e+01
   2.194107e+01   1.206764e+02
  -9.951042e+01   5.626750e+01
  -6.992774e+01  -8.198218e+01
   1.517622e+02  -1.040447e+02
   2.947826e+02  -6.443497e+00
   2.927776e+02   1.379147e+02
   6.052865e+01   2.669990e+02
  -2.441068e+02   2.549138e+02
  -3.102018e+02   6.047516e+01
  -1.367766e+02  -9.017942e+01
   6.028541e+01  -8.029911e+01
   5.121112e+01   7.130260e+00
  -2.964032e+01   9.213695e+01
  -2.118304e+02   3.488082e+01
  -1.807592e+02  -1.444214e+02
  -4.153737e+01  -2.252151e+02
   1.346026e+02  -1.446387e+02
   1.535196e+02  -1.029325e+00
   7.264498e+01   1.517451e+01
  -5.658384e+01  -6.487582e+00
  -4.807033e+01  -5.797524e+01
   8.910727e+01  -1.422234e+02
   2.308449e+02  -1.641564e+01
   1.961350e+02   7.611555e+01
   2.049025e+01   2.130753e+02
  -1.179670e+02   2.286122e+02
  -2.203812e+02   2.699627e+01
  -5.561469e+01  -1.094793e+02
   2.647504e+01  -7.954597e+01
   5.605157e+01  -9.054293e+01
   2.670884e+01   5.415443e+01
  -1.516957e+01  -2.915347e+01
  -8.846103e+00  -2.309744e+01
   7.580952e+01  -4.002393e+01
   1.384021e+02   5.511810e+01
   4.036441e+01   1.658514e+02
  -1.510517e+02   1.512708e+02
  -2.375258e+02   1.028892e+01
  -2.032177e+02  -1.301058e+02
  -6.033710e+01  -2.770645e+02
   1.292257e+02  -2.001339e+02
   1.663001e+02  -1.409022e+01
   1.294027e+02   2.188318e+01
   2.672285e+01   2.930798e+01
   6.720037e+01  -3.134655e+01
   1.204104e+02   7.844982e+00
   4.083378e+01   8.020009e+01
   1.706170e+01   8.322100e+01
  -1.930849e+02   1.145000e+02
  -1.113547e+02   1.105807e+01
  -2.423940e+01  -1.468068e+02
   1.262781e+02  -6.172395e+01
   2.235248e+02   6.964779e+00
   1.047383e+02   2.271807e+02
  -1.111459e+02   2.585679e+02
  -2.791301e+02   6.641691e+01
  -2.808889e+02  -9.577981e+01
  -9.579703e+01  -1.644585e+02
  -6.169311e+00  -1.439478e+02
   1.036805e+02  -1.007241e+02
   1.236282e+02  -1.014298e+02
   8.600874e+01  -1.106109e+02
   6.855286e+01  -1.009550e+02
   1.366228e+02   3.970239e+01
   1.690464e+02   1.756131e+02
   1.574513e+01   2.573601e+02
  -9.955237e+01   2.078204e+02
  -1.977255e+02   4.283052e+01
  -1.277306e+02  -1.088059e+02
  -4.550427e+01  -1.465067e+02
   6.434478e+01  -1.288943e+02
   5.503868e+01  -3.675865e+01
  -4.776894e+00   6.685874e+01
   3.542973e+00   1.845367e+01
   1.054521e+01   6.811377e-01
   1.150168e+02   1.382920e+01
   3.756946e+01   3.240596e+01
  -6.928496e+01   4.195965e+01
  -1.228279e+02   1.876064e+01
  -1.384418e+02  -4.918601e+01
  -2.085004e+01  -1.099804e+02
   1.096435e+02  -1.100026e+02
   1.053260e+02  -3.952464e+01
   2.677858e+01   7.994716e+01
  -2.639261e+01  -2.493697e+00
  -5.730466e+01  -2.192073e+01
   3.456721e+00  -7.750774e+01
   2.495730e+01  -4.601613e+01
   4.958665e+01   2.330768e+01
   2.868450e+01   3.039633e+01
   6.392460e+01   5.304737e+01
   9.785504e+01  -2.986904e+00
   4.726946e+01   2.358827e+00
   8.296019e+01   6.716382e+01
  -6.295424e+00   1.810073e+02
  -1.219617e+02   1.835505e+02
  -1.921622e+02   1.080015e+01
  -1.409885e+02  -1.080258e+02
  -1.212774e+01  -1.250264e+02
   3.191434e+01  -1.100133e+02
   5.081191e+01  -1.543307e+01
  -4.735567e+01   1.701967e+01
  -1.114953e+02  -2.128650e+01
  -6.452132e+01  -1.003010e+02
   7.415612e+01  -9.689637e+01
   1.741477e+02  -1.129336e+02
   1.407047e+02   1.366139e+01
   1.019025e+02   6.586965e+01
  -5.915713e+01   1.008427e+02
  -6.070372e+01   3.113765e+01
   2.813344e+01  -9.154233e+00
   3.907155e+01   5.066998e+01
   1.319092e+01   9.737876e+01
  -8.808610e+01   1.713711e+02
  -1.053196e+02   5.727550e+01
  -1.288850e+02  -1.010023e+02
  -4.443694e+01  -2.222200e+02
   6.431079e+01  -1.456393e+02
   1.049025e+02   4.286402e+00
   8.049167e+01   9.354199e+01
   2.474321e+01   9.178934e+01
  -4.484869e+01   4.531153e+01
  -1.669534e+01   4.260099e+00
  -2.637376e+00   3.163125e+01
  -5.941440e+01   1.342747e+01
  -5.224010e+01   2.835320e+01
  -7.557549e+01  -7.952072e+01
  -4.286704e+01  -7.753711e+01
   6.617794e+01  -3.402722e+01
   1.562256e+02   2.900449e+01
   6.160616e+01   8.319671e+01
  -3.765809e+01   9.395365e+01
  -1.047627e+02  -9.702448e+00
  -7.740082e+01   2.319381e+01
  -2.850672e+00  -3.099623e+01
   4.963182e+01  -1.739523e+01
   6.560509e+01  -5.933029e+00
   2.621131e+01   9.787293e+00
   3.491748e+01   2.893908e+01
   5.701873e+01  -1.681220e+01
   9.847451e+01   5.982740e+01
  -1.587739e+01   7.681909e+01
  -8.464453e+01   9.868290e+01
  -1.613177e+02   9.666708e+01
  -1.262919e+02  -3.458962e+01
  -6.275810e+01  -1.162955e+02
   1.074932e+02  -1.108947e+02
   7.406700e+01  -9.111654e+01
   8.475672e+01   6.000505e+01
  -3.322155e+00   6.342078e+01
   2.061448e+01  -5.097838e-01
   2.120185e+01   1.931639e+01
   4.461175e+01   4.544709e+01
   1.998925e+01   6.151468e+01
  -1.282990e+01   8.540059e+01
  -6.345777e+01  -6.842968e+00
  -1.121282e+02  -1.010555e+02
   3.594186e+00  -1.216682e+02
   9.084968e+01  -1.609705e+01
   1.136293e+02   8.027138e+01
   7.500311e+01   9.451287e+01
  -7.345012e+01   7.468684e+00
  -7.742735e+01  -8.121500e-01
  -8.280950e+01  -8.195359e+01
   2.176955e+01  -1.961621e+01
   2.015359e+01  -6.868926e+01
  -2.364454e+01   2.204924e+00
   9.444586e+00  -2.383654e+00
   2.198566e+01  -1.891722e+01
   6.448377e+01  -4.587908e+01
   1.461995e+02  -1.837115e+01
   3.417533e+01   1.521859e+01
  -1.960502e+01   8.834518e+01
   9.715113e+00   9.179918e+01
  -1.076038e+01  -2.839794e+00
   1.679170e+01  -3.114347e+01
   7.236517e+01  -7.175859e+01
   1.203833e+00   5.316686e+00
   6.299665e+00   6.000018e+01
  -4.389735e+01   3.216390e+01
  -1.139075e+01  -3.349599e+01
  -4.795420e+01  -3.108929e+01
  -5.040422e+01   4.896555e+00
   1.077388e+01   2.237112e+00
   1.290914e+01  -3.925123e+01
   5.996320e+01  -4.926864e+01
   1.579863e+01  -4.294640e+01
   1.646480e+01   2.551347e+00
   6.697547e+01   6.936038e+01
   2.375492e+01   3.687934e+01
  -2.433892e+01   3.493717e+01
  -3.832199e+01  -2.867339e+01
  -4.275148e+01  -5.495524e+01
   5.808141e+01  -3.376404e+00
   8.049513e+01   2.190831e+01
   2.114054e+01   2.005599e+01
  -2.786910e+01   5.145953e+01
  -8.520295e+01   4.371700e+00
  -1.788191e+01   9.426027e+00
   5.095100e+01  -2.114706e+01
   4.178329e+01   1.475771e+01
  -2.589829e+01   6.165695e+00
  -9.666787e+01   2.797674e+01
