
 $NMID
 id='ANONYMOUS ', fmtdat='(2E16.6)'
 volume=1.0
 tramp=1.0
 $END
   4.311972e+03  -3.739155e+02
   2.668513e+03   2.614455e+03
  -8.640400e+02   2.659418e+03
  -1.984992e+03   7.950584e+02
  -1.148874e+03  -6.426789e+02
   6.312937e+02  -7.773110e+02
   7.352473e+02   5.372380e+02
  -4.794275e+01   1.033677e+03
  -8.192300e+02   5.987784e+02
  -1.019204e+03  -6.170635e+01
  -4.267032e+02  -9.433339e+02
   3.154845e+02  -8.295927e+02
   6.200819e+02  -1.508886e+02
   4.333698e+02   8.170663e+02
  -1.727559e+02   8.779320e+02
  -7.298804e+02  -4.349079e+01
  -1.780801e+02  -5.695513e+02
   1.509673e+02  -5.856583e+02
   5.045736e+02  -2.733888e+02
   4.174132e+02   1.669984e+02
  -1.407353e+01   4.575674e+02
  -8.980830e+01   3.635448e+02
  -3.498480e+02  -8.734227e+01
   9.044253e+01   1.327788e+02
   3.839546e+02   4.317666e+01
   2.432430e+02   2.374322e+02
  -4.535267e+02   3.788291e+02
  -8.062298e+02  -7.849463e+01
  -2.920230e+02  -4.789641e+02
   3.985999e+02  -4.298264e+02
   7.358602e+02   1.041260e+01
   3.552949e+02   4.161694e+02
  -2.781608e+02   5.306468e+02
  -5.518798e+02   2.377345e+02
  -3.565891e+02  -2.080516e+02
  -8.759314e+01  -3.966448e+02
   1.744675e+02  -3.025310e+02
   1.744002e+02   1.851435e+02
  -1.748743e+02   5.091323e+02
  -5.153432e+02   5.807420e+01
  -3.384757e+02  -6.169098e+02
   2.119161e+02  -6.103052e+02
   5.902609e+02  -9.225764e+01
   2.142092e+02   4.798830e+02
  -3.455699e+02   3.505864e+02
  -4.291854e+02  -2.898838e+02
   8.750273e+01  -5.645597e+02
   5.842540e+02  -1.489497e+02
   5.251622e+02   4.124378e+02
   1.400025e+02   5.564909e+02
  -3.527088e+02   3.451794e+02
  -6.147628e+02  -3.797753e+01
  -4.367281e+02  -3.904792e+02
   8.717482e+01  -3.354914e+02
   4.057902e+02  -2.609499e+01
   2.259597e+02   1.824280e+02
  -1.001438e+02   5.195115e+01
  -8.954078e+01  -1.651107e+02
   1.528368e+02  -1.234330e+02
   3.122400e+02   7.908449e+01
   1.766882e+02   2.478597e+02
  -1.495459e+02   2.240724e+02
  -3.118295e+02   1.221917e+01
  -1.979422e+02  -1.454288e+02
   1.950051e+01  -2.278254e+02
   2.184162e+02  -2.909494e+02
   3.410763e+02  -2.104102e+02
   3.534730e+02   1.100476e+02
   1.439895e+02   4.045349e+02
  -5.378277e+01   3.980306e+02
  -8.435376e+01   1.270528e+02
   8.272839e+00   2.205356e-01
  -2.512471e+01   9.186919e+01
  -1.785968e+02   1.281459e+02
  -2.774406e+02  -3.160718e+01
  -1.758042e+02  -2.291737e+02
   7.473028e+01  -2.734470e+02
   2.102798e+02  -7.436692e+01
   1.870893e+02   1.779371e+02
  -2.433475e+01   2.919489e+02
  -2.524672e+02   1.216455e+02
  -3.542347e+02  -1.305240e+02
  -1.790651e+02  -3.763098e+02
   1.150002e+02  -3.386969e+02
   2.082848e+02  -1.215490e+02
   1.815749e+02   3.522393e+01
   5.525076e+01   2.682387e+01
   2.485772e+02  -5.920671e+01
   4.203219e+02  -6.613362e+00
   3.695685e+02   2.505924e+02
   3.145672e+01   4.887483e+02
  -3.646501e+02   4.427894e+02
  -4.020813e+02   1.981665e+02
  -2.899974e+02  -8.953580e+01
  -3.501382e+01  -3.415586e+02
   1.321802e+02  -2.480679e+02
   8.695605e+01   4.067337e+00
  -1.152653e+02   1.683513e+02
  -1.643339e+02   6.322243e+00
  -3.079734e+01  -2.152548e+02
   1.883525e+02  -1.622358e+02
   2.123108e+02   6.907074e+01
  -5.892620e+01   2.098234e+02
  -2.504373e+02   3.285995e+01
  -1.879614e+02  -2.880869e+02
   6.207975e+01  -3.585328e+02
   2.436516e+02  -1.653318e+02
   3.091707e+02   9.325096e+01
   2.473665e+02   1.984479e+02
   3.854363e+01   2.463384e+02
  -1.306559e+02   1.157943e+02
  -1.785790e+02  -1.283332e+01
  -4.077144e+01  -6.142037e+01
   9.283558e+01   3.745620e+01
   2.063919e+01   1.421028e+02
  -1.268403e+02   1.199956e+02
  -1.740211e+02   3.707746e+01
  -2.239838e+01  -6.312063e+01
   9.056039e+01  -3.090647e+01
   3.034909e+01   7.260978e+01
  -1.214159e+02   6.167722e+01
  -2.734265e+02   4.545587e+01
  -2.400426e+02  -5.967215e+01
  -6.872177e+01  -1.862543e+02
   1.584079e+02  -2.597343e+02
   2.721171e+02  -8.559630e+01
   1.594800e+02   4.845539e+01
  -1.694976e+01   1.382586e+02
  -1.134748e+02   4.627522e+01
   1.397080e+01  -1.122382e+02
   1.601120e+02  -7.355632e+01
   2.204902e+02   2.373688e+01
   4.791851e+01   1.579930e+02
  -8.571331e+01   1.319753e+02
  -1.226238e+02   3.653416e+01
  -9.425198e+01  -1.135863e+01
   4.511971e+01   1.504614e+01
   1.789141e+00   6.588296e+01
  -6.932033e+01   9.785874e+01
  -1.660021e+02   7.575819e+01
  -1.820776e+02  -1.051011e+02
  -1.258092e+01  -2.083934e+02
   1.345519e+02  -1.506533e+02
   1.551602e+02  -9.606928e+00
   7.520857e+01   1.684585e+02
  -5.891821e+01   1.361153e+02
  -6.429294e+01   4.812435e+01
   2.459964e-01  -3.217296e+01
   2.893479e+01  -2.650738e+01
  -8.056987e+00   3.339392e+01
  -1.040075e+02   9.784502e+00
  -8.290660e+01  -6.794655e+01
  -4.498348e+01  -1.648305e+02
   8.766541e+01  -1.460192e+02
   1.779793e+02   4.952945e+00
   1.713420e+02   1.272448e+02
   4.661593e+01   1.928553e+02
  -4.674316e+01   1.723634e+02
  -4.719790e+01  -1.831523e+01
  -6.109650e+01  -2.581688e+01
  -2.072011e+01  -3.476073e+00
  -3.788811e+01   1.064220e+01
  -7.599501e+01   1.612410e+01
   6.336092e+00  -5.775932e+01
   6.966785e+01  -7.184412e+01
   1.038551e+02  -2.692151e+01
   7.663054e+01   6.359815e+01
  -1.942734e+00   1.223694e+02
  -1.702109e+02   8.029101e+01
  -1.486803e+02  -3.362083e+01
  -8.188776e+01  -1.847296e+02
   1.383676e+02  -1.854917e+02
   2.727720e+02  -8.400449e+01
   2.494241e+02   9.506207e+01
   8.978581e+01   1.330534e+02
  -4.809952e+01   1.668148e+02
  -1.099259e+02   6.635331e+01
  -5.650745e+01   4.871510e+01
  -5.288903e+01   7.601221e+01
  -7.713680e+01   6.723972e+01
  -1.135655e+02   5.356773e-01
  -9.721065e+01  -1.880024e+02
   2.607427e+00  -2.059277e+02
   1.063274e+02  -1.943712e+02
   1.282168e+02  -3.802032e+01
   1.346119e+02   1.193333e+02
   7.224615e+01   1.852962e+02
   1.522072e+00   1.377137e+02
  -1.229641e+01   2.810192e+01
   1.011499e+01  -2.918860e+01
  -4.658880e-01  -5.197704e+01
  -9.728285e+01   3.284643e+01
  -1.435109e+02  -1.257407e+01
  -1.003347e+02  -6.397395e+01
   3.035427e+01  -5.642168e+01
   1.887840e+02  -1.264735e+01
   1.268133e+02   4.896557e+00
   2.789749e+01   6.244001e+01
  -9.873187e+01   3.869459e+01
  -1.355738e+02  -3.119440e+01
  -7.389956e+00  -2.597276e+01
   1.249444e+02  -4.768135e+01
   1.157659e+02  -9.282210e+00
   3.450539e+01   9.733434e+01
  -6.706001e+01   6.063932e+01
  -4.437320e+01   1.237083e+01
  -3.251472e+01  -5.983316e+01
  -4.830420e+01  -7.110084e+01
  -4.303484e+01  -3.211507e+01
  -7.906230e+01  -5.112576e+00
  -4.464391e+01  -6.297974e+01
   5.750088e+01  -1.188093e+02
   8.765091e+01  -1.101282e+02
   1.355906e+02  -1.731889e+01
   3.546688e+01   7.148602e+01
  -5.515045e+00   9.367957e+01
  -6.068176e+01   3.964962e+01
  -2.994528e+01  -3.428739e+01
   8.722201e+01  -2.449665e+00
   1.325120e+02  -2.283522e+00
   7.644318e+01   7.872510e+01
  -7.975844e+01   1.205370e+02
  -1.780602e+02   2.222303e+01
  -1.934149e+02  -2.625459e+01
  -6.801197e+01  -1.129780e+02
   4.590378e+01  -6.528707e+01
   2.109860e+01   2.183623e+00
  -3.047137e+01  -9.029666e+00
  -3.593169e+01  -3.467347e+01
  -4.339625e+01  -9.615669e+01
   6.884306e+01  -1.210981e+02
   1.015650e+02  -4.114855e+01
   1.135333e+02   1.150689e+02
   4.782256e+01   1.926447e+02
  -1.065499e+02   1.596020e+02
  -1.147856e+02   1.187378e+01
  -8.444885e+01  -7.899362e+01
  -6.925844e+01  -6.930128e+01
   1.238002e+01  -1.383346e+01
   2.208981e+01   7.549540e+00
   7.266439e+00  -7.617879e+01
   1.647070e+01   4.166026e+00
   4.584420e+01   3.425557e+01
   6.307472e+01   9.937318e+01
   2.684948e+01   8.619253e+01
  -2.843028e+01   6.001541e+01
  -1.562453e+02  -4.055804e+01
  -1.455505e+02  -7.045569e+01
  -4.433363e+01  -2.247609e+01
   7.396201e+01  -3.505147e+01
   3.770423e+01   2.723156e+01
  -8.731244e+00   7.156332e+00
  -7.305741e+01   8.720703e+00
  -1.338830e+01   2.716416e+01
   8.420544e+00  -1.553969e+01
   6.620644e+00   6.653926e+00
  -7.698177e+01  -9.806835e+00
  -7.069331e+01  -2.307971e+01
  -7.437397e+00  -1.012065e+02
   8.796417e+01  -8.940976e+01
   1.691515e+02  -3.394834e+01
   1.132815e+02   9.913616e+01
   3.937231e+01   1.654440e+02
  -9.386695e+01   1.143069e+02
  -1.039310e+02   4.313082e+01
  -6.970420e+01  -1.064625e+01
  -2.411669e+01  -6.353168e+01
   2.882833e+01   2.727877e+01
  -1.540940e+01   3.512627e+01
  -2.982475e+01  -3.846655e+01
  -3.948700e+01  -9.403974e+01
   5.902664e+01  -8.317419e+01
   1.029408e+02   4.370285e+01
   3.012194e+01   1.214553e+02
  -3.036657e+01   1.193616e+02
  -1.007540e+02   6.989039e+01
  -7.450635e+01  -6.780176e+01
  -2.096368e+01  -7.673710e+01
   6.626884e+01  -4.440677e+01
   1.285939e+02   2.358353e+01
   4.046187e+01   4.904152e+01
  -6.675250e+01   6.814349e+01
  -3.659817e+01   1.654550e+01
   1.209021e+01  -5.237029e+01
   8.076953e+01  -3.631174e+01
   3.564060e+01   7.126843e+01
  -5.012000e+01   5.391869e+01
  -1.048211e+02   3.776614e+01
  -4.349851e+01  -6.993551e-01
   1.868463e+01  -3.921037e+01
   3.187836e+01  -7.557046e+01
   4.475047e+01  -4.806796e+01
  -1.009209e+01   8.313551e+01
  -4.939669e+01   7.544817e+01
  -6.477346e+00  -3.712120e+01
  -3.450440e+01  -4.886523e+01
   3.830088e+01  -5.960587e+01
   4.993092e+01  -2.640369e+01
   4.911682e+01   2.525231e+01
  -1.872883e+01  -2.184633e+01
  -1.052641e+01  -3.247155e+01
  -6.210772e+01  -1.477927e+01
  -2.227110e+01   4.014422e+01
  -1.104920e+01   7.517125e+01
  -1.289870e+01   3.102415e+01
  -1.214308e+01  -5.230565e+01
  -9.855724e-02  -6.101325e+01
   7.082206e+01  -2.912643e+01
   7.339236e+01   4.588123e+01
   2.431625e+01   4.358020e+01
  -7.048898e+00   3.290596e+00
  -9.514295e+01   2.529162e-01
  -4.582828e+01  -2.656236e+01
  -6.920791e+00  -5.490704e+01
   5.790428e+01  -1.557434e+01
   6.344571e+01   3.948378e+00
  -1.653323e+01   7.042600e+00
  -3.739854e+01  -8.583002e+00
   9.083265e+00  -3.586273e+01
   9.702474e+01   1.866879e+01
