
 $NMID
 id='ANONYMOUS ', fmtdat='(2E16.6)'
 volume=1.0
 tramp=1.0
 $END
   4.165988e+03   1.896221e+01
   2.399346e+03   2.262020e+03
  -5.839655e+02   2.622809e+03
  -1.915871e+03   8.499861e+02
  -9.575024e+02  -4.489230e+02
   6.135989e+02  -6.254247e+02
   8.621636e+02   3.140898e+02
  -1.131135e+02   8.458888e+02
  -9.481258e+02   7.337692e+02
  -1.008472e+03  -1.322987e+02
  -3.765079e+02  -8.018041e+02
   2.407965e+02  -9.054682e+02
   4.493084e+02  -5.289083e+01
   2.511354e+02   6.696684e+02
  -2.009160e+02   5.669998e+02
  -4.966660e+02  -1.355197e+02
  -2.678099e+02  -4.829741e+02
   2.970591e+02  -7.976245e+02
   4.887516e+02  -1.241737e+02
   3.776386e+02   3.782939e+02
  -4.820700e+01   5.038464e+02
  -2.665580e+02   2.198071e+02
  -1.521628e+02  -2.018757e+01
   1.744440e+02  -1.294270e+02
   5.049585e+02  -7.468753e+01
   2.163712e+02   4.904846e+02
  -3.504805e+02   3.507231e+02
  -8.151673e+02  -2.578561e+02
  -4.252102e+02  -5.985373e+02
   4.716537e+02  -2.723597e+02
   7.966075e+02   4.159796e+01
   3.386182e+02   5.516034e+02
  -2.976752e+02   4.812243e+02
  -6.269191e+02   1.978621e+02
  -4.615531e+02  -3.694309e+02
  -1.420194e+02  -4.570083e+02
   1.983262e+02  -1.811381e+02
   2.691162e+02   2.275737e+02
  -1.120000e+02   3.433929e+02
  -3.723323e+02   3.417886e+01
  -1.642080e+02  -6.034695e+02
   4.252266e+02  -6.699807e+02
   6.328495e+02  -2.338053e+01
   2.379948e+02   4.755562e+02
  -2.910745e+02   3.494540e+02
  -4.096623e+02  -2.082005e+02
   8.549527e+01  -4.426842e+02
   5.993174e+02  -1.915963e+02
   6.295264e+02   3.475289e+02
   1.916828e+02   5.872350e+02
  -3.921624e+02   3.983512e+02
  -6.062759e+02  -5.349454e+01
  -4.128522e+02  -3.584299e+02
   6.829467e+01  -3.338372e+02
   3.676102e+02  -3.605604e+01
   2.687643e+02   1.322851e+02
  -5.457888e+01   8.133639e+01
  -1.367235e+02  -1.370040e+02
   8.037424e+01  -1.628826e+02
   2.518371e+02   5.878937e+01
   1.014800e+02   2.641464e+02
  -1.852446e+02   2.281559e+02
  -3.518113e+02   4.031991e+01
  -1.827004e+02  -1.326508e+02
   6.559098e+01  -2.713931e+02
   2.692903e+02  -3.289429e+02
   3.216398e+02  -1.424162e+02
   2.733742e+02   1.674960e+02
   7.638413e+01   4.638413e+02
  -1.320438e+02   3.857563e+02
  -1.579159e+02   1.561755e+02
  -8.591905e+01  -3.866812e+01
  -7.553876e+01   4.866472e+01
  -2.258788e+02   7.444865e+01
  -3.013874e+02  -6.259922e+01
  -1.316462e+02  -2.697186e+02
   1.249844e+02  -2.375303e+02
   2.785083e+02   2.224110e+01
   1.977270e+02   2.802757e+02
  -5.485012e+01   2.797910e+02
  -3.065379e+02   1.093252e+02
  -3.260337e+02  -2.246173e+02
  -1.268021e+02  -3.529790e+02
   1.326939e+02  -3.032772e+02
   2.362717e+02  -9.587269e+01
   1.556954e+02  -1.636594e+01
   1.055504e+02  -8.894727e+00
   2.304010e+02  -6.421120e+01
   3.955497e+02   5.112096e+01
   2.924171e+02   3.236658e+02
  -3.693260e+01   4.701712e+02
  -4.126447e+02   4.319922e+02
  -4.504350e+02   1.674435e+02
  -3.074491e+02  -1.321093e+02
  -2.678756e+01  -3.045187e+02
   1.094442e+02  -2.188497e+02
   4.681830e+01  -3.668594e+01
  -1.359891e+02   9.081696e+01
  -1.535346e+02  -8.028227e+00
  -3.629429e+01  -1.966967e+02
   1.513275e+02  -1.734273e+02
   1.423379e+02   6.681883e+01
   5.685358e+00   1.451486e+02
  -1.555233e+02  -1.269172e+01
  -1.436039e+02  -2.743585e+02
   5.768564e+00  -3.797678e+02
   2.408104e+02  -2.006158e+02
   3.638803e+02   1.273509e+02
   3.268502e+02   2.618115e+02
   1.035387e+02   2.987301e+02
  -1.692393e+02   1.638208e+02
  -2.136861e+02   2.954991e+01
  -6.746576e+01  -2.836085e+01
   5.286924e+01   5.081084e+01
  -2.578516e+01   5.491923e+01
  -8.548551e+01   8.981787e+01
  -1.202914e+02  -6.161040e+01
  -6.156431e+00  -7.708932e+01
   1.046240e+02  -3.057982e+01
   5.418508e+01   8.098572e+01
  -1.319123e+02   9.842921e+01
  -2.538331e+02   3.647539e+01
  -2.493573e+02  -1.019415e+02
  -4.555461e+01  -2.478731e+02
   1.799193e+02  -2.606537e+02
   2.904977e+02  -1.196543e+02
   1.145729e+02   3.014597e+01
  -3.266944e+01   6.522338e+01
  -1.042540e+02  -1.999908e+01
   8.191283e+00  -8.140983e+01
   1.693437e+02  -2.406408e+01
   2.017426e+02   1.322441e+02
   8.836486e+01   2.217881e+02
  -5.746071e+01   1.595666e+02
  -1.466166e+02   3.446955e+01
  -1.256710e+02  -4.894603e+01
  -2.413431e+01   2.143092e+01
   5.276776e+01   7.503964e+01
  -4.951508e+01   1.359465e+02
  -1.751093e+02   1.663713e+00
  -2.113697e+02  -1.836280e+02
  -2.587071e+01  -2.326215e+02
   1.269203e+02  -1.828557e+02
   1.984170e+02   3.437798e+00
   6.218767e+01   1.827640e+02
  -5.886629e+01   1.279538e+02
  -3.440445e+01   4.524286e+01
  -4.529438e+00  -2.775068e+01
  -7.903430e-01  -3.453496e+01
  -1.364245e+01  -9.534388e+00
  -7.526050e+01  -1.023076e+00
  -1.286635e+02  -6.061221e+01
  -3.847577e+01  -1.558665e+02
   1.092745e+02  -1.475096e+02
   2.336273e+02  -5.462504e+01
   2.334125e+02   1.664146e+02
   5.435810e+01   2.681205e+02
  -1.404007e+02   1.919456e+02
  -1.491888e+02   3.879203e+01
  -5.184047e+01  -3.850249e+01
  -2.030433e+01  -3.749559e+01
  -5.209312e+01  -1.142688e+01
  -8.259361e+01   3.066063e+01
  -5.391573e+01  -6.863272e+01
   3.973463e+01  -5.373755e+01
   1.061612e+02  -2.291571e+01
   8.055807e+01  -6.422524e+00
  -7.089212e+00   8.955218e+01
  -1.297514e+02   8.385480e+01
  -2.129369e+02  -2.144686e+01
  -7.651160e+01  -1.818549e+02
   1.002750e+02  -2.537774e+02
   2.680569e+02  -6.176699e+01
   2.242665e+02   9.788910e+01
   8.230722e+01   1.537491e+02
  -3.330818e+01   8.984016e+01
  -9.503677e+01   5.715681e+01
  -7.310924e+01   6.664563e+01
  -8.233548e+01   1.452701e+02
  -9.709362e+01   6.635766e+01
  -1.109064e+02  -2.454468e+01
  -8.947362e+01  -1.413428e+02
   9.887629e+00  -2.373056e+02
   1.108684e+02  -1.829867e+02
   1.777321e+02  -3.492100e+01
   1.164131e+02   1.368184e+02
   3.166700e+01   1.410151e+02
  -2.790172e+01   1.199669e+02
  -2.213936e+01  -1.782420e+00
   8.625437e+00  -5.899868e+01
  -3.357550e+01   1.068920e+01
  -3.957245e+01  -1.663590e+01
  -1.050557e+02  -6.492155e+01
  -3.365692e+01  -1.190146e+01
   3.813761e+01  -4.570850e+01
   1.530516e+02  -3.660645e+01
   1.710092e+02   3.498648e+01
  -2.429369e+01   7.305600e+01
  -9.983827e+01   6.825525e+01
  -1.118807e+02  -2.562136e+01
  -2.952987e+01  -4.374665e+01
   5.444276e+01  -2.617041e+01
   4.778499e+01   4.209527e+01
  -3.846043e+01   5.959186e+01
  -5.207799e+01   5.828261e+01
  -4.670534e+01  -2.839401e+01
  -6.960867e+01  -6.542099e+01
  -4.619789e+01  -5.969845e+01
  -2.591537e+01  -1.345986e+01
  -8.922442e+00   4.126376e+00
  -1.885183e+01  -2.931228e+01
  -1.921173e+00  -1.040357e+02
   1.371440e+02  -1.403388e+02
   1.756527e+02  -4.969546e+01
   1.402264e+02   9.459954e+01
  -4.660550e+01   1.280587e+02
  -8.996436e+01   9.609836e+01
  -6.871306e+01  -3.017851e+01
  -1.302613e+01  -2.597979e+01
   1.263860e+02   6.555208e+01
   6.139314e+01   6.257990e+01
  -5.264737e+01   9.946358e+01
  -1.384288e+02   4.201045e+01
  -1.268982e+02  -3.948021e+01
  -3.485380e+01  -1.006465e+02
   5.548750e+01  -7.434554e+01
   4.680645e+01   2.966094e+01
  -2.634438e+01   7.741749e+01
  -8.774321e+01   1.330294e+01
  -6.304458e+01  -1.035747e+02
   1.174923e+02  -2.150654e+02
   1.333147e+02  -9.201068e+01
   1.634109e+02   9.851835e+01
   1.433703e+01   2.153278e+02
  -9.757100e+01   1.231593e+02
  -8.586577e+01  -3.356207e+01
  -3.650018e+01  -1.180643e+02
   3.200735e+01  -1.361059e+02
   7.727987e+01  -6.488128e+01
   5.370607e+01   3.428072e+01
   1.079792e+01   3.071843e+01
  -4.430522e+01  -2.283762e+00
   4.550557e+01   5.658086e+01
   4.153340e+01   6.146388e+01
   3.338070e+01   1.232178e+02
  -7.326500e+00   4.668635e+01
  -1.609929e+02  -4.539296e+01
  -1.237113e+02  -7.629705e+01
  -4.666355e+00  -8.252930e+01
   6.868578e+01  -1.234927e+01
   5.324857e+01  -3.428175e+01
  -9.871218e+00   4.831084e+01
  -2.796238e+01   4.587153e+01
   1.506829e+01   1.847731e+01
  -5.221717e+00  -8.586614e+00
  -3.067641e+01   3.938947e+00
  -1.012174e+02   1.367492e+01
  -1.035265e+02   1.776450e+01
   4.196759e+01  -1.328624e+02
   1.134526e+02  -1.387546e+02
   1.600216e+02  -6.474601e+01
   1.423013e+02   7.702071e+01
   1.686841e+01   1.522643e+02
  -6.502784e+01   9.362819e+01
  -1.344412e+02   5.252784e+01
  -8.654405e+01   2.992342e+01
  -1.086917e+01  -4.069088e+01
  -7.739273e-01   2.444822e+00
  -1.003418e+01  -8.077585e+00
  -4.870777e+01  -3.866756e+01
  -3.682262e+01  -7.126772e+01
   3.691830e+01  -7.377771e+01
   6.367856e+01   3.922707e+01
   7.285477e+01   1.332156e+02
  -6.099750e+00   1.176906e+02
  -6.940595e+01   1.394218e+01
  -1.088119e+02  -8.493860e+01
  -6.601746e+01  -6.140011e+01
   5.082222e+01  -7.211477e+01
   6.515816e+01   1.784395e+01
   2.098717e+01   4.641772e+01
  -2.552423e+01   1.391032e+01
  -1.872684e+01   3.831989e+01
   1.644215e+01   7.755525e+00
   4.749254e+01  -2.239616e+01
   1.644248e+01   5.029966e+01
  -1.094240e+02   7.798900e+01
  -1.044538e+02   6.822241e+01
  -4.859973e+01  -2.854204e+01
   5.045906e+01  -9.181421e+01
   5.408594e+01  -6.350228e+01
   5.630957e+01   5.139507e+01
  -2.532765e+01   5.201992e+01
  -8.061019e+01   2.853917e+01
  -2.907251e+01  -4.014827e+00
  -6.131192e+01  -3.525840e+01
   4.571052e+01  -4.284632e+01
   1.573561e+01   3.572150e+00
   3.006843e+00   2.999585e+01
   3.027174e+01  -3.181594e+00
  -9.505135e+00   1.282191e+01
  -7.424979e+00  -6.259032e+01
  -3.186778e+01  -8.280581e+00
  -2.324214e+00   4.742077e+01
  -5.347526e+01  -2.539614e+01
   1.186171e+01  -4.600929e+01
  -1.148208e+00  -1.992713e+01
   4.763633e+01   6.888201e+00
   5.320956e+01   9.306779e+01
  -1.788442e+01   6.339073e+01
  -2.316379e+01  -1.446350e+01
  -1.022778e+02  -1.609637e+00
  -4.406954e+01  -4.719161e+01
   2.982817e+01  -6.991042e+01
   5.736808e+01   6.609715e-01
   3.356828e+01  -2.838294e+01
  -4.053177e+01  -2.877895e+00
  -3.788306e+01   1.008073e+00
   5.046909e+01  -1.989041e+01
   1.196326e+02   2.017364e+00
