
 $NMID
 id='ANONYMOUS ', fmtdat='(2E16.6)'
 volume=1.0
 tramp=1.0
 $END
   3.057359e+03   5.181403e+01
   1.805938e+03   1.479511e+03
  -1.913734e+02   2.025241e+03
  -1.292699e+03   1.087498e+03
  -9.490119e+02   2.292826e+02
   1.595485e+01  -1.203937e+02
   2.718909e+02   2.612486e+02
  -1.773824e+02   4.870688e+02
  -5.031812e+02   5.289742e+02
  -6.450347e+02  -1.486943e+01
  -5.158813e+02  -5.133155e+02
   6.212169e+01  -5.294217e+02
   2.381518e+02  -3.462556e+01
   2.170740e+02   3.211261e+02
  -2.236131e+02   6.130952e+02
  -3.287054e+02   9.398020e+01
  -3.654931e+02  -3.775829e+02
   2.879189e+02  -6.412721e+02
   4.696285e+02  -2.891476e+02
   4.886012e+02   2.146202e+02
  -1.034266e+01   3.481713e+02
  -5.561655e+01   1.257693e+02
   3.751997e+01  -1.252208e+02
   9.797032e+01   2.121488e+02
   4.922988e+01   2.947457e+02
  -1.707531e+01   3.919911e+02
  -3.625163e+02   7.606584e+01
  -5.339955e+02  -2.434185e+01
  -1.952771e+02  -3.915604e+02
   1.653465e+02  -1.810079e+02
   4.931361e+02   7.462066e+01
   2.158154e+02   2.435614e+02
  -2.330985e+02   3.495164e+02
  -3.487975e+02   1.576239e+02
  -3.063891e+02  -1.431969e+02
  -3.536681e+01  -2.230769e+02
   6.149232e+01  -2.812534e+02
   5.537218e+01   6.020847e+01
  -8.905662e+01   1.193091e+02
  -1.843692e+02  -1.007660e+02
  -4.081440e+01  -3.974539e+02
   2.185154e+02  -2.335380e+02
   2.636187e+02   6.179643e+01
   5.493180e+01   2.545342e+02
  -6.212853e+01   7.293157e+01
  -1.072998e+02  -2.005633e+02
   1.339890e+02  -2.867642e+02
   3.399350e+02  -8.696307e+01
   3.903330e+02   2.846097e+02
   1.284148e+02   4.056525e+02
  -2.284773e+02   2.753734e+02
  -3.785331e+02   1.027849e+01
  -2.654017e+02  -1.876309e+02
   2.172321e+01  -2.179712e+02
   2.134962e+02  -1.191707e+02
   1.641491e+02   2.058785e+01
  -2.396498e+01   7.301096e+01
  -7.859468e+01  -2.864618e+01
   1.107822e+02  -6.008901e+01
   2.326831e+02   2.675606e+01
   7.792359e+01   1.486751e+02
  -1.807244e+02   2.262924e+02
  -2.994734e+02   1.141504e+02
  -2.398394e+02  -7.797831e+01
   8.909776e-01  -2.618301e+02
   2.197173e+02  -3.214570e+02
   3.014938e+02  -1.606526e+02
   2.736385e+02   1.046767e+02
   6.301988e+01   3.172214e+02
  -3.873981e+01   2.777420e+02
  -5.886563e+01   1.808858e+02
  -3.212037e+01   1.318114e+02
  -8.699092e+01   1.013910e+02
  -1.855680e+02   2.438170e+01
  -1.464979e+02  -1.169659e+02
  -1.028715e+02  -1.939737e+02
   4.848943e+01  -1.576428e+02
   1.180258e+02   5.122446e+01
   8.341629e+01   1.965166e+02
  -7.765564e+00   1.828065e+02
  -1.742227e+02   3.184949e+01
  -2.320963e+02  -1.620647e+02
  -1.381663e+02  -2.603508e+02
   2.115881e+01  -2.342874e+02
   1.409393e+02  -1.243359e+02
   1.467674e+02  -1.040890e+02
   1.978724e+02  -6.712151e+01
   3.113836e+02   3.877520e+01
   3.703699e+02   1.423600e+02
   2.024966e+02   2.903931e+02
  -8.607041e+01   3.612762e+02
  -3.354723e+02   3.210428e+02
  -3.734684e+02   9.694598e+01
  -2.237131e+02  -4.017024e+01
   1.614882e+01  -2.205142e+02
   7.819474e+01  -1.887426e+02
   4.507316e+01  -1.047617e+01
  -5.934949e+01   2.407702e+01
  -1.301399e+02  -1.384909e+01
  -8.019280e+00  -1.010758e+02
   7.285305e+01  -6.131347e+01
   7.511930e+01   4.703460e+01
  -1.642552e+01   5.592392e+01
  -1.412440e+02  -6.124076e+01
  -1.277984e+02  -1.827888e+02
   2.718515e+01  -3.055355e+02
   1.800252e+02  -2.205552e+02
   3.008053e+02   1.056695e+01
   2.258094e+02   1.911971e+02
   4.894368e+01   1.964567e+02
  -1.285176e+02   1.191310e+02
  -1.269632e+02   8.868848e+00
  -1.545431e+01  -1.557882e+01
   1.778042e+01   4.912062e+01
  -1.174588e+01   7.784304e+01
  -1.080233e+02   7.266076e+01
  -1.337983e+02   4.829959e+01
   2.058768e+00  -2.921770e+01
   9.244349e+01  -7.062820e-01
   1.477817e+01   6.245858e+01
  -1.585435e+02   4.243546e+01
  -2.737889e+02  -2.076607e+01
  -2.225444e+02  -1.323172e+02
  -2.696475e+01  -2.593081e+02
   1.884633e+02  -2.385664e+02
   1.777810e+02  -1.320140e+02
   1.129716e+02   2.492202e+01
   3.044620e+01   4.596295e+01
  -3.172089e+01   1.780817e+01
   5.918108e+01  -5.026599e+01
   1.147533e+02  -3.015390e+01
   1.432084e+02   6.781829e+01
   5.382674e+01   1.822247e+02
  -4.408466e+01   1.249637e+02
  -7.871053e+01   3.547173e+01
  -6.334716e+01  -1.070036e+01
  -2.491393e-01   1.718861e+01
   2.314030e+01   5.694813e+01
  -5.743801e+01   5.407620e+01
  -1.774368e+02  -1.063732e+00
  -1.927499e+02  -1.354284e+02
   2.751359e+01  -2.037296e+02
   9.908182e+01  -1.194808e+02
   1.512245e+02  -1.550016e+00
   6.556439e+01   8.448349e+01
  -3.049553e+01   5.359144e+01
  -8.868951e+01   7.317682e+01
   7.685584e+00  -1.563842e+01
   2.126203e+01   2.800365e+01
  -2.282712e+01   4.045648e+01
  -5.904718e+01   2.750180e+00
  -7.663401e+01  -5.874164e+01
   7.917294e+00  -1.643113e+02
   1.305804e+02  -7.815873e+01
   2.278201e+02   8.515783e+00
   2.025098e+02   1.912182e+02
  -1.210007e+01   2.182165e+02
  -1.012334e+02   1.762854e+02
  -1.003332e+02   6.220628e+01
  -4.089494e+01  -5.661697e+01
   7.067701e+00  -4.134553e+01
  -5.931075e+01  -3.737908e+01
  -6.262125e+01   4.150996e+01
  -7.087748e+01  -2.506486e+01
   2.305882e+01  -1.091446e+02
   9.479106e+01  -4.834335e+01
   6.039313e+01   2.485376e+01
   1.719419e+01   6.587183e+01
  -1.433220e+02   4.848838e+01
  -1.589024e+02  -3.812730e+01
  -7.164670e+01  -1.652762e+02
   8.812544e+01  -1.874229e+02
   1.811690e+02  -9.970068e+01
   2.459757e+02   1.100035e+02
   8.639903e+01   1.219083e+02
  -1.712128e+00   1.162546e+02
  -6.705334e+01   1.313759e+02
  -6.189362e+01   5.841454e+01
  -8.328323e+01   8.764203e+01
  -1.179331e+02   8.976538e+01
  -9.042144e+01   9.900743e+00
  -1.038791e+02  -1.199761e+02
  -6.364675e+01  -1.591716e+02
   6.874994e+01  -1.102187e+02
   1.906083e+02  -4.652593e+00
   8.398239e+01   8.183654e+01
   4.189575e+00   1.177182e+02
  -8.115546e+01   7.292903e+01
  -6.392300e+01  -2.769617e+01
   3.270652e+01  -2.590465e+01
  -3.777489e+00  -4.281917e+01
   2.442331e+01  -9.305545e+00
  -5.858617e+01  -3.805883e+01
  -4.447748e+01   2.050748e+01
   8.196578e+01  -1.160577e+01
   1.308297e+02   1.177500e+01
   9.567392e+01   7.685770e+01
   1.024280e+01   7.643201e+01
  -9.136423e+01   6.549042e+01
  -1.086023e+02  -1.957236e+01
  -2.188943e+01  -4.612754e+01
   1.939004e+01  -2.121309e+01
   8.965442e+01   2.369464e+01
  -2.482852e-01   6.562064e+01
  -5.343322e+01   4.510363e+01
  -8.122390e+01   2.890139e+01
  -8.838799e+01  -8.174284e+01
  -2.738675e+01  -6.446390e+01
  -1.139539e+02  -9.494052e+00
  -7.893494e+01  -1.541833e+00
  -8.495967e+01  -1.804607e+01
   3.988423e+01  -1.163096e+02
   1.419926e+02  -8.442109e+01
   1.225961e+02  -2.533219e+01
   9.185181e+01   7.971371e+01
   1.686725e+01   9.505225e+01
  -4.295591e+01   2.744219e+01
  -7.267995e+01  -1.811648e+01
   1.626626e+01  -3.751414e+01
   9.814904e+01   4.453928e+01
   9.278583e+01   7.500840e+01
  -3.570334e+01   7.645986e+01
  -1.466236e+02   7.120093e+01
  -1.110830e+02  -3.198969e+01
  -1.223314e+01  -8.417973e+01
   3.940759e+01  -4.861398e+01
   3.340739e+01  -5.741358e+00
  -5.773747e+00   3.707716e+01
  -5.944150e+01  -1.876337e+01
  -3.664623e+01  -1.078802e+02
   9.275074e+01  -1.344430e+02
   9.904771e+01  -9.934455e+01
   6.367267e+01   5.810555e+01
  -1.301115e+01   1.568964e+02
  -6.145839e+01   5.525071e+01
  -9.050606e+01  -3.788316e+01
  -3.968218e+01  -8.410090e+01
   2.698540e+01  -1.130373e+02
   3.619177e+01  -4.208023e+01
   6.805595e+01   5.984431e+01
   1.747659e+01   2.549300e+01
   2.083933e+01  -3.878733e+01
  -1.355413e+01   2.920737e+01
   3.972630e+01   8.480395e+01
   3.165323e+01   1.255640e+02
  -7.345190e+01   1.480221e+01
  -9.661666e+01  -2.655362e+01
  -1.136698e+02  -6.906244e+01
  -3.793897e+01  -4.754278e+01
   5.600920e+01  -5.545941e+01
   7.523308e+01   4.784947e-01
   2.898609e+01   3.432126e+01
  -1.528147e+01   3.076437e+01
  -5.047640e+01   4.005425e+01
   2.752221e+01  -1.386057e+01
   6.404355e+00  -3.675929e+01
  -5.929733e+01  -3.566379e+01
  -4.805235e+01  -5.963667e+01
  -2.080956e+01  -4.807195e+01
   1.397600e+02  -9.275111e+01
   1.412442e+02  -7.596986e+01
   1.215558e+02   5.564359e+01
   1.177676e+01   1.874508e+02
  -1.044162e+02   1.164448e+02
  -1.035465e+02   5.230708e+01
  -8.643046e+01  -1.956953e+01
  -3.150110e+01  -1.259117e+01
   3.008763e+01  -1.131697e+01
   2.507984e+01  -2.123942e+01
   1.391781e+01  -8.036485e+01
   8.647596e+00  -6.238228e+01
   1.999932e+01  -2.069219e+01
   4.930289e+01   4.015241e+01
   9.841762e+01   5.775501e+01
  -1.598942e+01   1.002237e+02
  -4.302362e+01   1.518085e+01
  -5.322532e+01  -3.939859e+01
  -3.332151e+01  -1.013899e+02
   9.589816e+01  -6.410097e+01
   1.265399e+02  -3.654962e+01
   7.387352e+01   5.866157e+01
  -5.205858e+01   5.291703e+01
  -3.293790e+01   4.656732e+01
   3.299846e+01  -2.834292e+00
   9.960426e+01   1.880538e+01
   1.835490e+01   4.162586e+00
  -9.244293e+01   4.791494e+01
  -8.539460e+01   6.984797e+01
  -6.936230e+01  -1.911933e+01
  -3.076910e+01  -1.221382e+02
   9.256376e+01  -7.781833e+01
   2.101758e+01   2.389275e+01
  -3.770685e+00   7.278646e+01
   3.289583e+01   4.394103e+01
  -9.656567e-01  -4.737726e+00
  -7.171373e+01  -7.123963e+01
   3.810791e+01  -3.667703e+01
   1.805278e+01   2.005232e+00
   4.283206e+01  -1.535752e+01
   3.516921e+01   1.450355e+01
  -3.173534e+01   1.206957e+01
  -1.176324e+01   3.467900e+01
   9.546419e-02   3.175531e+01
   1.610879e+01  -1.099041e+01
  -5.722236e+01  -1.605342e+01
  -3.043838e+01  -2.776463e+01
  -8.191625e+00   5.254006e+00
   2.522625e+01  -1.232211e+01
   4.587521e+01   1.489969e+01
   6.922899e+00   2.103433e+01
  -8.325994e+01   3.342816e+01
  -4.456778e+01  -6.260729e+00
  -4.136958e+01  -5.685047e+01
  -8.006755e+00  -2.793972e+01
   3.627469e+01  -4.589481e+01
  -5.696242e+01   1.269609e+01
  -5.438969e+01   3.412871e+01
  -9.537170e+00  -1.418182e+01
   4.385470e+01  -3.898335e+01
   8.481777e+01  -7.915652e+00
