
 $NMID
 id='ANONYMOUS ', fmtdat='(2E16.6)'
 volume=1.0
 tramp=1.0
 $END
  -4.067459e+03  -8.732844e+01
  -2.519019e+03  -2.432767e+03
   6.709511e+02  -2.880900e+03
   1.883918e+03  -1.365922e+03
   1.006318e+03   2.372837e+02
  -5.032637e+02   5.048060e+02
  -6.680552e+02  -1.732439e+02
   4.311500e+01  -7.391745e+02
   6.508710e+02  -8.221739e+02
   9.782866e+02   7.871297e+00
   3.702078e+02   7.316779e+02
  -1.049762e+02   8.771156e+02
  -5.743613e+02   1.725271e+02
  -3.959712e+02  -5.136165e+02
   2.497006e+02  -9.357176e+02
   7.688342e+02  -7.121994e+00
   4.611694e+02   5.935869e+02
  -3.041985e+02   6.894951e+02
  -6.393753e+02   2.566329e+02
  -5.731152e+02  -3.775707e+02
  -2.392162e+02  -4.732315e+02
   8.528945e+01  -4.324896e+02
   1.658925e+02  -1.194365e+02
  -8.671720e+01   8.872184e+01
  -2.595971e+02  -2.734374e+02
  -2.062783e+02  -4.006352e+02
   5.238226e+02  -2.314537e+02
   7.682634e+02   9.746107e+01
   3.891923e+02   6.099623e+02
  -4.279993e+02   3.725128e+02
  -6.639105e+02  -1.800423e+02
  -4.723096e+02  -5.072579e+02
   2.112164e+02  -4.742304e+02
   6.871296e+02  -5.524815e+01
   4.607230e+02   2.573893e+02
   6.812760e+01   4.223309e+02
  -2.620721e+02   3.333666e+02
  -1.492581e+02  -2.070587e+02
   1.441311e+02  -3.456745e+02
   4.692879e+02   1.882315e+02
   1.789119e+02   7.509851e+02
  -4.031955e+02   8.078361e+02
  -7.031316e+02   1.457372e+01
  -3.455464e+02  -5.680926e+02
   2.326542e+02  -3.233346e+02
   4.452941e+02   3.077213e+02
  -2.795392e+01   6.027324e+02
  -6.015688e+02   2.181694e+02
  -6.868401e+02  -3.897736e+02
  -2.193491e+02  -5.872801e+02
   3.694121e+02  -3.419349e+02
   6.871476e+02   1.053246e+02
   3.720666e+02   3.958352e+02
  -2.313973e+02   3.651989e+02
  -4.499080e+02   1.313241e+02
  -2.587524e+02  -1.562918e+02
   9.790401e+01  -1.270941e+02
   1.063247e+02   9.028511e+01
  -1.433327e+02   1.730928e+02
  -3.330009e+02  -1.051769e+02
  -1.068481e+02  -2.735676e+02
   2.252581e+02  -2.805032e+02
   4.142697e+02  -8.276595e+01
   2.373037e+02   1.411707e+02
  -6.675957e+00   2.871660e+02
  -2.590286e+02   3.274385e+02
  -3.835776e+02   1.701338e+02
  -2.638692e+02  -1.201077e+02
  -3.447520e+01  -3.903853e+02
   1.060901e+02  -3.819599e+02
   3.294781e+01  -1.440644e+02
  -7.089408e+00  -5.252639e+01
   8.373079e+00  -9.727413e+01
   2.192511e+02  -1.624512e+02
   3.139692e+02   4.921490e+01
   1.546928e+02   2.519527e+02
  -1.268064e+02   2.531482e+02
  -2.665870e+02  -2.053523e+01
  -1.614671e+02  -2.753390e+02
   6.174383e+01  -3.156292e+02
   2.901368e+02  -5.690804e+01
   3.037292e+02   1.653625e+02
   1.664388e+02   3.508752e+02
  -9.945827e+01   2.890330e+02
  -1.959092e+02   1.294709e+02
  -1.593555e+02   5.958470e+00
  -1.345525e+02   6.648178e+01
  -2.438200e+02   8.573096e+01
  -3.938049e+02  -4.264756e+01
  -3.491144e+02  -2.643468e+02
  -2.776453e+01  -4.494612e+02
   3.505576e+02  -4.437861e+02
   5.047265e+02  -2.212511e+02
   3.435980e+02   1.142467e+02
   3.338664e+01   3.104754e+02
  -1.360981e+02   2.200717e+02
  -4.709223e+01   6.008377e+00
   1.689369e+02  -8.431654e+01
   1.825602e+02   1.052985e+02
   4.979658e+01   1.968887e+02
  -1.287969e+02   1.535768e+02
  -1.526003e+02  -7.856228e+01
   1.965054e+00  -1.286367e+02
   2.105768e+02  -3.743041e+01
   1.781495e+02   2.581236e+02
  -3.991805e+00   3.524047e+02
  -2.098340e+02   2.517051e+02
  -3.697707e+02  -4.957493e+01
  -2.483690e+02  -2.680485e+02
  -8.435678e+01  -3.134319e+02
   1.195524e+02  -1.248146e+02
   1.699290e+02   3.600124e+01
   3.818168e+01   8.571684e+01
  -1.032702e+02  -3.576563e+01
  -1.712243e+01  -1.457064e+02
   1.333581e+02  -8.976954e+01
   1.400603e+02   3.469239e+01
   2.580515e+01   7.490148e+01
  -7.470104e+01   2.833634e+01
  -3.068791e+01  -5.792807e+01
   1.324626e+02  -7.006993e+01
   2.463072e+02  -3.010653e+01
   2.535629e+02   1.678717e+02
   5.421750e+01   2.329865e+02
  -1.611765e+02   2.691821e+02
  -2.577537e+02   1.253657e+02
  -1.490933e+02  -4.269346e+01
   2.443064e+01  -8.841715e+01
   6.198186e+01   7.669895e-01
   2.761066e+00   9.253956e+01
  -1.715901e+02   7.656486e+01
  -2.283374e+02  -8.630537e+01
  -1.330376e+02  -2.174547e+02
   7.573190e+01  -1.743393e+02
   1.769451e+02  -3.130166e+01
   7.094347e+01   5.257122e+01
  -2.813477e+01   2.875768e+01
  -5.939877e+01  -6.158615e+01
   5.910113e+01  -1.076134e+02
   1.762108e+02  -1.271331e+01
   1.678563e+02   1.269009e+02
   3.849708e+01   2.341986e+02
  -1.362652e+02   1.962274e+02
  -1.782113e+02   3.910160e+01
  -8.660799e+01  -7.353185e+01
   2.021240e+01  -1.341669e+02
   5.994343e+01  -5.711480e+01
   5.166638e+01   3.195066e+00
  -3.789797e+00  -1.629326e+01
  -1.607381e+01   5.039725e+00
   9.999520e+01  -3.365223e+01
   1.153878e+02   4.119958e+01
   2.278508e+01   1.534045e+02
  -9.173117e+01   1.568365e+02
  -2.600897e+02  -3.024337e+01
  -1.986805e+02  -1.307275e+02
  -4.659223e+01  -2.086530e+02
   1.073951e+02  -1.466395e+02
   1.187133e+02  -2.231295e+01
   1.000078e+02   6.578967e+01
  -4.645546e+00   6.236681e+01
  -8.940744e+00   4.278362e+00
   9.001642e+01  -6.411522e+01
   5.667712e+01   4.855383e+01
  -1.575416e+01   1.175935e+02
  -9.655518e+01   1.031349e+02
  -1.017686e+02  -1.095413e+01
   2.502154e+01  -1.316046e+02
   1.498423e+02  -1.073488e+02
   2.066659e+02   3.565155e+01
   1.149032e+02   2.298892e+02
  -1.196413e+02   2.547495e+02
  -2.785989e+02   1.626480e+02
  -3.008387e+02  -7.751524e+01
  -9.313319e+01  -2.286848e+02
   1.948154e+01  -1.700567e+02
   1.130832e+02  -7.984463e+01
   5.353455e+01  -1.021279e+02
   3.850234e+01  -9.203646e+01
   9.711892e+01  -1.144043e+02
   1.692211e+02  -1.790662e+01
   1.202104e+02   1.938174e+02
   2.570929e+01   2.441810e+02
  -1.347434e+02   1.715520e+02
  -1.948982e+02   2.172111e+01
  -1.476162e+02  -1.239904e+02
  -3.553305e+01  -1.684540e+02
   9.196441e+01  -6.791362e+01
   1.041942e+02   2.169324e+01
   3.423541e+01   7.294804e+01
  -2.186168e+01   4.174122e+01
   1.506997e+01   5.193861e+01
   5.460625e+01   5.467005e+01
   4.361354e+01   5.257693e+01
  -7.664390e+01   4.263062e+01
  -1.683860e+02  -3.810251e+01
  -1.458087e+02  -8.592020e+01
  -4.543377e+01  -1.427985e+02
   1.307729e+02  -1.211330e+02
   1.290030e+02  -1.385022e+01
   5.371847e+01   5.682559e+01
  -2.924676e+01   2.616441e+01
  -5.056110e+01  -3.535246e+01
   2.168336e+01  -3.128601e+01
   2.061603e+01  -6.943937e+00
  -4.514493e+00   5.894327e+01
   1.940595e+01   3.459389e+01
   1.990990e-01  -2.378736e+01
   3.488457e+01   9.533247e+00
   4.860984e+01   4.859430e+00
   3.217304e+01   7.412761e+01
  -2.738448e+01   1.354145e+02
  -8.098916e+01   1.323465e+02
  -1.693086e+02   1.784095e+01
  -1.629641e+02  -8.558693e+01
  -4.435732e+00  -1.326604e+02
   8.120980e+01  -5.427990e+01
   5.122248e+01   1.536743e+01
  -3.955404e+01   4.279795e+01
  -1.079826e+02  -6.884104e+01
  -2.122083e+01  -1.227173e+02
   1.048662e+02  -1.433548e+02
   2.014409e+02  -7.293395e+01
   1.990236e+02   8.388789e+01
   2.801167e+01   9.355814e+01
  -5.624827e+01   8.013779e+01
  -3.056064e+01  -1.743320e+00
   3.895699e+01  -1.599881e+01
   7.758610e+01   5.425420e+01
   6.931114e+01   1.293934e+02
  -8.906456e+01   1.640485e+02
  -1.831192e+02   9.770715e+01
  -1.803251e+02  -6.869239e+01
  -3.794786e+01  -2.299245e+02
   7.475841e+01  -1.746191e+02
   1.847320e+02   4.760123e+00
   8.555145e+01   1.435455e+02
  -4.458579e+01   1.380740e+02
  -6.484221e+01   1.175137e+01
  -9.476644e+01  -5.566822e+01
  -4.878597e+00  -5.161556e+01
   4.013635e+01  -2.683418e+01
  -4.792573e+01  -6.069205e+01
  -7.635567e+01  -1.424678e+02
   1.253048e+01  -1.190945e+02
   1.050142e+02  -5.089411e+01
   1.259350e+02   5.044566e+01
   1.231610e+02   8.343226e+01
  -4.021006e+00   5.732031e+01
  -7.418056e+01   5.052389e+01
  -8.034287e+01   1.646550e+01
  -4.506731e+01  -3.087076e+01
   4.726745e+01   4.753724e+00
  -1.459589e+00  -3.759797e+01
  -1.385394e+01  -1.190033e+01
  -4.989935e+01  -7.152339e+01
   6.850297e+01  -3.334026e+01
   1.013710e+02   2.994849e+01
   7.316257e+00   7.077437e+01
  -5.885638e+01   1.109348e+02
  -1.295264e+02   6.580746e+01
  -1.789716e+02  -4.440193e+01
  -3.434627e+01  -1.540762e+02
   1.071231e+02  -1.793617e+02
   1.540436e+02  -6.151441e+01
   5.902744e+01   5.080448e+01
   5.072251e+01   1.716298e+01
  -2.102311e+01   1.271678e+01
   5.162284e+01  -1.167321e+01
   2.421195e+01   4.405308e+01
   2.372439e+01   9.523058e+01
  -4.527363e+01   7.915361e+01
  -8.159847e+01   1.739168e+01
  -1.001345e+02  -5.348650e+01
   7.553663e+00  -1.217697e+02
   7.642545e+01  -7.082087e+00
   8.842229e+01   9.245426e+01
   3.278732e+01   5.825357e+01
  -5.631761e+01   8.314572e+01
  -1.371048e+02  -8.235831e-01
  -4.759614e+01  -3.863529e+01
   1.973623e+01  -5.049657e+01
   3.540712e+01   1.467759e+01
  -2.874204e+01  -1.507841e+00
  -6.717269e+01  -3.606484e+01
  -6.729118e+01  -4.688422e+01
   6.601827e+01  -1.140651e+02
   1.031049e+02  -9.569678e+01
   7.134226e+01   3.193282e+01
  -1.538953e+01   7.267744e+01
  -4.727502e+01   1.048841e+02
  -4.568346e+01   1.188194e+01
   6.604088e+00  -1.088341e+02
   5.950758e+01  -2.592611e+01
   6.502792e-01  -1.569223e+00
   2.811402e+01   3.065045e+01
   5.975465e+01   7.376063e+01
  -6.016136e+00   2.982725e+01
  -2.906547e+01   7.501435e+00
  -7.211535e-01   2.404875e+01
  -2.238660e+01   1.477014e+01
  -1.956528e+01   1.712293e+01
   9.397563e+00  -1.168395e+01
  -3.728506e+01  -3.012373e+01
   4.514756e+01  -5.774051e+01
   6.390205e+01   8.039883e+01
  -2.594051e+00   5.527822e+01
  -8.105135e+01  -1.331006e+01
  -8.946993e+01  -6.770760e+01
  -6.925210e+00  -9.973635e+01
   5.634812e+01  -7.991190e+01
   1.143714e+02   2.997460e+01
   5.556684e+01   7.699469e+01
   1.043551e+01   9.523251e+00
  -4.755828e+01   1.149897e+01
  -2.877272e+01   9.294999e+00
   2.567195e+01  -4.883258e+01
   3.272352e+01  -2.714859e+01
  -1.841378e+01   3.982150e+01
  -3.529954e+01   4.462740e+00
