
 $NMID
 id='ANONYMOUS ', fmtdat='(2E16.6)'
 volume=1.0
 tramp=1.0
 $END
  -4.606419e+03  -1.408938e+02
  -2.778077e+03  -2.605668e+03
   5.750688e+02  -3.005489e+03
   2.199072e+03  -1.119737e+03
   1.214552e+03   5.211745e+02
  -6.470473e+02   7.189643e+02
  -9.122744e+02  -3.622820e+02
   4.098456e+01  -1.062716e+03
   8.837226e+02  -8.571120e+02
   1.112656e+03   5.524192e+01
   4.810593e+02   9.891603e+02
  -2.619375e+02   9.237866e+02
  -6.085223e+02   7.172068e+01
  -4.189723e+02  -6.754960e+02
   2.664167e+02  -8.502691e+02
   5.789223e+02   1.444383e+01
   1.883133e+02   7.307100e+02
  -3.136770e+02   3.871960e+02
  -7.959334e+02   1.953683e+02
  -2.803651e+02  -2.894671e+02
  -9.342060e+00  -4.961845e+02
   3.571456e+01  -1.705632e+02
   3.954833e+02  -3.794998e+01
  -9.356627e+01   3.793618e+01
  -3.863974e+02  -1.498135e+02
  -2.402316e+02  -5.287874e+02
   4.938842e+02  -4.497841e+02
   9.083589e+02   1.840948e+01
   4.469688e+02   5.868486e+02
  -3.223521e+02   3.711972e+02
  -7.026459e+02  -7.530514e+01
  -4.372818e+02  -4.495067e+02
   1.579310e+02  -5.827343e+02
   6.028595e+02  -2.321811e+02
   4.311133e+02   3.145422e+02
   9.411052e+01   4.479248e+02
  -1.586527e+02   3.567495e+02
  -1.763705e+02  -2.212657e+02
   1.657719e+02  -5.186673e+02
   5.706872e+02  -4.732377e+01
   3.639202e+02   7.696733e+02
  -2.284101e+02   8.113184e+02
  -7.576091e+02   5.003184e+01
  -3.148330e+02  -5.623278e+02
   3.530962e+02  -3.882901e+02
   4.316961e+02   2.985559e+02
   2.362870e+00   6.577756e+02
  -5.831471e+02   2.167854e+02
  -6.730833e+02  -4.016027e+02
  -2.047874e+02  -6.674913e+02
   3.931065e+02  -4.214280e+02
   6.928405e+02   6.662451e+01
   4.677122e+02   4.398954e+02
  -1.176719e+02   4.139612e+02
  -4.731516e+02   1.000103e+02
  -2.734728e+02  -1.589764e+02
   1.244948e+02  -1.055960e+02
   1.823024e+02   1.637233e+02
  -1.534501e+02   2.259445e+02
  -4.254343e+02  -7.887603e+01
  -2.033067e+02  -3.209848e+02
   1.932856e+02  -2.797334e+02
   3.610136e+02  -6.798872e+01
   1.912909e+02   7.881141e+01
   4.345692e+00   2.269458e+02
  -1.907648e+02   3.547819e+02
  -3.757505e+02   2.281728e+02
  -3.086362e+02  -1.492801e+02
  -5.925212e+01  -4.407862e+02
   1.094073e+02  -3.908130e+02
   1.431337e+02  -1.284416e+02
   1.839256e+01   4.549319e+01
   4.592798e+01  -7.348123e+01
   2.175645e+02  -2.031724e+02
   3.246335e+02   1.055211e+01
   1.776908e+02   3.326222e+02
  -1.102636e+02   3.223921e+02
  -2.557562e+02   5.882678e+01
  -1.970111e+02  -2.260816e+02
  -2.131219e+01  -3.080593e+02
   3.011953e+02  -1.722113e+02
   3.710939e+02   1.718228e+02
   1.958467e+02   3.867835e+02
  -1.278668e+02   3.049756e+02
  -2.773334e+02   1.227726e+02
  -1.884370e+02   3.159536e+00
  -9.954671e+01   2.410780e+01
  -2.062922e+02   8.031188e+01
  -4.319626e+02  -2.780274e+01
  -3.379261e+02  -2.850292e+02
  -3.315015e+01  -5.102108e+02
   3.573309e+02  -5.150125e+02
   5.826866e+02  -2.659896e+02
   3.714979e+02   1.080284e+02
   4.785260e+01   3.800848e+02
  -1.234305e+02   3.155243e+02
  -1.164242e+02   2.066202e+01
   1.094084e+02  -1.622616e+02
   2.553422e+02  -8.514584e+00
   1.274138e+02   2.630644e+02
  -2.187498e+02   2.921683e+02
  -2.320082e+02  -3.744943e+01
  -5.914993e+00  -2.229710e+02
   1.410823e+02  -7.919407e+01
   1.424011e+02   1.979562e+02
  -2.504380e+01   3.508572e+02
  -2.312217e+02   2.183774e+02
  -3.488350e+02  -1.141959e+02
  -2.862482e+02  -2.663775e+02
  -6.614290e+01  -2.777271e+02
   1.832095e+02  -1.466572e+02
   2.046487e+02   2.975178e+01
   3.472538e+01   3.209154e+01
  -1.327678e+02  -5.512945e+01
  -8.646533e+01  -1.132322e+02
   1.177426e+02  -9.020183e+01
   1.742815e+02  -3.375810e+01
   6.233735e+01   2.032317e+01
  -6.194267e+01   3.689245e+00
  -5.743807e+01  -7.469461e+01
   1.566130e+02  -8.619022e+01
   2.789844e+02   1.816270e+01
   2.616826e+02   1.249767e+02
   9.088148e+01   2.864992e+02
  -1.292414e+02   3.421811e+02
  -2.400221e+02   1.390527e+02
  -2.056658e+02  -6.236990e+01
   1.235180e+01  -1.042534e+02
   9.507917e+01   2.066002e+01
  -1.024649e+01   1.436821e+02
  -2.035586e+02   7.696793e+01
  -2.098226e+02  -9.014468e+01
  -1.023725e+02  -2.311292e+02
   9.371166e+01  -2.326502e+02
   1.764085e+02  -8.812932e+01
   1.270998e+02   1.453241e+01
  -1.987279e+01   2.908331e+01
  -5.369498e+01  -3.813904e+01
   5.831755e+01  -1.316979e+02
   2.097385e+02  -3.407972e+01
   1.874503e+02   9.878227e+01
  -5.040554e+01   2.135157e+02
  -1.640208e+02   1.308781e+02
  -2.100842e+02  -3.583550e+01
  -5.989393e+01  -1.408139e+02
   1.206795e+02  -1.211479e+02
   1.309077e+02  -3.887306e+01
   8.535777e+01   8.216385e+01
   2.164272e+01   5.427877e+01
  -1.956392e+01   2.786392e+01
   3.995254e+01   1.519081e+01
   2.671216e+01   5.206529e+01
  -2.907582e-01   1.625266e+02
  -1.205621e+02   1.366442e+02
  -2.305323e+02   2.599408e+01
  -1.970681e+02  -1.937929e+02
  -2.841647e+01  -2.687446e+02
   1.258300e+02  -2.059157e+02
   1.270268e+02  -1.875368e+01
   8.540579e+01   1.095661e+02
   3.994931e+00   7.548452e+01
   5.709972e+01   1.806622e+01
   7.723930e+01   5.444980e+00
   9.170636e+00   3.086717e+01
  -1.509133e+00   9.443148e+01
  -1.107921e+02   6.891447e+01
  -7.181697e+01  -1.717258e+01
  -8.348495e+00  -8.111888e+01
   1.217038e+02  -1.035689e+02
   1.900939e+02   3.679285e+01
   1.140060e+02   1.602648e+02
  -5.142314e+01   2.534686e+02
  -2.772123e+02   1.152766e+02
  -3.116025e+02  -7.397092e+01
  -1.128830e+02  -1.959879e+02
   2.595666e+01  -1.504537e+02
   1.353500e+02  -8.220514e+01
   9.036439e+01  -6.021960e+01
   4.558070e+01  -9.846552e+01
   9.353460e+01  -7.706045e+01
   1.385021e+02   6.887557e+00
   1.314963e+02   1.186925e+02
   3.377269e+01   1.952547e+02
  -6.639591e+01   1.900328e+02
  -1.305308e+02   4.400410e+01
  -1.155182e+02  -1.241017e+02
  -3.633447e+01  -1.406307e+02
   6.524627e+01  -1.194266e+02
   8.726162e+01  -2.716118e+01
   3.083582e+00   3.565994e+01
  -1.809752e+01   3.137029e+01
   5.061944e+00  -1.585092e+01
   7.925976e+01   1.835427e+01
   5.431875e+01   5.673683e+01
  -1.469283e+01   7.283215e+01
  -1.329398e+02   4.768077e+01
  -1.346614e+02  -5.127655e+01
  -3.597580e+01  -9.438834e+01
   1.004041e+02  -8.117474e+01
   1.247128e+02  -1.702430e+01
   3.566426e+01   4.837084e+01
  -4.737338e+01   3.834624e+01
  -6.505677e+01  -3.896659e+01
  -1.755076e+01  -9.560120e+01
   4.787276e+01  -8.984736e+01
   6.648601e+01  -1.057053e+00
   4.395742e+01   1.038798e+02
  -1.530482e+01   5.323842e+01
   2.239785e+01  -1.707654e+01
   7.475129e+01  -8.081543e+01
   4.475264e+01   1.863146e+01
   2.115446e+00   1.220545e+02
  -7.788550e+01   1.603210e+02
  -1.275710e+02   5.940014e+01
  -1.358688e+02  -7.690658e+01
  -1.731025e+01  -1.127565e+02
   8.574049e+01  -5.751332e+01
   7.064880e+01   1.488555e+01
  -4.370029e+01   1.571453e+01
  -1.650739e+02  -7.397820e+01
  -9.703270e+01  -1.400891e+02
   8.183553e+01  -9.190525e+01
   1.690191e+02  -3.130560e+01
   1.884857e+02   4.590082e+01
   5.679744e+01   9.675708e+01
  -7.039754e+01   9.163562e+01
  -4.120851e+01   1.051542e+01
   2.627769e+01  -2.629583e+00
   9.294556e+01  -5.888953e+00
   2.819935e+01   1.024204e+02
  -9.976429e+01   1.469857e+02
  -1.374821e+02   6.453664e+01
  -1.200629e+02  -1.020920e+02
   1.333485e+00  -2.256475e+02
   8.928781e+01  -1.390858e+02
   1.231270e+02   4.552516e+00
   5.083906e+01   1.373871e+02
   7.628977e+00   7.559664e+01
  -4.926593e+01   2.352293e+01
  -6.578792e+01  -5.168274e+01
  -1.539802e+01   3.651970e+00
   2.839578e+01  -9.081184e+00
  -3.673845e+01  -2.938171e+01
  -4.262358e+01  -6.677857e+01
  -5.364040e+01  -9.498672e+01
   6.705160e+01  -1.835826e+01
   1.449559e+02   7.308547e+00
   1.345197e+02   6.187986e+01
   4.919557e+01   1.714714e+01
  -6.496004e+01   5.268583e+01
  -7.017354e+01   2.456365e+01
  -1.774196e+01  -2.832298e+00
   1.972085e+01  -1.536110e+01
   2.147548e+00   9.673242e+00
  -4.800467e+01   2.833320e+01
   3.485387e+01  -9.353153e+00
   7.343116e+01  -3.255644e+01
   2.562111e+01  -5.007464e+00
  -3.497413e+01   4.980950e+01
  -1.587136e+02   9.419492e+01
  -2.029163e+02   7.563945e+01
  -8.951036e+01  -7.964441e+01
  -9.757791e+00  -1.720713e+02
   5.102491e+01  -1.619135e+02
   1.067154e+02  -2.470977e+01
   8.225497e+01   3.107712e+01
   3.606273e+01   3.669930e+01
  -1.922462e+00   1.577877e+01
   2.630460e+01  -4.202602e+01
   3.893266e+01   7.332057e+01
   5.712815e+01   1.062085e+02
  -1.963847e+01   5.188181e+01
  -9.868294e+01  -3.078968e+01
  -1.171748e+02  -1.315352e+02
  -1.678504e+01  -1.043115e+02
   7.918925e+01  -3.900394e+01
   1.120988e+02   1.077553e+01
   6.948697e+01   1.002761e+02
  -9.070590e+01   6.505897e+01
  -7.161498e+01   9.702658e-01
  -3.362868e+01  -4.920159e+01
   8.390954e+01  -6.151595e+01
   2.211792e+01   3.863637e+01
  -6.407104e+01   5.739047e+00
  -8.879067e+01   3.782823e+01
  -3.189656e+01  -2.969333e+00
   4.456209e+01  -7.425091e+01
   1.129295e+02  -1.023025e+02
   4.717214e+01  -5.092037e+00
   1.527220e+00   8.320360e+01
  -5.642337e+01   5.249992e+01
  -5.560070e+01   1.956564e+01
   2.430718e+00  -3.249209e+01
   4.520371e+01  -4.240349e+01
   5.815452e+01  -2.112148e+01
   2.125377e+01   5.227602e+01
   2.569398e+01   4.030156e+01
  -1.240182e+01   3.176443e+01
  -3.396625e+01  -2.578394e+01
  -2.904952e+01   1.401528e+01
   4.385617e-01   3.429802e+01
   4.296895e+01   1.403407e+00
   3.096535e+01  -4.453233e+01
   2.184794e+01  -9.797691e+01
   3.392325e+01  -2.178942e+01
   3.172293e+00   8.768633e+00
  -4.014317e+01   5.592951e+01
  -3.187638e+01   3.005307e+01
  -6.484531e+01  -1.949980e+01
   3.928541e+00  -8.486690e+01
   8.497966e+01  -9.506623e+01
   9.459118e+01   5.731341e-02
   3.589620e+01   6.521921e+01
  -3.695103e+01   7.105502e+01
  -4.667467e+01   3.050793e+01
  -3.084688e+01  -1.715997e+01
   1.019058e+01  -2.522061e+01
   3.919062e+01  -7.351624e+00
  -2.639557e+01   3.811641e+00
  -5.905437e+01   1.482932e+01
