
 $NMID
 id='ANONYMOUS ', fmtdat='(2E16.6)'
 volume=1.0
 tramp=1.0
 $END
   3.863499e+03   2.247096e+01
   2.529336e+03   2.179510e+03
  -8.899363e+02   2.284785e+03
  -2.126274e+03   6.848324e+02
  -9.181450e+02  -5.726295e+02
   4.023558e+02  -5.727107e+02
   9.985424e+02   4.446803e+02
   1.794879e+02   1.104209e+03
  -7.684417e+02   8.238410e+02
  -8.111812e+02  -1.416555e+02
  -4.887142e+02  -8.833418e+02
   2.576676e+02  -1.002966e+03
   6.763513e+02  -1.726950e+02
   4.224795e+02   6.381322e+02
  -4.175086e+02   8.080601e+02
  -5.179893e+02  -4.594757e+01
  -3.547458e+02  -7.638316e+02
   2.838486e+02  -6.073932e+02
   4.340291e+02  -1.954670e+02
   2.885994e+02   2.356132e+02
   9.566524e+01   3.761628e+02
  -2.675688e+02   4.970318e+02
  -1.952484e+02  -8.493838e+01
  -1.907941e+01   5.216739e+01
   4.024414e+02   3.219938e+02
   2.057522e+02   4.727645e+02
  -3.675397e+02   3.985568e+02
  -7.919150e+02  -2.185668e+02
  -3.936741e+02  -5.812857e+02
   2.854753e+02  -4.469683e+02
   7.863542e+02   7.074407e+01
   3.446533e+02   4.003173e+02
  -2.843185e+02   4.721245e+02
  -4.839409e+02   1.868642e+02
  -3.268645e+02  -1.908306e+02
   3.526564e+01  -3.973282e+02
   1.871056e+02  -1.772835e+02
   6.855509e+01   2.220471e+02
  -2.138851e+02   4.595116e+02
  -4.214698e+02  -4.756876e+01
  -3.325606e+02  -6.507420e+02
   2.738752e+02  -5.161867e+02
   4.629127e+02   4.607943e+01
   1.953671e+02   5.391632e+02
  -2.667763e+02   3.042341e+02
  -4.054128e+02  -3.591432e+02
   8.576183e+01  -5.290522e+02
   5.333972e+02  -7.051029e+01
   5.222593e+02   4.148132e+02
   1.591727e+02   5.846962e+02
  -3.574177e+02   3.387505e+02
  -6.254295e+02  -5.258464e+01
  -4.094223e+02  -3.135840e+02
   1.074545e+02  -3.555304e+02
   4.613137e+02  -8.392657e+01
   2.601207e+02   1.024291e+02
  -1.368784e+02   1.109312e+02
  -1.575069e+02  -9.713587e+01
   1.031429e+02  -1.125266e+02
   3.271426e+02   1.067337e+02
   1.552135e+02   2.818791e+02
  -1.779933e+02   2.290015e+02
  -3.809810e+02  -1.860757e+01
  -2.739724e+02  -1.251605e+02
   2.550127e+01  -2.375572e+02
   2.969945e+02  -3.847780e+02
   3.636738e+02  -1.699110e+02
   2.460581e+02   1.553467e+02
   6.626832e+01   4.452954e+02
  -7.922156e+01   3.682283e+02
  -9.264689e+01   7.243544e+01
  -4.585125e+01  -3.421494e+01
  -1.327135e+02   9.698622e+01
  -1.948710e+02   1.214998e+02
  -2.641900e+02  -8.823631e+01
  -1.059176e+02  -2.966622e+02
   1.047305e+02  -2.638401e+02
   2.164732e+02   1.012176e+01
   1.905592e+02   2.747698e+02
  -6.176335e+01   3.089694e+02
  -2.582385e+02   8.179511e+01
  -3.282719e+02  -1.405206e+02
  -1.876710e+02  -3.226010e+02
   8.515292e+01  -3.045179e+02
   1.800724e+02  -1.701590e+02
   1.578095e+02  -3.267574e+01
   9.491010e+01  -9.370975e+01
   2.240756e+02  -2.984208e+01
   4.113223e+02   7.316878e+01
   3.344655e+02   2.678918e+02
   3.034951e+01   4.316926e+02
  -3.889907e+02   4.301371e+02
  -5.383939e+02   1.650487e+02
  -3.056725e+02  -1.148043e+02
  -1.152206e+01  -3.146601e+02
   1.276915e+02  -2.172901e+02
   6.929349e+01  -2.419177e+01
  -9.342653e+01   8.868822e+01
  -1.764735e+02  -2.333812e+01
  -3.429454e+01  -1.763886e+02
   1.588085e+02  -1.577076e+02
   1.714102e+02   1.085653e+02
   2.866948e+01   2.210056e+02
  -1.939967e+02   4.443654e+01
  -1.999951e+02  -2.452052e+02
   3.833077e+01  -3.657034e+02
   2.737274e+02  -1.834949e+02
   3.331773e+02   6.718578e+01
   2.802391e+02   2.221991e+02
   9.575151e+01   2.575765e+02
  -1.120781e+02   1.736018e+02
  -1.559814e+02   4.005250e+01
  -3.099928e+01  -3.626065e+01
   5.871779e+01   6.579589e+01
   2.559783e+01   9.400111e+01
  -9.763636e+01   1.241310e+02
  -1.189972e+02  -5.981456e+00
  -5.785996e+01  -5.336567e+01
   6.796961e+01  -9.946623e+00
   4.855445e+01   6.296721e+01
  -1.135029e+02   4.506153e+01
  -2.747247e+02   7.996665e-01
  -2.586674e+02  -1.095203e+02
  -7.802473e+01  -2.629975e+02
   2.103784e+02  -2.861101e+02
   2.748183e+02  -1.484281e+02
   2.300144e+02   3.537263e+01
   2.803519e+01   1.458948e+02
  -4.192758e+01   8.825310e+01
  -2.852300e+01  -8.281401e+01
   1.513833e+02  -3.952982e+01
   1.737873e+02   8.569618e+01
   7.361723e+01   2.144009e+02
  -1.180628e+02   1.622165e+02
  -1.431490e+02   5.142619e+01
  -8.873540e+01  -6.584104e+00
   2.810549e+01  -1.707003e+01
   3.657631e+00   9.067261e+01
  -9.044214e+01   1.031828e+02
  -2.175528e+02   1.755034e+01
  -1.744114e+02  -1.067703e+02
  -3.800418e+01  -2.232272e+02
   9.291952e+01  -1.369669e+02
   1.920161e+02  -6.236509e+01
   9.020601e+01   9.383918e+01
  -5.843539e+01   1.261144e+02
  -6.917582e+01   2.708916e+01
  -5.346307e+01  -5.117404e+01
   4.559978e+01  -2.307544e+01
   1.216653e+00   1.795833e+01
  -4.376634e+01   2.759297e+01
  -1.118931e+02  -7.280979e+01
  -2.320157e+00  -1.168449e+02
   1.019905e+02  -1.426456e+02
   2.165561e+02   1.203527e+01
   2.040568e+02   1.099641e+02
   4.356286e+01   2.421728e+02
  -9.838328e+01   1.491480e+02
  -1.611557e+02   4.985839e+01
  -6.770861e+01  -2.300457e+01
  -7.059721e+01  -2.484111e+01
  -6.903504e+01  -2.735852e+01
  -5.709913e+01  -9.269971e+00
  -3.618484e+01  -5.710723e+01
   6.065965e+01  -5.372879e+01
   1.110488e+02  -8.911558e+01
   4.534465e+01   9.350911e+00
  -1.980378e+01   8.432851e+01
  -1.413936e+02   6.321249e+01
  -1.392235e+02  -8.270780e+01
  -1.121983e+02  -2.017499e+02
   1.161358e+02  -2.028626e+02
   2.595412e+02  -6.323538e+01
   2.529213e+02   6.073424e+01
   8.667158e+01   1.766510e+02
  -7.291571e+01   1.368792e+02
  -1.168054e+02   1.006821e+02
  -6.983458e+01   6.638898e+01
  -9.914825e+01   8.385892e+01
  -1.423986e+02   9.441156e+01
  -1.315459e+02  -1.532741e+01
  -9.527554e+01  -1.150572e+02
  -5.723617e+01  -2.232455e+02
   7.562711e+01  -1.832063e+02
   1.974494e+02  -3.795969e+01
   1.514896e+02   1.379592e+02
   3.261588e+01   1.453523e+02
  -3.221886e+01   8.600136e+01
  -9.154824e+01   2.018110e+01
  -8.518965e-01  -2.228508e+01
   8.992609e+00   1.121104e+01
  -2.603005e+01   3.368249e+00
  -1.029699e+02  -2.684496e+01
  -7.839176e+01  -2.015327e+01
   8.467420e+01  -3.820310e+01
   1.377362e+02  -7.163869e+00
   1.404122e+02   2.372686e+01
  -2.172263e-01   1.315735e+02
  -1.326280e+02   8.032720e+01
  -1.267877e+02   2.683285e+01
  -2.506221e+01  -4.281777e+01
   6.411056e+01  -4.479241e+01
   8.604569e+01  -5.169865e+00
   1.953314e+01   1.181909e+02
  -4.512563e+01   8.368047e+01
  -1.008241e+02  -3.294744e+01
  -3.844488e+01  -8.759198e+01
  -5.625229e+01  -4.187479e+01
  -4.561182e+01  -1.126339e+01
  -5.830464e+01  -3.975588e+01
  -1.426820e+01  -3.282109e+01
   1.846891e+01  -1.131627e+02
   1.120687e+02  -1.133744e+02
   1.772612e+02  -1.004687e+01
   1.045151e+02   6.741182e+01
  -2.775983e+01   1.340389e+02
  -1.110376e+02   1.005970e+02
  -1.282485e+02   1.333956e+01
  -3.578092e+00  -1.448149e+01
   5.774656e+01  -5.345296e+00
   4.315020e+01   1.025354e+02
  -3.273701e+01   8.276446e+01
  -1.340347e+02   2.988145e+01
  -1.172549e+02  -2.020539e+01
  -2.401422e+01  -7.769517e+01
   3.578221e+01  -7.882189e+00
   4.791720e+01  -2.823978e+01
  -5.165081e+01   2.566262e+01
  -2.969825e+01  -2.965725e+01
  -2.040545e+01  -1.241587e+02
   1.098327e+02  -1.228342e+02
   1.718530e+02  -7.465435e+01
   1.616288e+02   1.407781e+02
   3.477543e+00   1.840602e+02
  -4.912498e+01   1.348996e+02
  -8.431701e+01  -4.595052e+00
  -8.253123e+01  -1.238068e+02
  -3.382072e+01  -1.197492e+02
   4.447730e+01  -6.531016e+01
   5.256088e+01   4.574940e+01
   5.063316e+01   5.243671e+00
   7.286978e+00   2.861423e+01
   2.507093e+01   6.527128e+01
   4.456492e+01   7.568652e+01
   2.810408e+01   1.011550e+02
  -4.888185e+01  -9.644447e-01
  -8.779729e+01   2.752596e+00
  -1.140430e+02  -3.847699e+01
  -3.638554e+01  -2.958075e+01
   6.723565e+01  -4.688799e+01
   1.255468e+02  -5.771308e+01
  -1.891393e+01   2.111246e+01
  -3.064125e+01   2.118200e+01
  -3.356288e+00   1.543439e+01
   2.161666e+01  -1.018860e+00
  -4.216697e+01  -1.666639e+01
  -9.365139e+01   8.564285e+00
  -7.223357e+01  -4.372555e+01
  -3.125019e+01  -7.657013e+01
   1.384835e+02  -8.694451e+01
   1.398631e+02   7.057507e+00
   1.258618e+02   1.137494e+02
   2.625303e+01   1.670522e+02
  -7.203333e+01   1.589945e+02
  -8.838733e+01   6.064218e+01
  -1.301206e+02  -1.550595e+01
  -1.405300e+01  -8.824316e+00
  -9.957346e+00  -1.849504e+01
  -4.981862e+01  -3.795100e+00
  -2.199338e+01  -6.340632e+01
  -3.037599e+01  -1.074488e+02
   5.405713e+01  -6.070317e+01
   1.070344e+02  -1.936415e+01
   9.012453e+01   1.493676e+02
  -2.043329e+01   7.259079e+01
  -7.305233e+01   5.881311e+00
  -7.042487e+01  -9.766535e+01
  -3.372449e+01  -1.002079e+02
   1.007727e+02  -3.181026e+01
   1.165316e+02   1.555031e+01
   3.015581e+01   4.761873e+01
  -4.930613e+01   6.316543e+01
  -6.391615e+01   7.834863e+00
   5.519954e+00   1.454477e+01
   1.018843e+01  -5.375129e+00
  -3.576439e+00   4.625289e+01
  -1.369938e+02   6.928145e+01
  -1.319436e+02   7.579908e+01
  -4.943216e+01  -2.978982e+01
  -1.502401e+01  -1.194489e+02
   5.482904e+01  -8.197267e+01
   7.910885e+01  -1.462946e+01
   1.258659e+01   6.706606e+01
  -2.927031e+01   6.980630e+01
  -4.060744e+01   6.288157e+00
  -4.818550e+01  -4.496172e+01
   1.591016e+01  -7.329176e+01
   2.166782e+01   3.620711e+01
   7.930036e+01   4.375690e+01
   2.297194e+01   3.691442e-01
  -7.423921e+00  -2.810678e+01
  -3.750073e+01  -1.950682e+01
  -3.024876e+01   4.518966e+01
   1.584590e+01   2.234034e+01
  -4.433607e+01   3.283378e+01
  -2.977794e+01   3.401771e+01
  -1.182171e+01  -5.497103e+01
   2.188458e+01   6.611368e+00
   4.668614e+01   7.157399e+01
  -3.961023e+00   6.494743e+01
  -3.560982e+01   5.374796e+01
  -7.482570e+01   7.824008e+00
  -7.022531e+01  -4.147526e+01
   3.089506e+01  -3.708102e+01
   4.461734e+01  -1.810441e+00
   2.521767e+01  -1.138573e+01
  -3.304132e+01  -6.587571e+01
  -4.216141e+01  -1.207281e+01
   1.030442e+01  -4.828803e+01
   9.987287e+01  -1.232422e+01
