
 $NMID
 id='ANONYMOUS ', fmtdat='(2E16.6)'
 volume=1.0
 tramp=1.0
 $END
   3.428942e+03  -4.891622e+01
   2.051768e+03   1.870604e+03
  -4.398841e+02   1.855213e+03
  -1.452802e+03   9.507692e+02
  -9.624118e+02  -1.500844e+02
   2.390551e+02  -3.703725e+02
   6.329339e+02   1.062437e+02
   8.803975e+01   7.016063e+02
  -7.141489e+02   7.132656e+02
  -6.858051e+02   1.641039e+00
  -4.598368e+02  -4.754728e+02
   1.765875e+02  -7.121270e+02
   4.108828e+02  -1.307301e+02
   3.848019e+02   4.406237e+02
  -1.829061e+02   4.506524e+02
  -4.801203e+02   1.370401e+02
  -2.610534e+02  -5.802556e+02
   1.135546e+02  -4.851174e+02
   5.684717e+02  -2.916886e+02
   5.396807e+02   1.665102e+02
   2.112696e+02   2.445926e+02
  -3.993700e+02   4.010935e+02
  -5.608528e+01   3.586431e-01
  -6.551142e+00   1.091971e+02
   3.846249e+02   2.024573e+02
   2.340025e+02   3.160735e+02
  -2.633381e+02   1.662177e+02
  -6.655907e+02  -5.815564e+01
  -1.921053e+02  -3.229259e+02
   2.736044e+02  -3.182385e+02
   6.135339e+02   5.725475e+01
   2.525640e+02   3.743712e+02
  -3.017202e+02   4.786414e+02
  -4.903465e+02   1.869899e+02
  -3.767873e+02  -1.839314e+02
   1.319127e+01  -4.311647e+02
   9.768481e+01  -2.223787e+02
   9.851212e+01   1.440778e+02
  -1.457192e+02   1.913633e+02
  -2.162511e+02  -1.709721e+02
  -1.078390e+02  -5.088978e+02
   3.351118e+02  -3.949670e+02
   3.001139e+02  -3.495032e+00
   1.134120e+02   3.838974e+02
  -1.538435e+02   1.465741e+02
  -1.583141e+02  -3.017747e+02
   9.984142e+01  -4.328787e+02
   4.238772e+02  -5.272503e+01
   4.551284e+02   3.730546e+02
   1.703364e+02   4.969213e+02
  -2.919175e+02   2.850725e+02
  -5.612665e+02  -5.875578e+01
  -3.334753e+02  -2.526777e+02
   6.508408e+01  -2.324391e+02
   2.956058e+02  -7.390642e+01
   1.946674e+02   1.038169e+01
  -1.076152e+02   1.104557e+01
  -1.203120e+02  -7.381226e+01
   1.665703e+02  -3.653671e+01
   2.734904e+02   3.496177e+01
   1.242122e+02   1.682762e+02
  -2.199048e+02   2.249854e+02
  -3.035399e+02   1.422467e+02
  -2.249633e+02  -7.640692e+01
   3.617639e+01  -3.305902e+02
   2.385329e+02  -3.524643e+02
   3.348469e+02  -1.583438e+02
   2.468152e+02   2.068098e+02
   9.095397e+01   3.797825e+02
  -5.697551e+01   2.499992e+02
  -2.057136e+01   1.175062e+02
  -6.628291e+01   4.730696e+01
  -9.701285e+01   1.027519e+02
  -2.353414e+02   7.525532e+01
  -2.322246e+02  -1.564607e+02
  -7.229064e+01  -2.604611e+02
   1.083120e+02  -1.978854e+02
   1.960321e+02   3.122374e+01
   1.351601e+02   2.092558e+02
  -1.505969e+00   3.132904e+02
  -2.364330e+02   8.190332e+01
  -3.213127e+02  -1.518095e+02
  -1.631272e+02  -2.655310e+02
   7.159326e+01  -2.087252e+02
   1.876396e+02  -1.116705e+02
   1.768509e+02   9.511049e+00
   7.019741e+01  -3.087271e+01
   2.017320e+02  -4.570014e+01
   3.478737e+02   9.365393e+01
   2.683763e+02   2.924354e+02
  -5.827065e+01   3.681860e+02
  -3.247666e+02   3.304484e+02
  -4.762134e+02   1.650828e+02
  -3.014556e+02  -6.804613e+01
  -5.304092e+00  -2.267530e+02
   6.179594e+01  -2.151950e+02
   9.345925e+00  -3.066760e+01
  -1.623879e+02   8.546411e+01
  -1.432866e+02  -2.253707e+01
  -2.805704e+01  -1.073112e+02
   1.428564e+02  -1.088908e+02
   1.504641e+02   1.019676e+01
  -6.955898e+01   1.287974e+02
  -1.916541e+02   4.701251e+01
  -1.206366e+02  -2.110200e+02
   3.507244e+00  -3.517714e+02
   2.077847e+02  -2.502468e+02
   2.918047e+02   3.740266e+01
   2.638636e+02   1.992654e+02
   8.225011e+01   2.871432e+02
  -1.398447e+02   1.033071e+02
  -1.757072e+02  -5.231270e+01
  -8.220158e+01  -2.548818e+01
   2.362510e+01   1.123578e+02
   3.386393e+01   1.234511e+02
  -9.977709e+01   9.131800e+01
  -1.835342e+02  -5.207857e+01
  -6.364646e+01  -8.232572e+01
   3.142328e+01   1.003698e+01
   3.793640e+01   7.515233e+01
  -1.597673e+02   2.613710e+01
  -2.654748e+02  -6.199142e+01
  -2.262384e+02  -1.898458e+02
  -3.282270e+01  -2.176674e+02
   2.348440e+02  -2.144297e+02
   2.614509e+02  -7.812177e+01
   1.113032e+02   4.901633e+01
  -7.903106e+01   6.746477e+01
  -7.056265e+01  -3.794127e+01
   6.832014e+01  -1.344153e+02
   2.225430e+02  -3.821371e+01
   2.018175e+02   3.392461e+01
   7.655091e+01   1.063125e+02
  -9.782064e+01   1.377438e+02
  -1.097347e+02  -4.266443e+01
   3.192030e+00  -4.781980e+01
   6.182193e+01   4.840092e+01
   7.907699e+00   1.463597e+02
  -7.867607e+01   1.713503e+02
  -1.720715e+02   4.938806e+01
  -2.157797e+02  -1.538928e+02
  -7.705413e+01  -2.489219e+02
   1.350123e+02  -1.281151e+02
   1.684414e+02   6.302915e+00
   7.804982e+01   1.174011e+02
  -2.374982e+01   7.702648e+01
  -7.082392e+01  -2.344856e+01
  -3.006135e+01  -2.365155e+01
   2.689253e+01   2.624897e+01
   2.120691e+01   4.674258e+01
  -7.493166e+01   8.655793e+00
  -1.208827e+02  -1.012586e+02
  -2.069847e+01  -1.691692e+02
   1.680074e+02  -1.281929e+02
   2.686012e+02  -1.691009e+00
   1.638054e+02   1.290384e+02
   4.806346e+01   1.969064e+02
  -1.264167e+02   1.663130e+02
  -1.160232e+02   5.079083e+01
  -3.589082e+01   2.107136e+00
  -2.443568e+01  -5.149625e+00
  -8.320548e+01  -1.320514e+01
  -8.692216e+01   1.760593e+01
  -6.222786e+01  -8.024100e+01
   2.471816e+01  -1.039644e+02
   1.046641e+02  -5.970041e+01
   1.374484e+02   5.711189e+01
  -5.541448e+01   1.407943e+02
  -1.562712e+02   9.278327e+01
  -2.243071e+02  -1.099750e+02
  -8.065032e+01  -1.863896e+02
   1.310634e+02  -2.323679e+02
   3.097549e+02  -8.167661e+01
   2.572551e+02   5.797035e+01
   7.596352e+01   1.823651e+02
  -7.863192e+00   1.152880e+02
  -8.053176e+01   7.682765e+01
  -8.640675e+01   2.116667e+01
  -9.968302e+01   7.587357e+01
  -8.148192e+01   6.900494e+01
  -1.258423e+02  -7.068013e+01
  -8.003188e+01  -1.679018e+02
  -1.268075e+00  -2.191410e+02
   1.419406e+02  -1.298051e+02
   1.819305e+02   4.452207e+01
   1.016225e+02   1.888177e+02
  -3.004093e+01   1.680794e+02
  -1.028544e+02   1.010723e+02
  -3.385052e+01  -3.517594e+01
   4.202725e+01  -1.129435e+02
   6.237073e+01  -5.113481e+01
  -7.093420e+01   9.682133e-01
  -1.167854e+02  -1.386121e+01
  -5.001011e+01  -2.072831e+01
   1.080567e+02  -3.387780e+01
   1.572152e+02  -2.471845e+01
   1.445550e+02   1.293706e+02
   1.350337e+01   1.604760e+02
  -1.682816e+02   1.086756e+02
  -1.762622e+02   3.721175e+01
  -8.387996e+01  -9.707103e+01
   9.289539e+01  -3.892378e+01
   1.456977e+02   7.162483e+01
   9.608935e+00   1.134075e+02
  -2.264477e+01   3.248957e+01
  -4.447671e+01   5.900176e+00
  -1.000296e+02  -4.465353e+01
  -8.509615e+01  -5.673912e+01
  -2.786912e+01   1.353120e+01
  -5.324327e+01   2.645088e+01
  -5.065352e+01  -6.338298e+01
   2.945331e+01  -1.659391e+02
   1.393228e+02  -1.590620e+02
   1.636405e+02  -9.355526e+01
   1.420380e+02   1.237003e+02
   2.019729e+01   1.239610e+02
  -8.711784e+01   5.959959e+01
  -6.635232e+01  -3.313682e+01
   7.407002e+01  -4.443401e+01
   1.490244e+02   9.927960e+00
   7.498320e+01   6.491222e+01
  -4.908566e+01   1.190111e+02
  -1.431088e+02   3.424231e+01
  -1.677145e+02  -2.748328e+01
  -3.270856e+01  -1.077643e+02
   5.150558e+01  -4.972372e+01
   4.509363e+01   8.650582e+00
  -4.378993e+01   6.109550e+01
  -1.194741e+02  -1.533249e+01
  -5.975242e+01  -1.159406e+02
   4.816968e+00  -1.545265e+02
   1.490961e+02  -9.040992e+01
   1.179068e+02   6.814974e+01
   1.438425e+01   1.331816e+02
  -9.053674e+01   1.504067e+02
  -1.034211e+02   1.931138e+01
  -6.413174e+01  -1.083524e+02
   3.309328e+01  -1.001456e+02
   4.465635e+01  -1.167101e+01
  -4.676968e+00   1.160294e+01
   1.127214e+01   2.519181e+01
  -2.162055e+00  -2.591901e+01
   2.464941e+01  -1.336501e+01
   7.094018e+01   1.078353e+02
   5.582713e+01   1.455622e+02
  -5.677528e+01   4.952072e+01
  -1.366557e+02  -2.342262e+01
  -1.514108e+02  -3.398242e+01
  -5.232511e+01  -6.429427e+01
   6.730062e+01  -1.025762e+01
   8.449914e+01   2.812944e+01
   3.045191e+01   1.723947e+00
  -3.632339e+01   3.947824e+01
  -2.151763e+01   1.394690e+01
   1.543855e+01   1.057328e+01
  -4.001831e+01   1.929161e+00
  -4.150596e+01   5.672533e+00
  -6.524529e+01   1.749458e+01
  -5.974077e+01  -3.182225e+01
   8.748546e+01  -1.100883e+02
   2.056301e+02  -5.516631e+01
   1.063751e+02   7.001159e+01
  -1.217509e+01   1.749802e+02
  -8.988152e+01   1.277895e+02
  -1.421901e+02   6.348991e+01
  -9.192781e+01   8.739610e-01
  -2.831358e+01  -9.441502e+01
   7.654859e+00   9.526899e-01
   3.112236e+01  -1.630356e+01
   8.043668e+00  -3.582806e+01
   2.631597e+01  -5.735781e+01
   3.576258e+01  -4.955818e+01
   1.113778e+02   1.378565e+01
   6.651944e+01   9.561593e+01
  -1.766051e+01   5.975717e+01
  -5.293189e+01   1.738110e+01
  -6.982199e+01  -6.677038e+01
  -4.219941e+01  -1.121113e+02
   8.476811e+01  -9.086232e+01
   8.070561e+01  -4.631305e+01
   6.723832e+01   5.150866e+01
   2.200683e+01   1.022612e+02
  -3.851752e+01   6.710525e+01
   5.899202e-01  -2.321813e+01
   1.078834e+02   1.476553e+01
   1.109792e+01   1.461389e+01
  -7.236968e+01   8.023201e+01
  -1.258506e+02   2.770808e+01
  -1.110202e+02  -4.670976e+01
  -1.363404e+01  -6.108320e+01
   4.607576e+01  -7.582296e+01
   4.911820e+01  -6.264796e+00
  -7.614146e-02   4.036502e+01
  -2.040791e+01   5.743604e+01
  -2.291941e+01  -3.702225e+00
  -3.942462e+01  -5.389173e+01
  -2.869314e+01  -2.328160e+00
   2.251714e+01  -1.459844e+01
   3.346202e+01   2.205429e+01
   2.108239e+01   3.278796e+01
   2.170308e+01  -3.363407e+00
   1.083411e+01  -5.887036e+00
  -2.935464e+01   2.468421e+01
  -1.198595e+01   5.460165e+01
  -2.318677e+01   4.838803e+01
  -2.804004e+01  -1.109327e+01
  -1.851100e+01  -2.540347e+01
   4.074686e+01  -1.170867e+01
   4.234384e+01   6.734234e+01
  -1.005423e+01   5.198448e+01
  -3.929685e+01   2.843751e+01
  -8.336835e+01  -4.433871e+00
  -2.219805e+01  -2.245501e+01
   2.512464e+01  -2.826957e+01
   8.131533e+01  -2.890126e+01
  -2.649946e+01  -1.574369e+00
   4.580681e+00   1.161010e+00
  -3.593927e+01  -3.262151e+01
   2.508407e+01  -5.407720e+01
   8.504860e+01  -2.724552e+01
