
 $NMID
 id='ANONYMOUS ', fmtdat='(2E16.6)'
 volume=1.0
 tramp=1.0
 $END
  -4.521560e+03  -2.322682e+01
  -2.366384e+03  -2.496721e+03
   7.602601e+02  -2.619411e+03
   1.871287e+03  -6.938812e+02
   8.988385e+02   7.111853e+02
  -7.388676e+02   5.659384e+02
  -7.538044e+02  -4.653110e+02
   1.402790e+02  -1.082283e+03
   8.815469e+02  -6.358210e+02
   8.222617e+02   5.582080e+01
   4.448580e+02   7.929011e+02
  -1.515095e+02   8.557541e+02
  -6.269625e+02   1.843720e+01
  -3.413121e+02  -7.250152e+02
   2.769095e+02  -7.167243e+02
   6.727454e+02  -1.163119e+02
   2.639247e+02   7.295251e+02
  -4.806584e+02   7.749767e+02
  -5.490565e+02   8.037345e+01
  -3.872740e+02  -3.212060e+02
   4.579126e+01  -3.979674e+02
   3.224698e+02  -2.387483e+02
   4.549489e+01   1.347971e+02
   2.417651e+00  -3.033638e+01
  -3.748374e+02  -4.022536e+01
  -3.487849e+02  -5.648365e+02
   4.118564e+02  -3.505112e+02
   9.086605e+02   6.098904e+01
   3.866606e+02   6.101985e+02
  -3.152891e+02   4.654789e+02
  -7.038675e+02   3.485906e+01
  -4.184207e+02  -4.843499e+02
   2.213787e+02  -6.228999e+02
   6.018415e+02  -2.177320e+02
   5.119739e+02   2.222925e+02
   6.862750e+01   4.877318e+02
  -1.825985e+02   2.874596e+02
  -2.066043e+02  -3.008022e+02
   1.946393e+02  -3.797391e+02
   4.959632e+02  -5.435188e+01
   3.210046e+02   6.897853e+02
  -3.597822e+02   7.335853e+02
  -6.216778e+02   9.066898e+01
  -2.818903e+02  -5.778699e+02
   3.137448e+02  -4.048420e+02
   4.499842e+02   2.688232e+02
  -7.275680e+01   5.890025e+02
  -5.906679e+02   2.618384e+02
  -6.568346e+02  -3.267061e+02
  -2.640661e+02  -6.274410e+02
   3.107079e+02  -4.427429e+02
   6.263549e+02   3.235196e+01
   3.844097e+02   4.197570e+02
  -1.545674e+02   3.647060e+02
  -4.564672e+02  -1.451027e+01
  -2.195087e+02  -2.817832e+02
   1.525315e+02  -1.476431e+02
   1.427598e+02   1.614100e+02
  -1.466048e+02   2.212506e+02
  -3.029549e+02  -6.797398e+01
  -7.785627e+01  -2.804128e+02
   1.999785e+02  -2.222660e+02
   2.941828e+02  -8.974092e+01
   1.380764e+02   6.196656e+01
  -1.261525e+01   2.080593e+02
  -1.885894e+02   3.313630e+02
  -3.482521e+02   2.275928e+02
  -2.854401e+02  -1.916905e+02
  -2.340611e+01  -4.470451e+02
   1.559769e+02  -3.570016e+02
   1.556396e+02  -8.722190e+01
  -6.582668e-01  -2.751848e+00
   3.419687e+01  -1.590531e+02
   2.164735e+02  -1.657187e+02
   3.249175e+02   5.735994e+01
   2.051544e+02   3.224430e+02
  -5.336208e+01   2.557753e+02
  -2.043385e+02  -1.021362e+01
  -2.008105e+02  -2.443341e+02
   2.771787e-01  -3.087920e+02
   2.772156e+02  -1.184616e+02
   3.752280e+02   1.482269e+02
   2.044441e+02   3.595220e+02
  -8.527859e+01   2.854492e+02
  -2.468303e+02   7.890618e+01
  -1.646982e+02  -3.148077e+00
  -5.743774e+01   7.132734e+01
  -1.818745e+02   5.916816e+01
  -3.728431e+02  -3.630349e+00
  -3.772965e+02  -2.471710e+02
  -4.255163e+01  -4.451617e+02
   3.076558e+02  -4.445107e+02
   4.345223e+02  -1.643249e+02
   2.956648e+02   4.597015e+01
   7.408488e+01   2.712365e+02
  -1.211945e+02   1.785692e+02
  -7.132741e+01  -5.749863e+01
   9.814467e+01  -1.664708e+02
   2.127373e+02   7.425154e+00
   7.888933e+01   2.581031e+02
  -1.514638e+02   1.984804e+02
  -1.439446e+02  -7.914891e+01
   5.915275e+01  -1.901282e+02
   2.210928e+02   2.368576e-01
   1.087896e+02   2.671698e+02
  -5.436661e+01   3.415318e+02
  -2.813494e+02   1.707616e+02
  -3.744642e+02  -3.676052e+01
  -2.809202e+02  -2.665142e+02
  -5.419297e+01  -2.930210e+02
   7.857888e+01  -2.073700e+02
   1.503773e+02  -3.856708e+01
   1.574622e+01   4.245406e+01
  -1.473816e+02  -3.101210e+01
  -4.845901e+00  -1.508728e+02
   1.639919e+02  -1.369214e+02
   1.688820e+02   1.508250e+01
   1.017136e+01   1.015075e+02
  -1.141703e+02  -2.008064e+01
  -6.489423e+01  -1.272971e+02
   8.709104e+01  -8.044144e+01
   2.672102e+02  -1.431005e+01
   2.427988e+02   1.068205e+02
   6.266561e+01   2.797821e+02
  -1.610341e+02   2.833445e+02
  -2.357079e+02   9.965197e+01
  -1.833466e+02  -5.077046e+01
   3.608046e+01  -7.574795e+01
   8.363811e+01   2.247583e+00
  -1.454713e+01   1.265716e+02
  -1.590460e+02   6.914782e+01
  -1.461871e+02  -1.020970e+02
  -9.017132e+01  -2.212195e+02
   7.664843e+01  -1.057443e+02
   1.087221e+02  -3.120650e+01
   7.276685e+01   6.692862e+01
  -2.343085e+01   1.150342e+01
  -4.521048e+01  -8.518227e+01
   2.199707e+01  -1.308712e+02
   1.813554e+02  -4.299405e+01
   2.147926e+02   1.190938e+02
   2.369044e+01   2.437246e+02
  -1.499109e+02   2.182451e+02
  -1.775487e+02   5.618281e+01
  -7.632354e+01  -1.225571e+02
   2.401784e+01  -8.544488e+01
   1.235164e+02  -3.673260e+01
   4.264895e+01   7.694108e+01
  -2.683506e+01   6.314303e+01
   3.377531e+01   2.153252e+01
   5.417523e+01   2.366578e+00
   4.444145e+01   3.274922e+01
  -5.889921e+00   1.634912e+02
  -9.177400e+01   1.621108e+02
  -2.488393e+02   8.578156e+00
  -2.022893e+02  -1.751053e+02
  -6.229822e+01  -2.203322e+02
   1.106976e+02  -1.594211e+02
   1.515831e+02  -4.285861e+01
   8.601495e+01   8.852002e+01
   1.013646e+01   6.114560e+01
   1.725028e+01  -4.187115e+00
   1.058846e+02   2.024832e+01
   7.393619e+01   5.864398e+01
  -1.906171e+01   1.123787e+02
  -1.094747e+02   7.954779e+01
  -8.866890e+01  -8.278437e+00
   1.365624e+01  -7.139444e+01
   1.376088e+02  -1.455467e+02
   1.944691e+02   4.650829e+01
   1.046217e+02   1.672945e+02
  -9.205323e+01   2.120968e+02
  -2.226235e+02   5.019994e+01
  -2.498562e+02  -1.077306e+02
  -1.099903e+02  -1.805951e+02
   4.199073e+01  -2.057088e+02
   1.423206e+02  -6.718002e+01
   8.477605e+01  -9.520039e+00
   6.562842e+01  -3.732952e+01
   5.811384e+01  -4.023076e+01
   1.355838e+02   1.798873e+01
   9.978372e+01   1.801616e+02
   2.255366e+01   2.138353e+02
  -1.318883e+02   1.519979e+02
  -2.076214e+02   1.511074e+01
  -1.651627e+02  -1.737365e+02
  -1.359227e+01  -1.342900e+02
   4.876898e+01  -1.023219e+02
   4.292222e+01   3.958967e+00
   1.227306e+01   3.605449e+01
   2.506219e+01   3.742042e+01
  -1.373676e+01   1.821573e+01
   8.060859e+01  -1.158346e+01
   5.434529e+01   1.973681e+01
  -6.338521e+01   5.698087e+01
  -1.182448e+02   3.444053e+01
  -1.052622e+02  -8.008415e+01
  -1.124005e+01  -9.982939e+01
   1.040807e+02  -9.718374e+01
   1.454677e+02   7.317465e+00
   1.330218e+01   6.880319e+01
  -6.612460e+01   6.265708e+01
  -9.389212e+01  -4.760546e+00
  -1.619688e+01  -5.210384e+01
   3.762858e+00  -9.538516e+01
   3.755900e+01  -2.563328e+01
   8.614799e+01   7.934905e+01
   3.351998e+01   4.624706e+01
   5.078289e+01   2.699922e+01
   6.810434e+01   3.065434e+01
   1.513393e+01   6.446753e+01
  -4.497913e+01   1.829170e+02
  -9.746772e+01   1.670170e+02
  -1.535166e+02   5.090587e+01
  -1.628536e+02  -7.360625e+01
  -1.147560e+01  -1.441026e+02
   1.023311e+02  -8.206083e+01
   7.677147e+01  -1.300844e+01
  -3.791957e+01   2.873439e+01
  -1.252177e+02  -4.058421e+01
  -4.139014e+01  -1.222097e+02
   7.969797e+01  -1.259001e+02
   1.686013e+02  -6.558810e+01
   1.879918e+02   3.003517e+01
   7.419044e+01   1.148375e+02
  -2.789983e+01   7.879682e+01
  -4.943944e+01   9.827626e+00
   7.386293e+01  -4.999871e+01
   6.012141e+01   3.755382e+01
   4.696013e+01   1.096100e+02
  -1.044513e+02   1.587037e+02
  -1.735647e+02   7.924938e+01
  -1.266822e+02  -1.210839e+02
   1.258542e+01  -1.882463e+02
   6.997973e+01  -1.361034e+02
   6.919238e+01  -2.523292e+01
   6.346418e+01   1.235416e+02
  -2.297182e+01   1.019687e+02
  -1.311692e+01  -2.938121e+01
  -5.899732e+01  -5.084326e+01
  -6.531754e+00  -4.168393e+01
   9.512987e+00   2.102553e+01
   2.040690e+00   1.065455e+01
  -5.098365e+01  -5.163895e+01
  -4.859804e+01  -1.217425e+02
   1.827849e+01  -4.621273e+01
   1.310015e+02   5.228215e+01
   8.361617e+01   7.714673e+01
   4.073317e+01   5.320433e+01
  -7.532033e+01  -3.283961e+00
  -1.108351e+02   5.745922e+01
   2.197335e+01  -3.661112e+01
   3.258627e+01  -3.914595e+01
   2.769846e+01  -5.634759e+01
  -2.119157e+01  -1.329357e+00
  -2.661673e+01   2.458027e+01
   9.670750e+01   1.566368e-01
   9.800785e+01   2.534441e+01
   1.320783e-01   6.992810e+01
  -1.107175e+02   1.057679e+02
  -1.767237e+02   5.214372e+01
  -1.082491e+02  -4.648116e+01
  -4.839515e+01  -1.688948e+02
   1.152813e+02  -1.252070e+02
   9.299233e+01  -3.889614e+01
   8.979789e+01   7.183543e+01
   6.691560e+01   9.036457e+00
  -1.121384e+01   1.096998e+01
   4.193028e+01   5.252147e+01
  -3.146486e+00   6.443982e+01
   1.978628e+01   6.883564e+01
  -1.286327e+01   6.998833e+01
  -6.731442e+01  -6.094242e+01
  -3.246198e+01  -8.313579e+01
  -3.306309e+01  -1.089589e+02
   9.517969e+01  -3.065831e+01
   6.536579e+01   8.272004e+01
   4.460404e+01   8.034490e+01
  -5.183006e+01   6.391488e+01
  -1.261506e+02   3.718046e+00
  -1.272696e+01  -3.612474e+01
   2.908418e+01  -7.607427e+01
   4.292053e+01  -1.189018e+01
  -2.298129e+01  -4.882684e+01
  -5.210538e+01  -5.998685e+00
  -1.300853e+01   7.149766e-01
   1.016267e+02  -5.150429e+01
   1.592166e+02  -5.070060e+01
   7.432814e+01   4.530106e+01
  -1.846902e+01   8.998226e+01
  -8.504472e+01   1.705803e+01
  -2.325506e+01  -2.294152e+01
  -8.118811e+00  -8.859393e+01
   4.585599e+01  -1.504401e+01
   1.576334e+01   3.558128e+01
   2.554521e+01   7.499564e+01
  -2.208637e+01   6.896389e+01
  -2.539260e+00  -1.264946e+01
  -5.908402e+01  -4.959532e+00
  -3.072575e+01  -2.520718e+01
   4.726269e+00   3.371517e+00
   3.924609e+01  -9.316158e+00
   1.075278e+01  -6.171364e+01
   2.840694e+01  -8.927627e+01
   7.876868e+01  -1.092846e+02
   1.110497e+01   3.316121e+01
  -5.829524e+00   5.986215e+01
  -4.118389e+01  -1.770989e+01
  -3.468918e+01  -3.362914e+01
  -5.976260e+01  -5.518701e+01
   4.315727e+01  -6.495999e+01
   8.635152e+01  -1.231837e+01
   7.807322e+01   1.830217e+01
  -2.012647e+01   2.207898e+01
  -6.179755e+01   3.907941e+01
  -6.304896e+01   1.133482e+01
   4.360633e+00   4.225977e+01
  -3.924489e+00  -4.459438e+00
  -2.456871e+01   3.289407e+01
  -9.167921e+01  -3.846145e+00
