
 $NMID
 id='ANONYMOUS ', fmtdat='(2E16.6)'
 volume=1.0
 tramp=1.0
 $END
  -2.910588e+03  -4.944987e+01
  -1.788917e+03  -1.480714e+03
   2.578126e+02  -1.728415e+03
   1.110478e+03  -8.470308e+02
   7.676781e+02  -2.323845e+02
   4.532681e+00   1.210429e+02
  -3.889532e+02  -2.055978e+02
   1.780929e+01  -5.637867e+02
   4.478043e+02  -5.626741e+02
   5.240462e+02  -1.101025e+02
   3.850526e+02   5.217804e+02
  -1.755799e+01   4.954197e+02
  -3.192245e+02   2.678942e+02
  -1.606985e+02  -5.394228e+02
   2.746399e+02  -5.588696e+02
   2.733384e+02  -1.024366e+02
   2.710545e+02   5.555834e+02
  -3.489687e+02   5.192634e+02
  -5.451000e+02   2.922891e+02
  -2.542569e+02  -1.590214e+02
  -3.020006e+01  -2.888147e+02
   1.020711e+02  -1.860970e+02
   1.174142e+02  -5.163602e+01
  -1.773413e+02  -9.492488e+01
  -4.068197e+02  -2.618003e+02
  -2.035207e+01  -3.556905e+02
   4.346469e+02  -2.320793e+02
   5.370962e+02   2.981467e+02
   2.100999e+02   3.495015e+02
  -4.022868e+02   1.330070e+02
  -5.528229e+02  -1.731189e+02
  -2.023271e+02  -3.892761e+02
   1.654185e+02  -3.512836e+02
   4.162792e+02  -1.708979e+02
   2.943699e+02   1.992121e+02
   6.263463e+01   3.291301e+02
  -4.965364e+01   3.049527e+01
  -4.037379e+01  -7.027820e+01
   1.575455e+02  -2.005342e+02
   2.383778e+02   8.908685e+01
   1.087117e+02   4.959218e+02
  -2.480837e+02   4.245160e+02
  -3.771877e+02  -1.773875e+01
  -1.550935e+02  -3.099675e+02
   1.566237e+02  -1.752041e+02
   1.952009e+02   1.901035e+02
  -9.364704e+01   3.866953e+02
  -4.522778e+02   7.539742e+01
  -5.321746e+02  -3.456100e+02
  -1.919003e+02  -5.240097e+02
   2.777788e+02  -3.651838e+02
   5.441995e+02   9.916796e+00
   4.201358e+02   2.489551e+02
  -1.153142e+00   2.336425e+02
  -2.406605e+02   7.319351e+01
  -1.903054e+02   2.540118e+01
   2.149038e+00   2.219807e+01
   7.077646e+01   4.284430e+01
  -9.671169e+01   5.817075e+01
  -2.134737e+02  -5.498612e+01
  -1.309344e+02  -1.495591e+02
   1.634330e+02  -1.915750e+02
   3.271759e+02  -1.040674e+02
   2.647938e+02   8.102161e+01
  -2.916941e+00   2.460490e+02
  -2.227273e+02   3.189321e+02
  -2.981545e+02   1.665063e+02
  -2.176642e+02  -1.266896e+02
  -5.981621e+01  -3.043054e+02
   3.748079e+01  -2.892864e+02
   3.605951e+01  -1.524715e+02
   4.949193e+00  -1.115846e+02
   1.011382e+02  -7.466342e+01
   2.221277e+02  -4.707700e+01
   2.510013e+02   1.209000e+02
   8.711428e+01   2.586710e+02
  -1.172959e+02   1.802852e+02
  -2.368172e+02  -4.234850e+01
  -1.764580e+02  -2.742647e+02
   5.318603e+01  -3.089190e+02
   2.961834e+02  -8.901016e+01
   3.045919e+02   1.419294e+02
   1.829600e+02   3.042810e+02
  -4.036672e+01   2.886892e+02
  -1.594419e+02   1.191648e+02
  -1.333690e+02   6.216809e+01
  -1.120422e+02   5.431402e+01
  -2.340796e+02   6.481607e+01
  -3.803031e+02  -2.027949e+01
  -3.281142e+02  -2.478602e+02
  -3.545645e+01  -3.949669e+02
   3.750692e+02  -3.849910e+02
   4.752297e+02  -1.577917e+02
   2.683184e+02   1.397455e+02
   8.883303e+00   2.593335e+02
  -1.149434e+02   2.031493e+02
  -2.899047e+01   4.534873e+01
   9.175932e+01  -2.470344e+01
   9.386204e+01   5.701339e+01
  -1.465087e+01   1.170629e+02
  -1.508132e+02   3.364049e+01
  -1.048343e+02  -9.119737e+01
   3.192372e+01  -1.137384e+02
   1.310102e+02  -1.932255e+01
   1.454577e+02   1.976933e+02
  -1.315607e+01   3.358676e+02
  -1.833611e+02   1.845519e+02
  -3.010856e+02  -7.180200e+01
  -2.770018e+02  -2.449707e+02
  -8.802525e+01  -2.329106e+02
   1.435645e+02  -8.535610e+01
   1.490844e+02   3.875352e+01
   1.352881e+01   1.105082e+01
  -2.768190e+01  -4.208373e+01
   6.505926e+00  -1.103106e+02
   1.097187e+02  -5.809854e+01
   1.165118e+02   3.142583e+00
   4.245767e+01   3.590871e+01
  -6.187808e+01  -2.422805e+01
  -1.584650e+01  -9.539609e+01
   1.175384e+02  -7.130554e+01
   2.972719e+02  -3.674846e+01
   2.615892e+02   1.384952e+02
   9.108839e+01   2.472578e+02
  -1.873540e+02   2.601777e+02
  -2.472571e+02   1.424244e+02
  -1.299059e+02  -1.561854e+01
  -3.046185e+01  -8.737930e+01
   4.587621e+01  -2.200795e+01
  -3.343995e+01   6.399584e+01
  -1.257714e+02   3.958878e+01
  -1.596961e+02  -8.735553e+01
  -5.760945e+01  -1.836261e+02
   4.604392e+01  -1.425783e+02
   9.626965e+01  -5.831923e+01
   7.328603e+01   1.410058e+01
  -2.115133e+01   3.952282e+01
  -2.274839e+01  -6.766559e+01
   9.648052e+01  -1.650430e+02
   2.048068e+02  -3.462873e+01
   1.452500e+02   8.335193e+01
   2.918957e+01   1.918594e+02
  -1.535803e+02   1.880802e+02
  -1.365521e+02   2.491545e+01
  -4.281879e+01  -1.016303e+02
   4.825296e+01  -1.277430e+02
   8.090735e+01  -4.265408e+01
   2.085622e+01  -1.166943e+01
  -1.862962e+01   1.534285e+01
  -1.082120e+01   2.750665e+00
   4.952107e+01  -1.847529e+01
   9.000651e+01   7.324513e+01
   2.643339e+01   1.295187e+02
  -1.560122e+02   1.313127e+02
  -2.139608e+02   3.117819e+01
  -1.693324e+02  -1.423810e+02
  -6.139132e+01  -2.065024e+02
   8.420530e+01  -1.442316e+02
   9.979196e+01  -3.447368e+01
   7.982169e+01   8.182295e+00
   6.313625e+01   2.322865e+01
   7.874045e+01   2.993530e+00
   4.738280e+01  -2.393283e+01
   2.791434e+01   4.961929e+01
  -6.972017e+01   1.042321e+02
  -9.762218e+01   3.353441e+01
  -4.474023e+01  -8.464528e-02
  -3.963534e+01  -1.388709e+02
   1.382289e+02  -8.857043e+01
   1.885877e+02   4.264993e+01
   6.289706e+01   1.819811e+02
  -1.515303e+02   1.992211e+02
  -2.878773e+02   5.397319e+01
  -2.480228e+02  -4.662294e+01
  -1.050257e+02  -1.527389e+02
   6.451743e+01  -1.698237e+02
   6.957764e+01  -8.216911e+01
   4.098098e+01  -5.294712e+01
   7.337095e+01  -7.071662e+01
   9.042406e+01  -8.212325e+01
   1.009178e+02   4.814316e+01
   6.803220e+01   1.098930e+02
   2.298014e+01   1.863977e+02
  -6.533171e+01   1.480235e+02
  -1.471209e+02  -2.348157e+01
  -1.125905e+02  -8.351391e+01
  -8.639617e+00  -1.012424e+02
   4.488400e+01  -6.730412e+01
   2.652914e+01   2.343964e+01
   2.749120e+00   9.902580e+01
   7.790230e+00   6.900453e+01
   1.415162e+01   4.051379e+01
   3.692563e+01  -2.653380e+00
   5.775419e+01   2.483039e+01
  -7.121190e+01   3.792424e+01
  -1.706431e+02   1.031855e+01
  -1.602711e+02  -3.071273e+01
  -2.181768e+01  -8.841901e+01
   9.814679e+01  -7.096301e+01
   1.423783e+02  -3.775862e+01
   5.920546e+01   6.981400e+01
  -7.875566e+01   5.862438e+01
  -9.651558e+01  -3.146401e+01
  -2.701573e+01  -9.378216e+01
   5.807819e+01  -9.025962e+01
   3.906802e+01  -2.365918e+01
   7.857284e+01   2.356029e+01
   1.222972e+02   8.628831e+01
   1.213247e+01   4.617809e+01
   7.050208e+01   2.258229e+01
   2.632946e+01   7.723709e+01
  -4.084311e+01   1.443793e+02
  -1.254916e+02   1.506703e+02
  -1.880611e+02   5.927843e+01
  -1.069560e+02  -9.962215e+01
  -1.175124e+01  -1.330046e+02
   8.338661e+01  -7.334682e+01
   9.284366e+01   2.529860e+01
  -4.162031e+01   4.402977e+01
  -1.425908e+02  -2.424070e+01
  -1.147918e+02  -6.395252e+01
   6.600953e+01  -6.518276e+01
   1.807124e+02   4.091180e+00
   1.001595e+02   2.700285e+01
  -8.288464e+00   1.710616e+01
  -6.159005e+01   3.407085e+01
  -3.120781e+01  -3.795570e+01
   9.833830e+01  -4.254763e+01
   8.625210e+01   4.749100e+01
   5.589472e+01   1.022747e+02
  -5.348071e+01   1.295153e+02
  -1.288472e+02   6.055278e+01
  -1.269013e+02  -3.706914e+01
  -1.139501e+01  -1.766383e+02
   1.141222e+02  -1.165411e+02
   7.100690e+01   2.333574e+01
   4.559259e+01   1.174309e+02
   1.971473e+01   1.154928e+02
  -4.474017e+01  -2.518455e+01
  -2.111607e+01  -3.365775e+01
  -5.133160e+01  -1.666614e+01
  -1.190908e+01   1.874425e+01
  -2.044238e+01   1.439338e+01
  -5.840621e+01  -1.251200e+02
  -4.647314e+01  -1.257123e+02
   9.383735e+01  -2.039937e+01
   1.444351e+02   4.954842e+01
   1.181480e+02   6.732913e+01
   1.649188e+01   6.330351e+01
  -9.662041e+01   2.179015e+01
  -7.117065e+01   1.462261e+01
   9.225182e+00   1.948898e+01
   5.370675e+01   3.000241e+01
   1.341369e+01   1.214696e+01
  -1.241191e+01  -3.207483e+00
  -4.699846e+01   4.887354e+00
   3.927068e+01   3.206462e+01
   8.627621e+01   1.410252e+01
   4.263745e+01   3.837620e+01
  -7.694447e+01   6.953360e+01
  -1.845782e+02   8.696078e+01
  -1.786240e+02  -1.134394e+01
  -6.952293e+01  -1.195363e+02
   8.217897e+01  -1.311713e+02
   8.498818e+01  -7.999692e+01
   7.131638e+01   2.722647e+01
   3.695479e+01   1.149133e+01
  -6.320881e+00   9.782817e+00
   3.197088e+01   1.177483e+00
   6.364167e+00   8.648687e+01
   6.166485e+00   6.666443e+01
  -4.206631e+01   6.700625e+01
  -7.778625e+01  -2.765405e+01
  -7.005657e+01  -8.936474e+01
  -9.318779e+00  -1.137068e+02
   3.443652e+01  -1.486591e+01
   1.004235e+02   1.094683e+02
   6.770565e+01   4.179204e+01
  -3.953268e+01   7.174781e+01
  -9.258239e+01  -5.903032e-01
  -5.770252e+01  -1.222201e+01
   6.351548e+01  -4.458266e+01
   3.139574e+01  -4.548134e+01
  -2.063784e+01  -1.617453e+01
  -7.366999e+01   2.755640e+00
  -2.800831e+00  -2.094624e+01
   2.210235e+01  -4.375563e+01
   1.101308e+02  -4.674824e+01
   2.204422e+01   1.070576e+00
   2.094672e+01   3.636680e+01
  -3.548375e+01   5.294476e+01
  -5.306668e+00  -4.326301e+00
  -2.086763e+01  -3.629465e+01
   1.494125e+01  -4.021741e+01
  -3.415318e+00  -4.490872e+00
   4.208263e+01   2.794842e+01
  -1.012190e+01   5.341984e+01
  -1.892497e+00   2.471199e+01
  -2.487330e+01  -3.355369e+01
  -5.527508e+01   3.766919e+01
   2.379694e+01   2.888226e+01
  -1.069533e+01   2.371178e+01
   3.623318e+01  -6.409522e+01
  -3.920885e+01  -8.387816e+01
  -5.704715e+00  -1.603445e+01
  -2.350431e+00   7.325315e+01
   2.140356e+00   3.668720e+01
  -4.421471e+01   2.160621e+00
  -7.231666e+01  -3.899122e+01
  -2.545518e+01  -9.106961e+01
   6.749226e+01  -5.326274e+01
   8.791556e+01  -3.652166e+01
   8.392174e+01  -8.067912e+00
   6.772913e+00   1.512996e+01
  -5.645846e+01   7.998674e+01
   3.655145e+01   2.623822e+01
  -2.953791e+01   4.784860e+01
   3.590212e+01  -7.246971e+00
  -2.719546e+01  -3.672158e+01
  -8.656132e+01  -1.693801e+01
