
 $NMID
 id='ANONYMOUS ', fmtdat='(2E16.6)'
 volume=1.0
 tramp=1.0
 $END
   3.558989e+03   2.015508e+02
   2.102461e+03   1.829520e+03
  -4.118330e+01   2.146636e+03
  -1.214876e+03   1.216993e+03
  -1.038205e+03   3.300183e+01
  -4.316600e+01  -2.359054e+02
   4.175720e+02   3.520653e+02
   1.720758e+01   7.017610e+02
  -6.348073e+02   5.692557e+02
  -7.715192e+02  -7.526063e+01
  -4.647652e+02  -5.936490e+02
   4.222464e+01  -8.222113e+02
   2.288442e+02  -2.502664e+02
   3.072747e+02   4.778097e+02
  -2.200664e+02   5.063733e+02
  -4.859112e+02   1.556866e+02
  -1.957945e+02  -4.713202e+02
   3.082560e+02  -6.336049e+02
   4.449711e+02  -2.233517e+02
   5.038743e+02  -1.666614e+02
   2.260708e+02   5.111256e+02
  -3.262972e+01   2.952133e+02
  -1.447517e+02   1.889056e+02
   7.265184e+01   4.259759e+01
   2.004808e+02   2.965798e+02
  -4.254831e+01   4.830235e+02
  -4.656229e+02   2.183184e+02
  -6.014314e+02  -1.428205e+02
  -1.402966e+02  -3.083544e+02
   3.914241e+02  -2.730091e+02
   5.150507e+02   1.966741e+02
   1.490451e+02   3.355944e+02
  -2.154739e+02   4.585956e+02
  -3.667118e+02   8.497706e+01
  -2.703366e+02  -1.562407e+02
  -5.715789e+01  -4.000661e+02
   1.868551e+01  -2.194824e+02
  -1.062610e+02   9.616809e+01
  -1.975618e+02   1.250306e+02
  -2.411313e+02  -1.519195e+02
  -4.132560e+01  -3.772915e+02
   2.529573e+02  -3.778993e+02
   3.160153e+02  -7.321918e+00
   1.145406e+02   1.658895e+02
  -1.691759e+02   1.326171e+02
  -1.374078e+02  -2.689513e+02
   1.854147e+02  -3.866157e+02
   4.414283e+02  -7.495897e+01
   4.407499e+02   4.074823e+02
   7.839064e+01   4.929624e+02
  -3.147743e+02   2.795349e+02
  -4.473922e+02  -7.265782e+01
  -2.403595e+02  -2.726769e+02
   6.311686e+01  -2.360019e+02
   2.206232e+02  -5.017055e+01
   2.116337e+02   2.674291e+01
   1.860816e+01   5.785967e+00
  -1.846416e+01  -5.805544e+01
   1.170614e+02  -5.575861e+01
   2.149847e+02   3.598911e+01
   1.547685e+02   2.224883e+02
  -1.710871e+02   2.658684e+02
  -4.011360e+02   1.857673e+02
  -3.028347e+02  -1.396292e+02
  -7.913881e+01  -3.762844e+02
   2.499757e+02  -4.121926e+02
   3.808459e+02  -1.880762e+02
   2.652967e+02   1.195990e+02
   6.959330e+01   3.249439e+02
  -2.229969e+01   3.545434e+02
  -1.172062e+01   1.971777e+02
  -4.361548e+01   6.636528e+01
  -1.423250e+02   6.974430e+01
  -2.188685e+02   3.276377e+01
  -2.175642e+02  -1.080649e+02
  -9.058746e+01  -2.409304e+02
   8.429387e+01  -1.894488e+02
   1.916136e+02   2.655461e+01
   1.254658e+02   1.999789e+02
  -2.127608e+01   2.701620e+02
  -2.242195e+02   3.266137e+00
  -2.596247e+02  -1.669232e+02
  -1.572055e+02  -2.900590e+02
  -4.613472e+00  -2.395906e+02
   1.726442e+02  -8.113986e+01
   1.600785e+02  -1.446475e+02
   1.620745e+02  -8.832557e+01
   2.730512e+02  -3.881109e+01
   3.919935e+02   1.220201e+02
   3.041328e+02   3.193866e+02
  -7.580407e+01   4.221703e+02
  -4.270444e+02   3.686435e+02
  -4.929701e+02   1.108806e+02
  -2.857178e+02  -1.576423e+02
  -1.999414e+01  -3.196469e+02
   1.049107e+02  -2.100377e+02
   5.175385e+01  -2.306201e+01
  -1.216795e+02   2.766128e+01
  -1.168952e+02  -4.378687e+01
  -4.165918e+01  -9.256413e+01
   1.124183e+02  -8.167188e+01
   1.411775e+02   2.334960e+01
  -3.525155e+01   1.099157e+02
  -1.506001e+02  -3.409258e+01
  -1.952766e+02  -2.488098e+02
   5.091119e+01  -3.072793e+02
   1.904426e+02  -1.863328e+02
   3.276488e+02   1.218891e+02
   2.827912e+02   2.778613e+02
   7.457096e+01   2.560914e+02
  -1.301008e+02   1.347335e+02
  -1.619742e+02   7.435225e+00
  -1.027954e+02   5.383262e+00
   1.488279e+01   6.676492e+01
  -2.311921e+01   1.104089e+02
  -9.483642e+01   6.382050e+00
  -1.629853e+02  -7.226098e+01
   8.666156e+00  -1.689287e+01
   5.413906e+01   2.828038e+01
   1.581007e+01   9.618141e+01
  -1.866964e+02   6.531787e+01
  -3.160830e+02  -5.475091e+01
  -2.342142e+02  -1.791126e+02
  -1.332447e+01  -2.590684e+02
   1.949899e+02  -2.398822e+02
   2.584133e+02  -5.340323e+01
   1.758034e+02   7.427325e+01
   1.127180e+00   7.588697e+01
  -3.479444e+01  -6.963969e+00
   6.135047e+01  -5.583500e+01
   1.526347e+02  -4.847923e+01
   1.560320e+02   1.248046e+02
   3.863029e+01   1.960270e+02
  -1.455764e+02   1.125565e+02
  -1.160226e+02   4.049498e+00
  -3.845414e+01  -6.027867e+01
   3.897879e+01   6.073636e+00
   1.022772e+01   8.743660e+01
  -6.591468e+01   1.315621e+02
  -1.994441e+02  -4.686845e+00
  -1.750805e+02  -1.601251e+02
   1.842417e+01  -2.236435e+02
   1.309359e+02  -2.199397e+02
   1.548893e+02   1.659004e+01
   1.133309e+02   8.684401e+01
  -4.340974e+01   8.007159e+01
  -1.204071e+02   6.526667e+00
   6.024014e-01  -4.092308e+00
   2.337852e+01   4.072281e+01
   2.815632e+01   1.559600e+01
  -8.550383e+01  -2.688537e+00
  -1.255533e+02  -1.070118e+02
  -1.166254e+01  -1.423052e+02
   1.243542e+02  -1.348014e+02
   2.203691e+02  -9.610610e+00
   2.095304e+02   1.646457e+02
   2.928588e+01   2.252461e+02
  -1.133844e+02   1.398333e+02
  -1.507242e+02   4.989769e+01
  -8.058721e+01  -6.060606e+01
  -6.323692e+01  -4.997876e+01
  -6.754123e+01  -1.875857e+01
  -5.078944e+01  -1.985771e+01
  -6.125652e+01  -5.536582e+01
   3.624878e+01  -9.938351e+01
   1.297910e+02  -6.684687e+01
   7.938017e+01   2.599768e+01
  -4.727669e+01   1.289617e+02
  -1.483716e+02   1.258046e+02
  -1.902422e+02  -9.283098e+01
  -7.588061e+01  -2.552336e+02
   1.068830e+02  -2.067639e+02
   2.299963e+02  -1.011090e+02
   2.668674e+02   7.383131e+01
   9.739148e+01   1.738868e+02
  -5.846793e+01   1.279089e+02
  -1.134390e+02   8.601219e+01
  -7.589309e+01   6.668808e+01
  -4.939632e+01   1.442874e+02
  -7.408748e+01   5.969286e+01
  -1.504873e+02  -6.481611e+01
  -1.015206e+02  -1.274007e+02
  -6.789061e+01  -1.763557e+02
   6.576734e+01  -1.285456e+02
   1.053650e+02  -1.531821e+01
   8.737216e+01   1.377304e+02
   2.580804e+01   1.480960e+02
  -7.316563e+01   4.920092e+01
  -6.048039e+01   8.767472e+00
   1.516209e+01  -4.270748e+01
  -1.597313e+01  -4.492627e+01
  -6.285540e+01  -2.458557e+01
  -9.895839e+01  -4.509627e+01
  -3.611105e+01  -6.691470e+01
   1.069003e+02  -3.721719e+01
   1.796946e+02  -3.294131e+00
   1.571928e+02   1.032854e+02
   1.949460e+01   9.849443e+01
  -1.543643e+02   1.000212e+02
  -1.274324e+02   4.009584e+00
  -4.653157e+01  -3.665121e+01
   3.419968e+01  -3.580845e+00
   4.172125e+01   4.144196e+01
   2.785454e+01   1.069900e+02
  -3.018003e+01   7.249174e+01
  -3.256562e+01  -4.912874e+00
  -7.463339e+01  -3.814016e+01
  -6.061448e+01  -4.459920e+01
  -1.005926e+02   2.853168e+01
  -8.114716e+01   4.311516e+00
  -3.349235e+01  -8.132605e+01
   2.111841e+01  -1.720322e+02
   1.268510e+02  -1.097361e+02
   1.664389e+02  -5.175054e+01
   8.129200e+01   1.411295e+02
  -1.422459e+01   1.463762e+02
  -1.025061e+02   9.351867e+01
  -4.329475e+01  -2.693618e+01
   3.942220e+01  -1.497168e+01
   1.359968e+02   3.264913e+01
   4.327365e+01   1.050188e+02
  -1.362055e+02   1.028307e+02
  -1.913982e+02   4.118671e+01
  -1.201610e+02  -5.532207e+01
  -1.815498e+01  -5.268353e+01
   7.171137e+01  -3.589481e+01
   5.968984e+01   2.896402e+01
  -3.933796e+01   3.399386e+01
  -1.127342e+02   7.200378e+00
  -5.340485e+01  -7.520006e+01
   6.861198e+01  -1.350992e+02
   1.379598e+02  -6.974553e+01
   1.293777e+02   1.515725e+02
   2.273457e+01   2.145152e+02
  -6.307935e+01   8.156150e+01
  -7.437209e+01  -7.061641e+00
  -5.987902e+01  -1.206706e+02
   6.154276e+01  -1.156521e+02
  -7.590617e+00  -9.632189e-01
   7.345935e+01   2.753123e+01
  -4.393249e+00   2.172274e+01
  -2.269320e+01  -3.037674e+00
   3.739207e+01  -1.702713e+01
   1.197436e+02   6.945424e+01
   2.959374e+01   9.138116e+01
  -1.076991e+02   5.559033e+01
  -1.283449e+02   6.962387e+00
  -1.094870e+02  -2.857320e+01
  -9.168503e+00  -2.021579e+01
   4.801925e+01  -2.355554e+01
   7.564103e+01   2.755641e+01
  -4.069576e+01   4.208147e+01
  -3.705192e+01   2.482638e+01
  -4.217693e+01   2.312539e+01
   3.558758e+01  -3.488037e+01
   1.106015e+00   1.326201e+00
  -5.807504e+01   2.099736e+01
  -8.621571e+01   1.164746e+01
  -5.524436e+01  -1.041583e+02
   4.702461e+01  -1.455223e+02
   1.915642e+02  -1.258544e+02
   1.415396e+02   2.929269e+01
   5.944569e+01   1.613178e+02
  -5.854263e+01   1.815464e+02
  -1.453173e+02   1.134669e+01
  -3.481707e+01  -3.481886e+01
  -3.080948e+01  -2.241533e+01
  -1.902432e+00  -1.045105e+01
  -6.644647e+00   1.562011e+01
  -5.201847e+01  -4.716059e+01
  -6.554848e+00  -6.061432e+01
   3.113940e+01  -1.137908e+02
   1.174516e+02  -1.879215e+01
   1.179666e+02   4.920292e+01
   2.869597e+01   1.044092e+02
  -3.999910e+01   2.023192e+01
  -1.356488e+02  -3.410637e+01
  -1.240611e+01  -9.289468e+01
   6.815205e+01  -1.862659e+01
   8.588885e+01   9.027899e+00
   5.748977e+00   2.622666e+01
  -1.201902e+01   5.112991e+01
  -3.751552e+01   1.910828e+01
   3.281483e+01  -5.640497e+01
   6.086767e+01   9.587956e-01
  -8.824561e+00   3.750094e+01
  -6.393665e+01   4.295658e+01
  -1.088299e+02   7.574357e+01
  -6.305952e+01  -2.750595e+01
   2.476048e+01  -1.073793e+02
   5.668991e+01  -1.209014e+02
   1.612348e+01  -4.914042e+01
   9.102907e+00   2.649339e+01
   9.609027e+00   5.730674e+01
  -8.793419e+00   6.578691e+00
   2.231347e+01  -4.927460e+01
   2.020593e+00  -1.690326e+00
   5.849981e+01   5.302063e+00
   2.616730e+01   4.169076e+01
  -4.983516e+00  -1.704669e+01
  -1.831452e+01  -2.964497e+01
   3.237767e+01  -2.941923e+01
  -4.460226e+00  -1.844010e+01
   5.507561e+01   2.043631e+01
  -2.040467e+01  -2.895106e+01
  -2.853675e+01  -3.345410e+01
  -2.401194e-01  -4.485782e+01
   2.434132e+01  -2.002359e+01
   7.022113e+01   1.590837e-01
   1.232474e+01   7.157773e+01
  -7.241464e+01   3.320776e+01
  -1.191571e+02   4.791730e+00
  -5.521187e+01  -6.509114e+00
   1.685974e+01  -4.333818e+01
   1.161218e+02  -2.535076e+01
   3.718844e+01  -1.659803e+00
  -6.285053e+01   6.108187e+01
  -1.832981e+01   3.236904e+01
  -1.031849e+00  -4.698535e+01
   1.008478e+02  -4.171088e+01
