
 $NMID
 id='ANONYMOUS ', fmtdat='(2E16.6)'
 volume=1.0
 tramp=1.0
 $END
   4.978557e+03  -4.988245e+01
   2.877717e+03   2.860671e+03
  -7.511422e+02   2.957685e+03
  -2.297894e+03   1.062609e+03
  -1.059438e+03  -8.677744e+02
   7.502250e+02  -6.179357e+02
   1.033741e+03   4.373210e+02
   3.123645e+01   1.119725e+03
  -9.545169e+02   9.133992e+02
  -1.014090e+03  -8.457216e+01
  -4.180852e+02  -9.992360e+02
   4.303631e+02  -1.048036e+03
   8.601654e+02  -1.967956e+02
   5.327725e+02   8.381194e+02
  -3.915803e+02   8.784972e+02
  -7.363975e+02  -2.065281e+02
  -1.981960e+02  -6.904332e+02
   1.727540e+02  -8.363863e+02
   5.685357e+02   4.632015e+01
   1.996930e+02   3.449616e+02
   4.811870e+01   4.896773e+02
  -2.538979e+02   3.363829e+02
  -2.575826e+02   1.285756e+02
   1.798456e+02   1.446313e+01
   3.058988e+02   1.217075e+02
   3.439202e+02   4.814076e+02
  -4.266715e+02   4.537719e+02
  -1.008611e+03  -6.879327e+01
  -5.229671e+02  -6.353179e+02
   4.092831e+02  -3.548875e+02
   9.648419e+02   1.204518e+02
   3.790624e+02   4.989931e+02
  -2.903350e+02   4.873814e+02
  -5.929220e+02   1.656092e+02
  -4.376164e+02  -3.122469e+02
  -6.857249e+01  -4.485714e+02
   2.854239e+02  -3.850388e+02
   2.646191e+02   2.321856e+02
  -1.334367e+02   5.363378e+02
  -5.849542e+02  -2.690593e+00
  -1.994630e+02  -8.517806e+02
   4.175733e+02  -8.443921e+02
   6.844451e+02  -4.329324e+01
   2.537184e+02   6.729840e+02
  -3.690708e+02   4.267497e+02
  -4.260755e+02  -4.139852e+02
   1.022138e+02  -5.946606e+02
   5.720419e+02  -1.730777e+02
   6.384875e+02   4.783708e+02
   1.606031e+02   6.460183e+02
  -3.868805e+02   3.763902e+02
  -6.791231e+02  -1.301721e+02
  -3.588924e+02  -4.152399e+02
   1.486261e+02  -3.952720e+02
   5.090113e+02  -1.005443e+01
   2.219881e+02   2.730796e+02
  -1.696281e+02   1.277322e+02
  -1.792551e+02  -1.887041e+02
   1.511089e+02  -2.533704e+02
   3.770291e+02   2.592053e+01
   1.822809e+02   2.858350e+02
  -2.490370e+02   2.447112e+02
  -3.428115e+02   1.409145e+01
  -2.025258e+02  -1.163402e+02
   8.501413e+01  -1.977813e+02
   2.321594e+02  -3.948634e+02
   4.018473e+02  -2.096542e+02
   2.968629e+02   1.447333e+02
   1.006684e+02   5.120157e+02
  -1.529742e+02   4.455186e+02
  -1.245302e+02   1.279500e+02
  -8.899054e-01  -2.180815e+01
   1.155826e+01   8.413105e+01
  -2.095466e+02   1.755843e+02
  -3.578189e+02  -8.582939e+01
  -2.427058e+02  -3.356187e+02
   2.925756e+01  -2.269208e+02
   2.590760e+02   3.256153e-01
   2.302461e+02   2.411591e+02
  -4.229085e+01   2.501450e+02
  -2.897647e+02   1.345389e+02
  -3.308726e+02  -1.552097e+02
  -1.630265e+02  -3.169231e+02
   8.782069e+01  -3.487909e+02
   2.196649e+02  -1.825129e+02
   9.575649e+01  -3.718822e+01
   8.185571e+01   2.090939e+01
   2.757357e+02  -5.046260e+01
   4.478329e+02   4.589085e+01
   3.951740e+02   2.440146e+02
   2.139801e+01   4.486829e+02
  -3.640142e+02   4.360025e+02
  -5.648476e+02   2.086332e+02
  -3.736609e+02  -7.426020e+01
  -3.246008e+01  -3.602740e+02
   1.766309e+02  -2.964839e+02
   1.263455e+02  -9.648062e+01
  -1.155834e+02   1.120339e+02
  -2.283823e+02   5.158690e+01
  -4.737093e+01  -1.467263e+02
   1.574783e+02  -1.576100e+02
   1.745060e+02   3.381661e+01
  -7.786682e+01   2.065880e+02
  -2.191305e+02   2.648528e+01
  -2.046060e+02  -2.694012e+02
   4.761582e+01  -4.364201e+02
   2.141680e+02  -2.400426e+02
   3.582874e+02   5.782085e+00
   3.583647e+02   2.654045e+02
   1.132465e+02   2.570490e+02
  -1.113305e+02   1.784882e+02
  -1.942856e+02   3.486943e+01
  -5.297167e+01  -6.467991e+01
   5.761829e+01   8.002269e+01
   4.197076e+01   1.098221e+02
  -1.374872e+02   1.336244e+02
  -1.860430e+02  -6.686437e+01
  -4.911328e+01  -8.908040e+01
   7.205344e+01  -2.563701e+01
   1.767795e+01   2.829537e+01
  -1.049483e+02   6.098785e+01
  -2.234671e+02   4.408446e+01
  -2.567145e+02  -1.253866e+02
  -6.864443e+01  -2.247763e+02
   1.572845e+02  -2.377870e+02
   3.314235e+02  -1.621101e+02
   1.743434e+02   1.121342e+01
  -2.863434e+01   1.202531e+02
  -1.293033e+02   1.917809e+00
   6.106728e+01  -7.863089e+01
   1.976262e+02  -2.355707e+01
   2.395593e+02   6.468152e+01
   5.355598e+01   1.948870e+02
  -1.174861e+02   1.207966e+02
  -1.140394e+02   3.906565e+01
  -4.034044e+01  -4.220038e+01
   6.524508e+01   4.417089e+01
   4.771998e+01   1.001666e+02
  -5.727949e+01   1.347987e+02
  -2.288329e+02   7.305904e+00
  -1.918419e+02  -1.473310e+02
  -5.168546e+01  -2.094704e+02
   1.742545e+02  -1.604487e+02
   2.138776e+02  -1.758519e+00
   8.468314e+01   1.243367e+02
  -4.079336e+01   9.708721e+01
  -9.651529e+01   5.846831e+01
   1.227310e+01  -1.171127e+01
   9.812916e-01   3.701792e+01
  -7.177054e-01  -1.765161e+01
  -1.093374e+02   4.374337e+01
  -1.154899e+02  -8.828460e+01
   6.253163e-01  -1.499020e+02
   1.196840e+02  -1.700216e+02
   2.434665e+02  -1.000485e+01
   2.078983e+02   1.692444e+02
  -4.402584e+01   2.469681e+02
  -1.749102e+02   1.887820e+02
  -1.539217e+02   7.207178e-02
  -3.594958e+01  -8.411793e+01
  -4.436720e+01  -6.813517e+01
  -8.635464e+01  -4.329948e+01
  -1.080342e+02  -4.682519e+00
  -1.044666e+01  -2.364091e+01
   6.514893e+01  -4.504947e+01
   7.778732e+01  -3.262542e+01
   1.008314e+02   1.376047e+01
  -2.346983e+01   5.343247e+01
  -1.135039e+02   5.771519e+01
  -1.754944e+02  -8.054574e+01
  -1.205124e+02  -2.214718e+02
   1.083705e+02  -1.962011e+02
   2.600936e+02  -1.005354e+02
   2.451459e+02   9.661789e+01
   1.495452e+02   1.483994e+02
  -3.105658e+01   1.898980e+02
  -8.619573e+01   8.144358e+01
  -5.869755e+01   8.906317e+01
  -1.177809e+02   8.424481e+01
  -1.361907e+02   4.907983e+01
  -1.691589e+02  -3.970887e+01
  -1.311376e+02  -1.065338e+02
  -1.289399e+01  -2.428050e+02
   1.151028e+02  -1.779603e+02
   1.909997e+02  -4.960207e+01
   1.453470e+02   9.545990e+01
   3.456802e+01   1.413991e+02
  -7.372305e+01   1.343762e+02
  -6.185522e+01   4.597317e+01
   2.872519e+01  -7.441065e-02
   3.403611e+01  -3.607619e+01
  -5.534547e+01  -1.548016e+01
  -9.141784e+01  -3.508522e+01
  -4.939842e+01  -4.727698e+01
   8.539598e+01  -2.980072e+01
   1.673601e+02   3.539315e+01
   1.475984e+02   3.979309e+01
   4.388718e+00   9.031398e+01
  -9.204090e+01   6.820697e+01
  -9.139588e+01   1.395914e+01
   1.793640e+01  -5.358771e+01
   9.300013e+01  -5.768106e+01
   7.770039e+01   3.982100e+01
  -3.815983e+01   1.214098e+02
  -1.754497e+01   6.498916e+01
  -7.342663e+01   1.321835e+00
  -2.532744e+00  -5.902719e+01
  -2.697414e+01  -3.577973e+01
  -5.027852e+01  -4.153087e+00
  -9.806269e+01   3.871271e+00
  -5.330168e+01  -6.263773e+01
   1.111329e+01  -1.544792e+02
   1.118498e+02  -1.019947e+02
   1.273007e+02  -9.073134e+01
   1.453266e+02   7.939210e+01
  -4.143056e+01   1.354349e+02
  -9.386405e+01   6.193053e+01
  -8.619166e+01  -1.006815e+01
   3.760472e+01  -6.396991e+01
   1.237834e+02  -1.341668e+01
   5.216166e+01   8.599645e+01
  -5.314766e+01   8.263154e+01
  -1.481797e+02   7.276371e+01
  -1.050356e+02  -2.871364e+01
  -6.112941e+01  -5.085341e+01
   8.283506e+00  -4.984238e+01
   2.558984e+01  -9.037748e+00
  -6.342487e+01  -6.596040e+00
  -7.953014e+01  -6.960246e+01
  -5.722897e+01  -1.414698e+02
   9.049894e+01  -1.719187e+02
   1.632438e+02  -5.192898e+01
   1.847395e+02   8.451228e+01
   1.853677e+01   1.769639e+02
  -6.993675e+01   1.416439e+02
  -1.519035e+02  -8.913088e+00
  -6.728527e+01  -1.188523e+02
  -1.092844e+01  -1.290406e+02
   3.531434e+01  -3.707268e+01
   6.554464e+01   5.133548e+01
   3.625849e+00  -3.899106e+00
   3.475637e+01   1.690185e-01
   3.148097e+01  -5.271293e+01
   1.094679e+02   5.936998e+01
   4.969483e+01   1.672252e+02
  -4.028404e+01   6.733391e+01
  -1.320596e+02  -2.474457e+01
  -1.021913e+02  -4.329926e+01
  -5.174671e+01  -5.498686e+01
   1.333122e+02   2.688241e-01
   9.037742e+01  -4.177182e-01
   2.335523e+01   2.593930e+01
  -3.849179e+01   4.960318e+01
  -1.913904e+01   2.280635e+01
   1.650293e+01   4.037442e+00
   1.640932e+01  -5.067396e+00
  -4.210889e+01   1.905569e+01
  -9.510430e+01   1.652242e+01
  -2.803523e+01  -7.025739e+01
   1.070794e+02  -1.257395e+02
   1.818547e+02  -5.872628e+01
   1.706511e+02   8.699864e+01
   4.798546e+01   1.792761e+02
  -4.182968e+01   1.467238e+02
  -1.070376e+02   7.464452e+01
  -4.793363e+01  -2.607669e+01
  -4.220919e+01  -5.373295e+01
  -1.634390e+01  -2.653749e+00
  -3.309341e+01   3.233531e+01
  -2.234688e+01  -2.333018e+01
  -3.500005e+01  -1.062501e+02
   4.426948e+01  -7.144537e+01
   6.430915e+01   4.795529e+01
   4.242705e+01   1.339347e+02
   1.612366e+01   1.577772e+02
  -9.046105e+01   6.907615e+01
  -5.266061e+01  -8.561503e+01
  -3.031991e+01  -6.787935e+01
   3.416292e+01  -1.273625e+01
   7.540809e+01   9.243697e+00
   5.073591e+01  -2.957247e+01
  -1.347600e+01   3.119066e+01
  -1.205493e+01  -4.421529e+01
   1.409628e+01  -2.742651e+01
   8.143161e+01  -9.782052e+00
   1.290290e+01   2.195617e+01
  -9.709969e+01   8.773756e+01
  -1.522206e+02  -9.308087e+00
  -8.345920e+01  -2.206722e+01
   2.842668e+01  -1.127474e+02
   3.961263e+01  -7.949509e+01
   6.224803e+01  -2.886543e+01
  -2.918313e+01   4.703141e+01
  -3.769632e+01   6.509116e+01
  -2.946739e+01  -2.904887e+01
   5.573929e+00  -2.874385e+01
   2.633916e+01  -9.358803e+01
   5.245155e+01   3.067588e+01
   4.602219e+01   2.850813e+01
  -7.728668e-01  -6.364516e+00
  -3.152767e+01  -1.356054e+01
  -3.007456e+01  -1.506918e+01
  -6.507424e+00   3.997813e+01
  -5.901284e+01   7.862020e+01
  -3.526495e+01  -4.978192e+00
  -2.727086e+01  -6.418524e+01
  -2.954929e+01  -9.083157e+01
   4.146963e+00  -3.694182e+00
   5.100821e+01   3.734744e+01
   3.273139e+01   3.444295e+01
  -6.001040e+01   1.473067e+01
  -6.346306e+01  -7.221617e+01
  -5.583948e+01  -4.511218e+01
  -1.159312e+01  -5.536907e+01
   5.593446e+01  -1.389028e+01
  -1.632504e+01  -6.301788e+01
  -3.096088e+01  -6.575226e+00
  -1.462843e+01  -1.122985e+00
   3.020198e+01  -3.385116e+01
   1.054726e+02   2.537637e+01
