
 $NMID
 id='ANONYMOUS ', fmtdat='(2E16.6)'
 volume=1.0
 tramp=1.0
 $END
   4.819498e+03   3.337613e+01
   2.730662e+03   3.005573e+03
  -8.921214e+02   2.810536e+03
  -2.202152e+03   1.324808e+03
  -9.059537e+02  -8.950797e+02
   7.228981e+02  -7.080364e+02
   9.891427e+02   3.924195e+02
   1.204853e+02   1.148544e+03
  -9.832060e+02   9.020946e+02
  -1.125597e+03  -2.179587e+02
  -3.666635e+02  -1.000044e+03
   3.316579e+02  -8.862519e+02
   5.590457e+02  -3.644464e+01
   6.127747e+02   6.925562e+02
  -2.951875e+02   9.689475e+02
  -6.972858e+02  -1.405311e+02
  -2.089190e+02  -6.180192e+02
   2.268608e+02  -6.010431e+02
   7.473564e+02  -1.631820e+02
   2.924145e+02   4.329212e+02
   2.671108e+00   5.928756e+02
  -2.751502e+02   3.437028e+02
  -1.978895e+02  -1.236513e+02
   1.511835e+02  -2.178958e+02
   4.716697e+02   6.220774e+01
   2.071655e+02   3.685387e+02
  -4.556025e+02   5.634769e+02
  -8.881466e+02  -1.240478e+02
  -4.639616e+02  -6.467508e+02
   6.302312e+02  -5.386344e+02
   9.794016e+02   6.320430e+01
   4.076333e+02   5.250376e+02
  -2.971348e+02   7.057777e+02
  -5.422555e+02   2.182251e+02
  -4.249794e+02  -2.360332e+02
  -1.440235e+02  -4.987140e+02
   2.317436e+02  -2.651937e+02
   2.125530e+02   2.022958e+02
  -1.437480e+02   5.346445e+02
  -5.381068e+02  -5.357614e+01
  -3.545039e+02  -7.304499e+02
   3.705258e+02  -7.683419e+02
   7.471919e+02  -7.156942e+00
   3.271086e+02   6.444163e+02
  -3.265667e+02   4.203213e+02
  -4.033274e+02  -3.015603e+02
   4.837109e+01  -5.806991e+02
   6.380402e+02  -1.587711e+02
   7.109285e+02   4.908773e+02
   2.379337e+02   6.506019e+02
  -4.127974e+02   4.055976e+02
  -7.677383e+02  -5.517795e+01
  -4.706359e+02  -4.349514e+02
   1.489194e+02  -3.561207e+02
   5.143850e+02   1.969517e+01
   2.777312e+02   2.496415e+02
  -1.736958e+02   9.803699e+01
  -2.402479e+02  -1.769669e+02
   1.800328e+02  -2.331427e+02
   3.988952e+02   7.222679e+01
   1.541319e+02   3.015645e+02
  -2.277544e+02   2.949560e+02
  -3.812786e+02   1.318193e+02
  -2.340961e+02  -1.021388e+02
   4.250377e+01  -2.452501e+02
   2.465754e+02  -3.639837e+02
   3.957262e+02  -2.689499e+02
   2.963310e+02   1.348915e+02
   6.462266e+01   5.123113e+02
  -1.073529e+02   4.424928e+02
  -1.300399e+02   1.476032e+02
   2.253821e+00   4.463160e+00
  -4.254993e+01   1.088571e+02
  -2.709352e+02   1.583764e+02
  -2.831950e+02  -5.378057e+01
  -1.657092e+02  -2.686807e+02
   6.567461e+01  -2.745655e+02
   2.511318e+02  -1.497912e+01
   2.095967e+02   1.939530e+02
  -3.825548e+00   2.785909e+02
  -2.457706e+02   1.242770e+02
  -3.805519e+02  -1.383962e+02
  -1.868432e+02  -3.173708e+02
   8.276199e+01  -3.114490e+02
   2.495395e+02  -1.241252e+02
   1.086242e+02   3.313266e+00
   9.071389e+01  -3.021331e+01
   2.159320e+02  -1.282357e+02
   5.000900e+02   6.000964e+01
   3.995734e+02   3.334483e+02
   2.771970e+01   4.839077e+02
  -3.601188e+02   4.407846e+02
  -5.256253e+02   2.002729e+02
  -3.835470e+02  -1.043913e+02
  -7.265135e+01  -3.649872e+02
   1.387250e+02  -3.037433e+02
   9.405366e+01  -4.535477e+01
  -7.617553e+01   1.113006e+02
  -1.656872e+02   3.357872e+00
   3.298317e+00  -1.839356e+02
   1.880675e+02  -1.671522e+02
   1.797955e+02   1.103223e+02
   7.884685e+00   2.489161e+02
  -2.406261e+02   7.607242e+01
  -2.264973e+02  -2.936512e+02
   6.556518e+01  -4.078781e+02
   2.461863e+02  -2.274746e+02
   3.554558e+02   6.984502e+01
   3.195228e+02   2.708513e+02
   1.318653e+02   2.792700e+02
  -1.091428e+02   1.882704e+02
  -1.940893e+02   2.406042e+01
  -9.981383e+01  -4.130902e+01
   5.577757e+01   7.018768e+01
   5.776943e+01   1.362595e+02
  -1.054506e+02   1.113937e+02
  -1.714864e+02  -2.649921e+01
  -6.714640e+01  -1.104416e+02
   6.351962e+01  -4.689868e+01
   1.920463e+01   2.509195e+01
  -1.381617e+02   8.921358e+01
  -2.482190e+02   4.282111e+01
  -2.458459e+02  -1.273677e+02
  -7.309809e+01  -2.167293e+02
   1.449131e+02  -2.626639e+02
   2.825486e+02  -1.275791e+02
   2.147615e+02   1.662211e+01
   4.255405e+01   9.750639e+01
  -9.469858e+01  -6.605082e+00
   1.058266e+01  -7.626948e+01
   2.492834e+02  -2.506194e+01
   2.211700e+02   1.508646e+02
   6.863573e+01   2.043621e+02
  -8.809821e+01   1.489417e+02
  -2.029012e+02   4.011807e+01
  -1.386211e+02   1.102290e+01
  -1.320856e+01   1.521502e+01
  -7.429703e+00   5.238983e+01
  -4.006475e+01   8.961738e+01
  -1.381188e+02   1.781851e+01
  -1.484550e+02  -1.331254e+02
  -1.455664e+01  -2.141021e+02
   1.636057e+02  -1.806448e+02
   2.295465e+02   3.314136e+01
   4.522745e+01   2.018544e+02
  -7.279380e+01   1.465250e+02
  -1.341061e+02   4.502113e+01
  -5.222936e+01  -2.433883e+01
   1.476874e+01   5.647744e+00
  -4.259488e+01   5.013299e+01
  -1.223526e+02  -8.065702e+00
  -1.006486e+02  -1.355530e+02
   2.069060e+01  -1.758310e+02
   1.502614e+02  -1.392693e+02
   2.249877e+02   2.675495e+01
   1.758178e+02   1.298580e+02
   1.505602e+01   2.066665e+02
  -8.833148e+01   2.082214e+02
  -1.158333e+02   2.051518e+01
  -6.513616e+01  -5.460207e+01
  -2.923480e+01   1.224052e+01
  -6.301926e+01  -1.097100e+00
  -9.198328e+01   1.917819e+01
  -5.455553e+01  -1.924978e+01
   7.243709e+01  -1.012663e+02
   1.083072e+02  -6.789651e+01
   8.538995e+01   5.980468e+01
  -7.585832e+01   1.172938e+02
  -1.932752e+02   1.093357e+02
  -1.860056e+02  -6.484052e+01
  -7.688748e+01  -2.329016e+02
   1.097523e+02  -2.701159e+02
   2.842740e+02  -1.165594e+02
   2.709721e+02   1.408341e+02
   1.084128e+02   2.303907e+02
  -4.707499e+01   1.671050e+02
  -8.226352e+01   7.288741e+01
  -1.273890e+02   4.721197e+01
  -6.949032e+01   5.401230e+01
  -7.053266e+01   9.838776e+01
  -1.080605e+02  -3.674434e+01
  -1.333446e+02  -1.324431e+02
  -4.426155e+01  -2.163826e+02
   7.459310e+01  -2.110574e+02
   2.003629e+02  -1.465509e+01
   1.275414e+02   1.448828e+02
   2.439536e+01   1.372913e+02
  -1.032865e+02   1.189518e+02
  -9.014537e+01   5.538886e+00
   6.299730e+00  -6.895628e+01
   2.396665e+01  -7.807523e+01
  -1.986416e+01  -1.268619e+01
  -4.659187e+01  -6.523020e+01
  -6.840077e+01  -3.131183e+01
   8.357054e+01  -3.509468e+01
   1.573543e+02   2.308841e+01
   1.343326e+02   3.604408e+01
   5.964458e+01   1.180072e+02
  -1.137247e+02   6.438998e+01
  -1.725217e+02   1.772548e+01
  -7.405834e+01  -6.528814e+01
   3.726232e+01  -4.765476e+01
   8.503551e+01   3.468545e+01
  -4.672641e+00   7.323308e+01
  -5.271141e+01   7.365560e+01
  -3.489239e+01  -1.798988e+01
  -6.187944e+01  -7.414752e+01
  -3.018855e+01  -4.685203e+01
  -7.983082e+01  -1.008815e+01
  -7.443102e+01  -4.381414e+00
  -2.353784e+01  -6.843347e+01
   5.705530e+01  -1.465011e+02
   8.917127e+01  -1.177414e+02
   1.898244e+02  -2.832766e+00
   1.331655e+02   1.079358e+02
   4.653145e+00   1.167064e+02
  -8.293608e+01   6.941514e+01
  -5.573601e+01  -5.256775e+01
   4.417263e+01  -2.913323e+01
   1.190140e+02   3.108510e+01
   5.888634e+01   1.096315e+02
  -9.647433e+01   7.092028e+01
  -1.909633e+02   6.470487e+01
  -1.401558e+02  -7.072654e+01
  -7.450994e+00  -8.243052e+01
   1.421851e+02  -9.566122e+01
   5.906062e+01  -2.063054e+01
  -4.541809e+01   2.373536e+01
  -1.157945e+02   2.268977e+01
  -1.781280e+01  -1.341730e+02
   1.294974e+02  -1.474887e+02
   2.000763e+02  -3.966781e+01
   1.414312e+02   1.312663e+02
  -2.233465e+01   2.355858e+02
  -1.274593e+02   1.540135e+02
  -9.052633e+01  -8.027785e+00
  -2.742303e+01  -6.166737e+01
  -3.651473e+01  -7.448806e+01
   8.878232e+01  -4.736748e+01
   6.625987e+01   1.064504e+01
   1.209344e+01  -2.917585e+01
   2.827162e+01   5.289710e+00
  -6.355945e-01  -6.893863e+00
   2.801883e+01   9.482468e+01
   4.359951e+01   1.354226e+02
  -2.637217e+01   5.413988e+01
  -1.035045e+02  -5.609722e+01
  -9.046479e+01  -7.434922e+01
  -2.050697e+01  -1.038456e+02
   8.669619e+01   3.990544e+00
   1.237867e+02   3.169496e+01
   1.731757e+01   2.290716e+00
  -1.423718e+01   3.827652e+01
  -1.856974e+01   1.112328e+01
  -2.169270e+01  -1.646132e+01
  -5.803475e+01   3.658587e+00
  -3.504523e+01  -7.025965e+00
  -8.978659e+01  -1.919017e+01
  -2.122207e+01  -6.664033e+01
   1.536014e+02  -1.129835e+02
   2.243079e+02  -5.923195e+01
   1.464553e+02   4.913626e+01
   6.166984e+01   1.503087e+02
  -1.072664e+02   1.366113e+02
  -1.009918e+02   5.843254e+01
  -5.583602e+01   9.396618e+00
  -3.859111e+01  -6.340871e+01
  -2.747358e+01   3.285422e+00
  -2.400256e+01   5.202947e-01
   3.707402e+00  -3.508289e+01
  -2.475793e+01  -1.041972e+02
   2.818295e+01  -9.484518e+01
   9.843460e+01   3.474300e+01
   5.525322e+01   1.009330e+02
  -2.653759e+01   1.628325e+02
  -1.064042e+02   2.145592e+01
  -1.046237e+02  -8.787540e+01
   1.327587e+01  -1.111175e+02
   1.001401e+02  -4.659536e+01
   7.920690e+01   3.270634e+01
   6.547712e+01   1.064523e+02
  -5.748275e+01   7.894158e+01
  -5.316680e+01   3.071475e+01
   6.158398e+01  -6.354237e+00
   9.656266e+01  -6.956279e+00
  -3.594579e+00   2.698493e+00
  -6.539929e+01   7.299053e+01
  -1.197413e+02   9.235688e+01
  -5.655333e+01   2.661681e+01
   3.044509e+00  -7.760956e+01
   7.616167e+01  -5.871481e+01
   5.614028e+01   7.246125e+00
  -1.721274e+00   5.729347e+01
  -1.969192e+00   2.472846e+01
  -3.953035e+01  -4.834525e+01
  -4.359523e+01  -3.454144e+01
  -2.818639e+01  -1.279139e+01
   2.453747e+01  -3.525333e+00
   4.628595e+01   4.469019e+01
   6.393391e+01   3.160951e+01
   1.812800e+00  -3.902241e+01
   3.055966e+00   5.443246e+00
  -2.885224e+01   5.178736e+01
  -2.342092e+01   5.907551e+01
  -5.164584e+01   3.085256e+01
  -5.747327e+01  -3.078408e+01
  -2.863043e+00  -8.293794e+01
   1.320731e+01  -7.597350e+00
   7.106600e+01   1.698648e+01
   3.568820e+01   5.451037e+01
  -7.674908e+01  -1.370312e+00
  -7.033123e+01  -3.175087e+01
  -6.681232e+01  -5.245392e+01
   1.475461e+01  -1.174645e+01
   4.735341e+01  -4.527383e+01
   6.017968e+01  -2.892480e+01
  -7.641436e+01  -2.017828e+01
  -1.636230e+01  -3.630954e+01
   6.768537e+01  -3.001264e+01
   5.139260e+01   2.531818e+00
