
 $NMID
 id='ANONYMOUS ', fmtdat='(2E16.6)'
 volume=1.0
 tramp=1.0
 $END
  -3.926489e+03   5.217755e+01
  -2.197754e+03  -1.958359e+03
   3.356941e+02  -2.051825e+03
   1.507069e+03  -1.172101e+03
   1.011917e+03   8.576992e+01
  -1.237848e+02   3.645263e+02
  -5.432855e+02  -1.566176e+02
  -2.097954e+01  -7.558048e+02
   6.761814e+02  -6.716836e+02
   7.938380e+02  -3.737764e+01
   4.424437e+02   5.654429e+02
  -8.807953e+01   8.107600e+02
  -4.564142e+02  -1.165162e-01
  -3.755045e+02  -5.292787e+02
   1.427230e+02  -5.027465e+02
   4.786854e+02   1.623167e+01
   1.474943e+02   4.395469e+02
  -9.197784e+01   7.004637e+02
  -6.440318e+02   2.438910e+02
  -5.277823e+02  -1.601813e+02
  -1.902576e+02  -3.240838e+02
   2.167116e+02  -2.930359e+02
   8.827670e+01  -2.929506e+02
  -2.437660e+02  -1.744926e+02
  -1.539503e+02  -1.831611e+02
  -3.847583e+01  -2.810702e+02
   3.638262e+02  -2.603835e+02
   6.209903e+02   7.483357e+01
   2.700747e+02   3.322022e+02
  -2.217897e+02   2.656711e+02
  -5.503939e+02  -8.821421e+01
  -2.715160e+02  -4.194127e+02
   2.785701e+02  -5.207353e+02
   5.419943e+02  -1.591418e+02
   4.681138e+02   2.259239e+02
   9.261718e+01   4.179820e+02
  -1.052110e+02   2.258934e+02
  -5.446054e+01  -1.333269e+02
   1.674281e+02  -2.869998e+02
   4.186081e+02   1.063115e+02
   9.066753e+01   5.646637e+02
  -2.377702e+02   5.381344e+02
  -3.724412e+02   3.096180e+01
  -2.206145e+02  -4.066801e+02
   1.270767e+02  -2.231704e+02
   2.847302e+02   2.784066e+02
  -1.587371e+01   4.141004e+02
  -4.656954e+02   1.654643e+02
  -5.821281e+02  -3.446294e+02
  -2.105760e+02  -5.712591e+02
   3.317959e+02  -3.336632e+02
   6.251530e+02   8.868747e+01
   4.184680e+02   3.037879e+02
  -8.673545e+01   3.288053e+02
  -3.941150e+02   1.283336e+02
  -2.758056e+02  -5.984733e+01
   4.585228e+00  -9.768741e+01
   1.105817e+02  -1.412676e+01
  -8.204291e+01   1.078869e+02
  -2.671042e+02  -1.338283e+01
  -1.520661e+02  -2.462116e+02
   1.078004e+02  -2.659928e+02
   3.205213e+02  -1.172422e+02
   2.593732e+02   8.850505e+01
  -6.982046e+01   2.774846e+02
  -2.360763e+02   3.535678e+02
  -3.078118e+02   1.896933e+02
  -2.979373e+02  -1.167124e+02
  -1.113668e+02  -3.585561e+02
   2.921894e+01  -3.470035e+02
   6.654177e+01  -2.064823e+02
   7.538206e+01  -7.292344e+01
   1.023128e+02  -9.281920e+01
   2.047985e+02  -5.164491e+01
   2.390493e+02   1.043134e+02
   1.073831e+02   2.738413e+02
  -6.644973e+01   2.112174e+02
  -2.210284e+02   2.469755e+01
  -1.648462e+02  -1.994252e+02
   2.522984e+01  -2.082277e+02
   2.014009e+02  -8.235388e+01
   2.963845e+02   1.126025e+02
   1.649184e+02   2.578270e+02
  -7.336793e+01   2.711772e+02
  -1.938481e+02   1.783889e+02
  -1.568671e+02   8.369860e+01
  -1.464590e+02   1.367969e+01
  -2.822493e+02   4.358155e+01
  -4.121614e+02  -9.190011e+01
  -3.421643e+02  -3.417834e+02
   3.382613e+01  -4.517898e+02
   3.988692e+02  -4.292307e+02
   5.037399e+02  -1.836518e+02
   3.206550e+02   7.649917e+01
   6.526620e+01   2.703067e+02
  -9.301653e+01   2.384298e+02
  -4.114366e+01   2.160011e+01
   9.834001e+01  -8.455403e+01
   1.314597e+02   6.663179e+01
   1.909815e-01   1.377964e+02
  -1.265199e+02   1.220298e+02
  -1.140650e+02  -6.953443e+01
   6.328872e+01  -1.739539e+02
   1.694489e+02  -2.369081e+01
   1.822202e+02   2.444226e+02
  -2.213091e+01   2.998900e+02
  -2.458270e+02   1.974508e+02
  -3.510141e+02  -7.783400e+01
  -2.747809e+02  -1.994637e+02
  -6.281367e+01  -2.299668e+02
   1.370364e+02  -1.277223e+02
   8.275810e+01   3.753559e+00
   2.344681e+01  -2.259923e+01
  -5.506619e+01  -9.459429e+01
  -2.823751e+01  -1.453245e+02
   1.630574e+02  -9.097080e+01
   1.457055e+02  -3.558341e-01
   1.472012e+01   6.993074e+01
  -9.660697e+01   5.034711e+01
  -2.962601e+01  -8.314096e+01
   1.564323e+02  -1.184193e+02
   3.306250e+02  -9.474866e+00
   2.927072e+02   1.414142e+02
   7.105443e+01   2.794422e+02
  -1.692097e+02   2.520477e+02
  -2.697741e+02   1.287376e+02
  -1.745599e+02  -3.174694e+01
  -8.593028e+00  -1.239295e+02
   5.523981e+01   3.810071e+01
  -3.957575e+01   9.077456e+01
  -1.713847e+02   8.239454e+01
  -1.979204e+02  -9.935577e+01
  -3.026514e+01  -2.094846e+02
   4.811649e+01  -2.264894e+02
   1.630444e+02  -5.537618e+01
   9.008435e+01   4.769498e+01
  -2.376604e+01   4.156962e+01
  -3.597795e+01  -8.933902e+01
   9.197821e+01  -1.168208e+02
   1.560247e+02  -2.380963e+01
   1.691516e+02   1.289656e+02
  -1.055114e+01   2.201147e+02
  -1.730089e+02   1.519317e+02
  -1.969773e+02   2.162452e+01
  -3.893187e+01  -1.107189e+02
   7.182159e+01  -1.251114e+02
   9.020362e+01  -7.541532e+01
   2.271563e+01  -9.445836e+00
  -2.033656e+01   1.317082e+01
  -3.857599e+00  -1.976359e+01
   8.881376e+01   1.312025e+01
   1.220212e+02   1.180950e+02
  -1.236661e+01   1.703185e+02
  -1.579662e+02   1.365150e+02
  -2.512575e+02   7.288050e+00
  -2.433143e+02  -1.973761e+02
  -4.533946e+01  -2.698703e+02
   1.326691e+02  -1.991445e+02
   1.366244e+02   1.763667e+01
   7.354301e+01   3.356304e+01
   2.604796e+01   1.290232e+01
   4.694776e+01  -7.990477e+00
   7.111794e+01  -4.115943e+01
   5.038611e+01   4.032327e+01
  -3.986595e+01   9.241583e+01
  -5.438174e+01   6.597502e+01
  -5.011085e+01   1.450818e+01
   2.555255e+01  -1.146086e+02
   1.901911e+02  -5.238655e+01
   2.131153e+02   6.011693e+01
   1.172795e+02   2.342714e+02
  -1.244747e+02   2.187106e+02
  -2.528179e+02   1.077225e+02
  -2.770438e+02  -9.483402e+01
  -1.534290e+02  -1.966160e+02
   5.876006e+01  -1.234572e+02
   7.817882e+01  -8.643298e+01
   4.057644e+01  -1.048150e+02
   4.540894e+01  -1.015615e+02
   6.482801e+01  -8.792107e+01
   1.450309e+02   2.230871e+01
   1.520361e+02   1.452106e+02
   5.325581e+01   2.450350e+02
  -1.017963e+02   2.082578e+02
  -1.963933e+02  -1.452529e+01
  -1.165044e+02  -1.050346e+02
   3.730442e+01  -1.546907e+02
   6.777143e+01  -6.636630e+01
   1.071874e+02   2.405388e+01
   3.188430e+01   5.385230e+01
  -8.367859e+01   6.332733e+01
   4.747064e+01  -1.235772e+00
   5.027841e+01   2.999267e+01
   2.965122e+01   4.397722e+01
  -5.595313e+01   4.916452e+01
  -1.626190e+02   7.863366e+00
  -1.302859e+02  -1.561251e+01
   3.020034e+01  -9.504166e+01
   1.275040e+02  -6.754070e+01
   1.645534e+02   3.012165e+01
   7.805273e+00   8.744936e+01
  -8.026798e+01   2.559038e+01
  -1.005888e+02   2.338285e+01
  -5.303947e+01  -7.913013e+01
   8.301602e+01  -3.274013e+01
   9.338063e+01  -3.523672e+01
   6.515666e+01   7.303057e+01
   7.068758e+01   5.420098e+01
   9.864145e+01  -4.497795e+01
   6.528940e+01   2.257397e+01
   7.576228e+01   8.515386e+01
  -3.760461e+01   1.669947e+02
  -1.950791e+02   1.840514e+02
  -1.969164e+02   3.067405e+01
  -1.628674e+02  -5.703356e+01
  -6.382142e+00  -1.304199e+02
   9.235072e+01  -1.144519e+02
   7.746270e+01   2.891793e+01
  -5.058851e+01   5.890062e+00
  -1.081708e+02  -4.761039e+01
  -7.146282e+01  -2.743413e+01
   6.641533e+01  -7.296660e+01
   1.565221e+02  -4.405782e+01
   1.791351e+02   3.449481e+01
   6.081859e+01   7.734822e+01
  -6.869817e+01   7.847947e+01
  -3.970614e+01   3.632196e+00
  -3.149461e+00  -6.064430e+00
   7.344280e+01   6.999454e+01
   2.091923e+01   1.512505e+02
  -8.640918e+01   1.331905e+02
  -1.758982e+02   6.773580e+01
  -1.023583e+02  -1.009061e+02
  -1.510704e+01  -2.238560e+02
   7.272946e+01  -1.259244e+02
   7.823186e+01   7.350936e+00
   1.717386e+01   1.171755e+02
  -4.501972e+00   8.057767e+01
  -5.179626e+01   3.228278e+01
  -7.326267e+00  -3.157125e+00
   2.646096e+01   4.923938e+01
  -6.049903e+01   4.945298e+01
  -3.331245e+01   2.202135e+00
  -4.652637e+01  -6.939834e+01
  -3.381955e+01  -1.199753e+02
   6.530018e+01  -2.481024e+01
   1.363221e+02   3.748999e+01
   1.236300e+02   8.014237e+01
   2.863904e+00   4.696928e+01
  -9.888635e+01  -3.564811e+01
  -1.164218e+02   1.023545e+01
  -3.095347e+01   8.579843e+00
   7.562093e+01  -1.170186e+00
   3.183203e+01  -1.850531e+00
   1.778078e+01  -5.770500e+00
   6.060207e+00   2.666885e+01
   8.865603e+01  -3.024846e+01
   1.074368e+02   1.882481e+01
   1.065441e+01   1.290099e+02
  -1.352266e+02   1.334437e+02
  -2.126870e+02   5.495832e+01
  -1.742814e+02  -6.378785e+01
  -2.599813e+01  -1.167820e+02
   1.090035e+02  -1.638691e+02
   1.303159e+02  -5.684452e+01
   5.630138e+01   1.541752e+01
  -4.574246e+00   3.437343e+01
   1.644060e+01   2.658100e-01
   3.388291e+00   2.721022e+01
   9.671682e-01   2.207221e+01
   3.529768e+01   1.042083e+02
  -5.458763e+01   6.857257e+01
  -8.183440e+01  -6.540112e+00
  -7.646286e+01  -1.137679e+02
   6.543980e+00  -1.181423e+02
   6.656359e+01  -4.725129e+01
   1.059033e+02   1.300527e+02
   8.708942e+01   1.134348e+02
  -6.384517e+01   1.035245e+02
  -1.526292e+02  -2.205546e+01
  -3.786459e+01  -3.607605e+01
   3.805325e+01  -8.606763e+01
   4.678498e+01  -5.600761e+01
  -1.140550e+01  -1.460298e+01
  -5.007306e+01  -5.136191e+01
  -1.671581e+01  -5.085340e+01
   6.603987e+01  -5.680623e+01
   1.243128e+02  -5.125379e+01
   8.339875e+01   3.036858e+01
  -2.830284e+01   9.869556e+01
  -8.800761e+01   1.000601e+02
  -6.775082e+01  -1.065959e+01
   2.290811e+01  -8.371274e+01
   1.128856e+01  -4.552627e+01
   5.271258e+01   2.344991e+01
   4.760787e+01   2.655918e+01
  -1.589903e+01   2.862334e+01
  -4.149203e+01  -3.974146e+01
  -7.250930e+01  -3.702288e+01
  -2.600056e+01   1.025918e+01
  -8.792477e+00   3.805166e+01
   1.888722e+01   1.453561e+01
   6.433291e+01  -4.389419e+01
   1.871710e+01  -5.245803e+01
  -3.701402e+00  -4.447086e+00
   2.316089e+01   2.551449e+01
  -4.332743e+01   9.960206e+01
  -5.567753e+01   3.495328e+01
  -5.248158e+01   3.845883e+01
  -1.230779e+01  -7.717056e+01
   4.595972e+01  -7.347365e+01
   1.144062e+02  -1.549229e+01
   6.887948e+01   4.089472e+01
  -4.393823e+01   3.657323e+00
  -7.059911e+01   2.569119e+01
  -1.807607e+01   2.417492e+01
   5.393656e+01   1.294419e+01
  -9.965924e+00   1.452510e+01
  -2.470236e+01   6.121467e+01
  -8.844983e+01   3.594424e+01
