
 $NMID
 id='ANONYMOUS ', fmtdat='(2E16.6)'
 volume=1.0
 tramp=1.0
 $END
   4.600356e+03   1.612261e+02
   2.496895e+03   2.784397e+03
  -8.751420e+02   2.854020e+03
  -2.125565e+03   9.646919e+02
  -1.028523e+03  -8.821699e+02
   7.201514e+02  -4.936552e+02
   9.401007e+02   4.088301e+02
   9.366497e+01   1.193449e+03
  -8.434200e+02   9.097929e+02
  -1.069474e+03  -3.951933e+01
  -4.532896e+02  -9.607920e+02
   4.397522e+02  -9.847093e+02
   7.488787e+02  -2.239904e+02
   5.259171e+02   8.920026e+02
  -1.770409e+02   6.992554e+02
  -5.490095e+02  -9.830063e+00
  -1.983056e+02  -8.778538e+02
   4.675316e+02  -7.503008e+02
   6.892955e+02  -1.930499e+02
   4.179009e+02   5.537492e+02
  -3.628144e+01   6.403071e+02
  -3.353965e+02   2.095538e+02
  -3.726988e+02  -1.537887e+02
   2.558622e+02  -7.298212e+01
   4.955823e+02   1.148087e+02
   1.545731e+02   3.741943e+02
  -3.527761e+02   4.138517e+02
  -9.119654e+02   6.385222e+01
  -4.926518e+02  -4.516433e+02
   4.396106e+02  -5.498895e+02
   7.670809e+02   1.389965e+02
   3.449199e+02   5.696474e+02
  -2.884967e+02   5.055192e+02
  -5.417355e+02   1.256014e+02
  -4.017451e+02  -2.078075e+02
  -9.108570e+01  -5.006904e+02
   1.502129e+02  -3.255584e+02
   1.682038e+02   2.528740e+02
  -2.661572e+02   4.605001e+02
  -4.622764e+02  -8.121535e+01
  -1.637304e+02  -8.024477e+02
   4.024701e+02  -6.999214e+02
   7.089157e+02   3.706823e+01
   2.598158e+02   5.981346e+02
  -3.623691e+02   3.340711e+02
  -4.393563e+02  -3.243726e+02
   8.129929e+01  -5.464581e+02
   5.937604e+02  -1.381057e+02
   7.025891e+02   4.122528e+02
   1.793230e+02   6.337473e+02
  -4.310412e+02   3.225345e+02
  -6.914285e+02  -1.126365e+02
  -3.610252e+02  -4.071909e+02
   2.157880e+02  -3.305714e+02
   4.420192e+02   4.150028e+00
   1.887967e+02   1.802004e+02
  -1.657789e+02   1.153016e+02
  -1.297267e+02  -1.909174e+02
   1.968203e+02  -1.945445e+02
   3.843864e+02  -8.188598e+00
   1.837304e+02   2.691713e+02
  -2.201213e+02   2.724504e+02
  -3.119505e+02   1.298216e+02
  -1.988270e+02  -1.240897e+01
  -1.510682e+01  -2.001576e+02
   1.816062e+02  -3.066014e+02
   2.710788e+02  -2.710441e+02
   2.727458e+02   1.229790e+02
   9.716297e+01   4.135552e+02
  -8.613180e+01   3.416276e+02
  -1.306010e+02   8.366593e+01
  -2.541958e+01  -3.996451e+01
  -1.638503e+01   1.523532e+02
  -1.830090e+02   1.679742e+02
  -2.784726e+02  -2.124597e+01
  -2.147594e+02  -2.913759e+02
   4.108601e+00  -2.724275e+02
   2.022579e+02  -5.806550e+01
   2.634803e+02   2.035966e+02
   4.664288e+01   3.026492e+02
  -2.716791e+02   1.096612e+02
  -3.856065e+02  -1.495102e+02
  -2.044500e+02  -3.607223e+02
   1.178515e+02  -3.092445e+02
   2.276102e+02  -9.049361e+01
   1.258972e+02  -4.659941e-01
   6.350130e+01  -3.500708e+01
   2.667904e+02  -7.457177e+01
   4.132133e+02   3.248586e+01
   3.136866e+02   2.747136e+02
  -1.252646e+00   4.446866e+02
  -3.462184e+02   3.817920e+02
  -4.692100e+02   2.008575e+02
  -3.395659e+02  -1.142233e+02
  -6.918900e+01  -3.471495e+02
   8.668654e+01  -3.168483e+02
   1.336308e+02  -9.999725e+01
  -7.736243e+01   5.406907e+01
  -1.606542e+02   2.604614e+00
  -7.984218e+01  -1.636899e+02
   1.601218e+02  -2.155615e+02
   2.091921e+02   3.885628e+01
   1.905089e+01   2.382063e+02
  -2.287406e+02   4.188016e+01
  -1.593751e+02  -2.928112e+02
   5.352945e+01  -3.680600e+02
   2.557870e+02  -2.047317e+02
   3.369707e+02   1.211052e+02
   2.708077e+02   3.073680e+02
   8.470130e+01   2.796758e+02
  -9.891831e+01   1.306926e+02
  -2.093611e+02  -1.540388e+01
  -5.342707e+01  -3.608181e+01
   7.275048e+01   4.007290e+01
   3.925480e+01   1.620375e+02
  -1.141395e+02   1.374326e+02
  -1.575284e+02  -6.044797e+01
  -7.784597e+01  -1.093233e+02
   9.149633e+01  -6.582385e+00
   7.277994e+01   1.095829e+02
  -1.474592e+02   1.318463e+02
  -3.207192e+02  -5.515772e+00
  -3.298521e+02  -1.956014e+02
  -5.756977e+01  -2.918090e+02
   2.407804e+02  -3.063547e+02
   3.379988e+02  -1.657219e+02
   1.756230e+02   1.007484e+02
  -2.908402e+01   9.683231e+01
  -1.178612e+02   4.387732e+00
   2.060259e+01  -1.026378e+02
   2.114358e+02  -1.169727e+02
   2.131430e+02   8.314882e+01
   6.881896e+01   2.280884e+02
  -1.219801e+02   1.725462e+02
  -1.884663e+02   1.536693e+01
  -8.619812e+01  -5.313274e+01
   3.454495e+01  -1.033551e+01
   5.139233e+01   1.169743e+02
  -5.911916e+01   1.123561e+02
  -1.597843e+02   2.387060e+01
  -1.703029e+02  -1.416531e+02
  -3.356472e+01  -2.372962e+02
   1.403422e+02  -1.847650e+02
   2.397699e+02   3.105211e+01
   4.461273e+01   1.668520e+02
  -8.293887e+01   1.138741e+02
  -9.254229e+01  -3.566276e+01
  -5.105365e+01  -8.205696e+01
   4.175489e+01  -5.474185e+01
   2.345796e+01  -9.239339e+00
  -3.866898e+01   2.868332e+01
  -7.298343e+01  -2.447027e+01
   6.488621e-01  -1.664899e+02
   1.357521e+02  -1.131863e+02
   2.410926e+02  -3.508009e+01
   2.117772e+02   1.453453e+02
  -2.069444e+01   2.361067e+02
  -1.443611e+02   1.463727e+02
  -1.699103e+02   4.508152e+01
  -6.085051e+01  -5.939321e+01
   2.504510e+01  -3.695964e+01
  -5.366861e+01   4.041226e+00
  -1.023305e+02   2.065505e+01
  -1.093861e+02  -6.174045e+01
   1.487635e+01  -7.019358e+01
   7.845808e+01  -9.272368e+01
   1.101854e+02   1.331403e+01
   3.847322e+00   9.966923e+01
  -1.306127e+02   1.124888e+02
  -1.848553e+02  -5.161173e+01
  -7.378305e+01  -1.920112e+02
   8.580092e+01  -2.410886e+02
   2.301892e+02  -9.232288e+01
   2.615469e+02   1.282444e+02
   1.147714e+02   1.849663e+02
  -1.197158e+01   1.223727e+02
  -1.303497e+02   3.422125e+01
  -7.374900e+01   6.374862e+01
  -6.290458e+01   8.111137e+01
  -7.888611e+01   1.097086e+02
  -9.305442e+01  -1.603422e+01
  -9.964685e+01  -1.753114e+02
  -1.180919e+01  -2.292824e+02
   1.397651e+02  -1.468710e+02
   2.072338e+02  -4.633345e+01
   1.548318e+02   1.776244e+02
   8.233529e+00   2.187330e+02
  -9.654837e+01   1.179722e+02
  -9.417953e+01  -4.260297e-01
  -2.806277e+01  -7.781328e+01
   6.557673e+00  -6.054923e+01
  -6.096364e+01   1.498412e+00
  -1.099737e+02   9.372278e+00
  -9.211763e+01  -1.786844e+01
   8.946560e+01  -4.260745e+01
   1.413104e+02  -6.240874e+01
   1.468313e+02   5.758141e+01
  -3.724144e+01   9.082358e+01
  -9.384301e+01   7.205431e+01
  -1.605421e+02  -2.714292e+00
  -2.070741e+01  -8.803314e+01
   5.825823e+01  -4.037029e+01
   8.038364e+01   4.364702e+01
  -6.860543e+00   1.373682e+02
  -7.173691e+01   2.032868e+01
  -1.926410e+01  -6.913967e+01
  -6.113552e+01  -5.770882e+01
  -2.675970e+01  -4.531478e+01
  -4.808291e+01   4.958915e+01
  -1.185207e+01   6.805582e+01
  -7.523716e+01  -4.021439e+01
  -2.031875e+01  -1.291425e+02
   5.946394e+01  -1.490842e+02
   1.593689e+02  -5.126375e+01
   7.288281e+01   5.462340e+01
   2.034163e+00   1.208276e+02
  -8.216505e+01   5.460449e+01
  -1.763817e+01  -4.799691e+00
   9.367075e+01   2.993972e+00
   1.422814e+02   1.972938e+01
   1.790419e+01   6.325027e+01
  -1.160891e+02   1.226058e+02
  -1.545058e+02   3.397674e+01
  -1.082169e+02  -6.345310e+01
  -4.726355e+01  -1.071197e+02
   6.153346e+01  -7.859053e+01
   1.118790e+02  -2.888389e+01
  -4.957324e+01   1.582022e+01
  -6.840087e+01   3.999713e+00
  -3.173968e+00  -1.412681e+02
   1.383407e+02  -1.341165e+02
   1.741935e+02  -2.549834e+01
   1.216449e+02   1.195530e+02
  -2.403189e+01   1.892913e+02
  -1.084492e+02   1.451213e+02
  -1.253902e+02  -2.591957e+01
  -5.334695e+01  -8.153969e+01
  -1.880651e+01  -1.323249e+02
   3.616773e+01  -3.479925e+01
   3.166236e+01   3.955840e+01
   2.655238e+00   1.431866e+01
   2.575111e+01  -2.745192e+01
  -4.404398e+00  -5.538317e+00
   7.607681e+00   7.402382e+01
   2.386174e+01   1.064080e+02
  -6.789817e+01   1.457112e+01
  -1.184442e+02  -4.355474e+01
  -7.483715e+01  -7.449673e+01
   3.175352e+01  -5.632935e+01
   8.089112e+01  -6.791798e+00
   5.298283e+01   3.178990e+01
   4.074682e+01   3.708863e+01
  -1.393338e+01   4.429476e+01
   2.138082e+01  -8.302679e+00
   2.602662e+01  -2.768307e+01
   6.933360e+00  -4.437801e+01
  -9.993781e+01  -1.736403e+00
  -1.133705e+02   6.456275e+00
   3.256168e+01  -9.489761e+01
   1.664759e+02  -1.033782e+02
   2.150209e+02  -3.808656e+01
   1.811845e+02   6.249947e+01
   3.998165e+01   1.847294e+02
  -8.482012e+01   1.285100e+02
  -1.235193e+02   7.349488e+01
  -1.069586e+02  -1.853019e+01
  -2.353198e+01  -5.259786e+01
   2.262246e+01  -2.367506e+01
  -2.521367e+01  -5.294837e+01
  -1.502543e+01  -4.644250e+01
   3.072624e+00  -1.055985e+02
   2.744418e+01  -5.513179e+01
   7.170490e+01   2.863828e+01
   4.203321e+01   9.629756e+01
  -1.600691e+01   9.026129e+01
  -1.055932e+02   2.564574e+01
  -8.324789e+01  -1.380092e+02
   7.715500e+00  -1.267276e+02
   7.748171e+01  -2.900032e+01
   1.202351e+02   1.031872e+01
   4.349041e+01   7.981270e+01
  -3.440810e+01   4.346649e+01
  -5.277134e+01   4.073735e+01
   3.585820e+01   2.409458e+01
   9.062138e+01   3.521367e+00
   9.147588e+00   6.742844e-01
  -8.643343e+01   5.247649e+01
  -1.286071e+02   8.513892e+01
  -7.445749e+01   2.050837e+00
  -2.408497e+01  -6.850666e+01
   4.362982e+01  -6.822828e+01
  -8.646588e+00   2.158339e+01
   1.667010e+01   5.562169e+01
  -1.274975e+01   5.569145e+01
  -3.052976e+01  -1.041359e+01
  -3.362663e+01  -1.535082e+01
  -2.624421e+01  -3.849964e+01
   6.957853e+01  -2.359292e+01
   6.093780e+01   1.216707e+00
   2.704667e+01  -5.914007e+00
  -1.901523e+01  -6.577492e+00
   2.963863e+00   1.841744e+01
  -2.661042e+01   3.565104e+01
  -4.055208e+01   7.524521e+01
  -7.331879e+01  -5.170287e+01
   2.507581e+00  -1.921257e+01
   1.834452e+01  -8.012004e+01
   3.550782e+01  -1.635539e+01
   3.075741e+01   5.571820e+01
   1.047602e+00   5.912226e+01
  -7.427161e+01   1.380725e+01
  -4.518300e+01  -6.730152e+01
  -6.825879e+01  -4.128829e+01
   4.255643e+01  -2.511734e+01
   7.273472e+01   1.406069e+01
  -1.313708e+01   2.608936e+01
  -4.426734e+01   7.855113e+00
  -2.838607e+01  -1.232601e+01
   2.009570e+01  -1.244106e+01
   7.272672e+01  -2.132000e+01
