
 $NMID
 id='ANONYMOUS ', fmtdat='(2E16.6)'
 volume=1.0
 tramp=1.0
 $END
   4.218931e+03   1.694877e+02
   2.339022e+03   2.596510e+03
  -9.368889e+02   2.989436e+03
  -2.203455e+03   7.424916e+02
  -8.536810e+02  -7.511947e+02
   8.370838e+02  -7.029313e+02
   1.037768e+03   3.175690e+02
   7.426002e-01   1.157438e+03
  -7.812687e+02   7.778622e+02
  -9.919118e+02  -6.761269e+01
  -5.403811e+02  -8.908495e+02
   2.306601e+02  -8.525498e+02
   6.539080e+02   8.564966e+00
   3.327773e+02   7.202138e+02
  -4.084229e+02   7.525998e+02
  -8.586996e+02  -1.096122e+02
  -2.281871e+02  -5.471311e+02
   4.430392e+02  -6.885825e+02
   5.587754e+02   6.349627e+01
   2.713375e+02   5.039868e+02
  -1.231328e+02   5.368490e+02
  -2.774962e+02   2.753641e+02
  -3.690067e+02  -6.727849e+01
   2.380638e+02  -1.447429e+02
   4.585819e+02   8.729338e+01
   2.033298e+02   4.808563e+02
  -4.706121e+02   4.448671e+02
  -9.242160e+02  -9.239983e+01
  -4.723643e+02  -6.348113e+02
   5.447539e+02  -5.542841e+02
   8.909895e+02   1.611968e+02
   3.771453e+02   4.632094e+02
  -3.434795e+02   5.928943e+02
  -6.026317e+02   1.554709e+02
  -3.604632e+02  -1.706408e+02
  -7.093504e+01  -4.900918e+02
   2.849174e+02  -2.843704e+02
   2.285889e+02   2.949047e+02
  -1.795163e+02   5.243114e+02
  -5.066996e+02  -2.446403e+01
  -2.260334e+02  -8.286396e+02
   3.957641e+02  -7.738311e+02
   7.652622e+02   6.877634e+01
   2.328461e+02   6.602812e+02
  -4.273992e+02   3.849890e+02
  -4.750499e+02  -3.521913e+02
   1.076723e+02  -5.898291e+02
   5.825804e+02  -1.754410e+02
   5.626678e+02   4.597271e+02
   1.255516e+02   6.543540e+02
  -4.078968e+02   4.023999e+02
  -6.948238e+02  -1.048273e+02
  -4.480497e+02  -4.690992e+02
   1.404077e+02  -4.523368e+02
   5.135862e+02  -9.730972e+01
   3.075775e+02   2.042371e+02
  -1.181855e+02   1.151180e+02
  -2.118936e+02  -1.665081e+02
   1.601159e+02  -2.090215e+02
   3.816785e+02   2.725203e+01
   1.730066e+02   3.048890e+02
  -1.855423e+02   3.155707e+02
  -3.028304e+02   1.297989e+02
  -1.941317e+02  -6.978274e+01
  -3.304220e+01  -2.328038e+02
   1.392997e+02  -3.343812e+02
   3.763227e+02  -2.292900e+02
   3.721881e+02   1.387687e+02
   1.053734e+02   4.830128e+02
  -1.843516e+02   4.177283e+02
  -1.860236e+02   1.000943e+02
  -1.500479e+01  -6.538023e+01
   1.033830e+01   8.061836e+01
  -1.808690e+02   1.656822e+02
  -3.160713e+02  -3.270654e+01
  -1.521519e+02  -2.948471e+02
   9.606191e+01  -2.908596e+02
   2.266367e+02   2.071923e-02
   1.781823e+02   2.820624e+02
   1.839744e+01   3.021598e+02
  -2.560487e+02   9.716557e+01
  -3.911173e+02  -1.742272e+02
  -2.246849e+02  -3.426683e+02
   1.506737e+02  -3.374668e+02
   2.883710e+02  -1.607324e+02
   2.009446e+02   4.136992e+01
   8.074826e+01   2.634687e+01
   2.107609e+02  -3.896233e+01
   3.909654e+02   5.732885e+01
   3.208821e+02   2.725386e+02
  -1.526958e+01   4.481386e+02
  -3.705210e+02   4.256984e+02
  -5.018190e+02   2.396277e+02
  -3.090659e+02  -9.212311e+01
  -6.837184e+01  -3.250606e+02
   1.224338e+02  -3.176375e+02
   1.142090e+02  -7.457207e+01
  -7.908172e+01   1.169936e+02
  -2.169478e+02   5.023232e+01
  -8.097992e+01  -1.649533e+02
   1.782665e+02  -2.054074e+02
   2.213192e+02   6.860844e+01
  -3.992157e+01   2.099017e+02
  -2.280830e+02  -6.409769e+00
  -2.252026e+02  -2.853258e+02
   1.250360e+00  -3.172434e+02
   2.554939e+02  -1.864061e+02
   3.504895e+02   7.248508e+01
   3.065297e+02   2.216999e+02
   1.369351e+02   2.986837e+02
  -9.999474e+01   2.272686e+02
  -2.326144e+02   7.159383e+01
  -1.284059e+02  -1.078487e+01
   3.655031e+01   1.250595e+01
   7.592734e-01   1.210323e+02
  -1.069699e+02   1.208634e+02
  -1.902542e+02   1.795194e+00
  -5.387243e+01  -5.111107e+01
   6.394105e+01  -5.960396e+01
   3.377597e+01   5.785579e+01
  -1.144841e+02   5.974380e+01
  -2.795547e+02   3.528502e+01
  -2.532619e+02  -1.100634e+02
  -4.662130e+01  -2.636274e+02
   2.027068e+02  -3.341746e+02
   2.945538e+02  -1.624149e+02
   1.789183e+02   2.295274e+01
  -2.113995e+00   1.513058e+02
  -6.716138e+01   5.253250e+01
   6.005343e+01  -8.618745e+01
   1.999354e+02  -7.109814e+01
   2.198061e+02   1.372459e+02
   1.053952e+02   2.626973e+02
  -1.153199e+02   2.199359e+02
  -1.824253e+02   6.887498e+01
  -1.135960e+02  -1.732918e+01
   4.522164e+01  -2.292680e+01
   6.328136e+01   1.037632e+02
  -3.944367e+01   8.208387e+01
  -1.750404e+02   3.405529e+01
  -2.159812e+02  -1.250273e+02
  -7.848139e+00  -2.314042e+02
   2.175562e+02  -1.623191e+02
   2.076237e+02   3.727378e-01
   5.225571e+01   1.167782e+02
  -5.782683e+01   1.090054e+02
  -1.037553e+02   5.413217e+01
  -7.356771e+01  -1.961285e+01
   1.134536e+01  -3.026276e+01
  -8.216839e+00  -5.070951e+00
  -4.470089e+01  -6.887366e+01
  -1.176950e+02  -1.099669e+02
  -1.072596e+01  -1.676961e+02
   1.188760e+02  -1.604217e+02
   2.528966e+02  -3.442070e+01
   2.329315e+02   1.612617e+02
   5.285868e+01   2.328908e+02
  -1.521516e+02   1.596560e+02
  -1.321999e+02   4.305045e+01
  -9.767830e+01  -5.423438e+01
  -4.380240e+00  -5.385041e+01
  -5.754576e+01   4.003468e+00
  -5.062817e+01  -4.157347e+00
  -2.881643e+01  -1.926525e+01
   8.878240e+01  -8.439318e+01
   1.384005e+02  -3.546952e+01
   9.317598e+01   4.593216e+01
  -1.596002e+01   1.201570e+02
  -1.449452e+02   8.001110e+01
  -2.143710e+02  -6.114753e+01
  -1.105154e+02  -2.098973e+02
   9.887768e+01  -2.943472e+02
   2.695844e+02  -1.387900e+02
   2.716475e+02   8.895365e+01
   1.372561e+02   1.978822e+02
  -7.483782e+01   1.286742e+02
  -1.130122e+02   3.306663e+01
  -6.497705e+01   4.508162e+01
  -5.161769e+01   1.207796e+02
  -5.540945e+01   6.592747e+01
  -1.212272e+02   3.801701e+00
  -1.647802e+02  -1.473575e+02
  -8.273167e+01  -2.599753e+02
   1.158783e+02  -1.961672e+02
   2.135719e+02  -6.971486e+00
   1.397939e+02   1.267162e+02
   4.462754e+01   1.371493e+02
  -6.248852e+01   1.078523e+02
  -6.008562e+01   4.628980e+01
  -2.353020e+01  -3.116611e+01
   3.764626e+01  -6.621969e+01
  -2.793826e+01   9.715232e+00
  -7.782363e+01  -1.492357e+01
  -7.430739e+01  -3.274756e+01
   7.207347e+01  -6.171513e+01
   1.498957e+02  -1.461579e+01
   1.606662e+02   2.405772e+01
   4.241474e+01   7.803820e+01
  -1.229617e+02   6.698276e+01
  -1.833625e+02  -1.775858e+01
  -5.547471e+01  -4.389123e+01
   7.878336e+00  -2.193046e+01
   7.134744e+01  -1.769213e+01
   4.623622e+01   1.562366e+01
  -2.900529e+01   6.736178e+01
  -9.423733e+01  -5.225400e+00
  -2.139034e+01  -7.280096e+01
  -4.514782e+01  -2.793517e+01
  -3.277459e+01   4.188543e+01
  -3.518184e+01   3.008588e+01
  -8.319361e+00  -5.421615e+01
   3.797245e+01  -1.361054e+02
   8.925474e+01  -1.471261e+02
   1.428467e+02  -5.347235e+01
   1.554243e+02   1.102467e+02
   2.075338e+01   1.361498e+02
  -7.884682e+01   8.786078e+01
  -9.096400e+01  -3.699261e+01
   7.691457e+01  -2.370652e+01
   1.240644e+02   3.442848e+01
   5.192907e+01   7.029125e+01
  -1.086208e+02   1.219419e+02
  -1.900769e+02   3.453340e+01
  -2.024009e+02  -4.920638e+01
  -4.392151e+01  -1.151678e+02
   6.601239e+01  -6.928032e+01
   5.791561e+01  -1.545873e+01
  -5.594994e+01   4.102702e+01
  -9.098862e+01  -7.310577e+00
  -5.460338e+01  -9.901294e+01
   6.224420e+01  -1.325434e+02
   1.557802e+02  -7.231819e+01
   1.351692e+02   1.050396e+02
   1.069743e+01   2.048065e+02
  -1.153616e+02   1.437731e+02
  -1.285325e+02  -2.817945e+01
  -5.754387e+01  -1.058455e+02
   1.624309e+01  -1.396030e+02
   9.523475e+01  -3.396521e+01
   4.162732e+01   2.044431e+01
   5.092161e+01   1.957455e+01
  -1.038751e+01  -5.636733e+01
   1.750460e+01   5.028733e+01
   1.267342e+01   6.055598e+01
   7.716570e+01   7.419719e+01
  -2.350703e+01   2.965630e+01
  -1.409470e+02   6.529127e+00
  -1.414757e+02  -3.069151e+01
  -3.334780e+01  -1.833087e+01
   8.454262e+01   1.487072e+01
   8.402586e+01  -9.665485e+00
   1.141911e+01  -9.756803e+00
  -7.707481e+01   9.859195e+00
  -4.366629e+00   4.180291e+01
   3.265948e+01   1.212945e+01
   2.664749e+01  -7.220136e+01
  -7.923537e+01  -1.528072e+01
  -7.087948e+01  -4.819540e+01
   3.630289e+01  -4.515046e+01
   1.259529e+02  -1.096473e+02
   1.898904e+02  -8.838295e+01
   1.325347e+02   7.876797e+01
   7.507554e-01   1.561758e+02
  -1.101520e+02   1.075598e+02
  -9.139948e+01   6.014123e+01
  -6.963111e+01  -5.109487e+01
  -6.428409e+01  -2.445864e+01
  -4.448776e+01   6.294589e+00
  -2.868032e+01  -8.022147e+00
  -1.309141e+01  -2.406076e+01
  -1.312381e+01  -2.220582e+01
   4.863466e+01  -4.825921e+01
   1.361867e+02  -1.309521e+01
   8.193124e+01   1.238779e+02
   3.529033e+01   1.212548e+02
  -9.603121e+01  -6.527639e+00
  -1.217340e+02  -9.592767e+01
  -1.856153e+01  -1.114033e+02
   8.136822e+01  -4.630840e+01
   8.293593e+01   7.471407e+00
   1.537060e+01   2.561099e+01
  -6.972381e+01   1.872950e+01
  -6.538440e+01   1.744997e+00
   4.326542e+01  -2.663723e+01
   1.183256e+02   2.639348e+01
   3.675043e+01   5.209477e+01
  -4.509355e+01   6.800919e+01
  -1.418647e+02   5.675073e+01
  -8.987928e+01   2.129286e+01
   8.028816e+00  -3.257190e+01
   4.724075e+01  -5.446085e+01
   2.218577e+01  -2.587628e+01
  -1.169235e+01   7.741394e+01
  -7.464785e+01   6.341485e+01
  -6.756613e+01   1.829465e+00
  -1.813096e+01  -4.869060e+01
  -3.497701e+01  -5.491549e+01
  -1.820606e+00  -3.743978e+01
   6.017258e+01   2.358128e+01
   4.906265e+01  -2.382130e+01
   2.448941e+01   1.234039e+01
  -2.174039e+01  -2.239037e+01
  -1.017385e+01   2.188045e+01
  -1.500360e+01  -6.722653e+00
  -1.093119e+01   1.184316e+01
  -2.977747e+01  -3.115152e+01
   2.927427e+01  -3.486813e+01
   3.852453e+01   6.410988e+01
   6.688875e+01   6.441758e+01
  -1.622399e+01   6.162602e+01
  -1.016215e+02   1.988034e+01
  -4.864391e+01  -1.611081e+01
  -3.376822e+01   2.640712e+01
   6.519193e+01  -5.453557e+01
   6.970561e+01   5.559851e+00
   3.164697e+01  -5.377119e+00
  -7.626918e+00   2.698707e+01
  -2.304987e+01  -2.809218e+01
   7.507796e+01  -7.211991e+01
   6.856997e+01  -3.206045e-01
