
 $NMID
 id='ANONYMOUS ', fmtdat='(2E16.6)'
 volume=1.0
 tramp=1.0
 $END
   4.080745e+03   3.620485e+02
   2.400454e+03   2.286102e+03
  -4.346658e+02   2.579776e+03
  -1.928254e+03   9.953725e+02
  -9.547479e+02  -1.678882e+02
   3.019347e+02  -3.753931e+02
   7.855923e+02   3.266795e+02
   6.789513e+01   9.484283e+02
  -7.074315e+02   7.519241e+02
  -1.039115e+03   4.275082e+01
  -4.889334e+02  -7.718484e+02
   9.497203e+01  -7.678620e+02
   5.914052e+02  -2.559708e+02
   2.903041e+02   4.243981e+02
  -2.198699e+02   5.681682e+02
  -5.284076e+02   5.291233e+01
  -2.770215e+02  -8.177733e+02
   1.223072e+02  -8.163607e+02
   5.221255e+02  -9.555430e+01
   5.035365e+02   2.687217e+02
   2.402243e+02   2.649749e+02
  -1.324890e+02   1.083782e+02
  -2.766519e+02  -1.432685e+02
   2.682906e+02  -3.601477e+01
   3.458607e+02   2.215931e+02
   1.016660e+02   3.000013e+02
  -4.305079e+02   3.551205e+02
  -8.096033e+02  -2.586061e+02
  -4.828829e+02  -4.644093e+02
   4.647715e+02  -5.177054e+02
   7.056873e+02   1.751144e+02
   2.812653e+02   5.245018e+02
  -2.452789e+02   4.239219e+02
  -5.428850e+02   9.618630e+01
  -3.085298e+02  -1.450331e+02
  -1.014484e+02  -4.526772e+02
   1.424174e+02  -1.472752e+02
   5.553660e+01   9.477612e+01
  -2.217725e+02   3.060578e+02
  -3.789564e+02  -1.265885e+02
  -8.679439e+01  -5.304496e+02
   2.954838e+02  -4.361949e+02
   5.134431e+02   5.783217e+01
   1.918177e+02   4.177795e+02
  -2.175858e+02   1.572721e+02
  -2.415168e+02  -3.500352e+02
   1.128432e+02  -4.245227e+02
   5.116372e+02  -4.422561e+01
   5.095992e+02   3.563666e+02
   1.500482e+02   5.336630e+02
  -3.155883e+02   3.402176e+02
  -5.415857e+02  -1.031634e+02
  -3.324049e+02  -3.392035e+02
   1.165483e+02  -2.951694e+02
   3.551109e+02  -5.683874e+01
   1.833095e+02   1.163284e+02
  -1.077708e+02   6.217272e+01
  -1.344123e+02  -1.388933e+02
   1.524529e+02  -1.327123e+02
   3.331133e+02   5.583156e+01
   1.561713e+02   2.197399e+02
  -1.462336e+02   2.544177e+02
  -3.010370e+02   1.344882e+02
  -1.887504e+02  -8.293660e+01
   5.300690e+01  -2.562044e+02
   2.592684e+02  -3.125733e+02
   3.619882e+02  -1.137894e+02
   2.558392e+02   2.338584e+02
   7.683835e+01   4.338605e+02
  -9.960281e+01   3.457511e+02
  -9.570019e+01   1.389587e+02
  -4.156755e+01   2.241578e+01
  -1.121262e+02   8.485579e+01
  -2.329792e+02   8.418054e+01
  -2.743788e+02  -3.843988e+01
  -1.075015e+02  -2.178153e+02
   1.028444e+02  -2.022194e+02
   1.749060e+02   3.611567e+01
   1.120602e+02   1.787329e+02
  -5.194841e+01   2.130835e+02
  -2.456135e+02   7.475522e+01
  -2.980192e+02  -1.558463e+02
  -1.398461e+02  -2.831325e+02
   7.778327e+01  -2.711469e+02
   1.955331e+02  -1.416598e+02
   1.704098e+02  -2.916944e+01
   1.275326e+02   1.251288e+01
   2.874274e+02  -3.078345e+01
   4.250714e+02   1.019060e+02
   3.095768e+02   3.137376e+02
  -4.294859e+01   4.418595e+02
  -4.081528e+02   4.246638e+02
  -5.074584e+02   1.971170e+02
  -3.013497e+02  -9.180989e+01
  -1.652459e+01  -2.390182e+02
   1.054340e+02  -1.984514e+02
   4.011795e+01  -4.908413e+01
  -1.574570e+02   5.262207e+01
  -1.626996e+02  -4.930555e+01
  -4.095148e+01  -1.831976e+02
   1.090841e+02  -1.299747e+02
   1.397431e+02   6.856896e+01
   8.384292e+00   1.772843e+02
  -1.255532e+02   9.893997e+00
  -1.259280e+02  -2.508667e+02
   4.617110e+01  -3.395206e+02
   1.959705e+02  -1.884876e+02
   3.034762e+02   9.082098e+01
   2.734575e+02   2.548813e+02
   9.375698e+01   2.468622e+02
  -9.361121e+01   1.008463e+02
  -1.618708e+02  -2.787975e+01
  -6.502632e+01  -1.384494e+01
   3.665199e+01   4.355310e+01
   3.701265e+01   1.366047e+02
  -1.306943e+02   1.091518e+02
  -1.733008e+02  -2.503374e+01
  -4.446337e+01  -5.316684e+01
   1.012496e+02   4.018130e+00
   6.250181e+01   1.067439e+02
  -1.488314e+02   2.418728e+01
  -3.085407e+02  -4.808292e+01
  -2.797427e+02  -1.753214e+02
   9.069186e+00  -2.750719e+02
   2.298100e+02  -2.415960e+02
   3.325141e+02  -8.776969e+01
   2.056616e+02   2.148197e+01
  -4.424683e+01   1.308476e+02
  -9.518326e+01  -2.036798e+01
  -1.347951e+01  -9.328161e+01
   1.670465e+02  -2.335000e+01
   1.951817e+02   1.213702e+02
   5.732708e+01   2.080084e+02
  -1.090477e+02   1.125561e+02
  -1.448043e+02   3.128628e+01
  -8.595981e+01  -6.552941e+01
   5.629716e+01   2.687161e+01
   4.745998e+01   1.185255e+02
  -1.282159e+02   8.396385e+01
  -2.176174e+02   2.275512e+01
  -1.909280e+02  -1.273954e+02
  -6.048502e+01  -1.756085e+02
   1.362792e+02  -1.757765e+02
   1.969926e+02  -3.308104e+01
   7.463612e+01   6.664758e+01
  -3.274908e+01   4.685964e+01
  -7.658621e+01   1.925016e+01
  -4.083466e+00  -6.335502e+01
   4.096703e+01   6.122491e+00
   5.805830e+01   3.654347e+01
  -6.373846e+01   4.089373e+01
  -1.213539e+02  -4.680911e+01
  -1.530751e+01  -1.799812e+02
   1.418242e+02  -1.518053e+02
   1.945236e+02   1.964454e+01
   1.706785e+02   1.537834e+02
   4.122527e+01   2.953097e+02
  -1.199249e+02   1.762290e+02
  -9.134918e+01   3.084192e+01
  -7.539997e+01  -5.911828e+01
  -3.626778e+01  -2.105694e+01
  -3.983377e+01   3.029474e+01
  -4.633441e+01   1.338813e+01
  -6.843272e+01  -1.396052e+01
   5.028864e+01  -1.134034e+02
   7.010828e+01  -6.683387e+01
   3.858717e+01   4.844021e+01
  -5.892792e+01   1.138207e+02
  -1.611962e+02   8.946342e+01
  -1.843085e+02  -7.496928e+01
  -1.126006e+02  -1.797401e+02
   8.533409e+01  -2.344870e+02
   2.425196e+02  -2.076400e+00
   2.898797e+02   1.121275e+02
   1.237347e+02   2.058631e+02
  -5.155819e+01   1.370998e+02
  -1.687091e+02   7.478392e+01
  -1.240000e+02   4.946129e+01
  -5.651961e+01   4.936259e+01
  -6.832180e+01   6.537434e+01
  -1.286525e+02  -8.082142e+00
  -1.269908e+02  -1.669361e+02
  -1.968235e+01  -2.337191e+02
   6.752210e+01  -1.915090e+02
   1.419391e+02   3.669822e+00
   1.011170e+02   1.518548e+02
   1.110084e+01   1.647323e+02
  -5.140273e+01   7.967865e+01
  -3.692231e+01  -3.102965e+01
  -1.921828e+01  -8.434650e+01
  -2.005632e+00  -1.027917e+02
   4.068267e+00  -2.309610e+01
  -8.532379e+01  -2.869404e+01
  -1.452415e+00  -3.068816e+01
   9.575273e+01  -5.929633e+00
   1.749739e+02   3.416801e+01
   1.395346e+02   4.605872e+01
   1.822415e+01   8.659869e+01
  -1.398561e+02   7.352772e+01
  -1.569598e+02   3.589119e+00
  -1.128135e+02  -3.415796e+00
  -8.429620e+00  -3.471088e+01
   4.404603e+01   1.135164e+01
   2.167173e+01   4.148828e+01
  -2.028218e+01   1.339056e+01
   1.041437e+01  -3.407749e+01
   6.736848e+00   6.037593e+00
  -1.301792e+01  -4.381889e+01
  -5.486461e+01   1.359451e+01
  -4.992622e+01   4.780383e+01
  -1.118736e+01  -7.575335e+01
   6.050419e+01  -1.546773e+02
   7.833390e+01  -1.635128e+02
   1.874281e+02  -3.155175e+01
   6.695402e+01   1.270864e+02
  -4.068076e+00   7.856783e+01
  -4.931503e+01   7.539980e+01
  -5.156578e+01   3.249080e+00
   6.879170e+01  -3.490008e+00
   1.051765e+02   5.428038e+01
   2.691127e+01   1.083884e+02
  -1.206829e+02   8.629109e+01
  -2.081774e+02   2.196465e+01
  -1.748385e+02  -5.463786e+01
  -4.260867e+01  -4.802589e+01
   4.927001e+01  -7.560306e+01
   5.846192e+01   9.552118e+00
  -3.710082e+01   5.480366e+01
  -3.501828e+01  -2.181683e+01
  -1.340270e+01  -1.030238e+02
   4.552840e+01  -1.135272e+02
   1.114268e+02  -6.324671e+01
   1.007730e+02   7.817849e+01
   6.218938e+00   1.726377e+02
  -1.178695e+02   8.813261e+01
  -1.144170e+02  -3.549586e+01
  -7.599184e+01  -1.328013e+02
   1.911374e+01  -1.240610e+02
   4.528152e+01  -4.578032e+01
   3.745184e+01   2.863655e+01
   2.124322e+01   2.521761e+01
  -2.717980e+01  -5.544756e+00
   2.738643e+01   3.405013e+01
   4.062633e+01   1.048726e+02
  -1.099359e+01   1.006931e+02
  -9.038167e+01   2.501856e+00
  -1.239415e+02  -9.219057e+01
  -1.166097e+02  -1.079602e+02
   3.019162e+01  -1.154028e+02
   7.046277e+01   2.845803e+01
   4.930848e+01  -2.952675e+01
   5.417887e+01   3.079395e+01
   7.759539e+00  -3.577972e+01
  -4.762278e+01  -2.943704e+01
  -6.471582e+00  -3.905947e-01
  -2.348461e+01   1.701982e+00
  -8.695742e+01  -3.456831e+00
  -9.760667e+01  -4.361107e+00
   3.632987e+01  -8.417530e+01
   1.378579e+02  -8.480693e+01
   1.738402e+02  -2.231275e+01
   1.394441e+02   7.219239e+01
   2.833343e+01   1.488685e+02
  -7.431925e+01   1.148367e+02
  -1.024645e+02   2.783779e+01
  -6.387806e+01  -7.267648e+01
  -1.000920e+02   1.406594e+01
  -2.850924e+01  -2.184000e+00
  -6.021144e+01   3.711374e+01
  -7.409316e+00  -1.127729e+01
  -9.851932e-01  -1.553746e+02
   9.167475e+01  -7.958627e+01
   1.189252e+02   4.796598e+01
   8.670670e+01   1.144180e+02
  -8.801379e-01   1.375036e+02
  -1.502486e+02   4.282924e+01
  -1.362994e+02  -7.687963e+01
  -3.929037e+00  -9.829481e+01
   7.950795e+01  -3.415466e+01
   1.180694e+02   2.947926e+01
   1.246139e+01   6.360860e+01
  -3.506933e+01   5.787334e+01
  -4.009927e+01   2.406121e+01
  -1.234645e+01  -4.139238e+01
   8.116955e+01   2.383730e+01
   7.750346e+00  -8.579306e+00
  -3.947727e+01   7.569323e+01
  -9.921724e+01   7.851070e+01
  -6.809215e+01  -9.879134e+00
   1.141771e+01  -1.143551e+02
   1.572558e+01  -9.368432e+01
   3.992621e+01  -1.241635e+01
   1.597491e+01   8.429397e+01
  -1.363435e+01   6.784390e+01
  -8.754512e+00   1.079592e+01
  -5.310557e+01  -3.641308e+01
  -4.601423e+00  -6.978531e+01
   1.144854e+01  -2.694110e+01
   6.228279e+01   7.192728e+00
   1.199472e+01  -1.388657e+01
   1.192260e+01  -1.593901e+01
   1.837663e+01   4.586942e+01
   1.323851e+00   3.245585e+01
  -2.785839e+01   1.258161e+01
  -8.136917e+01   1.481597e+01
   5.176208e+00  -5.116062e+01
   4.104863e+01  -6.663730e+01
   1.379210e+01  -4.709590e+01
   6.627885e+01   8.714190e+00
  -9.417290e+00   7.562623e+01
  -6.823800e+01  -9.248333e-01
  -9.172491e+01  -4.085411e+01
  -3.174043e+01  -6.344553e+01
   1.885963e+00  -8.324912e+00
   9.000940e+01  -2.105494e+01
  -2.007524e+01   1.099700e+01
  -2.303730e+01  -5.226308e+00
   2.962086e+00  -2.265264e+01
   1.049901e+01  -4.502156e+01
   6.406644e+01   1.925821e+01
