
 $NMID
 id='ANONYMOUS ', fmtdat='(2E16.6)'
 volume=1.0
 tramp=1.0
 $END
  -4.523108e+03   1.462529e+02
  -2.566604e+03  -2.946193e+03
   5.583524e+02  -2.642927e+03
   2.066608e+03  -1.077851e+03
   9.051655e+02   8.021917e+02
  -7.575084e+02   8.540153e+02
  -1.050897e+03  -4.260346e+02
  -1.211835e+02  -1.255294e+03
   7.763724e+02  -8.849260e+02
   1.027113e+03   1.428558e+02
   4.136572e+02   8.067149e+02
  -3.174806e+02   8.278271e+02
  -4.865746e+02   2.042321e+02
  -4.098212e+02  -8.568278e+02
   2.426241e+02  -7.030687e+02
   5.485409e+02   1.034164e+01
   2.763141e+02   4.885458e+02
  -1.771144e+02   4.226502e+02
  -5.034636e+02   3.473694e+01
  -4.351188e+02  -3.722633e+02
   1.187290e+02  -4.160339e+02
   4.612039e+02  -3.349501e+02
   7.597183e+01  -7.556612e+01
  -1.404689e+02   1.940422e+02
  -3.288210e+02  -1.255410e+02
  -2.135706e+02  -4.526910e+02
   5.341753e+02  -6.106247e+02
   8.991328e+02   2.442644e+00
   4.533817e+02   6.670419e+02
  -4.278251e+02   5.486696e+02
  -8.187562e+02   8.166763e+01
  -4.147859e+02  -5.453373e+02
   3.108785e+02  -6.556996e+02
   5.364666e+02  -2.819776e+02
   3.990322e+02   2.810155e+02
   2.497627e+01   4.872908e+02
  -1.913161e+02   3.011073e+02
  -2.155956e+02  -2.728730e+02
   1.750522e+02  -5.419720e+02
   5.376925e+02  -3.311372e+01
   3.076547e+02   6.488715e+02
  -4.071010e+02   7.665778e+02
  -6.366654e+02   5.420906e+01
  -3.163850e+02  -6.126354e+02
   3.443754e+02  -4.146526e+02
   4.971513e+02   3.015246e+02
   1.996001e+01   6.033357e+02
  -5.184367e+02   1.826797e+02
  -5.720382e+02  -4.038189e+02
  -1.897666e+02  -6.133308e+02
   4.017245e+02  -3.503898e+02
   6.592852e+02   8.761300e+01
   4.251885e+02   4.194252e+02
  -1.225361e+02   3.987885e+02
  -4.406834e+02   7.962187e+01
  -2.641051e+02  -1.715269e+02
   1.210289e+02  -1.060895e+02
   1.603631e+02   1.379520e+02
  -1.277565e+02   1.920435e+02
  -3.285739e+02  -3.781850e+01
  -1.624756e+02  -2.065337e+02
   2.124071e+02  -2.093863e+02
   3.384551e+02  -8.356091e+01
   1.584027e+02   6.037363e+01
  -3.058113e+01   2.169212e+02
  -2.106362e+02   3.434034e+02
  -3.013012e+02   2.818693e+02
  -2.600626e+02  -1.216444e+02
  -5.303502e+01  -4.491342e+02
   7.730335e+01  -3.924812e+02
   1.299289e+02  -4.788070e+01
   2.568230e+00   6.929357e+01
   2.327342e+01  -1.218837e+01
   1.820727e+02  -1.044898e+02
   2.504764e+02  -4.994002e+00
   1.817405e+02   2.423908e+02
  -4.835468e+01   2.987677e+02
  -2.299486e+02  -1.399162e+00
  -2.186627e+02  -2.292731e+02
  -3.664304e+01  -3.019093e+02
   2.512242e+02  -1.044200e+02
   3.821396e+02   1.729425e+02
   1.881862e+02   4.040916e+02
  -7.942190e+01   2.936335e+02
  -2.458299e+02   1.384808e+02
  -2.053597e+02  -8.066310e+00
  -1.322934e+02  -3.878902e+00
  -2.262285e+02   6.182116e+01
  -3.955698e+02  -4.550571e+01
  -3.475379e+02  -2.534390e+02
  -4.841074e+01  -4.595601e+02
   2.984003e+02  -4.650992e+02
   4.949216e+02  -2.539072e+02
   3.502511e+02   5.852378e+01
   2.638209e+01   3.205045e+02
  -1.319073e+02   2.335746e+02
  -7.040613e+01   1.287917e+01
   1.014780e+02  -1.491391e+02
   2.364065e+02  -1.288600e+01
   9.850723e+01   1.664382e+02
  -1.488880e+02   1.992239e+02
  -2.203064e+02  -1.917798e+01
  -3.882919e+01  -1.749523e+02
   1.570284e+02  -8.724683e+01
   1.851532e+02   2.111072e+02
  -3.029114e+01   2.923594e+02
  -2.431531e+02   1.959469e+02
  -3.341650e+02  -4.172373e+01
  -2.757100e+02  -1.987128e+02
  -8.916181e+01  -2.851482e+02
   9.557704e+01  -1.793951e+02
   1.952192e+02  -3.961235e+01
   3.710304e+01   2.062536e+01
  -6.180374e+01  -7.747350e+01
  -3.422575e+00  -1.373047e+02
   1.592454e+02  -1.466412e+02
   2.322535e+02   3.116113e+01
   9.207089e+01   1.043779e+02
  -1.085057e+02   5.605994e+01
  -8.451813e+01  -5.991133e+01
   1.652329e+02  -6.261155e+01
   3.081066e+02  -2.429512e+01
   3.286464e+02   1.224177e+02
   7.447019e+01   2.114532e+02
  -1.799242e+02   2.918336e+02
  -2.793074e+02   1.652648e+02
  -1.836352e+02   9.581018e-01
   5.363290e+01  -7.441456e+01
   6.447992e+01   1.775228e+01
  -4.513178e+01   3.987486e+01
  -1.800855e+02   4.849170e+01
  -1.777471e+02  -6.132840e+01
  -6.318673e+01  -1.891438e+02
   1.013524e+02  -1.365287e+02
   1.505747e+02  -7.544862e+01
   8.818398e+01   5.014624e+01
   1.237355e+00   7.408156e+01
  -8.984623e+01  -3.577883e+01
   3.290276e+01  -9.440152e+01
   1.463721e+02  -5.492042e+01
   2.058279e+02   5.754501e+01
   2.176070e+01   1.443647e+02
  -1.462263e+02   1.536844e+02
  -1.765267e+02  -5.917254e+01
  -3.878374e+01  -9.785086e+01
   7.457830e+01  -1.115454e+02
   1.318776e+02  -7.276787e+01
   5.878036e+01  -1.346331e+01
  -1.599106e+01   6.934170e+01
  -6.121024e+00  -2.643850e+01
   3.336921e+01  -8.528493e+00
   1.146367e+02   5.104792e+01
   4.890546e+01   1.457107e+02
  -7.604422e+01   1.627412e+02
  -2.306910e+02   2.789012e+01
  -2.113803e+02  -1.419083e+02
  -6.691475e+01  -2.305806e+02
   1.365204e+02  -1.376517e+02
   1.821079e+02  -1.447051e+01
   4.629290e+01   8.377585e+01
  -2.298322e+01   4.108152e+01
   6.062787e+01  -4.444058e+01
   1.388557e+02   1.657956e+01
   9.090524e+01   4.358524e+01
  -1.077901e+01   1.272709e+02
  -1.455280e+02   8.933933e+01
  -7.051231e+01   4.779298e+00
   3.362410e+01  -9.165870e+01
   1.138380e+02  -9.294980e+01
   2.152711e+02   3.900539e+01
   9.998906e+01   1.948054e+02
  -6.891703e+01   2.623405e+02
  -2.823313e+02   1.207216e+02
  -2.892564e+02  -9.825303e+01
  -4.584451e+01  -1.771556e+02
   1.245366e+02  -1.270899e+02
   1.128940e+02  -5.183762e+01
   7.984884e+01  -5.209121e+01
   7.406212e+01  -4.214474e+01
   4.848902e+01  -2.478414e+01
   1.353580e+02   3.258861e+01
   1.242724e+02   1.560804e+02
   4.152185e+00   2.417014e+02
  -1.477943e+02   2.099522e+02
  -1.690733e+02   3.204522e+01
  -1.347634e+02  -1.269425e+02
  -3.500930e+01  -1.892605e+02
   5.075060e+01  -1.130819e+02
   4.351283e+01  -4.676788e+01
   1.919696e+01   1.229235e+01
   3.296135e+01   5.653958e+01
   5.580574e+01   4.879503e+01
   1.155689e+02   1.008083e+01
   6.036844e+01   3.218224e+01
  -6.693921e+01   1.185453e+01
  -1.317900e+02   7.404924e+00
  -1.410968e+02  -6.151899e+01
  -2.530358e+01  -7.906549e+01
   1.326839e+02  -5.534020e+01
   1.601661e+02   8.717945e+00
   4.704502e+01   6.591645e+01
  -5.226559e+01   5.645726e+01
  -9.076520e+01  -3.342729e+01
  -1.227723e+02  -4.645799e+01
   3.085049e+01  -6.715911e+01
   8.670289e+01   4.969206e+00
   4.415094e+01   4.716758e+01
   3.185933e+01   5.226522e+01
   6.210762e+01  -1.989884e+01
   6.258851e+01   1.412209e+01
   6.827523e+01   8.410219e+01
  -2.049052e+01   9.305674e+01
  -1.195723e+02   1.199487e+02
  -1.926723e+02   8.688715e+01
  -1.626602e+02  -8.269061e+01
   2.125051e+00  -1.349279e+02
   1.124034e+02  -6.775020e+01
   8.591094e+01  -5.640082e+01
  -8.285167e+01  -2.301400e+00
  -1.192639e+02  -3.262883e+01
  -8.459333e+01  -9.736417e+01
   1.230410e+02  -9.357235e+01
   1.897055e+02  -7.190001e+01
   1.495561e+02   2.054538e+01
   5.389867e+01   6.202626e+01
  -5.114541e+01   1.015572e+02
  -8.935598e+01   8.155711e+00
   1.641745e+00  -1.062909e+01
   1.166235e+02   1.056215e+01
   9.496395e+01   1.549015e+02
  -9.159713e+01   1.723158e+02
  -1.952348e+02   3.802324e+01
  -2.018212e+02  -1.233598e+02
  -7.126922e+01  -1.559786e+02
   1.126547e+02  -1.468392e+02
   7.952168e+01  -3.145880e+01
   1.827079e+01   1.140915e+02
   2.185306e+01   9.791171e+01
  -3.452556e+01   1.673954e+01
  -4.833610e+01  -6.023204e+01
  -2.867458e+01  -7.685230e+01
   1.521545e-01  -7.914406e+00
  -2.107717e+01   4.563188e+00
  -6.480480e+01  -9.266860e+01
  -5.166516e+01  -6.511784e+01
   2.957915e+01  -3.793098e+01
   1.325910e+02   5.318244e+00
   1.464025e+02   7.997840e+01
  -3.757002e+01  -2.426579e+00
  -1.069119e+02  -2.351915e+01
  -1.313160e+02   1.718066e+01
  -5.170776e+01   3.088446e+01
   4.130397e+01  -3.936894e+01
  -1.915128e+01   1.136934e+01
  -3.417982e+01  -9.466946e+00
   5.525625e+00  -3.246823e+01
   3.961804e+01   6.198867e+00
   1.028560e+02   1.184700e+01
   4.818623e+01   9.968632e+01
  -1.090189e+02   1.148787e+02
  -1.396695e+02   5.952448e+01
  -1.827724e+02  -8.194684e+01
  -8.927893e+01  -1.070108e+02
   7.569922e+01  -1.216535e+02
   1.136251e+02  -1.056639e+02
   6.363779e+01  -2.426042e+01
   2.339651e+01   5.154756e+01
   1.268190e+01   1.265450e+01
  -2.338651e+01   9.810391e+00
   6.235118e+01   3.612936e+01
   1.138715e+01   8.488691e+01
  -7.668696e+01   8.250853e+01
  -7.681869e+01  -1.211046e+01
  -5.098048e+01  -9.044253e+01
  -7.252125e+01  -9.740599e+01
   7.967644e+01  -3.653033e+01
   9.683637e+01   6.875715e+01
   2.092908e+01   1.352315e+02
  -1.071370e+02   1.669877e+01
  -1.211598e+02  -3.695268e+01
  -9.428216e+01  -4.685330e+01
   2.211637e+01  -6.714817e+01
   4.599963e+01  -7.027939e+01
  -2.468318e+01   3.615155e+01
  -3.655310e+01   3.620294e+01
  -7.741291e+00   3.590184e+00
   5.283346e+01  -7.489088e+01
   1.089254e+02  -9.587576e+01
   7.234132e+01  -3.034803e-01
   1.759724e+01   1.310846e+02
  -4.914744e+01   8.003993e+01
  -1.241732e+01  -2.142908e+01
  -4.303037e+01  -4.872729e+01
   2.314432e+01  -4.215941e+01
   2.693245e+01  -2.195908e+01
   4.374109e+01   7.168856e+01
  -9.463070e+00   1.693674e+01
  -5.606211e+01   2.148017e+01
  -2.345708e+01   1.859683e+01
  -2.230730e+01  -2.167381e+00
  -3.162237e+01  -3.647506e+00
   1.514879e+01   1.234412e+01
   2.440021e+01  -4.354470e+01
   2.698041e+01  -5.611825e+01
   7.867658e+01   1.845647e+01
   3.835747e+01   6.244933e+01
  -1.761749e+01   1.054334e+02
  -3.532239e+01   3.662742e+01
  -5.303654e+01  -1.717653e+01
  -4.899034e+01  -7.358823e+01
   3.153342e+01  -2.389413e+01
   7.706231e+01  -1.173782e+01
   2.651339e+01   6.844787e+01
  -4.654332e+01   2.569349e+01
  -9.921649e+01  -2.138653e+01
  -5.364326e+00  -6.575975e+00
   3.027131e+01   4.420992e+01
   3.538220e+01   3.021302e+01
  -3.585289e-01   1.520472e+01
  -1.131587e+02   3.710520e+00
