
 $NMID
 id='ANONYMOUS ', fmtdat='(2E16.6)'
 volume=1.0
 tramp=1.0
 $END
  -4.241508e+03  -1.485212e+02
  -2.497373e+03  -2.563916e+03
   7.656245e+02  -2.853638e+03
   2.130371e+03  -8.541812e+02
   6.913430e+02   7.049096e+02
  -8.346916e+02   5.463288e+02
  -8.312265e+02  -4.558812e+02
   7.809734e+01  -9.614869e+02
   8.533853e+02  -6.943491e+02
   9.571702e+02   3.996374e+01
   4.709096e+02   8.681589e+02
  -1.651778e+02   1.020601e+03
  -6.536649e+02   6.452003e+01
  -4.515274e+02  -8.476123e+02
   3.167051e+02  -7.841154e+02
   5.734095e+02  -1.471617e+02
   2.871397e+02   9.583150e+02
  -3.239047e+02   5.656567e+02
  -4.021667e+02  -6.361549e+01
  -4.898303e+02  -3.157878e+02
  -1.079158e+02  -4.172975e+02
   2.194396e+02  -2.476299e+02
   2.307622e+02  -3.747959e+01
  -2.541943e+02   1.826796e+02
  -3.470838e+02  -2.524007e+01
  -2.131913e+02  -3.211959e+02
   4.368790e+02  -3.909087e+02
   8.520664e+02   2.398055e+02
   4.571910e+02   5.894271e+02
  -4.286860e+02   4.356389e+02
  -7.596369e+02  -1.115337e+01
  -3.851711e+02  -5.492999e+02
   3.707798e+02  -5.996862e+02
   6.654810e+02  -2.385614e+02
   4.552273e+02   2.246233e+02
   3.676279e+01   4.894157e+02
  -2.776733e+02   1.656696e+02
  -2.507264e+02  -2.634367e+02
   1.383344e+02  -5.164472e+02
   4.790777e+02  -5.704122e+01
   2.356568e+02   6.556969e+02
  -2.952182e+02   7.187432e+02
  -6.510111e+02  -2.932353e+01
  -2.801397e+02  -6.204324e+02
   3.525735e+02  -3.421606e+02
   4.336364e+02   3.793418e+02
  -1.381111e+02   5.712841e+02
  -6.081036e+02   6.659555e+01
  -5.756677e+02  -4.340095e+02
  -6.943463e+01  -5.457576e+02
   4.323144e+02  -2.997616e+02
   6.598151e+02   7.761321e+01
   3.815259e+02   4.089312e+02
  -1.409936e+02   3.576645e+02
  -4.129465e+02   6.947009e+01
  -2.310466e+02  -1.904388e+02
   1.856584e+02  -4.362176e+01
   1.502272e+02   1.915360e+02
  -2.423961e+02   1.776572e+02
  -4.030004e+02  -1.247987e+02
  -1.103514e+02  -3.336691e+02
   2.890800e+02  -2.307200e+02
   3.076535e+02  -9.386133e+01
   1.319601e+02   8.495966e+01
   4.646067e+01   2.370364e+02
  -1.402517e+02   3.688545e+02
  -3.405017e+02   2.645882e+02
  -3.666812e+02  -1.589818e+02
  -9.883171e+01  -4.682430e+02
   1.304058e+02  -4.030623e+02
   1.725297e+02  -1.150369e+02
   8.407677e+00  -2.681991e+01
   1.742979e+00  -1.432640e+02
   2.090594e+02  -1.638167e+02
   3.338592e+02   3.957421e+01
   1.813446e+02   2.703114e+02
  -8.556223e+01   2.622634e+02
  -2.084049e+02  -9.668061e+00
  -1.951422e+02  -3.165282e+02
  -5.280575e+00  -3.746865e+02
   2.976901e+02  -8.590558e+01
   3.552222e+02   1.725993e+02
   1.664711e+02   3.701534e+02
  -1.090851e+02   3.499201e+02
  -2.099496e+02   1.204622e+02
  -1.746647e+02  -7.256441e+01
  -1.230831e+02  -5.178259e+00
  -2.736723e+02   1.096591e+02
  -4.479179e+02  -5.957175e+01
  -3.075869e+02  -3.143194e+02
  -4.743574e-01  -4.800275e+02
   3.846572e+02  -4.512987e+02
   4.959929e+02  -2.216557e+02
   3.437274e+02   8.617669e+01
   1.010811e+02   2.959286e+02
  -1.656909e+02   2.724462e+02
  -1.462832e+02   4.006420e+01
   1.413368e+02  -7.949246e+01
   2.600521e+02   1.146521e+01
  -2.708453e+00   1.735375e+02
  -2.159388e+02   1.333702e+02
  -2.099206e+02  -8.575995e+01
   1.707531e+00  -1.967204e+02
   2.751835e+02  -2.196416e+01
   1.799816e+02   2.466226e+02
  -5.277446e+01   2.926252e+02
  -2.533601e+02   1.905439e+02
  -3.623039e+02  -3.554795e+01
  -2.767675e+02  -2.628382e+02
  -8.701897e+01  -3.026012e+02
   1.378855e+02  -2.226236e+02
   1.759321e+02  -7.489190e+01
   4.967768e+01   7.557678e+01
  -4.555329e+01  -1.127724e+01
   1.345203e+00  -1.205174e+02
   1.029712e+02  -1.130114e+02
   1.781824e+02   5.431838e+01
   8.313876e+01   8.088026e+01
  -9.706458e+01   2.974565e+01
  -1.017602e+02  -6.921394e+01
   1.021896e+02  -8.478177e+01
   2.763621e+02  -2.626854e+01
   3.016600e+02   1.235075e+02
   1.081201e+02   2.859409e+02
  -2.028125e+02   3.204106e+02
  -3.367182e+02   1.506145e+02
  -1.783678e+02  -4.317041e+01
   3.364216e+01  -1.267605e+02
   7.892683e+01   4.317419e+01
  -5.490861e+01   1.842667e+02
  -2.205458e+02   1.190433e+02
  -2.572508e+02  -1.430346e+02
  -1.263134e+02  -2.356243e+02
   6.667472e+01  -1.450558e+02
   1.381445e+02  -2.087113e+01
   5.989648e+01   2.388670e+01
  -3.576063e+01   2.127064e+01
  -6.155945e+01  -7.440556e+01
   2.320142e+01  -1.265755e+02
   2.331828e+02  -2.431765e+01
   2.158959e+02   1.017193e+02
   3.509340e+00   2.114128e+02
  -1.939746e+02   1.864951e+02
  -2.135979e+02   3.464978e+01
  -3.096543e+01  -7.792807e+01
   7.984965e+01  -1.183609e+02
   1.202921e+02  -1.800890e+01
   4.379516e+01   2.108465e+01
  -6.728694e+01   3.084836e+01
  -1.359607e+01   9.389329e+00
   8.931076e+01   9.874703e+00
   5.657079e+01   9.323505e+01
  -7.579948e+00   1.661996e+02
  -1.573694e+02   1.525033e+02
  -2.773582e+02   2.549549e+01
  -2.357574e+02  -1.628054e+02
  -2.703510e+01  -2.487548e+02
   1.448792e+02  -2.299669e+02
   1.941807e+02  -1.126324e+01
   9.478823e+01   7.871156e+01
   3.351561e+01   7.384667e+01
   3.325904e+01   9.982196e+00
   7.256033e+01   2.832989e+01
   4.126241e+01   5.589604e+01
  -1.932789e+01   6.185102e+01
  -3.280573e+01   4.270242e+01
  -1.074578e+02  -3.213235e+01
  -2.957962e+01  -1.042037e+02
   1.669665e+02  -5.414075e+01
   2.342364e+02   2.461208e+01
   1.077239e+02   2.047304e+02
  -1.149826e+02   1.980783e+02
  -2.614315e+02   1.054510e+02
  -1.991096e+02   1.660792e+01
  -3.688299e+01  -1.415483e+02
   5.436043e+01  -1.484873e+02
   4.723343e+01  -1.063843e+02
   1.144681e+01  -1.069724e+02
   7.081792e+01  -9.573276e+01
   1.547341e+02  -7.421613e+01
   2.057010e+02   3.616646e+00
   1.462954e+02   1.625522e+02
   1.083920e+01   2.257708e+02
  -8.390359e+01   1.451608e+02
  -1.764903e+02   3.907091e+01
  -1.220835e+02  -9.273306e+01
   3.757035e+00  -1.577960e+02
   1.830290e+01  -1.003524e+02
   5.982440e+01  -6.216379e+01
   3.787182e+01   1.378346e+01
   7.298717e-01   1.519396e+01
   2.140495e+01  -2.748683e+00
   8.135408e+01   4.939422e+01
   2.282599e+01   1.376076e+01
  -1.097080e+02   2.162308e+01
  -1.748685e+02  -2.698039e+01
  -1.562473e+02  -7.346475e+01
   1.396145e+01  -1.039636e+02
   9.129282e+01  -5.855222e+01
   1.600624e+02  -5.396270e+00
   6.934075e+01   4.613458e+01
  -8.537667e+01   6.973487e+01
  -8.460532e+01  -9.068200e+00
  -2.025587e+01  -5.409703e+01
   1.188842e+02  -3.255000e+01
   6.874591e+01   2.424529e+01
  -1.064733e+01   7.425594e+01
   1.304558e+01   6.482654e+01
   8.625582e+00   7.091456e+00
   4.886892e+01  -1.096002e+01
   6.811153e+01   3.175192e+01
  -2.378304e+01   8.489243e+01
  -1.545091e+02   9.681441e+01
  -1.924889e+02   2.270088e+00
  -1.280595e+02  -1.243190e+02
  -2.825134e+00  -1.329063e+02
   1.072251e+02  -8.377225e+01
   8.807054e+01   1.103388e+00
  -4.470150e+01   2.037916e+01
  -1.370444e+02  -2.767203e+01
  -1.331498e+02  -1.189574e+02
   7.606779e+01  -1.050645e+02
   2.173539e+02  -6.012498e+01
   1.697349e+02   7.045943e+01
   5.670425e+01   1.300969e+02
  -3.723481e+01   9.556633e+01
  -4.689436e+01   5.119215e+01
   8.408358e+01   3.155357e+01
   6.616096e+01   6.052676e+01
   1.959679e+01   1.505160e+02
  -1.152270e+02   1.116761e+02
  -2.048342e+02   3.968622e+01
  -1.279443e+02  -5.480857e+01
   1.616328e+01  -1.408401e+02
   8.960021e+01  -1.404519e+02
   9.807631e+01  -3.657956e+01
   4.814677e+01   5.381650e+01
  -2.230463e+01   9.683295e+01
  -3.093180e+01  -2.028047e+01
  -3.063954e+00  -3.574381e+01
   2.810177e+01   5.055845e+00
  -4.541275e+00   3.833158e+00
  -2.805289e+01  -2.206791e+00
  -6.397583e+01  -8.244296e+01
  -1.667146e+01  -1.642761e+02
   1.034244e+02  -6.079347e+01
   1.642625e+02   3.342439e+01
   9.277647e+01   1.051915e+02
   1.897572e+01   9.846999e+01
  -1.238623e+02   4.568504e+01
  -6.844251e+01   3.126639e+01
   9.092855e+00  -3.104182e+01
   5.700907e+01  -1.268943e+01
   3.027212e+01  -5.264378e+01
  -3.171256e+01   1.792644e+00
  -5.839217e+00   4.380143e+00
   5.705186e+01   2.741068e+01
   9.370644e+01   3.550086e+01
   1.133512e+01   9.135579e+01
  -1.058951e+02   1.123612e+02
  -2.155114e+02   2.484331e+01
  -1.662978e+02  -8.340908e+01
  -7.512466e+01  -1.640474e+02
   8.643585e+01  -1.510069e+02
   1.071716e+02  -5.981262e+01
   9.665974e+01   6.958915e+01
   1.643386e+01  -5.240583e+00
  -3.143250e+01  -1.107515e+01
  -3.442241e+00  -7.485739e+00
   5.949022e+01   1.747610e+01
   2.605721e+01   3.340070e+01
  -1.084147e+01   7.141288e+01
  -6.267683e+01  -1.175433e+01
  -9.188132e+01  -6.001001e+01
   2.481362e+01  -7.073025e+01
   9.200049e+01   1.246477e+01
   6.796807e+01   8.528559e+01
  -9.884513e+00   1.224741e+02
  -8.471276e+01   4.307409e+01
  -1.306091e+02   3.124415e+01
  -8.518544e+01  -5.758180e+01
   5.206423e-01  -7.315590e+01
   3.840619e+01  -1.203262e+01
  -2.345103e+01  -2.116251e+01
  -1.040108e+01   6.367344e+00
  -2.253229e+01  -5.362065e+01
   7.429897e+01  -2.461879e+01
   1.040281e+02  -5.133603e+01
   5.683123e+01   2.437565e+01
   3.235090e+01   6.165609e+01
  -3.180868e+01   3.591336e+01
  -5.628854e+00  -4.962469e+00
  -7.351716e+00  -2.473892e+01
   3.139494e+01  -2.361025e+01
  -9.090441e+00   3.709651e+01
   3.073383e+01   2.965901e+01
  -4.385148e+01  -1.570601e+01
  -2.650095e+01  -1.555886e+01
  -3.261880e+00   2.799583e+00
  -6.725986e+00   2.283823e+01
   2.496960e+01   2.176962e+01
   2.838359e+01  -3.558281e+00
   2.327535e+01  -4.966538e+01
  -2.741192e+01  -1.110093e+01
   2.616933e+01   1.215810e+01
   4.429246e+01   5.046559e+01
  -2.493359e+01   2.733902e+01
  -5.404929e+01   7.863529e+00
  -8.073079e+01  -5.258739e+01
  -1.485679e+01  -7.511047e+01
   5.728421e+01  -4.047779e+01
   8.777831e+01   5.985464e+00
   4.018706e+01   6.469442e+01
  -1.416289e+01   9.346022e+01
  -2.422435e+01  -2.847319e+01
  -3.030069e+01   2.672692e+00
   2.159457e+01  -4.353772e+01
   1.646966e+01   3.669444e+01
  -5.537468e+01   2.886718e+01
  -7.283699e+01  -3.084909e-01
