
 $NMID
 id='ANONYMOUS ', fmtdat='(2E16.6)'
 volume=1.0
 tramp=1.0
 $END
  -4.835570e+03  -6.328493e+01
  -2.816827e+03  -3.295149e+03
   8.416802e+02  -3.364189e+03
   2.510299e+03  -8.652510e+02
   9.966880e+02   9.806702e+02
  -7.932960e+02   5.803107e+02
  -1.241874e+03  -5.821482e+02
   4.730461e+01  -1.266486e+03
   1.069313e+03  -9.403212e+02
   9.628591e+02   8.043941e+01
   4.532975e+02   9.116046e+02
  -3.844534e+02   1.073318e+03
  -8.639886e+02   1.890636e+02
  -3.694425e+02  -8.608568e+02
   4.080924e+02  -9.117796e+02
   7.969275e+02  -3.148667e+01
   1.320713e+02   9.686731e+02
  -3.585320e+02   8.357686e+02
  -8.319625e+02   3.091894e+00
  -2.236534e+02  -4.786323e+02
   1.057466e+01  -4.680956e+02
   3.053203e+02  -2.216748e+02
   3.536913e+02  -9.358828e+01
  -4.350075e+01   4.451114e+01
  -3.943162e+02  -1.907491e+02
  -1.160711e+02  -4.580137e+02
   3.346707e+02  -3.752628e+02
   1.047885e+03   3.824198e+01
   4.438129e+02   6.602649e+02
  -4.711052e+02   5.751539e+02
  -8.809168e+02   1.147277e+01
  -3.515440e+02  -5.220836e+02
   3.834901e+02  -5.237344e+02
   5.526384e+02  -2.410417e+02
   4.934147e+02   2.392859e+02
   1.071715e+02   5.395467e+02
  -2.018640e+02   4.411894e+02
  -3.333343e+02  -2.326352e+02
   1.497237e+02  -4.786936e+02
   5.211853e+02   8.097189e+00
   3.052107e+02   7.499303e+02
  -3.565860e+02   7.730039e+02
  -6.765191e+02   2.104278e+01
  -2.997260e+02  -5.771651e+02
   2.954548e+02  -3.366364e+02
   3.591242e+02   3.257414e+02
  -9.758223e+01   5.709182e+02
  -6.818851e+02   1.548827e+02
  -6.791527e+02  -4.427084e+02
  -1.780656e+02  -6.672141e+02
   4.632886e+02  -4.343567e+02
   6.312667e+02   1.258623e+02
   3.367543e+02   4.498252e+02
  -1.962786e+02   3.846138e+02
  -4.490444e+02   5.470384e+01
  -2.207517e+02  -1.981217e+02
   1.121040e+02  -6.508913e+01
   6.278709e+01   1.995747e+02
  -2.965140e+02   1.846552e+02
  -3.892750e+02  -1.675402e+02
  -1.189429e+02  -3.720106e+02
   2.261533e+02  -2.927169e+02
   3.229581e+02  -9.399947e+01
   1.844717e+02   3.491176e+01
  -3.546744e+00   1.643964e+02
  -1.978599e+02   3.160341e+02
  -3.381615e+02   2.005273e+02
  -3.263236e+02  -1.273420e+02
  -1.060304e+02  -4.797853e+02
   1.497596e+02  -4.700099e+02
   2.380357e+02  -1.451888e+02
   8.859116e+01   5.231892e+01
   1.338513e+01  -2.089795e+01
   1.202572e+02  -5.553945e+01
   2.436887e+02   8.592345e+01
   1.575468e+02   2.981105e+02
  -6.365813e+01   2.514848e+02
  -2.513743e+02   6.227265e+00
  -2.268811e+02  -2.488362e+02
  -1.870250e+01  -3.646751e+02
   2.650791e+02  -1.604484e+02
   4.236173e+02   1.593723e+02
   1.564800e+02   4.129137e+02
  -1.191607e+02   3.253588e+02
  -2.564710e+02   6.726003e+01
  -1.651545e+02  -9.643432e+01
  -3.632731e+01  -3.470363e+01
  -1.855467e+02   3.932782e+01
  -4.033224e+02  -9.444660e+01
  -3.360141e+02  -3.334039e+02
   2.605590e+01  -4.642172e+02
   4.010000e+02  -3.907653e+02
   5.192615e+02  -1.163832e+02
   3.627441e+02   1.777727e+02
   2.482804e+01   3.175697e+02
  -2.120614e+02   2.387853e+02
  -1.062105e+02  -1.614487e+01
   9.059225e+01  -1.611279e+02
   2.424538e+02   4.034518e+00
   8.515738e+01   2.213156e+02
  -1.917762e+02   2.193921e+02
  -2.529820e+02  -3.387613e+01
   6.047619e-01  -2.374859e+02
   2.239767e+02  -1.081632e+02
   2.214481e+02   2.004083e+02
   1.529539e+00   3.291416e+02
  -2.414971e+02   2.102722e+02
  -3.783668e+02  -8.973245e+01
  -2.896163e+02  -2.204247e+02
  -5.158640e+01  -2.777222e+02
   1.166505e+02  -1.379455e+02
   1.887498e+02   4.623639e+00
   7.846974e+01   1.269995e+01
  -6.919679e+01  -4.309991e+01
  -7.673333e+01  -1.415223e+02
   9.400216e+01  -1.179502e+02
   1.440391e+02  -1.705645e+01
   7.245276e+01   5.412443e+01
  -6.217641e+01   3.346850e+01
  -3.039699e+01  -7.799499e+01
   1.501871e+02  -9.194400e+01
   2.778698e+02  -8.904676e+00
   2.534812e+02   1.270281e+02
   3.851578e+01   2.856167e+02
  -2.316756e+02   2.708674e+02
  -3.066322e+02   7.413809e+01
  -1.503197e+02  -8.741667e+01
   9.866555e+01  -1.277081e+02
   1.085188e+02   9.162351e-02
  -1.909234e+01   1.280118e+02
  -2.266605e+02   6.086590e+01
  -2.460647e+02  -9.516565e+01
  -9.365761e+01  -1.955136e+02
   7.580007e+01  -1.947561e+02
   9.925300e+01  -1.904663e+01
   6.704958e+01   3.504466e+01
  -7.800740e+01  -2.081616e+01
  -3.362820e+01  -1.033538e+02
   6.053814e+01  -1.654136e+02
   2.526444e+02  -1.311493e+01
   2.078072e+02   1.469329e+02
   8.930162e+00   2.419845e+02
  -1.525849e+02   1.837808e+02
  -2.067016e+02  -7.097820e+00
  -4.153801e+01  -1.233821e+02
   9.696979e+01  -8.761616e+01
   1.049876e+02  -5.337197e+01
   1.786673e+01   2.412700e+01
  -3.897444e+01  -1.347829e+01
  -2.331785e+00  -1.643034e+01
   8.789446e+01   2.630206e+01
   9.568245e+01   6.944882e+01
   1.196607e+00   1.478257e+02
  -1.547616e+02   1.348008e+02
  -2.883168e+02   2.124993e+01
  -2.466122e+02  -1.612974e+02
   3.981848e+00  -2.350555e+02
   1.269316e+02  -1.792224e+02
   1.086335e+02  -1.917643e+01
   7.007900e+01   5.269171e+01
   5.652336e+01   4.847074e+01
   7.879482e+01   2.457539e+01
   8.293048e+01   1.527300e+01
   2.446526e+01   1.408163e+01
  -3.061915e+01   8.614951e+01
  -1.120310e+02   7.307428e+01
  -5.426901e+01  -4.000474e+01
   3.128080e+01  -7.955198e+01
   1.515401e+02  -7.765272e+01
   2.202126e+02   4.960957e+00
   8.095229e+01   1.895109e+02
  -9.867427e+01   2.118922e+02
  -2.636049e+02   8.877101e+01
  -2.829360e+02  -7.265549e+01
  -1.209389e+02  -1.871267e+02
   3.972066e+01  -1.549472e+02
   1.128083e+02  -1.016816e+02
   8.256185e+01  -8.606354e+01
   1.839316e+01  -7.425618e+01
   9.461883e+01  -7.037658e+01
   1.457155e+02   2.584225e+01
   1.341922e+02   1.899510e+02
   1.440547e+01   2.304593e+02
  -1.342370e+02   1.734074e+02
  -1.969411e+02   2.051537e+01
  -1.034277e+02  -1.192989e+02
  -5.266895e+00  -1.445746e+02
   1.048874e+02  -5.830897e+01
   7.348498e+01  -3.332068e+01
  -1.486057e+01   4.906732e+01
  -6.883153e+00   7.159735e+01
   5.711664e+01   9.860767e+01
   5.930695e+01   3.116578e+01
   4.288797e+00   2.604784e+01
  -7.807399e+01   3.105929e+01
  -1.379918e+02  -3.123105e+01
  -1.652759e+02  -8.150134e+01
  -1.147088e+01  -9.795653e+01
   1.055111e+02  -7.800955e+01
   1.627495e+02   5.173183e+00
   5.657300e+01   5.788795e-01
  -8.654314e+01   2.821878e+01
  -3.052087e+01  -5.898010e+01
   5.593538e+00  -1.031442e+02
   5.899339e+01  -7.170844e-01
   7.131412e+01   1.613705e+01
   5.069708e-01   6.386886e+01
  -4.199309e+00   3.160430e+01
   6.602651e+01   1.786131e+01
   8.160524e+01  -1.071098e+01
   5.421486e+01   7.098176e+01
  -3.145455e+01   1.092098e+02
  -1.159944e+02   1.251657e+02
  -1.485529e+02   5.253509e+01
  -1.392999e+02  -4.360540e+01
  -1.064648e+01  -1.060855e+02
   8.051453e+01  -1.038791e+02
   9.250589e+01  -3.406181e+00
  -1.914277e+01  -1.172849e+01
  -1.507454e+02  -4.236252e+01
  -6.873259e+01  -8.118676e+01
   7.788739e+01  -1.007831e+02
   2.028300e+02  -4.087647e+01
   1.603601e+02   2.335283e+01
   5.020820e+01   1.049181e+02
  -8.710015e+01   5.695701e+01
  -9.640654e+01   7.546458e+00
   3.069631e+01  -1.979448e+01
   7.355822e+01   1.334860e+01
   4.936058e+01   8.417729e+01
  -6.675540e+01   1.714245e+02
  -1.342264e+02   1.075107e+02
  -1.148786e+02  -1.457321e+02
  -3.687415e+01  -1.739351e+02
   8.688296e+01  -1.325261e+02
   1.266000e+02  -1.199116e+00
   5.767039e+01   1.226788e+02
  -4.096409e+01   9.413031e+01
  -5.874870e+01   2.195236e-01
  -4.116785e+01  -6.584476e+01
   1.650693e+00  -2.918286e+01
   7.767246e+00   5.496322e+01
   3.333203e+00  -9.708925e+00
  -5.823310e+01  -8.486643e+01
  -3.744805e+01  -1.215680e+02
   2.848516e+01  -5.027015e+01
   1.198578e+02   5.111070e+01
   1.181242e+02   1.035817e+02
  -3.691739e+01   3.924300e+01
  -9.899391e+01   2.493695e+01
  -1.059206e+02  -1.694523e+01
  -2.791045e+01  -2.776096e+01
   3.480377e+01  -4.201661e+01
   2.155172e+01  -2.390888e+01
   3.406030e+01  -3.179810e+01
  -3.703445e+01   1.860949e+01
   6.216728e+01   2.368734e+01
   1.413952e+02  -9.242369e+00
   4.076159e+01   8.008264e+01
  -1.261577e+02   1.367917e+02
  -1.756274e+02   3.035392e+01
  -1.377102e+02  -6.369599e+01
  -5.151015e+01  -1.708382e+02
   6.935137e+01  -1.845707e+02
   1.405275e+02  -3.340654e+01
   8.235121e+01  -6.360669e+00
   1.917877e+01   5.946820e+01
   4.633463e+00   1.742094e+01
   7.633074e+00   8.200834e+00
  -4.557233e+00   7.714168e+01
  -1.344187e+01   6.622249e+01
  -3.227125e+01   4.998467e+01
  -6.001411e+01  -2.438404e+01
  -9.996394e+01  -1.413954e+02
   3.502280e+01  -9.331309e+01
   1.103338e+02  -5.716321e+01
   1.266825e+02   6.070389e+01
   3.948456e+01   1.279424e+02
  -6.514179e+01   1.041745e+02
  -1.130812e+02   8.594156e+00
  -5.737834e+01  -5.556353e+01
   2.139589e+01  -7.239830e+01
   5.287244e+01  -4.753524e+01
  -2.018038e+01  -2.763158e+01
  -7.871266e+01   4.081691e+01
   5.769238e+00  -1.797195e+01
   8.411858e+01  -9.315846e+01
   1.406550e+02  -4.034918e+01
   5.851259e+01   4.677420e+01
  -2.863699e+01   1.316082e+02
  -9.306132e+01   7.390116e+01
  -8.224377e+01   3.581875e+00
  -4.536976e+01  -7.684371e+01
   1.970563e+01  -5.119810e+01
   2.895690e+01   4.906287e+00
   1.352896e+01   5.918722e+01
   1.280711e+01   4.732856e+01
  -3.837418e+01  -3.120133e+01
  -4.757635e+01  -1.995600e+01
  -1.760314e+01   4.854493e+01
   1.443696e+01   3.540539e+01
   9.827077e+00   1.022759e+01
  -4.605006e+01  -4.611766e+01
   2.359128e+01  -3.626370e+01
   4.197363e+01  -3.500027e+01
   5.707262e+01   3.814031e+01
   8.787601e+00   6.110619e+01
  -8.292409e+01   3.836352e+01
  -4.021807e+01  -3.104671e+01
  -2.393178e+01  -6.215305e+01
   5.049607e+01   2.125776e+01
   6.487799e+01   3.324692e+01
   5.657161e+01   4.829929e+01
  -2.808153e+01   6.584517e+01
  -4.355617e+01   4.028819e+01
   5.816707e+00  -2.186114e+01
  -2.779762e+00   5.760844e+00
   1.909569e+01   9.339037e+00
  -5.147595e+01   6.473469e+01
  -9.650408e+01   5.767272e+01
