
 $NMID
 id='ANONYMOUS ', fmtdat='(2E16.6)'
 volume=1.0
 tramp=1.0
 $END
  -5.032846e+03  -2.321932e+01
  -2.992682e+03  -3.139762e+03
   7.411641e+02  -2.995682e+03
   2.328372e+03  -1.079202e+03
   1.190667e+03   1.012810e+03
  -1.115198e+03   7.127008e+02
  -9.942488e+02  -5.377137e+02
  -8.939454e+01  -1.340085e+03
   9.925066e+02  -8.582996e+02
   9.699915e+02   1.466753e+02
   5.279991e+02   9.678806e+02
  -2.820632e+02   1.119405e+03
  -6.807363e+02   2.044125e+02
  -4.230283e+02  -8.378287e+02
   1.683896e+02  -8.441671e+02
   7.076607e+02  -8.915662e+01
   2.385327e+02   7.279735e+02
  -4.231027e+02   7.307387e+02
  -3.974719e+02  -6.358805e+01
  -5.214396e+02  -4.011876e+02
   1.054698e+02  -4.319272e+02
   4.565098e+02  -4.685247e+02
   1.191235e+01  -1.933788e+02
  -1.470363e+02   2.591730e+02
  -6.698756e+02  -2.515659e+02
  -1.757305e+02  -4.460428e+02
   3.260421e+02  -4.647038e+02
   1.139322e+03   3.591154e+01
   6.272903e+02   4.960933e+02
  -4.063660e+02   4.942887e+02
  -7.971515e+02  -8.507077e+01
  -3.523311e+02  -4.966997e+02
   3.333806e+02  -6.097519e+02
   6.453482e+02  -2.116536e+02
   5.252544e+02   3.402687e+02
   1.144349e+02   5.846295e+02
  -9.271817e+01   3.714551e+02
  -2.673470e+02  -2.564009e+02
   2.280346e+02  -5.508260e+02
   5.699846e+02   5.518483e+01
   3.296172e+02   7.240942e+02
  -4.979739e+02   8.555697e+02
  -7.019763e+02   5.912051e+01
  -2.788377e+02  -7.022027e+02
   3.895823e+02  -4.243719e+02
   5.675956e+02   3.570485e+02
  -1.295956e+02   6.552394e+02
  -6.912482e+02   1.906987e+02
  -6.579860e+02  -4.703233e+02
  -1.342775e+02  -6.705068e+02
   4.472849e+02  -3.961699e+02
   7.061589e+02   1.685515e+02
   4.350856e+02   5.267358e+02
  -1.764327e+02   4.423707e+02
  -5.169992e+02   5.007953e+00
  -2.685128e+02  -2.622763e+02
   1.457148e+02  -1.152734e+02
   1.390111e+02   2.190365e+02
  -2.619129e+02   2.389725e+02
  -3.970656e+02  -1.410592e+02
  -1.347325e+02  -3.434531e+02
   2.004378e+02  -2.969627e+02
   3.556978e+02  -9.963517e+01
   2.119867e+02   6.315122e+01
  -4.801026e+01   2.369822e+02
  -2.741364e+02   3.934932e+02
  -3.828120e+02   2.174193e+02
  -3.017266e+02  -2.048665e+02
  -5.705241e+01  -5.164846e+02
   2.045789e+02  -4.082576e+02
   1.278596e+02  -9.641772e+01
  -1.883915e+01   2.358692e+01
   3.213455e+01  -8.828914e+01
   1.731776e+02  -1.018957e+02
   3.249529e+02   2.416628e+01
   1.398968e+02   2.448333e+02
  -3.739845e+01   2.242942e+02
  -2.119816e+02   2.774270e+00
  -2.366503e+02  -2.877509e+02
  -2.225285e+01  -3.292518e+02
   2.785341e+02  -1.145828e+02
   4.472172e+02   1.736057e+02
   2.394955e+02   4.081274e+02
  -1.614279e+02   3.651298e+02
  -2.934482e+02   1.039830e+02
  -1.961314e+02  -9.026145e+01
  -1.180641e+02  -4.010620e+00
  -1.732354e+02   8.103350e+01
  -4.384834e+02  -2.597290e+00
  -3.441268e+02  -3.160337e+02
  -1.609974e+01  -4.823439e+02
   4.061592e+02  -4.742632e+02
   5.507012e+02  -2.205078e+02
   3.522173e+02   1.531429e+02
   2.424461e+01   3.365478e+02
  -1.639410e+02   2.411630e+02
  -7.080053e+01  -6.931994e+00
   1.614097e+02  -1.110765e+02
   2.824396e+02   4.193635e+01
   6.318469e+01   2.578226e+02
  -1.914777e+02   1.847496e+02
  -2.542917e+02  -3.359931e+01
  -1.329892e+00  -1.969309e+02
   2.229178e+02   1.079621e+01
   2.059783e+02   2.613616e+02
  -8.012301e+01   3.920707e+02
  -2.887454e+02   2.401088e+02
  -3.929462e+02  -6.706625e+01
  -3.463736e+02  -2.686118e+02
  -8.101102e+01  -3.280756e+02
   1.559956e+02  -2.202315e+02
   2.221821e+02  -2.803588e+01
   6.735091e+01   9.545676e+01
  -1.066495e+02  -9.751683e+00
  -3.974435e+01  -1.434627e+02
   1.644884e+02  -1.029126e+02
   1.716556e+02  -9.641210e+00
   7.481071e+01   4.703058e+01
  -1.294122e+02   2.925993e+01
  -3.962451e+01  -7.243234e+01
   2.112633e+02  -5.140952e+01
   2.846526e+02   1.608397e+01
   2.705513e+02   1.361076e+02
   2.550698e+01   2.661286e+02
  -1.757665e+02   2.635744e+02
  -3.286790e+02   2.041175e+02
  -2.522172e+02  -4.770703e+01
  -3.483850e+01  -1.547951e+02
   1.165579e+02  -2.805997e+01
  -2.914416e+01   7.091278e+01
  -1.975401e+02   7.318298e+01
  -2.746174e+02  -1.272087e+02
  -6.527816e+01  -2.965684e+02
   9.883837e+01  -2.063389e+02
   2.101180e+02  -2.129413e+01
   8.717480e+01   4.074180e+01
  -5.297967e+01   2.730325e+01
   2.303303e+00  -9.156426e+01
   6.097619e+01  -9.874539e+01
   1.871237e+02  -2.394706e+01
   1.729060e+02   1.298352e+02
   2.928079e+01   2.407124e+02
  -2.054655e+02   1.667332e+02
  -2.325172e+02  -1.298169e+01
  -7.806228e+01  -1.722467e+02
   1.154566e+02  -1.687197e+02
   1.369797e+02  -3.483296e+01
  -6.432236e+00   2.826366e+01
  -4.009452e+01  -2.227983e+01
   4.389203e+00  -2.241496e+01
   8.939717e+01   5.518918e+01
   1.074964e+02   1.254056e+02
  -2.434776e+01   1.380342e+02
  -1.299094e+02   1.253991e+02
  -2.546705e+02   3.872552e+01
  -2.084628e+02  -1.126561e+02
  -3.059436e+01  -2.625853e+02
   1.382502e+02  -1.873924e+02
   1.235592e+02  -2.347301e+01
   3.961733e+01   3.073969e+01
   1.417526e+01   3.997727e+01
   4.408299e+01  -4.022363e+01
   5.069830e+01  -3.904380e+01
   3.233436e+01   5.480948e+01
  -2.102899e+01   3.480372e+01
  -9.834807e+01   5.399935e+01
  -9.198014e+01  -5.232995e+01
   5.751258e+01  -8.788615e+01
   1.952415e+02  -7.936512e+01
   2.069037e+02   3.523036e+01
   1.357298e+02   1.977999e+02
  -1.342245e+02   2.358636e+02
  -2.873325e+02   1.135160e+02
  -2.939230e+02  -5.799470e+01
  -1.219256e+02  -2.030505e+02
   5.752468e+01  -1.604379e+02
   9.216718e+01  -9.559697e+01
   9.078367e+01  -6.884701e+01
   3.682533e+01  -7.487419e+01
   9.112055e+01  -6.946747e+01
   1.610505e+02   1.322904e+01
   1.693983e+02   1.824861e+02
   1.251343e+01   2.357862e+02
  -1.407206e+02   1.964738e+02
  -2.025468e+02  -2.354521e+01
  -1.384023e+02  -1.870043e+02
   1.731706e+01  -2.298422e+02
   1.078573e+02  -8.935272e+01
   2.799915e+01   2.706845e+00
   1.671401e+01   4.928716e+01
  -2.374782e+01   9.373591e+01
   3.665170e+01   2.144033e+01
   9.835279e+01   5.868906e+01
   2.194307e+01   3.456670e+01
  -5.673642e+01   5.033975e+01
  -1.367561e+02  -8.545121e+00
  -1.307810e+02  -8.947734e+01
  -1.592764e+01  -9.695165e+01
   1.297218e+02  -4.921428e+01
   1.749286e+02  -6.959258e+00
   7.900407e+01   4.356771e+01
  -6.370325e+01   4.185604e+01
  -1.084784e+02  -4.830774e+00
  -2.383327e+01  -5.860043e+01
   4.720065e+01  -6.357775e+01
   4.918511e+01   5.405589e+00
   1.294389e+01   3.324423e+01
   5.645519e+01   6.053416e+01
   8.490042e+01   7.809543e+00
   6.914043e+01   1.529781e+01
   3.849878e+01   6.004815e+01
  -1.056181e+01   1.449907e+02
  -1.923403e+02   8.089797e+01
  -1.792088e+02   1.919214e+01
  -1.209215e+02  -5.663810e+01
   8.145566e+00  -1.406910e+02
   8.737192e+01  -9.824361e+01
   1.066644e+02   9.712102e+00
  -2.600251e+01  -1.137053e+01
  -1.021348e+02  -5.699966e+01
  -8.175028e+01  -8.818303e+01
   1.322692e+02  -8.269137e+01
   1.656040e+02   1.188802e+01
   1.433595e+02   6.056587e+01
   8.430524e+01   7.187868e+01
  -7.245940e+01   9.850989e+01
  -3.603827e+01   3.015351e+00
   2.416477e+01  -8.581834e+01
   9.698081e+01   5.734278e+01
   3.505017e+01   1.426131e+02
  -8.263016e+01   2.129137e+02
  -2.199642e+02   5.521906e+01
  -1.308682e+02  -1.311316e+02
   1.001090e+01  -1.869995e+02
   1.118944e+02  -1.761710e+02
   1.155091e+02   8.584573e+00
   3.926412e+01   8.511989e+01
   2.384655e+01   9.489926e+01
  -7.105601e+01   2.979901e+01
  -3.124944e+01  -3.148529e+01
   4.932302e-01  -4.259055e+01
   1.382620e+01  -2.418768e+01
  -2.264207e+01  -3.892363e+01
  -3.545857e+01  -5.800385e+01
  -2.206734e+01  -9.221748e+01
   9.505049e+01  -3.482569e+01
   1.445964e+02   3.732946e+01
   1.447907e+02   1.123891e+02
  -5.548848e+00   5.346379e+01
  -8.374752e+01   2.139919e+01
  -5.190376e+01   6.492859e+00
   9.928831e+00  -2.338946e+00
   4.715249e-01  -1.637709e+01
  -3.018566e+00  -3.603654e+01
  -7.828814e+00   1.892816e+01
   1.211434e+01  -1.352475e+00
   7.634323e+01  -2.682154e+01
   4.299931e+01   1.448370e+01
   2.667860e+00   5.027643e+01
  -1.262500e+02   9.484525e+01
  -1.798197e+02   3.723601e+01
  -1.116291e+02  -4.519730e+01
  -5.186073e+01  -1.861068e+02
   1.501823e+02  -1.678398e+02
   1.770047e+02  -4.209881e+01
   1.046138e+02   4.384988e+01
   3.272795e+01   5.477296e+01
  -4.548039e+01   7.084918e+01
   3.187399e-01   5.988492e+01
  -1.912677e+01   6.165509e+01
   1.517866e+01   4.629355e+01
   1.351389e+01   4.805692e+01
  -1.129969e+02  -4.462525e+01
  -7.500297e+01  -1.466131e+02
  -3.341043e+01  -1.436644e+02
   9.781466e+01  -3.307962e+01
   9.880512e+01   1.109028e+02
   2.350910e+00   1.523755e+02
  -5.174714e+01   5.789867e+01
  -8.214514e+01  -1.135265e+01
  -5.905096e+00  -2.674240e+01
   1.525718e+01  -1.726290e+01
   4.201523e+01  -3.732206e+01
  -2.308439e+01   1.187907e+01
  -7.155830e+01   2.156372e+00
  -1.261798e+01   1.636445e+01
   5.533104e+01  -7.199293e+01
   8.258193e+01  -5.979505e+01
   1.408363e+01   5.352688e+01
  -4.874108e+01   1.002812e+02
  -8.709651e+01   7.401290e+01
  -7.982590e+01  -1.441969e+01
  -2.706183e+01  -4.439688e+01
   2.972581e+01  -5.382031e+01
   4.159987e+01   2.749664e+01
   1.353684e+01   9.173024e+00
  -2.746642e+00   4.198300e+01
  -3.164105e+01  -2.988449e+00
  -6.027979e+01  -2.707422e+01
   2.485190e+01  -5.289733e+00
   1.724713e+01   9.242544e+00
  -2.275790e+01  -1.939307e+01
   2.664978e+01  -4.425512e+01
   5.059257e+01  -5.880938e+01
   1.490309e+00  -8.554155e+00
   6.817681e+00   5.571817e+01
   1.829521e+01   8.846826e+01
  -7.546350e+00   4.540114e+01
  -4.686375e+01  -2.534475e+01
  -7.854191e+00  -3.983321e+01
   7.485963e+01  -3.021631e+01
   5.933534e+01   4.512948e+01
   4.730199e+01   4.653733e+01
  -4.099470e+01   7.118778e+00
  -6.663445e+01   1.943053e+01
  -1.065975e+01  -1.790721e+00
   1.159921e+01  -5.099791e+00
   2.830199e+01   1.212203e+01
  -3.440825e+01   4.274678e+01
  -9.569866e+01   2.374154e+01
