
 $NMID
 id='ANONYMOUS ', fmtdat='(2E16.6)'
 volume=1.0
 tramp=1.0
 $END
   2.421137e+03  -1.118324e+02
   1.854262e+03   1.364239e+03
  -5.104985e+01   1.918735e+03
  -1.254113e+03   8.037314e+02
  -7.089579e+02  -2.563234e+02
   2.935617e+02  -1.801647e+02
   5.158265e+02   1.887255e+02
  -1.525016e+02   6.645872e+02
  -3.866383e+02   3.570685e+02
  -5.951052e+02  -1.591988e+01
  -3.357556e+02  -5.939563e+02
  -1.038409e+01  -5.523549e+02
   4.573763e+02  -5.377025e+01
   1.114691e+02   4.175060e+02
  -9.240045e+01   3.353781e+02
  -2.787746e+02  -1.422216e+01
  -2.282451e+02  -3.022590e+02
   1.351330e+02  -3.393208e+02
   4.593727e+02  -3.143463e+01
   2.423088e+02   2.795603e+02
  -6.678248e+01   1.381924e+02
  -2.248939e+01   1.592095e+02
  -1.461886e+02   5.522114e+01
   4.424944e+01   2.328093e+01
   3.363617e+02   1.086285e+02
   2.205861e+01   1.831533e+02
  -2.689640e+02   2.921772e+02
  -4.041514e+02  -9.159509e+01
  -2.706004e+02  -2.927575e+02
   2.381856e+02  -3.053021e+02
   3.102800e+02  -5.941824e+01
   1.653702e+02   3.547973e+02
  -1.297247e+02   2.743946e+02
  -2.878726e+02   1.830922e+02
  -1.690511e+02  -1.246304e+02
  -4.883408e+00  -3.150154e+02
   8.128222e+01  -9.122742e+01
   2.920575e+01   6.892135e+01
  -1.589003e+02   1.811702e+02
  -1.240759e+02  -8.059953e+01
  -1.060047e+02  -3.625441e+02
   1.497717e+02  -3.600686e+02
   3.384191e+02   5.572919e+00
   1.022280e+02   2.645395e+02
  -2.169120e+02   9.695475e+01
  -2.130442e+02  -2.263290e+02
   3.412656e+01  -3.135089e+02
   3.548665e+02  -9.884528e+01
   3.719684e+02   2.240177e+02
   1.570649e+02   3.688707e+02
  -2.299360e+02   2.417713e+02
  -3.465542e+02  -1.943646e+01
  -2.601471e+02  -1.904730e+02
   4.610973e+00  -1.609567e+02
   1.819734e+02  -6.225388e+01
   1.952876e+02   5.829404e+01
   1.043745e+01   2.346035e+01
  -2.894798e+01  -3.784375e+01
   9.223669e+01  -6.353409e+01
   1.712385e+02   8.016643e+01
   6.837623e+01   1.761920e+02
  -1.124652e+02   2.472290e+02
  -2.512398e+02   7.059967e+01
  -2.114044e+02  -1.014056e+02
  -1.435570e+01  -2.400733e+02
   2.137418e+02  -3.179243e+02
   2.908123e+02  -1.424514e+02
   2.014950e+02   9.858273e+01
   1.082458e+02   2.759939e+02
  -1.458906e+01   2.917264e+02
  -2.229202e+01   1.143574e+02
  -8.264731e+01   2.638529e+01
  -8.760214e+01   6.384443e+01
  -1.504173e+02   4.660292e+01
  -1.735014e+02  -5.684653e+01
  -6.018012e+01  -1.869360e+02
   5.706164e+01  -1.306268e+02
   1.325989e+02   5.191462e+01
   8.912824e+01   1.599382e+02
  -5.507366e+01   2.254868e+02
  -1.835869e+02   5.359554e+01
  -2.597511e+02  -1.460685e+02
  -1.433702e+02  -2.293052e+02
   7.205816e+01  -1.887874e+02
   1.404749e+02  -9.762935e+01
   1.293925e+02  -4.367845e+00
   8.463633e+01  -7.622335e+01
   1.609095e+02  -2.694645e+01
   3.033405e+02   7.212445e+01
   2.372629e+02   2.039851e+02
   4.035682e+01   3.159568e+02
  -3.043322e+02   3.044296e+02
  -3.319482e+02   1.593966e+02
  -2.750755e+02  -7.540211e+01
  -9.402018e+01  -2.378223e+02
   1.080155e+02  -1.606481e+02
   3.215980e+01  -2.986211e+01
  -6.431772e+01   6.707424e+01
  -1.136319e+02  -2.797446e+01
  -7.313711e+01  -1.484013e+02
   6.955330e+01  -1.228246e+02
   5.231013e+01   2.570017e+01
   1.195970e+01   1.017576e+02
  -1.088332e+02  -2.408054e-01
  -9.314751e+01  -2.034302e+02
   1.974365e+01  -2.122581e+02
   1.490705e+02  -1.826193e+02
   2.298137e+02   1.054520e+02
   1.437909e+02   1.567542e+02
   8.441541e+00   1.776868e+02
  -1.065813e+02   1.303176e+02
  -8.172239e+01  -1.830018e+01
  -1.721040e+01  -1.964472e+01
   3.895760e+01   2.007971e+01
  -2.037679e+01   6.055501e+01
  -1.500103e+02   2.980676e+01
  -8.962179e+01  -4.020493e+01
  -3.646625e+01  -9.015702e+01
   5.612774e+01  -6.545426e+01
   5.672844e+01   5.521595e+01
  -5.545859e+01   2.859985e+01
  -1.866341e+02   1.071291e+01
  -1.396882e+02  -1.461959e+02
  -1.680082e+01  -1.774227e+02
   1.650776e+02  -1.582827e+02
   1.558335e+02  -1.952311e+01
   1.358116e+02   2.265469e+01
   1.031120e+01   5.588626e+01
  -4.314879e+01  -3.040990e+01
   4.936818e+01  -5.449245e+01
   1.408352e+02  -2.740843e+01
   1.111884e+02   1.022808e+02
   1.684260e+01   1.320514e+02
  -1.015149e+02   7.379584e+01
  -9.134195e+01  -2.257174e+01
  -2.981756e+01  -4.112336e+01
   5.134570e+01  -9.837154e+00
   3.806141e+01   1.040721e+02
  -5.254101e+01   5.814594e+01
  -1.204991e+02   4.216189e+01
  -1.295381e+02  -8.187742e+01
   9.835022e+00  -1.187909e+02
   1.209437e+02  -1.513908e+02
   1.223876e+02  -2.636461e+01
   5.064695e+00   5.687058e+01
  -5.039961e+01   8.292833e+01
  -5.247999e+01   1.126776e+01
   1.451013e+01  -4.566208e+01
   4.937541e+01  -2.291535e+01
  -1.172505e+01   3.784861e+01
  -6.951504e+01  -1.327355e+01
  -7.750687e+01  -5.869489e+01
   1.106319e+01  -1.184040e+02
   8.825172e+01  -1.194717e+02
   1.809903e+02   2.905720e+01
   1.032061e+02   1.368691e+02
   5.237752e+01   1.508801e+02
  -6.889538e+01   1.281014e+02
  -1.125137e+02  -2.414036e+01
  -2.534184e+01  -1.953214e+01
  -3.707510e+01  -3.193373e+01
  -4.738115e+01   2.402649e+01
  -4.326571e+01   1.011964e+01
  -4.689853e+01  -5.726717e+01
   6.214763e+01  -9.098540e+01
   8.801582e+01  -7.060272e+01
   8.593511e+01   3.048105e+01
   2.431132e+00   6.154456e+01
  -9.080163e+01   6.872641e+01
  -1.715476e+02  -4.618540e+01
  -4.225625e+01  -1.129680e+02
   1.099354e+02  -1.308070e+02
   1.857801e+02  -7.365228e+01
   1.827612e+02   7.214485e+01
   8.448469e+01   5.886892e+01
  -1.588744e+01   7.815093e+01
  -8.742173e+01   6.960804e+01
  -3.759830e+01   7.272939e+01
  -4.062107e+01   7.679000e+01
  -7.977126e+01   1.091895e+02
  -6.600855e+01  -3.801010e+01
  -5.745573e+01  -1.325024e+02
  -6.474399e+00  -1.777102e+02
   7.578275e+01  -1.230754e+02
   1.064996e+02   8.879847e-01
   7.059497e+01   1.007355e+02
   1.382904e+01   1.097115e+02
  -4.892660e+01   9.413391e+01
  -8.463182e+01  -2.374011e+01
  -4.813142e+00  -2.548438e+01
  -1.616856e+01  -7.889244e+01
  -1.892054e+01  -6.086307e+01
  -7.099691e+01  -7.840468e+01
  -3.507563e+01  -4.153013e+01
   8.897494e+01   1.147024e+01
   1.409329e+02   2.275591e+01
   1.078971e+02   9.587574e+00
   1.973335e+00   8.054271e+01
  -6.770777e+01   2.752147e+01
  -1.002385e+02   2.199040e+01
  -5.383572e+01   9.463330e+00
   5.426981e+01  -3.055259e+01
   8.130356e+01   4.667071e+00
   2.794849e+01   5.094954e+01
  -1.387142e+01   6.632702e+01
  -3.866535e+01  -1.872574e+01
  -6.122073e+01  -7.836137e+01
   6.621727e+00  -1.645651e+01
  -1.060252e+01   1.443675e+01
  -6.721479e+01  -1.279822e+01
  -2.685545e+01  -5.429326e+01
   5.081898e+01  -9.928019e+01
   1.123446e+02  -1.097038e+02
   1.026349e+02   1.488545e+01
   6.235135e+01   5.834804e+01
  -2.362839e+01   1.132941e+02
  -1.036749e+02   2.660966e+01
  -4.495327e+01  -5.434242e+01
   8.054957e+01  -9.085317e+00
   9.031970e+01   2.628696e+01
   5.761592e+01   7.689898e+01
  -3.245278e+01   8.365163e+01
  -1.519198e+02   6.745864e+01
  -1.062586e+02  -3.527440e+01
  -2.212768e+01  -1.570539e+01
   4.456046e+01  -3.462891e+01
   4.109190e+01  -3.310375e+00
  -4.284628e+01   8.904553e+00
  -7.280845e+01  -6.421228e+01
  -1.991510e+01  -7.954249e+01
   6.963434e+01  -1.429048e+02
   1.408462e+02  -1.059554e+01
   1.173064e+02   5.689451e+01
   4.267513e+01   1.862044e+02
  -5.313580e+01   1.334122e+02
  -9.007694e+01  -2.285251e+01
  -3.648494e+01  -1.188589e+02
   1.373138e+01  -6.245354e+01
   1.918878e+01  -2.174808e+01
   7.266122e+00   2.091424e+01
  -1.030694e+01   5.888901e+01
   3.268354e+01  -4.794532e+00
   5.462570e+01   3.530014e+01
   4.378816e+01   5.495304e+01
   1.461423e+01   5.216293e+01
  -6.188939e+01   1.970367e+01
  -1.208530e+02  -2.229718e+01
  -1.066850e+02  -2.377137e+01
  -4.885506e+01  -8.117667e+01
   9.615634e+01  -6.875292e+01
   1.010079e+02   1.578358e+01
  -1.309731e+01   7.269746e+01
  -2.084307e+01   1.816951e+01
   7.639116e+00   3.065367e+01
  -4.655650e+00  -4.366486e+00
  -1.443553e+01   1.941645e+01
  -4.801809e+01   3.526170e+01
  -8.247061e+01  -6.273375e+00
   4.685484e+01  -5.946739e+01
   8.434795e+01  -1.333748e+02
   1.180781e+02  -9.665678e+01
   1.014322e+02   1.371132e+01
  -3.662418e+01   1.521784e+02
  -9.029880e+01   1.057151e+02
  -5.833050e+01   5.647918e+01
   1.657641e+00  -1.703279e+01
   3.074103e+01  -4.644318e+01
   8.468942e+00   3.279439e+01
  -1.474420e+01  -3.336973e-01
  -3.616270e+01  -1.996345e+01
  -5.991563e+01  -6.515782e+01
   2.343474e+00  -7.794334e+01
   5.872594e+01  -1.615019e+01
   6.155782e+01   1.180044e+02
  -2.300599e+01   9.274873e+01
  -6.239871e+01  -5.689558e+00
  -1.204438e+02  -6.526858e+01
  -1.830568e+01  -1.064401e+02
   4.651154e+01  -3.594632e+01
   1.238914e+02   1.759701e+01
   5.020895e+01   7.311831e+01
  -1.488057e+01   1.127931e+02
  -1.965021e+00   2.566685e+01
   1.100295e+00   5.921084e+00
   3.233439e+01  -3.589027e+01
  -1.147108e+01   3.894474e+01
  -5.328570e+01   1.272578e+01
  -7.506642e+01   3.242121e+01
  -1.871153e+01  -3.859314e+01
   6.132201e+01  -5.287082e+01
   7.447749e+00  -6.895649e+01
  -1.607525e+01  -1.923311e+01
   1.343297e+01   1.076635e+02
  -4.238290e+01   5.716472e+01
  -2.884189e+01  -1.716469e+01
  -3.631704e+01  -4.098175e+01
  -1.104354e+01  -2.039486e+01
   5.660709e+01   3.778747e+01
   3.844597e+01   4.290544e+01
   3.011467e+00   3.115071e+01
  -1.837213e+01  -2.051798e+01
  -5.101792e+01   1.698125e+01
  -8.055363e+00   4.663282e+01
   6.227546e+00   2.030970e+01
  -2.781661e+01   1.244219e+01
  -1.175758e+01  -1.103842e+02
   3.317766e-01  -6.645492e+01
   7.259985e+01  -5.454540e+01
   7.596237e+01  -9.221556e-01
   1.957196e+01   5.847001e+01
  -4.016181e+01   3.681213e+01
  -8.485109e+01   1.479220e+01
  -3.372980e+01   2.033049e+01
   3.349156e+00  -3.463465e+01
   1.165886e+01  -9.117742e+00
   1.947154e-01  -1.364861e+01
  -3.222376e+01  -6.004410e+01
  -1.961317e+01  -2.997079e+01
   2.136755e+01  -2.481109e+01
   9.960330e+01  -3.514643e+01
