
 $NMID
 id='ANONYMOUS ', fmtdat='(2E16.6)'
 volume=1.0
 tramp=1.0
 $END
  -4.109940e+03   7.031341e+00
  -2.284671e+03  -2.732936e+03
   4.146569e+02  -2.507205e+03
   2.162845e+03  -5.486523e+02
   7.045756e+02   4.053949e+02
  -7.811870e+02   5.492628e+02
  -1.045702e+03  -5.788966e+02
  -3.583445e+01  -1.138972e+03
   9.090283e+02  -8.898661e+02
   8.605994e+02   1.893646e+02
   3.809235e+02   9.298093e+02
  -2.478827e+02   8.715115e+02
  -4.812793e+02   6.069260e+01
  -4.173664e+02  -8.975965e+02
   1.411647e+02  -8.722709e+02
   6.097518e+02   1.157672e+02
   1.861438e+02   6.563351e+02
  -3.647160e+02   4.732049e+02
  -5.341283e+02  -1.223019e+02
  -2.020141e+02  -4.599373e+02
   1.497587e+02  -3.461343e+02
   8.597630e+01  -2.011654e+02
   2.122975e+02   8.937693e+01
  -1.408497e+02   4.186011e+02
  -4.455380e+02  -2.124134e+02
  -1.840285e+02  -3.602031e+02
   5.881677e+02  -4.295727e+02
   7.746519e+02   2.220750e+02
   3.327249e+02   6.083297e+02
  -4.987661e+02   4.688860e+02
  -7.642241e+02  -9.129027e+01
  -3.195536e+02  -5.869801e+02
   3.201247e+02  -4.122654e+02
   5.415722e+02  -2.034388e+02
   4.828964e+02   2.604054e+02
   9.039283e+01   5.618143e+02
  -2.010045e+02   2.872049e+02
  -2.322090e+02  -2.041552e+02
   9.001142e+01  -4.997525e+02
   4.931909e+02   4.907105e+01
   3.132283e+02   6.570665e+02
  -3.346369e+02   6.883838e+02
  -7.400779e+02  -1.030596e+01
  -2.526745e+02  -6.231492e+02
   3.419988e+02  -3.592004e+02
   4.322931e+02   2.913108e+02
  -4.992408e+01   5.182307e+02
  -5.104134e+02   1.432429e+02
  -5.578199e+02  -4.342652e+02
  -1.102288e+02  -5.460799e+02
   4.275044e+02  -3.126418e+02
   6.689891e+02   9.334239e+01
   3.085199e+02   4.026571e+02
  -1.978052e+02   3.800146e+02
  -4.657975e+02   4.210224e+01
  -2.381803e+02  -2.236065e+02
   6.449463e+01  -1.475779e+02
   1.290114e+02   1.336660e+02
  -1.088535e+02   1.577087e+02
  -2.366614e+02  -1.365293e+02
  -1.290680e+02  -2.924086e+02
   1.827526e+02  -1.948802e+02
   3.161627e+02  -3.729876e+00
   1.893126e+02   7.445534e+01
   3.321415e+00   2.102088e+02
  -2.084587e+02   2.977437e+02
  -3.322684e+02   2.131559e+02
  -2.984453e+02  -9.259499e+01
  -3.166182e+01  -4.250338e+02
   1.609801e+02  -3.773078e+02
   1.277265e+02  -8.829742e+01
   1.035067e+01   8.209684e+01
   5.615903e+00  -7.036185e+01
   1.666216e+02  -1.468236e+02
   2.508045e+02   4.365496e+01
   1.816958e+02   2.714895e+02
  -6.473053e+01   2.350547e+02
  -2.687049e+02  -3.396525e+01
  -2.004124e+02  -2.217832e+02
   7.043812e+01  -2.685472e+02
   3.248413e+02  -1.341245e+02
   3.290556e+02   1.416210e+02
   1.534490e+02   3.818564e+02
  -1.356134e+02   3.158148e+02
  -1.954601e+02   1.362304e+02
  -1.552747e+02  -8.099380e+00
  -8.930057e+01  -2.640064e+01
  -2.452194e+02   9.648564e+01
  -3.574516e+02  -7.634207e+00
  -2.288457e+02  -2.598114e+02
   2.569339e+01  -4.589995e+02
   3.254913e+02  -3.839036e+02
   4.580812e+02  -1.307986e+02
   3.622454e+02   1.711121e+02
   1.065159e+02   3.046102e+02
  -1.516276e+02   1.911732e+02
  -1.140808e+02  -8.347007e+00
   5.403705e+01  -6.088683e+01
   1.863312e+02   4.291603e+01
   7.798933e+01   2.157150e+02
  -1.851107e+02   1.568053e+02
  -2.021052e+02  -7.840683e+01
  -4.293834e+01  -2.025203e+02
   1.748935e+02  -5.228687e+01
   1.637680e+02   2.210530e+02
  -3.233969e+01   3.245698e+02
  -2.141586e+02   2.298751e+02
  -2.847582e+02  -2.109131e+01
  -2.034617e+02  -2.006108e+02
  -5.960197e+01  -2.246024e+02
   8.310884e+01  -1.077803e+02
   1.270335e+02  -2.331238e+01
   1.665667e+01   2.978414e+01
  -9.417150e+01  -2.857494e+01
  -5.339544e+00  -9.993428e+01
   1.201232e+02  -9.207528e+01
   1.287895e+02   4.197577e+01
   9.117696e+01   8.805820e+01
  -9.270870e+01  -8.702925e+00
  -5.396152e+01  -8.473424e+01
   7.563541e+01  -7.384422e+01
   2.486330e+02  -1.027014e+01
   2.253596e+02   1.362126e+02
   5.126482e+01   2.617701e+02
  -1.360672e+02   2.283550e+02
  -2.671338e+02   9.825572e+01
  -1.541117e+02  -2.252391e+01
   2.811151e+01  -8.664443e+01
   5.065382e+01   8.747747e+00
  -6.335074e+01   1.077321e+02
  -1.866921e+02   5.818604e+01
  -2.116388e+02  -8.096369e+01
  -4.174023e+01  -2.136565e+02
   1.224870e+02  -1.549041e+02
   1.716925e+02  -5.873715e+01
   8.039102e+01   4.409523e+01
  -2.200120e+00   6.262965e+01
  -4.449973e+01  -5.329984e+01
   6.206426e+01  -1.249162e+02
   1.724681e+02  -1.815746e+01
   1.205967e+02   9.582422e+01
  -4.289414e+01   1.955964e+02
  -1.806928e+02   1.843586e+02
  -1.867045e+02  -9.172303e+00
  -7.055964e+01  -1.330521e+02
   6.587204e+01  -8.676037e+01
   7.999117e+01  -5.102414e+01
   3.116415e+01   2.063919e+01
  -2.143007e+01   1.418193e+01
   2.686456e+01   1.223432e+01
   4.983924e+01  -1.878389e+01
   6.389148e+01   8.804036e+01
   5.278115e+01   1.561979e+02
  -1.057554e+02   1.690295e+02
  -2.466927e+02  -1.713085e+01
  -2.115413e+02  -1.507197e+02
  -5.956447e+01  -2.770089e+02
   1.282315e+02  -1.647193e+02
   1.437274e+02  -1.536039e+01
   9.977141e+01   1.063935e+02
   3.758997e+00   6.908732e+01
   3.248192e+01  -3.277517e+01
   9.312118e+01  -1.929848e+01
   5.640701e+01   1.816016e+01
  -2.658411e+01   8.696381e+01
  -8.953807e+01   7.848095e+01
  -8.944859e+01  -1.022850e+00
   1.683559e+01  -1.142097e+02
   1.190014e+02  -1.098742e+02
   1.941122e+02   4.632061e+01
   7.673497e+01   1.311651e+02
  -8.366592e+01   2.353539e+02
  -2.552982e+02   7.697714e+01
  -2.420007e+02  -9.071825e+01
  -1.246819e+02  -1.411501e+02
   5.686298e+01  -1.410663e+02
   8.575029e+01  -9.069095e+01
   1.297808e+02  -9.011475e+01
   5.625766e+01  -9.250512e+01
   7.334276e+01  -1.021272e+02
   1.109747e+02   1.932649e+01
   1.102088e+02   1.436952e+02
   4.647558e+01   2.000069e+02
  -1.152126e+02   1.637645e+02
  -1.649364e+02   9.614951e+00
  -1.389257e+02  -1.343532e+02
  -9.809340e+00  -1.703593e+02
   5.880523e+01  -9.684238e+01
   1.141406e+02  -1.487758e+01
   1.650262e+01   2.300368e+01
  -6.168579e+00   5.500478e+00
   6.625040e+01   3.971627e+01
   1.046313e+02   4.583068e+01
   3.395047e+01   4.304195e+01
  -5.382319e+01   4.571121e+01
  -1.382389e+02   1.254037e+01
  -1.347301e+02  -4.188320e+01
   1.821404e+00  -7.513591e+01
   8.080144e+01  -4.130732e+01
   1.026674e+02   1.748155e+00
   5.796126e+01   6.503262e+01
  -3.200892e+01   6.096584e+01
  -4.142448e+01  -1.777527e+01
  -4.384690e+01  -5.969293e+01
   3.780074e+01  -4.759922e+01
   6.042475e+01  -1.690371e+00
   8.847280e+00   1.397062e+01
   9.820285e+01   4.161341e+01
   3.516518e+01   1.508387e+01
   6.130128e+01   5.279462e+01
   4.864746e+01   8.617470e+00
  -2.390129e+01   1.466460e+02
  -8.262590e+01   1.409606e+02
  -1.375640e+02   4.848246e+01
  -1.323251e+02  -8.773792e+01
  -1.205183e+01  -1.013428e+02
   7.641596e+00  -3.919733e+01
   5.936760e+01   5.429147e+00
  -1.744991e+01   4.762099e+00
  -8.714449e+01  -6.078025e+01
  -6.427399e+01  -9.148001e+01
   7.182381e+01  -1.021024e+02
   1.565504e+02  -2.628937e+01
   1.516279e+02   4.109666e+01
   1.106101e+01   1.089236e+02
  -8.992969e+01   7.355744e+01
  -7.544079e+01   6.136877e+00
  -2.422909e-01  -2.550089e+01
   3.197830e+01   1.267290e+00
   1.133459e+01   1.097438e+02
  -9.993582e+01   1.291801e+02
  -1.573328e+02   3.513862e+01
  -9.456210e+01  -1.010770e+02
   2.585813e+01  -1.701224e+02
   5.974662e+01  -8.910702e+01
   7.083555e+01   5.003670e+01
   2.763468e+01   1.283722e+02
  -1.451182e+01   8.818070e+01
  -1.397706e+01   5.193675e+01
  -4.130367e+01  -6.263883e+01
   1.349200e+01  -3.555232e+01
   1.485265e+01   1.056142e+02
  -2.331549e+00  -1.079583e+01
  -8.219157e+01  -8.659699e+01
  -5.429036e+01  -1.353537e+02
   3.882584e+01  -7.752470e+01
   1.057543e+02   1.331203e+01
   1.356157e+02   7.819463e+01
   3.964760e+01   7.002457e+01
  -1.075239e+02   5.073206e+01
  -5.455978e+01   3.689537e+01
  -4.066019e+01   2.154855e+01
   4.702205e+01  -2.711821e+01
   5.616442e+01  -3.917691e+01
  -1.099541e+01   3.218463e+01
   1.364726e+01   1.061893e+01
   9.963032e+00   1.853896e+01
   5.572876e+01   3.215539e+00
  -1.298291e+01   4.111409e+01
  -5.809687e+01   8.232313e+01
  -1.519716e+02   3.238115e+01
  -1.163628e+02  -5.952891e+01
  -2.045326e+01  -1.431396e+02
   8.619827e+01  -1.434182e+02
   1.158073e+02  -8.192356e+01
   7.206725e+01  -7.693169e+00
   3.324687e+01   2.305751e+01
   1.491471e+01   4.700727e+01
   3.689914e+00   1.101282e+01
  -8.319929e+00   5.631965e-01
  -1.618794e+01   6.005265e+01
  -7.046744e+01   4.459991e+01
  -7.429520e+01  -4.558853e+01
  -8.342291e+01  -9.835508e+01
  -2.849971e+01  -1.429626e+02
   5.751206e+01  -4.125860e+01
   1.034716e+02   6.644138e+01
   6.054864e+00   1.215475e+02
  -7.963669e+01   7.459074e+01
  -7.850822e+01  -6.343271e+00
  -3.755254e+01  -4.133259e+01
  -1.431522e+01  -4.015569e+01
   6.257661e+01   7.680782e+00
  -2.409196e+01   1.680714e+01
  -2.502309e+01   1.259255e+01
  -1.136247e+01   2.496759e+01
   6.775514e+00  -1.824307e+01
   8.483875e+01  -1.032241e+02
   2.745753e+01   2.544107e+01
   1.061250e+00   5.985599e+01
  -4.024195e+01   6.735741e+01
  -5.429297e+01   3.095627e+01
   3.128202e+01  -7.863239e+01
   4.331958e+01  -2.955009e+01
   5.081175e+01   1.267231e+01
   2.993281e+01   7.140913e+01
  -2.974658e+01  -1.162452e+01
  -4.032976e+01  -2.375712e+00
  -8.242054e+01   1.938938e+00
  -2.541533e+01   1.249624e+01
   3.174077e+01   3.123992e+01
  -3.379493e+01   5.834446e+00
   6.099410e+01  -4.600800e+01
   3.828222e+00  -5.504375e+01
   4.119640e+01   1.693370e+01
   6.654551e+01   4.723518e+01
   2.875870e+01   8.837413e+01
  -3.729296e+01   7.680963e+00
  -3.918827e+01  -9.449981e+00
   1.064143e+01  -7.375909e+01
   6.741252e+01  -4.307930e+01
   7.736261e+01   5.105134e+01
   3.794002e+01   3.341261e+01
  -6.301701e+00   3.628257e+01
  -6.700702e+01   2.173458e+01
  -6.586262e+00  -4.911917e+00
  -1.312927e+01  -1.610795e+01
   2.377874e+01   2.423487e+01
  -5.164858e+01   5.943287e+00
  -8.555722e+01   1.670578e+01
