
 $NMID
 id='ANONYMOUS ', fmtdat='(2E16.6)'
 volume=1.0
 tramp=1.0
 $END
   3.413691e+03  -1.652672e+02
   2.208166e+03   1.789840e+03
  -7.643725e+02   2.136279e+03
  -1.576684e+03   7.671371e+02
  -6.565115e+02  -5.158680e+02
   5.889609e+02  -4.842965e+02
   6.217173e+02   3.561844e+02
   5.468239e+01   8.608718e+02
  -8.221004e+02   7.139635e+02
  -6.971270e+02  -7.726777e+01
  -3.928936e+02  -7.265952e+02
   3.027566e+02  -7.883213e+02
   5.319355e+02   1.945730e+00
   3.048562e+02   4.578770e+02
  -3.192593e+01   6.789909e+02
  -3.943002e+02   1.356354e+02
  -3.180410e+02  -4.855665e+02
   1.504855e+02  -2.376641e+02
   5.998567e+02   2.011941e+00
   2.579925e+02   2.695713e+02
  -7.628608e+01   4.429815e+02
  -1.883569e+02   1.225163e+02
  -2.310792e+02   2.929354e+01
  -4.088407e+01  -1.082577e+02
   3.592189e+02   1.282520e+02
   1.182159e+02   3.403576e+02
  -3.801575e+02   2.174665e+02
  -4.882163e+02  -1.942841e+02
  -2.933608e+02  -3.996421e+02
   2.640233e+02  -3.082644e+02
   3.825645e+02   1.539445e+02
   2.218693e+02   3.860953e+02
  -1.474626e+02   2.797180e+02
  -4.412416e+02   2.162158e+01
  -2.539647e+02  -1.645263e+02
  -2.813896e+01  -3.326710e+02
   1.866889e+02  -2.087003e+02
   1.302742e+02   1.656316e+02
  -9.861264e+01   2.623408e+02
  -1.946362e+02  -6.676983e+01
  -1.068955e+02  -3.895738e+02
   1.930222e+02  -3.802200e+02
   3.885892e+02   3.948488e+01
   1.196486e+02   3.568406e+02
  -2.181528e+02   1.562152e+02
  -1.851593e+02  -2.678646e+02
   9.245386e+01  -3.791006e+02
   4.145373e+02  -5.311295e+01
   4.101075e+02   3.484853e+02
   8.821720e+01   4.271510e+02
  -2.794667e+02   2.707835e+02
  -4.707223e+02  -4.111977e+01
  -2.556040e+02  -2.762621e+02
   8.194553e+01  -2.656648e+02
   2.655758e+02  -5.799318e+01
   1.605143e+02   1.013633e+02
  -4.731412e+01   1.399951e+01
  -7.186415e+01  -1.649227e+02
   1.488986e+02  -1.541734e+02
   2.828333e+02   8.357603e+01
   1.302732e+02   2.653334e+02
  -1.489840e+02   2.427851e+02
  -2.888086e+02   5.744156e+01
  -1.586870e+02  -1.168092e+02
   6.129552e+01  -2.185793e+02
   1.947435e+02  -2.460469e+02
   2.712272e+02  -8.791320e+01
   2.168161e+02   1.699983e+02
   6.941075e+01   3.546026e+02
  -7.355864e+01   3.033402e+02
  -1.453193e+02   1.147742e+02
  -7.333209e+01  -2.166222e+01
  -3.997354e+01   4.170942e+01
  -1.283180e+02   7.822263e+01
  -1.776922e+02  -6.085849e+01
  -1.144804e+02  -1.935217e+02
   2.749940e+01  -2.172478e+02
   1.737677e+02  -9.536050e+00
   1.529566e+02   1.665618e+02
   4.755543e-01   2.211485e+02
  -1.811977e+02   8.937700e+01
  -2.640586e+02  -1.185028e+02
  -9.703845e+01  -2.854213e+02
   2.285212e+01  -2.539794e+02
   1.407342e+02  -8.692207e+01
   1.148056e+02   1.354013e+01
   1.184245e+02   2.468436e+01
   2.241546e+02  -6.645638e+00
   3.057929e+02   8.301803e+01
   2.457248e+02   2.341899e+02
  -5.837747e+01   3.467149e+02
  -3.346746e+02   3.140784e+02
  -4.107358e+02   1.428927e+02
  -2.530163e+02  -7.852736e+01
   1.062333e+01  -2.185983e+02
   1.345534e+02  -1.717372e+02
   7.060402e+01  -1.773496e+01
  -6.869788e+01   9.070520e+01
  -1.010969e+02   3.838449e+01
  -1.346972e+01  -9.143774e+01
   5.845790e+01  -1.103996e+02
   9.402869e+01   2.743423e+01
  -4.694753e+01   1.164628e+02
  -1.636294e+02   1.431081e+01
  -1.136142e+02  -1.852330e+02
   1.167912e+01  -2.776631e+02
   1.868503e+02  -1.843957e+02
   2.033548e+02   3.714650e+01
   1.873011e+02   2.108006e+02
   6.133117e+01   2.164530e+02
  -1.040085e+02   1.033815e+02
  -1.158079e+02   5.624763e+00
  -6.807083e+00  -2.047524e+01
   7.297073e+01   4.734526e+01
  -4.964638e+01   1.073310e+02
  -1.220918e+02   7.695802e+01
  -1.591484e+02  -6.319198e+00
  -9.304704e+01  -5.684841e+01
   4.470167e+01  -9.690262e+00
   8.506281e+01   2.130132e+01
  -2.628885e+01   3.451237e+01
  -2.028617e+02  -3.755936e+01
  -2.232275e+02  -9.173246e+01
  -6.655711e+01  -1.691922e+02
   1.276747e+02  -1.670625e+02
   2.382261e+02  -8.194041e+01
   1.685857e+02   4.630511e+01
  -1.548668e+01   5.612484e+01
  -1.128595e+02  -6.968323e+00
  -1.718428e+01  -7.789782e+01
   1.456472e+02  -3.847505e+01
   1.496736e+02   8.134233e+01
   5.656195e+01   1.487541e+02
  -4.369150e+01   9.825045e+01
  -1.051697e+02   6.678275e+00
  -1.692557e+01  -3.960839e+01
   2.884661e+01  -3.340191e+01
   3.530995e+01   6.471638e+01
  -4.921932e+01   8.927634e+01
  -1.220973e+02   1.657914e+01
  -1.278577e+02  -1.000936e+02
  -1.520480e+01  -1.481180e+02
   1.446018e+02  -1.295656e+02
   1.665864e+02  -3.248764e+01
   4.827783e+01   6.041991e+01
  -4.735150e+01   1.169902e+02
  -4.833957e+01   3.225826e+01
  -2.396896e+01   1.873124e+01
  -8.846511e+00   3.500450e+01
  -2.265995e+01  -8.465881e+00
  -5.132759e+01  -2.363560e+01
  -3.085043e+01  -5.567040e+01
   5.229113e+01  -8.218686e+01
   1.015659e+02  -6.010995e+01
   1.425369e+02   1.015347e+01
   8.262199e+01   1.175392e+02
  -2.571467e+00   1.490919e+02
  -1.213335e+02   1.063133e+02
  -1.125090e+02   2.600159e+01
  -9.402757e+01  -7.922167e+01
  -1.764193e+01  -7.547827e+01
  -3.653978e+00  -2.442367e+01
   6.328655e+00  -1.326556e+00
   1.957437e+01  -5.989798e+01
   5.758644e+01  -7.264109e+01
   9.338504e+01  -8.508197e+01
   5.951709e+01   1.474513e+01
  -6.473112e+00   8.743022e+01
  -5.110517e+01   5.057992e+01
  -7.061997e+01  -2.158530e+01
  -6.099618e+01  -1.421631e+02
   3.782453e+01  -1.424370e+02
   1.793273e+02  -7.822998e+00
   2.143003e+02   7.347715e+01
   8.947002e+01   1.195323e+02
  -9.547380e+00   1.161555e+02
  -9.032538e+01   9.533804e+01
  -7.440917e+01   7.586298e+01
  -9.437063e+01   1.297833e+02
  -9.451293e+01   3.217512e+01
  -1.321201e+02  -2.745551e+01
  -8.758159e+01  -1.212119e+02
  -1.171864e+01  -1.695578e+02
   1.257328e+02  -1.299508e+02
   1.302453e+02  -3.385087e+01
   1.251277e+02   9.173981e+01
   1.138528e+01   9.815527e+01
  -6.954041e+01   7.479181e+01
  -4.126457e+01  -4.640880e+00
  -3.635928e+01  -2.063804e+01
   2.120964e+01  -1.588676e+01
  -4.397925e+00  -1.280913e+01
  -2.646518e+01  -3.738471e+01
  -2.123892e+01  -5.879358e+01
   7.089412e+01  -2.946015e+01
   1.250412e+02   2.503692e+01
   7.787725e+01   2.496249e+01
   3.511821e+01   3.711430e+01
  -8.000958e+01   5.611344e+01
  -9.145267e+01  -1.059553e+01
  -2.357463e+01  -1.003241e+01
   6.539452e+00  -1.942297e+00
   4.755659e+01   2.264517e+01
  -1.847741e+01   7.787328e+01
  -4.048803e+01   5.116302e+01
  -5.486451e+01  -3.360070e+01
  -2.993842e+00  -4.478236e+01
  -4.733617e+01  -6.207449e+01
  -2.229988e+01   2.164913e+01
  -7.871344e+01   2.717264e+01
  -6.341527e+01  -4.297032e+01
   2.420598e+00  -7.840294e+01
   9.433406e+01  -8.553277e+01
   1.116105e+02  -3.051494e+01
   9.253857e+01   4.490291e+01
   2.375603e+01   9.150364e+01
  -4.572776e+00   2.453567e+01
  -3.562693e+01   5.455622e+00
   1.470724e+01  -1.454032e+01
   8.385365e+01   3.579755e+01
   2.875534e+01   1.022215e+02
  -8.468599e+01   8.473509e+01
  -1.191172e+02   6.210851e+01
  -1.437078e+02  -2.738915e+01
  -5.545431e+01  -7.637444e+01
   3.790876e+01  -4.070021e+01
   2.889042e+01  -1.440380e+01
   6.024858e+00  -4.052703e+01
  -3.589783e+01  -3.020479e+01
  -4.593925e+00  -9.105972e+01
   5.494056e+01  -7.602384e+01
   9.834624e+01  -1.665729e+01
   5.663505e+01   8.112264e+01
  -4.066407e+00   1.292380e+02
  -8.174691e+01   1.035733e+02
  -7.839806e+01  -2.920530e+01
  -4.716634e+01  -9.769321e+01
   1.476072e+01  -7.832866e+01
   5.433791e+01  -3.583788e+00
   4.887166e+01   2.294895e+00
   4.253292e+01  -2.912816e+01
   2.896625e+01   2.479674e+01
   3.595753e+01   5.414533e+01
   3.189991e+00   8.535203e+01
   5.531587e+00   1.037439e+02
  -3.984838e+01   2.360227e+01
  -1.209675e+02  -6.389113e+01
  -9.256178e+01  -6.278885e+01
  -2.739160e+01  -3.286906e+01
   7.460512e+01  -8.478201e+00
   4.745009e+01  -5.495191e+00
   8.861518e+00  -2.415027e+01
  -1.002158e+01   5.657317e+01
   3.089267e+00   7.889012e+00
   5.825657e+00   1.098274e+01
  -4.255846e+01  -3.742466e+00
  -3.704342e+01   3.360616e+00
  -1.073554e+02  -2.810351e+01
   3.468088e+00  -5.978073e+01
   4.635213e+01  -4.580189e+01
   1.059139e+02  -3.736305e+01
   1.061238e+02   3.158628e+01
   2.982644e+01   1.020730e+02
  -5.454506e+01   6.719260e+01
  -6.598445e+01   8.060746e+01
  -5.030181e+01  -2.189785e+01
  -1.395174e+01  -9.246665e+00
  -3.439360e+00  -1.032329e+00
  -1.154230e+01   1.722912e+01
  -3.737970e+01  -4.252399e+01
  -1.563769e+01  -6.734191e+01
   1.213673e+01  -5.641966e+01
   8.197797e+01   3.894852e+00
   7.622204e+01   5.874223e+01
  -1.330219e+01   8.942300e+01
  -4.193929e+01   8.272783e+00
  -4.998668e+01  -6.374412e+01
  -6.207126e+01  -8.558009e+01
   5.836746e+01  -4.583453e+01
   7.146335e+01   2.703722e+00
   1.577148e+01   2.879076e+01
   1.093543e+01   7.067471e+00
  -1.832024e+01  -2.690657e+01
   2.155761e+01   9.518814e+00
   3.592807e+01  -3.198972e+01
   3.468239e+01   1.440874e+01
  -4.778890e+01   8.653382e+01
  -9.845155e+01   2.599278e+01
  -3.032799e+01  -4.265115e+01
   1.283345e+00  -5.741473e+01
   2.598775e+01  -6.467961e+01
   5.273331e-01  -1.538499e+01
  -6.240360e+00  -2.274207e+01
  -1.139507e+01   8.653147e+00
  -4.062187e+01  -1.865528e+01
  -5.057399e+00  -1.023551e+01
   1.950480e+01  -4.925240e+01
   4.191671e+01  -8.069718e+00
   5.089650e+01   3.163280e+01
   2.148077e+01   1.012229e+01
  -5.245206e+00  -3.802390e+01
   4.270905e+01   1.667465e+01
   7.674976e+00   2.708567e+01
   2.542232e+00   7.940332e+01
  -3.022592e+01   3.145411e+01
  -2.995495e+01  -9.891655e+01
  -7.714916e+00  -5.964575e+01
   4.450250e+01   8.922991e+00
   3.647349e+01   7.702837e+01
   3.162504e+01   6.045852e+01
  -1.946280e+01   7.912794e+01
  -1.120165e+02  -1.744519e-01
  -5.075567e+01  -8.221573e+01
   3.694399e+01  -5.423626e+01
   5.984337e+01  -6.323482e+00
   4.343963e+01  -2.976309e+00
  -2.263491e+01   1.588685e+01
  -1.496817e+01  -1.708187e+01
   5.786444e+01  -2.896193e+01
   5.490887e+01   1.649758e+01
