
 $NMID
 id='ANONYMOUS ', fmtdat='(2E16.6)'
 volume=1.0
 tramp=1.0
 $END
  -2.332339e+03   2.676545e+01
  -1.454871e+03  -1.383936e+03
   2.089505e+02  -1.589574e+03
   9.681421e+02  -8.090051e+02
   7.067471e+02   3.207261e+02
  -1.653800e+02   3.236851e+02
  -3.847666e+02  -1.106851e+02
   1.296198e+02  -5.486203e+02
   3.807867e+02  -2.939216e+02
   4.760800e+02   1.191588e+02
   3.285383e+02   3.894434e+02
  -2.085451e+02   4.548547e+02
  -4.110788e+02   1.122187e+01
  -1.570810e+02  -3.601669e+02
  -7.989898e+01  -5.035841e+02
   1.415553e+02  -3.337158e+01
   2.766756e+02   3.424904e+02
  -1.043756e+02   3.903802e+02
  -3.395296e+02   1.354974e+02
  -3.482695e+02  -3.664354e+02
   2.677167e+00  -1.310770e+02
   1.076241e+02  -8.135700e+01
   7.387795e+01  -1.252167e+02
  -1.145508e+02   1.531006e+02
  -2.294850e+02  -3.551491e+01
  -1.450032e+02  -3.670451e+02
   3.146932e+02  -2.963688e+02
   5.558974e+02   2.720056e+01
   2.924930e+02   3.083438e+02
  -2.822926e+02   3.370609e+02
  -4.767246e+02  -1.218619e+00
  -2.734726e+02  -3.586081e+02
   1.194334e+02  -2.990237e+02
   3.449205e+02  -1.630656e+02
   2.268735e+02   1.016112e+02
   9.117547e+01   3.013295e+02
  -4.316039e+01   1.832343e+02
  -5.270334e+01  -8.543825e+01
   1.123454e+02  -1.698166e+02
   2.598943e+02  -3.819107e+00
   1.644909e+02   3.816883e+02
  -2.012627e+02   4.800854e+02
  -4.374486e+02   5.292466e+00
  -2.097779e+02  -3.815593e+02
   1.485577e+02  -2.718340e+02
   2.844249e+02   1.479614e+02
   4.295733e+01   3.072551e+02
  -3.110339e+02   1.518696e+02
  -3.704615e+02  -1.736595e+02
  -1.515444e+02  -3.284476e+02
   2.339647e+02  -2.051331e+02
   3.907165e+02   4.287030e+01
   2.560378e+02   2.597665e+02
  -6.893816e+01   2.496044e+02
  -2.670513e+02   2.900106e+01
  -1.918037e+02  -1.567951e+02
   6.694109e+01  -1.223672e+02
   8.265317e+01   5.476417e+01
  -4.558335e+01   1.583888e+02
  -2.430824e+02   4.900479e+00
  -8.821689e+01  -1.131488e+02
   7.223682e+01  -1.945073e+02
   1.899671e+02  -7.017674e+01
   1.291375e+02  -1.614423e+01
   2.757396e+00   1.262266e+02
  -1.209809e+02   2.027818e+02
  -1.727537e+02   1.082756e+02
  -2.183463e+02  -1.427842e+02
  -5.851548e+01  -2.082432e+02
   3.422144e+01  -2.261492e+02
   1.147994e+02  -3.546225e+01
   2.324823e+01  -8.790053e+00
   4.312481e+01  -9.721566e-01
   1.129464e+02  -1.064676e+02
   1.715060e+02   3.117990e+01
   7.017625e+01   1.477057e+02
  -1.605586e+01   1.427012e+02
  -1.082999e+02  -2.026355e+01
  -9.338241e+01  -1.828137e+02
  -8.499764e-01  -1.840589e+02
   1.663636e+02  -6.704744e+01
   2.294323e+02   9.248442e+01
   1.659270e+02   2.123847e+02
  -6.147440e+01   1.973100e+02
  -1.057263e+02   8.600618e+01
  -8.962584e+01   3.138432e+01
  -2.381961e+01  -1.206516e+01
  -9.084895e+01   7.354426e+01
  -2.172624e+02   1.136315e+01
  -2.319024e+02  -1.546182e+02
   2.370716e+01  -2.443507e+02
   1.765631e+02  -2.100316e+02
   2.573388e+02  -1.104288e+02
   1.355609e+02   4.439313e+01
  -3.269296e+00   1.079010e+02
  -8.289189e+01   1.479394e+02
  -6.780249e-01   4.881387e+00
   8.400627e+01  -3.513331e+01
   1.665668e+02   3.751893e+01
   5.016871e+01   1.023940e+02
  -6.719439e+01   1.087485e+02
  -1.203157e+02   1.776075e+01
   6.830847e+00  -1.218600e+02
   9.528430e+01   1.998158e+01
   6.907844e+01   9.893248e+01
   6.912895e+00   1.979450e+02
  -1.264605e+02   1.420873e+02
  -2.182590e+02  -9.900266e+00
  -1.985789e+02  -9.209731e+01
  -7.828818e+01  -1.644781e+02
   7.885340e+01  -1.199948e+02
   1.090626e+02  -1.700459e+01
  -3.054223e+01  -1.738816e+01
  -3.009132e+01  -9.951550e-02
   1.816988e+01  -6.162733e+01
   7.455474e+01  -6.175632e+01
   1.129279e+02   2.781070e+01
  -8.941249e+00   3.018473e+01
  -9.683162e+01   1.035591e+01
  -1.791166e+01  -7.510387e+01
   9.424660e+01  -6.110852e+01
   1.985637e+02   3.780348e+01
   1.708040e+02   1.285409e+02
   4.882502e+01   1.361188e+02
  -9.987352e+01   1.707688e+02
  -1.548864e+02   8.107959e+01
  -1.149052e+02  -5.995778e+00
  -2.844428e+01  -9.802550e+01
   3.758210e+01  -3.804297e+00
   1.657535e+01   3.608868e+01
  -1.403437e+02   3.874040e+01
  -1.450154e+02  -5.265649e+01
  -2.252684e+01  -1.143799e+02
   2.465180e+01  -7.930227e+01
   4.906283e+01   1.756111e+01
   2.894561e+01  -8.901881e+00
   1.000959e+01  -3.389570e+01
  -1.787167e+01  -3.957160e+01
   2.693967e+01   7.192009e+00
   9.878304e+01  -2.513161e+01
   1.452961e+02   2.616728e+01
  -1.023127e+01   7.849609e+01
  -7.479116e+01   9.542592e+01
  -9.394291e+01   3.471072e+01
  -3.575953e+01  -6.594660e-02
   6.625593e+00  -6.618767e+01
   7.888217e+01  -7.414295e+00
   2.399202e+01   5.658523e+00
   4.064752e+01  -2.693871e+01
  -4.096513e+00   3.592610e+01
   6.013341e+01   2.428221e+01
  -1.083729e+01   5.858099e+01
   2.324633e+01   1.274731e+02
  -6.318198e+01   9.861247e+01
  -1.358659e+02  -1.824734e+01
  -1.361512e+02  -6.087168e+01
  -2.911327e+01  -1.256093e+02
   1.973066e+01  -8.901538e+01
   2.556572e+01  -4.514165e+01
   2.348807e+01   3.795240e+01
   1.582499e+01   1.612626e+01
   4.256100e+01   6.032307e+00
   5.017381e+01   3.127817e+01
   7.487270e+01   4.149322e+01
  -3.094171e+01   4.990340e+01
  -1.141562e+02   4.208254e+00
  -9.519434e+01  -3.410332e+01
  -4.866493e+00  -6.482020e+01
   5.673842e+01  -9.903364e+01
   1.295019e+02   3.779149e+01
   9.025088e+01   8.769217e+01
  -4.331269e+01   6.038908e+01
  -1.399743e+02   1.566820e+00
  -1.595324e+02  -2.827285e+01
  -5.146264e+01  -9.423555e+01
  -4.276987e+01  -5.865313e+01
   6.072449e+01  -2.913670e+01
   5.699109e+01  -5.858023e+01
   6.902462e+01  -7.889952e+01
   1.133203e+02  -4.943300e+01
   7.893407e+01   2.840237e+01
   7.904504e+01   1.182962e+02
  -8.536918e+00   1.413874e+02
  -7.889496e+01   1.244065e+02
  -1.125648e+02   2.428005e+01
  -1.033275e+02  -5.485611e+01
  -2.339170e+01  -1.630950e+02
   3.495180e+01  -3.759808e+01
   4.133129e+01  -3.261722e+01
   2.150748e+01   4.077606e+01
  -1.924411e+00  -1.312240e+01
  -1.186725e+01   1.949164e+01
   5.364626e+01   4.420597e+00
   1.261659e+01  -4.944824e+01
   2.004858e+01   2.117314e+01
  -6.986321e+01  -1.387690e+01
  -1.292813e+02   1.299898e+01
  -2.231769e+01  -1.635619e+01
   2.893540e+01  -5.488502e+01
   9.495691e+01  -3.228429e+01
   2.927413e+01   2.862578e+01
  -4.309926e+01   3.171737e+00
  -7.939328e+01  -5.322915e+01
   7.040301e+00  -4.543130e+01
   4.772967e+01  -3.997427e+01
   5.936730e+01   1.151573e+01
   4.526565e+01   1.944713e+01
   2.254466e+01   3.242641e+01
   6.208242e+01   2.987538e+01
  -4.105978e+00   4.304915e+01
   1.383598e+01   2.031291e+01
  -1.866720e+01   6.275274e+01
  -3.515142e+01   7.237064e+01
  -6.048050e+01   2.378902e+01
  -6.725733e+01  -1.127449e+01
   5.213729e+01  -8.107481e+01
   3.989671e+01  -8.771345e+01
   3.465386e+01  -2.072631e+01
  -6.332784e+01   2.966175e+00
  -8.216468e+01  -1.559369e+01
  -3.526023e+01  -6.032790e+01
   2.097980e+01  -3.286575e+00
   8.733020e+01  -3.691198e+01
   5.176180e+01  -3.123777e+00
  -5.384708e+01   4.951605e+00
  -2.909768e+01   3.704114e+01
   4.006214e+00   1.127161e+01
  -9.020491e+00  -2.955890e+01
   3.221748e+01  -1.027163e+01
   3.817370e+01   4.460746e+01
  -5.254366e+01   1.101211e+02
  -1.187692e+02   2.059237e+01
  -8.484871e+01  -5.883141e+01
   2.200310e+01  -1.257161e+02
   6.469779e+01  -1.172465e+02
   6.780889e+01   4.579577e+01
   5.345638e+01   8.268401e+01
   3.006453e+01   4.111529e+01
  -2.468768e+01   3.634648e+01
  -1.433677e+01  -8.697374e-01
  -3.338963e+01  -1.577680e+01
  -3.055675e+01   2.068344e+01
   2.550487e+01  -6.665828e+00
  -1.614262e+01   1.152478e+00
  -4.047138e+00  -3.423237e+01
   1.867141e+01  -5.386356e+01
   6.213703e+01   1.820431e+00
   6.565087e+01   8.963931e+01
  -3.687085e+00   9.154159e+01
  -4.214899e+01   2.842646e+01
  -3.711503e+01  -3.051528e+00
  -3.429130e+01  -3.004237e+01
  -4.084985e+01  -2.446206e+01
   3.956734e+01  -1.013359e+01
  -2.246858e+01  -1.562010e+01
   1.452283e+00  -1.191185e+01
   2.082023e+01   4.326811e+00
   5.969597e+01   3.245945e+01
   1.847483e+00   9.902810e+00
  -7.127453e+01   3.774092e+01
  -8.476781e+01   2.894868e+01
  -8.841760e+01  -4.093056e+01
  -4.450840e+01  -5.847836e+01
   6.049649e+01  -7.752441e+01
   7.205821e+01   2.350835e+00
   7.067811e+01  -7.602464e+00
  -4.349014e+00   4.729819e+01
   4.989974e+01   1.102461e+00
   2.288020e+01  -2.557997e+01
  -1.294477e+01   2.613946e+01
  -5.667720e+00   7.747686e+01
   5.267109e+00   3.116472e+01
  -2.284691e+01  -1.642546e+01
  -2.259210e+01  -7.176899e+01
  -9.630919e+00  -3.059874e+01
   4.753366e+01  -2.257929e+01
   4.935702e+01   6.794120e+01
   6.022744e+01   1.193592e+02
  -1.240670e+01   2.845937e+01
  -5.463223e+01   1.422724e+01
  -2.264820e+01  -2.702829e+01
   1.553359e+01  -1.722688e+01
  -3.660481e+00  -4.466754e+01
  -3.248976e+01   5.699486e+00
  -1.291141e+01  -2.708073e+01
  -1.093516e+01  -5.043702e+00
   1.053896e+02  -3.905435e+01
   7.835541e+01  -5.094128e+01
   4.213451e+01  -1.110001e+01
  -2.203016e+01   6.648961e+01
  -2.097176e+01   7.656563e+01
  -2.384440e+01  -1.401794e+01
  -1.123464e+01   1.140868e+01
   2.094618e+01  -6.911429e+01
  -1.405168e+01   6.791857e+00
   3.385191e+01   2.140835e+01
  -1.795807e+01   4.725312e+01
  -4.879147e+01  -1.332584e+00
  -4.562062e+01  -3.439029e+01
   1.926385e+01  -6.469850e+00
   5.871274e+01  -1.220638e+01
  -3.021775e+01  -1.305265e+01
   1.925333e+01  -6.461075e+00
   2.760845e+01  -9.879405e+00
   4.287407e+00  -2.141113e+01
  -1.626666e+01   3.865934e+01
   2.407089e+01  -1.462961e+00
  -8.415175e+00  -3.303473e+01
   3.452006e-01  -4.958696e+01
  -3.742799e+00  -4.112092e+01
   1.075255e+01   1.371830e+01
   7.276312e+01   2.032979e+01
   5.205944e+01  -8.897227e+00
  -1.855469e+00   5.250220e+00
  -7.864163e+01  -9.613198e+00
  -2.454679e+01   2.354368e+01
  -6.646153e-01   2.588420e+01
   2.023513e+01  -3.249200e+01
  -1.545951e+01  -1.142848e+00
  -2.433903e+01  -1.061861e+01
