
 $NMID
 id='ANONYMOUS ', fmtdat='(2E16.6)'
 volume=1.0
 tramp=1.0
 $END
  -4.805594e+03   2.334874e+02
  -2.924330e+03  -2.885226e+03
   8.307886e+02  -3.227408e+03
   2.291314e+03  -9.662963e+02
   9.712389e+02   5.393794e+02
  -8.002136e+02   6.760136e+02
  -8.438977e+02  -5.283242e+02
   8.428007e+01  -1.275343e+03
   8.799081e+02  -8.161720e+02
   1.061253e+03   2.894908e+02
   5.255709e+02   9.121647e+02
  -2.467720e+02   8.276047e+02
  -8.540604e+02   1.054633e+02
  -4.166217e+02  -7.824848e+02
   4.066815e+02  -6.491921e+02
   6.790955e+02   1.039918e+02
   2.877831e+02   4.448499e+02
  -1.540172e+02   4.660314e+02
  -6.745033e+02   2.829743e+02
  -4.413991e+02  -3.337169e+02
   9.226491e+01  -6.574002e+02
   3.320802e+02  -3.966884e+02
   2.998575e+02   8.444595e+00
  -1.114219e+02   8.928920e+01
  -5.478228e+02  -8.436136e+01
  -3.127156e+02  -4.533017e+02
   5.639519e+02  -4.748050e+02
   9.249519e+02   1.501025e+02
   3.651703e+02   6.251249e+02
  -4.645170e+02   5.404356e+02
  -7.757955e+02  -1.051054e+02
  -3.944598e+02  -5.609839e+02
   2.210651e+02  -6.026965e+02
   6.864292e+02  -2.176620e+02
   5.050867e+02   3.017195e+02
   1.076691e+02   5.666808e+02
  -2.224599e+02   3.063349e+02
  -1.616406e+02  -1.974747e+02
   1.791952e+02  -4.707337e+02
   4.432839e+02   4.630178e+01
   3.086257e+02   7.913254e+02
  -3.006611e+02   7.448756e+02
  -6.588586e+02   2.943000e+01
  -2.739869e+02  -5.847205e+02
   2.626201e+02  -4.093006e+02
   3.856273e+02   2.756358e+02
  -4.747663e+00   5.851431e+02
  -5.600305e+02   1.998366e+02
  -6.348444e+02  -3.973767e+02
  -2.201312e+02  -6.415104e+02
   3.842361e+02  -3.425747e+02
   6.938065e+02   8.335679e+01
   4.274010e+02   4.144456e+02
  -1.692840e+02   3.946788e+02
  -5.232462e+02   7.396253e+01
  -3.124096e+02  -1.856745e+02
   9.069036e+01  -1.601615e+02
   1.839583e+02   1.040355e+02
  -1.217573e+02   1.456018e+02
  -3.700737e+02  -1.274959e+02
  -1.780047e+02  -3.129393e+02
   2.413377e+02  -2.688911e+02
   3.563638e+02  -8.418295e+01
   1.968947e+02   1.222673e+02
  -5.763014e+01   2.189894e+02
  -2.050009e+02   3.135314e+02
  -3.175722e+02   2.256504e+02
  -3.034713e+02  -1.609177e+02
  -1.088301e+02  -4.551493e+02
   1.217974e+02  -4.149604e+02
   1.614517e+02  -1.421461e+02
   9.121220e+01   4.252197e+01
   6.065548e-01  -9.734661e+01
   1.122148e+02  -1.274007e+02
   2.368298e+02   5.733077e+01
   1.595895e+02   2.602306e+02
  -6.363619e+01   2.885332e+02
  -2.191204e+02   2.734022e+01
  -2.252120e+02  -2.510556e+02
   1.277946e+00  -2.735120e+02
   2.477731e+02  -1.340470e+02
   3.797215e+02   8.370551e+01
   2.430504e+02   3.412726e+02
  -1.135721e+02   3.054216e+02
  -1.961609e+02   9.956562e+01
  -1.732109e+02   1.513491e+01
  -1.091101e+02   3.603533e+01
  -2.760960e+02   2.195458e+01
  -4.338588e+02  -4.880935e+01
  -3.425969e+02  -2.448519e+02
   1.551386e+00  -4.349834e+02
   3.619297e+02  -4.326616e+02
   4.943355e+02  -2.273315e+02
   3.723124e+02   9.105491e+01
   2.973277e+01   3.461101e+02
  -1.342416e+02   2.822887e+02
  -6.332265e+01   1.932088e+01
   1.084986e+02  -1.637759e+02
   2.254638e+02  -3.598621e+01
   4.518537e+01   2.247543e+02
  -1.544697e+02   2.191072e+02
  -2.015029e+02  -4.669965e+01
  -2.889467e+01  -1.786989e+02
   1.793140e+02  -6.720641e+01
   1.829116e+02   2.540552e+02
  -3.396377e+01   3.000425e+02
  -1.910611e+02   1.394726e+02
  -3.181804e+02  -8.144569e+01
  -2.706116e+02  -2.026065e+02
  -1.140112e+02  -2.404732e+02
   1.606401e+02  -1.429931e+02
   2.052827e+02  -8.455265e+00
   8.389066e+01   5.595082e+01
  -1.139323e+02   5.193143e+00
  -8.954049e+01  -1.127629e+02
   1.197181e+02  -1.046481e+02
   2.254114e+02   5.574980e+01
   8.787666e+01   7.893515e+01
  -6.705338e+01   2.859537e+01
  -2.372057e+01  -5.242047e+01
   1.544123e+02  -9.495485e+01
   2.608437e+02   2.194784e+01
   2.402519e+02   1.257032e+02
   4.978742e+01   2.300732e+02
  -1.629761e+02   3.098382e+02
  -3.084189e+02   1.841555e+02
  -1.788395e+02  -2.167863e+01
  -4.362796e+00  -1.057481e+02
   7.045642e+01  -1.323410e+01
  -1.800450e+01   9.275469e+01
  -2.588274e+02   7.190488e+01
  -2.050560e+02  -6.621162e+01
  -6.850609e+01  -1.646639e+02
   1.046934e+02  -1.132119e+02
   1.208684e+02  -2.133824e+01
   2.568021e+01   5.253080e+01
  -8.041629e+01  -4.551614e+01
  -5.340434e+01  -1.323874e+02
   6.072744e+01  -1.153865e+02
   2.223334e+02  -8.277862e+01
   2.291324e+02   1.238162e+02
   4.786486e+01   1.841935e+02
  -1.324848e+02   1.639318e+02
  -1.780504e+02   2.520270e+01
  -5.801475e+01  -1.130226e+02
   6.711353e+01  -1.128827e+02
   8.103626e+01  -1.298664e+01
   8.214583e+00   3.433238e+01
  -2.500081e+01   2.802019e+01
  -3.434119e+01  -4.305125e+01
   7.878109e+01  -1.228038e+01
   8.597189e+01   5.866029e+01
   2.060025e+01   1.354836e+02
  -1.718630e+02   1.569620e+02
  -2.042843e+02  -2.038287e+00
  -2.045595e+02  -1.692482e+02
  -1.281128e+01  -2.892857e+02
   1.266957e+02  -1.850600e+02
   1.223626e+02  -1.432392e+01
   4.700279e+01   9.033405e+01
   2.504365e+01   5.115751e+01
   7.920742e+01  -5.300382e+01
   8.759838e+01   5.444458e+00
   5.782124e+01   1.069531e+02
  -5.062670e+01   9.630643e+01
  -9.769164e+01   8.129001e+01
  -1.280113e+02  -6.148420e+00
  -2.825359e+01  -9.267013e+01
   6.708922e+01  -9.203942e+01
   2.018667e+02  -2.871573e+01
   1.197882e+02   1.608712e+02
  -3.253697e+01   1.941647e+02
  -2.617160e+02   6.553004e+01
  -2.476933e+02  -8.707708e+01
  -1.099192e+02  -1.084798e+02
   3.915283e+01  -1.488037e+02
   4.379960e+01  -4.444915e+01
   4.346998e+01  -7.069870e+01
   5.350672e+01  -7.322150e+01
   4.188160e+01  -7.555699e+01
   1.158302e+02  -1.572213e+01
   8.926558e+01   1.543733e+02
   3.866969e+01   1.655160e+02
  -2.406537e+01   1.786111e+02
  -1.518183e+02   1.666050e+01
  -1.175764e+02  -8.965167e+01
  -5.619233e+01  -1.414349e+02
   6.917482e+01  -9.083233e+01
   4.500674e+01   1.259990e+01
  -2.937466e+01   2.147011e+01
  -1.005962e+01  -5.094889e-01
   6.134059e+01   6.304225e+00
   1.204348e+02   1.138789e+01
   6.253290e+01   6.624753e+01
  -5.137692e+01   6.448999e+01
  -1.485165e+02   4.839772e+00
  -1.700012e+02  -8.110087e+01
  -4.211063e+01  -8.176207e+01
   1.008326e+02  -7.144213e+01
   1.420071e+02  -8.530186e+01
   3.438303e+01   5.317258e+01
  -7.403431e+01   5.180642e+01
  -8.827393e+01   1.446501e+01
  -2.639708e+01  -5.124451e+01
   7.386785e+01  -2.577126e+01
   7.626389e+01  -1.662469e+00
   5.984353e+01   7.726678e+01
   1.050330e+01   6.157621e+01
  -1.210883e+01   6.519065e+00
   7.276793e+01  -8.291621e+00
   3.033712e+01   3.210032e+01
   1.230915e+01   9.239576e+01
  -8.513283e+01   1.245100e+02
  -1.064340e+02   7.510189e+01
  -1.150678e+02  -4.224888e+01
  -6.267920e+01  -1.030533e+02
   7.601848e+01  -7.408193e+01
   6.683856e+01   1.423174e+01
  -3.413991e+01   2.899322e+01
  -1.484892e+02  -3.173551e+01
  -1.311591e+02  -7.182954e+01
   6.584429e+01  -1.035242e+02
   1.670812e+02  -8.717040e+01
   1.781314e+02   6.884489e+01
   6.527654e+01   6.919186e+01
  -7.772229e+01   8.261686e+01
  -9.984333e+01  -4.275781e+01
   2.452911e+01  -1.627161e+01
   8.327428e+01   2.629995e+01
   7.204141e+01   1.215402e+02
  -6.029959e+01   1.480145e+02
  -1.695084e+02   8.682273e+01
  -1.506622e+02  -7.085676e+01
  -2.895514e+01  -2.307536e+02
   1.063940e+02  -1.304167e+02
   1.139238e+02   2.831865e+01
   5.466052e+01   8.563609e+01
   3.728233e+00   7.769917e+01
  -3.916992e+01  -2.078145e+01
  -3.219120e+00  -4.456661e+01
   8.459421e+00   2.459301e+00
   5.860125e+01   2.425144e+01
  -2.292266e+01  -1.015265e+01
  -8.372779e+01  -8.444858e+01
  -3.161494e+01  -8.363499e+01
   4.367711e+01  -4.060017e+01
   1.463037e+02   2.756016e+01
   1.295393e+02   3.054664e+01
   5.941841e+01   3.879570e+01
  -1.074782e+02   2.879059e+01
  -9.988097e+01   1.798238e+01
   4.015719e+00   1.277804e+01
   3.431164e+01  -1.321705e+01
   3.005068e+01  -5.061393e+00
  -3.271613e+01   2.538934e+01
  -9.863541e+00   2.431263e+01
   9.054036e+01   4.186384e+01
   6.839211e+01  -2.179205e+01
   3.080559e+01   4.552006e+01
  -1.129344e+02   6.291577e+01
  -1.558198e+02   3.661366e+01
  -1.340743e+02  -3.558253e+01
  -3.164651e+01  -1.678781e+02
   8.677121e+01  -1.411577e+02
   1.102652e+02  -2.526211e+01
   6.868971e+01   4.687136e+01
  -1.841823e+01   8.464047e+00
  -1.992441e+01  -3.219033e+00
  -3.183623e+01  -2.555994e+01
   8.282775e+01   2.925294e+01
   5.143935e+01   7.189891e+01
  -3.353005e+00   7.332155e+01
  -1.111540e+02  -7.929654e+00
  -8.484657e+01  -1.536503e+02
  -2.589936e+01  -9.190900e+01
   9.286230e+01  -7.372680e+00
   1.152918e+02   6.621841e+01
   4.097671e+01   1.293964e+02
  -9.969387e+01   1.084793e+02
  -1.041254e+02   6.506888e+00
  -1.333350e+01  -4.366648e+01
   8.069172e-01  -3.574348e+01
   3.592796e+01  -3.011584e+01
  -6.263100e+01   7.408893e+00
  -6.377183e+01  -2.194494e+01
  -3.031606e+01  -5.581398e+01
   1.130544e+02  -6.229722e+01
   1.422862e+02  -4.476397e+01
   4.651702e+01  -3.615864e+01
  -1.190995e+01   7.009985e+01
  -8.753501e+01   5.562902e+01
  -7.562096e+01   2.286646e+01
  -4.763045e+01  -3.637774e+01
   2.601736e+01  -3.100559e+01
   2.988131e+01   4.272157e+01
   1.779099e+00   4.530222e+01
  -2.076910e+01   3.770619e+01
  -6.042946e+01  -3.935976e+01
  -3.085792e+01  -1.536550e+01
   1.063349e+01   1.763652e+00
   3.508004e+01   1.557993e+01
  -3.570731e+01   1.693855e+01
   5.187121e+01  -3.666191e+01
  -1.203150e+01  -3.119597e+01
   2.555672e+01  -1.642433e+01
   1.669391e+01   4.021476e+01
   2.053276e+01   5.439191e+01
  -3.078386e+01   1.796378e+01
  -3.098533e+01  -3.883846e+01
  -2.454153e+01  -3.242430e+01
   6.955457e+01  -6.411930e+01
   1.192007e+02   3.583803e+01
   4.105281e+01   3.871241e+01
  -3.141186e+01   2.674601e+01
  -9.903004e+01   5.390350e+01
  -4.131607e+01   7.628596e+00
   5.007878e-01   7.127119e+01
   1.943191e+01   3.388426e+01
  -2.792507e+01   1.843686e+01
  -5.504333e+01   1.940101e+01
