
 $NMID
 id='ANONYMOUS ', fmtdat='(2E16.6)'
 volume=1.0
 tramp=1.0
 $END
   3.883875e+03   1.096207e+02
   2.205510e+03   2.134248e+03
  -3.493632e+02   2.237438e+03
  -1.808093e+03   1.104989e+03
  -1.017641e+03  -1.644661e+02
   1.798397e+02  -2.228715e+02
   6.189624e+02   2.643496e+02
   1.191916e+02   7.572541e+02
  -5.137935e+02   7.149400e+02
  -8.431796e+02  -1.255604e+02
  -4.540935e+02  -6.878659e+02
   1.915084e+02  -9.252325e+02
   5.106382e+02  -1.730811e+02
   2.291183e+02   6.175290e+02
  -2.446684e+02   6.453387e+02
  -3.255118e+02  -1.797851e+02
  -2.796396e+02  -4.548562e+02
   2.912594e+02  -3.653015e+02
   4.281975e+02  -1.420366e+02
   3.278819e+02   1.232178e+02
  -5.259749e+01   2.742938e+02
  -2.911022e+02   5.414679e+01
  -1.706565e+02  -8.410484e+00
   2.170495e+02  -5.094529e+01
   3.338537e+02   1.737605e+02
   2.707737e+01   3.697311e+02
  -4.445703e+02   4.514979e+02
  -5.999046e+02  -2.707345e+02
  -3.100140e+02  -4.573163e+02
   3.663199e+02  -3.238765e+02
   5.714491e+02   1.349838e+02
   1.984440e+02   4.374962e+02
  -2.676617e+02   3.380018e+02
  -4.035200e+02   9.113853e+01
  -2.435847e+02  -1.247844e+02
  -1.025786e+02  -3.143893e+02
   1.122166e+02  -1.266787e+02
   5.485285e+01   2.376564e+01
  -2.431974e+02   1.966415e+02
  -3.170986e+02  -6.700639e+01
  -1.122724e+02  -5.194851e+02
   2.805309e+02  -4.497973e+02
   3.754252e+02   7.830088e+01
   1.525580e+02   3.661920e+02
  -1.204533e+02   1.584057e+02
  -1.885994e+02  -3.143460e+02
   1.542454e+02  -4.190488e+02
   4.627915e+02  -3.339905e+01
   4.584701e+02   4.403622e+02
   7.010258e+01   5.710164e+02
  -3.586271e+02   2.838617e+02
  -5.249023e+02  -1.051575e+02
  -3.266045e+02  -3.324606e+02
   4.717290e+01  -2.666671e+02
   3.149516e+02  -6.168043e+01
   2.075537e+02   3.804847e+01
  -1.551731e+01   3.832575e+01
  -5.165051e+01  -7.317011e+01
   1.277334e+02  -5.966872e+01
   2.769727e+02   9.098917e+01
   1.466196e+02   2.309836e+02
  -1.866865e+02   2.274692e+02
  -4.051355e+02   6.825954e+01
  -2.871024e+02  -1.144991e+02
   3.219703e+01  -3.286994e+02
   3.104212e+02  -3.501618e+02
   3.789919e+02  -1.523209e+02
   2.398770e+02   1.732158e+02
   1.825159e+01   3.940111e+02
  -1.325773e+02   3.027190e+02
  -4.427718e+01   1.599385e+02
   1.573177e+00   2.468722e+01
  -6.010743e+01   7.005290e+01
  -2.070415e+02   5.722277e+01
  -2.293317e+02  -1.162966e+02
  -4.331454e+01  -3.012909e+02
   1.069120e+02  -2.357339e+02
   2.028284e+02   6.127927e+01
   1.149093e+02   2.937688e+02
  -2.759909e+01   2.860937e+02
  -2.410195e+02   6.549153e+01
  -3.024784e+02  -1.858727e+02
  -1.928668e+02  -3.258068e+02
   2.536419e+01  -3.031646e+02
   1.587558e+02  -1.294874e+02
   1.640365e+02  -2.159429e+01
   1.956434e+02  -3.594736e+01
   2.591890e+02  -3.775084e+01
   3.748782e+02   8.472369e+01
   2.514914e+02   2.929367e+02
  -5.121688e+01   4.158628e+02
  -4.071879e+02   3.375782e+02
  -4.919672e+02   1.980102e+02
  -2.928835e+02  -1.122384e+02
  -4.974162e+01  -2.769997e+02
   1.082464e+02  -2.592321e+02
   2.631404e+01  -6.877628e+01
  -7.514388e+01   5.388112e+01
  -1.118312e+02  -3.402282e+01
   1.005194e+01  -1.461621e+02
   1.257138e+02  -1.113646e+02
   1.147848e+02   1.097555e+02
  -5.673680e+01   1.825382e+02
  -1.802692e+02   1.532069e+01
  -1.402907e+02  -2.941530e+02
   2.053936e+01  -3.823350e+02
   2.275139e+02  -2.092186e+02
   3.371023e+02   6.180075e+01
   2.720700e+02   3.014182e+02
   6.799025e+01   2.613685e+02
  -1.210006e+02   1.501212e+02
  -1.543660e+02  -6.588738e+01
  -2.533630e+01  -2.762156e+01
   1.359685e+02   7.571310e+01
   1.440436e+01   1.448265e+02
  -1.509957e+02   1.107923e+02
  -1.968285e+02  -5.743421e+01
  -7.186847e+00  -1.289251e+02
   1.244485e+02  -2.347666e+01
   1.071797e+02   1.268182e+02
  -1.331080e+02   1.307349e+02
  -2.972458e+02  -5.825951e+01
  -2.742489e+02  -2.084419e+02
   1.569373e+01  -2.650334e+02
   2.405830e+02  -2.443709e+02
   2.691041e+02  -1.213484e+02
   1.232439e+02   4.157921e+01
  -4.365940e+01   1.012856e+02
  -3.809018e+01  -2.192523e+01
   6.069390e+01  -7.795382e+01
   1.865783e+02  -1.577355e+01
   1.899579e+02   1.302073e+02
   7.376490e+01   2.219897e+02
  -1.021446e+02   1.679690e+02
  -1.162033e+02  -5.195221e-02
  -2.903653e+00  -4.553034e+01
   3.960261e+01   5.859748e+01
   2.714617e+01   1.309183e+02
  -1.429025e+02   1.637055e+02
  -2.393476e+02   4.711397e+01
  -2.065800e+02  -1.285629e+02
  -1.587989e+01  -2.390938e+02
   1.173831e+02  -1.652425e+02
   1.492985e+02  -3.863387e+01
   6.489262e+01   6.753813e+01
  -2.023918e+01   7.766318e+01
  -7.531659e+01   3.987057e+01
   3.841546e+00  -1.439579e+01
   4.083670e+01  -2.304542e+01
  -1.460852e-01  -1.871716e+01
  -6.378644e+01  -2.349996e+01
  -8.580909e+01  -8.946310e+01
   4.348213e+00  -1.495755e+02
   1.563190e+02  -1.424751e+02
   2.283590e+02   3.111875e+01
   1.840417e+02   1.599916e+02
   1.658315e+01   2.197541e+02
  -1.301406e+02   1.837888e+02
  -8.583243e+01   4.268230e+01
  -3.496790e+01  -7.299800e+01
  -4.650578e+01   1.933202e+01
  -4.285466e+01   2.213886e+01
  -6.646363e+01   4.667967e+01
  -6.270584e+01  -2.097788e+01
   6.578783e+01  -1.007304e+02
   7.746473e+01  -1.064908e+02
   5.999418e+01  -2.153055e+00
  -4.497473e+01   1.299388e+02
  -1.609675e+02   5.730900e+01
  -2.023970e+02  -1.278810e+02
  -4.044286e+01  -2.296218e+02
   1.463641e+02  -1.963217e+02
   3.391037e+02  -4.161032e+01
   2.571293e+02   1.044885e+02
   4.276701e+01   1.908108e+02
  -7.223570e+01   1.547548e+02
  -1.066673e+02   6.301615e+01
  -7.623910e+01   4.755022e+01
  -2.977351e+01   7.219965e+01
  -3.056697e+01   8.164652e+01
  -1.423833e+02  -3.602775e-01
  -9.966175e+01  -1.402783e+02
  -5.075047e+01  -1.728244e+02
   9.190822e+01  -1.715000e+02
   1.396957e+02   4.809971e+00
   1.200713e+02   1.393507e+02
   1.580916e+01   1.598896e+02
  -1.092808e+02   7.204667e+01
  -9.837150e+01  -2.734983e+01
  -1.446671e+01  -7.396119e+01
   1.691345e+01  -7.715175e+01
   2.605501e-01  -5.090068e+01
  -3.981372e+01  -7.855293e+00
  -4.790937e+01  -2.572359e+01
   6.907786e+01  -2.166380e+01
   1.415553e+02   1.054785e+01
   1.223333e+02   3.940794e+01
   2.715653e+01   2.393241e+01
  -1.023097e+02   4.084527e+01
  -1.187221e+02   7.596005e+00
   4.848348e+00  -5.972632e+01
   7.116907e+01  -2.101518e+01
   5.167561e+01   3.862757e+01
   3.135001e+00   1.186736e+02
  -6.202004e+01   1.204442e+02
  -8.615199e+01   6.101894e+01
  -3.547643e+01  -6.782328e+01
  -9.628298e+01   5.351244e-02
  -1.034920e+02  -2.289459e+01
  -8.206717e+01   6.058684e+00
  -1.572760e+01  -4.763144e+01
   2.329415e+01  -1.395574e+02
   1.333525e+02  -1.041371e+02
   1.311346e+02  -6.908333e+00
   6.381170e+01   9.378494e+01
  -3.387277e+01   6.833594e+01
  -9.342877e+01   5.345593e+01
  -3.900060e+01  -4.680741e+00
   2.986826e+01  -4.920886e+01
   1.468594e+02   3.965503e+01
   1.252487e+02   1.022649e+02
  -7.429949e+01   8.946173e+01
  -1.833595e+02   2.555894e+01
  -1.409786e+02  -2.662783e+01
  -3.312321e+01  -1.143567e+02
   5.959778e+01  -4.935933e+01
   1.168132e+01   3.178260e+01
  -4.357282e+01   6.614932e+01
  -1.155500e+02  -5.378461e+01
  -5.355848e+01  -1.001683e+02
   1.000900e+02  -1.644134e+02
   1.066653e+02  -1.014955e+02
   9.342816e+01   5.699081e+01
   1.505982e+01   1.991632e+02
  -7.312253e+01   1.249537e+02
  -1.020516e+02   1.118906e+01
  -4.355521e+01  -1.172183e+02
  -1.558101e+01  -1.090466e+02
   7.383484e+01  -2.729517e-01
   6.191616e+00   3.028167e+01
   7.368043e-01   7.853018e+00
   1.033615e+01  -4.316953e+01
   1.249967e+01  -3.935288e+00
   3.310503e+01   1.009664e+02
   6.874730e+01   1.193828e+02
  -7.605436e+01   1.445251e+01
  -1.701368e+02  -4.137343e+01
  -1.172611e+02  -3.674534e+01
  -3.370911e+01  -4.287071e+01
   4.458058e+01  -4.680196e+00
   5.688661e+01  -2.863847e+01
  -1.405052e+00  -7.852867e+00
  -3.547614e+01   2.148888e+00
   4.347105e+00  -1.716849e+01
   5.316933e+01  -2.845643e+00
   6.792246e+00  -4.629304e+01
  -5.768002e+01  -3.472797e+00
  -6.378933e+01   4.847787e+00
   1.257656e+01  -1.143469e+02
   8.891922e+01  -1.429732e+02
   1.342304e+02  -8.816163e+01
   1.488331e+02   3.297340e+01
   2.320223e+01   1.829521e+02
  -3.165835e+01   1.862444e+02
  -1.062736e+02   1.213088e+02
  -7.883666e+01  -9.306791e+00
  -4.070173e+01  -4.875331e+01
  -4.117673e+01  -1.596966e+01
  -1.573940e+01   1.198274e+01
  -2.901141e+01  -4.231412e+01
  -3.466733e+01  -8.367901e+01
   1.119543e+01  -6.542609e+01
   3.034748e+01  -4.399355e+00
   7.233921e+01   1.000114e+02
   2.898567e+01   9.203188e+01
  -1.909477e+01  -5.630205e+00
  -5.220162e+01  -1.210126e+02
  -2.070287e+01  -3.057637e+01
   6.938272e+01  -3.001767e+01
   1.324572e+02   7.791318e+01
   5.474571e+01   6.215319e+01
  -5.056730e+01   6.360099e+01
  -2.241930e+01   5.841462e+00
   8.038583e-01  -5.263939e+01
   7.107268e+01  -5.084744e+00
   5.029718e+01   2.775978e+00
  -8.161335e+01   8.319946e+01
  -8.572388e+01   3.027575e+01
  -6.520089e+01  -4.032964e+01
   3.742606e+01  -8.587205e+01
   4.435594e+01  -1.038077e+02
   2.855717e+01   4.620998e+01
  -5.019706e+01   7.325823e+01
  -5.496802e+01   4.705155e+01
  -8.654051e+01  -2.666121e+01
  -2.153590e+01  -7.634432e+01
   2.091457e+01  -5.037569e+01
   2.559845e+01   4.111974e+00
   8.645561e+01   4.191736e+01
   5.068105e+01   5.962869e+00
  -3.185497e+00  -3.548322e+01
   1.370277e+01   5.855868e+00
  -4.294408e+01   2.926337e+01
   7.673552e+00   8.626834e+01
   6.906755e-01   4.759340e+01
  -5.280003e+01  -1.405034e+01
  -2.291523e+01  -6.317844e+01
   4.874572e+01  -7.056231e+00
   3.569363e+01   3.786081e+01
   3.855023e+01   6.695763e+01
  -3.005111e+01   2.734679e+01
  -9.823919e+01  -1.663382e+01
  -3.309938e+01  -4.424252e+01
   1.084962e+01  -4.945264e+01
   7.530707e+01  -5.408828e+01
   1.508287e+01  -4.986837e+01
  -5.513502e+01  -3.673614e+01
  -1.761341e+01  -1.656905e+01
   1.606730e+01  -4.512221e+01
   1.020008e+02   5.157904e+00
