
 $NMID
 id='ANONYMOUS ', fmtdat='(2E16.6)'
 volume=1.0
 tramp=1.0
 $END
  -3.862688e+03  -1.695514e+02
  -2.429548e+03  -2.223073e+03
   3.303880e+02  -2.623866e+03
   1.766071e+03  -1.128172e+03
   7.050822e+02   4.154577e+02
  -3.175354e+02   3.262508e+02
  -8.227453e+02  -2.833864e+02
  -9.626054e+01  -7.526143e+02
   6.880394e+02  -6.512715e+02
   8.815311e+02   1.356025e+02
   5.290754e+02   6.618819e+02
  -1.778194e+02   8.178112e+02
  -5.026057e+02   3.313359e+02
  -3.443117e+02  -6.137354e+02
   2.716883e+01  -6.277493e+02
   5.203125e+02  -1.072246e+01
   4.833372e+02   7.460148e+02
  -3.290552e+02   5.402995e+02
  -8.333235e+02   2.453710e+02
  -3.578350e+02  -6.746545e+01
  -1.629319e+02  -2.851845e+02
   9.244914e+01  -1.762860e+02
   1.702687e+02  -1.054115e+02
  -8.014048e+01   1.360976e+02
  -3.171603e+02  -1.362470e+02
  -1.061073e+02  -3.687424e+02
   4.428948e+02  -4.038794e+02
   7.870647e+02   3.383009e+01
   2.930301e+02   4.100586e+02
  -3.837636e+02   3.370410e+02
  -5.341241e+02  -9.446181e+01
  -2.187139e+02  -3.579951e+02
   2.602808e+02  -4.179669e+02
   4.773343e+02  -1.353646e+02
   3.402942e+02   2.177722e+02
   8.136714e-01   4.336455e+02
  -1.027456e+02   2.563281e+02
  -1.106801e+02  -1.894785e+02
   2.342868e+02  -3.181934e+02
   4.531840e+02   1.229373e+02
   1.957897e+02   6.583893e+02
  -3.208409e+02   7.047618e+02
  -5.393172e+02   5.196179e+01
  -3.102406e+02  -4.839866e+02
   2.186600e+02  -3.311859e+02
   2.923499e+02   2.558783e+02
  -7.982894e+01   5.297305e+02
  -4.988710e+02   9.311370e+01
  -5.379062e+02  -4.132616e+02
  -1.698455e+02  -5.784435e+02
   4.114120e+02  -3.383121e+02
   6.241915e+02   4.965342e+01
   3.800588e+02   3.566897e+02
  -1.000599e+02   2.837853e+02
  -3.583554e+02   7.207873e+01
  -2.079741e+02  -1.213292e+02
   1.043159e+02  -1.062378e+02
   1.201104e+02   5.900838e+01
  -1.044735e+02   1.435384e+02
  -3.034778e+02   2.193398e+00
  -1.328012e+02  -1.921552e+02
   1.977170e+02  -2.326375e+02
   3.546597e+02  -1.445109e+02
   2.015010e+02   2.866324e+01
  -3.999946e+01   2.674093e+02
  -2.456833e+02   3.459268e+02
  -3.218403e+02   2.005609e+02
  -2.335343e+02  -1.507345e+02
  -7.488248e+01  -3.484882e+02
   7.537185e+01  -3.199507e+02
   7.631540e+01  -1.490641e+02
  -1.062077e+01  -7.155478e+01
   1.088041e+02  -7.645395e+01
   2.713475e+02  -9.512070e+01
   2.598552e+02   9.763833e+01
   8.242903e+01   2.575125e+02
  -1.331338e+02   2.726621e+02
  -2.199823e+02  -7.741538e+00
  -2.338380e+02  -2.311036e+02
  -2.134389e+01  -3.220649e+02
   1.942964e+02  -1.331314e+02
   3.332158e+02   1.480457e+02
   2.306876e+02   3.239094e+02
  -7.855063e+00   2.788679e+02
  -1.541861e+02   1.725492e+02
  -1.731111e+02   6.644464e+01
  -1.273748e+02   8.059400e+01
  -2.696113e+02   9.534814e+01
  -3.872027e+02  -7.922327e+01
  -3.122958e+02  -3.067683e+02
   2.434755e+00  -4.594224e+02
   3.521626e+02  -4.150448e+02
   4.810425e+02  -2.137196e+02
   2.740177e+02   1.139658e+02
   5.115606e+01   2.933307e+02
  -1.100532e+02   2.441905e+02
  -3.327701e+01   6.674379e+01
   4.895912e+01  -2.940002e+01
   1.276164e+02   2.814502e+01
  -1.894883e+01   1.249740e+02
  -1.659713e+02   9.379892e+01
  -1.597563e+02  -6.103070e+01
   2.091446e+01  -1.711845e+02
   1.926626e+02  -1.844385e+01
   1.399422e+02   2.557586e+02
  -1.661586e-01   3.360847e+02
  -2.169143e+02   1.959122e+02
  -3.030504e+02  -7.914155e+01
  -2.636059e+02  -2.314593e+02
  -4.034151e+01  -2.485730e+02
   1.001478e+02  -1.220775e+02
   1.398305e+02   1.786190e+01
   5.247833e+01   5.207234e+01
  -3.350327e+01  -6.843747e+01
  -9.954235e+01  -1.217103e+02
   5.481056e+01  -7.524987e+01
   1.708850e+02   1.170963e+01
   6.897050e+01   6.911270e+01
  -8.831820e+01  -2.652407e+01
  -4.088639e+01  -1.069719e+02
   1.148366e+02  -1.113317e+02
   2.770995e+02   1.117381e+01
   2.605717e+02   1.443822e+02
   4.045200e+01   2.576595e+02
  -1.620321e+02   2.579907e+02
  -2.731843e+02   1.411219e+02
  -1.767110e+02  -6.383006e+01
   5.823745e+01  -1.476344e+02
   9.345308e+01  -9.476756e+01
  -4.484926e+01   1.049264e+02
  -1.283671e+02   4.644808e+01
  -2.076368e+02  -5.746108e+01
  -1.268481e+02  -1.555179e+02
   7.605906e+01  -1.689109e+02
   1.643448e+02  -2.708060e+01
   6.282820e+01   6.064507e+01
  -5.198123e+01   4.938573e+01
  -3.115511e+01  -9.353480e+01
   8.005154e+01  -1.479423e+02
   1.399731e+02  -4.768720e+00
   1.550335e+02   1.750639e+02
   7.122037e+00   2.074316e+02
  -1.503104e+02   1.722890e+02
  -1.972994e+02   2.140528e+00
  -8.754247e+01  -9.945630e+01
   5.602568e+01  -1.346445e+02
   1.008983e+02  -5.687249e+01
   4.782363e+01   1.148996e+01
  -3.260700e+01   2.861298e+01
  -1.038539e+01  -2.197804e+01
   6.307325e+01   2.777526e+00
   6.126205e+01   9.232747e+01
  -4.027912e+01   1.267664e+02
  -1.444590e+02   1.595059e+02
  -2.602484e+02   5.868255e+00
  -1.970123e+02  -1.355845e+02
  -2.850090e+01  -2.477998e+02
   1.594682e+02  -1.908951e+02
   1.700497e+02  -4.424442e+01
   8.061340e+01   4.227542e+01
   3.112894e+01   1.004905e+01
   2.214759e+01   1.096512e+00
   9.280555e+01  -1.588939e+01
   6.563368e+01  -6.138224e+00
   8.214139e+00   9.189645e+01
  -1.079289e+02   7.381660e+01
  -9.282932e+01  -9.719551e+00
  -1.265248e+01  -9.814828e+01
   1.611249e+02  -8.018600e+01
   2.250168e+02   7.173752e+00
   1.045602e+02   2.399705e+02
  -1.067385e+02   2.294305e+02
  -2.144549e+02   1.172824e+02
  -2.530638e+02  -6.817332e+01
  -1.152924e+02  -1.579003e+02
   3.879120e+01  -1.211973e+02
   9.893863e+01  -4.566802e+01
   1.558821e+01  -3.170662e+01
   4.039484e+01  -6.332318e+01
   7.184071e+01  -3.284471e+01
   1.026081e+02   5.480042e+00
   1.240524e+02   1.505634e+02
   3.673737e+00   2.330623e+02
  -8.101993e+01   2.298426e+02
  -2.039704e+02  -3.741018e+01
  -1.406531e+02  -1.233271e+02
  -3.252679e+01  -2.182468e+02
   4.032146e+01  -1.619593e+02
   8.637973e+01  -4.686591e+00
   1.943009e+01   5.591820e+01
   2.026008e+01   5.749897e+01
   7.692807e+01   6.495199e+01
   6.966436e+01   4.500663e+01
   3.028178e+00   4.230148e+01
  -1.217374e+02   7.533627e+01
  -1.730613e+02   3.354550e+01
  -1.089186e+02  -5.556107e+01
   4.310510e-01  -8.120275e+01
   5.808906e+01  -5.013950e+01
   1.278183e+02  -6.182064e+01
   4.088333e+01  -1.672319e+01
  -6.192897e+01   4.002058e+01
  -8.464242e+01   1.966272e+01
  -2.619312e+01  -7.052310e+01
   6.049045e+00  -8.473263e+01
   4.144094e+01   1.233110e+01
   6.797556e+01   2.956524e+01
   5.965163e+01   3.723582e+01
   7.730131e+01  -6.058708e+01
   7.357023e+01  -8.466157e-02
   6.017879e+01   7.148351e+01
   1.039415e+01   1.940270e+02
  -1.058123e+02   1.856079e+02
  -1.712361e+02   8.969600e+01
  -1.250782e+02  -8.497332e+01
  -4.355437e+01  -1.267455e+02
   1.163474e+02  -1.006854e+02
   6.871577e+01  -1.318861e+00
  -3.409650e+01   2.591385e+01
  -1.171061e+02  -1.703514e+01
  -4.421483e+01  -4.845213e+01
   6.651280e+01  -6.203403e+01
   1.708625e+02  -4.210930e+01
   1.059340e+02   3.044768e+01
   3.108778e+01   1.114067e+02
  -7.677796e+01   9.950636e+01
  -3.151563e+01   1.689703e+01
   3.148859e+01  -4.931718e+01
   6.773569e+01  -2.134556e+01
   6.439020e+01   1.084773e+02
  -1.145787e+02   1.649371e+02
  -1.636785e+02   7.117799e+01
  -1.493004e+02  -5.586732e+01
  -4.954385e+01  -1.552232e+02
   5.007589e+01  -1.409085e+02
   9.195651e+01   4.255383e+01
   5.031713e+01   1.405872e+02
  -2.992358e+01   1.042331e+02
  -5.172450e+01  -2.230785e+00
  -1.725644e+01  -1.537055e+01
  -3.742706e+01  -3.479552e+00
   5.161152e+01   1.882598e+00
   4.099767e+00   4.658985e+00
  -1.112934e+02  -3.038235e+01
  -5.474435e+01  -7.615018e+01
   2.767075e+01  -8.377418e+01
   1.232089e+02   5.538811e+01
   1.284365e+02   6.473577e+01
   4.613696e+01   7.080066e+01
  -5.386568e+01   2.376052e+01
  -5.251694e+01  -1.613300e+01
  -2.205589e+01  -1.038505e+01
   8.639573e+01  -1.726364e+01
   2.729577e+01  -8.675497e+00
   1.469839e+01  -1.470864e+00
  -1.237630e+01   3.348192e+01
   2.728281e+01  -1.049262e+01
   8.918770e+01   3.042803e+01
   5.578176e+01   7.367576e+01
  -8.406106e+01   9.436033e+01
  -2.092857e+02   6.345675e+01
  -1.671924e+02  -1.720492e+01
  -6.999501e+00  -1.397421e+02
   7.512339e+01  -1.417041e+02
   1.293664e+02  -4.668301e+01
   8.089102e+01   6.409573e+00
   1.916801e+01   5.233239e+01
  -2.749870e+01  -3.324965e+01
  -9.538702e+00   1.189276e+01
   1.704762e+01   2.702082e+01
   7.620129e+01   7.053092e+01
  -2.747905e+01   1.031150e+02
  -9.576619e+01  -8.527544e+00
  -9.821084e+01  -1.029672e+02
   1.246605e+01  -6.775132e+01
   1.003838e+02  -2.665789e+01
   1.493274e+02   5.607310e+01
   6.395719e+01   6.443630e+01
  -4.166468e+01   7.325113e+01
  -4.205476e+01   3.018293e+00
  -2.145532e+01  -4.662544e+01
   4.824201e+00  -3.407852e+01
  -4.658790e+00  -4.290445e+01
  -3.575708e+00   2.915468e+01
  -8.773872e+01   3.452725e+01
  -1.590722e+01  -1.004780e+01
   6.926092e+01  -4.107264e+01
   1.089290e+02  -3.636342e+01
   3.917285e+01   6.980944e+00
  -2.445611e+00   5.257657e+01
  -6.913057e+01   1.074466e+02
  -6.490021e+01  -1.191641e+01
  -4.863153e+01  -6.565982e+01
   3.521062e+00  -5.207129e+01
   4.192790e+01  -9.432494e+00
   3.809368e+01   3.638335e+00
   9.145243e-01   7.108864e+01
  -1.889850e+01  -1.536259e+01
   2.375041e+00  -1.894861e+01
  -5.509313e+01  -1.419124e+01
   1.256295e+01   1.265483e+01
  -9.164426e+00  -3.727307e+01
   3.488727e+01  -4.097979e+01
   1.209300e+01  -7.040278e+01
   1.371039e+01  -7.840826e+01
   2.313189e+01   5.554350e+01
   6.256818e+01   8.576599e+01
  -5.039379e+01   6.740448e+01
  -4.889052e+01  -3.267867e+01
  -5.151943e+01  -2.731325e+00
  -2.353833e+01  -1.456518e+01
   7.589521e+01   2.098209e+01
   1.061355e+01   7.811676e+00
  -6.468429e+01   7.796309e+01
  -1.035433e+02  -2.875152e+01
  -6.655266e+01  -2.457828e+01
   5.080288e+01   2.285188e+01
   3.400135e+01  -1.820415e+01
   2.707292e+00  -1.482027e+01
  -1.285480e+02   3.408173e+01
