
 $NMID
 id='ANONYMOUS ', fmtdat='(2E16.6)'
 volume=1.0
 tramp=1.0
 $END
   3.034307e+03  -1.286310e+02
   1.735214e+03   1.658807e+03
  -2.027655e+02   1.856052e+03
  -1.230268e+03   1.009242e+03
  -7.544937e+02   7.740207e+01
   9.400048e+01  -1.700671e+02
   3.167148e+02   2.245010e+02
   5.169276e+01   4.287172e+02
  -3.520622e+02   5.150734e+02
  -5.127526e+02   4.498961e+01
  -3.051338e+02  -4.283514e+02
   1.533107e+02  -6.057679e+02
   2.650664e+02  -6.212417e+01
   2.373529e+02   4.243397e+02
  -1.474792e+02   6.724459e+02
  -3.256461e+02   1.695920e+01
  -3.580032e+01  -4.397887e+02
   3.403046e+02  -5.274975e+02
   2.954181e+02  -1.415289e+01
   1.053377e+02   3.024161e+02
  -1.000874e+02   5.130478e+02
  -2.269079e+02   1.404977e+02
  -1.084552e+02   8.203414e+01
   1.351889e+02   6.683158e+01
   1.454245e+02   1.876649e+02
  -6.906439e+01   3.906357e+02
  -3.309325e+02   1.658852e+02
  -6.140829e+02   4.185655e+01
  -1.401837e+02  -3.518581e+02
   3.287988e+02  -1.952657e+02
   5.148568e+02   5.350528e+01
   2.203982e+02   3.097556e+02
  -2.138489e+02   3.214192e+02
  -3.912373e+02   1.566432e+02
  -2.645956e+02  -1.158396e+02
   2.390949e+01  -2.323382e+02
   2.817337e+01  -2.583840e+02
  -2.633092e+01   8.015833e+01
  -2.188055e+02   1.115821e+02
  -1.944454e+02  -1.088705e+02
  -4.588198e+01  -3.802419e+02
   1.982590e+02  -3.923869e+02
   2.720274e+02   6.854521e+01
   5.293031e+01   2.445576e+02
  -1.834092e+02   8.607372e+01
  -1.979128e+02  -2.225512e+02
   3.975627e+01  -3.448423e+02
   3.647188e+02  -5.358990e+01
   3.789657e+02   2.832311e+02
   6.180342e+01   4.013920e+02
  -3.396973e+02   2.222700e+02
  -4.900484e+02  -1.146481e+01
  -2.995640e+02  -1.711925e+02
   6.668485e+01  -2.653196e+02
   2.938558e+02  -8.195929e+01
   1.289726e+02   7.512022e+01
  -4.282955e+01   4.222897e+01
  -5.282935e+01  -2.200265e+01
   4.245786e+01  -1.336551e+02
   1.690733e+02   1.024059e+01
   1.218329e+02   1.771316e+02
  -1.252769e+02   2.115517e+02
  -2.491328e+02   6.169975e+01
  -2.174372e+02  -1.094519e+02
   7.938230e-01  -2.250462e+02
   2.304798e+02  -2.879605e+02
   2.916512e+02  -1.323283e+02
   1.939614e+02   6.671831e+01
   4.327590e+01   1.894428e+02
  -3.242870e+01   2.616823e+02
  -2.923147e+01   1.576717e+02
  -3.585293e+01   1.132180e+02
  -7.487450e+01   9.522935e+01
  -2.051125e+02   2.275992e+01
  -2.193793e+02  -9.699425e+01
  -8.423570e+01  -1.992666e+02
   1.099453e+02  -1.439343e+02
   2.203923e+02   2.513915e+01
   1.818520e+02   1.779547e+02
  -1.544993e+01   2.788415e+02
  -2.502370e+02   9.681103e+01
  -2.759088e+02  -1.041386e+02
  -1.399301e+02  -2.391696e+02
   5.608302e+01  -2.798199e+02
   1.397527e+02  -1.372012e+02
   1.024062e+02  -4.955585e+01
   1.077007e+02  -8.038244e+00
   2.420519e+02  -6.634402e+01
   3.317780e+02   1.032940e+02
   2.726459e+02   2.125280e+02
  -8.558263e+00   3.291461e+02
  -3.293144e+02   3.024244e+02
  -4.182860e+02   1.506812e+02
  -2.319250e+02  -4.767184e+01
   8.983219e+00  -1.846192e+02
   5.101073e+01  -1.620910e+02
   3.651209e+01  -2.468952e+01
  -8.577432e+01   3.882194e+01
  -1.336266e+02  -3.310730e+01
  -4.193519e+01  -1.229250e+02
   9.332200e+01  -8.575299e+01
   1.559542e+02   3.626551e+00
  -1.558143e+01   9.700913e+01
  -9.962202e+01   4.740447e+01
  -1.029401e+02  -1.724100e+02
   3.680687e+01  -2.681481e+02
   1.672048e+02  -1.359686e+02
   2.988525e+02   8.184998e+01
   2.158065e+02   2.233157e+02
   2.683445e+01   2.497209e+02
  -1.088142e+02   1.402403e+02
  -1.541518e+02  -2.125565e+00
  -1.759622e+01  -6.637492e+01
   9.209149e+00   7.190033e+01
   2.496998e+01   9.565957e+01
  -8.022662e+01   4.667702e+01
  -1.165812e+02  -5.229883e+01
   9.195281e+00  -4.176424e+01
   8.488033e+01   5.970160e+01
   5.971757e+01   1.208782e+02
  -1.791275e+02   6.749305e+01
  -2.440540e+02  -5.779893e+00
  -2.341082e+02  -1.680123e+02
  -3.232929e+01  -1.778748e+02
   1.503281e+02  -1.584128e+02
   2.286046e+02  -7.688366e+01
   8.858665e+01   1.105131e+01
  -3.375123e+01   1.994545e+01
  -6.182368e+01  -3.471761e+01
   8.221801e+01  -7.815481e+01
   1.362246e+02  -5.562007e+00
   1.662558e+02   1.867633e+02
   1.618701e+01   2.065695e+02
  -7.886954e+01   1.069893e+02
  -1.041879e+02  -7.995547e+00
  -6.143234e+01  -5.139495e+01
   2.230065e+01   3.047148e+00
  -7.831948e+00   8.350183e+01
  -6.821232e+01   1.171169e+02
  -1.758996e+02   4.329051e+01
  -1.357209e+02  -1.007407e+02
  -6.394288e+01  -1.756186e+02
   1.313625e+02  -9.210520e+01
   1.459569e+02   7.060196e+00
   3.988889e+01   5.561159e+01
  -8.495310e+01   6.301049e+01
  -4.336674e+01   6.815517e+00
   1.421794e+01  -1.913145e+01
   1.647634e+01   1.916994e+01
  -1.540288e+01   7.333950e+01
  -5.223033e+01   6.485717e+00
  -1.044801e+02  -1.100280e+02
  -1.398994e+01  -1.586747e+02
   1.063458e+02  -6.392345e+01
   1.985338e+02   2.270439e+01
   1.141378e+02   1.656828e+02
  -2.912405e+01   2.052755e+02
  -8.503432e+01   1.239259e+02
  -9.724969e+01  -2.629879e+01
  -5.446071e+01  -5.132404e+01
  -2.313507e+01  -2.405853e+00
  -2.596145e+01   2.953031e+01
  -9.721655e+01  -1.048887e+01
  -7.901799e+01  -5.565215e+01
   2.451417e+01  -8.495762e+01
   1.225309e+02  -6.629558e+01
   9.255760e+01   5.442867e+01
   1.487437e+00   1.166144e+02
  -1.043884e+02   1.174316e+02
  -2.060575e+02  -8.598441e+01
  -7.554901e+01  -1.630355e+02
   1.301892e+02  -1.662155e+02
   2.085685e+02  -5.894774e+01
   2.086691e+02   8.003528e+01
   3.634569e+01   1.503214e+02
  -2.360481e+01   8.390543e+01
  -3.952148e+01   5.538165e+01
  -5.072739e+01   1.081307e+02
  -2.536001e+01   1.039098e+02
  -1.071888e+02   5.036559e+01
  -1.040984e+02  -2.270698e+01
  -1.038018e+02  -1.532953e+02
  -5.045934e+00  -2.059002e+02
   1.013213e+02  -1.901091e+02
   9.708466e+01   1.324131e+01
   9.635305e+01   1.446680e+02
   2.485346e+01   1.290229e+02
  -5.555354e+01   4.134733e+01
  -4.236327e+01  -2.139332e+01
   2.038884e+01  -3.249021e+01
  -3.035386e+00  -2.754992e+01
  -1.953004e+01  -5.577238e+01
  -7.378805e+01  -3.555229e+01
  -2.050388e+01  -6.568361e+01
   4.160760e+01  -5.982348e+01
   1.119734e+02   4.530629e+00
   9.640313e+01   2.067883e+01
   2.069048e+01   1.056011e+02
  -7.426574e+01   6.447554e+01
  -1.089631e+02  -1.338636e+01
  -6.115949e+01  -5.214011e+01
   9.113236e+01  -1.732509e+00
   5.856197e+01   2.227981e+01
   5.300198e+01   4.551723e+01
  -1.358958e+01   4.896740e+01
  -5.361605e+01   2.563489e+01
  -4.836650e+01  -4.835458e+01
  -2.639420e+01  -4.593009e+01
  -4.988048e+01  -1.499947e+01
  -4.537078e+01  -1.040675e+00
  -2.161058e+01  -7.211175e+01
   1.893319e+01  -1.254297e+02
   6.756224e+01  -1.360705e+02
   1.639440e+02  -1.467035e+01
   1.169394e+02   6.713286e+01
   1.929146e+01   1.038324e+02
  -9.688324e+01   4.702060e+01
  -5.111841e+01   4.138655e+00
   4.323721e+01  -2.306052e+01
   9.505580e+01   5.903197e+01
   2.849680e+01   8.511102e+01
  -8.046163e+01   6.210055e+01
  -1.096840e+02   3.083090e+01
  -1.675972e+02   3.349873e-02
   2.507785e+01  -7.354423e+01
   3.828242e+01  -6.929261e+01
   3.362886e+01  -4.180772e+01
  -6.391339e+01   7.849696e+00
  -4.369217e+01  -3.731655e+01
  -9.454292e-01  -8.234211e+01
   7.842024e+01  -1.217734e+02
   1.545562e+02  -2.358498e+01
   1.342863e+02   7.677851e+01
   1.810643e+01   1.727171e+02
  -5.330764e+01   1.429133e+02
  -8.564619e+01   3.671035e+01
  -5.957326e+01  -8.991331e+01
  -4.914773e+01  -7.507801e+01
   1.503326e+01  -1.537669e+01
   4.884436e+01   5.389815e+01
   3.155038e+01   3.396481e+01
  -3.140750e+01  -3.117800e+01
   2.433849e+01   3.808565e+01
   5.616134e+01   6.106214e+01
  -8.943592e+00   9.050951e+01
  -5.402100e+01   2.184566e+01
  -7.408189e+01  -1.785219e+01
  -8.372040e+01  -1.530169e+01
   1.539037e+01  -2.009231e+01
   4.458355e+01   2.689097e+00
   6.701488e+01  -1.115001e+01
  -1.848505e+01  -2.940879e+01
  -5.173803e+00  -7.469198e+00
  -3.078199e+01   1.654039e+01
   1.859902e+01   3.853373e+01
   6.732343e-01   2.241234e+01
  -5.136059e+01   1.652450e+00
  -1.052927e+02  -3.559916e+01
  -3.242854e+01  -9.217425e+01
   6.879681e+01  -1.029983e+02
   1.460748e+02  -1.981398e+01
   1.536376e+02   8.605175e+01
   2.194481e+01   1.589612e+02
  -7.273934e+01   9.747315e+01
  -6.196665e+01   5.547483e+01
  -9.931075e+00  -4.020671e+01
  -1.501693e+01  -4.089531e+01
  -2.732386e+01  -1.007330e+01
  -3.562253e+01  -2.823373e+01
  -2.391526e+01  -2.794972e+01
  -1.492167e+01  -8.306144e+01
   3.695304e+01  -6.188227e+01
   9.245656e+01   1.338751e+00
   5.213100e+01   4.326692e+01
   1.378179e+01   7.347898e+01
  -6.103604e+01  -6.519082e+00
  -5.537960e+01  -8.947257e+01
  -9.801529e+00  -7.427928e+01
   4.935008e+01   1.135465e+01
   1.011571e+02   2.216228e+01
   6.666879e+01   3.637400e+01
  -5.962661e+00   5.096478e+01
  -3.989889e+01   5.786166e+01
   3.369821e+01   2.115399e+00
   2.031517e+01  -2.399463e+01
   6.644546e+01   1.781085e+00
  -3.913747e+01   8.006678e+00
  -4.079265e+01   2.462490e+01
  -5.117583e+01  -1.810527e+01
  -1.110788e+01  -9.475178e+01
   5.247282e+01  -5.780586e+01
   2.462348e+01  -1.141203e+01
  -4.546005e+01   7.162993e+01
  -5.801812e+01   5.555875e+01
  -3.632436e+01  -3.288062e+01
  -5.825851e+01  -7.015117e+01
  -1.351724e+01  -5.307899e+01
   6.244906e+01  -2.634840e+01
   8.002175e+01   3.745290e+00
   3.189681e+01   5.208646e+01
  -1.752431e+01  -2.322767e-01
  -7.914998e+00   4.394809e+01
   1.781850e+01   3.044325e+01
   1.226091e+01   2.443051e+01
  -7.104264e+01  -2.927663e+01
  -4.294724e+00  -1.097570e+01
  -1.927074e+00  -5.299792e+01
   3.157139e+01  -1.731551e+01
   1.130976e+01   3.399309e+01
   4.709027e+01   7.473627e+01
   6.231586e+00   2.459921e+01
  -1.171037e+02  -1.119528e+01
  -2.600669e+01  -1.714323e+01
  -3.365688e+00   1.757189e+01
   2.863267e+01   3.859969e-01
  -8.855864e+00  -1.483739e+01
  -4.613265e+01   4.990285e+01
   1.199659e+01   1.104760e+01
   2.605012e+01  -4.507350e+01
   7.344621e+01  -1.198232e+00
