
 $NMID
 id='ANONYMOUS ', fmtdat='(2E16.6)'
 volume=1.0
 tramp=1.0
 $END
  -3.969000e+03   2.064600e+02
  -2.507575e+03  -2.102942e+03
   1.754438e+02  -2.678874e+03
   1.643625e+03  -1.120004e+03
   1.149123e+03   3.428986e+02
  -3.265190e+02   3.972489e+02
  -6.161527e+02  -2.611249e+02
   4.503085e+00  -9.435794e+02
   6.644404e+02  -7.861092e+02
   8.468609e+02   1.345156e+02
   5.216302e+02   7.892266e+02
   3.418773e+01   7.213475e+02
  -4.078591e+02   4.675118e+00
  -2.111357e+02  -5.543318e+02
   1.977984e+02  -5.824358e+02
   5.791180e+02   1.105121e+02
   3.444708e+02   6.791340e+02
  -2.693534e+02   7.198384e+02
  -5.567442e+02   7.541311e+01
  -2.919092e+02  -4.804507e+01
   9.552443e+00  -3.272960e+02
  -8.362322e+01  -2.886420e+02
  -3.686612e+01  -8.688194e+01
   1.609720e+01  -1.116255e+02
  -3.711438e+02  -1.124597e+02
  -4.722576e+01  -4.528414e+02
   4.114407e+02  -3.130147e+02
   7.935944e+02   5.809307e+01
   3.569119e+02   4.799714e+02
  -3.839534e+02   4.765830e+02
  -5.936295e+02  -3.837410e+01
  -3.314258e+02  -3.895568e+02
   2.898189e+02  -5.535366e+02
   5.716226e+02  -1.003454e+02
   3.516017e+02   1.838795e+02
   6.985240e+00   4.125394e+02
  -1.829904e+02   2.210902e+02
  -1.149650e+02  -2.428636e+02
   2.591137e+02  -3.248858e+02
   3.474924e+02   1.735860e+01
   2.212275e+02   6.778012e+02
  -2.752062e+02   6.026206e+02
  -5.471197e+02  -2.996362e+01
  -1.762673e+02  -4.458325e+02
   2.479331e+02  -2.718520e+02
   2.920171e+02   3.470992e+02
  -9.693668e+01   4.975514e+02
  -5.215414e+02   9.364050e+01
  -5.819105e+02  -4.232645e+02
  -1.886041e+02  -5.899138e+02
   3.457906e+02  -3.466245e+02
   6.040069e+02   3.435083e+01
   3.596322e+02   3.309342e+02
  -1.170216e+02   3.437299e+02
  -3.541900e+02   1.101857e+02
  -2.571279e+02  -6.222835e+01
   4.398747e+01  -9.532978e+01
   8.437437e+01   7.672811e+01
  -1.109477e+02   1.533980e+02
  -3.436500e+02  -4.596689e+01
  -1.880797e+02  -2.488561e+02
   1.643042e+02  -2.861247e+02
   3.357879e+02  -1.613275e+02
   2.643670e+02   1.137992e+02
   2.206214e+01   2.674295e+02
  -2.624195e+02   2.981686e+02
  -3.714967e+02   1.755271e+02
  -2.825380e+02  -1.408437e+02
  -2.409001e+01  -3.274485e+02
   4.662899e+01  -2.977945e+02
   5.058507e+01  -1.129879e+02
   1.027711e+01  -7.379334e+01
   7.328471e+01  -1.205480e+02
   2.458121e+02  -9.757322e+01
   2.663704e+02   7.527359e+01
   7.639008e+01   2.987149e+02
  -1.102302e+02   2.005949e+02
  -2.235474e+02  -1.985626e+01
  -2.147423e+02  -3.045769e+02
   8.225582e+01  -3.014151e+02
   2.948448e+02  -1.377665e+02
   3.552387e+02   1.702846e+02
   1.421578e+02   3.275741e+02
  -7.032060e+01   3.744325e+02
  -2.069925e+02   1.706738e+02
  -1.387507e+02  -1.149676e+01
  -1.587260e+02   7.832532e+01
  -2.776219e+02   5.794518e+01
  -4.516561e+02  -3.397486e+01
  -3.156928e+02  -3.179576e+02
  -3.814384e+01  -4.636023e+02
   3.662830e+02  -4.006682e+02
   5.285267e+02  -1.760285e+02
   3.247507e+02   1.192498e+02
   2.854245e+01   2.451935e+02
  -7.406871e+01   1.932328e+02
  -7.386218e+00   5.623784e+01
   1.206120e+02  -1.396926e+02
   1.325952e+02   4.297284e+01
   7.817482e+00   1.960219e+02
  -1.388829e+02   1.716626e+02
  -1.865559e+02  -6.030236e+01
  -3.365867e+01  -1.553564e+02
   1.017288e+02  -1.105313e+02
   1.845951e+02   1.956097e+02
  -2.517763e+01   3.592791e+02
  -1.506794e+02   2.402733e+02
  -3.340625e+02  -5.394167e+01
  -2.893658e+02  -2.900546e+02
  -1.301758e+02  -2.651568e+02
   1.259897e+02  -1.411787e+02
   1.603850e+02   6.280509e+01
   7.686174e+01   1.722855e+01
  -8.558939e+01  -3.787483e+01
  -7.466642e+01  -1.743633e+02
   1.462304e+02  -1.262253e+02
   1.338927e+02   2.322167e+00
   8.003240e+01   5.994269e+01
  -5.838800e+01   2.910393e+01
  -6.554862e+01  -4.137808e+01
   1.224220e+02  -1.083307e+02
   3.279275e+02  -2.863870e+01
   2.439681e+02   1.191525e+02
   5.424575e+01   2.220281e+02
  -1.663011e+02   3.190098e+02
  -2.615092e+02   1.736990e+02
  -1.980394e+02  -6.436895e+01
   5.430832e+01  -1.284787e+02
   6.692345e+01   4.597823e-01
  -2.351577e+01   1.185374e+02
  -1.991749e+02   2.921051e+01
  -2.272605e+02  -9.655457e+01
  -5.179925e+01  -1.963440e+02
   7.905044e+01  -1.606472e+02
   1.410859e+02  -1.541967e+01
   9.011422e+01   3.510595e+01
  -3.938748e+01  -1.925236e+01
  -4.510808e+01  -1.424820e+02
   8.076647e+01  -9.668589e+01
   1.800669e+02  -6.625040e+00
   2.124807e+02   1.327100e+02
   2.647246e+01   2.597121e+02
  -1.554504e+02   2.031735e+02
  -2.043205e+02   1.798650e+01
  -5.413517e+01  -1.241653e+02
   6.778422e+01  -1.107756e+02
   9.858107e+01  -3.322130e+01
  -2.122847e+01   2.835866e+01
  -4.257075e+01   9.057098e+00
   3.888330e+01   5.196457e+00
   7.835816e+01   1.931275e+01
   8.257259e+01   8.413997e+01
  -1.247310e+00   1.804226e+02
  -1.623360e+02   1.278615e+02
  -2.273426e+02   2.681876e+01
  -2.265186e+02  -1.506960e+02
  -6.765605e+01  -2.846918e+02
   8.015312e+01  -1.836523e+02
   1.243497e+02  -8.281470e+00
   1.458526e+02   3.167431e+01
   1.311926e+01   4.775139e+01
   2.113744e+01  -6.107330e+00
   3.093403e+01  -1.180386e+01
   4.516365e+01   7.208161e+01
  -5.006865e+01   5.421536e+01
  -1.095722e+02   5.977333e+01
  -5.110389e+01  -3.132612e+01
   1.668072e+01  -1.540233e+02
   1.218872e+02  -1.528845e+02
   1.773310e+02   7.983045e+01
   1.200385e+02   2.543561e+02
  -1.432084e+02   2.356173e+02
  -3.208377e+02   1.134138e+02
  -2.117905e+02  -9.219190e+01
  -1.141409e+02  -1.819519e+02
   3.225801e+01  -2.006101e+02
   1.331529e+02  -1.411461e+02
   5.757312e+01  -6.091939e+01
   1.931841e+01  -8.718117e+01
   8.190945e+01  -8.602932e+01
   1.552742e+02   2.141974e+01
   1.614147e+02   1.587836e+02
   5.437150e+01   2.218664e+02
  -1.084698e+02   1.066948e+02
  -2.230314e+02   1.254061e+01
  -1.633938e+02  -1.057182e+02
  -1.772338e+01  -1.894887e+02
   1.125044e+02  -7.107542e+01
   5.923612e+01  -3.079374e+01
   6.067657e+00   3.002320e+01
   2.456460e+01   1.038661e+02
   3.706155e+01   5.018372e+01
   4.552347e+01   9.941069e+00
   1.913111e+01   4.791722e+01
  -8.188168e+01   9.747170e+00
  -1.243441e+02   1.480512e+01
  -8.657398e+01  -8.939334e+01
   5.139379e+00  -1.133465e+02
   9.494512e+01  -8.199792e+01
   1.144431e+02   9.109548e+00
   5.957047e+01   5.340401e+01
  -4.316100e+01   6.576241e+01
  -7.685437e+01  -2.865356e+01
   5.188617e-01  -5.017523e+01
   6.395845e+01  -6.082239e+01
   5.121735e+01  -5.125981e+00
   1.166328e+01   3.153077e+01
   2.937942e+01   2.248809e+01
   4.411468e+01  -1.546780e+01
   3.437545e+01   8.327479e+00
   4.188882e+01   1.469470e+02
  -3.160411e+01   1.792752e+02
  -7.540912e+01   1.359813e+02
  -1.667576e+02  -2.499612e+00
  -1.229559e+02  -1.178820e+02
  -3.596164e+01  -1.356838e+02
   1.094268e+02  -7.439033e+01
   8.264448e+01  -1.295067e+01
  -7.105496e+01   5.356171e+01
  -1.511449e+02  -8.177614e+01
  -6.152183e+01  -1.182328e+02
   1.036148e+02  -1.144345e+02
   1.967022e+02  -4.354406e+01
   1.350724e+02   4.567744e+01
   1.016412e+01   1.035947e+02
  -6.343904e+01   6.586241e+01
  -7.709869e+01   2.263598e+01
   1.223307e+01  -3.671665e+01
   1.115022e+02  -7.074105e+01
   3.676631e+01   7.613008e+01
  -1.076434e+02   1.596465e+02
  -1.456687e+02   1.053597e+02
  -1.064856e+02  -7.422383e+01
  -9.914901e+00  -1.534932e+02
   5.429479e+01  -1.499836e+02
   8.852768e+01   2.045720e+01
   7.037099e+01   1.045153e+02
  -5.755833e+00   1.449808e+02
  -8.157991e+01   2.350717e+01
  -6.251941e+01  -4.464679e+01
  -3.577480e+01  -2.862816e+01
   2.935034e+01   1.486381e+00
   1.106997e+01  -5.495348e+01
  -3.774053e+01  -1.411180e+02
  -6.023562e+01  -1.475262e+02
   4.689839e+01  -1.264948e+01
   1.351317e+02   1.760827e+01
   8.280831e+01   6.345859e+01
   7.374589e+00   2.323027e+01
  -8.571332e+01   3.949009e+01
  -4.759687e+01   3.184889e+01
   1.582724e+01  -3.053632e+01
   2.700442e+01  -5.054781e+01
   3.009934e+01  -1.379713e+01
  -5.416948e+01   6.175780e+00
   2.217959e+01   1.199889e+01
   1.146935e+02   3.140337e+01
   9.373303e+01   2.675599e+01
   1.347936e+01   6.512804e+01
  -1.161011e+02   1.402495e+02
  -1.964274e+02   7.325379e+01
  -1.841752e+02  -4.558325e+01
   1.013289e+01  -1.660286e+02
   9.360063e+01  -2.012909e+02
   1.358041e+02  -1.047761e+02
   8.551872e+01   1.579421e+01
   5.766048e+01   2.962630e+01
  -1.368158e+01   2.089912e+01
  -1.942998e+01   1.332877e+01
  -1.520964e+01   3.487150e+01
   2.858145e+01   9.662332e+01
  -7.430912e+00   5.675311e+01
  -8.731317e+01  -1.152414e+01
  -1.140637e+02  -1.356817e+02
  -2.906605e+01  -1.293649e+02
   1.163590e+02  -6.291393e+01
   8.314646e+01   3.058354e+01
   4.059225e+01   1.122991e+02
  -4.561444e+01   5.453991e+01
  -2.736683e+01   3.802549e+01
  -3.408435e+01  -3.675837e+01
   9.706714e+00  -5.820384e+01
   2.722347e+01  -2.264194e+01
  -3.015834e+01  -2.517041e+00
  -6.486109e+01  -1.365794e+01
  -1.754464e+01  -2.353360e+01
   4.482873e+01  -5.754103e+01
   1.138312e+02  -4.657300e+01
   1.079209e+02   4.465225e+01
   1.174939e+01   1.077311e+02
  -9.463062e+01   8.451369e+01
  -6.745775e+01   1.865981e+00
  -1.631972e+01  -5.657300e+01
   4.056177e+01  -8.092932e+01
   5.100917e+01   8.352970e+00
   5.881674e+01   4.449103e+01
   8.228961e+00   3.726155e+01
  -3.777301e+01   4.772577e-01
  -3.655480e+01  -4.629654e+01
  -2.336752e+01   5.536195e+00
   2.237521e+01   3.506356e+01
   2.349454e+01   1.672022e+01
   4.773596e+01  -8.984333e+00
   3.007305e+01  -5.076611e+01
   4.271741e+01  -2.452089e+01
   3.863517e+01   5.641858e+01
   2.921935e+01   9.613597e+01
  -6.474163e+01   2.974675e+01
  -7.157583e+01  -4.037438e+01
  -1.511608e+01  -9.779875e+01
   5.702669e+01  -2.916359e+01
   1.562460e+02  -2.865378e+01
   5.205027e+01   3.304444e+01
  -4.423640e+01   7.488944e+01
  -9.014396e+01   4.144577e+01
  -4.748578e+01   2.513709e+01
   1.504607e+01  -1.045754e+01
   5.639577e+01   6.126014e+00
  -2.293674e+01  -1.494559e+01
  -9.886996e+01   2.025238e+01
