
 $NMID
 id='ANONYMOUS ', fmtdat='(2E16.6)'
 volume=1.0
 tramp=1.0
 $END
   3.186170e+03   1.768271e+01
   2.159176e+03   1.739204e+03
  -3.761200e+02   2.057894e+03
  -1.387809e+03   7.336971e+02
  -7.818553e+02  -2.610885e+02
   2.869330e+02  -2.996082e+02
   5.837983e+02   2.527812e+02
  -4.120230e+01   6.609288e+02
  -6.239229e+02   5.160469e+02
  -5.740761e+02   7.187169e+01
  -3.397761e+02  -5.937776e+02
   2.804994e+02  -7.407309e+02
   4.825389e+02  -2.709572e+01
   2.484652e+02   4.485829e+02
  -9.619166e+01   6.447044e+02
  -3.661215e+02   3.047024e+01
  -3.092331e+02  -5.186768e+02
   1.143873e+02  -6.709513e+02
   4.426919e+02  -1.534416e+02
   3.474491e+02   2.840811e+02
   7.845489e+01   1.646479e+02
  -1.421649e+02   2.943608e+02
   3.783122e+01   8.025024e+01
   1.383271e+02   7.942345e+01
   3.893849e+02   2.015531e+02
   8.465340e+01   3.588559e+02
  -3.632125e+02   1.004093e+02
  -6.398021e+02  -9.051080e+01
  -2.477698e+02  -3.337668e+02
   2.108566e+02  -2.709154e+02
   5.715825e+02   1.201550e+02
   1.963412e+02   2.916088e+02
  -2.938879e+02   3.245721e+02
  -4.370984e+02   1.280057e+02
  -4.154239e+02  -1.884459e+02
  -4.305220e+01  -3.846736e+02
   1.365360e+02  -2.290599e+02
   5.502572e+01   1.881777e+02
  -1.910177e+02   2.539086e+02
  -3.239544e+02  -4.870906e+01
  -2.103880e+02  -5.178801e+02
   2.269864e+02  -5.482260e+02
   3.875067e+02  -1.462900e+02
   2.084345e+02   2.953512e+02
  -1.526588e+02   1.496033e+02
  -2.701669e+02  -2.270846e+02
   3.027010e+01  -3.568444e+02
   4.639241e+02  -8.015223e+01
   5.656550e+02   3.140442e+02
   1.631306e+02   4.532344e+02
  -3.696105e+02   2.962317e+02
  -5.533271e+02  -2.869244e+01
  -3.089643e+02  -2.718814e+02
   1.308895e+02  -2.544221e+02
   3.436941e+02  -8.268507e+01
   2.481311e+02   5.587425e+01
  -4.470096e+01   6.102834e+01
  -6.792046e+01  -4.242218e+01
   1.092731e+02  -5.666319e+01
   2.567683e+02   3.283950e+01
   1.354834e+02   1.802204e+02
  -9.842962e+01   2.662324e+02
  -2.764349e+02   1.181044e+02
  -2.440136e+02  -8.069925e+01
   9.478933e+00  -2.836820e+02
   2.449444e+02  -3.441370e+02
   3.954939e+02  -1.250525e+02
   2.646413e+02   1.967483e+02
   3.336394e+01   4.059303e+02
  -1.238968e+02   2.526723e+02
  -9.280872e+01   7.077957e+01
   3.339277e+01   5.677712e+01
   1.700576e-01   9.997592e+01
  -1.966451e+02   1.328320e+02
  -2.481820e+02  -2.210302e+01
  -1.606941e+02  -1.890221e+02
   7.431791e+01  -1.931730e+02
   2.382850e+02   5.269061e+00
   1.839993e+02   2.200239e+02
  -7.392283e+01   2.607901e+02
  -2.797537e+02   1.209907e+02
  -3.743709e+02  -1.076132e+02
  -1.440325e+02  -2.731645e+02
   1.151077e+02  -3.329802e+02
   1.937919e+02  -1.421717e+02
   1.646407e+02   4.644337e+00
   8.484192e+01  -4.697736e+01
   2.072635e+02  -7.452348e+01
   3.742767e+02   6.564751e+01
   2.934996e+02   2.367241e+02
  -1.915573e+01   3.735854e+02
  -3.340006e+02   3.628381e+02
  -4.506139e+02   1.797191e+02
  -3.081819e+02  -1.046480e+02
  -6.050764e+01  -2.843544e+02
   1.295187e+02  -1.706798e+02
   3.215995e+01   1.451618e+01
  -1.066031e+02   1.124420e+02
  -2.521660e+02  -8.822150e+00
  -7.484033e+01  -1.548059e+02
   1.052746e+02  -2.021115e+02
   1.254287e+02  -2.026047e+01
   6.312461e+00   1.340117e+02
  -1.594056e+02  -2.993122e+01
  -1.457352e+02  -2.525158e+02
   8.706600e+01  -3.593853e+02
   2.428289e+02  -1.558001e+02
   3.115343e+02   6.836536e+01
   2.245046e+02   2.454580e+02
   5.054805e+01   2.463545e+02
  -1.574314e+02   1.149070e+02
  -1.717078e+02   1.612999e+01
  -4.164161e+01  -1.518835e+01
   5.237617e+01   6.830168e+01
   7.388908e+01   6.172358e+01
  -1.143401e+02   9.690388e+01
  -1.283809e+02  -5.680973e+01
  -5.734885e+01  -4.912737e+01
   5.733936e+01   3.648668e+01
   2.288992e+01   9.875986e+01
  -1.038849e+02   9.144855e+01
  -2.586850e+02   2.413879e+01
  -2.361216e+02  -1.425702e+02
  -2.911763e+01  -2.465349e+02
   1.495866e+02  -2.782306e+02
   2.691214e+02  -9.762874e+01
   1.372449e+02   7.211498e+01
  -4.389834e+01   7.093679e+01
  -9.904493e+01  -1.968715e+01
   4.904546e+01  -1.365766e+02
   1.529515e+02  -8.338110e+01
   1.706672e+02   7.823897e+01
   7.465527e+01   2.036235e+02
  -7.979868e+01   1.222246e+02
  -1.235340e+02   5.569514e+01
  -7.839030e+01  -1.024993e+01
   3.724933e+01   5.162380e+00
   4.160409e+01   3.774427e+01
  -8.576903e+01   8.797882e+01
  -2.195591e+02   5.981883e+01
  -1.451678e+02  -1.573929e+02
  -5.866634e+01  -2.266064e+02
   1.592471e+02  -1.372397e+02
   2.093432e+02  -1.269297e+01
   1.133391e+02   9.890117e+01
  -4.851631e+01   9.831075e+01
  -7.941322e+01   3.721136e+01
  -6.985387e+01  -1.340374e+01
   8.609549e+00  -1.450252e+01
   1.118253e+01   5.608183e+01
  -8.352492e+01   9.738274e+00
  -8.035052e+01  -9.659889e+01
  -7.104808e+01  -1.690941e+02
   1.388176e+02  -1.623217e+02
   2.653287e+02  -6.322293e+01
   2.174698e+02   1.263347e+02
   8.351044e+01   2.778986e+02
  -9.889404e+01   1.696470e+02
  -1.602778e+02   7.314598e+01
  -9.182749e+01  -2.157180e+01
  -4.047017e+01  -2.051499e+01
  -6.757503e+01  -1.495265e+01
  -6.593734e+01  -8.933704e+00
  -7.624770e+01  -2.591669e+01
   4.898678e+01  -1.231181e+02
   1.212807e+02  -9.327118e+01
   7.545195e+01   5.068390e+01
   3.369198e+01   9.490927e+01
  -1.622531e+02   1.206536e+02
  -1.896457e+02  -9.231223e+00
  -5.501608e+01  -1.937749e+02
   5.867900e+01  -2.352648e+02
   2.541060e+02  -6.812533e+01
   2.635380e+02   1.028429e+02
   1.317940e+02   1.658107e+02
  -3.562726e+01   1.461333e+02
  -8.155699e+01   1.045811e+02
  -7.803301e+01   8.863531e+01
  -9.583198e+01   9.012605e+01
  -1.337309e+02   9.520030e+01
  -1.176445e+02  -4.642938e+01
  -1.155791e+02  -1.789740e+02
  -1.825477e+01  -2.279104e+02
   1.052200e+02  -1.899115e+02
   1.416462e+02  -5.911882e+01
   1.245200e+02   9.580260e+01
   4.322934e+01   2.032744e+02
  -2.093340e+01   9.040213e+01
  -4.611940e+01  -1.218074e+01
   1.709044e+01  -4.510368e+01
   6.545238e+01  -3.343750e+01
  -4.378636e+01  -9.072709e+00
  -1.268129e+02   3.006712e+01
  -7.662126e+01  -5.759167e+01
   7.803156e+01  -6.834524e+01
   1.761746e+02  -3.563335e+01
   1.611608e+02   3.680472e+01
   2.136663e+01   1.482345e+02
  -1.174559e+02   7.701451e+01
  -1.180961e+02  -1.030861e+01
  -8.810599e+01  -6.053064e+01
   5.191726e+01  -4.984484e+01
   1.008885e+02   5.474949e+01
   3.228222e+01   1.283447e+02
  -3.266652e+01   4.205628e+01
  -7.318079e+01  -2.542041e+01
  -1.097472e+02  -6.716342e+01
  -3.678783e+01  -6.198564e+01
  -8.903412e+01   1.333639e+01
  -3.540325e+01  -3.840151e+01
  -8.394241e+00  -8.158028e+01
   3.761661e+01  -1.252224e+02
   1.349450e+02  -1.606002e+02
   1.792974e+02   1.044880e+01
   1.530481e+02   1.004953e+02
  -9.102822e+00   1.535501e+02
  -1.453459e+02   1.428742e+02
  -7.373600e+01   2.128503e+01
   4.700627e+01  -3.165677e+01
   1.099293e+02   5.365826e+01
   1.067240e+02   8.103160e+01
  -7.440763e+01   9.255193e+01
  -1.779370e+02   5.189551e+01
  -1.455692e+02  -1.488042e+01
  -6.181449e+01  -1.096420e+02
   3.917785e+01  -8.088899e+01
   2.753090e+01  -6.520110e+00
  -1.679874e+01   3.795553e+01
  -1.036092e+02  -1.791281e+01
  -5.962245e+01  -1.224626e+02
   9.438711e+01  -1.502697e+02
   1.598284e+02  -7.559070e+01
   8.814736e+01   8.180134e+01
   1.149078e+01   1.960981e+02
  -8.845403e+01   1.525483e+02
  -9.037111e+01  -6.864127e+00
  -8.226029e+01  -1.190517e+02
   1.752126e+01  -9.202957e+01
  -9.252020e+00  -4.678846e+01
   3.168330e+01   9.646382e+00
   4.301568e+01  -3.276347e+00
  -1.400764e+01  -3.102663e+01
  -2.360668e+00   5.651170e+01
   5.881339e+01   1.292330e+02
   2.636665e+01   1.089534e+02
  -4.674044e+01   8.260404e+01
  -1.235026e+02  -4.810271e+01
  -8.188223e+01  -4.509367e+01
   5.022633e+00  -1.943331e+01
   7.055542e+01  -1.027457e+01
   4.101984e+01   1.215645e+01
   2.397136e+01   4.923393e+00
  -1.663311e+01  -3.937393e+01
   4.739578e+00   2.232665e+00
   6.327056e+01  -4.030200e+01
  -1.493641e+01  -4.225063e+01
  -5.743885e+01   4.536348e+01
  -8.966350e+01   2.527743e+01
  -2.390947e+01  -7.865221e+01
   1.456125e+02  -1.004709e+02
   1.896034e+02  -6.510090e+01
   1.365128e+02   3.409437e+01
   3.124874e+00   1.389309e+02
  -9.240641e+01   1.600121e+02
  -7.720412e+01   8.357377e+01
  -8.725619e+01  -1.236245e+01
  -6.068719e+01  -1.413920e+01
   2.188674e+01   3.338038e+01
  -4.983766e+00   9.001535e+00
  -8.373649e+01  -5.138353e+00
  -4.090769e+01  -9.671962e+01
  -5.130674e+00  -1.043936e+02
   3.235034e+01  -7.608725e-03
   7.907490e+01   9.890586e+01
  -5.769378e+00   9.095296e+01
  -5.979862e+01   3.272087e+01
  -7.006339e+01  -8.725026e+01
  -2.390293e+00  -9.633102e+01
   7.245399e+01  -5.873088e+01
   9.824666e+01  -1.714033e+01
   7.055401e+01   8.863165e+01
  -8.922952e+00   5.855681e+01
   2.446874e+00   7.283778e+01
   3.724449e+01   1.183290e+00
   4.845205e+01   2.999045e+01
   3.871096e+01  -1.693434e+01
  -1.379091e+02   5.837609e+01
  -1.359256e+02   6.740294e+01
  -9.449955e+01   6.665554e+00
   3.621897e+01  -2.041272e+01
   6.853993e+01  -9.863881e+01
   6.335203e+01  -2.712821e+01
  -4.361998e+01   4.938091e+01
  -5.350627e+01   1.217491e+01
  -5.792967e+00  -3.741977e+01
  -7.825383e+00  -6.178918e+01
  -2.479066e+01  -5.074110e+01
   5.134754e+01   5.370396e+00
   4.140719e+01   8.027103e+01
   3.891596e+01  -2.299799e+01
  -2.333738e+00  -7.017128e+01
   2.705002e+01  -1.160581e+01
  -3.811355e+01   4.452897e+01
  -5.511752e+01   6.123261e+01
  -4.335839e+00   5.063038e+01
   9.915563e+00  -1.577732e+01
  -3.167748e+01  -4.214031e+01
   5.480034e+01  -2.498326e+01
   2.987587e+01   3.483933e+01
   4.655308e+01   4.963605e+01
  -5.871316e+01   1.965605e+01
  -8.548657e+01  -9.094842e+00
  -3.443246e+01  -3.639005e+01
   2.589591e+01  -8.318557e+01
   8.822440e+01   1.054887e+01
  -3.598822e+00   6.161608e+00
  -2.548706e+01   3.874716e+00
  -4.012953e+01  -1.565505e+01
  -5.633181e+00  -2.352060e+01
   1.043182e+02  -2.472914e+01
