
 $NMID
 id='ANONYMOUS ', fmtdat='(2E16.6)'
 volume=1.0
 tramp=1.0
 $END
   3.330274e+03  -3.270342e+01
   2.250181e+03   2.134291e+03
  -2.531552e+01   2.418514e+03
  -1.615173e+03   1.228403e+03
  -9.065312e+02  -9.803181e+01
   2.335973e+02  -2.634983e+02
   5.172192e+02   3.173530e+02
  -8.161170e+01   7.376011e+02
  -4.905615e+02   5.686666e+02
  -7.550907e+02  -1.660463e+01
  -4.212635e+02  -5.600626e+02
   2.053545e+02  -7.334461e+02
   6.405783e+02  -1.206403e+02
   2.329592e+02   4.401726e+02
  -2.303360e+02   5.366487e+02
  -4.832021e+02   1.188257e+02
  -3.138541e+02  -7.143555e+02
   2.162021e+02  -7.472613e+02
   6.135548e+02  -1.463784e+02
   2.510065e+02   2.016842e+02
   1.624312e+02   3.630318e+02
  -2.351084e+02   2.767316e+02
  -1.635863e+02   1.781360e+02
   2.556577e+02   1.010361e+02
   3.455249e+02   3.255754e+02
   4.840679e+01   4.648434e+02
  -5.403861e+02   2.829996e+02
  -7.134192e+02  -1.110700e+02
  -2.301698e+02  -4.473240e+02
   3.439884e+02  -2.664929e+02
   6.089105e+02   1.650473e+02
   3.010689e+02   4.373532e+02
  -2.204794e+02   5.013559e+02
  -4.387627e+02   1.907463e+02
  -4.050383e+02  -2.663097e+02
  -2.639347e+01  -4.145936e+02
   1.672333e+02  -2.077901e+02
   9.698973e+01   2.349062e+02
  -2.066554e+02   3.204918e+02
  -3.140185e+02  -1.478043e+02
  -8.415214e+01  -6.373522e+02
   2.753947e+02  -6.288940e+02
   3.944741e+02  -2.551585e+01
   1.938856e+02   4.563052e+02
  -2.399547e+02   3.199418e+02
  -2.599044e+02  -2.402725e+02
   4.799257e+01  -4.628041e+02
   5.191373e+02  -1.413112e+02
   5.834799e+02   3.605550e+02
   1.767857e+02   5.745827e+02
  -3.941001e+02   2.967616e+02
  -6.008061e+02  -1.482821e+02
  -3.341323e+02  -3.329790e+02
   1.186715e+02  -2.351156e+02
   3.469970e+02  -1.457430e+01
   2.091543e+02   1.236239e+02
  -5.151700e+01   4.820947e+01
  -1.053437e+02  -1.100462e+02
   8.810714e+01  -1.118258e+02
   2.512790e+02   4.657317e+01
   1.473268e+02   2.117244e+02
  -1.267952e+02   2.019410e+02
  -3.463364e+02   1.355898e+02
  -2.758909e+02  -8.778335e+01
   2.752030e+01  -2.656107e+02
   2.848580e+02  -3.859590e+02
   3.171757e+02  -1.897396e+02
   2.274892e+02   1.507379e+02
   9.451665e+01   3.689660e+02
  -3.610864e+01   3.437512e+02
  -1.543675e+01   1.668498e+02
  -8.922808e+00   4.881570e+01
  -7.203910e+01   1.248794e+02
  -2.737582e+02   9.744216e+01
  -3.537825e+02  -9.111971e+01
  -2.007997e+02  -2.994592e+02
   1.130182e+02  -2.603427e+02
   2.646416e+02   1.689419e+00
   2.177884e+02   2.686895e+02
  -3.473209e+01   2.970293e+02
  -2.512134e+02   9.765606e+01
  -3.515390e+02  -2.270807e+02
  -1.855760e+02  -3.544983e+02
   8.244939e+01  -2.516466e+02
   1.654238e+02  -1.055078e+02
   1.243359e+02   1.191841e+01
   9.957712e+01  -7.515865e+01
   2.415402e+02  -8.982079e+01
   3.979907e+02   1.537593e+01
   3.682833e+02   2.774768e+02
   3.813386e+01   5.167549e+02
  -4.013802e+02   4.388340e+02
  -5.176193e+02   1.427264e+02
  -3.502344e+02  -1.470860e+02
   5.786244e+00  -2.640911e+02
   1.566629e+02  -2.448910e+02
   5.647462e+01  -3.232050e+01
  -1.377696e+02   3.932321e+01
  -1.989606e+02  -3.496809e+01
  -8.228612e+00  -1.951209e+02
   1.598833e+02  -1.644755e+02
   1.752701e+02   5.982553e+01
  -3.355779e+00   1.849833e+02
  -1.390261e+02   3.012530e+01
  -1.065147e+02  -2.690868e+02
   4.116849e+01  -3.579674e+02
   2.252224e+02  -1.909165e+02
   3.273152e+02   7.937452e+01
   2.814535e+02   2.697874e+02
   6.744640e+01   3.242655e+02
  -8.553828e+01   1.747536e+02
  -1.664148e+02   4.684741e+00
  -6.629416e+01  -2.199492e+01
   4.787792e+01   1.796190e+01
   1.348796e+00   1.232346e+02
  -1.094332e+02   9.120481e+01
  -1.428533e+02  -1.492373e+01
   1.709727e+01  -5.672581e+01
   1.110361e+02  -1.908394e+01
   1.528984e+01   1.103702e+02
  -1.540735e+02   1.228320e+02
  -2.795198e+02  -1.569336e+01
  -2.803375e+02  -2.060742e+02
  -2.542630e+01  -2.842621e+02
   1.597708e+02  -2.314734e+02
   2.759275e+02  -1.068243e+02
   1.342487e+02   3.081254e+01
  -3.833317e+01   1.121152e+02
  -4.324450e+01   3.754925e+01
   6.781454e+01  -1.196957e+02
   2.211326e+02  -4.796666e+01
   2.112077e+02   1.123131e+02
   1.841607e+01   2.508485e+02
  -9.368253e+01   1.640745e+02
  -1.678622e+02   3.149186e+00
  -6.011461e+01  -2.956518e+01
   4.298844e+01  -1.476836e+01
   6.906448e+01   1.042115e+02
  -1.053490e+02   1.330435e+02
  -2.581302e+02   4.519742e+01
  -2.231436e+02  -1.239240e+02
  -3.849004e+01  -2.311209e+02
   2.325315e+02  -1.609639e+02
   2.013221e+02   2.858526e+01
   9.080555e+01   1.257162e+02
  -9.530706e+01   9.637238e+01
  -1.280354e+02  -9.689171e+00
  -1.743206e+00  -8.259812e+01
   8.001546e+01  -4.836130e+01
  -5.681367e+00   7.575270e+01
  -1.386330e+02   2.694013e+01
  -1.398138e+02  -7.320306e+01
  -9.857682e+00  -1.964329e+02
   1.441794e+02  -1.907182e+02
   2.853578e+02  -1.886363e+01
   2.617576e+02   1.741359e+02
   2.214817e+01   2.840516e+02
  -1.625068e+02   1.787037e+02
  -1.550068e+02  -1.504169e+01
  -1.601746e+01  -9.351574e+01
  -6.728668e+01  -8.861572e+01
  -1.639439e+01   1.665557e+01
  -6.939458e+01   2.125318e+01
  -5.895831e+01  -6.499927e+01
   1.816287e+01  -1.219972e+02
   1.319849e+02  -4.139138e+01
   1.336763e+02   6.280704e+01
  -9.933583e+00   1.199206e+02
  -1.551614e+02   8.085047e+01
  -2.536253e+02  -4.885550e+01
  -1.012000e+02  -2.281768e+02
   1.290026e+02  -2.631519e+02
   3.514282e+02  -5.821511e+01
   2.156674e+02   9.308235e+01
   1.018571e+02   1.745087e+02
  -6.835514e+01   1.524650e+02
  -6.318003e+01   1.166584e+02
  -7.160718e+01   6.494380e+01
  -2.944291e+01   6.428838e+01
  -1.176907e+02   1.257246e+02
  -1.703206e+02   2.301477e+01
  -1.446136e+02  -1.422220e+02
  -3.474113e+01  -2.384203e+02
   1.140449e+02  -1.904870e+02
   1.673406e+02  -2.729738e+01
   1.520135e+02   1.225018e+02
   1.158466e+01   1.782051e+02
  -8.403638e+01   1.078464e+02
  -4.097667e+01  -3.674760e+01
   6.790865e+01  -6.752807e+01
   3.244815e+01  -2.356095e+01
  -2.327074e+01   3.203215e+01
  -7.773299e+01  -7.187279e+00
  -2.834005e+01  -5.757828e+01
   1.289242e+01  -5.489504e+00
   1.775228e+02  -6.942111e+01
   1.770758e+02   6.439784e+01
   2.323735e+01   1.230254e+02
  -1.702312e+02   1.071116e+02
  -1.607977e+02   1.271134e+01
  -5.236252e+01  -8.571547e+01
   4.144392e+01  -7.580357e+01
   6.914548e+01   3.572365e+01
  -1.311388e+00   1.081900e+02
  -6.107265e+01   5.787470e+01
  -4.750663e+01   3.031971e+01
  -2.976889e+01  -9.398235e+01
  -4.553887e+01  -1.902155e+01
  -5.150097e+01  -9.459110e+00
  -1.079917e+02   1.002245e+01
  -4.904569e+01  -5.942767e+01
  -1.936357e+01  -1.480219e+02
   1.252753e+02  -1.521667e+02
   2.025046e+02  -4.156828e+01
   1.156323e+02   4.572642e+01
   2.179547e+00   1.503266e+02
  -1.087772e+02   6.560861e+01
  -6.763676e+01   1.363584e+01
   6.152626e+01  -3.540847e+01
   1.528134e+02   2.687740e+01
   1.159232e+02   1.145984e+02
  -5.772690e+01   1.469282e+02
  -2.253129e+02   7.968787e+01
  -1.634271e+02  -3.263741e+01
  -5.178675e+01  -8.515742e+01
   6.067087e+01  -1.002963e+02
   1.995437e+01   2.072681e+01
  -3.476217e+01   4.513022e+01
  -5.661179e+01  -2.036683e+01
  -2.159285e+01  -1.365035e+02
   1.143154e+02  -1.772768e+02
   1.762136e+02  -1.127251e+02
   1.548508e+02   7.652964e+01
   1.904382e+00   1.559187e+02
  -1.060144e+02   1.414401e+02
  -1.321077e+02  -1.220110e+01
  -8.063913e+01  -1.419507e+02
   1.833459e+01  -1.185599e+02
   6.099919e+01  -3.095830e+01
   1.894319e+01  -6.655004e-01
   3.441611e+01   1.658148e+01
  -3.810695e+01  -1.426723e+01
  -1.710308e+01   3.364344e+01
   3.484150e+01   5.897921e+01
   6.051125e+01   8.680822e+01
  -2.061535e+01   9.313336e+01
  -1.657258e+02  -6.232999e+01
  -5.800552e+01  -1.150821e+02
  -6.491297e-01  -1.017884e+02
   9.219477e+01   7.718969e+00
   4.793202e+01  -1.435089e+00
   3.914380e+01  -6.274636e-01
  -8.251358e+00  -3.598598e+00
  -1.301531e+01   1.029821e+01
   3.971363e+01   1.522397e+01
  -2.492725e+01   2.048221e+01
  -5.618068e+01   3.642788e+01
  -1.338228e+02  -5.460012e+00
  -1.804350e+01  -1.050412e+02
   1.164110e+02  -1.226501e+02
   2.144769e+02  -6.010096e+01
   1.906539e+02   1.473828e+01
   1.006322e+02   1.671967e+02
  -3.651016e+01   1.541849e+02
  -9.365108e+01   7.557906e+01
  -9.192471e+01  -2.723601e+01
  -5.550040e+01  -3.082344e+01
  -1.150558e+01   3.917422e+00
  -2.718142e+01  -5.212858e+01
  -4.266731e+01  -5.246434e+01
  -6.474933e+01  -1.194514e+02
   4.805581e+01  -1.001028e+02
   6.873307e+01  -3.445023e+01
   8.645960e+01   4.935550e+01
   4.319548e+01   5.238488e+01
  -6.492544e+01   2.539854e+01
  -1.069965e+02  -1.015205e+02
  -6.762519e+01  -6.343842e+01
   6.950675e+01  -8.197503e+01
   9.991283e+01   4.389230e-01
   6.006919e+01   5.155381e+01
  -1.962112e+01   4.755719e+01
  -2.463085e+01   9.725421e+01
   4.092144e+01  -2.617416e+00
   8.959866e+01  -3.644792e+01
   9.166735e+01   4.857730e+00
  -6.913020e+01   9.843558e+01
  -1.256213e+02   1.023570e+02
  -8.596269e+01  -8.669851e+00
   8.955208e+00  -7.617179e+01
   2.424991e+01  -7.474931e+01
   5.757045e+01  -3.037229e+01
  -2.259124e+01   4.232779e+01
  -1.494178e+01   4.041905e+01
  -1.495505e+01  -2.313446e+01
  -3.061320e+01  -6.954336e+01
   2.273219e+01  -1.757825e+01
   6.997727e+01  -6.818095e+00
   1.030964e+02   4.713093e+00
   1.793367e+01  -1.532576e+01
  -2.091780e+00   5.155376e+01
   2.625230e+01   2.453260e+01
  -2.391809e+01   5.713617e+01
   1.484510e+01   3.083504e+01
  -2.629515e+01   4.095474e+00
  -6.401288e+01  -3.121777e+01
  -1.785609e+01  -3.958459e+01
   3.427264e+01   4.319429e+01
   5.259895e+01   6.579143e+01
  -6.438283e+00   4.031705e+01
  -8.511311e+01   5.952283e+01
  -9.040639e+01  -1.821682e+01
  -8.375878e+01  -3.843343e+01
   3.774398e+01  -4.448904e+01
   6.294547e+01  -8.481813e+01
  -5.479368e+00  -1.311991e+01
  -5.972371e+01   4.306165e+00
  -4.270625e+00   1.503736e+01
   3.267969e+01  -6.628961e+01
   7.817456e+01  -4.784228e+01
