
 $NMID
 id='ANONYMOUS ', fmtdat='(2E16.6)'
 volume=1.0
 tramp=1.0
 $END
   4.573640e+03  -1.613530e+02
   2.709906e+03   2.470782e+03
  -6.737053e+02   3.098953e+03
  -2.301146e+03   1.142752e+03
  -1.170198e+03  -5.185499e+02
   8.168134e+02  -8.300409e+02
   1.060584e+03   5.057559e+02
   7.586507e+00   1.155919e+03
  -7.996260e+02   9.460142e+02
  -1.047197e+03  -1.163127e+02
  -6.690638e+02  -1.016715e+03
   2.370044e+02  -1.007322e+03
   5.816478e+02  -1.381910e+02
   5.490448e+02   8.998964e+02
  -3.625045e+02   1.068581e+03
  -5.568578e+02   1.653179e+02
  -1.832672e+02  -8.968240e+02
   4.772299e+02  -6.850179e+02
   8.081345e+02   5.329195e+00
   3.859590e+02   5.329133e+02
   3.789586e+01   4.019065e+02
  -2.985857e+02   1.785487e+02
  -2.665385e+02  -3.561146e+00
   1.485365e+02  -6.486317e+01
   5.171069e+02   1.644056e+02
   2.199422e+02   6.079952e+02
  -4.633367e+02   4.425194e+02
  -9.053021e+02  -1.209359e+02
  -5.211296e+02  -4.547268e+02
   3.550080e+02  -5.331857e+02
   8.009777e+02  -5.538436e+01
   3.300463e+02   4.418763e+02
  -2.749057e+02   4.141113e+02
  -4.976827e+02   2.547049e+02
  -4.495687e+02  -2.884668e+02
  -1.201072e+02  -5.612787e+02
   1.741669e+02  -2.269286e+02
   2.328544e+02   2.076867e+02
  -1.753559e+02   3.603713e+02
  -4.963246e+02  -1.165892e+01
  -2.835314e+02  -6.881734e+02
   2.532613e+02  -6.901975e+02
   6.217095e+02  -2.236648e+01
   3.250154e+02   5.729321e+02
  -3.223715e+02   3.312757e+02
  -4.164546e+02  -3.680825e+02
   6.168251e+01  -6.248744e+02
   5.745125e+02  -1.585545e+02
   5.498577e+02   4.217837e+02
   1.024870e+02   6.008120e+02
  -4.357594e+02   3.481150e+02
  -6.391393e+02  -1.028545e+02
  -3.326898e+02  -4.311605e+02
   1.735907e+02  -4.155946e+02
   4.758491e+02  -7.332783e+01
   2.779153e+02   1.965317e+02
  -1.336182e+02   1.481093e+02
  -1.564282e+02  -1.060448e+02
   1.885900e+02  -2.108099e+02
   3.604452e+02   9.902281e+01
   1.529357e+02   3.026153e+02
  -2.083739e+02   2.544050e+02
  -3.783602e+02   5.809520e+01
  -2.250252e+02  -1.423685e+02
   1.514616e+01  -2.691994e+02
   2.304833e+02  -3.505426e+02
   3.496156e+02  -1.824623e+02
   3.374974e+02   1.111321e+02
   1.041853e+02   3.899220e+02
  -1.136617e+02   3.926553e+02
  -1.260285e+02   1.189560e+02
  -1.094690e+02  -1.821050e+01
  -3.700211e+01   9.046784e+00
  -1.300006e+02   8.106520e+01
  -1.989067e+02  -5.128541e+01
  -1.354236e+02  -2.273860e+02
   9.692905e+01  -2.265309e+02
   2.179254e+02  -7.324415e+00
   2.089995e+02   2.517951e+02
   2.222581e+01   2.488726e+02
  -2.749733e+02   1.298870e+02
  -3.664053e+02  -1.245033e+02
  -1.797062e+02  -3.579113e+02
   9.157903e+01  -3.061643e+02
   2.520113e+02  -1.207405e+02
   1.392672e+02   5.473515e+00
   3.404189e+01  -1.905262e+01
   1.935421e+02  -7.872361e+01
   4.160874e+02   2.564378e+01
   3.417657e+02   2.729642e+02
   4.465018e+01   4.348480e+02
  -3.554666e+02   3.988995e+02
  -4.908557e+02   2.045115e+02
  -3.808157e+02  -1.096196e+02
  -3.104379e+01  -3.455447e+02
   1.306173e+02  -2.796327e+02
   1.523850e+02  -3.255765e+01
  -3.962911e+01   6.835777e+01
  -1.711130e+02   2.809744e+01
  -7.093237e+01  -1.435177e+02
   1.579066e+02  -8.290664e+01
   1.820013e+02   7.063382e+01
   4.176896e+01   1.792959e+02
  -2.060925e+02   5.215586e+01
  -2.516812e+02  -1.616276e+02
  -4.760122e+01  -2.973895e+02
   1.915693e+02  -1.926352e+02
   2.882056e+02   1.513323e+01
   2.960597e+02   2.492463e+02
   7.733086e+01   2.616524e+02
  -1.185494e+02   1.544539e+02
  -1.402252e+02  -2.135236e+00
  -8.020544e+01  -8.036554e+01
   3.240644e+01   8.948734e+00
   2.150763e+01   1.264255e+02
  -1.420380e+02   1.313064e+02
  -1.300647e+02   6.182454e+00
  -6.100944e+01  -1.053062e+02
   5.036793e+01  -6.130982e+01
   1.910999e+01   3.757579e+01
  -1.044098e+02   7.799227e+01
  -2.345080e+02  -7.765673e+00
  -2.129951e+02  -1.097253e+02
  -6.727026e+01  -2.455744e+02
   1.745818e+02  -2.690751e+02
   2.981867e+02  -1.012567e+02
   1.551752e+02   8.376470e+01
  -1.755784e+01   1.516003e+02
  -6.136616e+01   3.314798e+01
  -3.007560e+00  -7.759067e+01
   1.712483e+02  -7.131092e+01
   1.769404e+02   1.011640e+02
   9.514322e+01   1.772475e+02
  -1.103174e+02   1.905071e+02
  -1.696659e+02   6.236881e+01
  -1.328534e+02  -9.484991e+01
   5.004157e+01  -6.438896e+01
   2.591064e+01   2.712409e+00
  -2.009842e+01   8.663729e+01
  -1.798223e+02   4.572269e+01
  -1.644600e+02  -1.174407e+02
  -2.646149e+01  -2.061341e+02
   1.155982e+02  -1.500405e+02
   1.603644e+02  -4.173427e+01
   5.874160e+01   1.067568e+02
  -1.781809e+01   1.269029e+02
  -7.009560e+01   2.605362e+01
  -6.090410e+01  -2.227476e+01
  -9.581823e+00  -3.449316e+01
  -3.898152e+01  -6.021614e+00
  -3.391255e+01  -3.074364e+01
  -4.080610e+01  -8.968213e+01
   1.041677e+01  -1.261544e+02
   1.482219e+02  -1.203003e+02
   2.467205e+02  -2.801324e+01
   1.726119e+02   1.378086e+02
   3.861232e+01   2.422925e+02
  -8.498495e+01   1.734433e+02
  -1.357313e+02   3.882950e+01
  -8.469369e+01  -4.105783e+01
  -2.616669e+01  -5.171243e+01
  -4.270594e+01  -1.061349e+01
  -3.710883e+01  -4.883001e-02
  -2.387178e+01  -2.553392e+01
   4.289308e+01  -7.682645e+01
   9.547445e+01  -2.416914e+01
   9.990025e+01   2.920261e+01
   1.803051e+01   1.212476e+02
  -1.137149e+02   9.280140e+01
  -1.977450e+02  -6.675279e+01
  -1.039034e+02  -2.280057e+02
   8.847872e+01  -2.514813e+02
   2.735694e+02  -1.203522e+02
   2.430569e+02   9.854591e+01
   1.259869e+02   2.103731e+02
  -3.547047e+00   1.869985e+02
  -1.139161e+02   1.202473e+02
  -1.314886e+02   5.088992e+01
  -1.156081e+02   7.780046e+01
  -1.529502e+02   8.022389e+01
  -1.135919e+02  -9.532247e+00
  -1.011652e+02  -1.701959e+02
  -3.836752e+00  -2.399215e+02
   8.602622e+01  -1.531661e+02
   1.485984e+02   3.063953e+00
   1.166248e+02   1.505612e+02
   5.974018e+01   1.673165e+02
  -4.395682e+01   8.652370e+01
  -4.358205e+01  -7.892679e+00
   6.864449e+00  -2.736931e+01
   1.237014e+01  -4.110609e+01
  -4.044036e+01  -1.455370e+01
  -5.293525e+01  -1.469202e+01
  -3.816566e+01  -3.202468e+01
   2.850064e+01  -2.924060e+01
   1.409538e+02  -2.358148e+01
   1.633690e+02   2.842770e+01
   4.403929e+01   9.955144e+01
  -7.915646e+01   1.116668e+02
  -1.552799e+02   4.938918e+01
  -4.360118e+01   2.768436e+01
   7.293368e+00   1.038418e+01
   7.417809e+01   1.816525e+01
  -1.207541e+01   6.648098e+01
  -6.824995e+01   6.247987e+01
  -7.981923e+01  -4.287442e+00
  -1.990131e+01  -5.935482e+01
  -9.670053e+00  -1.844999e+01
  -1.566172e+01   9.071168e+00
  -3.509910e+01   5.020694e+01
  -1.640600e+01  -2.165099e+01
   1.937487e+01  -1.045848e+02
   8.111054e+01  -1.273313e+02
   1.004583e+02  -4.376811e+01
   5.584516e+01   5.022385e+01
  -3.777607e+01   9.634993e+01
  -8.330256e+01   7.157818e+01
  -9.655428e+01  -9.891904e+00
   7.228299e+01  -1.577599e+01
   9.955898e+01   3.619241e+01
   7.831240e+01   1.103257e+02
  -5.867426e+01   7.493573e+01
  -1.414684e+02   7.859358e+01
  -1.575110e+02  -2.281259e+01
  -5.619167e-01  -4.836897e+01
   1.334183e+01  -5.935332e+01
   4.278931e+01   2.097050e+01
   7.618804e+00   2.579009e+01
  -9.348547e+01   2.498543e+00
  -1.667028e+01  -8.149461e+01
   6.646115e+01  -9.649308e+01
   1.526291e+02  -9.246365e-01
   6.138801e+01   1.075026e+02
  -1.911037e+00   1.635768e+02
  -1.013622e+02   1.105126e+02
  -1.139122e+02   2.419365e+01
  -6.080109e+01  -9.901306e+01
  -6.619083e-01  -6.568724e+01
   4.865992e+01   1.145449e+01
   2.995890e+01  -1.733221e+01
   2.085595e+01  -9.201836e+00
  -7.973156e+00   3.043974e+00
   2.273634e+01  -2.904726e+00
   2.171054e+01   1.195047e+02
   7.539221e+00   1.319984e+02
  -4.628246e+01   1.698046e+01
  -1.324818e+02  -3.869677e+01
  -1.445390e+02  -7.381352e+01
  -4.314738e+01  -4.222123e+01
   5.338798e+01  -1.014362e+01
   9.087803e+01  -7.574365e+00
  -1.046430e+01   1.429826e+01
  -7.543369e+01  -2.739371e-01
   5.485666e+00   3.059808e+01
   8.050282e+01   1.885997e+00
  -3.189488e+00  -1.765204e+01
  -4.213579e+01  -3.681875e+00
  -6.953329e+01   2.810666e+00
   5.295617e+00  -2.119668e+01
   1.382235e+02  -4.397247e+01
   1.865700e+02  -1.444790e+01
   1.397763e+02   4.816846e+01
   2.641097e+01   1.438621e+02
  -8.728694e+01   1.336548e+02
  -8.023620e+01   9.067025e+01
  -5.631648e+01   3.359403e+01
   1.848236e+01  -7.265619e+01
  -1.323241e+01   7.662921e+00
   1.827551e-01   1.868991e+01
  -6.459938e+01  -5.024315e+01
  -3.292872e+00  -1.078275e+02
   2.162702e+01  -6.274680e+01
   3.433949e+01   2.310530e+01
   5.623671e+01   1.138056e+02
   2.983041e+00   1.008368e+02
  -5.588732e+01  -1.099684e+01
  -9.959612e+01  -7.966027e+01
  -4.430666e+01  -1.050088e+02
   5.103557e+01  -5.276449e+01
   6.335533e+01   2.027049e+01
   3.373629e+01   9.360756e+01
  -8.636933e+00   1.752001e+01
  -1.543254e+01   3.028464e+01
   6.295582e+01   1.962795e+01
   6.065326e+01   4.037680e+01
   5.658282e-01   2.520940e+01
  -8.232315e+01   5.273105e+01
  -1.258092e+02   8.759278e+01
  -5.594846e+01   9.485365e+00
   6.866850e+00  -5.491665e+01
   6.194050e+01  -7.056610e+01
   1.147740e+01  -6.285403e+00
  -8.009236e+00  -1.546308e+00
  -2.264496e+01   3.530477e+01
  -9.888803e-02  -3.592212e+01
  -2.769478e+00  -4.032065e+01
   4.487826e-01  -1.742907e+01
   4.113809e+01  -1.044748e+01
   3.855988e+01   1.151677e+01
   4.129771e+00  -2.664483e+01
   1.726788e+00  -5.189686e+01
   2.580810e+01  -2.373687e+01
  -1.634813e+01   2.930835e+01
  -7.450763e+00   2.976375e+01
  -6.774458e+01   5.025938e+01
  -3.359265e+01  -3.878241e+01
  -3.793773e+01  -6.061932e+01
   2.415629e+01   1.499611e+01
   6.062254e+01   4.613630e+01
  -4.364324e+01   4.115339e+01
  -5.488361e+01   1.801700e+01
  -8.701645e+01  -7.877269e+00
   2.571172e+00  -5.933046e+01
   6.610592e+01  -6.081980e+01
   6.249830e+01   9.697095e+00
  -7.340989e+00   2.304875e+01
  -7.248120e+01   7.920917e-02
  -2.241930e+01  -1.694347e+01
   1.302645e+01  -5.484479e+01
   7.431495e+01  -5.390836e+01
