
 $NMID
 id='ANONYMOUS ', fmtdat='(2E16.6)'
 volume=1.0
 tramp=1.0
 $END
  -3.388831e+03  -1.682748e+01
  -2.573905e+03  -2.046170e+03
   9.352626e+01  -2.568176e+03
   1.698007e+03  -1.154375e+03
   9.208395e+02  -2.625079e+01
  -1.009218e+02   2.365670e+02
  -5.569375e+02  -2.384112e+02
  -8.792479e+01  -7.518222e+02
   5.067791e+02  -7.394858e+02
   7.872138e+02  -8.003912e+01
   5.700331e+02   6.941343e+02
  -4.544223e+01   1.024733e+03
  -4.520510e+02   1.929384e+02
  -2.809209e+02  -6.581303e+02
   3.098867e+02  -7.541300e+02
   4.928121e+02   3.559027e+01
   2.708772e+02   4.308689e+02
  -5.589508e+01   7.326044e+02
  -5.157775e+02   3.795262e+02
  -5.584530e+02  -2.726990e+02
  -4.636047e+01  -3.944725e+02
   5.328403e+01  -3.352574e+02
   1.094863e+02   1.502120e+01
  -1.172813e+02  -1.600106e+02
  -2.887516e+02  -2.759655e+02
  -3.241160e+01  -4.828070e+02
   5.271798e+02  -3.063384e+02
   7.259426e+02   1.036172e+02
   3.447755e+02   5.049966e+02
  -3.724318e+02   3.586633e+02
  -6.588066e+02  -2.274960e+02
  -2.743047e+02  -4.258983e+02
   2.612984e+02  -4.124383e+02
   4.745381e+02  -8.752456e+01
   3.804146e+02   1.193349e+02
   1.053988e+02   3.440044e+02
  -1.393629e+02   3.459283e+02
  -2.670063e+01  -8.652057e+01
   2.756029e+02  -2.420467e+02
   3.192529e+02   1.186259e+02
   3.243626e+01   6.879954e+02
  -3.523607e+02   5.861834e+02
  -4.775670e+02   5.705583e+01
  -1.188715e+02  -4.075654e+02
   2.584040e+02  -2.255518e+02
   2.796952e+02   2.596932e+02
  -8.220936e+01   4.301586e+02
  -5.152658e+02   1.235547e+02
  -5.314644e+02  -3.713270e+02
  -1.174154e+02  -4.942157e+02
   3.707966e+02  -2.544293e+02
   5.928149e+02   9.078189e+01
   3.584786e+02   3.459968e+02
  -1.094311e+02   3.739563e+02
  -3.553238e+02   1.226428e+02
  -2.304909e+02  -1.351389e+02
   1.864484e+01  -1.126847e+02
   6.099424e+01   1.048062e+02
  -1.141613e+02   1.425886e+02
  -3.002377e+02  -6.359393e+01
  -1.487291e+02  -2.358841e+02
   1.382008e+02  -2.593950e+02
   3.433953e+02  -1.166887e+02
   2.721975e+02   7.333642e+01
   1.670767e+00   3.141082e+02
  -2.715444e+02   4.164035e+02
  -3.471442e+02   1.983631e+02
  -2.804970e+02  -1.447020e+02
  -3.656241e+01  -3.882013e+02
   5.925931e+01  -3.138112e+02
  -3.202616e+00  -6.745397e+01
   1.042582e+00  -3.877586e+01
   9.489295e+01  -1.582172e+02
   2.348965e+02  -1.280417e+02
   2.505898e+02   9.306744e+01
   1.114926e+02   2.856753e+02
  -9.226967e+01   2.065220e+02
  -1.717800e+02  -1.001916e+02
  -1.440099e+02  -2.459802e+02
   3.285786e+01  -2.426657e+02
   2.733005e+02  -7.391031e+01
   3.374984e+02   1.778613e+02
   1.738242e+02   3.294368e+02
  -7.363420e+01   2.816394e+02
  -1.870621e+02   1.768776e+02
  -1.610890e+02   1.026612e+02
  -1.182050e+02   6.065460e+01
  -2.544913e+02   7.509667e+01
  -3.941470e+02  -1.210103e+02
  -3.497070e+02  -2.940683e+02
  -1.218507e+01  -4.017454e+02
   3.692395e+02  -3.887401e+02
   4.972523e+02  -1.595669e+02
   3.146681e+02   8.812845e+01
  -5.574196e+00   2.190688e+02
  -9.847899e+01   1.863667e+02
  -4.887394e+01   4.080741e+01
   8.720783e+01   7.538838e+00
   1.527150e+02   4.685347e+01
  -2.546980e+01   1.715212e+02
  -1.138430e+02   1.491818e+02
  -1.321829e+02  -4.630961e+01
   4.061748e+00  -1.764800e+02
   1.618120e+02  -3.324223e+01
   1.366525e+02   2.334016e+02
  -3.371318e+01   3.722905e+02
  -2.364190e+02   2.045299e+02
  -3.118001e+02  -4.495042e+01
  -2.450808e+02  -2.465399e+02
  -6.013145e+01  -2.986778e+02
   7.445721e+01  -1.626049e+02
   1.044379e+02  -1.914641e+01
   3.378124e+01  -2.203808e+01
  -6.954163e+01  -7.136810e+01
   1.584748e+01  -1.354240e+02
   1.570793e+02  -8.201088e+01
   1.465672e+02  -2.453810e+01
   4.218585e+01   4.365620e+01
  -8.951157e+01  -2.204465e+01
  -7.042692e+01  -3.087633e+01
   1.012439e+02  -6.730882e+01
   2.815089e+02   2.915220e+01
   2.478116e+02   1.789707e+02
   3.955490e+01   2.508731e+02
  -2.047719e+02   2.413850e+02
  -2.622452e+02   4.415142e+01
  -1.430566e+02  -8.419119e+01
   2.057745e+01  -1.330517e+02
   4.127947e+01   1.429652e+01
  -7.176229e+01   8.721334e+01
  -1.321138e+02   6.029209e+01
  -1.556856e+02  -1.543928e+02
  -6.973474e+01  -2.149302e+02
   4.127651e+01  -1.370333e+02
   8.223097e+01  -2.992423e+01
   8.432615e+01  -7.747870e+00
  -2.065633e+01  -4.023302e+01
   2.763590e+01  -1.057904e+02
   1.528620e+02  -1.236193e+02
   2.342410e+02   2.098843e+01
   1.969624e+02   1.475499e+02
   1.321349e+01   1.983966e+02
  -1.339023e+02   1.462950e+02
  -1.349123e+02   9.924455e+00
  -2.108078e+01  -6.730443e+01
   1.129900e+01  -9.320672e+01
   1.664475e+01   8.889070e+00
   1.765267e+00   3.133065e+01
  -1.161776e+01  -4.158789e+01
  -1.320568e+01  -9.901536e+01
   9.736862e+01  -2.294696e+01
   9.378258e+01   7.921901e+01
  -3.286404e+00   1.732089e+02
  -1.184739e+02   1.476697e+02
  -2.079074e+02   1.868170e+01
  -1.966720e+02  -1.822023e+02
  -4.966976e+01  -2.460904e+02
   1.414158e+02  -1.623947e+02
   1.910828e+02  -2.694246e+01
   6.532483e+01   4.566030e+01
   3.501962e+01   2.727110e+01
   5.035999e+01   1.773880e+01
   6.914984e+01   2.561171e+01
   7.888647e+01   6.931435e+01
  -5.842138e+01   1.289942e+02
  -1.768941e+02   8.429964e+01
  -1.094029e+02  -4.485750e+01
   1.874054e+01  -1.708015e+02
   1.640107e+02  -1.255432e+02
   2.060714e+02   7.513832e+01
   8.305056e+01   2.245501e+02
  -7.388258e+01   2.011448e+02
  -2.470776e+02   9.397894e+01
  -2.732068e+02  -1.193269e+02
  -1.004863e+02  -1.729416e+02
   5.437947e+01  -1.307824e+02
   1.143517e+02  -5.175358e+01
   7.723224e+01  -5.286458e+01
   3.215962e+01  -8.237246e+01
   1.043434e+02  -7.787278e+01
   1.453378e+02   2.574384e+01
   1.065199e+02   5.829407e+01
   9.910216e+00   1.867026e+02
  -9.047904e+01   1.629143e+02
  -1.931442e+02  -2.792225e+00
  -1.631007e+02  -9.563659e+01
  -2.518450e+01  -1.377411e+02
   5.453632e+01  -1.008271e+02
   5.385256e+01   7.226589e+00
   1.880606e-01   8.700000e-01
  -2.514003e+01   2.485725e+01
   4.725916e+01   8.906440e+00
   4.350739e+01   1.669765e+01
   7.450468e+01   5.641059e+01
  -6.011129e+01   4.062455e+01
  -1.989456e+02   2.517203e+01
  -1.462963e+02  -7.067326e+01
  -3.039905e+00  -1.301772e+02
   1.502961e+02  -9.974311e+01
   1.461817e+02  -7.506637e+00
   5.470513e+00   6.359554e+01
  -4.151653e+01   7.760038e+01
  -6.176779e+01   2.164286e+01
  -1.672226e+01  -5.484192e+01
   1.399021e+01  -9.212586e+01
   5.809408e+01  -1.566144e+01
   5.469941e+01   6.334866e+01
   5.829176e+01   5.280047e+01
   5.521423e+01  -4.008527e+01
   6.253359e+01   6.991325e+00
   2.382750e+01   1.100676e+02
  -3.233413e+01   1.412132e+02
  -1.436340e+02   1.314126e+02
  -1.667689e+02   4.231623e+00
  -9.415967e+01  -1.116128e+02
  -4.546190e-01  -1.072854e+02
   7.514389e+01  -9.217190e+01
   1.084002e+02   2.257309e+00
  -4.908766e+01   5.110810e+01
  -1.785483e+02  -4.353626e+01
  -6.632936e+01  -6.959480e+01
   6.204902e+01  -8.674645e+01
   1.765272e+02  -5.127798e+01
   1.353284e+02   6.669974e+01
   3.952930e+01   7.386138e+01
  -7.661178e+01   1.140690e+02
  -5.993261e+01  -2.202717e+01
   5.236420e+01  -6.509922e+01
   1.028181e+02   6.233141e+01
   8.689842e+00   1.266876e+02
  -7.857367e+01   1.227268e+02
  -1.451197e+02   8.625498e+01
  -1.522726e+02  -7.873421e+01
  -3.278376e+01  -1.813540e+02
   9.213462e+01  -1.565860e+02
   1.141126e+02  -2.190118e+01
   5.287180e+01   1.106290e+02
   5.769867e+01   1.115020e+02
   4.755800e-01  -4.746021e+00
  -4.345277e+01  -1.167071e+01
  -1.649955e+01   1.396828e+01
  -3.454720e+01   3.137501e+01
  -6.206010e+01   2.542494e+00
  -5.269322e+01  -8.952104e+01
  -2.002591e+01  -1.032700e+02
   4.531907e+01  -4.379911e+01
   1.451823e+02   5.336474e+01
   8.959493e+01   9.800313e+01
   7.480480e-01   7.067582e+01
  -1.324388e+02   2.679446e+00
  -1.096860e+02   2.910633e+00
   8.382333e-02  -1.735609e+01
   5.531015e+01  -3.933259e+01
   8.326334e+00  -2.029053e+01
  -7.842297e+00   2.662156e+00
  -8.716726e+00  -8.925254e+00
   5.733433e+01  -4.712717e+00
   1.209031e+02   4.743524e+01
  -2.608160e-01   1.264965e+02
  -1.093931e+02   1.170416e+02
  -1.798429e+02   5.162936e+01
  -1.281732e+02  -1.099595e+02
  -4.644133e+01  -1.969267e+02
   7.439113e+01  -1.566297e+02
   1.155888e+02  -7.238241e+01
   1.099445e+02   5.129628e+01
   6.309237e+01   4.794805e+01
   1.460587e+01   2.381911e+01
   6.502205e+01   1.939711e+01
   5.934400e+01   5.618143e+01
  -1.472560e+01   9.248848e+01
  -7.468508e+01   9.563832e+01
  -1.360923e+02  -3.296902e+01
  -1.045068e+02  -1.073350e+02
   2.262338e+01  -8.634020e+01
   8.505960e+01  -7.215657e+01
   8.599393e+01   6.299127e+01
   2.657739e+01   1.170017e+02
  -6.355168e+01   9.678113e+01
  -1.207086e+02   1.675848e+00
  -5.985824e+01  -7.092499e+01
   8.119109e+00  -4.910890e+01
   1.096461e+01  -2.970848e+01
  -7.468113e+00  -1.211765e+01
  -8.029151e+01   1.633978e+01
  -5.062681e+01  -2.857617e+01
   8.936558e+01  -2.594392e+01
   9.939751e+01  -3.081298e+01
   7.112337e+01   3.327298e+01
   3.134128e+01   1.040526e+02
  -5.706408e+01   7.557688e+01
  -2.137540e+01   2.109967e+01
  -1.202424e+01  -8.594885e+01
   1.393178e+01  -4.895127e+01
   8.958489e+01   3.225215e+01
   3.677187e+01   5.444011e+01
   1.112788e+01   4.499049e+01
  -2.925612e+01   3.976917e+01
  -5.525533e+01   3.175059e+01
  -2.186973e+01   2.615781e+00
  -1.688057e+01   3.711004e+01
  -3.902802e+01  -2.814922e+00
  -3.569079e+01  -6.806390e+01
   1.026805e+01  -6.382726e+01
   8.850135e+01  -4.039888e+01
   6.824799e+01   4.803006e+01
  -1.593618e+01   7.251438e+01
  -3.385620e+01   1.691703e+01
  -2.859885e+01  -4.109284e+01
  -5.744238e+00  -8.495440e+01
   5.516165e+01  -5.241483e+01
   9.914582e+01  -3.216953e+00
   9.369877e+01   4.246168e+01
  -2.572208e+01   4.834808e+01
  -7.123012e+01  -8.768517e+00
  -1.388768e+01  -8.521424e+00
   6.373277e+01  -4.023691e+01
   4.090519e+01   6.548278e+01
  -3.343018e+01   6.408629e+01
  -8.048693e+01   3.784609e+00
