
 $NMID
 id='ANONYMOUS ', fmtdat='(2E16.6)'
 volume=1.0
 tramp=1.0
 $END
   3.201125e+03  -3.367866e+02
   2.134463e+03   2.074357e+03
  -3.663979e+02   2.176742e+03
  -1.404620e+03   1.180510e+03
  -9.494685e+02  -1.920857e+02
   3.164453e+02  -2.997051e+02
   4.534271e+02   1.578549e+02
   3.647513e+01   6.685720e+02
  -4.425933e+02   7.032414e+02
  -7.183204e+02   3.157402e+01
  -3.682382e+02  -5.023057e+02
   3.828132e+01  -6.946838e+02
   4.204170e+02  -1.011425e+02
   2.853458e+02   5.016423e+02
  -1.490313e+02   6.198537e+02
  -4.093331e+02   2.328342e+02
  -4.473369e+02  -5.400248e+02
   2.926443e+02  -5.148352e+02
   5.633243e+02  -7.016478e+01
   2.943549e+02   3.240469e+02
  -1.755603e+02   5.354911e+02
  -3.108676e+02   3.000261e+02
  -9.047948e+01  -2.005819e+02
   2.582003e+02  -4.033507e+00
   2.934473e+02   2.691905e+02
   2.281889e+02   5.766550e+02
  -4.742544e+02   2.064323e+02
  -4.727701e+02  -1.383461e+02
  -2.086220e+02  -4.616706e+02
   3.461965e+02  -2.507104e+02
   4.866879e+02   2.050389e+02
   1.749078e+02   3.129760e+02
  -3.069353e+02   4.352721e+02
  -4.100489e+02   1.006386e+02
  -3.260055e+02  -2.095978e+02
  -6.449185e+01  -3.572396e+02
   2.114528e+02  -2.541237e+02
   8.784006e+01   1.042559e+02
  -8.193296e+01   2.628362e+02
  -3.536730e+02  -3.436512e+01
  -1.899316e+02  -5.719500e+02
   2.506812e+02  -5.622227e+02
   4.336935e+02  -6.519881e+01
   1.606945e+02   3.651686e+02
  -2.270394e+02   1.975486e+02
  -2.347917e+02  -3.386258e+02
   1.575448e+02  -5.140725e+02
   5.061781e+02  -7.692486e+01
   5.370664e+02   4.105203e+02
   1.367364e+02   5.376787e+02
  -3.303253e+02   2.890698e+02
  -5.045859e+02  -8.680453e+01
  -2.815829e+02  -2.744887e+02
   1.250700e+02  -2.642773e+02
   3.215398e+02  -4.278834e+01
   1.766427e+02   5.787296e+01
  -4.585356e+01   5.684288e+01
  -7.953815e+01  -1.162790e+02
   1.440822e+02  -1.031538e+02
   2.481332e+02   6.050233e+01
   1.240881e+02   2.327426e+02
  -1.323049e+02   2.399158e+02
  -2.899365e+02   8.189245e+01
  -2.443121e+02  -1.580104e+02
  -6.022477e+01  -2.795922e+02
   2.478511e+02  -3.286216e+02
   3.345611e+02  -1.771389e+02
   3.051477e+02   1.293738e+02
   7.310074e+01   3.520918e+02
  -3.520664e+00   3.182956e+02
  -9.927809e+01   1.395018e+02
  -7.757525e+01   5.962077e+01
  -1.448338e+02   2.755189e+01
  -1.900778e+02   7.446260e+01
  -2.173144e+02  -1.093187e+02
  -7.416346e+01  -1.926026e+02
   5.569888e+01  -2.238410e+02
   2.207752e+02   2.836591e+01
   1.874855e+02   1.768869e+02
  -5.910899e+01   2.179254e+02
  -2.481501e+02   5.701342e+01
  -3.000110e+02  -1.189441e+02
  -1.024029e+02  -2.212500e+02
   5.820847e+01  -2.304581e+02
   1.716648e+02  -1.383515e+02
   1.419182e+02  -1.054805e+02
   1.894970e+02  -7.109142e+01
   2.875159e+02  -2.431066e+01
   3.654705e+02   1.760285e+02
   2.860806e+02   2.769777e+02
  -3.887925e+01   4.634916e+02
  -3.149408e+02   3.318604e+02
  -4.457120e+02   1.645118e+02
  -2.995243e+02  -1.551190e+02
  -2.897849e+01  -2.455169e+02
   1.064940e+02  -1.845172e+02
   5.875180e+01   2.996309e+01
  -9.105717e+01   6.670331e+01
  -1.703996e+02  -2.487368e+01
   4.840885e+00  -1.571061e+02
   8.895042e+01  -1.207910e+02
   1.400659e+02   6.627368e+01
  -8.301085e+01   1.138008e+02
  -1.627272e+02   1.161241e-01
  -1.400636e+02  -2.530228e+02
   5.302522e+01  -3.421364e+02
   2.287765e+02  -2.206839e+02
   3.656240e+02   2.569645e+01
   2.846334e+02   2.244921e+02
   1.235367e+02   2.712337e+02
  -1.083675e+02   1.359045e+02
  -1.362478e+02   4.447219e+01
  -2.480517e+01  -7.061800e+00
   6.027935e+01   5.361299e+01
  -2.216403e+01   1.000877e+02
  -1.680777e+02   8.434345e+01
  -1.683514e+02  -1.316119e+01
  -6.797335e+01  -6.060089e+01
   9.074041e+01  -2.460362e+01
   5.068043e+01   8.333310e+01
  -9.607299e+01   8.473507e+01
  -2.978120e+02   2.484875e+01
  -2.080481e+02  -1.432545e+02
  -5.398472e+01  -2.276041e+02
   1.486821e+02  -1.968512e+02
   1.765354e+02  -1.165106e+02
   1.332695e+02   3.975933e+01
  -7.847790e+00   5.094575e+01
  -7.713161e+00  -3.321588e+01
   2.817387e+01  -1.229282e+02
   1.750551e+02  -2.641261e+01
   1.771745e+02   6.266586e+01
   9.525990e+01   1.866214e+02
  -7.144771e+01   1.283690e+02
  -1.130267e+02   4.460900e+01
  -1.813298e+01  -1.839881e+01
   2.034805e+01   9.203056e+00
   3.235619e+01   9.178279e+01
  -1.073335e+02   1.163560e+02
  -2.054500e+02   2.879175e+01
  -1.950173e+02  -5.989001e+01
   2.602496e+01  -1.484491e+02
   1.522092e+02  -1.039051e+02
   1.802370e+02   1.665817e+01
   3.593619e+01   5.455239e+01
  -5.266381e+01   1.379485e+02
  -6.354738e+01   2.625409e+01
   5.974973e+00  -6.643420e+00
  -3.004501e-01  -3.977504e+01
  -1.945695e+01  -1.904386e+01
  -6.978536e+01  -7.329704e+01
  -7.046514e+01  -9.028514e+01
   3.661765e+01  -1.504051e+02
   1.699662e+02  -9.771084e+01
   2.122549e+02   1.064014e+01
   1.296082e+02   1.785565e+02
  -2.099846e+00   2.316351e+02
  -1.403291e+02   1.553278e+02
  -1.465450e+02   1.028478e+01
  -3.454492e+01  -4.577149e+01
  -6.854442e+01  -3.433121e+01
  -8.090685e+01   1.180417e+01
  -6.230146e+01  -2.831381e+00
  -7.955737e+01  -9.081739e+01
   5.830263e+01  -1.135063e+02
   9.147986e+01  -3.290273e+01
   8.774965e+01   6.165646e+01
   4.090371e+01   1.176720e+02
  -1.809949e+02   5.944182e+01
  -1.905310e+02  -1.181215e+02
  -1.210358e+02  -2.215845e+02
   8.595308e+01  -2.011356e+02
   2.587955e+02  -8.522139e+01
   2.361548e+02   4.212358e+01
   9.512940e+01   1.906018e+02
  -2.037618e+01   1.584826e+02
  -6.667023e+01   7.039196e+01
  -6.843632e+01   2.467056e+01
  -7.897029e+01   7.505738e+01
  -6.237290e+01   6.989461e+01
  -8.910174e+01  -1.370550e+01
  -6.644262e+01  -1.565683e+02
  -2.862841e+01  -2.239550e+02
   9.175727e+01  -1.160600e+02
   1.481718e+02   5.951255e+01
   1.120797e+02   1.572695e+02
  -5.950884e+00   1.510264e+02
  -8.885293e+01   6.322748e+01
  -9.712525e+01  -2.455972e+01
   2.891055e+01  -3.975145e+01
   2.746684e+01  -2.770368e+01
  -1.064240e+01  -6.145736e+01
  -5.199500e+01  -2.137369e+01
  -6.603707e+01  -2.142659e+01
   6.319765e+01  -1.037771e+01
   1.310401e+02   3.824042e+01
   1.068904e+02   9.152470e+01
   7.504012e+00   1.199200e+02
  -7.554243e+01   4.390003e+01
  -1.350409e+02  -2.962005e+00
   2.812307e+00  -3.946068e+01
   7.511558e+01  -6.246363e+01
   3.199629e+01  -7.979716e+00
   9.389178e+00   6.939393e+01
  -3.452712e+01   2.195291e+01
  -8.837875e+01   1.029701e+01
  -1.656488e+01  -4.260318e+01
  -3.354279e+01  -5.949062e+01
  -6.941643e+01   4.005107e-01
  -7.863194e+01  -1.843075e+00
  -1.416098e+01  -6.646989e+01
   4.548654e+01  -1.296466e+02
   1.112077e+02  -1.380035e+02
   1.732220e+02  -4.330820e+00
   1.101609e+02   9.116568e+01
  -1.962347e+01   1.370919e+02
  -7.585583e+01   7.943060e+01
  -8.105857e+01   1.430667e+01
   7.622366e+00  -1.327109e+01
   1.296957e+02   4.609808e+01
   6.945838e+01   7.218135e+01
  -5.930469e+01   6.768618e+01
  -1.594733e+02   2.182971e+01
  -1.356948e+02  -7.966539e+01
  -4.852639e+01  -8.571204e+01
   3.772984e+01  -2.483936e+01
   2.703611e+01   2.120338e+01
  -6.963692e+01   5.972237e+01
  -1.047824e+02  -2.454874e+01
  -8.541125e+00  -8.143924e+01
   5.707924e+01  -1.213207e+02
   1.347347e+02  -5.394900e+01
   1.145628e+02   5.780449e+01
   1.856039e+01   1.543709e+02
  -8.602110e+01   1.300252e+02
  -7.069820e+01  -2.260389e+01
  -3.149856e+01  -8.882087e+01
   2.702770e+01  -8.612476e+01
   2.837198e+00  -1.596192e+01
   5.872853e+01   3.274214e+01
   2.080729e+01   1.456357e+01
  -2.488636e+01  -3.315944e+01
   2.238978e+01   1.891622e+01
   8.906629e+01   7.182885e+01
   2.988421e+01   9.736711e+01
  -2.154965e+01   4.078288e+01
  -1.203210e+02  -5.744960e+01
  -1.397117e+02  -4.650484e+01
  -1.050838e+01  -4.285307e+01
   7.577296e+01   3.159933e+01
   7.761940e+01   8.739037e+00
   1.145935e+01   1.088239e+00
  -2.464343e+01   2.131317e+01
  -1.858760e+00  -1.184173e+01
   6.209273e+01  -1.532809e+00
  -1.423651e+01  -2.743791e+01
  -5.421836e+01  -8.743437e+00
  -1.040734e+02  -2.824778e+01
  -8.523970e+00  -6.612617e+01
   7.186746e+01  -7.295477e+01
   1.988921e+02  -8.708907e+01
   1.167955e+02   3.864339e+01
   3.686758e+01   1.629358e+02
  -8.235771e+01   1.489832e+02
  -1.079164e+02   5.608365e+01
  -5.626036e+01  -2.340748e+01
  -3.369905e+01  -5.396223e+01
  -2.165873e+01  -2.881782e+01
   1.881660e+01   1.225617e+01
  -2.490348e+01  -2.827057e+01
  -1.326363e+01  -9.360518e+01
   6.219703e+00  -4.397093e+01
   7.725192e+01   1.889269e+01
   1.074689e+02   8.241537e+01
   5.551932e+01   1.485029e+02
  -8.212659e+01   4.154415e+01
  -8.225002e+01  -4.283784e+01
  -5.861762e+01  -9.483076e+01
   3.513190e+01  -1.009500e+02
   8.472614e+01  -3.945956e+00
   4.736317e+01   7.449199e+01
  -2.155450e+01   5.377051e+01
  -3.769996e+01   4.098531e+01
  -4.595368e+00  -3.277472e+00
   6.995184e+01   1.219004e+01
   5.479733e+01   2.927994e+01
  -6.961205e+01   8.933285e+01
  -9.390978e+01   1.033125e+02
  -5.969826e+01   5.331250e+01
   8.615963e+00  -7.061208e+01
   1.208461e+01  -1.325915e+02
   2.732070e+01  -1.734091e+01
  -6.819568e-01   7.260870e+01
  -1.889068e+01   8.024933e+01
  -4.919118e+01  -4.834666e+01
  -1.888171e+01  -7.991002e+01
  -4.824589e-01  -2.001060e+01
   3.575766e+01  -2.020702e+01
   4.574150e+01   4.424492e+01
   1.696959e+00   2.009037e+01
  -3.715305e+01  -2.847499e+01
  -6.859474e+00  -1.852523e+01
  -4.102403e+00   6.953260e+00
   2.381873e+01   1.340406e+01
  -2.102367e+01   2.256379e+01
  -2.349029e+01  -4.987392e+01
   1.332215e+01  -6.247691e+01
   7.503548e+00  -4.944929e+01
   2.260152e+01   1.652231e+01
   1.742352e+01   5.949908e+01
  -1.857524e+00   4.530827e+01
  -4.402482e+01  -4.634075e+01
  -6.383780e+01  -5.371483e+01
   2.048461e+01  -4.618314e+01
   4.756679e+01  -3.958141e+01
   2.598333e+01  -3.730883e+01
  -3.460275e+01   2.621142e+01
  -3.029289e+01   7.008419e+00
   4.186333e+01  -8.331396e+00
   7.074903e+01  -4.761603e+01
