
 $NMID
 id='ANONYMOUS ', fmtdat='(2E16.6)'
 volume=1.0
 tramp=1.0
 $END
  -3.713964e+03   1.951164e+02
  -2.413428e+03  -2.091586e+03
   5.412074e+02  -2.498339e+03
   1.573838e+03  -1.297690e+03
   1.070249e+03  -9.399595e+01
  -7.357057e+01   3.583944e+02
  -5.983735e+02  -1.471959e+02
  -8.067713e+01  -6.867200e+02
   5.996539e+02  -7.873039e+02
   8.144819e+02  -1.750139e+02
   4.645695e+02   5.294164e+02
   2.256766e+01   8.261710e+02
  -4.159953e+02   3.417947e+02
  -4.577479e+02  -4.774755e+02
   1.071621e+01  -5.673028e+02
   6.392469e+02   1.328432e+02
   4.164141e+02   4.428305e+02
  -2.263866e+02   7.028890e+02
  -2.630456e+02   3.525304e+02
  -5.569939e+02  -1.814064e+02
  -8.400409e+01  -4.574138e+02
   1.088581e+02  -1.708703e+02
  -5.457152e+00  -1.875155e+02
  -7.374170e+01  -1.235544e+02
  -3.350986e+02  -1.531345e+02
  -1.108929e+01  -3.030155e+02
   4.339090e+02  -2.321078e+02
   6.674305e+02   2.069710e+02
   3.598526e+02   4.570872e+02
  -3.583377e+02   1.883731e+02
  -6.405579e+02  -1.001343e+02
  -2.107739e+02  -4.035113e+02
   3.371381e+02  -4.765489e+02
   4.788411e+02  -1.064597e+02
   3.917254e+02   2.505631e+02
   1.591160e+02   2.988449e+02
  -9.360372e+01   7.747269e+01
  -8.492975e+01  -2.187053e+02
   2.223562e+02  -2.696412e+02
   3.354598e+02   1.921027e+02
   1.560977e+02   5.851247e+02
  -2.707140e+02   5.362671e+02
  -4.372391e+02  -7.072219e+01
  -1.003589e+02  -3.641599e+02
   2.027385e+02  -1.694290e+02
   3.079288e+02   2.614729e+02
  -1.179108e+02   4.973366e+02
  -5.097960e+02   1.546070e+02
  -5.502576e+02  -3.791771e+02
  -2.228651e+02  -5.591222e+02
   3.262322e+02  -3.402968e+02
   5.920574e+02   4.877795e+01
   3.284607e+02   3.167050e+02
  -1.067002e+02   2.623700e+02
  -2.873898e+02   4.303322e+01
  -2.253382e+02  -1.148218e+02
   5.284648e+01  -1.407257e+01
   1.074507e+02   1.122787e+02
  -1.023455e+02   8.543876e+01
  -2.322096e+02  -2.821777e+01
  -1.189363e+02  -2.079724e+02
   1.963206e+02  -2.031604e+02
   3.178028e+02  -9.165629e+01
   2.461063e+02   6.580675e+01
  -5.640250e+01   2.918512e+02
  -3.112340e+02   3.127183e+02
  -3.599359e+02   1.777968e+02
  -2.490379e+02  -1.127988e+02
  -1.804656e+01  -3.458153e+02
   2.276114e+01  -3.747705e+02
   1.499464e+01  -1.674039e+02
   3.314321e+01  -6.186480e+01
   1.865906e+02  -1.403194e+02
   3.108339e+02  -5.758886e+01
   2.608362e+02   1.290869e+02
   1.002331e+02   2.881132e+02
  -1.198047e+02   2.370604e+02
  -1.593895e+02   1.040743e+01
  -1.405715e+02  -1.833505e+02
   5.933468e+00  -2.946279e+02
   2.335455e+02  -6.630664e+01
   3.104753e+02   1.794224e+02
   1.960718e+02   3.012935e+02
  -6.599671e+01   2.936413e+02
  -1.812600e+02   1.859730e+02
  -1.462833e+02   7.734033e+01
  -1.526095e+02   5.257197e+01
  -2.597050e+02   1.882869e+01
  -4.252658e+02  -9.680281e+01
  -3.125857e+02  -3.041302e+02
  -5.911647e+00  -4.010586e+02
   3.581211e+02  -3.748310e+02
   4.114566e+02  -2.049479e+02
   2.678897e+02   9.521619e+01
   6.193448e+01   2.611770e+02
  -8.342865e+01   1.788448e+02
  -1.571083e+01  -3.783530e+01
   9.055514e+01  -7.595549e+01
   1.166966e+02   3.612278e+01
   3.481090e+01   1.139581e+02
  -9.876704e+01   1.159790e+02
  -8.112690e+01  -7.617302e+01
   2.181389e+01  -1.178061e+02
   1.686095e+02   8.208937e+00
   1.754131e+02   2.341922e+02
  -2.205216e+01   3.775977e+02
  -2.574840e+02   2.487535e+02
  -3.312474e+02  -5.147518e+01
  -3.195559e+02  -2.474118e+02
  -8.506444e+01  -2.708003e+02
   6.446130e+01  -1.514025e+02
   1.557484e+02   2.930712e+01
   5.748315e+01   4.255732e+01
  -3.736922e+01  -5.962990e+01
  -2.840302e+01  -1.303681e+02
   6.006260e+01  -4.784595e+01
   1.522961e+02   4.505317e+01
   7.410119e+01   5.984208e+01
  -7.126392e+01   4.244572e+01
  -4.888256e+01  -9.822275e+01
   1.220944e+02  -1.018250e+02
   2.973965e+02   1.737256e+01
   3.237540e+02   1.341923e+02
   4.751464e+01   2.490453e+02
  -1.909385e+02   2.538952e+02
  -3.086206e+02   1.577098e+02
  -1.945517e+02  -3.126109e+01
   3.814217e+01  -1.167054e+02
   7.613399e+01  -9.492143e+00
   3.241768e+01   1.150929e+02
  -1.132457e+02   6.108999e+01
  -1.646699e+02  -6.167325e+01
  -8.525787e+01  -1.561708e+02
   3.909316e+01  -1.191467e+02
   1.189955e+02  -4.159544e+01
   7.003790e+01   4.929614e+01
  -5.407516e+01  -1.912338e+01
  -5.994981e+01  -1.814099e+02
   7.862043e+01  -1.619974e+02
   2.485987e+02  -3.037024e+01
   2.219746e+02   1.180129e+02
   3.774519e+00   2.324975e+02
  -1.330209e+02   1.304162e+02
  -2.099734e+02   1.878338e+01
  -5.277208e+01  -1.058328e+02
   6.833093e+01  -1.857868e+02
   7.155884e+01  -7.148598e+00
  -2.953969e+01   2.371143e+01
  -6.256929e+01   2.014272e+01
  -2.123639e+01  -5.918329e+01
   3.208004e+01  -3.361906e+01
   1.080477e+02   5.934623e+01
   3.080007e+01   1.770421e+02
  -1.028861e+02   1.693854e+02
  -1.891512e+02   5.174586e+01
  -1.878530e+02  -1.685376e+02
  -8.327969e+01  -2.764452e+02
   9.176840e+01  -1.680593e+02
   1.328914e+02  -7.161053e+01
   8.793844e+01   3.534936e+01
   5.664103e+01   1.862889e+01
   3.527977e+01  -4.676134e+00
   6.394648e+01   1.475829e+01
   1.206764e+01   2.883651e+01
   4.460048e+00   1.013895e+02
  -1.068311e+02   3.083941e+01
  -7.944807e+01  -1.610231e+01
   7.694441e+00  -8.288416e+01
   1.254272e+02  -7.159458e+01
   2.219661e+02   8.391946e+01
   7.742403e+01   2.213485e+02
  -6.769966e+01   2.173795e+02
  -2.419527e+02   1.044102e+02
  -2.393386e+02  -8.662394e+01
  -9.742409e+01  -1.543457e+02
   4.061978e+01  -1.277178e+02
   4.458664e+01  -5.833540e+01
   1.261736e+02   1.701005e+01
   3.908881e+01  -7.955008e+01
   5.526110e+01  -7.850674e+01
   1.399411e+02   9.470265e+00
   9.859269e+01   9.412976e+01
   6.648351e+01   2.518931e+02
  -8.430631e+01   1.745857e+02
  -1.221693e+02   1.538359e+01
  -1.234368e+02  -8.965356e+01
  -1.525220e+01  -1.629045e+02
   9.423868e+01  -1.283882e+02
   5.005147e+01  -1.233003e+01
  -1.944727e+01   6.975146e+01
  -4.709342e+01   6.754810e+01
  -1.537894e+01   3.530192e+01
   5.640935e+01   3.771020e+01
   6.995856e+01   2.842028e+01
  -5.852570e+01   1.995180e+00
  -1.273626e+02  -6.193817e-01
  -1.397484e+02  -5.754472e+01
   3.862483e+01  -7.365617e+01
   1.492278e+02  -3.309381e+01
   1.532204e+02   2.331898e+01
   7.670299e+01   3.553320e+01
  -6.746910e+01   6.239529e+01
  -4.291917e+01  -1.558472e+01
   1.520459e+01  -5.555483e+01
   2.957258e+01  -5.309495e+01
   2.673121e+01   5.248449e+01
   2.662507e+01   6.363403e+01
  -1.676840e+00   2.633498e+01
   5.290301e+01  -1.260570e+01
   7.590849e+01  -1.590349e+01
   4.224468e+01   7.887368e+01
  -6.363840e+01   1.223028e+02
  -1.450014e+02   1.400557e+02
  -1.917083e+02   1.570796e+01
  -1.384041e+02  -8.835113e+01
   4.466411e+01  -1.646077e+02
   8.892523e+01  -7.899765e+01
   7.616383e+01   1.125212e+01
  -4.488916e+01   3.509220e+01
  -1.375666e+02  -3.233386e+01
  -9.199658e+01  -1.189980e+02
   1.275056e+02  -1.083706e+02
   2.094277e+02  -2.280910e+01
   1.807062e+02   5.570852e+01
   6.109726e+01   7.330898e+01
  -8.569562e+01   8.038961e+01
  -2.175181e+01   2.591521e+01
  -3.515584e+00  -8.652256e+00
   6.645839e+01   3.534274e+01
   2.647355e+01   1.045896e+02
  -8.099412e+01   1.520686e+02
  -1.712381e+02   8.779409e+01
  -1.148457e+02  -4.685776e+01
   9.986934e+00  -1.682652e+02
   2.097423e+01  -1.335214e+02
   8.198902e+01   9.073681e+00
   7.535288e+00   8.975724e+01
  -4.779230e+01   9.278783e+01
  -3.832470e+01   1.805267e+01
  -5.629392e+01  -3.872708e+01
   4.812450e+00  -2.819481e+01
   4.075797e+01  -4.377696e+01
   1.084979e+01  -4.330894e+01
  -1.409849e+01  -9.576149e+01
  -1.639744e+01  -6.856879e+01
   7.570184e+01  -2.418952e+01
   1.407225e+02   4.148025e+01
   1.427584e+02   6.356967e+01
   6.751892e+01   4.444400e+01
  -6.937944e+01   3.252530e+01
  -9.158924e+01  -6.891689e+00
  -3.476699e+01  -2.651423e+01
  -1.370898e+01  -1.224187e+01
   3.122138e+01  -2.138046e+01
   4.346891e-01   1.372391e+01
   5.358001e+01   3.110451e+01
   1.116773e+02  -1.161734e+01
   8.372153e+01   9.046188e+00
   2.435929e+01   8.398962e+01
  -1.151676e+02   1.061965e+02
  -2.031547e+02   7.542732e+01
  -1.804498e+02  -9.689763e+01
  -2.349927e+01  -1.873553e+02
   7.677019e+01  -1.431634e+02
   1.030647e+02  -5.589196e+01
   5.633676e+01   2.785891e+01
  -4.831209e+01   4.015740e+01
  -3.817517e+00   3.994647e+01
  -1.391521e+01   5.136187e+00
   2.570218e+01   5.725280e+01
   5.416619e+01   6.595055e+01
   7.754474e+00   5.825823e+01
  -6.609147e+01  -1.830372e+01
  -1.103952e+02  -9.623046e+01
  -3.233754e+01  -9.006912e+01
   1.047103e+02   8.230851e+00
   1.131897e+02   6.943732e+01
   2.902375e+01   1.195356e+02
  -5.899919e+01   7.149379e+01
  -1.081865e+02   3.157253e+01
  -7.917673e+01  -3.317387e+01
   1.837027e+01  -4.437242e+01
   1.407749e+00  -3.984137e+00
  -3.680117e+01   8.730823e+00
  -5.080096e+01  -3.335555e+00
  -2.672652e+01  -5.764881e+01
   4.764820e+01  -6.819237e+01
   1.035511e+02  -2.615136e+01
   5.546306e+01  -4.402793e+00
  -4.410067e+01   9.172617e+01
  -4.821324e+01   5.913842e+01
  -4.928118e+01   9.234049e+00
  -4.148312e+01  -3.863065e+01
   5.420099e+01  -3.925244e+01
   4.644112e+01   1.692783e+01
   1.078360e+01   8.572123e+01
   6.640877e+01   3.916430e+01
  -2.906930e+01  -2.261314e+01
   7.832910e+00   8.739145e+00
   8.535088e+00  -2.700684e+01
   2.039812e+01  -2.417071e+01
   3.466007e+01  -3.104796e+01
   4.659171e-01  -5.264851e+01
  -1.311180e+01  -4.565654e+01
   5.804805e+01   3.338383e+00
   3.295252e+01   5.117253e+01
  -1.645495e+01   3.334827e+01
  -5.185944e+01  -2.258678e+01
  -5.545384e+01  -6.661959e+01
   1.750067e+00  -5.275380e+01
   3.417512e+01  -4.384201e+01
   9.900462e+01  -1.459372e+00
   2.944260e+01   3.591469e+01
  -2.824905e+01  -1.115980e+00
  -9.153627e+01  -7.143869e+00
  -9.218442e+00   1.088704e+01
   3.270786e+01   2.882337e+00
   5.843054e+01  -1.953944e+01
   7.778565e+00   3.271162e+01
  -4.982937e+01  -3.219969e+01
