
 $NMID
 id='ANONYMOUS ', fmtdat='(2E16.6)'
 volume=1.0
 tramp=1.0
 $END
  -2.489377e+03  -2.535356e+02
  -1.769944e+03  -1.429626e+03
  -3.607528e+02  -1.861181e+03
   9.009708e+02  -1.189319e+03
   1.012542e+03  -2.304265e+02
   1.420714e+02   5.531149e+01
  -1.062594e+02   6.282084e+01
  -4.995170e+00  -4.512097e+02
   3.543747e+02  -4.835525e+02
   6.834173e+02   5.333826e+01
   3.800920e+02   5.064231e+02
   1.576557e+02   5.753585e+02
  -2.624063e+02   1.502916e+02
  -1.570984e+02  -4.383926e+02
   2.303248e+02  -4.021237e+02
   4.802806e+02  -1.246086e+02
   3.307215e+02   5.269691e+02
  -7.581866e+01   5.679783e+02
  -3.487637e+02   3.512599e+02
  -4.202109e+02   1.495874e+01
  -5.447032e+01  -1.604036e+02
   5.797601e+01  -1.554114e+02
   1.184143e+01   3.678800e+01
  -6.532902e+01  -1.579942e+02
  -7.872652e+01  -2.496079e+02
   7.643465e+01  -3.097422e+02
   5.396941e+02  -1.010645e+02
   5.106393e+02   2.185100e+02
   2.521494e+02   2.938170e+02
  -2.579166e+02   1.098037e+02
  -4.075834e+02  -1.286165e+02
  -1.072257e+02  -2.613303e+02
   2.465495e+02  -2.871907e+02
   3.678208e+02  -1.132134e+02
   2.918497e+02   2.262825e+02
   1.877047e+02   2.681403e+02
   8.459540e+01   1.294661e+02
   1.585288e+02  -5.459765e+01
   1.532234e+02  -4.130367e+01
   1.547414e+02   2.063006e+02
   2.809486e+01   3.493605e+02
  -1.559067e+02   2.575207e+02
  -1.596936e+02  -6.793815e+00
  -8.642475e+00  -1.448793e+02
   8.399855e+01  -3.312321e+00
   8.186538e+01   2.597031e+02
  -1.480737e+02   3.484856e+02
  -3.694602e+02   8.076803e+01
  -4.010118e+02  -2.490061e+02
  -1.876819e+02  -4.161446e+02
   1.594444e+02  -2.181756e+02
   3.372249e+02   5.688536e+00
   2.950707e+02   1.675022e+02
   2.609744e+01   1.658008e+02
  -1.691638e+02   9.099877e+01
  -2.107969e+02   3.368274e+01
  -9.742631e+01   6.388190e+01
  -2.279200e+01   6.847104e+01
  -1.070602e+02   2.821999e+01
  -1.670557e+02  -6.720170e+01
  -1.167803e+02  -1.936935e+02
   1.322942e+02  -1.880303e+02
   3.089640e+02  -7.112423e+01
   2.674989e+02   1.352963e+02
  -6.357365e+01   3.066818e+02
  -2.811294e+02   3.089768e+02
  -3.829758e+02   1.147300e+02
  -2.233827e+02  -1.627437e+02
  -8.445149e+01  -2.495231e+02
  -3.646672e+01  -2.754400e+02
  -2.101278e+01  -1.758153e+02
   2.745470e+01  -1.838890e+02
   1.634293e+02  -1.144983e+02
   2.645886e+02  -1.445672e+01
   2.516524e+02   1.355770e+02
   6.912094e+01   2.157231e+02
  -1.356665e+02   1.673876e+02
  -1.684850e+02  -5.352656e+01
  -1.002085e+02  -2.307155e+02
   7.893310e+01  -2.321297e+02
   2.452003e+02  -9.348449e+00
   2.698907e+02   1.878546e+02
   1.218053e+02   2.780833e+02
  -7.309326e+01   2.263059e+02
  -1.161397e+02   1.274926e+02
  -1.223575e+02   5.859426e+01
  -1.183624e+02   2.314525e+01
  -2.419018e+02   2.195666e-01
  -3.427235e+02  -1.539840e+02
  -2.524336e+02  -2.994157e+02
   4.724641e+01  -4.212696e+02
   3.578432e+02  -3.226804e+02
   4.003589e+02  -1.059939e+02
   2.320643e+02   1.068529e+02
   9.687080e+00   2.311450e+02
  -7.581673e+01   1.885036e+02
  -2.098039e+00   1.629214e+01
   1.212038e+02  -1.135252e+01
   8.574553e+01   2.475200e+01
   3.518592e+01   5.924029e+01
  -7.430849e+01   8.439934e+01
  -6.216857e+01  -4.257377e+01
   2.102230e+01  -9.734067e+01
   1.189914e+02  -6.266849e-01
   9.909656e+01   2.092783e+02
  -3.859324e+01   2.846616e+02
  -1.672782e+02   1.880465e+02
  -2.654823e+02  -6.933758e+01
  -2.354611e+02  -2.507128e+02
  -5.452380e+01  -2.470946e+02
   7.272647e+01  -1.235589e+02
   6.870058e+01  -4.913523e+01
   4.829798e+01  -1.553445e+01
  -1.009292e+01  -8.566465e+01
   3.491122e+01  -9.486632e+01
   1.188686e+02  -6.226705e+01
   1.313874e+02   4.202135e+01
   2.248580e+01   8.970148e+01
  -4.917692e+01   7.092327e+00
  -5.430295e+01  -9.816993e+01
   1.182191e+02  -1.149300e+02
   2.873605e+02   5.566956e+00
   2.359312e+02   1.147847e+02
   6.746309e+01   2.410427e+02
  -1.397155e+02   2.010699e+02
  -2.324249e+02   6.919051e+01
  -1.077485e+02  -3.272229e+01
  -1.484562e+01  -3.155777e+01
   2.822074e+01   1.887816e+01
  -2.051066e+01   8.707878e+01
  -1.520887e+02   9.979859e+00
  -1.403647e+02  -9.690211e+01
  -4.189433e+01  -1.608666e+02
   8.981619e+01  -1.460706e+02
   9.368047e+01   7.921783e+00
   5.777584e+01   2.958608e+01
  -3.307020e+01  -1.513072e+01
  -1.986572e+01  -1.017965e+02
   1.057159e+02  -1.070029e+02
   2.060975e+02  -3.796928e+01
   1.939771e+02   1.048199e+02
   3.589168e+00   1.374289e+02
  -1.521854e+02   1.073525e+02
  -1.208725e+02   6.122047e+01
  -2.696288e+01  -6.059827e+01
   5.071392e+01  -6.766467e+01
   6.905308e+01   1.772913e+01
  -2.236518e+01   2.362046e+01
  -1.206885e+01   4.735337e+00
   2.561975e+00  -4.274276e+01
   7.196573e+01   6.551120e+00
   8.395456e+01   1.097904e+02
   4.039328e+00   1.700531e+02
  -1.318596e+02   1.685863e+02
  -1.963988e+02   8.451513e-01
  -1.390976e+02  -1.533747e+02
  -3.320729e+01  -2.141857e+02
   8.531045e+01  -1.255703e+02
   9.000894e+01  -3.513381e+01
   6.727881e+01   4.018415e+01
   4.837097e+01   4.184834e+00
   1.064006e+02  -2.448422e+01
   6.526047e+01   6.345662e+00
   4.676264e+01   5.478146e+01
  -7.004383e+01   1.027480e+02
  -1.543255e+02   2.308525e+01
  -1.022612e+02  -8.665312e+01
   2.738606e+01  -1.459820e+02
   1.678771e+02  -8.064825e+01
   2.235551e+02   4.675270e+01
   7.920168e+01   2.157857e+02
  -1.077949e+02   1.811533e+02
  -2.162500e+02   4.312082e+01
  -2.110358e+02  -2.421680e+01
  -4.774103e+01  -1.060514e+02
   5.248974e+01  -1.136788e+02
   6.022068e+01  -7.064456e+01
   3.420959e+01  -4.358949e+01
   4.018991e+01  -9.390914e+01
   1.223865e+02  -7.701951e+01
   1.650243e+02   9.224927e+00
   9.137800e+01   1.252737e+02
  -2.952155e+01   2.435166e+02
  -1.158752e+02   1.862173e+02
  -1.611870e+02  -3.338884e+01
  -1.263837e+02  -1.595297e+02
   4.183743e+00  -1.655451e+02
   7.811284e+01  -5.797300e+01
   1.005230e+02   1.941589e+01
   1.536817e+01   5.560574e+01
  -2.672949e+01   1.202651e+01
   4.142909e+01   3.211344e+01
   7.130384e+01   4.992576e+01
   3.281748e+01   8.601564e+01
  -1.163629e+02   6.197205e+01
  -1.822075e+02  -4.424927e+01
  -1.272628e+02  -1.109253e+02
   3.307047e+01  -1.329021e+02
   1.426560e+02  -3.711818e+01
   1.873569e+02   1.998195e+01
   5.177463e+01   8.989268e+01
  -9.949386e+01   7.662688e+01
  -9.733803e+01  -1.791162e+01
  -1.919517e+01  -5.715675e+01
   3.413293e+01  -8.382557e+01
   7.739171e+01   1.694489e+01
   3.445551e+01   6.475483e+01
   2.184145e+01   4.238038e+01
   5.558291e+01   1.017715e+01
   8.049137e+01  -1.080661e+01
   6.297200e+01   9.150851e+01
  -3.115420e+01   1.355529e+02
  -1.153531e+02   1.264965e+02
  -1.602469e+02   2.894210e+01
  -1.197575e+02  -1.148080e+02
  -7.710202e+00  -1.312891e+02
   8.965973e+01  -5.265808e+01
   1.124383e+02   1.642002e+01
  -2.582622e+01   2.071090e+01
  -1.055211e+02  -4.239493e+01
  -8.087163e+01  -9.249879e+01
   7.276068e+01  -1.037262e+02
   1.611498e+02  -3.741687e+01
   1.220893e+02   5.323810e+01
  -1.189309e+01   1.247685e+02
  -5.671530e+01   6.316545e+01
  -1.353382e+01  -2.210780e+01
   4.249172e+01  -3.962240e+01
   9.504661e+01  -4.931686e+00
   3.550195e+01   1.432722e+02
  -8.209447e+01   1.744694e+02
  -1.423474e+02   4.456289e+01
  -1.186115e+02  -8.646003e+01
   4.278805e+00  -1.699616e+02
   9.694885e+01  -1.271698e+02
   1.104978e+02   2.878441e+01
   8.528240e+01   1.080700e+02
  -1.953329e+01   1.261723e+02
  -3.481585e+01   4.379405e+01
  -3.819820e+01   4.514769e-01
  -2.679234e+01   4.609272e+01
   1.173510e+01   6.994199e+01
  -9.293496e+01  -2.287260e+00
  -6.340928e+01  -1.125360e+02
  -6.718312e+01  -1.244471e+02
   6.296065e+01  -9.235149e+01
   1.265343e+02   2.304103e+01
   1.044681e+02   8.798923e+01
  -2.938773e+01   6.950353e+01
  -1.261268e+02   2.733417e+01
  -8.271220e+01  -2.725563e+00
  -9.254293e+00  -4.696643e+01
  -5.614402e+00  -3.142737e+01
   3.251391e+00   2.195139e+01
  -3.332655e+01  -4.778470e+01
   2.928917e+01  -4.058514e+01
   9.843086e+01  -5.713546e+00
   8.644416e+01   4.342937e+01
   3.133965e+01   1.228334e+02
  -9.830667e+01   1.239196e+02
  -1.864355e+02   8.582762e+01
  -1.309195e+02  -6.897631e+01
  -3.158613e+01  -7.100281e+01
   1.021944e+02  -1.245044e+02
   1.410616e+02  -3.744408e+01
   6.674630e+01   1.793865e+01
   2.375720e+01   2.492825e+01
  -7.186006e+00   5.337501e+01
  -3.936161e+01   2.487964e+01
   3.108921e+01   4.981329e+01
   1.260632e+01   1.002940e+02
  -8.098842e+01   5.146662e+01
  -7.720792e+01  -7.691190e+00
  -1.117315e+02  -7.417602e+01
  -3.475373e+01  -1.262777e+02
   6.799239e+01  -4.541102e+01
   1.124780e+02   2.864283e+01
   9.312792e+00   1.147275e+02
  -6.275644e+01   8.408141e+01
  -8.935405e+01   2.932148e+01
  -7.978598e+01  -2.997196e+01
   6.204924e+00  -1.116305e+02
   5.278973e+01  -5.102394e+01
  -1.561963e+01  -1.133801e+01
  -2.268986e+01   3.131574e+00
   1.347192e+01  -5.334415e+01
   4.266165e+01  -6.935803e+01
   8.117845e+01  -5.956593e+01
   3.389700e+01   6.044177e+01
  -1.449493e+01   5.502498e+01
  -6.210144e+01   9.337899e+01
  -1.027963e+02   1.922274e+01
   1.366071e+01   9.208129e+00
   1.079671e+01  -6.592855e+01
   4.727795e+01  -1.994736e+01
   1.620702e+01   5.958281e+01
  -2.552994e+01   2.259255e+01
  -6.259025e+01  -9.476879e+00
  -1.853344e+01  -4.760201e+01
   1.819806e+01  -1.365034e+01
   7.785514e+00   5.096498e+00
   8.279393e+00   1.636526e+01
  -1.237263e+01  -2.099298e+01
   6.892359e+00  -3.564401e+01
   4.235196e+01  -3.926850e+00
   8.620449e+01   3.220411e+00
   1.724938e+01   3.643168e+01
  -1.810654e+01  -1.040976e+01
  -5.178748e+01  -7.421702e+00
  -7.494129e+00  -3.102602e+01
   6.726948e+01  -6.721419e+01
   1.083306e+02  -2.530663e+00
   4.677484e+01   4.469211e+01
  -4.664806e+01   3.014460e+01
  -5.149072e+01   3.980720e+01
  -2.077303e+01  -5.067696e+00
   3.995838e+01   1.510188e+01
   4.652034e+01   3.016295e+01
  -6.053763e+00   3.529097e+01
  -1.146074e+02   2.467083e+01
