
 $NMID
 id='ANONYMOUS ', fmtdat='(2E16.6)'
 volume=1.0
 tramp=1.0
 $END
   1.713503e+03   7.015189e+01
   1.256522e+03   1.128447e+03
   5.679666e+01   1.342479e+03
  -7.878890e+02   7.124656e+02
  -7.075098e+02  -2.103330e+01
   1.617934e+02  -1.558054e+02
   2.501316e+02   1.973363e+02
  -9.060017e+01   2.785963e+02
  -4.178478e+02   1.546469e+02
  -3.549320e+02  -1.406471e+02
  -1.327994e+02  -2.914293e+02
  -7.289373e+01  -3.279134e+02
   1.618938e+02  -1.545440e+02
   4.663863e+01   2.581717e+02
  -1.515816e+02   2.515386e+02
  -2.911337e+02   7.837857e+01
  -3.320359e+02  -2.724548e+02
   5.684968e+01  -4.156548e+02
   3.345473e+02  -1.514645e+02
   2.541953e+02   1.162327e+02
   1.026237e+02   8.669232e+01
  -1.799588e+02   2.058271e+02
   5.568223e+01   1.462600e+02
   1.362459e+02   1.572852e+02
   2.474375e+02   1.889882e+02
   1.298949e+02   1.353878e+02
  -2.042692e+02   7.626507e+01
  -2.143174e+02  -1.170881e+02
  -2.290626e+01  -2.954105e+02
   2.788450e+02  -1.899548e+02
   3.099647e+02   3.077192e+00
   1.253087e+02   2.461652e+02
  -1.147864e+02   2.520951e+02
  -2.042221e+02   1.175916e+02
  -1.436271e+02  -3.296782e+01
  -2.452686e+01  -1.445490e+02
   1.235919e+02  -1.227134e+02
   7.631118e+01   6.511148e+01
   3.578227e+01   1.268621e+02
  -7.473075e+01  -3.976309e+01
  -3.315805e+01  -2.466490e+02
   1.440664e+02  -2.354993e+02
   1.398840e+02  -5.855990e+01
   7.650065e+01   1.267714e+02
  -8.906620e+01   6.684275e+01
  -7.015893e+01  -1.169912e+02
   4.177226e+01  -1.464995e+02
   1.753248e+02   1.872284e+01
   2.016945e+02   1.566812e+02
   3.498943e+01   2.520942e+02
  -1.603701e+02   1.650219e+02
  -2.700856e+02  -2.055230e+00
  -2.052737e+02  -1.204283e+02
   4.188764e+00  -1.411342e+02
   1.409499e+02  -6.184742e+01
   1.168655e+02   4.431737e+01
  -3.885481e-01   3.949591e+01
  -5.027978e+00  -1.875940e+00
   8.198599e+01  -4.265244e+01
   9.656660e+01   1.147862e+01
   4.627378e+01   1.236435e+02
  -1.352254e+02   1.248861e+02
  -2.188819e+02   5.276168e+01
  -8.580861e+01  -8.130241e+01
   4.756594e+01  -1.756231e+02
   1.330126e+02  -1.522704e+02
   1.742518e+02  -9.248593e+01
   9.620629e+01   2.024425e+01
   4.254204e+01   1.343638e+02
   2.775403e+01   1.629140e+02
  -1.396735e+01   1.326031e+02
  -5.256305e+01   7.049547e+01
  -8.262923e+01   2.018668e+01
  -1.326966e+02  -3.765582e+01
  -9.544254e+01  -1.045145e+02
  -5.985729e+01  -9.781983e+01
   2.397605e+01  -7.254009e+01
   7.544611e+01  -1.689976e+01
   8.882298e+01   8.538649e+01
  -2.013997e+01   9.450700e+01
  -1.074436e+02   3.019403e+01
  -1.169413e+02  -4.980493e+01
  -6.339813e+01  -9.292030e+01
   5.410024e+01  -9.920703e+01
   6.898596e+01  -6.749599e+01
   6.053904e+01  -4.620166e+01
   7.728803e+01  -5.850818e+01
   1.056251e+02   3.512479e+01
   2.106851e+02   8.711519e+01
   1.312176e+02   1.371087e+02
  -2.979005e+01   2.011387e+02
  -2.149992e+02   1.648948e+02
  -2.418586e+02   3.091663e+01
  -1.687068e+02  -5.311399e+01
   2.199419e-01  -1.370437e+02
   3.600213e+01  -1.142617e+02
   5.203507e+01  -8.134550e+00
  -3.460809e+01   1.562935e+01
  -6.655765e+01   2.246101e+01
   1.307865e+01  -4.574256e+00
   3.340636e+01  -3.462082e+01
   5.399992e+01   2.728620e+01
  -2.768566e+01   6.409422e+01
  -5.848866e+01  -9.680841e+00
  -7.416281e+01  -9.528186e+01
  -8.685458e+00  -1.339022e+02
   1.388561e+02  -8.428284e+01
   2.213318e+02   7.269632e+00
   1.508913e+02   1.022423e+02
   1.830341e+01   1.066901e+02
  -3.542636e+01   5.747740e+01
  -5.071068e+01   1.298316e+01
  -1.091101e+01   2.838580e+01
   1.512496e+01   5.598742e+01
   5.773545e+00   8.950919e+01
  -1.076540e+02   2.626810e+01
  -6.357089e+01  -1.455130e+01
  -5.837637e+01  -3.474211e+01
   6.843741e+01   4.570145e+01
   4.499610e-01   4.567549e+01
  -1.225152e+02   3.656577e+01
  -1.520085e+02  -8.659410e+00
  -1.015930e+02  -7.148899e+01
   1.341915e+01  -1.228156e+02
   1.185579e+02  -1.021253e+02
   1.366309e+02  -4.540955e+01
   6.390497e+01   1.366946e+01
  -3.355684e+01   1.787254e+01
  -1.529324e+01   2.354261e+01
   4.384178e+01   1.116873e+01
   1.187759e+02  -3.150501e+01
   6.507270e+01   5.263148e+01
   2.174100e+01   7.805338e+01
  -5.187834e+01   3.878944e+01
  -5.852750e+01  -2.059764e+01
  -3.582471e+00  -1.833214e+01
   2.253700e+01   1.575594e+01
  -5.647695e+00   5.200134e+01
  -2.518200e+01   4.120969e+01
  -5.787211e+01   5.546310e+00
  -7.361601e+01  -3.794474e+01
   1.706091e+01  -5.730194e+01
   2.842622e+01  -9.962412e+01
   5.968068e+01  -3.746614e+01
  -1.020878e+01  -2.368124e+00
  -5.074577e+01  -1.433771e+00
  -1.657051e+01   5.051853e+01
  -5.559040e+01   2.747175e+01
   4.286948e+00  -1.705661e+01
  -4.746894e+01  -4.322897e+01
  -5.898561e+01   1.554893e+01
  -5.141045e+01  -9.196356e+01
   3.358607e+01  -1.058726e+02
   8.358439e+01  -7.422627e+01
   1.274192e+02   1.847736e+01
   6.052449e+01   9.017372e+01
  -1.513892e+01   1.130122e+02
  -8.405881e+01   4.977399e+01
  -4.179480e+01  -2.099916e+00
  -3.329938e+01  -1.090948e+01
  -1.954582e+01  -6.542156e+00
  -3.693014e+01   5.718281e+01
  -2.865964e+01  -2.793305e-02
  -1.232490e+01  -2.831118e+01
   3.763035e+01  -7.423712e+01
   8.503133e+01  -3.100412e+01
   5.735712e+01   4.878689e+01
  -4.079296e+01   2.210494e+01
  -6.890434e+01   6.531586e+01
  -1.404784e+02  -5.706616e+01
  -6.128703e+01  -1.056053e+02
   5.002093e+01  -7.580318e+01
   7.635706e+01  -3.023353e+01
   1.463942e+02   3.721408e+01
   2.029926e+01   7.186295e+01
  -7.053993e+00   8.125798e+01
  -4.435757e+01   4.671493e+01
  -2.224545e+01   1.738443e+01
  -2.611030e+01   1.916370e+01
  -1.967471e+01   4.336430e+01
  -4.038349e+01   8.639688e+00
  -6.373100e+01  -3.788988e+01
  -2.565289e+01  -6.893477e+01
   5.023152e+01  -6.856078e+01
   9.663726e+01  -3.849013e+01
   6.102153e+01   2.805827e+01
   3.374353e+01   8.338764e+01
   1.821532e+01   3.404446e+01
  -2.856731e+01   1.504776e+01
  -3.789250e+01  -3.553352e+01
   2.434267e+01  -2.753315e+01
  -3.317729e+01   2.142349e+01
  -1.025538e+01   3.964305e+00
  -2.745128e+01  -5.449910e+00
  -9.346661e+00  -2.402956e+01
   7.932457e+01   1.435212e+01
   6.772459e+01   4.082990e+01
  -1.061037e+00   2.596528e+01
  -2.152047e+01   3.979604e+01
  -6.286316e+01   4.180791e+00
  -1.482798e+01  -5.027663e+01
   2.040067e+01  -9.614771e+00
   5.989525e+01   3.424427e+01
   2.216104e+01   2.696333e+01
  -6.927937e+01   5.266730e+01
  -5.471537e+01  -2.629818e+01
  -3.970540e+01  -2.875728e+01
  -1.647001e+01  -6.622707e+00
  -2.216513e+01   1.892627e+00
  -5.563381e+01  -3.621206e+01
  -2.644049e+01  -1.921386e+01
   3.295011e+01  -3.053004e+01
   7.655114e+01  -7.777505e+01
   6.738204e+01   1.070742e+01
   4.008174e+01   4.094585e+01
  -7.589694e+00   3.635540e+01
  -4.295676e+01   8.733614e+01
  -1.578637e+01  -3.884306e+00
   6.486051e+01  -2.760449e+01
   6.633245e+01   5.935374e+00
   4.509070e+01   4.729685e+01
  -1.213859e+01   6.246678e+01
  -1.010821e+02  -1.243695e+01
  -9.412957e+01  -2.701274e+01
  -4.824849e+01  -5.799643e+01
   1.117282e+01  -1.704808e+01
  -8.740578e+00   2.845979e+01
  -4.615304e+01   2.312891e+01
  -3.957053e+01  -3.821905e+01
  -6.115359e+01  -8.673971e+01
   1.363173e+01  -6.332772e+01
   9.169756e+01  -7.523291e+01
   9.869991e+01   4.198000e+01
   3.312089e+01   1.367676e+02
  -1.523098e+01   7.300756e+01
  -3.174087e+01   4.185263e+01
  -2.658754e+01  -3.944962e+01
   7.213700e+00  -5.481196e+01
   2.615853e+01   4.734027e+00
   3.040179e+01   2.353215e+01
  -1.601904e+01   3.988563e+01
  -3.685914e+01   1.849553e+01
  -9.080027e+00   1.446506e+01
   3.354292e+01   4.344993e+01
   2.238980e+00   6.548799e+00
  -2.497255e+01   3.423260e+01
  -5.419736e+01  -1.882984e+01
  -3.982132e+01  -4.750980e+01
  -2.954794e+00  -4.221787e+01
   1.895033e+01  -3.513327e-02
   6.198285e+01   2.372640e+01
  -3.338845e+00   3.155117e+01
  -4.822005e+01   9.278125e+00
  -2.655102e+01  -2.053943e+01
   1.964078e+01  -8.570375e+00
   1.523086e+01   4.743116e+00
  -4.920349e+01   9.608635e+00
  -2.827972e+01   7.426092e+00
   1.506284e+01  -7.555018e+01
   5.761339e+01  -3.608232e+01
   8.306021e+01   3.991280e+01
   1.046122e+01   2.597185e+01
   4.504931e+01   1.857941e+01
  -5.005912e+01   2.958152e+01
  -4.267487e+01   4.586994e+01
   5.922608e+00  -1.529642e+01
  -1.425353e+01   7.338145e+00
   2.404660e+01  -4.386171e+01
   2.268217e+01   3.060631e+01
  -1.611313e+01  -4.979679e+01
   8.544349e+00  -1.284205e+01
  -1.536756e+00  -2.816481e+01
   8.378532e+01  -2.835465e+01
   3.596875e+01   5.866415e+01
  -1.829474e+01   8.160396e+01
  -1.944727e+01  -4.879496e+00
  -3.889195e+01  -4.208463e+01
  -1.461880e+01  -6.200860e+01
   7.745077e+00  -5.079620e+01
   4.475906e+01  -3.044483e+00
   1.226198e+01   2.542325e+01
  -4.097549e+01   6.985806e+01
  -2.076966e+01   2.512617e+01
   1.530477e+01   2.788376e+01
  -3.147047e+00   7.382338e+00
   2.146930e+01  -7.109467e+00
  -3.744806e+01   4.424116e+01
  -1.171006e+01  -2.185192e+01
  -5.434310e+01  -1.593567e+01
   7.826478e+00  -4.507060e+01
   4.844436e+01  -2.050271e+01
   2.216587e+01   1.917854e+01
   1.510094e+01  -3.582146e+01
   1.023262e+01   2.755267e+01
  -3.635885e+01  -3.075523e+01
  -4.344515e+00  -4.412086e+01
   1.914161e+01  -1.162395e+00
   2.720496e+01   3.661952e+00
   6.430361e+00   2.071774e+00
   1.234270e+01   2.345938e+01
   2.594052e+01  -2.507093e+00
  -5.542657e+00  -1.614515e+01
  -1.220255e+01   1.240022e+01
  -6.744228e+00   2.513042e+01
   1.294189e+01   2.807240e+01
  -1.478405e+01  -2.124010e+01
   3.573615e+01  -2.140282e+01
   4.884376e+00  -4.203908e+00
   1.614122e+00   2.583279e+01
  -1.505607e+01   2.138881e+01
  -4.977425e+01   1.236905e+01
  -3.804330e+01  -3.137680e-01
  -3.374414e+01  -4.698662e+01
   3.326656e+01  -6.375577e+00
   3.623634e+01   2.675037e+01
   9.086381e+00   1.675572e+01
   3.099658e+01   1.928855e+01
   2.552659e-01  -1.823874e+01
   1.102672e+01  -1.107143e+01
   3.121612e+01  -3.777772e+01
