
 $NMID
 id='ANONYMOUS ', fmtdat='(2E16.6)'
 volume=1.0
 tramp=1.0
 $END
  -2.369314e+03   3.190472e+02
  -1.653061e+03  -1.414788e+03
   5.278052e+01  -1.626940e+03
   1.226419e+03  -7.567336e+02
   7.556072e+02  -8.668190e+01
   8.985637e+01   3.222232e+02
  -3.155295e+02  -1.060099e+02
  -9.220007e+00  -3.909903e+02
   4.531604e+02  -5.307479e+02
   4.909371e+02  -5.063838e+01
   3.449626e+02   4.207157e+02
   8.760997e+01   4.990726e+02
  -1.636925e+02   1.591433e+02
  -3.867906e+02  -3.534118e+02
   9.459136e+01  -4.808834e+02
   3.233947e+02  -6.871379e+01
   2.467328e+02   3.123679e+02
  -1.041744e+02   4.538734e+02
  -3.902998e+02   3.912106e+02
  -3.068305e+02  -2.254547e+02
   2.695606e+00  -2.820923e+02
  -1.542804e+02  -2.068517e+02
  -1.216897e+02   1.866927e+01
  -2.450713e+02  -1.760182e+02
  -2.198873e+02  -4.886258e+01
  -8.845870e+00  -4.090542e+02
   2.399186e+02  -5.297151e+01
   4.149263e+02  -3.833842e+01
   3.149910e+02   3.085550e+02
  -2.176263e+02   1.372698e+02
  -4.478958e+02  -9.357637e+01
  -2.146562e+02  -1.531723e+02
   1.748990e+02  -3.561584e+02
   2.863406e+02  -8.843107e+01
   2.368768e+02   1.639073e+02
   8.337298e+01   2.863198e+02
  -1.001655e+02   2.151351e+02
  -1.915225e+01  -1.898958e+02
   1.600267e+02  -1.766992e+02
   2.111865e+02   1.554550e+01
   2.522988e+01   4.799305e+02
  -2.466639e+02   4.472655e+02
  -3.841558e+02   3.067923e+01
  -1.335133e+02  -3.012531e+02
   1.348659e+02  -1.880054e+02
   2.177914e+02   2.091101e+02
  -4.060632e+01   3.293657e+02
  -3.722728e+02   1.144053e+02
  -4.698030e+02  -2.675995e+02
  -1.555464e+02  -3.674856e+02
   2.781571e+02  -2.336453e+02
   5.051989e+02   5.615210e+01
   3.248352e+02   2.577377e+02
  -7.347585e+01   2.209657e+02
  -3.562549e+02   5.121850e+01
  -2.305014e+02  -8.662967e+01
  -2.476435e+01  -6.606263e+01
   4.526651e+01   5.598188e-01
  -9.099578e+01   5.987617e+01
  -1.456379e+02  -2.307019e+01
  -8.934708e+01  -1.411946e+02
   1.183960e+02  -2.073999e+02
   2.346767e+02  -1.459539e+02
   2.070187e+02   3.409714e+01
   4.705698e+01   2.565709e+02
  -1.565408e+02   3.143091e+02
  -2.874767e+02   1.392763e+02
  -2.548590e+02  -1.668507e+02
  -5.954474e+01  -2.978421e+02
   7.998918e+01  -2.117127e+02
   4.493729e+01  -8.504839e+01
  -4.747316e+00  -5.031706e+01
   6.313708e+01  -1.034493e+02
   1.953591e+02  -8.211830e+01
   2.315327e+02   6.151659e+01
   8.430092e+01   2.211389e+02
  -8.114383e+01   1.713613e+02
  -1.723589e+02  -1.357210e+01
  -1.061694e+02  -2.033604e+02
   2.527119e+01  -2.352848e+02
   1.948213e+02  -8.266412e+01
   2.638052e+02   1.474075e+02
   1.613910e+02   2.501346e+02
  -5.628748e+01   2.142021e+02
  -8.761219e+01   8.975970e+01
  -1.153924e+02   9.828201e+01
  -1.193225e+02   1.245181e+02
  -1.951564e+02   6.678035e+01
  -2.921915e+02  -1.770712e+01
  -2.891408e+02  -2.075201e+02
  -6.581547e+01  -3.262152e+02
   2.206282e+02  -3.717109e+02
   3.748846e+02  -1.711366e+02
   2.291492e+02   1.013799e+02
   4.262075e+00   1.953551e+02
  -7.400280e+01   1.389303e+02
  -2.452521e+01   3.943048e+01
   1.296563e+02  -3.629530e+01
   1.505977e+02  -9.186291e+00
   3.387290e+01   1.030898e+02
  -8.123438e+01   1.357446e+02
  -1.257085e+02   4.452178e+01
  -1.816278e+00  -9.265730e+01
   1.473427e+02  -3.971611e+01
   1.649753e+02   1.698422e+02
  -3.442823e+01   2.562746e+02
  -1.857530e+02   1.528987e+02
  -2.472494e+02  -5.779088e+01
  -2.550146e+02  -2.238178e+02
  -4.115010e+01  -2.508313e+02
   1.376388e+02  -1.264164e+02
   1.469375e+02   3.842112e+01
   7.207231e+01   6.761142e+01
  -4.721342e+01  -4.884955e+01
  -1.071172e+00  -8.386270e+01
   7.608871e+01  -3.126614e+01
   1.396477e+02  -1.151787e+01
   2.012446e+01   5.871254e+01
  -4.278632e+01  -1.926038e+01
   1.430752e+01  -6.696746e+01
   1.303823e+02  -6.755228e+01
   2.760567e+02  -2.889937e+01
   2.657094e+02   1.536996e+02
   5.150831e+01   2.218398e+02
  -1.287575e+02   2.662775e+02
  -2.279881e+02   1.507927e+02
  -1.525310e+02   3.074045e+01
  -5.774235e+01  -4.267815e+01
   2.178616e+01   8.597976e+00
  -5.325546e+01   7.511056e+01
  -1.691886e+02   2.847639e+01
  -1.653166e+02  -5.941708e+01
  -6.841717e+01  -1.872804e+02
   7.756645e+01  -1.002252e+02
   1.421343e+02  -5.139346e+00
   2.889073e+01   6.331465e+01
  -9.475920e+01   4.155001e+00
  -6.319463e+01  -1.004922e+02
   8.264984e+01  -8.463116e+01
   1.850845e+02  -3.483070e+01
   1.738750e+02   6.545444e+01
   2.090404e+01   1.709408e+02
  -1.204863e+02   1.259732e+02
  -1.698037e+02   3.358165e+01
  -3.118022e+01  -7.130564e+01
   3.794582e+01  -5.927015e+01
   8.951703e+01  -2.172461e+01
  -2.772927e+01   4.926411e+01
  -4.895608e+01   1.937587e+01
  -4.277636e+01  -6.220510e+00
   6.521047e+01  -5.366363e+01
   6.720358e+01   3.666982e+01
   3.649859e+01   1.028584e+02
  -1.187544e+02   1.542780e+02
  -1.712007e+02   9.711989e+01
  -1.571501e+02  -1.150596e+02
  -2.631469e+01  -1.896327e+02
   5.848126e+01  -1.423660e+02
   1.184495e+02  -5.407712e+01
   3.295393e+01   6.246070e+01
   3.048105e+01   3.823470e+01
   5.393352e+00   2.536378e+01
   4.881526e+01  -8.673279e+00
   1.117819e+02   1.480854e+01
  -1.280002e+01   8.545335e+01
  -7.382535e+01   6.152215e+01
  -1.623331e+02  -2.596485e+01
   8.646803e+00  -1.006517e+02
   1.376105e+02  -5.804899e+01
   2.097105e+02   7.419614e+01
   7.821266e+01   1.759750e+02
  -1.140586e+02   1.951284e+02
  -2.300533e+02   8.241074e+01
  -1.765058e+02  -5.857100e+01
  -6.050272e+01  -1.090232e+02
   5.483328e+01  -8.297786e+01
   6.073943e+01  -1.930590e+01
   5.107700e+01  -3.713017e+01
  -2.297912e+00  -8.358518e+01
   6.317971e+01  -6.355960e+01
   1.104500e+02   7.894989e-01
   1.380029e+02   1.416295e+02
  -1.821582e+01   2.213453e+02
  -1.247012e+02   1.701334e+02
  -1.464623e+02   2.326650e+01
  -1.450287e+02  -9.772766e+01
   2.224978e+01  -1.401741e+02
   7.570386e+00  -6.957129e+01
   5.842402e+01  -9.608631e+00
   5.385173e+00   3.118706e+01
  -3.210157e+01   3.776527e+01
   5.239968e+00   3.546593e+01
   5.340624e+01  -9.109736e+00
   6.168790e+01   4.225697e+01
  -1.868523e+01   2.745384e+01
  -1.609234e+02   6.323638e+01
  -1.100123e+02  -3.017841e+01
  -1.692015e+01  -7.372715e+01
   9.328355e+01  -1.060961e+02
   1.174425e+02   1.046561e+01
   5.820548e+01   6.636511e+01
  -3.906603e+01   4.836827e+01
  -7.092907e+01   2.538371e+01
  -2.609980e+01  -8.492259e+01
  -1.018250e+01  -6.906157e+01
   5.209764e+01  -3.618104e+00
   4.665424e+01   6.316005e+01
   2.624866e+01   2.496847e+01
   1.145452e+01   1.684696e+01
   5.854910e+01  -1.285035e+01
   1.338555e+01   6.282419e+01
  -2.999533e+01   1.353019e+02
  -1.009773e+02   1.380559e+02
  -1.678845e+02  -7.695304e+00
  -1.060720e+02  -7.994935e+01
  -3.013545e+01  -1.284776e+02
   4.480568e+01  -4.505029e+01
   7.490737e+01   1.042219e+01
  -5.073563e+01  -1.782760e+00
  -9.540120e+01  -3.946728e+01
  -6.306000e+01  -6.288826e+01
   5.627120e+01  -1.017095e+02
   1.835768e+02  -3.043143e+01
   1.200464e+02  -1.750281e+01
   2.528009e+01   6.435074e+01
  -2.463676e+01   6.253277e+01
  -3.093100e+01  -2.396448e+01
   3.192866e+01   2.938953e+01
   9.446562e+01   1.962698e+01
   2.311521e+00   9.178786e+01
  -9.715072e+01   1.407218e+02
  -1.437993e+02   7.210451e+01
  -1.217329e+02  -5.466276e+01
   4.820342e+00  -1.121854e+02
   6.955888e+01  -1.707324e+02
   1.412151e+02   1.031189e+01
   3.974299e+01   9.117432e+01
  -4.392795e+01   8.302890e+01
  -8.532209e+01   3.669975e+01
  -1.243723e+01  -5.110429e+01
   1.972913e+01  -3.367668e+01
   1.439129e+01   1.629629e+01
   5.158479e+00   3.395553e+00
  -5.373686e+01  -6.343426e+01
  -6.322407e+01  -1.531947e+02
   7.111534e+01  -9.310202e+00
   1.133230e+02   6.786756e+01
   7.356730e+01   8.626392e+01
  -1.364598e+01   6.043335e+01
  -1.096749e+02   1.116392e+01
  -1.035394e+02  -1.658807e+01
  -1.746854e+01  -6.673143e+01
   2.695778e+01  -3.334307e+01
   4.395910e+01  -2.551546e+00
  -1.753706e+01   1.147784e+01
   5.568058e+00   2.568846e+01
   5.236575e+01   1.248831e+01
   7.220124e+01  -1.931926e+01
   4.399948e+01   6.501589e+01
  -8.005348e+01   1.225480e+02
  -1.360642e+02   2.761724e+01
  -1.090818e+02  -4.180994e+00
  -2.622915e+01  -1.214256e+02
   5.605720e+01  -1.410231e+02
   9.031188e+01  -3.193399e+01
   5.184826e+01  -1.674661e+00
  -1.784920e+01   5.882352e+01
  -5.239446e+00   1.420258e+01
  -1.188458e+01   1.507672e+01
   3.017382e+01   8.986933e+01
   4.994788e+01   6.147666e+01
  -3.342761e+01   9.121291e+01
  -7.854193e+01   7.243138e+00
  -7.107253e+01  -1.190049e+02
  -1.928684e+01  -1.110069e+02
   8.009386e+01  -2.109078e+01
   1.093795e+02   5.192326e+01
  -5.350585e+00   6.717273e+01
  -8.542281e+01   8.250321e+01
  -9.261239e+01  -4.435501e+01
  -1.860967e+01  -8.160591e+01
   8.509897e+00  -6.243425e+01
  -3.920208e+00  -2.157071e+01
  -4.087297e+01  -1.083684e+01
  -3.008106e+01   1.544219e+01
   1.639902e+00  -3.607757e+01
   8.456808e+01  -5.226298e+01
   1.189253e+02  -4.323942e+01
   8.135361e+01   5.428318e+01
   7.173339e+00   1.055844e+02
  -5.814786e+01   9.718135e+01
  -1.274224e+01   2.811861e+01
  -1.937057e+01  -4.861904e+01
   5.018799e+01   8.908110e-01
   1.923032e+01   6.110411e+01
  -2.140926e+01   4.401875e+01
  -1.338659e+01   2.870670e+01
   1.266205e+01  -2.797158e+01
   7.631703e+00  -3.096673e+00
  -6.342842e+00   1.478758e+01
  -1.652060e+01   5.452529e+01
   2.213437e+01  -1.651539e+01
  -3.904133e+01  -4.259497e+01
   3.306840e+00  -5.802465e+01
   2.502259e+01  -6.466387e+00
   6.953123e+01   3.139860e+01
   2.013572e+01   5.049128e+01
  -1.718099e+01   1.295345e+01
  -4.428738e+01  -3.995692e+01
  -1.265959e+01  -8.851230e+01
   4.631253e+01  -2.495031e+01
   1.283650e+02   3.978610e+01
   6.352105e+01   1.592017e+01
  -1.425142e+01   3.006775e+01
  -7.668608e+00   2.216224e+01
  -2.979286e+01   2.665248e+01
   3.563386e+01  -3.458033e+01
   2.171892e+01   1.479785e+01
  -6.258544e+00  -8.283563e+00
  -4.081240e+01   5.098802e+01
