
 $NMID
 id='ANONYMOUS ', fmtdat='(2E16.6)'
 volume=1.0
 tramp=1.0
 $END
   2.169397e+03   1.636204e+02
   1.291153e+03   1.406018e+03
  -4.001092e+02   1.542203e+03
  -1.074993e+03   5.484941e+02
  -5.247823e+02  -2.587644e+02
   3.144328e+02  -5.615368e+01
   4.596501e+02   1.299414e+02
   7.172419e+01   5.121824e+02
  -3.318231e+02   3.828229e+02
  -3.449456e+02   4.764160e+01
  -3.262527e+02  -3.283136e+02
  -3.040903e+01  -6.057201e+02
   3.126605e+02  -2.301096e+02
   3.017724e+02   2.457132e+02
   9.665001e+00   1.860025e+02
  -4.708427e+02   1.311278e+02
  -1.860384e+02  -2.727404e+02
   8.504622e+01  -3.627641e+02
   2.192530e+02  -2.381979e+02
   2.880678e+02   5.547060e+01
  -2.824150e+00   6.605369e+01
  -5.906001e+01   2.536903e+02
  -2.215249e+02   8.829868e+01
   1.343894e+02   7.780470e+01
   2.046310e+02   2.233701e+01
   2.108996e+02   2.667359e+02
  -8.204449e+01   3.976743e+02
  -4.648634e+02  -1.014837e-01
  -2.457216e+02  -8.874465e+01
   1.208775e+02  -1.930800e+02
   2.909671e+02   5.854506e+01
   2.081307e+02   2.881910e+02
  -5.588159e+01   2.051009e+02
  -2.347963e+02   6.674693e+01
  -1.995808e+02  -6.900328e+01
  -1.138348e+01  -2.401566e+02
   8.368744e+01  -1.322306e+02
   1.681477e+02   1.621417e+01
  -2.744912e+01   2.002968e+02
  -2.106770e+02   1.729579e+01
  -1.321962e+02  -3.522669e+02
   9.508327e+01  -3.641064e+02
   2.867681e+02  -6.070296e+01
   8.466066e+01   3.242971e+02
  -1.731017e+02   1.762609e+02
  -2.276491e+02  -2.130851e+02
  -1.139515e+01  -3.384197e+02
   2.414440e+02  -1.497441e+02
   2.744833e+02   1.809382e+02
   1.414719e+02   2.915430e+02
  -1.054912e+02   1.877096e+02
  -2.914066e+02   9.765608e-01
  -1.981563e+02  -1.431242e+02
   5.822614e+01  -1.748400e+02
   2.607127e+02  -6.804672e+01
   1.450866e+02   6.044506e+01
  -5.011880e+01   7.746636e+01
  -1.219801e+02  -3.908116e+01
   6.465886e+01  -1.190933e+02
   1.886346e+02  -9.316725e+00
   1.120039e+02   1.184918e+02
  -9.748414e+01   1.872247e+02
  -1.805324e+02   8.323387e+01
  -1.344901e+02  -5.975515e+01
  -6.879367e+01  -1.487948e+02
   8.050672e+01  -1.981772e+02
   1.957676e+02  -9.472709e+01
   1.750559e+02   5.739014e+01
   5.391073e+01   1.712995e+02
  -8.150584e+01   1.422437e+02
  -6.662595e+01   1.070434e+01
  -3.543253e+00  -1.991727e+01
   1.497261e+01   6.624864e+01
  -1.110217e+02   4.933433e+01
  -1.438205e+02   1.321098e+01
  -7.208310e+01  -1.317109e+02
   5.886372e+01  -1.303824e+02
   7.594696e+01   1.543559e+01
   5.915568e+01   6.363740e+01
  -2.713441e+01   1.353565e+02
  -7.072808e+01   4.050485e+01
  -9.340441e+01  -8.750402e+01
  -8.952406e+01  -1.815305e+02
   4.271988e+01  -1.854877e+02
   1.320854e+02  -4.189445e+01
   7.042881e+01  -7.184524e+00
   2.715857e+01  -2.383581e+01
   1.201646e+02  -9.023021e+01
   2.067657e+02  -1.833336e+01
   2.034966e+02   1.697528e+02
   5.859758e+01   2.085020e+02
  -1.663397e+02   1.696370e+02
  -1.929256e+02   1.239375e+02
  -1.464411e+02  -2.031028e+01
  -5.259534e+01  -9.367736e+01
   8.253755e+01  -1.003462e+02
   1.677742e+01  -1.763586e+01
  -8.182553e+01   4.546445e+01
  -8.980834e+01  -3.315189e+01
  -2.298148e+01  -1.048550e+02
   9.073556e+01  -1.391336e+02
   8.671043e+01  -4.037244e+01
   1.037902e+01   1.034241e+02
  -7.859428e+01   3.621653e+01
  -4.343292e+01  -9.264470e+01
   6.929498e+01  -1.579372e+02
   1.283217e+02  -4.976483e+01
   1.690062e+02   8.882445e+01
   1.091758e+02   1.408650e+02
   8.957100e+00   1.690918e+02
  -6.288724e+01   1.207235e+02
  -1.143290e+02   3.162202e+01
  -8.823555e+01  -4.540811e-01
  -3.907005e+00   1.370457e+01
   1.508605e+01   5.183569e+01
  -5.468937e+01   3.556934e+01
  -7.189904e+01  -2.575971e+01
   2.569516e+00  -6.583395e+01
   6.896344e+01   1.859209e+01
  -9.123258e+00   3.214320e+01
  -1.545487e+01   5.837608e+01
  -1.525679e+02  -1.566471e+01
  -1.332621e+02  -1.630709e+01
  -3.667503e+01  -1.291597e+02
   7.874329e+01  -1.194382e+02
   1.484629e+02  -4.106241e+01
   5.721846e+01  -7.395940e+00
  -2.603222e+01   3.122755e+01
  -3.219350e+01   3.947558e+01
   2.754634e+01  -5.644914e+01
   9.349719e+01   9.391392e+00
   6.841369e+01   4.241135e+01
  -6.070950e+00   1.397891e+02
  -7.322007e+01   6.733694e+01
  -1.018551e+02  -9.016780e+00
  -5.072673e+01  -3.071113e+01
  -1.506484e+01  -1.771433e+01
  -3.815109e+00   4.398139e+01
  -3.080856e+01   3.087651e+01
  -8.558124e+01   1.001943e+01
  -5.633320e+01  -5.970792e+01
  -4.848137e+01  -1.112337e+02
   9.318039e+01  -8.972573e+01
   1.107546e+02  -3.620061e+00
   3.360604e+01   6.228407e+01
  -7.354607e+00   4.989577e+01
  -2.824652e+01  -5.112181e+00
  -1.726400e+01  -1.260171e+01
   2.252993e+01   4.088474e+01
  -2.200777e+01  -1.295822e+01
  -4.700360e+01  -1.074622e+01
  -7.572030e+01  -3.256328e+01
   2.395350e+01  -7.307811e+01
   9.876209e+01  -9.486401e+01
   1.362515e+02  -4.755047e+01
   8.803751e+01   1.030088e+02
   4.030766e+01   1.375900e+02
  -4.366274e+01   6.949138e+01
  -5.641893e+01   3.684650e+01
  -1.149647e+01  -1.841401e+01
  -3.777088e+01  -4.174689e+01
  -3.274838e+00   4.072495e+01
  -5.386432e+01   2.659206e+01
  -3.893917e+01  -6.930917e+01
  -5.458698e+00  -6.257062e+01
   6.481485e+01  -6.967981e+01
   7.293775e+01  -4.618115e+00
   3.522266e+01   1.307943e+02
  -8.865650e+01   5.526455e+01
  -1.119691e+02  -1.595904e+01
  -3.348627e+01  -1.092515e+02
   5.094729e+01  -1.343567e+02
   1.204185e+02  -6.260766e+01
   1.187287e+02   3.834172e+01
   8.650688e+01   5.888934e+01
   3.291662e+01   5.456239e+01
  -1.181497e+01   5.455605e+01
  -3.875562e+01   2.352829e+01
  -3.481600e+01   4.591832e+01
  -2.879867e+01   5.987055e+01
  -1.126909e+02   5.906966e+01
  -5.496290e+01  -5.406961e+01
  -4.747360e+01  -1.523485e+02
   6.370940e+01  -1.595803e+02
   9.540580e+01  -3.162289e+01
   5.526699e+01   6.155087e+01
   3.964591e+01   1.009308e+02
   6.220277e+00   4.786914e+01
  -5.363298e+01  -1.723964e+00
   1.967487e+01   1.310653e+01
  -1.179146e+00   1.815388e+01
  -1.133426e+01  -2.801031e+01
  -7.413712e+01  -5.711415e+01
  -2.489452e+01  -5.823346e+01
   9.644966e+00  -2.101091e+01
   1.249769e+02   3.607407e+01
   8.308510e+01  -5.901675e+00
  -7.169148e+00   1.832784e+01
  -4.635229e+01  -8.813044e+00
  -7.696850e+01   4.046007e+01
  -2.065301e+01   6.804308e+00
   4.324385e+01  -7.720248e+00
   1.119381e+01   3.831063e+01
  -2.677072e+01   3.926133e+01
   1.213399e+01   2.229659e+01
  -5.229472e+01   3.140542e+00
   9.648101e+00  -3.325355e+01
  -2.795360e+01  -2.440252e+01
  -1.894632e+01  -2.284947e-01
  -9.248827e+00  -9.185487e+00
  -3.111374e+01   3.353933e+01
  -4.279127e+01  -6.002454e+01
   1.179983e+00  -8.289054e+01
   1.180779e+02  -2.566860e+01
   9.404428e+01   5.178176e+01
  -7.913930e+00   8.845767e+01
  -5.333867e+01   2.642858e+01
  -2.832530e+01  -5.864683e+01
   4.166817e+01   1.815311e+01
   1.093693e+02   7.742702e+01
   7.879289e+01   4.760882e+01
  -5.208709e+01   7.547732e+01
  -1.060520e+02  -8.340357e+00
  -6.714855e+01  -1.543717e+01
  -3.551319e+01  -7.299927e-01
   2.478550e+01  -2.947969e+01
   3.935949e+01  -2.246599e+01
  -3.201325e+01   7.215921e-01
  -6.986656e+01   1.687517e+01
   2.019291e+01  -1.996786e+01
   9.095463e+00  -4.397861e+01
   7.914171e+01  -2.217403e+01
   1.078796e+02   4.187592e+01
  -1.030174e+01   9.167068e+01
  -4.753973e+01   7.070922e+01
  -3.796892e+01   5.924448e+00
  -2.132236e+01  -2.681033e+01
   2.525567e+01  -3.434912e+01
   2.302985e+01   8.533767e+00
   2.709053e+01   3.443458e+01
  -3.554314e+01  -2.555903e+01
  -3.292860e+01  -2.800635e+01
   7.850092e+00  -2.068132e+01
   5.857221e+01   3.313919e+01
   1.466959e+01   6.107811e+01
  -3.055115e+01   1.786276e+01
  -5.627369e+01   1.136131e+01
  -8.679709e+00  -5.947175e+01
  -1.540631e+00  -3.457609e+01
   4.417624e+01  -5.391499e+00
   5.595825e+01   1.168127e+01
   1.750573e+01   5.352700e+01
  -1.044377e+01   1.880384e+01
  -1.353696e+01  -4.887996e+00
  -2.571732e+01   4.906393e-01
  -3.334889e+01  -1.092460e+01
  -3.981451e+01   3.083078e+01
  -2.314201e+01  -2.694664e+01
  -2.925223e+01  -6.016312e+01
   3.509195e+01  -1.168922e+01
   5.828574e+01  -5.120371e+01
   4.423524e+01   9.759569e-01
   6.808204e+00   1.056951e+02
   9.566157e-01   4.265377e+01
  -4.420690e+01   1.719382e+00
  -5.474138e+01  -3.812043e+01
  -1.548914e+01   5.133655e+00
   9.027092e+01  -9.125717e+00
   3.279222e+01   8.855766e+00
  -5.458131e+01   2.375834e+00
   2.351206e+01  -5.387161e+01
  -1.017230e+01  -1.999098e+01
   1.072014e+01   4.915728e+01
   7.013760e+01   3.989736e+01
  -3.752150e+01   4.887617e+01
  -4.441366e+01   2.411106e+01
   1.030807e-02  -3.143834e+01
  -6.862728e+00  -7.853553e+01
   1.957533e+01  -2.224850e+01
   5.238030e+01  -1.217755e+01
   5.237408e+01   6.845536e+01
  -2.174504e+01   2.533750e+01
   6.073895e+00   4.111502e+01
   2.172312e+01  -8.490084e+00
  -6.834309e+00  -1.625655e+01
  -3.437483e+01  -3.512173e+01
  -3.757078e+01   4.161764e+01
  -4.279715e+01   4.175739e+01
   2.338925e+01  -1.810421e+01
  -2.708744e+01  -4.704735e+01
   2.423509e+01  -6.154971e+01
   1.046493e+01  -4.316853e+01
   2.818281e+00   3.054086e+01
   3.572496e+01   1.364512e+01
   4.926693e+00  -4.733867e-01
  -3.044732e+01  -2.496364e+01
   9.654108e+00  -2.951247e+00
   2.567924e+01   7.082367e+00
   1.540466e+01   2.097646e+01
   1.331476e+01  -1.865135e+01
  -2.801832e+01  -1.719147e-01
  -9.992906e+00  -2.114340e+01
   1.229979e+01   7.937036e+00
   1.903761e+01   2.277332e+01
   3.100506e+01  -1.944583e+00
  -5.903891e+01  -3.885201e+01
  -2.667317e+00  -7.380361e+01
  -1.317746e+01   1.253881e+01
   1.313458e+01   6.466525e+00
   3.089637e+01   4.028665e+01
   5.024740e+00   7.070288e+00
  -1.334346e+01  -2.991285e+01
  -1.983747e+01  -4.204365e+01
   2.800412e+01  -2.824878e+01
   7.532884e+01  -2.464150e+01
  -1.843722e+01   3.051876e-01
  -5.171991e+01   1.325509e+01
  -1.756261e+01  -3.141804e+01
   1.263001e+01   2.819089e+01
   2.263736e+01  -6.174732e-01
