
 $NMID
 id='ANONYMOUS ', fmtdat='(2E16.6)'
 volume=1.0
 tramp=1.0
 $END
   2.339275e+03   3.956803e+01
   1.526061e+03   1.461765e+03
  -2.924110e+01   1.459131e+03
  -9.357089e+02   6.059285e+02
  -6.868842e+02   8.854492e+00
  -8.034713e+01  -2.478945e+02
   2.950863e+02   3.481003e+01
   1.776158e+02   4.791574e+02
  -2.708932e+02   5.016008e+02
  -3.636813e+02   1.281777e+02
  -2.175364e+02  -4.744494e+02
   1.815804e+02  -4.032573e+02
   4.069834e+02  -1.320618e+02
   4.017745e+02   2.914825e+02
   8.662680e+01   3.952564e+02
  -3.622928e+02  -4.950106e+01
  -2.896219e+02  -5.129716e+02
   1.967978e+01  -5.426307e+02
   2.064575e+02  -1.453183e+02
   2.873114e+02   3.820491e+01
   9.447436e+01   3.852189e+02
  -8.262958e-01   2.933046e+02
   1.503863e+00   7.438265e+01
   2.579147e+02   2.030506e+02
   1.606315e+02   3.382163e+02
  -1.853592e+02   2.337432e+02
  -3.705495e+02   5.784437e+01
  -4.833386e+02  -1.228487e+02
  -5.043897e+01  -2.133429e+02
   2.485411e+02  -1.827657e+02
   2.877876e+02   4.784917e+01
   1.875318e+02   2.373654e+02
  -1.776924e+02   3.306843e+02
  -3.620320e+02   5.475333e+01
  -2.347366e+02  -1.782828e+02
  -1.062314e+00  -2.640627e+02
   5.488347e+00  -1.387463e+02
  -4.823328e+01   8.649797e+01
  -1.930953e+02   6.164240e+01
  -1.975523e+02  -2.411140e+02
   2.214435e+00  -4.949011e+02
   1.637120e+02  -3.203596e+02
   2.326589e+02  -6.715659e+01
   6.514006e+01   1.599863e+02
  -3.260266e+01   8.883236e+01
  -1.009665e+02  -1.888399e+02
   1.348656e+02  -3.160181e+02
   3.434575e+02  -4.625112e+01
   3.593645e+02   2.699995e+02
   1.035032e+02   3.797653e+02
  -2.101817e+02   2.406598e+02
  -3.997883e+02  -6.193479e+01
  -2.852092e+02  -2.410818e+02
   6.205047e+00  -2.525669e+02
   2.254619e+02  -9.766647e+01
   1.708685e+02   3.606393e+01
   2.083225e-02   3.634789e+01
  -7.130358e+01  -8.266071e+01
   1.115469e+02  -5.831187e+01
   2.269946e+02   3.680810e+01
   1.371343e+02   1.474687e+02
  -1.493452e+02   1.834372e+02
  -3.052482e+02   6.542555e+01
  -2.162775e+02  -1.010999e+02
   5.801630e+01  -2.828249e+02
   2.503295e+02  -2.834876e+02
   2.859601e+02  -9.702571e+01
   1.810767e+02   1.276641e+02
   3.871833e+01   2.834025e+02
   9.239142e+00   2.577557e+02
  -1.071882e+01   1.136157e+02
  -6.497646e+01   1.194941e+02
  -1.395997e+02   1.275754e+02
  -2.265536e+02   6.333475e+01
  -1.706104e+02  -6.920206e+01
  -8.235932e+01  -2.518572e+02
   6.468896e+01  -2.212059e+02
   1.773588e+02   2.607661e+01
   1.553770e+02   2.175581e+02
  -2.514985e+01   2.251023e+02
  -2.107201e+02   6.182066e+01
  -2.561008e+02  -1.265530e+02
  -1.903216e+02  -2.186976e+02
   5.931105e+00  -2.123729e+02
   1.241920e+02  -1.390368e+02
   1.285207e+02  -9.708319e+01
   1.185526e+02  -1.062601e+02
   2.580510e+02  -4.441930e+01
   3.373236e+02   9.284463e+01
   2.357462e+02   2.616070e+02
  -2.819076e+00   3.486279e+02
  -3.246892e+02   3.313725e+02
  -3.756460e+02   1.319972e+02
  -2.549400e+02  -1.022109e+02
  -3.852715e+01  -2.115705e+02
   5.766124e+01  -1.794099e+02
   2.925092e+01  -3.414769e+01
  -4.928978e+01   3.018244e+01
  -9.697033e+01  -6.459729e-01
  -1.975114e+01  -1.338748e+02
   3.300972e+01  -1.086411e+02
   6.987607e+01   2.845574e+01
  -2.792452e+01   9.415828e+01
  -1.470740e+02  -3.815482e+01
  -1.315216e+02  -2.204758e+02
   4.562828e+01  -3.364967e+02
   2.320503e+02  -2.134314e+02
   3.326672e+02   2.294549e+01
   2.691626e+02   1.987561e+02
   5.795441e+01   2.467368e+02
  -1.071834e+02   1.596738e+02
  -1.275034e+02  -4.516691e-01
  -4.127306e+01  -1.352013e+01
   4.421837e+01   3.163271e+01
   2.134569e+01   1.142559e+02
  -1.009620e+02   6.136529e+01
  -1.527498e+02  -2.235897e+01
  -3.880548e+01  -6.616658e+01
   1.208720e+01   8.185929e+00
   7.686953e+01   1.187845e+02
  -1.406542e+02   1.011314e+02
  -3.091512e+02   8.712882e+00
  -2.250622e+02  -1.930861e+02
  -6.130991e+01  -2.710200e+02
   1.559208e+02  -1.951513e+02
   1.973722e+02  -1.058871e+02
   1.086722e+02   5.509280e+01
  -4.521847e+00   7.133996e+01
   3.964101e+00   1.990956e+01
   2.746316e+01  -7.356261e+01
   1.476774e+02  -2.288672e+01
   9.747388e+01   1.046780e+02
   5.010660e+00   1.810085e+02
  -8.127370e+01   1.220249e+02
  -1.218572e+02  -2.805068e+01
  -3.359755e+01  -9.193782e+01
   4.066503e+01  -1.974319e+01
   5.499939e+01   1.328570e+02
  -4.826726e+01   1.261727e+02
  -1.603081e+02   4.007130e+01
  -1.827775e+02  -1.264763e+02
  -6.183972e+01  -1.913994e+02
   1.211015e+02  -1.205833e+02
   1.236255e+02  -2.105464e+01
   5.361749e+01   6.923549e+01
  -1.735094e+01   3.427584e+01
  -5.008820e+01  -1.965630e+01
   2.650871e+01  -1.893581e+00
   2.870656e+01   7.150068e+00
  -2.890150e+00   1.876323e+01
  -6.496417e+01   4.834140e+01
  -1.221306e+02  -5.976995e+01
   1.424154e+01  -1.231038e+02
   8.122247e+01  -1.452195e+02
   1.821050e+02  -5.645532e+01
   2.387126e+02   7.554703e+01
   9.616257e+01   1.980733e+02
  -2.448668e+01   1.856100e+02
  -1.304200e+02   3.475246e+01
  -4.373303e+01   2.348839e+00
  -4.807589e+01  -2.318665e+01
  -7.023281e+01   2.269755e+01
  -1.017258e+02  -1.962112e+01
  -7.431867e+01  -9.712681e+01
   1.158122e+01  -9.578344e+01
   9.495217e+01  -4.727467e+01
   1.510756e+02   6.468619e+01
   1.111003e+01   1.114729e+02
  -1.376416e+02   8.454448e+01
  -1.659568e+02  -2.308908e+01
  -1.225821e+02  -1.317449e+02
   8.910802e+01  -1.432596e+02
   1.636977e+02  -4.134995e+01
   1.746133e+02   4.026252e+01
   6.714430e+01   9.225189e+01
  -1.558456e+01   1.192942e+02
  -3.146194e+01   5.435475e+01
  -5.560124e+01   8.234039e+01
  -5.547743e+01   8.402052e+01
  -1.374711e+02   1.112554e+02
  -1.357561e+02   2.125710e+00
  -1.056293e+02  -1.429752e+02
   2.081581e+01  -2.409667e+02
   9.532956e+01  -1.410577e+02
   1.303905e+02   2.906282e+01
   6.057389e+01   1.069077e+02
  -1.106884e+01   1.450522e+02
  -9.432617e+01   7.820998e+01
  -8.786037e+01  -7.315274e+00
   2.220018e+01  -4.741043e+01
   4.422159e+01  -4.321517e+01
  -3.073592e+01  -2.802784e+01
  -5.263373e+01   8.453371e+00
  -6.539520e+01  -3.877194e+01
   7.344249e+01  -4.009622e+01
   2.147430e+02   2.559719e+01
   1.727045e+02   7.021293e+01
  -1.002454e+01   7.819629e+01
  -1.374076e+02   5.209258e+01
  -1.733826e+02  -6.814330e+01
  -4.732456e+01   4.406927e+00
   6.884711e+01  -2.638458e+01
   6.876879e+01   1.953120e+01
   1.084832e+01   6.172153e+01
  -4.032837e+01   6.863135e+01
  -8.535845e+01  -1.168457e+01
  -1.811747e+01  -6.762724e+01
   2.222302e+01  -4.244889e+01
  -6.143289e+01   2.474559e+01
  -4.913473e+01  -1.704705e+01
  -4.442243e+01  -6.036644e+01
   3.761787e+01  -1.103826e+02
   1.216996e+02  -1.428532e+02
   1.939190e+02  -7.466709e+01
   9.953007e+01   1.135816e+02
   2.280764e+01   1.447654e+02
  -8.550251e+01   4.728278e+01
  -6.734339e+01   3.653736e+01
   6.725570e+01  -3.884704e+01
   1.321223e+02   3.736190e+01
   7.293134e+01   1.099503e+02
  -5.819367e+01   7.304655e+01
  -1.648489e+02   3.962891e+01
  -1.114600e+02  -5.402161e+01
  -4.166160e+00  -5.768185e+01
   6.320498e+01  -3.231298e+01
   6.193216e+01   2.873148e+01
  -6.953217e+01   3.472542e+01
  -6.857643e+01  -1.534729e+01
  -3.129574e+01  -1.201556e+02
   3.598528e+01  -1.616942e+02
   8.540854e+01  -8.534104e+01
   9.572853e+01   2.349342e+01
   1.471726e+01   1.095824e+02
  -8.207636e+01   1.092886e+02
  -7.162177e+01  -2.120648e+01
   1.117071e+00  -1.356035e+02
   3.772989e+01  -4.984025e+01
   3.871299e+01   1.119102e+01
  -4.223211e+01   5.986873e+01
  -3.905819e+01   1.171550e+00
  -3.067405e+01  -5.801974e+01
   5.668611e+01   1.089593e+01
   6.373336e+01   7.904647e+01
   9.590847e+00   1.098695e+02
  -5.662390e+01   2.096427e+01
  -9.662034e+01  -4.373324e+01
  -1.172561e+02  -9.225578e+01
  -2.219834e+01  -5.556456e+01
   8.112568e+01  -2.691502e+01
   8.594273e+01   2.688361e+01
  -1.238392e+01   2.992216e+01
  -3.121925e+01  -3.719254e+00
  -2.127567e+01  -4.562956e+01
   4.470896e+01  -3.255695e+01
  -1.451325e+01   1.047971e+01
  -5.836871e+01   3.052837e+01
  -3.934045e+01  -7.339026e-01
  -1.128570e+01  -8.026010e+01
   9.874828e+01  -9.729194e+01
   1.247435e+02  -1.128422e+02
   1.566295e+02  -1.442704e+01
   2.612777e+01   1.480467e+02
  -9.599899e+01   1.419514e+02
  -1.036380e+02   6.804994e+01
  -6.206198e+01  -4.846405e+01
  -8.644989e+00  -6.116636e+01
   1.166383e+01  -2.404020e+01
   2.808317e+01  -1.874592e+01
  -7.459308e+00  -5.612802e+01
  -9.890970e+00  -5.214590e+01
   8.552043e-01  -9.878743e+01
   5.926202e+01   3.394526e+01
   1.294121e+02   8.197272e+01
   3.794545e+01   7.157847e+01
  -5.129280e+01   2.518262e+01
  -8.750352e+01  -6.726726e+01
  -5.525363e+01  -7.811848e+01
   6.055920e+01  -2.672640e+01
   1.125433e+02   6.111883e+01
   1.110746e+01   7.820448e+01
  -6.328324e+01   3.747184e+01
  -2.181822e+01   1.240173e+01
   9.854160e+00  -2.807861e+01
   4.220894e+01   7.497408e+00
   2.989866e+00  -2.317414e+01
  -6.036082e+01   5.403605e+01
  -8.188717e+01   8.666291e+01
  -5.446369e+01  -2.533992e+01
  -9.731780e+00  -5.074455e+01
   2.021133e+01  -6.600419e+01
  -2.531063e+01   2.064806e+00
  -3.594318e+00   3.907342e+01
  -5.299813e+01   1.333516e+01
  -5.208633e+01  -4.327905e+01
   8.835579e+00  -6.527554e+01
   2.329096e+01  -7.085150e+01
   1.002495e+02   3.503650e+00
   7.067570e+00   6.500587e+00
   3.313021e+00   5.329735e+01
  -1.139097e+01  -5.460010e+01
   6.984857e+00  -1.625080e+01
   1.220410e+01  -3.695869e+00
   4.059404e+01   7.344371e+01
  -1.712572e+01   2.575604e+01
  -1.894103e+01  -9.486956e+00
  -3.610198e+01  -5.565281e+01
   4.919557e+01  -1.431064e+01
   1.171412e+02   3.291942e+01
   2.208709e+01   6.759851e+01
  -1.943498e+01   1.008710e+02
  -4.172504e+01  -9.694903e+00
  -6.936146e+01  -4.749652e+01
  -1.917965e+01  -4.440680e+01
   2.236143e+01  -6.931279e+01
   2.758731e+00   1.570521e+01
   1.770353e+01   1.246422e+01
  -9.026995e+01   1.981569e+01
   2.429311e+01  -4.973740e+01
   3.264127e+01  -7.673366e+01
