
 $NMID
 id='ANONYMOUS ', fmtdat='(2E16.6)'
 volume=1.0
 tramp=1.0
 $END
   2.046708e+03   2.179729e+02
   1.494878e+03   1.141644e+03
   1.442626e+02   1.482150e+03
  -8.355403e+02   9.839794e+02
  -7.347028e+02   3.217917e+02
  -3.070027e+02  -3.799434e+01
   1.650219e+02   1.354536e+02
   9.547571e+01   3.752436e+02
  -2.813504e+02   4.556743e+02
  -4.755406e+02   1.248229e+02
  -4.019482e+02  -2.528776e+02
   5.878761e+01  -4.386801e+02
   3.309525e+02  -1.396002e+02
   2.529764e+02   3.196900e+02
   4.289990e+01   3.729395e+02
  -2.997343e+02   1.642416e+02
  -2.195270e+02  -4.941474e+02
   1.345295e+02  -5.248120e+02
   3.716640e+02  -4.051467e+02
   1.749109e+02   1.725365e+02
   1.282040e+02   1.769819e+02
  -5.918712e+01   2.368193e+02
  -6.694056e+01   1.100124e+02
   2.168123e+02   7.989396e+01
   2.892286e+02   3.307185e+02
   3.015955e+01   3.546249e+02
  -2.564392e+02   1.478723e+02
  -5.249173e+02  -1.537954e+02
  -2.290566e+01  -2.747997e+02
   3.333899e+02  -1.438678e+02
   3.854407e+02   1.609972e+02
   9.366415e+01   2.720644e+02
  -2.226694e+02   2.283867e+02
  -3.164708e+02   1.217348e+01
  -1.747180e+02  -1.057106e+02
   6.791227e+01  -2.116636e+02
  -1.014916e+01  -1.374700e+02
  -1.188530e+01   1.076048e+02
  -1.549771e+02   9.735526e+01
  -1.542671e+02  -1.556628e+02
   8.107951e+00  -4.220506e+02
   1.512436e+02  -3.772629e+02
   2.103741e+02  -1.608671e+01
   5.699229e+01   2.667814e+02
  -1.352161e+02   1.241523e+02
  -1.093905e+02  -2.494485e+02
   1.149963e+02  -3.349326e+02
   3.929200e+02  -6.070302e+01
   4.094794e+02   2.887606e+02
   1.797524e+02   4.109039e+02
  -2.602164e+02   2.107261e+02
  -4.098027e+02  -8.454029e+00
  -2.956373e+02  -1.489936e+02
   2.747662e+01  -8.306147e+01
   2.380558e+02  -4.268340e+01
   1.442896e+02  -2.060057e+00
   9.452368e+00  -5.501458e-01
  -7.350802e+01  -2.104178e+01
   9.714072e+01  -4.114304e+01
   1.703135e+02   1.379442e+01
   1.578560e+02   1.191538e+02
  -7.406343e+01   1.416953e+02
  -2.781806e+02   1.589746e+02
  -1.832530e+02  -5.217474e+01
   2.762676e+01  -2.269683e+02
   2.390238e+02  -3.166852e+02
   2.589903e+02  -9.637207e+01
   1.997308e+02   1.704045e+02
   5.109834e+01   2.506907e+02
   3.705544e+01   2.481976e+02
   5.399430e+01   1.575009e+02
   1.842096e+01   1.730494e+02
  -1.138253e+02   1.205132e+02
  -2.386337e+02   9.954079e+01
  -1.967395e+02  -8.736124e+01
  -1.092312e+02  -2.117209e+02
   8.543449e+01  -1.644645e+02
   1.387751e+02   4.793244e+01
   1.038364e+02   1.867179e+02
  -6.947229e+01   2.154765e+02
  -1.898447e+02   8.652789e+01
  -2.278216e+02  -1.517530e+02
  -1.312590e+02  -2.440936e+02
   2.848447e+01  -1.995498e+02
   1.065561e+02  -1.297876e+02
   1.157711e+02  -8.873893e+01
   1.156214e+02  -3.545399e+01
   2.292039e+02  -6.321615e+01
   3.313024e+02   6.988424e+01
   3.023742e+02   2.242427e+02
  -2.043285e+01   3.019571e+02
  -3.219683e+02   3.317949e+02
  -3.896533e+02   1.572321e+02
  -1.999941e+02  -4.568107e+01
  -9.577968e+00  -2.142014e+02
  -4.013457e+00  -2.001061e+02
  -5.152971e+01  -8.614782e+01
  -8.689454e+01   2.478479e+01
  -4.218064e+01  -1.849061e+01
   3.618769e+01  -1.027209e+02
   8.671740e+01  -7.604343e+01
   4.505543e+01   4.085161e+01
  -6.220132e+01   1.139301e+02
  -1.525609e+02   3.735976e+01
  -1.502058e+02  -1.737126e+02
  -2.890963e+01  -3.040788e+02
   2.014758e+02  -1.947920e+02
   3.056951e+02   6.760896e+01
   2.728916e+02   1.808267e+02
   5.417605e+01   1.968525e+02
  -1.098475e+02   1.615417e+02
  -8.471218e+01   3.209566e+01
  -2.523775e+01  -2.804921e+01
   2.850872e+01   3.103625e+01
  -9.648759e+00   1.039465e+02
  -8.014754e+01   6.318769e+01
  -1.255190e+02   2.134688e+00
  -5.090197e+01   1.588987e+00
   5.522966e+01  -1.447704e+01
   5.519348e+01   8.698222e+01
  -9.436875e+01   5.321073e+01
  -2.425718e+02  -3.997838e+01
  -2.213757e+02  -1.321415e+02
  -1.851481e+01  -2.100977e+02
   1.847544e+02  -1.595896e+02
   1.810849e+02  -9.631398e+01
   1.000732e+02   4.239598e+01
  -1.429216e+01   4.870594e+01
  -3.056907e+01   5.535931e+00
   5.893964e+01  -4.507765e+01
   1.645655e+02  -2.675880e+01
   1.631279e+02   9.723039e+01
   6.954575e+01   1.167378e+02
  -1.031104e+02   1.443582e+02
  -1.374436e+02   2.968880e+00
  -2.161799e+01  -9.179666e+00
   9.815411e+00   2.805315e+01
   3.740464e+01   8.023763e+01
  -6.039680e+01   7.949196e+01
  -1.526678e+02  -3.968905e+01
  -9.306807e+01  -1.438242e+02
  -1.031489e+01  -1.602909e+02
   9.493756e+01  -1.306899e+02
   1.695165e+02   3.299826e+01
   6.455188e+01   4.401705e+01
  -5.533067e+01   4.651298e+01
  -8.316588e+01  -1.993247e+01
   2.911726e+01   1.232177e+01
   8.684131e+01  -2.099329e+01
  -9.747204e-01   2.956105e+01
  -1.047759e+02   2.006799e+01
  -1.323378e+02  -7.349931e+01
  -3.385735e+01  -1.270549e+02
   1.096165e+02  -1.682207e+02
   1.757955e+02  -5.671811e+01
   2.092067e+02   1.444341e+02
   6.273175e+01   1.786185e+02
  -9.646055e+01   1.256937e+02
  -9.608252e+01   5.506519e+01
  -8.317159e+01  -5.379926e+01
  -2.208678e+01  -2.241553e+01
  -7.422895e+01   1.481332e+01
  -8.801707e+01  -1.643721e+01
  -5.234924e+01  -3.138866e+01
   2.834712e+01  -9.392286e+01
   1.035012e+02  -1.010605e+02
   9.334266e+01   1.069434e+01
   3.029509e+01   8.257313e+01
  -8.717663e+01   9.974994e+01
  -1.598406e+02  -4.986667e+01
  -7.990361e+01  -1.737065e+02
   9.523640e+01  -1.301578e+02
   1.854560e+02  -8.839547e+01
   2.065170e+02   1.243258e+02
   8.921259e+01   1.382907e+02
  -4.760916e+00   1.153032e+02
  -8.123757e+01   4.803006e+01
  -1.897153e+01   2.720372e+01
  -1.259717e+00   7.615249e+01
  -5.774807e+01   9.146105e+01
  -1.079176e+02  -1.108555e+01
  -1.372494e+02  -6.662473e+01
  -2.154182e+01  -1.556263e+02
   7.448791e+01  -8.500034e+01
   1.623748e+02  -3.730581e+01
   9.375635e+01   6.349976e+01
  -4.301031e+00   7.920346e+01
  -3.014646e+01   8.162442e+01
  -5.030620e+01  -3.109768e+00
   2.255936e+01  -6.939374e+01
   5.182603e+01  -1.041814e+01
  -3.824586e+01   6.571959e+01
  -4.696727e+01   6.383582e-01
  -7.766064e+01  -5.109057e+01
   3.213156e+01  -6.417014e+01
   1.874178e+02  -6.479832e+00
   1.016267e+02   2.588049e+01
  -6.587759e+00   4.416060e+01
  -9.881589e+01   5.766074e+01
  -8.314096e+01   5.870453e+00
  -3.167796e+01  -4.148222e+01
   1.124346e+02  -4.020560e+00
   8.731048e+01   2.766258e+00
   1.567326e+01   9.895699e+01
  -5.098169e+01   1.169512e+02
  -6.551870e+01   1.727032e+01
  -7.902123e+01  -3.683552e+01
  -2.375319e+01  -6.415753e+01
  -2.159987e+01  -1.273588e+00
  -2.461781e+01  -1.581725e+01
  -3.036681e+01  -6.607810e+01
  -3.793267e+00  -1.467883e+02
   6.672753e+01  -1.202771e+02
   1.553903e+02  -4.249494e+01
   1.244214e+02   3.688377e+01
   2.238210e+01   9.186053e+01
   1.702562e+01   6.663524e+01
  -2.960749e+00   1.874625e+01
   8.270314e+00   4.394073e+00
   1.213096e+02   3.673028e+01
   7.320670e+01   5.298825e+01
  -7.378595e+01   7.611352e+01
  -1.248154e+02   4.741516e+01
  -1.362564e+02  -3.219765e+00
  -3.329747e+01  -7.724796e+01
   1.858540e+01  -5.361463e+01
   6.693566e+01   2.786089e+00
  -6.927935e+01   5.555300e+01
  -9.701350e+01  -1.392573e+01
  -5.205176e+01  -6.483815e+01
   9.639780e+01  -1.013339e+02
   8.098522e+01  -5.950803e+01
   1.150996e+02   6.083365e+01
   1.838867e+00   8.287775e+01
  -9.190675e+01   8.949284e+01
  -6.197304e+01   1.827073e+01
  -1.022887e+01  -8.043421e+01
   7.568450e+00  -4.648205e+01
   6.098499e+01   3.364412e+01
   4.462975e+01   4.297174e+01
  -3.075782e+01   3.948192e+01
  -2.848004e+01  -5.531440e+01
   2.125706e+01  -2.076469e+01
   3.681924e+01   7.328665e+01
   6.883711e+01   1.107812e+02
  -1.402506e+01   5.047967e+00
  -1.355960e+02  -6.204625e+01
  -9.564751e+01  -4.728044e+01
   1.281003e+01  -5.593660e+01
   6.355966e+01  -2.716233e+00
   8.544301e+01   8.612564e+00
  -1.334028e+01   3.874992e+01
  -4.138507e+01  -5.132056e+00
  -3.885689e+01  -8.655918e+00
   3.040801e+01  -4.821340e+01
  -2.284480e+01   2.909576e+01
  -7.119697e+01  -8.733816e+00
  -1.031085e+02   9.689720e+00
  -5.356497e+01  -5.012127e+01
   6.444219e+01  -7.255199e+01
   1.218879e+02  -5.294599e+01
   1.070560e+02   5.389850e+01
   8.492900e+00   1.417827e+02
  -9.343477e+01   1.372815e+02
  -1.216094e+02   9.945108e+01
  -8.999753e+01  -2.046572e+01
  -2.905248e+01  -5.872940e+01
   3.411128e+00  -3.723070e+01
   5.140187e+00  -1.786023e+01
   2.909346e+01   9.955513e-01
  -2.091005e+01  -7.664602e+01
   6.261728e-01  -4.621885e+01
   6.280167e+01   6.487582e+01
   5.500466e+01   8.972502e+01
   2.106245e+01   9.103523e+01
  -3.781225e+01   8.519340e+00
  -3.653380e+01  -5.696198e+01
  -7.577207e+01  -1.146380e+02
   4.855858e+00  -4.125291e+01
   9.952285e+01  -2.202712e+01
   4.155558e+01   6.626877e+01
  -2.146400e+01   2.579615e+01
  -1.827060e+01   3.361626e+00
   7.376890e+01   1.606073e+01
   6.423208e+01  -3.139553e+01
   4.667101e+01   2.609027e+01
  -1.037679e+02   6.520098e+01
  -4.099292e+01   6.694352e+01
  -6.386369e+01  -1.753636e+01
  -4.726094e+00  -7.841119e+01
   4.232916e+01  -8.244098e+01
   1.234303e+00   7.385867e+00
  -9.437519e+00   4.260615e+01
  -5.649237e+01   5.654415e+01
  -3.739809e+01  -3.556061e+01
  -4.332190e+01  -3.305747e+01
   2.322177e+01  -6.296871e+01
   1.691200e+01  -9.457660e+00
   3.737558e+01   4.388095e+01
   6.587470e+00   1.159955e+01
  -8.615158e+00  -2.965178e+01
   1.038516e+01   2.619982e+01
   4.574806e+01   7.019474e+01
   2.470000e+01   4.541570e+01
   3.188584e+01   6.362943e+01
  -5.250889e+01   3.459482e+01
  -6.818300e+01  -1.029536e+01
   2.984999e+01  -2.074816e+01
   1.206378e+01   1.831095e+01
   3.261990e+00   3.030487e+01
  -4.003866e+01  -3.854196e+00
  -9.280404e+01  -3.464546e-01
  -5.476420e+01  -2.909206e+01
   2.391792e+01  -5.655094e+01
   1.404604e+01  -4.391071e+01
   4.168924e+01  -4.479149e+01
  -2.489721e+01   1.571199e+01
  -5.625469e+01  -2.571074e+01
   2.485925e+01  -4.110704e+01
   9.350587e+01  -4.441494e+01
