
 $NMID
 id='ANONYMOUS ', fmtdat='(2E16.6)'
 volume=1.0
 tramp=1.0
 $END
   2.665927e+03  -4.234268e+01
   1.529804e+03   1.423302e+03
   2.285114e+02   1.427019e+03
  -9.429073e+02   1.024150e+03
  -8.568597e+02   3.198582e+02
  -2.109906e+02  -6.369465e+01
   2.307389e+02  -3.774049e+01
   2.058564e+02   5.011566e+02
  -3.101880e+02   6.066120e+02
  -3.786118e+02   2.285624e+02
  -3.163738e+02  -4.153937e+02
   1.636150e+02  -5.402782e+02
   2.800279e+02  -2.672570e+02
   2.277513e+02   2.060761e+02
   1.249068e+02   4.570730e+02
  -3.269041e+02   1.581170e+02
  -1.238602e+02  -5.791408e+02
   8.481119e+01  -6.245453e+02
   1.121412e+02  -3.793686e+02
   2.891097e+02   1.891922e+02
   1.499013e+02   3.823488e+02
  -3.872488e+01   3.981282e+02
  -1.467443e+02  -3.940032e+01
   2.355330e+01   1.813902e+02
   2.409525e+02   3.531553e+02
  -7.795305e+01   4.115896e+02
  -5.732251e+02   3.286701e+01
  -4.884474e+02  -2.335347e+02
  -1.921576e+02  -2.889735e+02
   2.555366e+02   2.042967e+01
   3.801714e+02   1.496156e+02
   1.483723e+02   3.115268e+02
  -2.820475e+02   3.069806e+02
  -4.403362e+02   1.365129e+02
  -2.664346e+02  -1.285665e+02
  -1.268276e+02  -2.306959e+02
  -1.228309e+01  -1.189325e+02
  -2.138217e+02  -1.475754e-01
  -1.763478e+02   3.286893e+01
  -4.061147e+01  -1.910471e+02
   4.135331e+01  -3.834466e+02
   1.743977e+02  -2.805833e+02
   1.513240e+02  -1.402408e+01
   4.688979e+01   2.446640e+02
  -1.291668e+02   1.226417e+02
  -1.051813e+02  -2.065767e+02
   5.590471e+01  -2.887703e+02
   3.340866e+02  -4.336394e+01
   3.359107e+02   3.471368e+02
   1.940500e+02   4.431768e+02
  -1.644571e+02   2.266322e+02
  -4.866465e+02  -8.677284e+01
  -3.139236e+02  -1.725605e+02
   5.460876e+01  -1.714517e+02
   2.111515e+02  -1.857506e+02
   1.974608e+02   2.784941e+01
   5.070276e+01   4.884258e+00
   4.558154e+01   1.211306e+01
   1.198648e+02   2.533802e+01
   3.001662e+02   7.493154e+01
   1.149122e+02   1.088565e+02
  -1.705590e+02   2.861822e+02
  -3.714809e+02   1.876813e+02
  -3.121560e+02  -7.092389e+01
   2.774616e+01  -3.146067e+02
   3.380474e+02  -3.642034e+02
   3.426835e+02  -1.812152e+02
   2.153704e+02   1.199242e+02
   2.638187e+01   2.600138e+02
  -5.890873e+00   3.335622e+02
   2.857520e+01   2.252915e+02
  -5.423597e+01   1.425267e+02
  -1.505459e+02   1.055740e+02
  -2.657227e+02   2.102601e+01
  -2.328140e+02  -1.691929e+02
  -8.404965e+01  -2.185104e+02
   9.838124e+01  -1.718465e+02
   1.810665e+02   3.561289e+01
   9.195979e+01   2.647413e+02
  -1.041979e+02   2.040916e+02
  -2.180916e+02   1.534280e+00
  -2.578803e+02  -1.492708e+02
  -1.201231e+02  -3.153105e+02
   7.181448e+01  -2.750608e+02
   1.180770e+02  -1.264584e+02
   1.303797e+02  -5.243778e+01
   9.095133e+01  -7.439357e+01
   2.721360e+02  -6.018426e-01
   4.187443e+02   8.811316e+01
   3.078836e+02   2.796134e+02
  -4.958167e+01   3.656664e+02
  -4.504272e+02   3.197123e+02
  -4.475093e+02   1.492071e+02
  -2.275313e+02  -7.299983e+01
   2.994124e+01  -2.350004e+02
   1.262982e+02  -2.067491e+02
  -4.912181e+00  -3.536360e+01
  -1.272395e+02   1.234909e+01
  -1.005754e+02  -1.688858e+01
   3.050019e+01  -1.460452e+02
   9.698296e+01  -7.834471e+01
   8.835960e+01   8.707459e+01
  -2.077527e+01   1.271026e+02
  -1.147419e+02  -5.604895e+00
  -1.108760e+02  -2.028284e+02
   6.451464e-01  -2.862353e+02
   1.968265e+02  -1.831210e+02
   3.265232e+02   6.959622e+01
   2.800558e+02   3.363657e+02
   8.795449e+00   2.937771e+02
  -1.533724e+02   1.525873e+02
  -1.700969e+02  -3.458524e+01
  -4.917945e+01  -8.620974e+00
  -7.000920e+00   2.525186e+01
  -4.468381e+01   3.439831e+01
  -1.182522e+02   3.444017e+01
  -1.262523e+02  -3.019026e+01
   1.259106e+00  -3.189248e+01
   7.225803e+01   4.482997e+01
   8.163048e+01   8.761182e+01
  -1.420002e+02   9.816757e+01
  -3.118835e+02  -6.427417e+01
  -2.713869e+02  -2.015666e+02
  -6.135789e+00  -3.046368e+02
   2.447785e+02  -2.111019e+02
   2.884227e+02  -6.746926e+01
   1.036414e+02   5.799056e+01
  -2.406160e+01   7.050790e+01
  -9.880937e+01   8.412618e+00
  -9.957122e+00  -7.279904e+01
   1.786561e+02   2.033910e+01
   2.332930e+02   1.208218e+02
   4.734085e+01   1.709579e+02
  -9.052219e+01   8.153232e+01
  -1.621589e+02   1.385225e+01
  -5.121994e+01  -5.505236e+01
   6.091969e+01  -3.021921e-01
   1.669341e+01   9.423065e+01
  -1.255128e+02   8.458661e+01
  -2.211246e+02   1.663277e+01
  -1.749896e+02  -1.227051e+02
   5.150260e+00  -1.998215e+02
   1.988549e+02  -1.466372e+02
   1.903356e+02   8.719962e+00
   5.520258e+01   6.234490e+01
  -4.382169e+01   8.871581e+01
  -7.441266e+01   4.935204e+01
   3.132329e+01  -4.533232e+00
   7.483659e+01   3.274146e+01
   1.046462e+01   6.994523e+01
  -9.008522e+01  -5.305296e+01
  -1.068406e+02  -6.797251e+01
  -4.004715e+01  -1.940806e+02
   1.689363e+02  -1.552540e+02
   2.322657e+02   2.527018e+01
   2.125987e+02   1.602042e+02
   4.376840e+01   2.351524e+02
  -1.139343e+02   1.095954e+02
  -1.584939e+02  -1.086082e+01
  -7.271522e+01  -2.857888e+01
  -2.317401e+01  -1.369747e+01
  -6.411730e+01  -1.110313e+01
  -8.687528e+01  -1.960231e-01
  -1.049006e+02  -6.334406e+01
   8.214822e+01  -1.357817e+02
   1.525127e+02  -2.429817e+01
   1.185596e+02   6.097159e+01
  -8.478853e+00   1.525749e+02
  -1.507498e+02   1.085261e+02
  -2.091739e+02  -8.257433e+01
  -2.586055e+01  -2.065833e+02
   1.465906e+02  -2.183918e+02
   3.138895e+02  -7.461696e+01
   2.591475e+02   1.644579e+02
   9.603094e+01   2.047322e+02
  -1.081338e+02   1.689922e+02
  -1.321524e+02   5.922477e+01
  -4.653373e+01   1.060237e+02
  -7.123281e+01   4.301431e+01
  -3.100721e+01   8.390280e+01
  -7.178888e+01  -5.731661e+01
  -6.102225e+01  -1.525961e+02
  -2.644929e+01  -2.310129e+02
   9.070184e+01  -1.513427e+02
   1.469731e+02  -5.061978e+00
   7.004791e+01   1.267029e+02
  -1.575438e+01   1.777937e+02
  -7.859804e+01   4.999670e+01
  -8.183829e+01  -2.942000e+01
   5.110994e+01  -4.337275e+01
   4.603561e+01  -3.880663e+01
  -2.420416e+01  -4.596274e+01
  -4.960049e+01  -4.953415e+01
  -6.039567e+01  -7.991295e+01
   7.508778e+01  -5.940345e+01
   1.429671e+02  -2.729177e+00
   1.176541e+02   8.520809e+01
  -2.330046e+01   1.405222e+02
  -9.182167e+01   6.654364e+01
  -1.557939e+02  -9.527498e+00
  -3.997196e+01  -9.389324e+01
   6.153452e+01  -1.898255e+00
   2.559029e+01   4.662709e+01
  -4.030647e+00   3.070304e+01
  -4.558866e+01   2.153307e+01
  -8.189098e+01  -1.414907e+01
  -5.622993e+01  -7.111135e+01
   8.753041e-01  -1.147007e+01
   1.461520e+01  -1.440667e+01
   3.139115e+00   1.416333e+01
  -4.450531e+01  -7.343416e+01
   6.698479e+01  -1.665814e+02
   1.487013e+02  -7.891050e+01
   2.010076e+02  -2.655375e+01
   1.047956e+02   1.263559e+02
  -8.088341e+01   1.059704e+02
  -1.186078e+02   7.135097e+01
  -5.221387e+01  -6.419619e+01
   6.712026e+01   1.148140e+01
   1.430628e+02   2.876961e+01
   1.490029e+02   8.916800e+01
  -9.207649e+01   6.818261e+01
  -1.567549e+02   1.682923e+01
  -1.393921e+02  -8.110060e+01
  -1.597968e+01  -9.583526e+01
   3.316041e+01  -7.181286e+01
   3.654131e+01   7.090284e+01
  -7.039290e+01   4.595136e+01
  -1.123367e+02  -2.715009e+00
  -3.705147e+01  -1.193556e+02
   5.658151e+01  -1.034621e+02
   1.488802e+02   8.118856e-01
   1.399836e+02   6.605044e+01
  -3.698522e+01   1.785953e+02
  -1.129764e+02   1.115666e+02
  -1.007200e+02  -4.328494e+01
  -4.761709e+01  -1.287314e+02
   4.935178e+01  -1.338484e+02
   9.035041e+01   2.424951e+01
   2.439082e+01   3.913563e+01
   2.032599e+01   2.728995e+01
   1.957613e+01   1.661783e+01
   8.213476e+01   8.638239e+01
   5.025809e+01   1.299083e+02
  -2.627358e+01   9.645853e+01
  -8.273632e+01  -1.031052e+01
  -1.837897e+02  -2.864930e+01
  -1.588368e+02  -7.651696e+01
  -3.391069e+01  -8.037042e+01
   9.118464e+01  -3.560374e+01
   8.499309e+01  -1.960576e+00
   5.379199e-01  -1.379243e+01
  -6.546512e+00   1.437036e+01
  -4.197631e+00  -1.294086e+01
   6.567375e+01  -2.105815e+01
   2.889302e+01   2.251206e+01
  -5.347954e+01   5.234129e+00
  -9.981958e+01  -2.714684e+01
  -7.680730e+01  -9.011076e+01
   1.043521e+02  -1.082878e+02
   1.617407e+02  -4.445672e+01
   1.625924e+02   7.217162e+01
   7.378874e+01   1.838643e+02
  -9.093291e+01   1.306859e+02
  -1.243230e+02   7.163635e+01
  -5.022902e+01   2.054927e+01
  -7.998457e+00  -5.790137e+01
  -7.317592e+00  -2.605461e+00
  -4.830552e+01  -1.841989e+01
  -4.963588e+01  -7.553466e+01
  -6.558308e+01  -1.093739e+02
   3.826674e+01  -9.535782e+01
   7.884183e+01   6.612967e+00
   8.795005e+01   1.142277e+02
  -1.321223e+01   9.039863e+01
  -6.709123e+01   3.758774e+01
  -9.580875e+01  -4.411932e+01
  -3.276304e+01  -1.336202e+02
   1.031142e+02  -9.726381e+01
   1.284201e+02   4.550312e+01
   5.092916e+01   4.658748e+01
  -2.424860e+01   8.399805e+01
  -5.574643e+01   2.525058e+01
   6.261107e+01  -1.356871e+00
   6.690208e+01  -2.191030e+01
   2.113294e+01   6.923889e+01
  -1.093599e+02   8.826901e+01
  -8.714349e+01   3.561765e+01
  -1.485430e+02  -2.385625e+01
   7.035156e+00  -5.396035e+01
   3.369894e+00  -1.021980e+02
   5.080352e+01  -9.817736e+00
   1.182723e+01   4.951193e+01
  -3.845723e+01   1.577815e+01
  -2.922963e+01  -2.116833e+01
  -1.081297e+01  -9.202255e+01
   3.203151e+01  -3.558473e+01
   7.377229e+01   1.187646e+01
   5.207363e+01   3.071380e+01
   5.885797e+01   1.506074e+01
   1.191025e+01   3.966644e+01
   1.418898e+01  -1.990652e+00
  -1.136560e+01   3.596455e+01
  -1.944677e+01   4.459371e+00
  -2.007045e+01   5.178995e-01
  -5.756867e+01   1.893969e+01
   1.681528e+01  -8.137980e+01
   7.624349e+00  -1.656728e+01
   6.847946e+01   1.122386e+01
   2.556237e+00   6.635926e+01
  -3.365870e+01   4.609454e+01
  -7.524198e+01  -2.599358e+01
  -2.959394e+01  -7.810739e+01
  -4.509782e+01  -6.780750e+01
   7.034533e+01  -4.135018e+01
   4.753542e+01   1.533296e+01
  -2.710716e+01   4.037872e+01
  -5.818987e+01  -1.469132e+01
   2.236322e+01  -3.626074e+01
   6.150743e+01  -6.694669e+00
