
 $NMID
 id='ANONYMOUS ', fmtdat='(2E16.6)'
 volume=1.0
 tramp=1.0
 $END
   3.889573e+03  -3.271762e+02
   2.454824e+03   2.210479e+03
  -4.393824e+02   2.377342e+03
  -2.047373e+03   7.917961e+02
  -8.971310e+02  -4.816016e+02
   3.534688e+02  -3.194337e+02
   6.285291e+02   4.240600e+02
  -8.406608e+01   7.734086e+02
  -5.553222e+02   8.629337e+02
  -9.237671e+02   9.967687e+00
  -4.478075e+02  -6.792487e+02
   2.713762e+02  -9.040133e+02
   5.832671e+02  -1.218934e+01
   2.267242e+02   5.546216e+02
  -2.290314e+02   6.831612e+02
  -5.386962e+02   1.572953e+01
  -2.557461e+02  -6.346415e+02
   3.696423e+02  -8.209853e+02
   5.506235e+02   4.318485e+01
   3.071726e+02   3.789330e+02
   2.151368e+02   2.757744e+02
  -1.484261e+02   2.336317e+02
  -5.199115e+01   2.542548e+00
   1.032409e+02  -9.790699e+01
   4.509412e+02  -3.052232e+01
   2.330329e+02   3.216787e+02
  -4.862636e+02   3.540082e+02
  -8.976402e+02  -6.651053e+01
  -5.205226e+02  -4.805155e+02
   3.158013e+02  -5.305635e+02
   8.131241e+02   8.758844e+01
   2.492580e+02   5.299704e+02
  -3.345178e+02   4.113995e+02
  -4.479934e+02   1.574312e+02
  -4.534799e+02  -1.708107e+02
  -1.250272e+02  -5.010340e+02
   1.887587e+02  -3.084375e+02
   1.760495e+02   1.946630e+02
  -1.670763e+02   4.562358e+02
  -4.366884e+02  -1.362175e+01
  -2.663864e+02  -7.105692e+02
   3.213272e+02  -7.550819e+02
   5.978551e+02  -4.747271e+01
   3.253431e+02   5.930357e+02
  -2.786643e+02   3.724009e+02
  -3.664397e+02  -3.154985e+02
   8.041414e+01  -5.154316e+02
   5.080306e+02  -1.886954e+02
   5.562279e+02   3.960674e+02
   1.439654e+02   5.625822e+02
  -3.663704e+02   3.414304e+02
  -5.717796e+02  -1.104222e+02
  -3.275293e+02  -3.793914e+02
   1.496005e+02  -3.237945e+02
   3.643755e+02  -4.274262e+00
   1.667232e+02   2.043811e+02
  -1.171559e+02   1.054514e+02
  -1.225067e+02  -1.438775e+02
   2.169112e+02  -1.158580e+02
   3.267435e+02   8.446952e+01
   1.315744e+02   2.413964e+02
  -2.129179e+02   2.241938e+02
  -2.935212e+02   1.049663e+02
  -1.726960e+02  -4.749853e+00
  -3.042328e+01  -1.826959e+02
   1.641453e+02  -2.906673e+02
   3.003807e+02  -1.942564e+02
   2.401396e+02   1.322408e+02
   3.554555e+01   3.785687e+02
  -1.244873e+02   3.042255e+02
  -5.300706e+01   2.241527e+01
   4.517144e+01   4.983433e+00
  -9.512592e+00   1.504100e+02
  -1.683017e+02   1.553371e+02
  -2.882373e+02  -2.133479e+01
  -1.729294e+02  -2.234874e+02
   5.770203e+01  -1.784382e+02
   2.018283e+02  -1.677847e+01
   1.768577e+02   1.822749e+02
  -3.987864e+00   2.970852e+02
  -2.454896e+02   1.106676e+02
  -3.144700e+02  -1.634456e+02
  -1.441807e+02  -2.845099e+02
   1.088842e+02  -2.539632e+02
   2.178174e+02  -1.039592e+02
   1.121346e+02  -2.348559e+01
   1.043514e+02  -1.293374e+01
   2.234815e+02  -4.766882e+01
   3.340903e+02   1.322061e+01
   2.843376e+02   2.581296e+02
   4.107143e+01   3.780533e+02
  -2.831324e+02   4.159195e+02
  -4.184646e+02   1.893976e+02
  -3.135900e+02  -4.934710e+01
  -4.654298e+01  -2.973878e+02
   1.228602e+02  -2.104926e+02
   8.952343e+01  -1.029213e+00
  -3.934415e+01   1.089345e+02
  -1.559223e+02   4.818768e+01
  -4.943681e+01  -1.248087e+02
   1.128377e+02  -1.151220e+02
   1.318635e+02   6.971178e+01
  -2.941579e+01   1.759615e+02
  -1.468437e+02   9.789575e+00
  -1.346846e+02  -2.366867e+02
   3.818496e+01  -3.045896e+02
   1.970143e+02  -1.997120e+02
   3.058606e+02   4.667355e+01
   2.382464e+02   2.739626e+02
   7.921517e+01   3.623119e+02
  -1.421780e+02   2.078341e+02
  -2.160705e+02  -1.044395e+01
  -1.212576e+02  -2.756506e+01
   2.935557e+01  -5.798833e+00
   1.671604e+01   1.208100e+02
  -1.293003e+02   1.228658e+02
  -1.800867e+02  -8.961189e+00
  -6.834389e+01  -8.214604e+01
   8.246669e+01  -2.229001e+01
   3.426993e+01   4.556882e+01
  -9.677844e+01   8.419439e+01
  -2.885669e+02   1.168684e+01
  -2.500464e+02  -8.925608e+01
  -3.980991e+00  -1.760651e+02
   1.591839e+02  -2.660836e+02
   2.855928e+02  -1.361230e+02
   2.031411e+02   8.885862e+01
  -1.125429e+01   1.502192e+02
  -9.685372e+01   5.831030e+01
   8.231357e+00  -7.750993e+01
   1.756825e+02  -5.711009e+01
   2.154126e+02   9.097727e+01
   2.546968e+01   1.569609e+02
  -9.493820e+01   1.379382e+02
  -1.100118e+02  -1.245029e+00
  -3.823793e+01  -4.498186e+01
   3.446830e+01   3.407198e+01
   6.877687e+01   7.898116e+01
  -9.197934e+01   1.147438e+02
  -1.678675e+02   3.294305e+01
  -2.231909e+02  -1.143778e+02
  -2.871694e+01  -1.787377e+02
   1.190269e+02  -1.875672e+02
   1.612270e+02  -4.293736e+01
   7.159049e+01   1.020669e+02
  -6.070017e+01   1.388369e+02
  -7.377077e+01   7.145946e+01
   1.884086e+01   9.195516e+00
   1.708464e+00  -1.604236e+00
  -1.930047e+01   2.431731e+01
  -7.884751e+01  -5.461778e+00
  -7.733700e+01  -5.747124e+01
   5.751506e+00  -1.282149e+02
   1.481283e+02  -1.512261e+02
   1.880971e+02  -5.724733e+01
   2.103407e+02   1.257764e+02
   4.858242e+01   2.542243e+02
  -1.041070e+02   2.183074e+02
  -1.149715e+02   3.977943e+01
  -8.884076e+01  -3.720289e+01
  -6.291114e+01  -6.827953e+01
  -5.824993e+01  -1.619603e+00
  -6.784947e+01  -5.383605e+00
  -2.536993e+01  -5.352680e+01
  -1.233947e+01  -1.404175e+02
   1.076706e+02  -6.120996e+01
   6.871701e+01   8.390792e+00
   5.714175e+01   9.968440e+01
  -9.340800e+01   7.159860e+01
  -2.166706e+02  -2.341630e+01
  -1.543072e+02  -1.663538e+02
   6.182589e+01  -2.132423e+02
   2.233224e+02  -1.415360e+02
   1.926492e+02   2.664254e+01
   1.157196e+02   1.399061e+02
  -6.175620e+01   1.282277e+02
  -1.140706e+02   1.114264e+02
  -6.947198e+01   7.018796e+01
  -4.690169e+01   6.541031e+01
  -2.220251e+01   3.521960e+01
  -1.066728e+02  -1.002246e+01
  -9.563148e+01  -8.728519e+01
  -7.414592e+01  -1.676997e+02
   5.908622e+01  -1.682915e+02
   1.572443e+02  -1.404932e+01
   1.459509e+02   8.643733e+01
   3.521909e+01   1.452786e+02
  -7.916816e+01   6.392439e+01
  -6.042490e+01  -2.016780e+01
  -3.592033e+01  -3.294321e+01
  -1.262539e+01  -4.155002e+01
   2.951549e+01  -5.959256e+01
   2.103585e+01  -1.140803e+01
  -1.290342e+01  -2.295620e+01
   4.494410e+01  -2.633930e+01
   1.763093e+02   9.212533e+00
   1.384325e+02   4.156528e+01
  -2.122627e+01   6.028612e+01
  -1.218559e+02   6.973328e+01
  -1.280132e+02  -4.666469e+00
  -3.176617e+01  -6.188733e+01
   8.785473e+01  -6.157498e+01
   6.071296e+01  -1.666176e+01
   1.992661e+01   2.073825e+01
  -7.623051e+01   5.930198e+01
  -4.585144e+01  -9.951693e+00
  -9.963462e+00  -3.769096e+01
   5.495214e+01  -4.718687e+01
  -5.980689e+01  -3.093182e+01
  -4.077486e+01   1.294077e+01
  -5.122862e+01  -2.684887e+01
  -4.198252e+01  -1.072568e+02
   6.776375e+01  -1.387549e+02
   1.240884e+02  -6.412094e+01
   1.085724e+02   7.849011e+01
   1.180222e+01   7.937349e+01
  -5.157055e+01   5.180928e+01
  -4.701519e+01  -2.106493e+00
   7.492229e+01  -4.198973e+01
   7.805506e+01   1.730625e+01
   3.179731e+01   1.281903e+02
  -4.170211e+01   6.601944e+01
  -1.457824e+02   8.105658e+01
  -8.565947e+01  -2.784368e+01
  -5.779304e+01  -6.782632e+01
   3.506205e+01  -2.653393e+01
   7.461136e+01   1.120696e+01
  -1.702484e+01   2.003470e+01
  -7.727199e+01  -6.377641e+00
  -6.416344e+01  -9.160413e+01
   7.589665e+01  -1.233384e+02
   1.491203e+02  -4.865471e+01
   1.195832e+02   4.042766e+01
   4.875812e+01   1.697404e+02
  -6.296987e+01   1.578771e+02
  -1.163605e+02   1.126887e+00
  -4.809764e+01  -9.045459e+01
   1.463510e+01  -1.368076e+02
   1.377177e+01  -2.035269e+01
   8.660904e+01   5.814895e+00
   3.699828e+01   1.826494e+01
  -4.134352e+01  -3.385975e+01
   4.086104e+01  -4.479550e+01
   7.383222e+01   2.710469e+01
   3.644014e+01   8.047703e+01
  -8.182898e+01   6.644132e+01
  -1.374674e+02   1.428479e-01
  -9.084186e+01  -4.750689e+01
  -4.556197e+00  -4.254056e+01
   5.352136e+01  -1.313098e+01
   7.283873e+01  -3.115842e+01
   1.540180e+01  -1.056017e+01
   2.080546e+01   2.061053e+01
  -1.277054e+01   2.418221e+01
   3.797650e+01   1.189582e+01
   2.324338e+01  -1.987636e+01
  -2.129681e+01  -1.831812e+00
  -7.972119e+01   2.986924e+01
  -3.401021e+01  -1.043690e+02
   1.055058e+02  -1.071325e+02
   1.685439e+02  -5.190778e+01
   1.315967e+02   6.638556e+01
  -2.153860e+00   1.860842e+02
  -7.340081e+01   1.099138e+02
  -1.140130e+02   4.311832e+01
  -4.654067e+01  -2.061907e+01
   4.223460e-02  -6.199264e+01
  -2.680206e+01  -1.766395e+01
  -8.498395e+00  -3.812818e+01
  -1.251712e+01  -2.106273e+01
  -3.506391e+00  -6.473985e+01
   6.428292e+01  -9.524385e+01
   6.482340e+01   1.736263e+01
   7.656210e+01   4.351539e+01
   3.616310e+01   1.129116e+02
  -6.387677e+01   3.158578e+01
  -6.364503e+01  -6.367826e+01
  -5.723845e+01  -1.147193e+02
   5.987551e+01  -5.181755e+01
   8.650052e+01   2.438760e+01
   6.120488e+01   4.687134e+01
  -1.510809e+01   5.250711e+01
   9.999182e+00  -3.568346e+00
   1.798208e+01  -4.083851e+00
   2.107875e+01  -3.939063e+01
   1.704446e+01   4.551121e+01
  -5.737277e+01   8.417410e+01
  -8.954306e+01   6.340146e+01
  -6.704297e+01  -4.485189e+01
   2.519107e+01  -8.118929e+01
   4.279528e+01  -8.367665e+01
   1.774970e+01   4.460262e+00
   1.290346e+01   2.974776e+01
  -1.349120e+01   5.759223e+01
  -5.220617e+00  -2.134700e+01
  -1.624785e+01  -2.265373e+01
   1.793053e+01  -3.240747e+00
   2.697179e+01   6.732416e+00
   2.690888e+01   2.738008e+01
  -5.050770e+00  -9.740306e+00
  -3.490730e+01  -8.838495e+00
  -3.982910e+01   2.680892e+01
   3.867361e+01   1.929171e+01
   2.627717e+01   3.168716e+01
  -1.051262e+01  -5.941946e+00
  -4.833091e+01  -3.984206e+01
   3.297334e+01  -6.069206e+01
   6.208256e+01  -1.158820e+01
   5.318560e+01   9.599759e+00
   8.201627e+00   4.233082e+01
  -5.915099e+01   1.901303e+01
  -7.579632e+01   4.791742e+00
  -5.380057e+01  -5.901110e+01
   1.536301e+01  -6.088573e+01
   3.436006e+01  -4.417966e+01
   5.511241e+01   7.492955e+00
   5.290789e+00   2.047381e+01
  -2.237833e+01  -2.038735e+01
   4.614200e+01  -3.684269e+01
   8.365259e+01  -4.553792e+01
