
 $NMID
 id='ANONYMOUS ', fmtdat='(2E16.6)'
 volume=1.0
 tramp=1.0
 $END
  -1.483419e+03   1.500849e+02
  -1.049750e+03  -9.023712e+02
   7.015359e+01  -9.408410e+02
   5.958903e+02  -5.064605e+02
   4.607513e+02  -5.999235e+01
   8.464908e+01   4.580334e+01
   6.208943e+00  -8.156293e+01
  -4.380977e+01  -2.235655e+02
   6.910435e+01  -1.361875e+02
   2.998867e+02  -6.429907e+01
   1.607590e+02   1.690295e+02
  -4.141413e+01   4.318882e+02
  -2.374599e+02   7.476273e+01
  -7.058540e+01  -1.927474e+02
   1.739628e+02  -2.866478e+02
   1.404078e+02   1.356549e+02
   4.036733e+01   4.140634e+02
   4.927835e+01   3.843717e+02
  -3.891361e+02   2.389024e+02
  -2.283357e+02  -5.746579e+00
  -1.417293e+02  -1.827439e+02
   1.699504e+02  -1.252860e+02
   5.038594e+01  -1.714412e+02
  -1.013956e+02  -6.070539e+01
  -4.614126e+01  -1.930125e+02
   5.058234e+01  -1.664404e+02
   3.034416e+02   1.417282e+02
   2.733312e+02   1.689726e+02
  -9.072673e+00   1.940148e+02
  -2.125620e+02   7.708879e+01
  -1.888154e+02  -9.487418e+01
  -8.659824e+01  -8.012459e+01
   1.290960e+02  -2.373678e+02
   2.383147e+02  -5.443169e+01
   1.333789e+02   5.568493e+01
  -9.397728e-01   8.088087e+01
   5.525670e+01   2.837571e+01
   1.062025e+02  -1.165954e+02
   9.416162e+01   3.063251e+01
   1.057319e+02   2.275517e+02
  -8.711070e+01   2.685197e+02
  -1.430608e+02   1.935150e+02
  -1.316832e+02  -1.316272e+01
  -6.893298e+01  -1.056315e+02
   2.125665e+01  -5.007437e+01
  -6.095815e+01   1.190803e+02
  -1.179255e+02   1.383351e+02
  -2.573498e+02  -3.868837e+01
  -2.371232e+02  -2.785456e+02
  -5.676987e+01  -3.308247e+02
   1.738368e+02  -2.077216e+02
   2.875537e+02   1.807883e+00
   1.837738e+02   8.578197e+01
   5.308541e+01   9.764522e+01
  -6.661652e+01   7.807039e+01
  -8.602886e+01   3.541426e+01
  -1.746441e+01   5.156055e+01
  -1.240581e+01   3.257348e+01
  -6.595622e+01   3.607066e+01
  -1.646166e+02  -4.658047e+01
  -1.092444e+02  -8.790725e+01
   7.496212e+01  -1.082931e+02
   1.810620e+02  -9.831577e+01
   1.878368e+02   2.524906e+01
   4.453602e+00   1.438043e+02
  -1.540443e+02   2.221588e+02
  -2.256905e+02   8.140539e+01
  -1.398270e+02  -8.526481e+01
  -2.446627e+01  -1.899978e+02
   1.865841e+01  -1.789587e+02
   9.572045e+00  -1.046118e+02
   1.237506e+01  -7.673808e+01
   9.006487e+01  -7.655849e+01
   1.314624e+02  -5.595962e+01
   1.067068e+02   5.787952e+01
   4.404483e+01   1.272494e+02
  -4.805165e+01   1.195452e+02
  -1.247363e+02  -2.801011e+01
  -7.830222e+01  -1.607446e+02
   4.616899e+01  -1.550670e+02
   1.565078e+02  -9.669086e+00
   1.433382e+02   1.154162e+02
   1.037071e+02   1.572740e+02
   1.616665e+01   1.390647e+02
  -7.543826e+01   1.006405e+02
  -9.801193e+01   6.802949e+01
  -1.151915e+02   2.394587e+01
  -1.389545e+02   1.319248e+01
  -2.246342e+02  -1.032928e+02
  -1.454387e+02  -1.730967e+02
   5.283051e+01  -2.328046e+02
   2.214370e+02  -2.228151e+02
   2.855825e+02  -7.214611e+01
   1.676490e+02   6.930593e+01
   6.651491e+00   1.593055e+02
  -2.852495e+01   1.030534e+02
  -7.494881e+00   2.846666e+01
   7.304335e+01  -3.307661e+01
   1.837699e+01   9.424464e+00
   9.094737e+00   1.024585e+02
  -3.541232e+01   8.546290e+01
  -5.579028e+01   1.396302e+01
   3.134675e+01  -7.836271e+01
   8.085626e+01   3.988171e+01
   5.783929e+01   1.591354e+02
  -3.718067e+01   1.757893e+02
  -1.435735e+02   1.025146e+02
  -1.827045e+02  -5.825750e+01
  -1.334838e+02  -1.421332e+02
  -9.816547e+00  -1.244865e+02
   1.008987e+02  -5.109592e+01
   6.369520e+01   2.114914e+01
   3.380295e+01  -2.600497e+00
  -5.440571e+01  -4.504098e+01
  -4.788058e+00  -4.145302e+01
   6.534408e+01  -3.214601e+01
   6.571421e+01   3.186723e+01
  -1.671449e+01   1.467152e+01
  -6.268864e+01  -3.497975e+01
  -2.801915e+01  -2.009676e+01
   8.821878e+01  -5.965548e+01
   1.810645e+02   2.255024e+01
   1.641471e+02   1.491699e+02
   2.769722e+00   1.587100e+02
  -1.092158e+02   1.356747e+02
  -1.305212e+02   4.708897e+01
  -9.363303e+01  -2.640122e+01
  -1.455860e+01  -3.115314e+01
  -4.320311e+01   4.279375e+01
  -3.427942e+01   7.337596e+01
  -1.037784e+02  -2.582089e+01
  -8.644997e+01  -8.155040e+01
  -1.859128e+01  -1.727773e+02
   7.711385e+01  -6.924510e+01
   8.765119e+01   1.176658e+01
   1.964703e+01   3.794621e+01
  -2.767336e+01   1.658623e+01
  -3.366184e+01  -5.313971e+01
   3.175827e+01  -6.726350e+01
   1.068320e+02  -8.587610e-01
   6.123794e+01   8.051928e+01
  -8.928844e+00   1.068890e+02
  -5.611433e+01   3.538590e+01
  -1.258177e+02   2.983011e+01
  -1.372783e+01  -1.968322e+01
   2.302052e+01  -7.166976e+01
   4.834846e+01  -4.246958e+00
  -5.570453e+01  -2.071002e+01
  -2.242530e+01   2.295120e+00
   1.612632e+01  -1.620920e+01
   5.412438e+01   2.822029e+01
   6.861500e+01   6.565248e+01
  -1.848242e+01   6.856578e+01
  -9.002030e+01   5.092236e+01
  -1.244664e+02   2.208684e+00
  -1.106500e+02  -6.561031e+01
  -1.706623e+01  -1.295282e+02
   8.508437e+01  -1.064197e+02
   4.123056e+01  -1.854405e+01
   3.207409e+01   4.829903e+01
   2.696610e-01  -2.182099e+01
   9.326753e+00  -5.760345e+01
   9.085239e+01  -2.441672e+01
   3.570589e+01   4.494077e+01
  -1.405475e+01   4.169511e+01
  -6.681657e+01   3.145543e+01
  -4.210231e+01  -2.648801e+01
   3.164509e+01  -6.195603e+01
   5.474287e+01  -4.125920e+01
   1.332493e+02   7.897035e+01
   2.197173e+01   1.215030e+02
  -9.058010e+01   1.228237e+02
  -1.935974e+02   2.125496e+01
  -1.515962e+02  -7.454619e+01
  -3.035268e+01  -1.190943e+02
   1.601965e+01  -8.858956e+01
   2.326054e+01  -5.724273e+01
   6.396654e+01  -3.233218e+01
   5.927621e+01  -4.165786e+01
   6.434765e+01  -3.983014e+01
   6.240993e+01   4.767331e+01
   9.535780e+01   8.120531e+01
   1.736801e+00   1.083262e+02
  -9.470140e+01   1.017022e+02
  -1.317232e+02  -1.719070e+01
  -6.285760e+01  -9.597883e+01
   5.309020e+01  -1.028940e+02
   8.095556e+01  -4.772142e+01
   5.828958e+01   1.483417e+01
   2.543561e+01  -9.328774e-01
  -9.629271e+00   3.338401e+01
  -2.073863e+00   1.782046e+01
   5.522774e+01   6.566249e+01
   8.971005e+00   3.907801e+01
  -2.124457e+01   5.278857e+01
  -8.088694e+01  -1.430518e+01
  -1.004496e+02  -4.042246e+01
   3.072784e+00  -9.205983e+01
   5.623895e+01  -1.372406e+01
   6.878014e+01   2.130706e+01
   1.594827e+01   6.547376e+00
  -3.872930e+01   1.922864e+01
  -5.682575e+01   1.721066e+01
   1.573919e+01  -1.032729e+01
   5.218156e+01  -6.512944e+01
   6.022549e+01   1.928856e+01
   3.470505e+01   2.640544e+01
   2.864115e+01   4.555554e+01
  -1.422438e+01  -1.599005e+01
   1.718710e+01   2.571182e+01
   5.348745e+01   1.685208e+01
  -2.516026e+01   8.173998e+01
  -6.302196e+01   9.149519e+01
  -1.124597e+02   6.090048e+01
  -5.112377e+01  -7.796440e+01
  -2.002065e+00  -6.188618e+01
   6.763263e+01  -6.571667e+01
   2.891614e+01  -1.997177e+01
  -3.693809e+01  -4.014491e+00
  -5.390970e+01  -5.016086e+01
   3.005888e+00  -8.591790e+00
   4.271472e+01  -3.484055e+01
   1.293842e+02   2.210548e+01
   7.248952e+01   4.927961e+01
  -2.086299e+01   7.666392e+01
  -5.145750e+01  -5.964684e+00
  -7.907767e+01  -2.984599e+01
   4.015579e+01  -4.352539e+01
   5.573694e+01   1.867093e+01
   1.147124e+01   6.746560e+01
  -3.889873e+01   5.336442e+01
  -6.388371e+01   7.488676e+01
  -4.470803e+01  -8.127607e+01
  -2.415119e+00  -7.803403e+01
   3.279542e+00  -9.137291e+01
   6.352495e+01   1.301481e+00
   3.769239e+00   6.163458e+01
  -2.107320e+01   5.827440e+01
  -4.224130e+01   7.530976e+00
  -2.273352e+01  -1.512340e+01
  -1.371500e+01  -2.534382e+01
   2.566482e+01   1.121340e+01
  -4.106767e+01  -5.197749e+01
  -2.361642e+01  -6.518499e+00
  -1.614206e+01  -6.533959e+01
   4.314332e+01   1.179033e+00
   4.838804e+01   5.367552e+01
   7.100841e+01   3.048575e+01
   3.019067e+00   5.626452e+01
  -2.826477e+01   4.307212e+01
  -6.287528e+01   4.063740e+01
  -2.029433e+01  -8.819761e+00
   1.667702e+01  -2.837266e+01
  -1.674936e+01  -1.140657e+01
  -1.577209e+01   1.424032e+01
  -1.294132e+00  -2.071362e+01
   4.742526e+01  -1.230954e+01
   7.640487e+01   2.063095e+01
  -8.372912e+00   6.915832e+01
  -9.357528e+01   1.735512e+01
  -4.783080e+01   3.640258e+01
  -5.007831e+01  -4.254159e+01
  -5.019879e+00  -1.270600e+02
   7.668807e+01  -8.111665e+01
   1.001626e+02  -2.413631e+01
   4.551968e+01   1.001018e+01
   1.122559e+01   7.214935e+01
  -2.750241e+01  -4.126380e+00
  -9.389015e+00   1.919589e+01
   8.159234e+01   4.527277e+01
  -2.888402e+01   5.062898e+01
  -3.460151e+01   5.303788e+01
  -6.624916e+01  -1.171081e+01
  -7.650808e+01  -6.461899e+01
   1.606795e+01  -6.035632e+01
   4.504218e+01  -5.534576e+00
   8.435512e+01   3.452021e+01
   3.021576e+01   5.718959e+01
  -1.489620e+01   6.293018e+01
  -4.066710e+01  -7.981522e+00
  -1.586933e+01  -2.474708e+01
   2.858584e+01  -4.278321e+01
   3.045325e+01  -4.100272e+01
  -2.970141e+00  -4.694754e+00
  -3.028092e+01   1.879574e+01
   7.111735e+00   1.497508e+01
   5.182016e+01  -4.395314e+01
   7.277840e+01  -3.479986e+01
   3.582137e+01  -3.178551e+00
  -3.665822e+01   7.689709e+01
  -2.098087e+01   4.810509e+01
  -1.619873e+01   1.121509e+01
  -1.950761e+01  -1.044248e+01
   7.632849e+00  -3.853718e+01
   1.057552e+01   1.466666e+00
   1.175099e+01   5.183913e+01
   5.035404e+00   1.294435e+01
  -2.535951e+01  -2.148490e+01
   3.165631e+01  -1.739450e+01
  -5.158567e+00  -3.661682e+00
   1.857927e+01   3.451985e+01
  -1.953105e+01   1.139750e+01
  -7.129867e+00  -9.665401e+00
   5.339537e+01  -4.659405e+01
   3.032843e+01   5.278134e-01
  -7.350118e-02  -1.693880e+01
   2.175699e+01   6.737791e+01
  -2.836319e+01   1.367386e+01
  -4.557663e+01  -2.817348e+01
   5.552824e+01  -1.749536e+01
   2.008755e+01  -4.983801e+01
   3.490816e+01   4.203446e+01
   1.805484e+00   4.212938e+00
   2.706111e+00   1.881296e+01
  -9.485900e+01   1.193762e+00
  -8.757203e+00  -2.263905e+01
   1.085808e+01  -3.331303e+01
   4.649663e+01  -1.655875e+00
  -3.970139e+01   2.307824e+01
  -3.386306e+01   5.184481e+01
