
 $NMID
 id='ANONYMOUS ', fmtdat='(2E16.6)'
 volume=1.0
 tramp=1.0
 $END
  -2.221210e+03  -2.861946e+02
  -1.394406e+03  -1.020062e+03
  -1.143913e+02  -1.231272e+03
   5.757017e+02  -9.132518e+02
   6.523360e+02  -2.646140e+02
   5.214697e+01   1.859190e+02
  -1.203571e+02   4.952697e+01
  -5.118561e+01  -2.756183e+02
   2.215942e+02  -1.943058e+02
   4.265834e+02  -1.154683e+02
   2.938775e+02   3.694756e+02
   2.070362e+01   2.789118e+02
   5.471562e+01   1.402038e+02
  -1.583656e+02  -3.430280e+02
   1.320669e+02  -3.194512e+02
   3.888317e+02   3.413906e+01
   1.646561e+02   2.807841e+02
  -1.524251e+01   3.986368e+02
  -4.136717e+02   7.122345e+01
  -6.183984e+02  -1.910083e+02
  -8.680702e+00  -2.714173e+02
  -1.115097e+02  -2.350064e+02
  -5.364098e+01  -7.045516e+01
  -3.647518e+02  -1.021441e+02
  -6.361953e+01  -2.192277e+02
   1.182452e+02  -3.188459e+02
   3.975814e+02   1.398648e+01
   2.851477e+02   2.102315e+02
   9.881526e+01   1.542716e+02
  -1.219830e+02   1.360482e+02
  -2.889900e+02  -8.069297e+01
   3.674526e+01  -1.084147e+02
   2.777844e+02  -2.064410e+02
   2.330084e+02  -7.089135e+01
   2.448307e+02  -3.085329e+00
   6.716809e+01   1.579040e+02
   7.389236e+01   3.516935e+01
   1.333590e+02  -6.559056e+01
   6.571648e+01   2.576783e+01
   7.141704e+01   1.174573e+02
  -1.629223e+02   2.069037e+02
  -1.652760e+02   1.493786e+02
  -2.029036e+02   4.990420e+01
   2.845070e+01  -9.870557e+01
  -1.767342e+01  -9.855642e+00
   1.772245e+01   1.811586e+02
  -1.198897e+02   1.700259e+02
  -2.661383e+02  -3.958646e+01
  -2.682810e+02  -2.765208e+02
  -9.192360e+01  -3.263379e+02
   1.501748e+02  -1.766230e+02
   2.983041e+02   1.535975e+01
   2.443510e+02   8.399467e+01
   4.062640e+01   9.959109e+01
  -1.290004e+02   2.871972e+01
  -1.879582e+02   1.016668e+01
  -6.617900e+01   9.440096e+00
  -3.669510e+00   3.116666e+01
  -2.831614e+01  -5.939506e+01
  -1.674002e+02  -7.613657e+01
  -8.862141e+01  -1.131992e+02
   1.100358e+02  -1.115100e+02
   2.684132e+02  -9.239325e+01
   1.820904e+02   3.878593e+01
  -1.696643e+01   2.334763e+02
  -2.371607e+02   2.564964e+02
  -3.323072e+02   9.858264e+01
  -1.662206e+02  -1.212837e+02
  -6.202016e+01  -2.226198e+02
   1.798094e+01  -2.439012e+02
   2.630853e+01  -1.610401e+02
   7.977220e+01  -8.651377e+01
   1.083217e+02  -7.622738e+01
   1.230618e+02   2.836048e+00
   4.960228e+01   8.037881e+01
  -1.321828e+01   1.278690e+02
  -6.174952e+01   6.411401e+01
  -6.627639e+01  -4.648589e+01
  -2.612028e+01  -2.266289e+02
   2.358901e+01  -1.484346e+02
   1.640804e+02  -1.522376e+01
   2.031870e+02   1.300102e+02
   1.139572e+02   1.915201e+02
  -2.104456e+01   2.216848e+02
  -9.511230e+01   1.193466e+02
  -1.848441e+02   1.503091e+02
  -1.888005e+02   7.854766e+01
  -2.459361e+02  -1.637896e+01
  -2.498196e+02  -1.640792e+02
  -1.922421e+02  -3.383525e+02
   9.166703e+01  -3.334190e+02
   3.232373e+02  -2.209445e+02
   3.715662e+02  -7.130022e+01
   2.369234e+02   8.149829e+01
   4.764321e+01   1.695501e+02
  -6.955163e+01   1.054993e+02
   2.715084e+00   4.367820e+01
   1.011526e+02   4.436479e+01
   6.358330e+00   5.378414e+01
  -4.528831e+01   8.663418e+01
  -1.087120e+02   1.033657e+01
  -6.026511e+01  -5.777211e+01
   3.600175e+01  -8.685331e+01
   1.294329e+02   5.591257e+01
   7.524181e+01   1.549192e+02
  -1.129878e+02   2.297535e+02
  -2.520765e+02   1.104838e+02
  -2.301953e+02  -1.033500e+02
  -1.513714e+02  -2.007197e+02
  -1.160354e+01  -1.770205e+02
   1.210510e+02  -1.200992e+02
   8.099181e+01  -9.089785e+00
  -1.702989e+01  -2.820278e+01
  -8.828269e+01  -5.571447e+01
   7.752525e-01  -8.551690e+01
   8.088946e+01  -3.926509e+01
   1.261900e+02   4.766702e+00
   3.745300e+01   3.193989e+01
  -7.380996e+01  -7.906187e+01
  -2.598449e+01  -1.072127e+02
   1.011698e+02  -4.460367e+01
   2.095227e+02   5.023194e+01
   1.988750e+02   1.949444e+02
   1.183838e+01   1.818355e+02
  -1.745920e+02   1.257676e+02
  -2.198088e+02   2.548078e+01
  -1.044651e+02  -1.239129e+01
  -2.206572e+01  -6.610788e+01
   1.019947e+01  -6.264529e+00
  -5.395638e+01   3.295305e+01
  -1.105045e+02  -3.107633e+01
  -4.442240e+01  -1.203106e+02
  -1.467320e+01  -9.087174e+01
   7.098798e+01  -4.622631e+01
   6.128510e+01  -3.126384e+01
  -3.407545e+01  -1.986542e+01
  -1.873920e+01  -9.116257e+01
   4.457743e+01  -8.862701e+01
   1.056621e+02  -6.850696e+01
   1.731835e+02   3.680153e+01
   1.209732e+02   1.456553e+02
  -2.447738e+01   1.667406e+02
  -1.204836e+02   5.929741e+01
  -1.119404e+02  -5.400537e+01
  -3.725341e+01  -7.071049e+01
   1.926383e+01  -8.611285e+01
   7.207034e+01  -4.143441e+00
   3.006477e+01   3.737575e+01
  -2.641567e+00  -2.199593e+00
   9.433124e+00  -4.237550e+01
   1.108470e+02  -2.559909e-01
   1.138035e+02   1.385723e+02
  -5.555218e-01   1.955780e+02
  -1.605216e+02   1.336592e+02
  -2.021470e+02  -2.061076e+01
  -1.840338e+02  -1.092428e+02
   3.243085e+01  -1.732683e+02
   5.972073e+01  -1.000817e+02
   5.519414e+01  -3.382297e+01
   4.297273e+01   1.268725e+01
   5.515174e+01   1.779917e+01
   5.117665e+01   1.986133e+01
   3.005170e+01   1.827247e+00
   6.213024e+01   4.003447e+01
  -5.727044e+01   5.742248e+01
  -8.850398e+01   2.773521e+01
  -8.164086e+01  -3.912226e+01
   4.499344e+01  -1.128467e+02
   1.257714e+02  -5.274154e+01
   1.720326e+02   1.119353e+02
   2.029390e+01   2.315141e+02
  -1.153575e+02   1.795506e+02
  -1.913067e+02   6.053320e+01
  -1.523981e+02  -8.159219e+01
  -2.564941e+01  -1.260767e+02
   4.109988e+01  -5.377093e+01
   4.909266e+01  -4.816902e+01
   3.141845e+01  -2.384481e+01
   3.514734e+01  -4.136170e+01
   4.102327e+01  -5.753244e+01
   1.052769e+02   4.657659e+01
   1.075715e+02   1.144538e+02
   4.618548e+01   1.821708e+02
  -7.130564e+01   1.003609e+02
  -1.659105e+02  -3.086859e+01
  -8.737933e+01  -1.103120e+02
   6.800539e+00  -1.275993e+02
   9.880172e+01  -2.882006e+01
   4.206478e+01   1.847204e+01
  -1.040558e+01   1.330784e+01
  -5.096118e+01  -9.096607e+00
   7.401544e+01   1.269048e+00
   5.327818e+01  -1.459500e+01
   5.700412e+01   4.406502e+01
  -7.067694e+01   3.731816e+01
  -8.220660e+01  -1.092624e+01
  -1.211318e+02  -3.011734e+01
  -2.908920e+01  -7.713942e+01
   8.520075e+01  -6.247907e+01
   1.048567e+02  -5.290956e+01
   3.361362e+01   6.939498e+01
  -1.021277e+02   5.264682e+01
  -4.966578e+01   3.086833e+00
   1.057027e+01  -8.547397e+01
   8.996215e+01  -1.118863e+02
   7.344407e+01  -4.081263e+01
   3.422620e+01   6.362859e+01
   7.093814e+01   6.860053e+01
   4.529928e+01  -4.842630e+00
   5.918371e+01   1.106069e+01
   3.545798e+01   8.174546e+01
   1.306323e+01   9.344871e+01
  -7.944435e+01   1.014622e+02
  -1.207042e+02  -1.413534e+01
  -7.686235e+01  -5.824955e+01
   3.300382e+00  -8.238899e+01
   7.468453e+01  -5.014520e+01
   3.362481e+01  -1.950915e+00
  -5.130453e+01  -2.270403e+01
  -1.424576e+02  -2.827111e+01
  -4.751727e+01  -9.915090e+01
   2.883080e+01  -1.007066e+02
   1.090631e+02  -5.650934e+01
   1.100497e+02   1.669865e+01
   2.241825e+01   6.209036e+01
  -4.683051e+01   4.148914e+00
  -3.547846e+01  -4.151463e+01
   8.484659e+01  -3.959587e+01
   6.585849e+01  -1.628023e+01
   5.655885e+01   8.760830e+01
  -8.640322e+01   1.202234e+02
  -7.704849e+01   7.193916e+01
  -8.828827e+01  -3.774721e+01
   3.342681e+01  -1.208451e+02
   2.975272e+01  -8.284228e+01
   8.603118e+01   1.582631e+01
   4.733880e+01   8.295546e+01
  -2.613885e+01   7.514394e+01
  -2.672456e+01  -1.450615e+01
  -4.379777e+01  -5.299196e-01
   9.227648e+00  -2.009106e+00
   1.391919e+01   4.464071e+01
  -5.929071e+01  -3.095541e+01
  -4.370480e+01  -7.123530e+01
  -1.003668e+01  -8.475150e+01
   7.447933e+01  -5.739410e+01
   8.888215e+01   2.956972e+01
   7.420967e+01   8.717914e+01
  -5.705135e+01   5.746958e+01
  -1.073108e+02   5.616383e+01
  -1.329106e+02  -3.827101e+01
  -2.964472e+01  -7.100834e+01
   4.043293e+00  -2.365820e+01
   2.739632e+01  -2.719606e+01
  -1.882658e+01  -1.572255e+00
  -1.146073e+01   4.643679e+01
   4.195870e+01   5.864337e+01
   8.727046e+01  -1.934068e+01
   1.657166e+01   8.274995e+01
  -1.000062e+02   8.505002e+01
  -1.720606e+02   6.490000e+01
  -1.042638e+02  -2.509710e+01
  -3.652954e+01  -1.290088e+02
   7.367803e+01  -5.640075e+01
   8.151431e+01  -4.443406e+01
   5.759764e+01   1.518803e+01
   1.652096e+01   4.657356e+01
  -2.381195e+01   1.247989e+01
  -3.070001e+01   1.378912e+00
   7.223668e+00   5.404050e+01
  -3.354952e+00   1.004073e+01
  -6.331393e+00   2.133397e+01
  -5.256774e+01  -2.315398e+01
  -4.849647e+01  -6.627938e+01
   1.973823e+01  -8.850853e+01
   7.545210e+01  -4.292432e+01
   7.617279e+01   1.434614e+01
   4.413438e+01   5.663137e+01
  -8.322464e+01   4.167799e+01
  -1.099527e+02  -3.161707e+01
  -9.543532e+00  -5.532621e+01
   2.221843e+01  -6.073447e+01
   2.889097e+01  -5.205272e+00
  -5.754327e+00   4.000699e+00
  -7.370721e+01  -9.510638e+00
  -1.790276e-01   1.486843e+00
   4.149568e+01  -4.038905e+01
   6.583136e+01  -2.890992e+01
   4.024002e+01   3.267312e+01
  -9.205330e+00   7.408927e+01
  -2.546233e+01   7.108474e+01
  -3.829887e+01   4.053295e+01
  -3.855527e+01  -6.136454e+01
   3.292145e+01  -1.581750e+01
   4.176032e+01   1.230904e+01
   1.214514e+01   6.068703e+01
   2.269600e+01   3.167665e+01
   3.579017e+00  -4.042131e+01
  -2.061232e+01  -1.942989e+01
   2.053080e+01   1.820243e+01
   9.662211e+00   5.329674e+01
   2.780567e+01   4.885097e+01
   8.856331e+00  -1.997228e+01
   2.221321e+01  -7.051373e+01
  -2.400895e+00   8.506713e+00
   6.502406e+01   6.133977e+01
   6.878516e+00   5.966678e+01
  -8.148670e+00   1.377632e+01
  -5.652737e+01  -4.503735e+01
  -4.424146e+01  -7.497897e+01
   2.616171e+01  -6.395708e+01
   9.524463e+01   8.598371e+00
   5.288781e+01  -1.373101e+01
  -1.960886e+01   3.976811e+01
  -5.579235e+01   3.882907e+01
   1.814583e+01   6.040018e+00
   1.821826e+01  -4.016109e+01
   9.789084e+00  -5.177503e+00
   9.396429e+00   2.206397e+01
  -3.378305e+01   4.004052e+01
