
 $NMID
 id='ANONYMOUS ', fmtdat='(2E16.6)'
 volume=1.0
 tramp=1.0
 $END
  -3.184898e+03   1.881704e+00
  -1.683164e+03  -1.280303e+03
  -7.322588e+01  -1.587328e+03
   1.263074e+03  -1.086379e+03
   8.444685e+02  -2.354855e+02
   1.134586e+02  -3.604590e+01
  -3.679356e+02  -1.694656e+01
   2.060176e+01  -4.350905e+02
   4.960786e+02  -4.413663e+02
   5.429640e+02  -2.282608e+02
   3.816070e+02   4.044527e+02
   5.089784e+01   4.843665e+02
  -2.744550e+02  -3.812465e+01
  -2.496040e+02  -4.264226e+02
   1.889228e+02  -7.220575e+02
   4.186183e+02   5.672560e+01
   1.914696e+02   3.232764e+02
  -7.796931e+01   5.732707e+02
  -4.545294e+02   2.898313e+02
  -5.695875e+02  -4.423958e+01
  -1.158382e+02  -3.161960e+02
   2.857911e+02  -3.903026e+02
   1.112743e+02  -1.156175e+02
  -2.601077e+02  -1.700788e+02
  -1.443893e+02  -3.325753e+02
   4.030298e+01  -2.283899e+02
   3.911619e+02  -1.566583e+02
   6.572365e+02   2.532702e+02
   3.970485e+01   3.174376e+02
  -3.830675e+02   1.547334e+02
  -4.336711e+02  -7.531801e+01
  -1.745782e+02  -2.295851e+02
   2.604666e+02  -4.684612e+02
   4.880095e+02  -1.523399e+02
   2.439579e+02   1.563948e+02
   5.826472e+01   2.768561e+02
   5.713310e+01   9.463794e+01
  -1.434323e+01  -3.276905e+01
   1.636333e+02  -8.536344e+01
   1.864260e+02   2.166986e+02
  -7.835868e+01   4.353499e+02
  -2.520079e+02   2.906565e+02
  -2.756303e+02  -1.544104e+01
  -8.461672e+01  -2.704593e+02
   1.105807e+02  -9.907377e+01
   1.372236e+02   2.692283e+02
  -1.461703e+02   3.806864e+02
  -4.347690e+02   7.238308e+01
  -4.445545e+02  -3.703440e+02
  -1.589130e+02  -4.673982e+02
   2.288941e+02  -2.535235e+02
   4.495998e+02   5.882911e+01
   3.347351e+02   2.223633e+02
  -7.506452e+00   1.830411e+02
  -2.705208e+02   7.419651e+01
  -1.842796e+02  -3.734098e+01
  -7.364989e+00  -1.385909e+01
   3.750763e+01   3.267340e+01
  -7.749512e+01   3.698154e+01
  -2.190802e+02  -7.385876e+01
  -1.406601e+02  -1.552856e+02
   1.517077e+02  -2.076511e+02
   3.685840e+02  -1.143492e+02
   2.796939e+02   1.111775e+02
  -3.524718e+01   2.743151e+02
  -3.152751e+02   3.867823e+02
  -3.958075e+02   1.491606e+02
  -2.439634e+02  -2.027393e+02
  -2.465224e+01  -3.351097e+02
   6.227317e+01  -3.127154e+02
   1.640102e+01  -1.312617e+02
   1.287538e+00  -9.326755e+01
   7.297257e+01  -1.491859e+02
   2.086407e+02  -7.903921e+01
   1.984024e+02   1.083445e+02
   1.026907e+02   2.550473e+02
  -9.579910e+01   1.874918e+02
  -1.845257e+02  -4.553655e+01
  -1.207872e+02  -3.129202e+02
   6.883033e+01  -2.319677e+02
   2.705237e+02  -2.566703e+01
   3.191175e+02   2.093379e+02
   1.681334e+02   3.233599e+02
  -5.407582e+01   2.676420e+02
  -1.616086e+02   1.298880e+02
  -1.846181e+02   7.531945e+01
  -1.894287e+02   8.204805e+01
  -2.625806e+02   5.395233e+01
  -3.961217e+02  -1.142536e+02
  -2.547094e+02  -3.097265e+02
  -6.746969e+00  -4.418182e+02
   3.981543e+02  -4.094932e+02
   4.815557e+02  -1.468025e+02
   2.398860e+02   9.986583e+01
   3.055814e+00   2.714626e+02
  -1.194390e+02   2.231910e+02
  -4.457481e+01  -1.034051e+00
   6.512948e+01  -5.803584e+01
   1.042144e+02   1.356898e+01
   2.590923e+01   1.655904e+02
  -8.513245e+01   7.526777e+01
  -8.972099e+01  -5.793532e+01
   3.067507e+01  -1.158129e+02
   1.521134e+02  -1.234643e+01
   1.428005e+02   2.430452e+02
   3.296167e+00   2.987029e+02
  -2.046998e+02   2.016488e+02
  -3.540892e+02  -4.422669e+01
  -2.326731e+02  -2.480736e+02
  -8.174410e+01  -2.509642e+02
   1.115852e+02  -1.387170e+02
   1.695572e+02   5.334730e-01
   1.750479e+01  -2.224537e+01
  -7.908350e+01  -9.196657e+01
   2.371428e+00  -1.026193e+02
   9.219232e+01  -7.678714e+01
   1.432288e+02  -5.792097e+00
   1.214090e+01   3.848881e+01
  -4.205021e+01  -4.321184e+01
  -5.471474e+00  -1.024194e+02
   2.017701e+02  -6.462952e+01
   3.212741e+02   6.716113e+01
   2.497103e+02   2.136735e+02
   5.065484e+00   2.895808e+02
  -2.040774e+02   2.747960e+02
  -2.875651e+02   1.204390e+02
  -1.367818e+02  -8.031571e+01
   2.537329e+00  -7.552132e+01
   3.034772e+01   3.307349e+01
  -5.660146e+01   4.666094e+01
  -1.376667e+02  -1.601165e+01
  -1.581869e+02  -1.473360e+02
  -3.460637e+01  -1.902778e+02
   9.834017e+01  -1.287465e+02
   1.142583e+02  -5.326411e+00
   5.935908e+01   4.297001e+01
  -2.812131e+01  -2.715281e+01
  -3.073181e+01  -1.378178e+02
   1.609074e+02  -1.501554e+02
   1.949950e+02  -3.883988e+01
   1.624630e+02   1.171481e+02
   3.663924e+01   1.943146e+02
  -1.345636e+02   1.191256e+02
  -1.246985e+02   3.928386e+01
  -2.122820e+01  -3.999286e+01
   6.359778e+01  -3.484690e+01
   7.410130e+01   5.262144e+01
  -3.479710e+01   4.184287e+01
  -3.396676e+01   2.907922e+01
   1.946576e+01   2.987513e+01
   1.079332e+02  -1.840823e+01
   8.744306e+01   5.690237e+01
  -2.650082e+01   1.464807e+02
  -1.613808e+02   1.315608e+02
  -2.247412e+02  -3.347025e+01
  -2.017392e+02  -1.888877e+02
  -4.014301e+01  -2.045336e+02
   8.088487e+01  -1.374163e+02
   1.112346e+02  -3.931343e+01
   3.405079e+01   5.384199e+01
   3.721956e+01   4.510764e+01
   1.042093e+02  -4.625894e+01
   9.866022e+01  -2.491142e+01
   1.005615e+02   5.398730e+01
  -2.085467e+01   1.002704e+02
  -1.282147e+02   9.184035e+01
  -8.421382e+01  -1.220486e+01
   4.674055e+01  -1.138857e+02
   1.474806e+02  -5.253489e+01
   1.513117e+02   1.277754e+02
   6.321747e+01   2.197410e+02
  -1.634908e+02   1.920156e+02
  -2.443098e+02   5.962899e+01
  -2.374131e+02  -1.151012e+02
  -8.337659e+01  -1.572815e+02
   7.980236e+01  -1.408297e+02
   8.393332e+01  -5.216043e+01
   4.559828e+01  -8.379352e+01
   2.810436e+01  -7.900859e+01
   5.398496e+01  -8.955779e+01
   1.427853e+02  -2.209066e+01
   1.550674e+02   1.420615e+02
  -1.305353e+01   1.866799e+02
  -1.075584e+02   1.656420e+02
  -1.451834e+02  -3.633913e+00
  -9.374919e+01  -1.598419e+02
   3.651458e+01  -1.691630e+02
   4.711014e+01  -8.462044e+01
   7.038162e+01   3.639765e+01
  -6.305423e+00   8.978771e+01
  -1.534534e+01   9.527947e+01
  -3.444712e+01  -1.598361e+01
   2.555642e+01   4.173277e+01
   2.500831e+01   5.831538e+01
  -4.624732e+01   1.101644e+02
  -1.420540e+02  -2.394289e+00
  -1.317542e+02  -4.316709e+01
  -1.334312e+00  -7.715542e+01
   1.352370e+02  -8.156400e+01
   1.231152e+02  -2.896228e+01
   2.077021e+01   8.326863e+01
  -6.570013e+01   5.161749e+01
  -1.192510e+02  -6.688584e+01
  -2.388953e+01  -9.207805e+01
   7.861107e+01  -6.340430e+01
   9.396005e+01  -5.094272e+01
   8.341354e+01   6.781811e+01
   6.529312e+01   5.824751e+01
   7.153309e+01  -8.047590e+00
   3.133245e+01  -1.102020e+01
   4.834109e+01   6.215841e+01
  -9.964124e+00   1.508896e+02
  -1.052592e+02   1.247912e+02
  -1.592075e+02   1.226042e+01
  -1.517520e+02  -1.076070e+02
   4.315090e+01  -1.295161e+02
   7.642869e+01  -5.667954e+01
   2.958490e+01   1.159578e+01
  -8.431670e+01   4.647691e+01
  -1.288991e+02  -3.966389e+01
  -7.313442e+01  -1.267662e+02
   1.043600e+02  -1.380811e+02
   1.904400e+02  -6.497198e+01
   1.392899e+02   3.686324e+01
   5.462746e+01   1.165034e+02
  -4.645935e+01   6.549134e+01
  -5.806419e+01  -1.199867e+01
   8.837509e+01  -2.355651e+01
   1.050423e+02  -2.258504e+01
   5.520797e+01   1.295173e+02
  -8.052491e+01   1.772175e+02
  -1.686844e+02   1.101261e+02
  -1.573502e+02  -8.038596e+01
  -1.132716e+01  -1.630333e+02
   1.019738e+02  -1.330446e+02
   1.204784e+02   5.988618e+00
   3.964731e+01   9.062245e+01
  -1.173254e+01   8.097001e+01
  -5.122394e+01   1.158397e+01
  -6.248956e+01  -8.961567e+01
  -2.849531e+01  -3.195547e+01
  -2.371771e+01   5.538182e+01
  -1.962861e+01  -1.044027e+01
  -4.667369e+01  -7.621741e+01
  -4.359018e+01  -8.687405e+01
   3.679935e+01  -8.296970e+01
   1.187789e+02   1.953130e+01
   1.289146e+02   5.309558e+01
   2.510963e+01   4.804423e+01
  -7.450152e+01   4.185770e+01
  -7.024425e+01  -1.293273e+01
   5.391342e+00  -1.256162e+01
   7.393779e+00  -1.427673e+00
   3.237684e+01  -3.826878e+00
   6.709974e+00   2.396482e+01
  -5.006548e+00   2.605913e+01
   3.051596e+01   3.892871e+01
   9.625797e+01   4.473002e+01
   3.387690e+01   7.689763e+01
  -9.934358e+01   9.712018e+01
  -1.733534e+02   6.555543e+01
  -9.719824e+01  -6.675281e+01
   1.045867e+01  -2.177123e+02
   9.983778e+01  -1.917352e+02
   1.158836e+02  -7.619419e+01
   6.229246e+01   1.326328e+01
   3.036397e+00   4.403413e+01
   2.044608e+01  -1.160172e+01
   4.162193e+01  -2.396430e+01
   5.929480e+01   3.281664e+01
   2.190229e+01   1.430048e+02
  -5.415567e+01   9.535067e+01
  -8.187575e+01  -1.010194e+01
  -1.019085e+02  -9.042683e+01
   5.364717e+00  -1.163515e+02
   7.860844e+01  -5.008201e+01
   6.138303e+01   4.661062e+01
   3.160955e+01   1.263897e+02
  -1.121271e+02   6.747426e+01
  -1.188972e+02   3.543736e+01
  -7.897229e+01  -7.743273e+01
   5.532978e+01  -4.771751e+01
   5.671492e+01  -3.171152e+01
   5.244660e+00   2.356516e+01
  -7.683984e+01   1.840449e+01
  -9.272764e-01  -3.915243e+01
   7.492214e+01  -9.889545e+01
   9.950432e+01  -4.480190e+01
   8.220677e+01  -8.364824e+00
  -2.249869e+01   8.994767e+01
  -8.933992e+01   9.455691e+01
  -3.684774e+01   7.748534e+00
  -2.416612e+00  -6.345136e+01
   1.099164e+01  -8.273376e+01
   5.009232e+01   2.486043e+01
   6.653188e+01   9.541257e+01
   2.518820e+01   5.449198e+01
  -7.120102e+01   4.531995e-01
  -8.511108e+01  -4.030697e+01
  -2.582629e+01  -1.641626e+01
   6.908925e+00   1.558157e+01
   1.769211e+01   4.084847e+01
  -3.454390e+00  -1.012211e+01
  -1.769757e+01  -2.872970e+01
   1.320787e+01  -1.291426e+01
   3.126916e+01   1.912300e+01
  -1.910025e+00   4.524625e+01
  -8.987618e+01   3.471580e+01
  -6.799649e+01  -4.779875e+01
  -2.319098e+01  -9.300648e+01
   9.058631e+01  -2.669198e+01
   1.233507e+02   1.414658e+01
   5.476222e+01   6.880354e+01
   5.471031e+00   4.822910e+01
  -9.690936e+01   4.271614e+01
  -8.960912e+01  -9.598334e+00
   1.715356e+01  -1.732177e+01
   2.790349e+01  -1.348627e+01
  -2.079259e+01   2.085610e+01
  -6.890271e+01   1.198268e+01
