
 $NMID
 id='ANONYMOUS ', fmtdat='(2E16.6)'
 volume=1.0
 tramp=1.0
 $END
  -3.198721e+03  -3.560861e+02
  -2.022883e+03  -1.410943e+03
  -2.532290e+02  -1.808758e+03
   1.158815e+03  -1.474898e+03
   9.636469e+02  -4.366687e+02
   1.437120e+02   9.810725e+01
  -3.963368e+02  -6.080017e+01
  -2.166186e+02  -5.497897e+02
   3.699934e+02  -4.753242e+02
   6.225660e+02   3.483501e+01
   3.833902e+02   5.090614e+02
   1.910938e+02   7.420140e+02
  -2.583752e+02   1.667002e+02
  -2.895579e+02  -3.808551e+02
   2.968540e+02  -5.071138e+02
   3.116166e+02  -2.636308e+02
   3.848618e+02   2.691381e+02
  -5.734425e+01   5.493961e+02
  -4.754882e+02   2.585071e+02
  -6.431289e+02  -4.492223e+01
  -1.407627e+02  -3.583707e+02
   1.002587e+02  -3.282820e+02
   2.515579e+01  -5.763963e+01
  -1.549715e+02  -2.875106e+02
  -2.806981e+02  -2.400538e+02
   5.387751e+01  -3.580516e+02
   4.231775e+02  -1.547536e+02
   4.085710e+02   3.510458e+02
   2.890642e+02   4.663644e+02
  -3.598172e+02   1.650018e+02
  -5.218494e+02  -1.127677e+02
  -1.448989e+02  -3.745241e+02
   2.860591e+02  -2.929580e+02
   3.861416e+02  -1.710812e+02
   1.998099e+02   1.224723e+02
   1.768696e+02   2.705859e+02
  -3.740083e+01   1.315898e+02
   1.135974e+02   5.858910e+01
   1.603382e+02  -4.638594e+01
   1.080687e+02   1.096979e+02
  -4.041825e+01   4.087076e+02
  -2.290276e+02   2.966140e+02
  -2.422497e+02   2.584871e+01
  -1.051854e+02  -2.022638e+02
   6.815891e+01  -4.071763e+01
   1.354193e+02   2.583648e+02
  -8.936082e+01   2.796736e+02
  -3.846784e+02  -4.597632e+01
  -4.968172e+02  -3.478640e+02
  -1.500890e+02  -4.450622e+02
   2.419414e+02  -2.117952e+02
   4.697499e+02   6.170259e+00
   3.011616e+02   1.387790e+02
   3.096026e+01   1.724785e+02
  -2.056317e+02   1.198184e+02
  -1.808461e+02   4.533608e+01
  -4.499824e+01  -9.258983e+00
   4.538715e+00   1.259581e+01
  -9.207286e+01  -1.248370e+01
  -1.994525e+02  -4.712095e+01
  -1.369903e+02  -1.798747e+02
   1.353792e+02  -2.282284e+02
   3.944881e+02  -1.573144e+02
   3.225638e+02   5.454179e+01
   7.874231e+00   2.779462e+02
  -3.040417e+02   3.291716e+02
  -3.586754e+02   2.011232e+02
  -1.663081e+02  -9.970608e+01
  -1.413981e+00  -2.981280e+02
   1.508134e+01  -3.103749e+02
   3.365992e+00  -1.953830e+02
   7.623128e+01  -1.015744e+02
   1.434226e+02  -8.931512e+01
   2.365870e+02  -1.426311e+01
   1.890708e+02   1.536267e+02
   8.655263e+01   2.604578e+02
  -8.101608e+01   1.954545e+02
  -1.266849e+02  -1.127215e+01
  -1.139652e+02  -2.148341e+02
   6.578118e+01  -2.394949e+02
   2.000203e+02  -6.942776e+01
   2.582700e+02   1.774929e+02
   8.955358e+01   2.527908e+02
  -6.387295e+01   2.377782e+02
  -1.399127e+02   1.075645e+02
  -1.205270e+02   6.589685e+01
  -1.411105e+02   6.540538e+01
  -2.718268e+02   4.580351e+00
  -3.901165e+02  -1.139143e+02
  -2.817449e+02  -2.857347e+02
   3.303384e+00  -4.066279e+02
   4.049304e+02  -3.360387e+02
   4.905850e+02  -1.610227e+02
   2.847673e+02   7.319736e+01
   7.649160e+00   2.265719e+02
  -1.073027e+02   1.492859e+02
  -2.534208e+01   8.662553e+00
   7.240467e+01  -5.714795e+01
   1.286917e+02   4.922874e+01
   5.502216e-01   1.284166e+02
  -1.129560e+02   1.402980e+02
  -7.233197e+01  -2.145762e+01
   4.143443e+01  -1.127415e+02
   1.021919e+02  -1.669562e+01
   1.040946e+02   2.502736e+02
  -5.482742e+01   3.176498e+02
  -2.157454e+02   1.980934e+02
  -3.139142e+02  -9.727111e+01
  -2.158954e+02  -3.008546e+02
  -3.506347e+01  -2.815368e+02
   1.211221e+02  -5.423816e+01
   1.090694e+02   3.146749e+01
  -3.943886e+01   3.910975e+01
  -6.967048e+01  -7.923317e+01
   1.772216e+01  -1.022406e+02
   1.222505e+02  -4.795767e+01
   1.771207e+02   7.101484e+01
   3.609273e+01   7.361086e+01
  -8.742497e+01  -3.542144e+01
  -2.641211e+01  -9.342012e+01
   1.584267e+02  -9.967392e+01
   3.182805e+02   4.407002e+01
   2.556575e+02   2.269265e+02
   2.116162e+01   2.536576e+02
  -1.956285e+02   1.966912e+02
  -2.640206e+02   4.536905e+01
  -6.811599e+01  -5.259068e+01
   4.457730e+01  -5.339623e+01
   7.505845e+01   7.230028e+01
  -5.755504e+01   6.859521e+01
  -1.832628e+02  -7.278791e+00
  -1.751503e+02  -1.258100e+02
  -4.306174e+00  -1.873027e+02
   9.209867e+01  -1.400346e+02
   1.032790e+02   3.014399e+01
   4.786329e+01   4.102787e+01
  -5.462525e+01  -3.608938e+01
  -7.310550e+01  -1.461977e+02
   1.215175e+02  -1.178265e+02
   1.931033e+02  -1.650978e+01
   1.392074e+02   1.295934e+02
  -4.676503e+01   1.535323e+02
  -1.647240e+02   1.093152e+02
  -1.681396e+02  -3.173178e+01
  -4.910575e+01  -8.849895e+01
   6.870048e+01  -5.917504e+01
   2.597425e+01   1.161826e+01
   5.347217e+00   6.940819e+00
  -1.683680e+01  -1.824865e+01
   2.262657e+01  -5.807660e+01
   8.336581e+01   2.678974e+01
   8.770721e+01   7.598938e+01
  -3.519033e+00   2.112217e+02
  -1.436828e+02   1.027984e+02
  -2.362257e+02   1.573313e+01
  -1.807376e+02  -9.401420e+01
  -7.793730e+00  -1.918454e+02
   8.330700e+01  -1.348350e+02
   1.088275e+02  -2.372606e+01
   3.683408e+01   6.723891e+01
   3.205009e+01   2.707651e+01
   7.066149e+01  -3.458424e+01
   1.002026e+02  -1.869921e+01
   6.429163e+01   2.420213e+01
  -2.785850e+01   1.259559e+02
  -9.731647e+01   1.057095e+02
  -9.304014e+01  -7.560596e+01
  -2.830139e+00  -1.181430e+02
   1.618293e+02  -6.259781e+01
   1.797209e+02   8.254953e+01
   5.363669e+01   1.772191e+02
  -1.174809e+02   1.951921e+02
  -2.949491e+02   2.899131e+01
  -1.878517e+02  -7.901376e+01
  -8.323114e+01  -1.729002e+02
   3.392590e+01  -1.458013e+02
   3.773470e+01  -6.640215e+01
   2.626950e+01  -5.550766e+01
   5.053336e+01  -7.043501e+01
   1.099122e+02  -7.680663e+01
   1.186262e+02  -5.402753e+00
   1.158591e+02   1.669628e+02
  -1.602503e+01   2.107975e+02
  -1.232348e+02   1.402865e+02
  -1.697527e+02  -2.346504e+01
  -8.570342e+01  -1.233461e+02
   5.405841e+01  -1.539414e+02
   1.102747e+02  -6.009219e+01
   4.016758e+01   5.482999e+01
  -3.531672e+01   6.910466e+01
  -4.073184e+01   3.635034e+01
   2.987911e+00   1.865181e+01
   8.118676e+01   1.747569e+01
   7.872989e+01   6.934498e+01
  -4.247925e+01   6.065776e+01
  -1.148976e+02   2.391106e+01
  -1.372342e+02  -8.131488e+01
   3.963285e+01  -6.517189e+01
   1.358646e+02  -6.066257e+01
   1.294348e+02   1.211557e+01
  -6.689735e+00   6.580470e+01
  -5.671661e+01   3.331084e+01
  -8.553522e+01  -3.290641e+01
   1.189788e+01  -8.083882e+01
   2.967884e+01  -6.755043e+01
   8.663868e+01  -3.489077e+01
   1.854669e+01   5.989516e+01
   3.028478e+01   3.781474e+01
   6.299287e+01   1.717133e+00
   3.470141e+01  -3.201335e+01
   8.194538e+01   6.958535e+01
   1.494126e+01   1.332809e+02
  -1.159717e+02   8.910389e+01
  -1.747864e+02   3.965391e+01
  -1.170570e+02  -4.410915e+01
   4.027540e+01  -1.066076e+02
   1.196455e+02  -2.054776e+01
   3.510708e+01   3.623450e+01
  -5.562965e+01   3.744172e+01
  -1.396409e+02  -4.207219e+01
  -6.840877e+01  -1.029246e+02
   4.703429e+01  -1.029215e+02
   1.440092e+02  -1.085927e+00
   1.126394e+02   7.245816e+01
   2.034433e+01   4.198095e+01
  -3.009148e+01  -2.572359e+01
  -5.213003e+01   9.811668e+00
   2.055416e+01  -2.198141e+01
   1.326003e+02   2.451827e+01
  -8.003029e+00   9.907086e+01
  -8.777861e+01   1.114863e+02
  -1.596358e+02   8.207506e+01
  -4.153508e+01  -9.494060e+01
   2.438501e+01  -1.761563e+02
   8.723528e+01  -1.286425e+02
   9.417951e+01   3.271500e+01
   3.178971e+01   7.847257e+01
  -4.383799e+01   8.979312e+01
  -1.349959e+01  -4.148083e+01
  -3.941939e+01   1.252590e+01
  -1.145833e+01   2.779142e+01
  -5.237059e+01   3.419097e+01
  -7.334368e+01  -2.611014e+01
  -7.904007e+01  -1.024590e+02
  -5.265327e+01  -6.526734e+01
   6.071884e+01  -2.794702e+01
   1.043685e+02   5.125774e+01
   1.128828e+02   8.655230e+01
   3.597258e+00   6.503387e+01
  -9.244287e+01   3.761059e+01
  -8.487674e+01  -2.052033e+00
  -2.236534e+01   2.390348e+00
  -8.972120e+00   2.052677e+00
   3.918024e+01  -3.079991e+01
   5.010666e+00   2.451296e+01
   3.877563e+01  -1.486144e+01
   7.826301e+01  -4.052610e+01
   6.894866e+01   4.268613e+01
   1.489179e+01   9.139727e+01
  -8.408980e+01   1.002491e+02
  -1.719985e+02   1.049200e+02
  -1.500676e+02  -5.221747e+01
  -1.057552e+01  -1.407729e+02
   7.053429e+01  -1.322572e+02
   1.092747e+02  -6.157547e+01
   5.676996e+01  -1.485664e+01
   2.670626e+01   3.701576e+01
  -2.228100e+01   5.446022e+00
  -2.172478e+01   5.449009e+00
  -1.852026e+01   6.347471e+01
   3.492402e+00   8.970685e+01
  -5.621552e+01   2.880910e+01
  -6.593139e+01  -2.896471e+01
  -4.823512e+01  -1.021159e+02
   3.005893e+01  -1.000481e+02
   5.651005e+01  -1.720874e+01
   5.470743e+01   6.994138e+01
   4.327148e+01   1.133345e+02
  -7.562435e+01   5.120032e+01
  -7.060280e+01  -5.032363e+00
  -4.854269e+01  -3.089645e+01
   1.034237e+01  -5.573046e+01
   5.461099e+01  -2.194922e+01
  -1.884031e+01   8.743889e+00
  -7.562690e+01   1.597573e+01
  -1.555845e+01   8.713291e+00
   6.242097e+01  -4.610616e+01
   1.063835e+02  -1.101270e+01
   5.951183e+01  -3.903002e+01
  -1.001278e+01   7.471258e+01
  -5.847877e+01   5.138407e+01
  -1.691207e+01   4.387741e+00
   7.300890e+00  -4.765211e+01
   2.599375e+01  -9.023108e+00
   3.195835e+01   4.342593e+00
  -8.755103e+00   1.999502e+01
   4.785698e+01   3.804955e+01
  -3.698628e+01   1.087265e+01
  -5.612305e+01   5.444902e+00
   1.976484e+01  -6.145834e+00
   3.209380e+00  -1.304129e+01
   2.604909e+01   5.674751e+00
   1.129159e+01  -4.565506e+01
   1.581206e+01  -5.590440e+01
   3.860055e+01  -3.887199e+01
   4.043377e+01   1.489116e+01
   2.105258e+00   5.423831e+01
  -7.096012e+01   2.199079e+01
  -6.185021e+01  -4.344318e+01
  -6.246975e+00  -5.075673e+01
   6.086475e+01  -8.657606e+01
   8.027385e+01   4.154500e+01
   5.468477e+01   2.787654e+01
  -7.849184e+00   4.855360e+01
  -8.565815e+01  -1.589975e+01
  -2.036185e+01   4.698880e+00
  -2.277492e+01   3.634298e+01
   3.778990e+00  -2.224010e+01
  -3.160553e+01   1.781382e+01
  -6.521016e+01  -1.377089e+01
