
 $NMID
 id='ANONYMOUS ', fmtdat='(2E16.6)'
 volume=1.0
 tramp=1.0
 $END
   3.002967e+02   5.530133e+01
   1.364853e+02   1.629327e+02
   1.782919e+01   8.618688e+01
   1.289949e+01   1.362991e+02
  -1.979820e+01   1.103994e+02
   4.511476e+01   6.443667e+01
  -2.943535e+01   4.106433e+01
  -9.254962e+01   3.175142e+01
  -2.285975e+01  -8.817930e+00
   1.082528e+01  -1.709520e+00
  -3.240741e-01   1.863737e+01
   9.808150e-01  -2.430962e+01
  -6.323951e+01   2.603306e+00
   5.785720e+01  -3.146704e+01
  -4.708484e+01   6.112652e+01
  -6.974151e+01   1.137894e+01
   6.404295e+01  -3.749013e+01
  -1.078338e+02  -3.536070e+01
  -4.330805e+01  -1.310442e+01
  -1.589250e+01   3.918189e+01
   3.613884e+00  -4.763800e+01
  -7.654834e+00  -3.364850e+01
  -3.477260e+01  -6.920933e+00
  -6.428948e+01   1.035424e+02
   2.481588e+01  -4.896866e+00
  -4.341785e+01   3.549586e+01
  -8.383728e+01   1.444774e+01
  -1.191100e+02   4.519684e+01
  -7.250016e+01   1.665383e+01
   7.520333e+01  -7.277805e-01
  -4.399882e+01   8.506987e+01
   1.525161e+01   2.894664e+01
  -1.795554e+01   2.612818e+01
  -2.576367e+01  -6.267915e+01
   3.107299e+01   1.815571e+01
  -1.079599e+00  -1.918118e+01
  -3.552250e+01   2.504340e+00
  -4.019498e+01   2.665833e+01
  -5.977702e+01   3.866876e+00
  -3.030321e+01  -1.117652e+01
  -6.433733e+01  -9.235546e+01
   3.020960e+01  -4.776798e+01
   2.673729e+01  -3.371908e+01
   7.114757e+01   4.681410e+01
   1.084103e+01   5.218270e+00
   3.938537e+00  -6.015363e+00
  -1.144787e+01  -1.108201e+01
   3.251920e+01  -1.183948e+01
   2.821568e+01   2.744657e+01
  -1.655727e+01   3.236081e+01
  -1.057666e+01   4.901344e+01
  -5.822166e+01   3.724248e+01
  -2.762500e+01  -1.704057e+01
  -3.249245e+00  -5.814345e+01
   3.547628e+01  -6.443174e+00
   2.320241e+01   7.985438e+00
   1.537437e+01   1.574070e+01
  -8.994317e+00   1.759655e+01
  -2.081680e+01   3.713343e+01
  -3.946054e+01   1.110253e+01
   1.709822e+01  -1.973490e+01
  -1.602430e+01  -1.259687e+01
   2.636178e+01   9.951729e+00
  -1.852311e+01  -1.894983e+01
   1.823707e+01   9.330981e+00
  -3.335484e+01  -2.451347e+01
   3.234906e+01  -3.928041e+01
  -5.402524e+00  -1.952326e+01
   2.939272e+01  -1.979631e+01
   5.646375e+00   3.071980e+01
   2.099556e+01  -1.404083e+01
  -8.408823e+00   3.936458e+01
   7.784249e+00   3.217077e+00
  -2.160353e+01  -1.823445e+01
   3.975909e+00   1.914494e+01
  -3.804622e+01   1.850566e+01
   3.114857e+01   2.363699e+01
  -1.495761e+01  -3.295821e+01
   3.927102e+01   3.167249e+01
   1.018162e+01   2.570171e+00
   3.652004e+01   6.848402e+00
  -3.056394e+01   1.230002e+00
  -4.692094e+01  -9.532332e-01
   3.262270e+00  -4.486074e-02
  -8.536662e+00  -1.467353e+01
   1.690510e+01  -3.326103e+01
   2.870641e+01  -1.426035e+00
   7.050429e+01  -1.704532e+00
   2.147653e+01   6.579192e+00
   9.868507e+00  -1.655366e+01
  -2.297542e+01   6.510775e+01
  -2.675936e+01   4.516140e+01
  -2.310834e+01   5.407015e+01
  -2.894673e+01  -8.131739e+00
  -1.882829e+01   8.916594e+00
  -1.037404e+01  -1.995769e+01
  -2.411311e+00  -3.898852e+01
   2.301725e+01  -1.883685e+01
   1.415910e+01  -4.007779e+01
   3.785234e+01   1.640375e+01
  -1.005181e+01   2.065963e+01
   3.121777e+01   3.501086e+01
  -3.628197e+01   1.483023e+01
   1.379825e+01   8.343479e+00
   2.393916e+01   2.100190e+01
  -2.698291e+01  -1.175275e+01
   1.801277e+01   2.862273e+01
   2.890945e+01   9.058023e+00
  -3.320821e-01   3.565735e+01
  -7.517884e+00  -1.526935e+01
  -4.068755e+01   1.951435e+01
   8.691694e+00  -4.516641e+00
  -9.584454e+00  -8.990150e+00
  -3.719102e+00  -2.173748e+01
   4.213354e+01  -2.663818e+01
   2.182000e+00  -3.317982e+00
   5.719639e+01  -1.662217e+01
   8.352242e+00   1.334861e+01
   1.267766e+01  -1.139755e+01
   3.504930e+01   1.105338e+01
  -4.954824e+01   3.614720e+01
  -2.273064e+00   3.845856e+01
  -3.898184e+01   1.437406e+01
   4.798889e+01   9.723355e+00
  -2.808626e+01  -4.655108e+01
   2.722529e+01  -2.375580e+01
  -8.849197e+00  -2.239392e+01
  -1.127620e+01   8.796704e+00
  -4.049714e+00   2.688235e+01
  -3.528129e+01  -1.377642e+01
   4.231737e+00  -6.685216e+00
   5.345350e+01   4.182354e+01
   2.652032e+01   2.979584e+00
   3.168485e+01   1.928001e+01
  -3.060723e+00   2.026500e+01
   2.944858e+01   3.252630e+01
  -5.139561e+01  -4.550541e+00
  -2.240022e+01   3.480165e+01
  -2.637656e+01  -1.344069e+01
  -2.363772e+01  -6.684589e+01
  -8.082172e+00   2.501790e+01
   2.495041e+01   1.922423e+01
   3.926138e+01  -5.587641e+00
   3.364228e+01  -3.266081e+01
   1.314398e+01   6.236060e+00
  -1.582273e+01   6.297563e+00
   1.638796e+01  -1.744271e+00
  -6.952212e+00   4.480307e+01
   1.310354e+01  -1.395093e+01
  -1.418434e+01   5.419292e+00
  -1.538863e+01  -5.275368e+01
   6.846284e+00  -1.070870e+01
   1.742960e+01   3.234890e+01
   2.695736e+01  -2.910988e+01
   5.810014e-01   1.828096e+01
   3.562367e+00   2.588749e+01
   1.845555e+00  -5.145928e-01
  -3.603921e+00  -7.790793e+00
   3.053198e+00  -5.313965e+00
  -2.305125e+00   2.774577e+01
   5.825795e+01  -3.338538e+00
   1.227750e+01  -1.983263e+01
  -1.227121e+01   6.861057e+00
  -2.037337e+01  -3.367996e+01
   2.095028e+01   5.426385e+00
  -3.060453e+01  -1.688006e+01
  -4.340212e+00   3.106643e+01
   2.818563e+01   1.934282e+01
  -2.403088e+00  -6.609913e+01
  -2.257572e+01   4.944839e+01
  -1.921223e+01  -1.913507e+01
  -4.414234e+01  -3.524056e+01
   3.591001e+01  -6.740801e+00
   2.812845e+01  -3.241575e+01
   1.589366e+01   3.452022e+01
  -2.873696e+00   4.172024e+01
   1.346385e+01   3.267973e+01
   9.904227e-01   3.659922e+01
  -3.549507e+01   3.184503e+01
   2.034536e+01   8.813166e+00
  -1.156157e+01  -1.898567e+01
  -9.507732e+00  -1.778657e+01
  -2.701584e+01   5.145238e+00
   1.703919e+00  -4.606850e+01
   3.080468e+01  -4.773148e+01
  -4.257431e+01  -2.596125e+01
   1.995183e+01  -1.106447e+01
   1.827793e+01  -1.874410e+01
  -8.596884e+00   1.433907e+01
   4.734297e+01   3.190566e+00
  -1.055758e+01   1.024523e+01
  -1.015410e+01  -1.291355e+00
   1.713151e+01  -2.598885e+01
  -2.300348e+01  -2.305403e+01
   1.072696e+01   1.064261e+01
   1.642097e+01   1.065807e-01
  -1.439945e+01   4.588702e+01
   1.578679e+01   5.158751e+00
  -9.331535e+00   3.675420e+01
  -1.332590e+01  -2.744948e+01
  -1.797871e+01  -1.181814e+01
   4.841090e+01  -1.017187e+01
   1.838784e+01  -3.145667e+01
   2.884482e+01   7.937392e+00
  -9.612383e+00  -7.481255e+00
  -5.072382e+01   4.997072e+01
   1.074830e+01   1.447186e+00
  -3.962661e+01   5.328912e+00
   3.654229e+00   1.464870e+00
   1.876125e+01  -4.129405e+01
  -3.930342e+01  -9.586537e-01
   1.107550e+01  -1.005668e+01
   2.908793e+01  -1.000754e+01
  -9.918805e+00  -6.478070e+01
   1.705497e+01  -2.172875e+01
   2.505998e+01  -3.284763e+01
   2.498287e+01   8.232284e+00
  -1.238235e+01   3.570405e+01
  -1.737676e+01   3.133152e+01
  -1.730933e+01   2.673409e+01
  -1.896011e+00   2.872805e+01
  -2.016320e+01   4.583180e+00
  -2.569554e+01   3.645350e+01
  -1.428978e+01  -2.081123e+01
   1.243775e+00   1.340285e+01
   6.960048e+00  -2.936160e+01
   3.618431e+01  -4.953833e+01
   5.437455e+00  -1.155932e+01
  -5.080711e+01  -3.069065e+01
  -1.147001e+01  -1.338367e+01
   1.828344e+01  -3.228740e+01
   4.862234e+01  -2.887738e+01
  -4.294426e+00  -3.499120e-01
   3.276934e+00   9.198794e-01
   1.322174e+01   2.918955e+01
  -6.556236e+00   3.256369e+01
   5.455961e+00  -1.595216e+01
   2.555034e+01   9.110704e+00
   2.373512e+01   1.050660e+01
  -1.590097e+01  -1.324897e+01
  -1.351710e+01  -4.410885e-01
  -1.216314e+01  -1.167913e+00
   1.693430e+01  -1.225938e+01
  -2.730731e+01  -1.661899e+01
   2.418811e+01  -2.165638e+01
  -2.688173e+01   3.918738e+01
  -8.214239e+00   1.247592e+01
  -1.639920e+00  -1.907846e+01
  -5.636250e+00  -1.838882e+01
   7.336712e+00  -3.626775e+01
  -5.614630e+00  -7.436035e+00
  -1.523678e+01  -3.247970e+01
  -1.955942e+01  -2.187201e+01
  -1.773469e+01   1.070831e+01
   2.588527e+00   3.334793e+01
   1.105489e+01   6.802259e+00
  -2.907881e+00   1.521546e+01
  -2.751173e+01  -4.306467e+00
  -7.571868e+00  -1.108546e+01
   4.818117e+01  -3.415789e+01
   1.347357e+01  -2.112856e+01
  -1.055893e+01  -3.488710e+01
  -1.517775e+01  -2.699591e+01
  -1.602898e+01  -8.882549e+00
   1.132823e+01   8.503757e-01
  -2.794238e+01   1.347437e+01
   3.680068e+01   1.258734e+01
  -1.195438e+01   1.955301e+01
   1.103923e+01   1.754636e+01
  -5.504631e+01  -3.716696e+00
  -1.223785e+01  -2.449379e+01
  -6.428823e+00   1.049026e+01
  -5.722788e+00  -4.816810e+01
  -1.719008e+01   5.189779e+01
   4.790873e+01   4.308102e+00
  -2.313796e+01   1.028524e+01
  -3.115201e+01  -9.692130e+00
   1.380853e-01   1.345425e-01
  -1.123291e+01  -8.259197e+00
   2.457210e+01   2.920079e+01
  -4.897848e+00  -9.434100e+00
  -4.559992e+00  -1.575195e+01
  -6.570688e+00   5.029484e+00
   1.291343e+01   1.028471e+01
   9.356271e+00  -2.732636e+01
   2.067894e+01  -2.393539e-01
  -1.193559e+01   9.694713e+00
  -5.620928e+01   2.816859e+01
  -3.866176e+01   1.888852e+01
   2.046809e+01  -9.058149e+00
  -5.176438e+00  -3.196776e+01
   1.408787e+00  -1.932457e+01
   9.990683e+00  -1.068931e+01
  -3.521895e+00  -2.134084e+01
   1.420469e+01  -8.657695e+00
  -2.555506e+01  -2.407480e+01
  -2.320707e+01   5.541750e+01
   1.531830e+01   9.630018e+00
  -3.245761e+00   1.859250e+01
  -3.114533e+01  -4.049934e+01
  -3.563029e+01  -2.613741e+01
  -1.479620e+00   4.211161e+00
   7.140030e+00   3.353085e+01
  -1.095093e+01  -9.197857e+00
   2.241133e+01  -9.500284e+00
  -1.907911e+01   3.786430e+01
   4.056896e+01  -1.306095e+01
   1.544568e+01  -5.458471e+00
  -1.540063e+01  -1.142172e+00
  -5.791860e+00   6.087003e+00
  -1.545122e+01   1.045285e+01
  -1.401376e+01   2.575426e+01
   1.712135e+01   7.490163e+00
   6.626531e+00  -1.432703e+01
   1.685836e+01  -5.325125e+00
  -3.154142e+01  -7.344147e+00
  -5.235088e+00   2.359239e+00
  -6.327291e+00   8.169081e-01
  -8.451313e-01   1.347296e+01
  -4.268365e+00   2.593142e+01
