
 $NMID
 id='ANONYMOUS ', fmtdat='(2E16.6)'
 volume=1.0
 tramp=1.0
 $END
   9.759753e+06  -3.486471e+05
   5.981876e+06   5.502517e+06
  -9.517774e+05   6.425736e+06
  -4.453573e+06   2.898266e+06
  -2.827668e+06  -8.255761e+05
   4.062384e+05  -1.702299e+06
   1.715367e+06  -1.677899e+05
   7.944382e+05   1.568493e+06
  -7.506332e+05   1.885955e+06
  -1.636316e+06   6.189227e+05
  -1.397752e+06  -1.110607e+06
  -2.412697e+05  -1.702062e+06
   8.494118e+05  -5.541427e+05
   7.549467e+05   1.086166e+06
  -4.454544e+05   1.360273e+06
  -1.363209e+06  -6.835850e+04
  -8.989528e+05  -1.706513e+06
   5.523447e+05  -2.045360e+06
   1.743155e+06  -1.015396e+06
   1.884535e+06   4.180037e+05
   1.077893e+06   1.363968e+06
   3.439903e+03   1.463656e+06
  -5.119490e+05   8.977135e+05
  -1.289618e+05   3.308325e+05
   4.730594e+05   4.011575e+05
   1.868802e+05   9.312433e+05
  -1.062575e+06   1.027564e+06
  -1.975499e+06   2.400733e+05
  -1.448708e+06  -7.849097e+05
  -9.010402e+03  -1.118271e+06
   8.905183e+05  -6.270519e+05
   6.303531e+05   8.726106e+04
  -1.516965e+05   4.480787e+05
  -6.246516e+05   2.448786e+05
  -5.482616e+05  -3.914341e+05
  -9.323348e+04  -9.246129e+05
   4.310454e+05  -6.988918e+05
   6.041728e+05   2.063633e+05
   2.320035e+05   7.618137e+05
  -2.331491e+05   2.412509e+05
  -1.347150e+05  -6.217807e+05
   4.036425e+05  -5.204060e+05
   4.961587e+05   5.204150e+05
  -2.587263e+05   1.053036e+06
  -1.074750e+06   2.017044e+05
  -9.185436e+05  -1.117173e+06
   1.951700e+05  -1.427951e+06
   1.252000e+06  -5.038014e+05
   1.364561e+06   6.258313e+05
   5.254693e+05   1.029513e+06
  -5.563897e+05   6.353151e+05
  -1.042673e+06  -8.299511e+04
  -5.697085e+05  -5.794602e+05
   3.857390e+05  -4.940384e+05
   8.597732e+05   6.101361e+04
   4.213908e+05   4.821125e+05
  -2.949097e+05   3.139256e+05
  -3.915863e+05  -1.446436e+05
   1.265048e+05  -2.326510e+05
   4.257931e+05   1.594123e+05
   1.387144e+04   4.901019e+05
  -6.615997e+05   3.474350e+05
  -8.751336e+05  -1.263050e+05
  -4.443765e+05  -6.194420e+05
   2.905143e+05  -9.695445e+05
   9.242852e+05  -9.703353e+05
   1.166507e+06  -3.770892e+05
   8.743571e+05   5.940226e+05
   2.368123e+05   1.186627e+06
  -2.429231e+05   9.297342e+05
  -2.444602e+05   2.794181e+05
  -1.756370e+04   3.254172e+04
  -4.033355e+04   2.882220e+05
  -3.840779e+05   4.312043e+05
  -6.561977e+05   7.178878e+04
  -5.186049e+05  -4.466231e+05
  -4.389671e+04  -5.570681e+05
   4.102924e+05  -1.469053e+05
   4.925366e+05   4.072779e+05
   8.024254e+04   6.518683e+05
  -5.676856e+05   3.895715e+05
  -9.115725e+05  -2.089769e+05
  -6.227764e+05  -7.092117e+05
   1.149235e+04  -7.656041e+05
   3.954914e+05  -4.619770e+05
   3.513601e+05  -1.934275e+05
   2.801377e+05  -1.725133e+05
   5.246082e+05  -2.027317e+05
   8.513111e+05   1.878808e+03
   7.649887e+05   4.350810e+05
   1.653244e+05   8.230012e+05
  -5.273009e+05   8.929447e+05
  -8.257111e+05   5.496187e+05
  -5.976127e+05  -5.022705e+04
  -1.043800e+05  -5.067495e+05
   2.320678e+05  -4.548999e+05
   1.547652e+05   6.574842e+03
  -1.944904e+05   3.287394e+05
  -3.976024e+05   1.478795e+05
  -2.228172e+05  -2.418878e+05
   9.422568e+04  -2.949326e+05
   1.527764e+05   2.412099e+04
  -1.034539e+05   2.055059e+05
  -3.434967e+05  -8.237287e+04
  -2.730736e+05  -5.547429e+05
   7.886703e+04  -7.054250e+05
   4.809653e+05  -3.952774e+05
   7.092342e+05   1.035327e+05
   6.177005e+05   4.640453e+05
   2.181955e+05   5.337301e+05
  -2.204091e+05   3.447661e+05
  -3.413351e+05   8.603563e+04
  -1.057761e+05  -1.461459e+03
   1.101072e+05   1.387254e+05
  -2.554506e+04   2.812901e+05
  -3.587800e+05   1.831656e+05
  -4.498256e+05  -9.786233e+04
  -1.518719e+05  -2.757292e+05
   2.069573e+05  -1.933917e+05
   2.333611e+05   2.325139e+04
  -9.244419e+04   1.495222e+05
  -4.319255e+05   7.193751e+04
  -4.393739e+05  -1.712655e+05
  -6.537178e+04  -4.176175e+05
   4.016853e+05  -4.434473e+05
   5.678470e+05  -1.567226e+05
   2.920566e+05   2.250745e+05
  -1.484888e+05   3.348437e+05
  -3.175215e+05   7.749050e+04
  -7.511467e+04  -2.249222e+05
   2.872742e+05  -2.111293e+05
   3.871298e+05   8.971467e+04
   1.494394e+05   3.265678e+05
  -1.695969e+05   2.629884e+05
  -2.781922e+05   1.293963e+04
  -1.124540e+05  -1.429946e+05
   1.341889e+05  -6.039726e+04
   1.868325e+05   1.635026e+05
  -5.464347e+04   2.988458e+05
  -3.807386e+05   1.782483e+05
  -4.473468e+05  -1.449677e+05
  -1.480974e+05  -4.109277e+05
   2.400626e+05  -3.852585e+05
   3.563891e+05  -1.020111e+05
   1.525967e+05   1.692242e+05
  -9.930272e+04   2.103246e+05
  -1.547028e+05   5.841794e+04
  -3.576438e+04  -8.783531e+04
   7.430516e+04  -1.011283e+05
   5.988601e+04  -2.740125e+04
  -4.193342e+04   8.600670e+02
  -1.016870e+05  -8.726211e+04
  -4.413903e+03  -2.171774e+05
   2.341643e+05  -2.167431e+05
   4.248642e+05   1.141126e+04
   3.550660e+05   3.426452e+05
   3.290418e+04   5.069274e+05
  -2.838321e+05   3.599963e+05
  -3.612357e+05   4.430685e+04
  -2.333029e+05  -1.682294e+05
  -1.080351e+05  -1.644806e+05
  -9.085872e+04  -6.695026e+04
  -9.770036e+04  -4.650741e+04
  -1.697369e+04  -1.282131e+05
   1.408286e+05  -1.912754e+05
   2.630568e+05  -1.119876e+05
   2.335225e+05   1.046718e+05
   1.322005e+04   3.004099e+05
  -2.970877e+05   2.758782e+05
  -4.675324e+05  -1.556298e+04
  -3.106650e+05  -3.724473e+05
   1.025930e+05  -5.008569e+05
   4.601828e+05  -3.018689e+05
   5.030664e+05   3.068104e+04
   2.715164e+05   2.271245e+05
   2.024929e+04   2.171460e+05
  -6.753470e+04   1.491692e+05
  -2.719650e+04   1.718801e+05
  -9.404214e+03   2.610511e+05
  -1.008593e+05   2.678419e+05
  -2.470507e+05   9.629338e+04
  -3.052762e+05  -1.821258e+05
  -1.752951e+05  -3.725446e+05
   8.225789e+04  -3.189119e+05
   2.640235e+05  -5.198543e+04
   2.106048e+05   2.190208e+05
  -1.695645e+04   2.872862e+05
  -1.919272e+05   1.325348e+05
  -1.671111e+05  -8.303088e+04
  -2.337866e+04  -1.917392e+05
   5.004798e+04  -1.664145e+05
  -1.378964e+04  -9.675248e+04
  -8.995591e+04  -6.633497e+04
  -1.592157e+04  -7.752876e+04
   2.114524e+05  -7.162213e+04
   4.039275e+05   5.648133e+03
   3.545196e+05   1.465615e+05
   5.558109e+04   2.675301e+05
  -2.644530e+05   2.669694e+05
  -3.528338e+05   1.272125e+05
  -1.840834e+05  -4.412302e+04
   3.130408e+04  -1.057052e+05
   9.000310e+04  -2.810395e+04
  -3.502503e+03   7.169631e+04
  -9.962475e+04   5.939768e+04
  -1.036477e+05  -6.286525e+04
  -5.056669e+04  -1.560137e+05
  -1.461602e+04  -1.059232e+05
  -2.117752e+04   3.333482e+04
  -4.881428e+04   8.896499e+04
  -5.500447e+04  -2.890907e+04
   8.607137e+03  -2.045658e+05
   1.428161e+05  -2.328935e+05
   2.440912e+05  -5.442985e+04
   1.746620e+05   1.673208e+05
  -5.690117e+04   2.226519e+05
  -2.393762e+05   7.839202e+04
  -1.645504e+05  -1.049127e+05
   1.195663e+05  -1.536142e+05
   3.315035e+05  -3.884459e+04
   2.521294e+05   1.309788e+05
  -4.578386e+04   2.219884e+05
  -2.847448e+05   1.707814e+05
  -2.678794e+05   2.118796e+04
  -5.581175e+04  -1.012136e+05
   1.175746e+05  -8.646484e+04
   8.087596e+04   4.173323e+04
  -1.138359e+05   1.196992e+05
  -2.484187e+05   6.362706e+03
  -1.591634e+05  -2.366092e+05
   9.608853e+04  -3.694023e+05
   2.974972e+05  -2.156897e+05
   2.834783e+05   1.300260e+05
   9.157804e+04   3.708953e+05
  -1.113135e+05   2.992550e+05
  -1.935548e+05   5.494442e+03
  -1.376320e+05  -2.236447e+05
  -8.428695e+03  -2.079332e+05
   1.018635e+05  -4.104764e+04
   1.212419e+05   5.879838e+04
   5.536790e+04   2.020826e+04
   9.616507e+02  -2.468149e+04
   4.353280e+04   5.004944e+04
   1.272304e+05   1.836253e+05
   9.194102e+04   2.154540e+05
  -1.156232e+05   9.972362e+04
  -3.233985e+05  -5.185858e+04
  -3.055321e+05  -1.288319e+05
  -5.816986e+04  -1.337491e+05
   1.792057e+05  -1.147830e+05
   2.006708e+05  -7.399190e+04
   6.042377e+04  -2.621835e+03
  -3.070119e+04   5.340359e+04
   1.583855e+04   4.542307e+04
   7.682782e+04   1.133688e+04
   8.957756e+03   2.659312e+04
  -1.488153e+05   6.875483e+04
  -2.160007e+05   2.359113e+04
  -8.393017e+04  -1.377550e+05
   1.607378e+05  -2.654670e+05
   3.245695e+05  -1.880804e+05
   2.871313e+05   6.835323e+04
   9.045757e+04   2.885007e+05
  -1.166808e+05   2.968767e+05
  -2.034216e+05   1.291730e+05
  -1.468402e+05  -3.518831e+04
  -3.175717e+04  -7.059377e+04
   2.960126e+04  -1.205866e+04
  -5.884284e+03   1.415073e+04
  -7.791868e+04  -5.794276e+04
  -8.287639e+04  -1.558756e+05
   1.994255e+04  -1.450202e+05
   1.525251e+05   1.224772e+04
   1.775020e+05   1.899409e+05
   3.610186e+04   2.176772e+05
  -1.659132e+05   6.259169e+04
  -2.364347e+05  -1.369602e+05
  -9.176771e+04  -2.197826e+05
   1.361958e+05  -1.493264e+05
   2.269172e+05  -8.322497e+03
   1.136000e+05   1.033871e+05
  -4.353372e+04   1.327640e+05
  -5.481617e+04   7.915065e+04
   6.795729e+04  -3.593272e+03
   1.368908e+05  -2.476144e+04
   3.215912e+04   5.900970e+04
  -1.514174e+05   1.658578e+05
  -2.298440e+05   1.526905e+05
  -1.448635e+05  -1.114194e+04
  -4.813669e+02  -1.787143e+05
   8.143291e+04  -1.818147e+05
   7.414806e+04  -2.874382e+04
   1.898563e+04   1.066731e+05
  -4.352185e+04   8.977577e+04
  -8.276364e+04  -3.308743e+04
  -6.662804e+04  -1.138290e+05
   7.420579e+03  -8.023028e+04
   8.452848e+04   3.854010e+03
   9.884987e+04   3.851487e+04
   4.941677e+04   6.231020e+03
  -1.320354e+03  -2.303409e+04
  -9.474450e+03   1.297171e+04
  -9.407230e+02   8.849276e+04
  -2.525241e+04   1.131335e+05
  -7.824582e+04   3.528785e+04
  -9.592431e+04  -8.815820e+04
  -2.928751e+04  -1.416081e+05
   8.483345e+04  -7.274452e+04
   1.402983e+05   5.144276e+04
   6.402960e+04   1.189474e+05
  -9.191738e+04   8.583362e+04
  -1.800099e+05   1.704816e+02
  -1.065081e+05  -6.695674e+04
   5.403257e+04  -8.266086e+04
   1.289720e+05  -5.269421e+04
   4.366831e+04  -3.611896e+03
  -8.810805e+04   2.128217e+04
  -9.886154e+04  -1.297415e+04
   3.363459e+04  -7.895156e+04
   1.652848e+05  -8.499219e+04
