
 $NMID
 id='ANONYMOUS ', fmtdat='(2E16.6)'
 volume=1.0
 tramp=1.0
 $END
  -3.853738e+07   1.014419e+06
  -2.435065e+07  -2.181152e+07
   3.186690e+06  -2.573371e+07
   1.796270e+07  -1.201327e+07
   1.197761e+07   2.864372e+06
  -1.292549e+06   6.521634e+06
  -6.932065e+06   4.315355e+05
  -3.061153e+06  -6.432867e+06
   3.388843e+06  -7.506702e+06
   6.659819e+06  -2.399897e+06
   5.289191e+06   4.265642e+06
   8.318387e+05   6.415883e+06
  -2.924018e+06   1.932979e+06
  -2.249770e+06  -4.387071e+06
   2.316754e+06  -5.396194e+06
   5.662116e+06   3.375043e+05
   3.691898e+06   7.032788e+06
  -2.131877e+06   8.538019e+06
  -6.926614e+06   4.392239e+06
  -7.499529e+06  -1.403352e+06
  -4.357577e+06  -5.105650e+06
  -3.540453e+05  -5.522300e+06
   1.461197e+06  -3.717114e+06
   1.838042e+05  -2.078654e+06
  -1.553064e+06  -2.422252e+06
  -1.863604e+04  -3.806811e+06
   4.636645e+06  -3.357372e+06
   7.595575e+06  -1.384810e+05
   5.165785e+06   3.197351e+06
  -2.931136e+05   3.689325e+06
  -3.301529e+06   1.581529e+06
  -1.859653e+06  -6.441150e+05
   1.211042e+06  -1.321764e+06
   2.658548e+06  -3.201766e+05
   1.931066e+06   1.780097e+06
   1.422202e+05   3.468636e+06
  -1.524827e+06   2.669377e+06
  -1.948516e+06  -5.088489e+05
  -7.391123e+05  -2.563857e+06
   5.914832e+05  -7.429794e+05
  -6.534707e+03   2.446183e+06
  -1.923169e+06   2.049252e+06
  -1.997067e+06  -2.068821e+06
   1.086375e+06  -4.325638e+06
   4.262115e+06  -9.963347e+05
   3.566546e+06   4.447020e+06
  -9.124899e+05   5.809402e+06
  -5.114101e+06   1.861153e+06
  -5.439932e+06  -2.996356e+06
  -1.915204e+06  -4.501471e+06
   2.459625e+06  -2.436459e+06
   4.301146e+06   6.814406e+05
   2.326614e+06   2.418678e+06
  -1.454929e+06   1.787357e+06
  -3.308989e+06  -3.483930e+05
  -1.627777e+06  -1.772330e+06
   1.133863e+06  -1.047939e+06
   1.494297e+06   6.539571e+05
  -5.865554e+05   9.429342e+05
  -1.845116e+06  -6.195339e+05
  -1.984620e+05  -2.028294e+06
   2.674873e+06  -1.562722e+06
   3.709745e+06   4.110141e+05
   1.910027e+06   2.565218e+06
  -1.315059e+06   3.958291e+06
  -3.991214e+06   3.747214e+06
  -4.776348e+06   1.263237e+06
  -3.333326e+06  -2.488262e+06
  -7.217458e+05  -4.734596e+06
   1.082641e+06  -3.820209e+06
   1.076821e+06  -1.395797e+06
   3.558653e+05  -3.195775e+05
   5.938716e+05  -9.697119e+05
   1.801143e+06  -1.203490e+06
   2.454372e+06   2.462491e+05
   1.569158e+06   1.995408e+06
  -2.428063e+05   2.011023e+06
  -1.627264e+06   1.478367e+05
  -1.594276e+06  -1.925618e+06
   2.840720e+04  -2.536680e+06
   2.313087e+06  -1.242264e+06
   3.463752e+06   1.082463e+06
   2.344308e+06   2.866400e+06
  -4.756513e+04   3.017124e+06
  -1.543439e+06   1.915191e+06
  -1.463230e+06   9.315206e+05
  -1.314691e+06   7.497172e+05
  -2.380041e+06   6.318009e+05
  -3.636346e+06  -3.973895e+05
  -3.028318e+06  -2.159306e+06
  -2.626848e+05  -3.490963e+06
   2.659526e+06  -3.404614e+06
   3.591747e+06  -1.799872e+06
   2.237964e+06   4.799203e+05
   8.731332e+04   1.970446e+06
  -1.047808e+06   1.592572e+06
  -4.601568e+05  -8.559962e+04
   9.522707e+05  -1.112458e+06
   1.559399e+06  -3.651966e+05
   7.177415e+05   9.679644e+05
  -4.721670e+05   9.731531e+05
  -4.958679e+05  -2.884202e+05
   6.800783e+05  -8.069616e+05
   1.585879e+06   5.926393e+05
   1.028166e+06   2.615790e+06
  -7.071948e+05   3.116074e+06
  -2.418499e+06   1.540494e+06
  -3.091790e+06  -8.062088e+05
  -2.350944e+06  -2.330786e+06
  -5.726662e+05  -2.372144e+06
   1.079726e+06  -1.318291e+06
   1.392022e+06  -2.012502e+05
   4.258523e+05   2.444856e+04
  -3.334764e+05  -6.290830e+05
   2.702656e+05  -1.106559e+06
   1.521291e+06  -5.400354e+05
   1.717240e+06   6.135960e+05
   4.138518e+05   1.128054e+06
  -9.598343e+05   5.485921e+05
  -8.451101e+05  -3.498412e+05
   6.563361e+05  -5.880273e+05
   1.977999e+06   5.541449e+04
   1.726377e+06   1.099125e+06
  -5.164667e+04   1.821627e+06
  -1.948296e+06   1.594049e+06
  -2.396340e+06   3.532129e+05
  -1.073199e+06  -1.005676e+06
   7.141139e+05  -1.244677e+06
   1.250471e+06  -1.884702e+05
   1.572621e+05   8.777334e+05
  -1.263637e+06   6.602444e+05
  -1.504820e+06  -5.781788e+05
  -4.155690e+05  -1.394684e+06
   8.394147e+05  -9.446401e+05
   1.105179e+06   1.345224e+05
   3.005257e+05   6.263213e+05
  -6.368237e+05   7.922940e+04
  -6.418338e+05  -8.747102e+05
   4.771483e+05  -1.229292e+06
   1.722108e+06  -4.978125e+05
   1.769288e+06   8.589373e+05
   3.906778e+05   1.761088e+06
  -1.159774e+06   1.454395e+06
  -1.463961e+06   2.643386e+05
  -4.887660e+05  -7.108498e+05
   5.224380e+05  -7.287475e+05
   5.837584e+05  -8.393817e+04
  -5.223873e+04   3.869849e+05
  -4.748659e+05   2.761815e+05
  -2.332513e+05  -6.748798e+04
   3.195318e+05  -5.194203e+04
   5.006253e+05   4.744686e+05
  -8.014469e+04   1.012007e+06
  -1.141005e+06   8.308408e+05
  -1.806752e+06  -2.817869e+05
  -1.318055e+06  -1.627243e+06
   1.127913e+05  -2.113695e+06
   1.356760e+06  -1.328137e+06
   1.518711e+06   6.948223e+03
   8.617782e+05   7.944819e+05
   3.332279e+05   6.834383e+05
   3.569625e+05   2.621576e+05
   4.669246e+05   2.278658e+05
   8.671961e+04   6.059055e+05
  -7.023326e+05   8.209157e+05
  -1.257667e+06   3.720954e+05
  -9.946629e+05  -6.044636e+05
   1.261558e+05  -1.338626e+06
   1.461703e+06  -1.032115e+06
   1.987158e+06   3.330170e+05
   1.084264e+06   1.764207e+06
  -7.373823e+05   2.065979e+06
  -2.114157e+06   1.011838e+06
  -2.079147e+06  -4.253095e+05
  -9.638658e+05  -1.116681e+06
   9.044639e+04  -9.020838e+05
   3.733051e+05  -5.336557e+05
   1.513491e+05  -6.522784e+05
   1.063021e+05  -1.071449e+06
   5.255161e+05  -1.083601e+06
   1.076249e+06  -2.960643e+05
   1.174005e+06   9.017732e+05
   5.301753e+05   1.626577e+06
  -5.040993e+05   1.262371e+06
  -1.117449e+06   5.067513e+04
  -7.572274e+05  -1.052869e+06
   2.451195e+05  -1.209933e+06
   9.296579e+05  -4.413806e+05
   7.082208e+05   4.867943e+05
  -1.416740e+04   8.772484e+05
  -3.589547e+05   6.971690e+05
  -2.525690e+04   3.921012e+05
   3.723849e+05   2.966095e+05
   5.463182e+04   3.388244e+05
  -9.592675e+05   2.253014e+05
  -1.755328e+06  -2.116561e+05
  -1.427561e+06  -8.205270e+05
  -5.603517e+04  -1.200753e+06
   1.283791e+06  -1.013097e+06
   1.551577e+06  -3.301300e+05
   7.486141e+05   3.349163e+05
  -1.850147e+05   4.676321e+05
  -4.221797e+05   7.021046e+04
  -1.687389e+04  -3.268163e+05
   3.972179e+05  -2.283695e+05
   4.202584e+05   2.830216e+05
   1.955995e+05   6.362175e+05
   5.362376e+04   4.189227e+05
   1.191245e+05  -1.198681e+05
   2.670690e+05  -3.049720e+05
   2.548843e+05   1.883501e+05
  -1.150895e+05   8.782082e+05
  -7.464592e+05   9.414998e+05
  -1.123093e+06   1.563601e+05
  -7.112730e+05  -7.735032e+05
   3.293450e+05  -9.562503e+05
   1.052322e+06  -2.832550e+05
   6.476235e+05   4.897648e+05
  -5.760329e+05   5.919945e+05
  -1.398516e+06  -6.974548e+03
  -9.589376e+05  -7.008682e+05
   3.416942e+05  -9.073467e+05
   1.292896e+06  -5.263831e+05
   1.114310e+06   9.133158e+04
   1.564037e+05   4.509738e+05
  -5.483181e+05   2.741525e+05
  -3.265203e+05  -2.310650e+05
   5.148474e+05  -4.516601e+05
   1.028730e+06   6.720860e+04
   5.817066e+05   1.025888e+06
  -5.075237e+05   1.486002e+06
  -1.287769e+06   7.891293e+05
  -1.115849e+06  -6.371883e+05
  -2.261254e+05  -1.565185e+06
   6.050795e+05  -1.173034e+06
   8.177048e+05   9.965029e+04
   4.385430e+05   1.020730e+06
  -1.272606e+05   8.679672e+05
  -4.766600e+05   1.033480e+05
  -4.427608e+05  -3.189942e+05
  -1.740831e+05  -1.211869e+05
  -2.827834e+04   9.194777e+04
  -2.130179e+05  -2.344339e+05
  -4.588981e+05  -8.208235e+05
  -2.318785e+05  -9.378521e+05
   5.743802e+05  -3.686925e+05
   1.306746e+06   3.610325e+05
   1.172561e+06   6.882169e+05
   1.859262e+05   5.976200e+05
  -7.574727e+05   3.919291e+05
  -8.620057e+05   1.997817e+05
  -2.940663e+05  -2.245256e+04
   1.297967e+05  -1.996600e+05
  -5.804681e+03  -1.917500e+05
  -2.662200e+05  -8.813207e+04
  -3.623833e+04  -1.180874e+05
   6.039458e+05  -2.176364e+05
   9.106989e+05  -1.148814e+04
   3.541975e+05   5.908495e+05
  -7.288873e+05   1.037769e+06
  -1.442962e+06   6.867657e+05
  -1.210247e+06  -3.545987e+05
  -2.711222e+05  -1.224909e+06
   6.221774e+05  -1.212664e+06
   9.016137e+05  -4.814366e+05
   5.845024e+05   1.986117e+05
   1.150937e+05   3.097885e+05
  -8.518822e+04   4.653903e+04
   5.942925e+04  -3.450640e+04
   2.846294e+05   3.024145e+05
   2.500652e+05   6.963561e+05
  -1.423597e+05   5.924960e+05
  -6.048877e+05  -1.021908e+05
  -6.599140e+05  -8.264025e+05
  -1.041991e+05  -8.967061e+05
   6.669242e+05  -2.173886e+05
   9.195440e+05   6.196969e+05
   3.212824e+05   9.405361e+05
  -6.076235e+05   5.957110e+05
  -9.672671e+05  -3.961294e+04
  -4.665776e+05  -5.039487e+05
   2.312306e+05  -5.786393e+05
   3.013398e+05  -3.245558e+05
  -2.382228e+05  -5.572027e+03
  -5.715855e+05   5.134495e+04
  -1.295792e+05  -2.612197e+05
   6.991346e+05  -6.200552e+05
   1.062262e+06  -5.226173e+05
   6.474887e+05   1.179855e+05
  -6.047870e+04   7.531782e+05
  -4.387477e+05   7.528243e+05
  -3.480412e+05   1.367571e+05
  -5.197616e+04  -4.262060e+05
   2.006775e+05  -3.768044e+05
   3.153253e+05   1.352336e+05
   2.366705e+05   4.969617e+05
  -3.989715e+04   3.587069e+05
  -3.426942e+05  -3.481733e+04
  -4.155230e+05  -2.185890e+05
  -2.128272e+05  -6.553536e+04
   2.362086e+04   1.172037e+05
   6.926483e+04   6.492366e+03
   1.657640e+03  -3.226970e+05
   6.386330e+04  -4.668652e+05
   2.869437e+05  -1.700685e+05
   3.911810e+05   3.406370e+05
   1.263559e+05   5.673075e+05
  -3.564767e+05   2.797997e+05
  -5.784938e+05  -2.363254e+05
  -2.314279e+05  -5.007606e+05
   4.267225e+05  -3.314017e+05
   7.633721e+05   4.765874e+04
   4.246513e+05   3.157650e+05
  -2.456381e+05   3.455373e+05
  -5.480107e+05   2.026465e+05
  -2.050907e+05   1.935660e+04
   3.201534e+05  -5.947114e+04
   3.674102e+05   6.044403e+04
  -1.509268e+05   2.725443e+05
  -6.646071e+05   2.629885e+05
