
 $NMID
 id='ANONYMOUS ', fmtdat='(2E16.6)'
 volume=1.0
 tramp=1.0
 $END
   4.308788e+07   1.614783e+06
   2.553424e+07   2.591412e+07
  -5.347083e+06   2.834310e+07
  -2.072713e+07   1.218223e+07
  -1.305796e+07  -3.881512e+06
   1.857310e+06  -7.136210e+06
   7.707672e+06  -9.424052e+04
   3.026829e+06   7.309512e+06
  -4.182120e+06   8.174793e+06
  -7.547379e+06   2.280842e+06
  -5.642651e+06  -5.133911e+06
  -5.115683e+05  -7.267381e+06
   3.442609e+06  -1.960981e+06
   2.299497e+06   5.103309e+06
  -2.883663e+06   5.925396e+06
  -6.276769e+06  -7.220041e+05
  -3.664096e+06  -8.077641e+06
   2.934976e+06  -9.373108e+06
   8.031535e+06  -4.414804e+06
   8.279259e+06   2.121007e+06
   4.469784e+06   6.046158e+06
  -6.614410e+04   6.177627e+06
  -1.911626e+06   3.957948e+06
  -2.518368e+05   2.217303e+06
   1.715610e+06   2.817372e+06
  -1.774171e+05   4.353039e+06
  -5.479558e+06   3.538169e+06
  -8.616446e+06  -3.290458e+05
  -5.612211e+06  -3.969374e+06
   6.260018e+05  -4.184937e+06
   3.906467e+06  -1.588970e+06
   2.118427e+06   9.004858e+05
  -1.454325e+06   1.525614e+06
  -3.089124e+06   2.640808e+05
  -2.129317e+06  -2.160749e+06
   6.453613e+04  -3.981780e+06
   1.929458e+06  -2.892917e+06
   2.158536e+06   7.852747e+05
   6.048533e+05   2.975848e+06
  -7.769708e+05   7.467291e+05
   1.344852e+05  -2.822132e+06
   2.274884e+06  -2.209617e+06
   2.095085e+06   2.427004e+06
  -1.474350e+06   4.720709e+06
  -4.773815e+06   7.818116e+05
  -3.646483e+06  -5.207345e+06
   1.410785e+06  -6.394677e+06
   5.838979e+06  -1.730073e+06
   5.919210e+06   3.679550e+06
   1.900469e+06   5.144453e+06
  -2.887213e+06   2.600417e+06
  -4.787335e+06  -9.857371e+05
  -2.475327e+06  -2.824437e+06
   1.729590e+06  -1.902039e+06
   3.674693e+06   5.956338e+05
   1.702710e+06   2.079178e+06
  -1.339567e+06   1.098989e+06
  -1.645253e+06  -8.147111e+05
   6.758396e+05  -1.013511e+06
   1.981847e+06   7.708355e+05
   9.356284e+04   2.207645e+06
  -3.043329e+06   1.530212e+06
  -4.075887e+06  -6.850292e+05
  -1.957161e+06  -2.965979e+06
   1.734020e+06  -4.359594e+06
   4.740019e+06  -3.977353e+06
   5.467316e+06  -1.114354e+06
   3.587629e+06   3.035870e+06
   5.073782e+05   5.381949e+06
  -1.430848e+06   4.216478e+06
  -1.246783e+06   1.506385e+06
  -3.908337e+05   3.852702e+05
  -7.498496e+05   1.121570e+06
  -2.158841e+06   1.283486e+06
  -2.810891e+06  -4.358976e+05
  -1.688705e+06  -2.387989e+06
   3.923767e+05  -2.305068e+06
   1.881775e+06  -9.951869e+04
   1.727595e+06   2.274575e+06
  -1.740541e+05   2.884311e+06
  -2.705634e+06   1.266635e+06
  -3.851029e+06  -1.452318e+06
  -2.444717e+06  -3.389668e+06
   2.692245e+05  -3.379582e+06
   1.859929e+06  -2.025945e+06
   1.681841e+06  -9.359821e+05
   1.500554e+06  -7.687837e+05
   2.706157e+06  -5.917074e+05
   4.074972e+06   6.375876e+05
   3.301388e+06   2.596638e+06
   1.139434e+05   3.959265e+06
  -3.190496e+06   3.713191e+06
  -4.175263e+06   1.843285e+06
  -2.521057e+06  -6.806930e+05
   1.510624e+04  -2.257495e+06
   1.292849e+06  -1.752690e+06
   5.242809e+05   1.309291e+05
  -1.145244e+06   1.213900e+06
  -1.787597e+06   3.242036e+05
  -7.523024e+05  -1.142928e+06
   5.951799e+05  -1.085324e+06
   5.578968e+05   3.422876e+05
  -7.830663e+05   8.792710e+05
  -1.729461e+06  -7.204421e+05
  -1.027396e+06  -2.960504e+06
   9.147121e+05  -3.458944e+06
   2.763469e+06  -1.633359e+06
   3.443622e+06   1.036367e+06
   2.560357e+06   2.740350e+06
   5.415964e+05   2.716351e+06
  -1.293105e+06   1.439353e+06
  -1.592345e+06   1.526286e+05
  -4.802357e+05  -5.133704e+04
   3.459189e+05   7.295214e+05
  -3.641286e+05   1.233243e+06
  -1.746088e+06   5.247735e+05
  -1.904597e+06  -7.839808e+05
  -4.081829e+05  -1.294879e+06
   1.113798e+06  -5.752758e+05
   9.476208e+05   4.324763e+05
  -7.555117e+05   6.383492e+05
  -2.229099e+06  -1.429313e+05
  -1.910217e+06  -1.316199e+06
   1.349905e+05  -2.059932e+06
   2.280854e+06  -1.711277e+06
   2.729786e+06  -2.771990e+05
   1.157249e+06   1.194369e+06
  -8.788993e+05   1.364745e+06
  -1.422966e+06   1.383682e+05
  -1.257089e+05  -1.004786e+06
   1.466225e+06  -6.800522e+05
   1.671645e+06   7.303315e+05
   4.019032e+05   1.595628e+06
  -9.908935e+05   1.027413e+06
  -1.241122e+06  -2.019747e+05
  -3.121709e+05  -7.202205e+05
   7.209648e+05  -5.865748e+04
   6.816718e+05   1.021067e+06
  -6.027219e+05   1.367201e+06
  -1.975446e+06   4.741819e+05
  -1.957242e+06  -1.065281e+06
  -3.489667e+05  -2.012509e+06
   1.387476e+06  -1.582484e+06
   1.668581e+06  -2.216126e+05
   5.171701e+05   8.297647e+05
  -6.282140e+05   8.002513e+05
  -6.721146e+05   6.787975e+04
   6.674943e+04  -4.405145e+05
   5.486740e+05  -3.025360e+05
   2.737382e+05   7.737746e+04
  -3.467902e+05   4.553974e+04
  -5.354553e+05  -5.501658e+05
   1.385352e+05  -1.131623e+06
   1.328301e+06  -8.794177e+05
   2.026865e+06   4.106222e+05
   1.405298e+06   1.908195e+06
  -2.371103e+05   2.386473e+06
  -1.601429e+06   1.436909e+06
  -1.718826e+06  -7.992815e+04
  -9.431066e+05  -9.424763e+05
  -3.518839e+05  -7.996723e+05
  -3.893979e+05  -3.267428e+05
  -5.058904e+05  -2.843239e+05
  -6.087024e+04  -6.834616e+05
   8.318117e+05  -8.885832e+05
   1.435864e+06  -3.604444e+05
   1.097362e+06   7.292109e+05
  -2.024085e+05   1.507543e+06
  -1.700802e+06   1.096040e+06
  -2.230572e+06  -4.750869e+05
  -1.138456e+06  -2.046924e+06
   9.350816e+05  -2.294222e+06
   2.436604e+06  -1.035883e+06
   2.328195e+06   5.809722e+05
   1.040828e+06   1.306543e+06
  -1.383820e+05   1.019378e+06
  -4.493115e+05   5.952190e+05
  -2.153062e+05   7.370856e+05
  -1.860877e+05   1.204767e+06
  -6.535162e+05   1.192810e+06
  -1.231422e+06   2.749596e+05
  -1.280588e+06  -1.083222e+06
  -5.149891e+05  -1.869281e+06
   6.370646e+05  -1.403365e+06
   1.267261e+06  -1.480948e+03
   8.020256e+05   1.226190e+06
  -3.357726e+05   1.352131e+06
  -1.064876e+06   4.527632e+05
  -7.685413e+05  -5.789020e+05
   5.903868e+04  -9.820196e+05
   4.334224e+05  -7.656903e+05
   4.379871e+04  -4.434835e+05
  -4.045482e+05  -3.573572e+05
  -4.328360e+04  -3.865405e+05
   1.092283e+06  -2.035488e+05
   1.968230e+06   3.313009e+05
   1.570184e+06   9.991782e+05
   4.169352e+03   1.354321e+06
  -1.500023e+06   1.074038e+06
  -1.768410e+06   2.948449e+05
  -8.272357e+05  -4.101189e+05
   2.330652e+05  -5.141461e+05
   4.771717e+05  -5.879694e+04
  -3.597443e+03   3.670137e+05
  -4.644984e+05   2.363902e+05
  -4.590268e+05  -3.433563e+05
  -1.829511e+05  -7.343560e+05
  -3.385802e+04  -4.802049e+05
  -1.387921e+05   1.326587e+05
  -3.179442e+05   3.382955e+05
  -2.783366e+05  -2.232501e+05
   1.766164e+05  -9.889985e+05
   8.921212e+05  -1.024841e+06
   1.273589e+06  -1.120818e+05
   7.582444e+05   9.153643e+05
  -4.251484e+05   1.059422e+06
  -1.204401e+06   2.579385e+05
  -7.067484e+05  -5.902186e+05
   6.807455e+05  -6.392744e+05
   1.581727e+06   7.717558e+04
   1.053595e+06   8.370306e+05
  -4.262379e+05   1.008996e+06
  -1.486547e+06   5.359322e+05
  -1.257979e+06  -1.543985e+05
  -1.569767e+05  -5.179193e+05
   6.326875e+05  -2.841370e+05
   3.552819e+05   2.777222e+05
  -6.098128e+05   4.835287e+05
  -1.162586e+06  -1.337218e+05
  -6.010756e+05  -1.196288e+06
   6.594529e+05  -1.656283e+06
   1.503879e+06  -8.229677e+05
   1.230018e+06   7.823447e+05
   1.733359e+05   1.784971e+06
  -7.447667e+05   1.298678e+06
  -9.191768e+05  -1.514744e+05
  -4.465471e+05  -1.175453e+06
   1.827533e+05  -9.759423e+05
   5.421491e+05  -9.380429e+04
   4.885755e+05   3.826982e+05
   1.955399e+05   1.452818e+05
   3.498167e+04  -1.030316e+05
   2.222642e+05   2.768815e+05
   4.740943e+05   9.533931e+05
   2.184757e+05   1.072470e+06
  -6.639656e+05   3.853679e+05
  -1.461255e+06  -4.769770e+05
  -1.295489e+06  -8.380477e+05
  -1.791035e+05  -6.847106e+05
   8.819308e+05  -4.053454e+05
   9.867390e+05  -1.832032e+05
   3.270981e+05   4.033084e+04
  -1.594482e+05   2.196883e+05
   1.850930e+03   2.169524e+05
   3.029542e+05   1.132077e+05
   3.354791e+04   1.365816e+05
  -7.009738e+05   2.156759e+05
  -1.031840e+06  -3.662978e+04
  -3.623893e+05  -6.906865e+05
   8.863634e+05  -1.135971e+06
   1.668758e+06  -6.956116e+05
   1.346714e+06   4.717016e+05
   2.403932e+05   1.402785e+06
  -7.680000e+05   1.337310e+06
  -1.047521e+06   4.940788e+05
  -6.533477e+05  -2.576702e+05
  -1.121484e+05  -3.576719e+05
   1.043674e+05  -4.777615e+04
  -6.570881e+04   3.824520e+04
  -3.076872e+05  -3.546162e+05
  -2.484192e+05  -8.005745e+05
   1.940018e+05  -6.631658e+05
   6.823777e+05   1.502018e+05
   7.024228e+05   9.755472e+05
   6.474973e+04   1.023389e+06
  -7.721069e+05   2.076607e+05
  -1.008814e+06  -7.557864e+05
  -3.103020e+05  -1.083373e+06
   7.222552e+05  -6.389317e+05
   1.091317e+06   9.890475e+04
   4.971829e+05   5.935005e+05
  -2.942562e+05   6.384811e+05
  -3.551174e+05   3.487122e+05
   2.742011e+05   1.868182e+04
   6.510726e+05  -2.753474e+04
   1.307885e+05   3.025378e+05
  -8.243647e+05   6.652374e+05
  -1.225398e+06   5.361379e+05
  -7.208722e+05  -1.672744e+05
   1.100957e+05  -8.481268e+05
   5.343266e+05  -8.251461e+05
   3.987673e+05  -1.309227e+05
   3.469941e+04   4.881454e+05
  -2.493093e+05   4.139338e+05
  -3.518987e+05  -1.735587e+05
  -2.408093e+05  -5.757382e+05
   6.723529e+04  -4.011287e+05
   3.869273e+05   5.951406e+04
   4.560798e+05   2.679371e+05
   2.360845e+05   8.336566e+04
  -1.708575e+04  -1.320894e+05
  -7.472027e+04  -5.090204e+03
  -2.300541e+04   3.705352e+05
  -1.069608e+05   5.251329e+05
  -3.401433e+05   1.716019e+05
  -4.220861e+05  -4.138839e+05
  -1.062813e+05  -6.532887e+05
   4.214931e+05  -2.967991e+05
   6.410776e+05   3.024316e+05
   2.340756e+05   5.818458e+05
  -5.000186e+05   3.511203e+05
  -8.604413e+05  -9.779988e+04
  -4.628238e+05  -3.810486e+05
   2.983014e+05  -3.753046e+05
   6.324194e+05  -1.959511e+05
   2.306568e+05  -8.482558e+03
  -3.716809e+05   4.948321e+04
  -4.168609e+05  -9.160332e+04
   1.875803e+05  -3.050100e+05
   7.724190e+05  -2.649703e+05
