
 $NMID
 id='ANONYMOUS ', fmtdat='(2E16.6)'
 volume=1.0
 tramp=1.0
 $END
   2.582519e+07  -2.365713e+05
   1.752977e+07   1.160848e+07
   4.505410e+05   1.625008e+07
  -1.090230e+07   1.138305e+07
  -9.551495e+06   1.618205e+06
  -8.522830e+05  -4.686359e+06
   5.297641e+06  -2.709208e+06
   4.301868e+06   4.066609e+06
  -9.506677e+05   7.465713e+06
  -4.865780e+06   3.503677e+06
  -4.369587e+06  -3.371826e+06
  -6.228218e+05  -5.619350e+06
   2.590119e+06  -1.156022e+06
   2.177814e+06   4.725310e+06
  -1.419500e+06   5.607132e+06
  -4.437139e+06   6.818512e+05
  -3.445484e+06  -5.116396e+06
   1.027309e+06  -6.615587e+06
   4.972075e+06  -3.186796e+06
   5.091316e+06   1.518390e+06
   2.082130e+06   3.663280e+06
  -4.460047e+05   2.751698e+06
   1.330364e+04   1.391425e+06
   2.234940e+06   1.977655e+06
   2.643292e+06   3.984762e+06
  -7.039217e+05   4.745841e+06
  -5.570053e+06   2.640817e+06
  -7.373693e+06  -1.037061e+06
  -3.982201e+06  -3.452272e+06
   1.608627e+06  -2.960171e+06
   4.115205e+06  -3.330725e+05
   1.545908e+06   2.125676e+06
  -2.823742e+06   2.318998e+06
  -4.352898e+06  -1.176422e+05
  -2.055836e+06  -3.233608e+06
   1.042974e+06  -4.091741e+06
   1.911673e+06  -1.682400e+06
   5.960393e+05   1.513897e+06
  -7.285099e+05   1.918909e+06
  -5.479126e+05  -8.917676e+05
   8.118975e+05  -3.390207e+06
   2.023200e+06  -2.294507e+06
   1.928051e+06   1.293652e+06
   2.802595e+05   3.159565e+06
  -1.796126e+06   1.095076e+06
  -2.234463e+06  -2.554650e+06
   9.818804e+04  -3.783493e+06
   3.632628e+06  -1.351173e+06
   5.002552e+06   2.328117e+06
   2.431864e+06   4.054093e+06
  -2.059896e+06   2.784066e+06
  -4.476357e+06   1.329851e+04
  -2.898145e+06  -1.921903e+06
   6.950122e+05  -1.765991e+06
   2.707486e+06  -1.511075e+05
   1.629586e+06   1.142353e+06
  -7.646981e+05   8.836218e+05
  -1.656297e+06  -4.687187e+05
  -2.378002e+05  -1.349391e+06
   1.585927e+06  -7.736931e+05
   1.439904e+06   6.791498e+05
  -7.831783e+05   1.492270e+06
  -2.664207e+06   6.361602e+05
  -1.838768e+06  -1.510784e+06
   1.376725e+06  -3.335724e+06
   4.255294e+06  -3.137984e+06
   4.506107e+06  -5.968673e+05
   2.454044e+06   2.671612e+06
   2.523970e+05   4.383751e+06
  -6.140961e+05   3.747293e+06
  -5.619345e+05   2.130487e+06
  -8.456799e+05   1.286404e+06
  -1.889294e+06   1.244541e+06
  -2.902282e+06   5.746671e+05
  -2.803607e+06  -1.327593e+06
  -1.259863e+06  -3.015766e+06
   9.620646e+05  -2.555294e+06
   2.403212e+06   5.058419e+04
   1.906392e+06   2.598917e+06
  -3.243106e+05   2.896082e+06
  -2.605018e+06   8.668914e+05
  -3.116041e+06  -1.628381e+06
  -1.623062e+06  -2.756525e+06
   3.246693e+05  -2.262949e+06
   1.126587e+06  -1.264160e+06
   8.829275e+05  -8.552580e+05
   1.069358e+06  -1.045679e+06
   2.470985e+06  -9.260411e+05
   3.885013e+06   2.739874e+05
   3.292915e+06   2.286490e+06
   2.804293e+05   3.855578e+06
  -3.105191e+06   3.703894e+06
  -4.204176e+06   1.665245e+06
  -2.387746e+06  -9.615113e+05
   3.598697e+05  -2.312823e+06
   1.516810e+06  -1.559357e+06
   4.702536e+05   2.472144e+05
  -1.203026e+06   1.148436e+06
  -1.646790e+06   3.195984e+05
  -5.863028e+05  -1.027356e+06
   6.820470e+05  -1.087043e+06
   7.914314e+05   2.895142e+05
  -3.961043e+05   1.268264e+06
  -1.749942e+06   1.844626e+05
  -1.854414e+06  -2.330785e+06
  -1.790510e+05  -3.833097e+06
   2.350738e+06  -2.652091e+06
   3.896770e+06   3.594240e+05
   3.192170e+06   2.766484e+06
   7.799651e+05   2.968408e+06
  -1.352940e+06   1.493967e+06
  -1.646452e+06   1.063073e+05
  -4.782897e+05  -3.886741e+04
   3.738797e+05   7.026362e+05
  -2.268387e+05   1.136544e+06
  -1.525526e+06   5.679418e+05
  -1.826407e+06  -5.444019e+05
  -5.376791e+05  -1.139518e+06
   1.037953e+06  -6.603201e+05
   1.092433e+06   3.839180e+05
  -6.354786e+05   8.946575e+05
  -2.423979e+06   2.102657e+05
  -2.295901e+06  -1.252894e+06
  -1.045939e+05  -2.297811e+06
   2.254322e+06  -1.960789e+06
   2.741731e+06  -4.186341e+05
   1.169370e+06   1.060852e+06
  -7.568252e+05   1.243088e+06
  -1.239596e+06   1.542268e+05
  -7.228264e+04  -8.975165e+05
   1.393267e+06  -6.875745e+05
   1.696181e+06   5.906435e+05
   5.987562e+05   1.555702e+06
  -8.310332e+05   1.207238e+06
  -1.290442e+06   2.312842e+04
  -4.731682e+05  -6.484802e+05
   6.232838e+05  -1.156701e+05
   6.682125e+05   9.604959e+05
  -5.926438e+05   1.340277e+06
  -1.951233e+06   4.727140e+05
  -1.937539e+06  -1.021357e+06
  -4.061144e+05  -1.954845e+06
   1.265444e+06  -1.609844e+06
   1.623226e+06  -3.336342e+05
   6.033282e+05   7.750346e+05
  -5.639696e+05   8.558739e+05
  -7.504339e+05   7.637238e+04
  -1.406602e+04  -5.977039e+05
   6.670316e+05  -4.728119e+05
   5.243819e+05   1.228312e+05
  -2.237475e+05   2.816906e+05
  -6.349349e+05  -3.544931e+05
  -2.891911e+04  -1.102914e+06
   1.243122e+06  -9.541455e+05
   2.024199e+06   3.170449e+05
   1.446536e+06   1.838742e+06
  -1.664625e+05   2.414687e+06
  -1.576042e+06   1.596099e+06
  -1.837231e+06   5.915087e+04
  -1.141295e+06  -1.027012e+06
  -4.181004e+05  -1.055624e+06
  -2.503567e+05  -4.713664e+05
  -3.483345e+05  -1.963708e+05
  -6.408994e+04  -5.668920e+05
   7.462726e+05  -9.457233e+05
   1.457086e+06  -4.961144e+05
   1.241571e+06   7.283109e+05
  -7.793266e+04   1.655860e+06
  -1.681817e+06   1.250263e+06
  -2.300008e+06  -3.762348e+05
  -1.286296e+06  -1.981341e+06
   7.286236e+05  -2.314454e+06
   2.303210e+06  -1.209732e+06
   2.414026e+06   3.669596e+05
   1.277671e+06   1.273894e+06
  -7.423826e+03   1.195277e+06
  -5.564776e+05   7.571679e+05
  -4.082625e+05   7.112361e+05
  -2.494224e+05   1.067479e+06
  -5.735663e+05   1.109896e+06
  -1.149285e+06   2.810666e+05
  -1.275810e+06  -1.055803e+06
  -5.495600e+05  -1.858535e+06
   6.153761e+05  -1.418378e+06
   1.280848e+06  -6.618472e+04
   8.791551e+05   1.137396e+06
  -1.890167e+05   1.354221e+06
  -9.340329e+05   6.151300e+05
  -7.797230e+05  -3.619404e+05
  -1.090306e+05  -8.813947e+05
   2.430286e+05  -8.092996e+05
  -3.416252e+04  -5.156324e+05
  -3.804535e+05  -3.805101e+05
  -3.284095e+04  -3.987996e+05
   1.026380e+06  -2.605221e+05
   1.893282e+06   2.333106e+05
   1.597939e+06   8.927462e+05
   1.515780e+05   1.278092e+06
  -1.341271e+06   1.086886e+06
  -1.716052e+06   4.244831e+05
  -8.837743e+05  -2.482660e+05
   1.588073e+05  -4.577996e+05
   4.402085e+05  -1.315358e+05
  -3.151848e+04   2.805396e+05
  -5.009046e+05   2.207293e+05
  -4.501899e+05  -3.327004e+05
  -9.665136e+04  -7.524837e+05
   5.126589e+04  -4.803979e+05
  -1.506406e+05   2.070569e+05
  -3.929873e+05   4.310459e+05
  -3.049381e+05  -2.045768e+05
   2.029613e+05  -1.025427e+06
   8.577351e+05  -1.028175e+06
   1.143901e+06  -8.303945e+04
   6.590768e+05   8.922796e+05
  -3.925546e+05   9.719992e+05
  -1.120991e+06   1.915277e+05
  -7.028504e+05  -6.050209e+05
   6.380413e+05  -6.800336e+05
   1.634792e+06  -2.158287e+04
   1.218649e+06   7.895012e+05
  -3.016165e+05   1.115194e+06
  -1.511890e+06   7.240136e+05
  -1.365074e+06  -4.820196e+04
  -2.245205e+05  -5.432951e+05
   6.172283e+05  -3.532023e+05
   3.313994e+05   2.342056e+05
  -6.458634e+05   4.453339e+05
  -1.153633e+06  -1.853997e+05
  -5.310152e+05  -1.221251e+06
   7.368139e+05  -1.628235e+06
   1.542670e+06  -7.818887e+05
   1.244267e+06   8.018360e+05
   1.941525e+05   1.817511e+06
  -7.291794e+05   1.380693e+06
  -9.543415e+05  -6.831784e+04
  -5.463072e+05  -1.171830e+06
   7.806663e+04  -1.045342e+06
   5.212612e+05  -1.461828e+05
   5.654710e+05   3.951807e+05
   2.708288e+05   1.702998e+05
   7.039123e+03  -1.289386e+05
   1.304749e+05   2.187664e+05
   4.613092e+05   9.290064e+05
   3.291724e+05   1.100688e+06
  -5.639729e+05   4.258133e+05
  -1.500494e+06  -4.555554e+05
  -1.408445e+06  -8.253418e+05
  -2.062028e+05  -6.710522e+05
   9.541384e+05  -4.133741e+05
   1.021885e+06  -2.302144e+05
   2.730619e+05  -1.279259e+04
  -1.847366e+05   2.150591e+05
   8.811419e+04   2.670769e+05
   3.951098e+05   1.641560e+05
   7.736097e+01   1.405529e+05
  -7.985651e+05   1.860144e+05
  -1.026088e+06  -5.107342e+04
  -2.403837e+05  -6.673867e+05
   9.622553e+05  -1.092823e+06
   1.605752e+06  -6.545847e+05
   1.243839e+06   5.054004e+05
   2.188543e+05   1.422246e+06
  -7.330437e+05   1.323841e+06
  -1.043020e+06   4.453501e+05
  -6.694751e+05  -3.043598e+05
  -7.715500e+04  -3.547236e+05
   1.792835e+05   9.023529e+03
  -4.031055e+04   1.019549e+05
  -3.564932e+05  -3.289199e+05
  -2.935295e+05  -8.043652e+05
   2.066484e+05  -6.479305e+05
   7.010349e+05   2.072644e+05
   6.562791e+05   1.031583e+06
  -2.525331e+04   1.012523e+06
  -8.225316e+05   1.259345e+05
  -9.850170e+05  -8.305106e+05
  -2.611496e+05  -1.078691e+06
   7.324237e+05  -5.810046e+05
   1.052708e+06   1.159160e+05
   4.570369e+05   5.317991e+05
  -2.815468e+05   5.650865e+05
  -2.831730e+05   3.379241e+05
   3.512606e+05   5.194674e+04
   6.736653e+05  -1.727320e+04
   1.069035e+05   2.865160e+05
  -8.250271e+05   6.838199e+05
  -1.164775e+06   6.082391e+05
  -6.509433e+05  -9.818962e+04
   1.113991e+05  -8.209937e+05
   4.624189e+05  -8.035646e+05
   3.188718e+05  -8.149283e+04
  -6.253393e+03   5.199040e+05
  -2.610188e+05   3.735345e+05
  -3.544988e+05  -2.427049e+05
  -2.326776e+05  -5.793888e+05
   8.138567e+04  -3.380294e+05
   3.839343e+05   8.913398e+04
   4.371194e+05   2.172174e+05
   2.391109e+05   3.901447e+04
   1.471025e+04  -7.558006e+04
  -8.036495e+04   1.090923e+05
  -1.221940e+05   4.118405e+05
  -2.402605e+05   4.424704e+05
  -3.783301e+05   4.211303e+04
  -3.263072e+05  -4.933322e+05
   1.785440e+04  -6.598388e+05
   4.566703e+05  -2.615863e+05
   5.940897e+05   3.471934e+05
   1.977447e+05   6.103605e+05
  -4.796574e+05   3.437894e+05
  -8.199771e+05  -1.268718e+05
  -4.437001e+05  -3.826756e+05
   2.962140e+05  -3.237285e+05
   6.118997e+05  -1.328340e+05
   1.751725e+05  -3.338337e+02
  -4.479182e+05  -1.178083e+04
  -4.447311e+05  -1.730356e+05
   2.547414e+05  -3.501927e+05
   8.800806e+05  -2.573764e+05
