
 $NMID
 id='ANONYMOUS ', fmtdat='(2E16.6)'
 volume=1.0
 tramp=1.0
 $END
  -2.981987e+07   1.569129e+06
  -2.090985e+07  -1.317991e+07
  -9.746464e+05  -1.916967e+07
   1.255470e+07  -1.326550e+07
   1.105755e+07  -1.627791e+06
   9.132867e+05   5.493684e+06
  -6.116635e+06   2.952115e+06
  -4.842171e+06  -4.740951e+06
   1.169326e+06  -8.421252e+06
   5.571567e+06  -3.952603e+06
   5.043395e+06   3.688210e+06
   8.602629e+05   6.274423e+06
  -2.832296e+06   1.430366e+06
  -2.481703e+06  -5.140457e+06
   1.574421e+06  -6.252605e+06
   5.081366e+06  -7.979221e+05
   4.037368e+06   5.780870e+06
  -1.023446e+06   7.597097e+06
  -5.575429e+06   3.850968e+06
  -5.900816e+06  -1.434473e+06
  -2.691633e+06  -4.028478e+06
   1.935186e+05  -3.294025e+06
  -2.220806e+04  -1.873647e+06
  -2.251248e+06  -2.303884e+06
  -2.777744e+06  -4.256052e+06
   6.746001e+05  -5.110845e+06
   5.963151e+06  -3.034965e+06
   8.116909e+06   8.756182e+05
   4.573864e+06   3.643830e+06
  -1.537117e+06   3.298919e+06
  -4.377339e+06   5.282295e+05
  -1.690216e+06  -2.142780e+06
   2.967326e+06  -2.408926e+06
   4.605631e+06   1.099282e+05
   2.227080e+06   3.393397e+06
  -9.944906e+05   4.405177e+06
  -1.985087e+06   1.974544e+06
  -7.703727e+05  -1.475199e+06
   5.752551e+05  -2.113430e+06
   5.263828e+05   7.998731e+05
  -8.092415e+05   3.610887e+06
  -2.199694e+06   2.537656e+06
  -2.208664e+06  -1.473570e+06
  -2.932740e+05  -3.691548e+06
   2.230493e+06  -1.380919e+06
   2.768969e+06   2.899983e+06
  -4.096889e+03   4.442485e+06
  -4.113366e+06   1.699763e+06
  -5.652925e+06  -2.526845e+06
  -2.730225e+06  -4.514098e+06
   2.289677e+06  -3.100861e+06
   4.969414e+06  -1.045025e+04
   3.207511e+06   2.161395e+06
  -8.143391e+05   2.015669e+06
  -3.083960e+06   2.007198e+05
  -1.861814e+06  -1.301144e+06
   8.568791e+05  -1.031828e+06
   1.833911e+06   5.176180e+05
   1.765629e+05   1.495445e+06
  -1.851311e+06   7.529526e+05
  -1.556050e+06  -9.424486e+05
   1.033197e+06  -1.784667e+06
   3.106399e+06  -7.018970e+05
   2.129005e+06   1.744327e+06
  -1.420304e+06   3.770630e+06
  -4.583388e+06   3.587930e+06
  -4.956449e+06   8.235630e+05
  -2.839364e+06  -2.836941e+06
  -4.261556e+05  -4.848587e+06
   6.588769e+05  -4.188428e+06
   6.848693e+05  -2.317755e+06
   9.210372e+05  -1.302784e+06
   1.945369e+06  -1.298275e+06
   3.039912e+06  -6.845606e+05
   3.016888e+06   1.323515e+06
   1.416491e+06   3.182106e+06
  -9.733837e+05   2.739482e+06
  -2.561697e+06  -3.793855e+04
  -2.079296e+06  -2.784481e+06
   2.968070e+05  -3.149856e+06
   2.809126e+06  -1.026353e+06
   3.475204e+06   1.665727e+06
   1.924182e+06   2.985885e+06
  -2.450314e+05   2.569280e+06
  -1.228383e+06   1.509811e+06
  -1.018087e+06   1.002360e+06
  -1.207010e+06   1.156616e+06
  -2.721018e+06   1.029049e+06
  -4.276780e+06  -2.634437e+05
  -3.641432e+06  -2.471210e+06
  -3.533406e+05  -4.216449e+06
   3.336263e+06  -4.086676e+06
   4.542520e+06  -1.890348e+06
   2.610364e+06   9.778801e+05
  -3.297434e+05   2.498116e+06
  -1.596784e+06   1.725736e+06
  -5.139982e+05  -2.471651e+05
   1.283460e+06  -1.271404e+06
   1.801685e+06  -3.831329e+05
   6.772774e+05   1.110083e+06
  -7.179999e+05   1.189830e+06
  -8.485024e+05  -3.218340e+05
   4.715104e+05  -1.376338e+06
   1.958077e+06  -1.436232e+05
   2.019106e+06   2.621635e+06
   1.285389e+05   4.209224e+06
  -2.624428e+06   2.857576e+06
  -4.253255e+06  -4.253345e+05
  -3.459957e+06  -3.005694e+06
  -8.555915e+05  -3.215159e+06
   1.450716e+06  -1.638879e+06
   1.785049e+06  -1.409512e+05
   5.230376e+05   3.636311e+04
  -4.169280e+05  -7.637596e+05
   2.361388e+05  -1.258690e+06
   1.675823e+06  -6.517186e+05
   2.020325e+06   5.819008e+05
   6.018818e+05   1.255089e+06
  -1.131891e+06   7.321301e+05
  -1.185083e+06  -4.144537e+05
   7.058509e+05  -9.670123e+05
   2.641496e+06  -2.196461e+05
   2.488123e+06   1.361306e+06
   1.108433e+05   2.495073e+06
  -2.445392e+06   2.148312e+06
  -2.989136e+06   4.830366e+05
  -1.297656e+06  -1.151392e+06
   8.091500e+05  -1.384678e+06
   1.366055e+06  -1.971663e+05
   1.042561e+05   9.827368e+05
  -1.514379e+06   7.737941e+05
  -1.863357e+06  -6.322419e+05
  -6.605766e+05  -1.702015e+06
   9.127861e+05  -1.321807e+06
   1.415229e+06  -2.165218e+04
   5.157839e+05   7.153004e+05
  -6.884569e+05   1.359577e+05
  -7.460652e+05  -1.040575e+06
   6.254515e+05  -1.470862e+06
   2.120583e+06  -5.445390e+05
   2.130092e+06   1.087213e+06
   4.696234e+05   2.132632e+06
  -1.367801e+06   1.778023e+06
  -1.775233e+06   3.806422e+05
  -6.653033e+05  -8.455500e+05
   6.103033e+05  -9.400530e+05
   8.096038e+05  -8.946297e+04
   7.284081e+03   6.407351e+05
  -7.189342e+05   5.014684e+05
  -5.467765e+05  -1.374126e+05
   2.657858e+05  -2.955354e+05
   6.996309e+05   4.016308e+05
   3.343585e+04   1.214232e+06
  -1.353230e+06   1.055682e+06
  -2.215924e+06  -3.246665e+05
  -1.603166e+06  -1.991342e+06
   1.543794e+05  -2.635455e+06
   1.706186e+06  -1.749567e+06
   1.999240e+06  -7.137857e+04
   1.235898e+06   1.107413e+06
   4.494667e+05   1.125624e+06
   2.832810e+05   4.887673e+05
   4.017166e+05   2.075994e+05
   8.425047e+04   6.278526e+05
  -8.115048e+05   1.041155e+06
  -1.587266e+06   5.471651e+05
  -1.349985e+06  -7.854359e+05
   8.205199e+04  -1.799629e+06
   1.825941e+06  -1.373234e+06
   2.511152e+06   3.902081e+05
   1.420745e+06   2.154987e+06
  -7.800832e+05   2.542879e+06
  -2.514505e+06   1.344052e+06
  -2.641077e+06  -3.890972e+05
  -1.391537e+06  -1.386763e+06
   1.315893e+04  -1.294626e+06
   5.956133e+05  -8.119889e+05
   4.155920e+05  -7.715460e+05
   2.421728e+05  -1.175445e+06
   6.109808e+05  -1.230178e+06
   1.255980e+06  -3.274429e+05
   1.407601e+06   1.134039e+06
   6.234177e+05   2.020117e+06
  -6.526307e+05   1.554412e+06
  -1.397203e+06   8.422180e+04
  -9.728222e+05  -1.239079e+06
   1.995798e+05  -1.486977e+06
   1.030270e+06  -6.770917e+05
   8.667942e+05   4.032872e+05
   1.224591e+05   9.779072e+05
  -2.727342e+05   8.927381e+05
   3.352323e+04   5.596066e+05
   4.208577e+05   4.059224e+05
   4.153690e+04   4.325683e+05
  -1.124179e+06   2.973142e+05
  -2.078981e+06  -2.315665e+05
  -1.757859e+06  -9.609284e+05
  -1.749677e+05  -1.405838e+06
   1.460721e+06  -1.211926e+06
   1.876158e+06  -4.790584e+05
   9.711669e+05   2.754401e+05
  -1.698273e+05   5.106181e+05
  -4.854840e+05   1.452809e+05
   2.284913e+04  -3.125703e+05
   5.388297e+05  -2.472145e+05
   4.970303e+05   3.566628e+05
   1.228498e+05   8.121902e+05
  -4.126871e+04   5.193186e+05
   1.646804e+05  -2.203698e+05
   4.207650e+05  -4.623517e+05
   3.335422e+05   2.221283e+05
  -2.066892e+05   1.115511e+06
  -9.233128e+05   1.134080e+06
  -1.255071e+06   1.167998e+05
  -7.411141e+05  -9.591784e+05
   4.116649e+05  -1.074532e+06
   1.222521e+06  -2.356160e+05
   7.742164e+05   6.477499e+05
  -6.918273e+05   7.492326e+05
  -1.782471e+06   3.510666e+04
  -1.327474e+06  -8.568999e+05
   3.301542e+05  -1.217562e+06
   1.646039e+06  -7.924510e+05
   1.484915e+06   4.867647e+04
   2.449844e+05   5.904960e+05
  -6.728290e+05   3.885684e+05
  -3.691177e+05  -2.527865e+05
   6.918636e+05  -4.958015e+05
   1.257511e+06   1.802330e+05
   6.010995e+05   1.316845e+06
  -7.708936e+05   1.783108e+06
  -1.664124e+06   8.758616e+05
  -1.365288e+06  -8.550088e+05
  -2.340773e+05  -1.976347e+06
   7.809604e+05  -1.508805e+06
   1.042696e+06   7.021728e+04
   6.034709e+05   1.275254e+06
  -8.338678e+04   1.140036e+06
  -5.707425e+05   1.632357e+05
  -6.142298e+05  -4.258117e+05
  -2.893719e+05  -1.837077e+05
  -9.765779e+03   1.399820e+05
  -1.568746e+05  -2.363590e+05
  -5.187318e+05  -1.007137e+06
  -3.631984e+05  -1.198622e+06
   6.196982e+05  -4.743934e+05
   1.639595e+06   4.789641e+05
   1.537502e+06   8.868386e+05
   2.326993e+05   7.311797e+05
  -1.027955e+06   4.593735e+05
  -1.109929e+06   2.593657e+05
  -3.053083e+05   1.621359e+04
   1.956530e+05  -2.360703e+05
  -8.926314e+04  -2.904036e+05
  -4.216521e+05  -1.740045e+05
  -4.745824e+03  -1.507982e+05
   8.571492e+05  -2.111462e+05
   1.118556e+06   3.925074e+04
   2.838157e+05   7.188554e+05
  -1.023596e+06   1.204323e+06
  -1.743772e+06   7.438516e+05
  -1.370100e+06  -5.239392e+05
  -2.597796e+05  -1.543870e+06
   7.822052e+05  -1.456444e+06
   1.127830e+06  -5.048603e+05
   7.297171e+05   3.188329e+05
   9.240544e+04   3.836214e+05
  -1.855257e+05  -6.561118e+03
   4.841779e+04  -1.074448e+05
   3.903118e+05   3.584142e+05
   3.272151e+05   8.745127e+05
  -2.137527e+05   7.096353e+05
  -7.618995e+05  -2.116920e+05
  -7.309811e+05  -1.106974e+06
   4.176235e+03  -1.099569e+06
   8.853456e+05  -1.535512e+05
   1.083309e+06   8.828258e+05
   3.048185e+05   1.169409e+06
  -7.856079e+05   6.483177e+05
  -1.151358e+06  -1.074518e+05
  -5.128004e+05  -5.761475e+05
   2.956172e+05  -6.270757e+05
   3.094492e+05  -3.773798e+05
  -3.748548e+05  -5.303195e+04
  -7.313267e+05   2.808986e+04
  -1.236709e+05  -3.107962e+05
   8.902659e+05  -7.554452e+05
   1.270164e+06  -6.767344e+05
   7.210669e+05   9.975349e+04
  -1.078546e+05   8.987017e+05
  -4.975490e+05   8.884830e+05
  -3.506495e+05   1.023988e+05
  -2.499878e+03  -5.615255e+05
   2.757428e+05  -4.137730e+05
   3.856421e+05   2.533951e+05
   2.624347e+05   6.272878e+05
  -7.893332e+04   3.743839e+05
  -4.182642e+05  -8.876761e+04
  -4.841356e+05  -2.338402e+05
  -2.634522e+05  -4.321327e+04
  -8.856958e+03   8.577216e+04
   9.207902e+04  -1.095341e+05
   1.207404e+05  -4.411890e+05
   2.387882e+05  -4.853974e+05
   4.008530e+05  -6.073657e+04
   3.667285e+05   5.203327e+05
   7.580167e+02   7.116474e+05
  -4.887662e+05   2.927747e+05
  -6.540633e+05  -3.631401e+05
  -2.258727e+05  -6.576952e+05
   5.191897e+05  -3.833811e+05
   8.973736e+05   1.215322e+05
   4.906793e+05   4.093897e+05
  -3.153422e+05   3.618096e+05
  -6.631381e+05   1.604478e+05
  -1.954342e+05   6.829505e+03
   4.779383e+05   5.254017e+03
   4.800076e+05   1.764424e+05
  -2.691275e+05   3.774171e+05
  -9.453422e+05   2.876986e+05
