
 $NMID
 id='ANONYMOUS ', fmtdat='(2E16.6)'
 volume=1.0
 tramp=1.0
 $END
  -1.153962e+07   7.541387e+05
  -8.311082e+06  -3.706373e+06
  -1.357545e+06  -6.771806e+06
   3.977573e+06  -6.276140e+06
   4.406324e+06  -2.114907e+06
   1.017277e+06   2.046598e+06
  -2.322603e+06   2.100983e+06
  -2.670895e+06  -1.476704e+06
  -3.301063e+05  -3.977756e+06
   2.062298e+06  -2.275410e+06
   2.315434e+06   1.476569e+06
   5.385385e+05   2.866236e+06
  -1.321549e+06   5.859432e+05
  -1.425366e+06  -2.523530e+06
   2.971721e+05  -3.112050e+06
   2.082100e+06  -7.405245e+05
   1.992745e+06   2.225854e+06
  -8.367617e+04   3.200171e+06
  -2.191615e+06   1.651622e+06
  -2.361724e+06  -6.891269e+05
  -8.051915e+05  -1.693300e+06
   3.805815e+05  -1.008258e+06
  -2.569302e+05  -2.315208e+05
  -1.772509e+06  -8.177925e+05
  -1.919662e+06  -2.264509e+06
   2.279614e+05  -2.817763e+06
   3.089004e+06  -1.625327e+06
   4.057428e+06   4.163243e+05
   2.117264e+06   1.772142e+06
  -1.011453e+06   1.611990e+06
  -2.433496e+06   1.905479e+05
  -9.580076e+05  -1.373948e+06
   1.674493e+06  -1.668733e+06
   2.706377e+06  -1.538045e+05
   1.362017e+06   1.915856e+06
  -5.603185e+05   2.434905e+06
  -1.066975e+06   8.279813e+05
  -1.808039e+05  -1.048962e+06
   6.103664e+05  -1.020093e+06
   4.084285e+05   7.709480e+05
  -3.755057e+05   2.094429e+06
  -9.810880e+05   1.396846e+06
  -1.059766e+06  -4.562265e+05
  -5.264563e+05  -1.411791e+06
   4.358706e+05  -5.959452e+05
   1.003962e+06   9.613124e+05
   2.145921e+05   1.627298e+06
  -1.631014e+06   7.584514e+05
  -2.715349e+06  -8.874147e+05
  -1.606609e+06  -1.956275e+06
   8.798272e+05  -1.661890e+06
   2.424663e+06  -3.795718e+05
   1.749727e+06   7.712490e+05
  -1.481612e+05   9.541541e+05
  -1.322567e+06   2.869770e+05
  -9.087161e+05  -4.185155e+05
   3.098167e+05  -4.713590e+05
   9.432376e+05   1.284385e+05
   3.711027e+05   7.619967e+05
  -7.083860e+05   7.548916e+05
  -9.923192e+05   1.738667e+04
  -1.471797e+04  -7.520896e+05
   1.157766e+06  -6.369949e+05
   1.010825e+06   5.201479e+05
  -6.082731e+05   1.753530e+06
  -2.211068e+06   1.808257e+06
  -2.379283e+06   4.157433e+05
  -1.302020e+06  -1.390370e+06
  -2.551859e+05  -2.308963e+06
   5.334674e+04  -2.019783e+06
   6.102795e+04  -1.293963e+06
   4.373004e+05  -9.431950e+05
   1.189396e+06  -8.829062e+05
   1.778859e+06  -3.942813e+05
   1.703378e+06   7.625914e+05
   8.257905e+05   1.778249e+06
  -5.039596e+05   1.572212e+06
  -1.464765e+06   9.366036e+04
  -1.257982e+06  -1.425485e+06
   6.758756e+04  -1.667728e+06
   1.438778e+06  -5.443844e+05
   1.726314e+06   8.404421e+05
   8.743142e+05   1.416454e+06
  -1.462668e+05   1.104827e+06
  -4.903298e+05   5.950461e+05
  -3.213149e+05   4.659575e+05
  -4.610450e+05   6.672484e+05
  -1.290952e+06   6.921158e+05
  -2.156087e+06   9.186998e+04
  -1.955708e+06  -1.075641e+06
  -3.733903e+05  -2.139672e+06
   1.556715e+06  -2.243002e+06
   2.310353e+06  -1.120586e+06
   1.392736e+06   4.836022e+05
  -1.455005e+05   1.357049e+06
  -8.339506e+05   9.360647e+05
  -2.785790e+05  -1.427061e+05
   6.392487e+05  -7.039400e+05
   8.963182e+05  -2.528481e+05
   3.479885e+05   5.452636e+05
  -3.518833e+05   6.563888e+05
  -5.040920e+05  -1.040206e+05
   7.308891e+04  -7.866211e+05
   9.367159e+05  -3.512254e+05
   1.272781e+06   1.071225e+06
   4.995179e+05   2.163131e+06
  -1.069885e+06   1.768956e+06
  -2.259538e+06   1.310216e+05
  -2.050632e+06  -1.376237e+06
  -6.430821e+05  -1.669964e+06
   6.980102e+05  -9.233400e+05
   9.378023e+05  -1.348256e+05
   2.708745e+05  -2.671950e+03
  -2.509769e+05  -3.737385e+05
   5.346914e+04  -6.323550e+05
   7.968267e+05  -3.933875e+05
   1.036730e+06   1.826143e+05
   3.750765e+05   5.887783e+05
  -5.398377e+05   4.394196e+05
  -6.642101e+05  -1.463856e+05
   2.768391e+05  -5.784474e+05
   1.374420e+06  -3.147702e+05
   1.425474e+06   5.608234e+05
   2.290848e+05   1.322941e+06
  -1.159490e+06   1.263232e+06
  -1.524993e+06   3.967696e+05
  -7.083242e+05  -5.206562e+05
   3.542577e+05  -7.140540e+05
   6.632302e+05  -1.398884e+05
   7.048888e+04   4.912144e+05
  -7.427831e+05   4.567064e+05
  -9.870160e+05  -2.255638e+05
  -4.473217e+05  -8.349926e+05
   3.752454e+05  -7.479289e+05
   7.281385e+05  -1.176624e+05
   3.253421e+05   3.257247e+05
  -3.281045e+05   1.050462e+05
  -4.235994e+05  -4.983498e+05
   2.649172e+05  -7.833924e+05
   1.074727e+06  -3.650691e+05
   1.141203e+06   4.737991e+05
   3.336179e+05   1.072802e+06
  -6.143905e+05   9.713791e+05
  -8.889596e+05   2.840888e+05
  -3.915255e+05  -3.976081e+05
   2.644736e+05  -5.205214e+05
   4.369893e+05  -8.586259e+04
   6.286412e+04   3.628792e+05
  -3.645622e+05   3.397970e+05
  -3.507662e+05  -3.587778e+04
   7.530530e+04  -2.055694e+05
   3.820493e+05   1.268878e+05
   1.000473e+05   6.059826e+05
  -6.345221e+05   6.094988e+05
  -1.153821e+06  -6.131135e+04
  -9.125543e+05  -9.523772e+05
  -3.893922e+04  -1.374182e+06
   7.999374e+05  -1.006456e+06
   1.048880e+06  -1.540114e+05
   7.335481e+05   5.294947e+05
   3.117395e+05   6.178620e+05
   1.466268e+05   2.862170e+05
   1.733286e+05   8.485978e+04
   5.868434e+04   2.939477e+05
  -3.549513e+05   5.750075e+05
  -7.922045e+05   3.779118e+05
  -7.611451e+05  -3.398910e+05
  -6.883253e+04  -9.571160e+05
   8.746050e+05  -8.161217e+05
   1.324660e+06   7.631329e+04
   8.489137e+05   1.036323e+06
  -2.585036e+05   1.337883e+06
  -1.209396e+06   8.224229e+05
  -1.387422e+06  -4.585853e+04
  -8.257646e+05  -6.396368e+05
  -8.714561e+04  -7.008727e+05
   2.878508e+05  -4.896237e+05
   2.313758e+05  -4.271676e+05
   1.068742e+05  -5.942461e+05
   2.595936e+05  -6.367092e+05
   6.207812e+05  -2.126037e+05
   7.711478e+05   5.289938e+05
   4.083306e+05   1.019810e+06
  -2.731999e+05   8.341112e+05
  -7.204719e+05   1.133709e+05
  -5.630836e+05  -5.795039e+05
   1.328697e+04  -7.679622e+05
   4.659583e+05  -4.169285e+05
   4.499456e+05   1.259175e+05
   1.308671e+05   4.661740e+05
  -6.047890e+04   4.683141e+05
   6.204885e+04   2.992827e+05
   2.295845e+05   2.010998e+05
   3.667015e+04   2.254753e+05
  -5.512967e+05   2.047841e+05
  -1.061689e+06  -2.342480e+04
  -9.468735e+05  -4.042444e+05
  -1.727907e+05  -6.940216e+05
   6.743169e+05  -6.755612e+05
   9.334064e+05  -3.455744e+05
   5.146594e+05   6.467425e+04
  -5.613047e+04   2.524310e+05
  -2.316535e+05   1.074854e+05
   1.377223e+04  -1.446081e+05
   2.794881e+05  -1.469220e+05
   2.677421e+05   1.645617e+05
   7.587945e+04   4.271567e+05
  -2.123284e+04   2.778263e+05
   7.310087e+04  -1.381149e+05
   2.092372e+05  -2.837441e+05
   1.858641e+05   9.413255e+04
  -6.636245e+04   5.955604e+05
  -4.256917e+05   6.220896e+05
  -6.184741e+05   9.306586e+04
  -3.969165e+05  -4.709914e+05
   1.713644e+05  -5.504761e+05
   6.108351e+05  -1.471556e+05
   4.262241e+05   3.099936e+05
  -3.172199e+05   4.205092e+05
  -9.269141e+05   1.127439e+05
  -7.546617e+05  -3.693654e+05
   8.770751e+04  -6.577738e+05
   8.138574e+05  -5.187527e+05
   7.879320e+05  -6.459576e+04
   1.671649e+05   2.973521e+05
  -3.254258e+05   2.421979e+05
  -1.928537e+05  -1.089583e+05
   3.509194e+05  -2.783097e+05
   6.615047e+05   5.749835e+04
   3.483139e+05   6.713143e+05
  -3.517705e+05   9.539604e+05
  -8.418550e+05   5.111108e+05
  -7.452077e+05  -3.949197e+05
  -2.038390e+05  -1.021701e+06
   3.373486e+05  -8.297058e+05
   5.448742e+05  -2.542731e+04
   3.846168e+05   6.294784e+05
   3.031232e+04   6.024953e+05
  -2.807369e+05   1.174609e+05
  -3.538264e+05  -1.939410e+05
  -1.767680e+05  -8.412819e+04
   8.476932e+03   7.676457e+04
  -6.495937e+04  -1.103435e+05
  -3.028166e+05  -4.981518e+05
  -2.617533e+05  -6.060362e+05
   2.772947e+05  -2.713206e+05
   8.760099e+05   1.779886e+05
   8.561361e+05   3.895070e+05
   1.537699e+05   3.647578e+05
  -5.314297e+05   2.847184e+05
  -5.700303e+05   1.904752e+05
  -1.409962e+05   2.815990e+04
   9.895380e+04  -1.307793e+05
  -8.086580e+04  -1.518076e+05
  -2.506551e+05  -7.827270e+04
  -1.308050e+03  -8.133111e+04
   4.609733e+05  -1.432239e+05
   5.815245e+05  -1.890258e+04
   1.448731e+05   3.660417e+05
  -5.057737e+05   6.597153e+05
  -8.646325e+05   4.380097e+05
  -7.092882e+05  -2.351191e+05
  -1.902121e+05  -7.966949e+05
   3.426287e+05  -7.792989e+05
   5.679854e+05  -2.936557e+05
   3.980963e+05   1.465284e+05
   5.470800e+04   1.973511e+05
  -1.179886e+05  -3.435283e+03
   1.012573e+04  -7.029810e+04
   2.255316e+05   1.611014e+05
   2.141966e+05   4.385466e+05
  -8.775202e+04   3.741177e+05
  -4.123174e+05  -9.213733e+04
  -4.154195e+05  -5.628622e+05
  -1.817703e+04  -5.751301e+05
   4.714220e+05  -9.846505e+04
   5.957995e+05   4.356708e+05
   1.909706e+05   5.974793e+05
  -3.893662e+05   3.535749e+05
  -5.935057e+05  -1.846877e+04
  -2.741318e+05  -2.678267e+05
   1.317251e+05  -3.186858e+05
   1.302046e+05  -1.998858e+05
  -2.165482e+05  -1.516265e+04
  -3.839731e+05   4.194260e+04
  -6.919170e+04  -1.544714e+05
   4.315957e+05  -4.301056e+05
   6.133709e+05  -4.114255e+05
   3.562563e+05   1.372549e+04
  -2.412039e+04   4.640651e+05
  -2.091770e+05   4.691743e+05
  -1.631749e+05   4.888822e+04
  -1.566128e+04  -3.015051e+05
   1.329223e+05  -2.165785e+05
   2.154792e+05   1.324447e+05
   1.584372e+05   3.166949e+05
  -3.475992e+04   1.836553e+05
  -2.219395e+05  -3.716694e+04
  -2.517404e+05  -9.260157e+04
  -1.354884e+05  -1.919271e+03
  -1.293456e+04   3.424263e+04
   3.608309e+04  -8.710879e+04
   6.549423e+04  -2.506272e+05
   1.425127e+05  -2.520251e+05
   2.243929e+05  -1.976226e+04
   1.939982e+05   2.816159e+05
  -6.389911e+02   3.800476e+05
  -2.530560e+05   1.650289e+05
  -3.455739e+05  -1.772151e+05
  -1.361078e+05  -3.417147e+05
   2.503576e+05  -2.153884e+05
   4.628885e+05   3.851365e+04
   2.658364e+05   1.954275e+05
  -1.532827e+05   1.876537e+05
  -3.380207e+05   9.229520e+04
  -8.886635e+04   4.669834e+03
   2.705904e+05  -7.303938e+03
   2.685049e+05   8.997039e+04
  -1.372653e+05   2.217479e+05
  -5.048364e+05   1.918308e+05
