
 $NMID
 id='ANONYMOUS ', fmtdat='(2E16.6)'
 volume=1.0
 tramp=1.0
 $END
  -4.665647e+07   9.560590e+05
  -2.937226e+07  -2.719725e+07
   4.409131e+06  -3.151254e+07
   2.233188e+07  -1.397390e+07
   1.454624e+07   4.260416e+06
  -1.935977e+06   8.003863e+06
  -8.533193e+06   3.992280e+04
  -3.337734e+06  -8.066119e+06
   4.591072e+06  -8.825234e+06
   8.202782e+06  -2.524504e+06
   6.198034e+06   5.227141e+06
   8.085883e+05   7.598942e+06
  -3.473502e+06   2.273842e+06
  -2.442295e+06  -5.141852e+06
   3.044777e+06  -6.237505e+06
   6.835171e+06   6.512313e+05
   4.222410e+06   8.569002e+06
  -2.797622e+06   1.020501e+07
  -8.391593e+06   5.173873e+06
  -8.996898e+06  -1.694995e+06
  -5.324743e+06  -6.115447e+06
  -5.533292e+05  -6.772806e+06
   1.867591e+06  -4.730642e+06
   6.503081e+05  -2.614256e+06
  -1.422120e+06  -2.716928e+06
   8.201419e+04  -4.221348e+06
   5.309839e+06  -3.767167e+06
   8.773984e+06  -7.757177e+04
   6.046997e+06   3.781215e+06
  -2.264915e+05   4.293266e+06
  -3.685418e+06   1.843059e+06
  -2.070907e+06  -5.722866e+05
   1.297160e+06  -1.211651e+06
   2.808217e+06  -1.978063e+05
   2.025921e+06   1.932368e+06
   1.486818e+05   3.836786e+06
  -1.734752e+06   3.149081e+06
  -2.360399e+06  -4.105943e+05
  -1.034507e+06  -2.986362e+06
   5.852536e+05  -1.091729e+06
  -5.423586e+04   2.632679e+06
  -2.311840e+06   2.262323e+06
  -2.317690e+06  -2.593517e+06
   1.527782e+06  -5.281676e+06
   5.368751e+06  -1.196723e+06
   4.347112e+06   5.469726e+06
  -1.216557e+06   7.091555e+06
  -6.187114e+06   2.181287e+06
  -6.335672e+06  -3.738895e+06
  -2.021308e+06  -5.409088e+06
   3.040965e+06  -2.723061e+06
   5.007454e+06   1.071002e+06
   2.562980e+06   3.026453e+06
  -1.883078e+06   2.096264e+06
  -3.973200e+06  -5.562898e+05
  -1.875383e+06  -2.226495e+06
   1.406023e+06  -1.237437e+06
   1.705271e+06   8.621985e+05
  -8.803269e+05   1.089053e+06
  -2.283283e+06  -9.785900e+05
  -8.418932e+04  -2.680503e+06
   3.443808e+06  -1.891352e+06
   4.537776e+06   6.850230e+05
   2.221710e+06   3.201438e+06
  -1.609179e+06   4.630035e+06
  -4.676565e+06   4.267206e+06
  -5.573157e+06   1.412457e+06
  -3.893200e+06  -2.910005e+06
  -7.594786e+05  -5.538193e+06
   1.468685e+06  -4.444203e+06
   1.444115e+06  -1.505090e+06
   4.278380e+05  -1.619109e+05
   5.449926e+05  -9.533348e+05
   1.913695e+06  -1.341046e+06
   2.701538e+06   2.373647e+05
   1.714352e+06   2.198664e+06
  -2.951006e+05   2.190954e+06
  -1.768754e+06   7.810934e+04
  -1.681996e+06  -2.224562e+06
   1.133664e+05  -2.871007e+06
   2.660463e+06  -1.390466e+06
   3.989735e+06   1.274908e+06
   2.731384e+06   3.371423e+06
  -6.384799e+04   3.589555e+06
  -1.869527e+06   2.295706e+06
  -1.810629e+06   1.084413e+06
  -1.612752e+06   7.978277e+05
  -2.795552e+06   5.973518e+05
  -4.178666e+06  -6.300335e+05
  -3.386170e+06  -2.618941e+06
  -1.463166e+05  -4.010322e+06
   3.167797e+06  -3.775379e+06
   4.133593e+06  -1.927843e+06
   2.521603e+06   5.815816e+05
   6.822815e+04   2.205672e+06
  -1.206889e+06   1.777548e+06
  -5.211369e+05  -9.612458e+04
   1.113802e+06  -1.235151e+06
   1.813721e+06  -3.671108e+05
   8.147460e+05   1.135147e+06
  -5.679230e+05   1.083055e+06
  -5.279429e+05  -3.785699e+05
   8.996059e+05  -8.731835e+05
   1.864457e+06   8.706802e+05
   1.001123e+06   3.186182e+06
  -1.128194e+06   3.561641e+06
  -2.967797e+06   1.540843e+06
  -3.475388e+06  -1.184434e+06
  -2.480376e+06  -2.798845e+06
  -4.973594e+05  -2.703342e+06
   1.275379e+06  -1.440496e+06
   1.578192e+06  -1.734516e+05
   4.841561e+05   4.765825e+04
  -3.543262e+05  -7.360753e+05
   3.619503e+05  -1.277811e+06
   1.790933e+06  -5.700567e+05
   1.966779e+06   7.961968e+05
   4.226554e+05   1.339989e+06
  -1.135599e+06   5.852850e+05
  -9.355825e+05  -4.511133e+05
   8.072398e+05  -6.188173e+05
   2.249717e+06   2.079959e+05
   1.869061e+06   1.361340e+06
  -1.872259e+05   2.056342e+06
  -2.305335e+06   1.701317e+06
  -2.750883e+06   2.835056e+05
  -1.191047e+06  -1.209679e+06
   8.702423e+05  -1.418344e+06
   1.460997e+06  -1.784973e+05
   1.629672e+05   1.018316e+06
  -1.476296e+06   7.084625e+05
  -1.699776e+06  -7.410096e+05
  -3.916479e+05  -1.629563e+06
   1.035392e+06  -1.031208e+06
   1.268998e+06   2.357336e+05
   3.020462e+05   7.539489e+05
  -7.481359e+05   7.076223e+04
  -7.069462e+05  -1.024685e+06
   5.856145e+05  -1.384574e+06
   1.979041e+06  -5.032788e+05
   1.985091e+06   1.049466e+06
   3.719193e+05   2.032028e+06
  -1.398055e+06   1.615387e+06
  -1.694089e+06   2.281249e+05
  -5.202944e+05  -8.477305e+05
   6.397242e+05  -8.086964e+05
   6.598818e+05  -6.378079e+04
  -9.816739e+04   4.248543e+05
  -5.482374e+05   2.623793e+05
  -2.230311e+05  -1.005683e+05
   4.024334e+05  -2.352888e+04
   5.523626e+05   5.947649e+05
  -1.518462e+05   1.164695e+06
  -1.346967e+06   8.960045e+05
  -2.050587e+06  -4.037221e+05
  -1.434307e+06  -1.914433e+06
   2.254948e+05  -2.400118e+06
   1.614778e+06  -1.434358e+06
   1.721693e+06   1.011961e+05
   9.087591e+05   9.452996e+05
   3.148070e+05   7.594537e+05
   3.999156e+05   2.768678e+05
   5.518849e+05   2.731535e+05
   8.499764e+04   7.063094e+05
  -8.466732e+05   9.023482e+05
  -1.449963e+06   3.510683e+05
  -1.082652e+06  -7.377224e+05
   2.279177e+05  -1.503801e+06
   1.716593e+06  -1.093933e+06
   2.243048e+06   4.768228e+05
   1.148326e+06   2.070878e+06
  -9.502616e+05   2.336529e+06
  -2.478932e+06   1.054846e+06
  -2.355202e+06  -6.053601e+05
  -1.020387e+06  -1.336097e+06
   1.748116e+05  -1.009490e+06
   4.459316e+05  -5.575504e+05
   1.677381e+05  -7.195936e+05
   1.411453e+05  -1.226626e+06
   6.438525e+05  -1.230223e+06
   1.247212e+06  -3.009874e+05
   1.301815e+06   1.074757e+06
   5.342861e+05   1.874598e+06
  -6.276512e+05   1.415027e+06
  -1.277020e+06   3.170442e+03
  -8.172227e+05  -1.246616e+06
   3.474252e+05  -1.379717e+06
   1.108730e+06  -4.552274e+05
   8.056738e+05   6.124848e+05
  -6.414636e+04   1.027136e+06
  -4.662849e+05   7.913910e+05
  -6.288245e+04   4.427115e+05
   4.111532e+05   3.456911e+05
   4.834654e+04   3.832615e+05
  -1.112611e+06   2.160979e+05
  -2.004722e+06  -3.156808e+05
  -1.596121e+06  -1.005989e+06
  -4.209856e+03  -1.392291e+06
   1.521761e+06  -1.114844e+06
   1.797019e+06  -3.006121e+05
   8.464681e+05   4.387289e+05
  -2.332115e+05   5.389995e+05
  -4.945772e+05   5.653099e+04
  -1.803138e+04  -3.799934e+05
   4.539008e+05  -2.404517e+05
   4.674731e+05   3.393576e+05
   2.057393e+05   7.186409e+05
   5.544270e+04   4.691467e+05
   1.456627e+05  -1.193484e+05
   3.136822e+05  -3.155770e+05
   2.794948e+05   2.274894e+05
  -1.651403e+05   9.832909e+05
  -8.886237e+05   1.042570e+06
  -1.295303e+06   1.513642e+05
  -7.928504e+05  -8.988791e+05
   4.071150e+05  -1.087954e+06
   1.210432e+06  -2.971412e+05
   7.144145e+05   5.798191e+05
  -6.881975e+05   6.476474e+05
  -1.590657e+06  -8.360787e+04
  -1.042734e+06  -8.579775e+05
   4.526912e+05  -1.014544e+06
   1.505271e+06  -5.173253e+05
   1.258138e+06   1.738481e+05
   1.477486e+05   5.220488e+05
  -6.432982e+05   2.820405e+05
  -3.700516e+05  -2.787883e+05
   5.935175e+05  -4.942545e+05
   1.161671e+06   1.090930e+05
   6.266597e+05   1.177670e+06
  -6.227693e+05   1.662975e+06
  -1.484814e+06   8.455965e+05
  -1.237372e+06  -7.677158e+05
  -1.872197e+05  -1.784311e+06
   7.450753e+05  -1.298163e+06
   9.284698e+05   1.608186e+05
   4.442073e+05   1.187541e+06
  -2.002019e+05   9.824771e+05
  -5.535219e+05   9.395588e+04
  -4.786280e+05  -3.861018e+05
  -1.804924e+05  -1.491403e+05
  -4.256679e+04   1.028394e+05
  -2.511984e+05  -2.727998e+05
  -4.927012e+05  -9.527561e+05
  -2.078338e+05  -1.082761e+06
   6.849883e+05  -4.009342e+05
   1.466574e+06   4.697504e+05
   1.290015e+06   8.424130e+05
   1.848436e+05   6.905451e+05
  -8.670535e+05   4.056263e+05
  -9.870907e+05   1.821883e+05
  -3.457568e+05  -3.869108e+04
   1.518841e+05  -2.195262e+05
   1.834737e+04  -2.202512e+05
  -2.810755e+05  -1.132298e+05
  -4.092747e+04  -1.311325e+05
   6.780386e+05  -2.166823e+05
   1.033980e+06   2.065010e+04
   3.974510e+05   6.753364e+05
  -8.547845e+05   1.147084e+06
  -1.670409e+06   7.340918e+05
  -1.370153e+06  -4.359351e+05
  -2.594036e+05  -1.396846e+06
   7.581673e+05  -1.357454e+06
   1.038201e+06  -5.177480e+05
   6.487116e+05   2.439853e+05
   1.236695e+05   3.528911e+05
  -8.235919e+04   4.920859e+04
   7.894477e+04  -3.095790e+04
   3.074079e+05   3.632789e+05
   2.500183e+05   8.051733e+05
  -1.819510e+05   6.682903e+05
  -6.745989e+05  -1.343409e+05
  -7.168386e+05  -9.527366e+05
  -9.548665e+04  -1.014696e+06
   7.508973e+05  -2.256428e+05
   1.014603e+06   7.283344e+05
   3.340253e+05   1.076368e+06
  -7.063574e+05   6.586312e+05
  -1.100049e+06  -7.731366e+04
  -5.216873e+05  -5.947038e+05
   2.793219e+05  -6.589891e+05
   3.635031e+05  -3.659524e+05
  -2.563106e+05  -1.998678e+04
  -6.468075e+05   3.430924e+04
  -1.414430e+05  -3.013318e+05
   8.208075e+05  -6.734962e+05
   1.243167e+06  -5.476470e+05
   7.472359e+05   1.618774e+05
  -9.600340e+04   8.564492e+05
  -5.358375e+05   8.477571e+05
  -4.060040e+05   1.563430e+05
  -4.386691e+04  -4.774215e+05
   2.371077e+05  -4.238388e+05
   3.448132e+05   1.573396e+05
   2.494469e+05   5.724608e+05
  -5.112082e+04   4.126149e+05
  -3.850725e+05  -4.907379e+04
  -4.710651e+05  -2.697459e+05
  -2.433182e+05  -8.927661e+04
   3.245996e+04   1.381929e+05
   8.982446e+04   2.598626e+04
   6.034800e+03  -3.503602e+05
   6.478926e+04  -5.244400e+05
   3.138693e+05  -1.947049e+05
   4.347856e+05   3.818375e+05
   1.364634e+05   6.351761e+05
  -4.075675e+05   3.042901e+05
  -6.488250e+05  -2.805923e+05
  -2.445023e+05  -5.701659e+05
   4.997283e+05  -3.623101e+05
   8.672337e+05   7.655395e+04
   4.719546e+05   3.734071e+05
  -2.876876e+05   3.896889e+05
  -6.266357e+05   2.186433e+05
  -2.402140e+05   2.053763e+04
   3.494795e+05  -5.481314e+04
   4.025866e+05   7.564512e+04
  -1.782671e+05   2.904242e+05
  -7.502915e+05   2.614973e+05
