
 $NMID
 id='ANONYMOUS ', fmtdat='(2E16.6)'
 volume=1.0
 tramp=1.0
 $END
   2.394501e+07  -1.547639e+06
   1.706515e+07   1.064410e+07
   8.896821e+05   1.561982e+07
  -1.024168e+07   1.068186e+07
  -9.019265e+06   1.139137e+06
  -6.750404e+05  -4.487663e+06
   5.007018e+06  -2.253135e+06
   3.827973e+06   3.923219e+06
  -1.091745e+06   6.733129e+06
  -4.541033e+06   3.101275e+06
  -4.006756e+06  -2.941294e+06
  -6.602031e+05  -4.963763e+06
   2.214816e+06  -1.135926e+06
   1.883333e+06   4.062651e+06
  -1.348201e+06   4.946837e+06
  -4.104987e+06   6.002919e+05
  -3.227446e+06  -4.653533e+06
   8.243908e+05  -6.103307e+06
   4.442541e+06  -3.123063e+06
   4.719152e+06   1.066317e+06
   2.232319e+06   3.144844e+06
  -2.648147e+04   2.653384e+06
   5.975511e+04   1.624897e+06
   1.680996e+06   1.954946e+06
   2.044112e+06   3.384718e+06
  -6.025777e+05   3.962360e+06
  -4.672384e+06   2.314788e+06
  -6.345641e+06  -7.249407e+05
  -3.593017e+06  -2.855688e+06
   1.172119e+06  -2.542869e+06
   3.371298e+06  -3.688386e+05
   1.249960e+06   1.645280e+06
  -2.357161e+06   1.760898e+06
  -3.553755e+06  -1.945368e+05
  -1.654800e+06  -2.649247e+06
   8.096144e+05  -3.384262e+06
   1.520096e+06  -1.554797e+06
   5.892370e+05   1.069850e+06
  -3.963136e+05   1.612595e+06
  -3.339462e+05  -5.787269e+05
   6.902429e+05  -2.771465e+06
   1.767957e+06  -1.969084e+06
   1.763496e+06   1.205463e+06
   1.981226e+05   3.016427e+06
  -1.863896e+06   1.175064e+06
  -2.286134e+06  -2.322868e+06
  -1.359054e+04  -3.614768e+06
   3.292655e+06  -1.384996e+06
   4.481355e+06   2.055636e+06
   2.111852e+06   3.628279e+06
  -1.866044e+06   2.427286e+06
  -3.944080e+06  -7.396434e+04
  -2.510087e+06  -1.774827e+06
   6.863238e+05  -1.609451e+06
   2.473502e+06  -1.354659e+05
   1.479876e+06   1.061803e+06
  -6.916532e+05   8.227117e+05
  -1.441226e+06  -4.395563e+05
  -7.604781e+04  -1.200566e+06
   1.537364e+06  -5.375229e+05
   1.232462e+06   8.602357e+05
  -8.966672e+05   1.485202e+06
  -2.541296e+06   5.359891e+05
  -1.714150e+06  -1.429602e+06
   1.124061e+06  -2.982447e+06
   3.612198e+06  -2.799325e+06
   3.897641e+06  -6.395705e+05
   2.235706e+06   2.217937e+06
   3.226635e+05   3.818003e+06
  -5.704425e+05   3.319974e+06
  -6.096581e+05   1.821251e+06
  -7.638986e+05   9.675845e+05
  -1.517213e+06   9.403097e+05
  -2.342359e+06   4.813055e+05
  -2.306990e+06  -1.055267e+06
  -1.047817e+06  -2.475981e+06
   7.972025e+05  -2.097460e+06
   1.983555e+06   8.706540e+04
   1.568286e+06   2.208916e+06
  -2.729064e+05   2.454183e+06
  -2.198232e+06   7.799965e+05
  -2.711577e+06  -1.312916e+06
  -1.519728e+06  -2.343504e+06
   1.722074e+05  -2.037559e+06
   9.666967e+05  -1.222692e+06
   8.289114e+05  -8.128508e+05
   9.862493e+05  -9.034087e+05
   2.169173e+06  -7.713892e+05
   3.371385e+06   2.652476e+05
   2.835448e+06   1.993350e+06
   2.196396e+05   3.319501e+06
  -2.672107e+06   3.162181e+06
  -3.575322e+06   1.423624e+06
  -2.020974e+06  -7.880434e+05
   2.863205e+05  -1.934777e+06
   1.257957e+06  -1.323227e+06
   3.925787e+05   1.961655e+05
  -1.019529e+06   9.758090e+05
  -1.418701e+06   2.793394e+05
  -5.227984e+05  -8.739357e+05
   5.766340e+05  -9.142678e+05
   6.537496e+05   2.786486e+05
  -4.196078e+05   1.077149e+06
  -1.578004e+06   5.637001e+04
  -1.551716e+06  -2.137796e+06
   4.439085e+03  -3.337906e+06
   2.153001e+06  -2.193458e+06
   3.344816e+06   4.285997e+05
   2.651439e+06   2.428003e+06
   6.090801e+05   2.534237e+06
  -1.158683e+06   1.260918e+06
  -1.395539e+06   8.577334e+04
  -4.093318e+05  -3.514424e+04
   3.156696e+05   6.067487e+05
  -2.034154e+05   9.914616e+05
  -1.330370e+06   4.946291e+05
  -1.585745e+06  -4.883845e+05
  -4.543552e+05  -1.001057e+06
   9.046932e+05  -5.559388e+05
   9.197291e+05   3.522741e+05
  -5.845013e+05   7.475964e+05
  -2.085902e+06   1.164066e+05
  -1.923566e+06  -1.121315e+06
  -3.448540e+04  -1.961337e+06
   1.957765e+06  -1.643949e+06
   2.353768e+06  -3.331830e+05
   1.005406e+06   9.231886e+05
  -6.509174e+05   1.081240e+06
  -1.077428e+06   1.427161e+05
  -7.287426e+04  -7.715078e+05
   1.199979e+06  -5.872381e+05
   1.455849e+06   5.267171e+05
   4.889956e+05   1.351752e+06
  -7.463406e+05   1.023130e+06
  -1.116380e+06  -1.297383e+04
  -3.900246e+05  -5.770275e+05
   5.492977e+05  -9.791733e+04
   5.740610e+05   8.296927e+05
  -5.107914e+05   1.147420e+06
  -1.671677e+06   3.993902e+05
  -1.657644e+06  -8.817458e+05
  -3.397594e+05  -1.681710e+06
   1.100316e+06  -1.378649e+06
   1.400770e+06  -2.726205e+05
   5.075087e+05   6.760834e+05
  -4.963945e+05   7.275001e+05
  -6.325327e+05   5.315509e+04
   1.516190e+04  -5.023053e+05
   5.768316e+05  -3.721452e+05
   4.176948e+05   1.272001e+05
  -2.282181e+05   2.284836e+05
  -5.510510e+05  -3.344344e+05
  -7.298533e+03  -9.620742e+05
   1.081112e+06  -8.122868e+05
   1.737653e+06   2.865676e+05
   1.232334e+06   1.586238e+06
  -1.592493e+05   2.065216e+06
  -1.367879e+06   1.343882e+06
  -1.569596e+06   1.984734e+04
  -9.432099e+05  -8.893016e+05
  -3.234178e+05  -8.815092e+05
  -2.138760e+05  -3.748153e+05
  -3.226125e+05  -1.631897e+05
  -6.491804e+04  -4.976398e+05
   6.542171e+05  -8.092320e+05
   1.257922e+06  -4.046733e+05
   1.045208e+06   6.394794e+05
  -9.787096e+04   1.411671e+06
  -1.457603e+06   1.049666e+06
  -1.966241e+06  -3.451493e+05
  -1.083168e+06  -1.717487e+06
   6.534894e+05  -1.991982e+06
   2.001269e+06  -1.020265e+06
   2.071344e+06   3.513537e+05
   1.065123e+06   1.117380e+06
  -4.046552e+04   1.014529e+06
  -4.815499e+05   6.178588e+05
  -3.279332e+05   5.906138e+05
  -1.963120e+05   9.191376e+05
  -4.935137e+05   9.622707e+05
  -9.914937e+05   2.436758e+05
  -1.089395e+06  -9.079514e+05
  -4.609170e+05  -1.593213e+06
   5.336394e+05  -1.209639e+06
   1.098647e+06  -4.410342e+04
   7.474519e+05   9.909756e+05
  -1.813727e+05   1.169622e+06
  -8.289800e+05   5.175183e+05
  -6.844140e+05  -3.357951e+05
  -8.207844e+04  -7.799444e+05
   2.347521e+05  -7.038851e+05
  -1.241210e+04  -4.398548e+05
  -3.247565e+05  -3.210276e+05
  -2.739817e+04  -3.385944e+05
   8.900851e+05  -2.202580e+05
   1.634417e+06   2.078326e+05
   1.369502e+06   7.813810e+05
   1.166511e+05   1.114522e+06
  -1.167320e+06   9.380604e+05
  -1.484541e+06   3.483417e+05
  -7.630864e+05  -2.376034e+05
   1.395269e+05  -4.038504e+05
   3.873711e+05  -1.069236e+05
  -1.574708e+04   2.462753e+05
  -4.223314e+05   1.858072e+05
  -3.856697e+05  -2.851801e+05
  -8.864707e+04  -6.324780e+05
   3.570386e+04  -4.018289e+05
  -1.350167e+05   1.675751e+05
  -3.380489e+05   3.500391e+05
  -2.597315e+05  -1.805745e+05
   1.764002e+05  -8.696905e+05
   7.401116e+05  -8.793886e+05
   9.894851e+05  -8.338921e+04
   5.738584e+05   7.572164e+05
  -3.332044e+05   8.420618e+05
  -9.608056e+05   1.760723e+05
  -5.977982e+05  -5.164115e+05
   5.550726e+05  -5.787995e+05
   1.399804e+06   1.469426e+03
   1.025415e+06   6.983458e+05
  -2.840745e+05   9.521098e+05
  -1.308372e+06   5.914958e+05
  -1.164267e+06  -6.672056e+04
  -1.804303e+05  -4.682932e+05
   5.364621e+05  -2.936353e+05
   2.889970e+05   2.037001e+05
  -5.454950e+05   3.793070e+05
  -9.808877e+05  -1.551498e+05
  -4.554831e+05  -1.035050e+06
   6.223133e+05  -1.384207e+06
   1.311118e+06  -6.645495e+05
   1.057039e+06   6.870311e+05
   1.558080e+05   1.550974e+06
  -6.358495e+05   1.169737e+06
  -8.190513e+05  -7.340668e+04
  -4.527991e+05  -1.012375e+06
   8.796043e+04  -8.950625e+05
   4.532126e+05  -1.195686e+05
   4.722069e+05   3.452265e+05
   2.199676e+05   1.507884e+05
   1.186964e+04  -1.097830e+05
   1.265670e+05   1.849232e+05
   3.951210e+05   7.960861e+05
   2.630632e+05   9.482251e+05
  -4.977381e+05   3.671673e+05
  -1.277861e+06  -3.990921e+05
  -1.189386e+06  -7.207467e+05
  -1.727927e+05  -5.778340e+05
   8.086145e+05  -3.428416e+05
   8.739708e+05  -1.853891e+05
   2.444101e+05  -9.550519e+03
  -1.549766e+05   1.811233e+05
   6.034221e+04   2.309687e+05
   3.220326e+05   1.446139e+05
   2.994988e+03   1.166706e+05
  -6.689751e+05   1.507552e+05
  -8.755315e+05  -4.429894e+04
  -2.193209e+05  -5.615425e+05
   8.120882e+05  -9.282173e+05
   1.376113e+06  -5.654293e+05
   1.069211e+06   4.211712e+05
   1.838141e+05   1.211021e+06
  -6.321692e+05   1.133742e+06
  -8.880166e+05   3.835458e+05
  -5.648494e+05  -2.582386e+05
  -6.906621e+04  -3.003430e+05
   1.394176e+05   9.030479e+03
  -4.367014e+04   8.235602e+04
  -3.006605e+05  -2.895118e+05
  -2.430111e+05  -6.917822e+05
   1.755536e+05  -5.532007e+05
   5.906125e+05   1.745402e+05
   5.573376e+05   8.721503e+05
  -1.325887e+04   8.571133e+05
  -6.892531e+05   1.095776e+05
  -8.344718e+05  -7.011966e+05
  -2.261834e+05  -9.176943e+05
   6.203273e+05  -4.998315e+05
   9.015256e+05   9.614699e+04
   3.993899e+05   4.585572e+05
  -2.364462e+05   4.914094e+05
  -2.499218e+05   2.959029e+05
   2.880090e+05   4.879939e+04
   5.719657e+05  -1.205209e+04
   9.483364e+04   2.444693e+05
  -7.080792e+05   5.796951e+05
  -1.010009e+06   5.141660e+05
  -5.700754e+05  -8.650371e+04
   9.451537e+04  -7.036944e+05
   4.029280e+05  -6.943896e+05
   2.767201e+05  -8.202975e+04
  -5.115402e+03   4.365080e+05
  -2.186771e+05   3.217847e+05
  -2.952167e+05  -2.006793e+05
  -1.977925e+05  -4.942401e+05
   6.272852e+04  -2.941686e+05
   3.251137e+05   7.354378e+04
   3.796955e+05   1.904794e+05
   2.080300e+05   3.913894e+04
   3.812132e+03  -6.779039e+04
  -7.925694e+04   7.967122e+04
  -9.834795e+04   3.372452e+05
  -1.834996e+05   3.736357e+05
  -3.064528e+05   4.576669e+04
  -2.804326e+05  -4.040513e+05
   3.703226e+03  -5.508021e+05
   3.833780e+05  -2.228060e+05
   5.074699e+05   2.885330e+05
   1.686443e+05   5.151621e+05
  -4.121393e+05   2.951828e+05
  -7.017144e+05  -1.033668e+05
  -3.798989e+05  -3.259639e+05
   2.490962e+05  -2.816087e+05
   5.190743e+05  -1.208299e+05
   1.549391e+05  -6.141697e+03
  -3.680687e+05  -1.183394e+04
  -3.683180e+05  -1.425472e+05
   2.153578e+05  -2.868321e+05
   7.394960e+05  -2.079510e+05
