
 $NMID
 id='ANONYMOUS ', fmtdat='(2E16.6)'
 volume=1.0
 tramp=1.0
 $END
   8.231548e+06   6.930917e+05
   3.953327e+06   6.507740e+06
  -2.650201e+06   5.745970e+06
  -4.754865e+06   6.308951e+05
  -1.815889e+06  -2.606847e+06
   1.372616e+06  -1.595410e+06
   1.541209e+06   8.596302e+05
  -1.975669e+05   1.720470e+06
  -1.457391e+06   8.746835e+05
  -1.503991e+06  -3.504466e+05
  -7.828105e+05  -1.156737e+06
   2.085339e+05  -1.202963e+06
   8.057392e+05  -3.961693e+05
   3.916570e+05   5.376872e+05
  -6.028702e+05   4.799857e+05
  -9.178089e+05  -5.770189e+05
  -9.731834e+04  -1.398742e+06
   9.866529e+05  -1.163226e+06
   1.470055e+06  -2.956355e+05
   1.369337e+06   5.455090e+05
   8.876457e+05   1.225947e+06
  -2.967087e+04   1.549555e+06
  -9.964824e+05   1.054616e+06
  -1.119291e+06  -2.138720e+04
  -2.914334e+05  -5.561571e+05
   3.349505e+05  -2.561063e+04
  -1.078157e+05   6.360325e+05
  -9.520816e+05   3.776335e+05
  -1.044358e+06  -4.981880e+05
  -3.562009e+05  -9.807337e+05
   2.906068e+05  -8.139788e+05
   5.260022e+05  -4.571102e+05
   5.477957e+05  -1.246763e+05
   3.848370e+05   2.107238e+05
  -3.534026e+02   2.654604e+05
  -1.751753e+05  -1.508231e+05
   2.449626e+05  -4.652797e+05
   7.429216e+05  -3.921519e+04
   5.199770e+05   6.738906e+05
  -1.662402e+05   6.899182e+05
  -3.211915e+05   1.040372e+05
   1.294598e+05  -3.513668e+03
   1.453780e+05   6.111362e+05
  -6.853853e+05   8.305813e+05
  -1.319254e+06  -6.565766e+04
  -7.703278e+05  -1.171430e+06
   4.232982e+05  -1.212088e+06
   9.927880e+05  -2.725140e+05
   5.879057e+05   5.258687e+05
  -1.070678e+05   5.483898e+05
  -4.557575e+05   7.757865e+04
  -3.415085e+05  -3.995611e+05
   1.171949e+05  -5.842738e+05
   6.188157e+05  -2.922999e+05
   6.624166e+05   3.203771e+05
   1.219509e+05   6.277066e+05
  -3.498559e+05   2.589754e+05
  -1.216283e+05  -2.221796e+05
   4.058285e+05  -2.675384e+04
   3.075499e+05   6.290220e+05
  -4.573778e+05   7.697609e+05
  -9.550018e+05   1.086054e+05
  -6.528380e+05  -5.758883e+05
  -6.510917e+04  -6.557497e+05
   2.104466e+05  -4.254927e+05
   3.043649e+05  -3.285923e+05
   4.944076e+05  -1.858256e+05
   5.110254e+05   2.528637e+05
   5.449209e+04   5.879334e+05
  -4.622107e+05   3.042325e+05
  -3.849556e+05  -3.141027e+05
   1.939865e+05  -4.924372e+05
   5.466754e+05  -4.958643e+04
   3.169425e+05   4.268645e+05
  -1.275760e+05   4.514617e+05
  -3.316544e+05   1.575920e+05
  -2.493132e+05  -9.276736e+04
  -5.688219e+04  -1.508632e+05
   1.007635e+05  -3.555220e+04
   8.176650e+04   1.682172e+05
  -1.749142e+05   2.457067e+05
  -4.369329e+05   6.293385e+03
  -3.547193e+05  -3.867105e+05
   5.009549e+04  -5.229128e+05
   3.623590e+05  -2.794765e+05
   3.327189e+05   2.701943e+04
   1.609772e+05   1.168068e+05
   1.065327e+05   7.882665e+04
   1.272355e+05   9.710915e+04
   7.945278e+04   1.446579e+05
  -3.068859e+03   1.370238e+05
  -4.345046e+04   1.309982e+05
  -1.006723e+05   1.591232e+05
  -1.965591e+05   9.487749e+04
  -1.792946e+05  -9.547957e+04
   8.298270e+03  -1.863570e+05
   1.313805e+05  -2.952937e+04
  -9.900387e+02   1.472145e+05
  -1.911968e+05   6.992819e+04
  -1.494036e+05  -1.316601e+05
   2.727338e+04  -1.455192e+05
   3.211707e+04  -1.367209e+04
  -1.009084e+05  -4.672537e+04
  -4.043732e+04  -2.498213e+05
   2.516007e+05  -2.657085e+05
   3.975957e+05   3.714022e+04
   1.840437e+05   3.189443e+05
  -1.122411e+05   2.757949e+05
  -1.645365e+05   5.835471e+04
  -4.686111e+04  -3.277663e+04
  -6.876115e+03   7.284639e+03
  -4.699017e+04   7.629419e+03
  -1.870064e+04  -2.568943e+04
   4.291304e+04   2.750206e+04
  -1.474272e+04   1.132355e+05
  -1.514483e+05   6.782436e+04
  -1.727128e+05  -8.552951e+04
  -4.745676e+04  -1.601063e+05
   5.829639e+04  -1.043733e+05
   6.018733e+04  -4.802493e+04
   4.462684e+04  -5.291858e+04
   6.545588e+04  -3.878944e+04
   6.363735e+04   2.055301e+04
   2.813559e+04   3.829640e+04
   3.933700e+04   1.280770e+03
   9.236140e+04   1.901838e+04
   6.127878e+04   1.126365e+05
  -7.841995e+04   1.369781e+05
  -1.607296e+05   1.478966e+04
  -6.973345e+04  -1.101990e+05
   7.354932e+04  -7.944334e+04
   8.835408e+04   4.684841e+04
  -1.553049e+04   9.683823e+04
  -9.367978e+04   3.237232e+04
  -8.324271e+04  -4.815256e+04
  -3.128887e+04  -8.077160e+04
   2.476864e+04  -7.575048e+04
   7.279068e+04  -3.648125e+04
   6.925270e+04   3.175067e+04
  -5.562734e+03   6.351495e+04
  -6.709573e+04   5.082961e+03
  -2.166848e+04  -7.543589e+04
   8.067220e+04  -6.352811e+04
   1.061663e+05   3.116401e+04
   3.280471e+04   9.247101e+04
  -3.667478e+04   7.484236e+04
  -4.926081e+04   4.234666e+04
  -5.634929e+04   2.910687e+04
  -8.016795e+04  -9.330844e+03
  -6.144552e+04  -7.770266e+04
   1.606994e+04  -9.897105e+04
   7.016685e+04  -4.191631e+04
   4.977445e+04   1.677148e+04
   1.513248e+04   1.781332e+04
   2.191455e+04   7.975802e+03
   2.528742e+04   3.502328e+04
  -1.972631e+04   5.010038e+04
  -5.484709e+04   2.702101e+03
  -1.553255e+04  -4.936071e+04
   4.343065e+04  -2.856817e+04
   3.190933e+04   2.669186e+04
  -2.135095e+04   2.717442e+04
  -2.011418e+04  -1.224489e+04
   2.901074e+04  -3.983082e+03
   2.807169e+04   5.007964e+04
  -3.897593e+04   5.580789e+04
  -7.571482e+04  -1.028250e+04
  -3.535649e+04  -5.929984e+04
   9.358058e+03  -3.935730e+04
   8.819485e+02  -1.235151e+04
  -9.740539e+03  -3.230310e+04
   3.108609e+04  -4.947315e+04
   7.352768e+04  -6.907947e+03
   4.794847e+04   4.911223e+04
  -1.256835e+04   4.129287e+04
  -2.380455e+04  -1.063575e+04
   1.681322e+04  -2.272990e+04
   3.655727e+04   2.264208e+04
   5.032098e+03   6.146808e+04
  -3.483134e+04   5.025862e+04
  -4.614816e+04   1.088043e+04
  -3.709180e+04  -2.374522e+04
  -1.903856e+04  -4.423639e+04
   1.014804e+04  -4.142142e+04
   3.252545e+04  -6.878312e+03
   1.718785e+04   3.282411e+04
  -2.468817e+04   3.262399e+04
  -4.128676e+04  -7.429775e+03
  -1.270448e+04  -3.823282e+04
   2.198097e+04  -3.202054e+04
   2.643303e+04  -1.359101e+04
   1.323552e+04  -8.795733e+03
   8.970990e+03  -6.791509e+03
   1.342177e+04   6.591656e+03
   1.686808e+04   1.903926e+04
   2.191437e+04   1.995711e+04
   2.352934e+04   2.262834e+04
   1.927441e+03   3.242421e+04
  -3.772738e+04   2.699818e+04
  -5.277088e+04  -2.798020e+03
  -2.219572e+04  -2.463933e+04
   1.347575e+04  -1.141683e+04
   8.771515e+03   1.213267e+04
  -1.893169e+04   7.531004e+03
  -2.196242e+04  -1.672204e+04
   7.127710e+02  -2.467536e+04
   1.049330e+04  -1.418183e+04
  -1.924798e+02  -1.179079e+04
   6.015705e+01  -1.793812e+04
   1.924684e+04  -7.484977e+03
   2.610820e+04   1.683453e+04
   7.813332e+03   2.177874e+04
  -6.229550e+03   1.687394e+03
   2.367699e+03  -8.723599e+03
   8.742977e+03   5.781804e+03
  -7.337740e+03   1.437567e+04
  -2.067707e+04  -3.593098e+03
  -2.592414e+03  -1.847493e+04
   2.624751e+04   6.382266e+02
   2.437154e+04   3.104029e+04
  -7.794093e+03   3.009973e+04
  -3.208115e+04   3.431845e+02
  -2.851685e+04  -2.006147e+04
  -1.142738e+04  -1.695402e+04
   3.804999e+03  -9.338549e+03
   1.500954e+04  -6.755295e+03
   1.597178e+04   1.037164e+03
  -5.822420e+02   1.104554e+04
  -1.868707e+04   3.325158e+03
  -1.007266e+04  -2.018104e+04
   2.164942e+04  -2.717065e+04
   3.707321e+04  -1.017566e+03
   1.436360e+04   3.132586e+04
  -1.956795e+04   3.516819e+04
  -2.799564e+04   1.153935e+04
  -1.184866e+04  -1.239047e+04
   2.266922e+03  -1.975801e+04
   3.525076e+03  -1.363660e+04
   2.319214e+03  -3.216634e+03
   4.887263e+03   3.085293e+03
   6.411278e+03   1.317841e+02
   5.821465e+03  -5.106966e+03
   7.310721e+03   2.642494e+03
   7.412438e+03   2.234932e+04
  -2.412924e+03   2.908010e+04
  -1.860671e+04   6.866615e+03
  -2.513063e+04  -2.346666e+04
  -1.358301e+04  -2.940031e+04
   6.469633e+03  -1.030120e+04
   1.935490e+04   6.526244e+03
   1.754468e+04   7.294245e+03
   4.405543e+03   4.023261e+03
  -8.909533e+03   6.034308e+03
  -1.062643e+04   5.444637e+03
  -1.174417e+03  -2.407299e+03
   3.900581e+03  -7.283359e+03
  -5.640498e+03  -3.647836e+03
  -1.561191e+04  -2.526219e+03
  -4.230184e+03  -1.064876e+04
   2.319377e+04  -1.447484e+04
   3.565423e+04  -9.209044e+02
   1.756312e+04   1.883358e+04
  -1.015508e+04   2.365977e+04
  -1.995161e+04   1.206301e+04
  -1.195936e+04   6.011509e+02
  -4.463815e+03  -1.469055e+03
  -4.067483e+03   4.552490e+02
  -3.649246e+03   7.327515e+02
  -1.560718e+03  -7.464885e+02
  -3.017147e+03  -5.487306e+03
  -5.099159e+03  -1.366358e+04
   1.011564e+03  -1.526130e+04
   1.160439e+04  -3.995757e+02
   1.117692e+04   1.998715e+04
  -3.850494e+03   2.127981e+04
  -1.657349e+04  -1.362699e+03
  -1.170434e+04  -2.290320e+04
   4.869153e+03  -2.073797e+04
   1.602655e+04  -2.787541e+03
   1.420476e+04   8.432861e+03
   5.099269e+03   7.413386e+03
  -2.239051e+03   5.835981e+03
  -2.246942e+03   9.155801e+03
   4.125550e+03   1.068287e+04
   7.455704e+03   7.299267e+03
  -2.462748e+03   4.888915e+03
  -2.096648e+04   5.374128e+03
  -2.829001e+04   1.718854e+03
  -1.332108e+04  -8.682309e+03
   9.351090e+03  -1.603187e+04
   1.654202e+04  -1.090724e+04
   5.424944e+03   1.585161e+03
  -6.495375e+03   7.761021e+03
  -7.092282e+03   2.086744e+03
  -1.579571e+03  -7.848536e+03
   1.703096e+03  -1.135297e+04
   3.541119e+03  -5.330955e+03
   6.797397e+03   4.186784e+03
   8.112210e+03   8.485617e+03
   4.056246e+03   4.767921e+03
  -1.659996e+03  -7.684687e+02
  -4.046152e+03  -3.089024e+02
  -4.457834e+03   4.997105e+03
  -6.049817e+03   5.883102e+03
  -6.427228e+03  -1.983333e+03
  -1.641153e+03  -1.064790e+04
   5.737797e+03  -9.561892e+03
   8.908618e+03   7.891449e+02
   5.233905e+03   9.758509e+03
  -2.407840e+03   9.230056e+03
  -9.797627e+03   1.004612e+03
  -1.221519e+04  -7.370986e+03
  -5.380911e+03  -9.872330e+03
   7.604046e+03  -5.548371e+03
   1.404461e+04   1.190198e+03
   5.436995e+03   3.613444e+03
  -8.281032e+03  -7.507735e+02
  -8.594277e+03  -6.406280e+03
   6.528968e+03  -5.568946e+03
   1.808998e+04   2.579371e+03
