
 $NMID
 id='ANONYMOUS ', fmtdat='(2E16.6)'
 volume=1.0
 tramp=1.0
 $END
  -2.112171e+07   4.435207e+05
  -1.440779e+07  -9.854742e+06
  -1.707999e+05  -1.356263e+07
   9.159764e+06  -8.986630e+06
   7.762226e+06  -8.265433e+05
   4.771625e+05   3.870497e+06
  -4.341041e+06   1.890469e+06
  -3.250726e+06  -3.437950e+06
   1.021325e+06  -5.843024e+06
   3.991700e+06  -2.621457e+06
   3.464709e+06   2.697193e+06
   4.802163e+05   4.417712e+06
  -2.019769e+06   9.570327e+05
  -1.642950e+06  -3.634962e+06
   1.232015e+06  -4.329758e+06
   3.580484e+06  -4.334314e+05
   2.702642e+06   4.153377e+06
  -8.929371e+05   5.316998e+06
  -4.014551e+06   2.593741e+06
  -4.143490e+06  -1.130765e+06
  -1.836322e+06  -2.912746e+06
   2.064856e+05  -2.357714e+06
   6.785231e+04  -1.339472e+06
  -1.485604e+06  -1.630907e+06
  -1.858005e+06  -2.986925e+06
   5.435803e+05  -3.549835e+06
   4.214381e+06  -2.033710e+06
   5.673379e+06   7.429000e+05
   3.153648e+06   2.638958e+06
  -1.119404e+06   2.303425e+06
  -3.067291e+06   3.180060e+05
  -1.161500e+06  -1.505326e+06
   2.079869e+06  -1.625413e+06
   3.189719e+06   1.380925e+05
   1.504639e+06   2.383972e+06
  -7.487382e+05   3.058847e+06
  -1.425217e+06   1.364783e+06
  -5.447626e+05  -1.039199e+06
   4.202987e+05  -1.492256e+06
   3.691808e+05   5.386541e+05
  -6.086153e+05   2.499065e+06
  -1.580148e+06   1.729803e+06
  -1.510342e+06  -1.086193e+06
  -9.987597e+04  -2.595650e+06
   1.630564e+06  -8.995607e+05
   1.889999e+06   2.126907e+06
  -1.188402e+05   3.136944e+06
  -2.939834e+06   1.108580e+06
  -3.907708e+06  -1.887601e+06
  -1.811514e+06  -3.209818e+06
   1.662538e+06  -2.114809e+06
   3.464356e+06   9.636802e+04
   2.186014e+06   1.574021e+06
  -6.220580e+05   1.386417e+06
  -2.166169e+06   6.740795e+04
  -1.270441e+06  -9.560036e+05
   6.273370e+05  -7.046583e+05
   1.267254e+06   3.981267e+05
   8.322019e+04   1.033173e+06
  -1.300090e+06   4.628982e+05
  -1.033832e+06  -7.019963e+05
   7.918595e+05  -1.212540e+06
   2.194326e+06  -4.040607e+05
   1.447726e+06   1.278963e+06
  -1.066319e+06   2.621795e+06
  -3.269998e+06   2.437604e+06
  -3.490810e+06   4.946339e+05
  -1.950639e+06  -2.039847e+06
  -2.138783e+05  -3.407722e+06
   5.473331e+05  -2.912141e+06
   5.238008e+05  -1.588453e+06
   6.488308e+05  -8.800850e+05
   1.356605e+06  -8.790668e+05
   2.123228e+06  -4.449603e+05
   2.088465e+06   9.574362e+05
   9.465537e+05   2.234723e+06
  -7.130944e+05   1.893530e+06
  -1.777657e+06  -6.345894e+04
  -1.402231e+06  -1.969891e+06
   2.572144e+05  -2.192427e+06
   1.980810e+06  -6.750626e+05
   2.409987e+06   1.221574e+06
   1.302368e+06   2.131167e+06
  -2.202755e+05   1.807895e+06
  -8.999132e+05   1.041104e+06
  -7.413234e+05   6.781933e+05
  -8.668103e+05   7.787001e+05
  -1.916834e+06   6.647875e+05
  -2.979268e+06  -2.627112e+05
  -2.496345e+06  -1.789660e+06
  -1.723332e+05  -2.947214e+06
   2.396463e+06  -2.794068e+06
   3.200072e+06  -1.245828e+06
   1.808279e+06   7.216538e+05
  -2.652916e+05   1.738052e+06
  -1.139807e+06   1.181457e+06
  -3.559463e+05  -1.796693e+05
   9.160637e+05  -8.667362e+05
   1.265593e+06  -2.357437e+05
   4.556641e+05   7.889163e+05
  -5.195079e+05   8.179739e+05
  -5.818583e+05  -2.385302e+05
   3.566043e+05  -9.424930e+05
   1.361903e+06  -5.108537e+04
   1.345200e+06   1.867896e+06
   1.974642e+03   2.923369e+06
  -1.878527e+06   1.927806e+06
  -2.946082e+06  -3.766276e+05
  -2.351311e+06  -2.148967e+06
  -5.404007e+05  -2.250264e+06
   1.037461e+06  -1.118089e+06
   1.246363e+06  -6.960448e+04
   3.639711e+05   3.433370e+04
  -2.772856e+05  -5.400762e+05
   1.890710e+05  -8.748237e+05
   1.183537e+06  -4.240730e+05
   1.398997e+06   4.448543e+05
   3.949663e+05   8.875909e+05
  -8.029402e+05   4.895100e+05
  -8.168550e+05  -3.091989e+05
   5.090100e+05  -6.576268e+05
   1.840273e+06  -1.041910e+05
   1.705284e+06   9.895459e+05
   3.289663e+04   1.736138e+06
  -1.740145e+06   1.452706e+06
  -2.091424e+06   2.843426e+05
  -8.843872e+05  -8.270506e+05
   5.906583e+05  -9.533840e+05
   9.591579e+05  -1.128894e+05
   5.630154e+04   6.895493e+05
  -1.070531e+06   5.136186e+05
  -1.287533e+06  -4.746281e+05
  -4.281657e+05  -1.197501e+06
   6.606222e+05  -9.020739e+05
   9.849932e+05   1.265021e+04
   3.440912e+05   5.080249e+05
  -4.842541e+05   8.171760e+04
  -5.031400e+05  -7.395798e+05
   4.610360e+05  -1.016135e+06
   1.488581e+06  -3.444662e+05
   1.467557e+06   7.946855e+05
   2.904563e+05   1.495821e+06
  -9.856671e+05   1.215723e+06
  -1.244337e+06   2.332469e+05
  -4.476046e+05  -6.013668e+05
   4.424411e+05  -6.438709e+05
   5.647528e+05  -4.891209e+04
  -6.174517e+03   4.439624e+05
  -5.067695e+05   3.356104e+05
  -3.750441e+05  -1.026002e+05
   1.909073e+05  -1.969028e+05
   4.783169e+05   2.944194e+05
   1.064194e+02   8.468004e+05
  -9.622749e+05   7.119311e+05
  -1.539455e+06  -2.649408e+05
  -1.083715e+06  -1.416400e+06
   1.527032e+05  -1.834291e+06
   1.218471e+06  -1.188471e+06
   1.392248e+06  -1.462017e+04
   8.401413e+05   7.899794e+05
   2.949405e+05   7.872109e+05
   1.928279e+05   3.436423e+05
   2.791216e+05   1.538808e+05
   4.775073e+04   4.412165e+05
  -5.841762e+05   7.110505e+05
  -1.114653e+06   3.531206e+05
  -9.258485e+05  -5.690328e+05
   8.828670e+04  -1.250151e+06
   1.295488e+06  -9.245338e+05
   1.742884e+06   3.151725e+05
   9.518679e+05   1.526847e+06
  -5.900419e+05   1.758825e+06
  -1.777374e+06   8.914252e+05
  -1.832438e+06  -3.188233e+05
  -9.426981e+05  -9.894936e+05
   3.213105e+04  -8.986105e+05
   4.259482e+05  -5.539942e+05
   2.992848e+05  -5.327140e+05
   1.881330e+05  -8.185051e+05
   4.485339e+05  -8.486926e+05
   8.827915e+05  -2.068060e+05
   9.626288e+05   8.148286e+05
   4.003672e+05   1.419153e+06
  -4.813818e+05   1.072705e+06
  -9.751918e+05   3.429728e+04
  -6.558615e+05  -8.815210e+05
   1.666464e+05  -1.032762e+06
   7.312562e+05  -4.512920e+05
   5.963514e+05   2.995776e+05
   6.547986e+04   6.849057e+05
  -2.083354e+05   6.161902e+05
   1.297589e+04   3.890231e+05
   2.872913e+05   2.896725e+05
   2.209855e+04   3.020983e+05
  -7.897100e+05   1.872856e+05
  -1.446752e+06  -1.981630e+05
  -1.208790e+06  -7.011474e+05
  -9.548928e+04  -9.839617e+05
   1.041684e+06  -8.197582e+05
   1.316577e+06  -3.001009e+05
   6.707360e+05   2.109778e+05
  -1.285689e+05   3.538834e+05
  -3.412306e+05   9.172011e+04
   2.102405e+04  -2.192201e+05
   3.791456e+05  -1.638351e+05
   3.406873e+05   2.571647e+05
   7.383844e+04   5.684224e+05
  -3.586273e+04   3.618534e+05
   1.178278e+05  -1.496428e+05
   2.992280e+05  -3.141982e+05
   2.284443e+05   1.605220e+05
  -1.618275e+05   7.739073e+05
  -6.632643e+05   7.753757e+05
  -8.797353e+05   6.058052e+04
  -5.026254e+05  -6.820873e+05
   3.059462e+05  -7.439252e+05
   8.582475e+05  -1.447995e+05
   5.292220e+05   4.642713e+05
  -4.954257e+05   5.099367e+05
  -1.241968e+06  -6.705991e+03
  -9.081067e+05  -6.195776e+05
   2.521731e+05  -8.408894e+05
   1.159511e+06  -5.218773e+05
   1.032127e+06   6.003341e+04
   1.598902e+05   4.150261e+05
  -4.756157e+05   2.583987e+05
  -2.534395e+05  -1.833895e+05
   4.902496e+05  -3.351580e+05
   8.743550e+05   1.456895e+05
   3.986780e+05   9.281600e+05
  -5.659294e+05   1.231442e+06
  -1.174434e+06   5.839837e+05
  -9.375874e+05  -6.184680e+05
  -1.301171e+05  -1.381258e+06
   5.695238e+05  -1.037497e+06
   7.248497e+05   6.765166e+04
   3.977584e+05   8.988626e+05
  -7.869947e+04   7.918224e+05
  -4.008649e+05   1.033032e+05
  -4.199025e+05  -3.065397e+05
  -1.974733e+05  -1.321158e+05
  -9.544166e+03   9.681124e+04
  -1.068880e+05  -1.689636e+05
  -3.450664e+05  -7.114485e+05
  -2.313727e+05  -8.407976e+05
   4.416806e+05  -3.192414e+05
   1.134479e+06   3.614736e+05
   1.055189e+06   6.436439e+05
   1.495550e+05   5.138259e+05
  -7.230311e+05   3.034231e+05
  -7.773834e+05   1.617054e+05
  -2.139006e+05   4.996467e+03
   1.399259e+05  -1.615393e+05
  -5.606123e+04  -2.026007e+05
  -2.897084e+05  -1.269437e+05
  -1.484680e+03  -1.053472e+05
   5.995427e+05  -1.340334e+05
   7.795262e+05   4.572802e+04
   1.881059e+05   5.070117e+05
  -7.326018e+05   8.239152e+05
  -1.229673e+06   4.901355e+05
  -9.487177e+05  -3.879895e+05
  -1.559739e+05  -1.080593e+06
   5.703406e+05  -1.002677e+06
   7.951585e+05  -3.342109e+05
   5.035014e+05   2.335024e+05
   5.872023e+04   2.692889e+05
  -1.281494e+05  -6.225610e+03
   3.570786e+04  -7.282081e+04
   2.651975e+05   2.566592e+05
   2.128163e+05   6.149937e+05
  -1.607244e+05   4.916510e+05
  -5.277240e+05  -1.591547e+05
  -4.924299e+05  -7.832757e+05
   1.961008e+04  -7.673057e+05
   6.193723e+05  -9.408548e+04
   7.414967e+05   6.323485e+05
   1.939891e+05   8.208127e+05
  -5.586650e+05   4.401333e+05
  -8.018617e+05  -9.392672e+04
  -3.484737e+05  -4.116167e+05
   2.171388e+05  -4.336788e+05
   2.234681e+05  -2.578861e+05
  -2.592020e+05  -4.222400e+04
  -5.100445e+05   7.744025e+03
  -8.143952e+04  -2.191738e+05
   6.332474e+05  -5.116202e+05
   8.977239e+05  -4.491296e+05
   5.020988e+05   8.316840e+04
  -9.026982e+04   6.253732e+05
  -3.631500e+05   6.113156e+05
  -2.479181e+05   6.611397e+04
   6.681844e+03  -3.911886e+05
   1.991189e+05  -2.847439e+05
   2.649686e+05   1.818021e+05
   1.727346e+05   4.417385e+05
  -6.130229e+04   2.609810e+05
  -2.903756e+05  -6.832518e+04
  -3.338038e+05  -1.721458e+05
  -1.827114e+05  -3.531917e+04
  -7.279648e+03   6.086854e+04
   6.537901e+04  -7.275508e+04
   8.949752e+04  -3.053413e+05
   1.725061e+05  -3.366585e+05
   2.804292e+05  -3.825968e+04
   2.492123e+05   3.679088e+05
  -8.972829e+03   4.967071e+05
  -3.451937e+05   1.968462e+05
  -4.511250e+05  -2.634780e+05
  -1.473841e+05  -4.620088e+05
   3.688134e+05  -2.587447e+05
   6.246104e+05   9.931729e+04
   3.357048e+05   2.936921e+05
  -2.261982e+05   2.479881e+05
  -4.657562e+05   1.019088e+05
  -1.374406e+05   1.391522e+03
   3.320731e+05   1.012748e+04
   3.316416e+05   1.293923e+05
  -1.924948e+05   2.581800e+05
  -6.620181e+05   1.855322e+05
