
 $NMID
 id='ANONYMOUS ', fmtdat='(2E16.6)'
 volume=1.0
 tramp=1.0
 $END
   4.514513e+07   1.247741e+06
   2.718896e+07   2.675034e+07
  -5.126801e+06   2.977915e+07
  -2.162522e+07   1.319934e+07
  -1.391243e+07  -3.784338e+06
   1.786235e+06  -7.566184e+06
   8.182271e+06  -2.908523e+05
   3.377173e+06   7.680722e+06
  -4.297073e+06   8.778991e+06
  -7.961632e+06   2.559655e+06
  -5.995658e+06  -5.369454e+06
  -5.784642e+05  -7.680123e+06
   3.614164e+06  -2.065746e+06
   2.445256e+06   5.435892e+06
  -3.010704e+06   6.348207e+06
  -6.645667e+06  -6.600742e+05
  -3.965357e+06  -8.474310e+06
   2.979773e+06  -9.911749e+06
   8.392039e+06  -4.715335e+06
   8.683168e+06   2.164984e+06
   4.696990e+06   6.273181e+06
  -9.104286e+03   6.401933e+06
  -1.873536e+06   4.140100e+06
  -1.333138e+05   2.429536e+06
   1.839711e+06   3.107307e+06
  -2.441340e+05   4.656225e+06
  -5.844292e+06   3.711010e+06
  -9.116356e+06  -3.809226e+05
  -5.910179e+06  -4.182354e+06
   6.993802e+05  -4.373306e+06
   4.152968e+06  -1.610439e+06
   2.192746e+06   1.018763e+06
  -1.657331e+06   1.627829e+06
  -3.359154e+06   2.135544e+05
  -2.232054e+06  -2.372105e+06
   1.386465e+05  -4.231101e+06
   2.033896e+06  -3.019181e+06
   2.196743e+06   8.392085e+05
   5.954112e+05   3.084037e+06
  -7.711165e+05   7.126773e+05
   2.067993e+05  -3.025735e+06
   2.426598e+06  -2.365693e+06
   2.255473e+06   2.533077e+06
  -1.448010e+06   5.006320e+06
  -4.949865e+06   9.260091e+05
  -3.881452e+06  -5.388521e+06
   1.378292e+06  -6.724470e+06
   6.112474e+06  -1.874867e+06
   6.302887e+06   3.849378e+06
   2.075573e+06   5.459149e+06
  -3.053605e+06   2.803935e+06
  -5.124841e+06  -1.004816e+06
  -2.685808e+06  -2.989232e+06
   1.793564e+06  -2.050286e+06
   3.893913e+06   5.785454e+05
   1.836662e+06   2.173733e+06
  -1.396976e+06   1.175394e+06
  -1.766268e+06  -8.572410e+05
   6.854696e+05  -1.126436e+06
   2.139612e+06   7.337637e+05
   2.121371e+05   2.315833e+06
  -3.132007e+06   1.690618e+06
  -4.315115e+06  -6.307687e+05
  -2.118579e+06  -3.092369e+06
   1.816802e+06  -4.607205e+06
   5.025943e+06  -4.202923e+06
   5.777318e+06  -1.173366e+06
   3.772395e+06   3.201613e+06
   5.405819e+05   5.689993e+06
  -1.483861e+06   4.499378e+06
  -1.318331e+06   1.660066e+06
  -4.706805e+05   4.459806e+05
  -8.707478e+05   1.168553e+06
  -2.330202e+06   1.303430e+06
  -2.974882e+06  -5.233105e+05
  -1.754453e+06  -2.578434e+06
   4.652634e+05  -2.458315e+06
   2.034960e+06  -7.651591e+04
   1.838653e+06   2.458956e+06
  -2.038355e+05   3.077425e+06
  -2.877562e+06   1.325806e+06
  -4.064621e+06  -1.551890e+06
  -2.575164e+06  -3.570570e+06
   2.682915e+05  -3.547472e+06
   1.931045e+06  -2.138917e+06
   1.753989e+06  -1.014052e+06
   1.590502e+06  -8.445558e+05
   2.890487e+06  -6.487461e+05
   4.352385e+06   6.689033e+05
   3.527824e+06   2.767928e+06
   1.211304e+05   4.230030e+06
  -3.416023e+06   3.959138e+06
  -4.463383e+06   1.945396e+06
  -2.675829e+06  -7.468042e+05
   4.391341e+04  -2.404751e+06
   1.393513e+06  -1.851303e+06
   5.533651e+05   1.463009e+05
  -1.228763e+06   1.288033e+06
  -1.903228e+06   3.446210e+05
  -7.945377e+05  -1.212345e+06
   6.442203e+05  -1.155267e+06
   6.093482e+05   3.715733e+05
  -8.299596e+05   9.697644e+05
  -1.873669e+06  -7.264970e+05
  -1.152162e+06  -3.156820e+06
   9.399382e+05  -3.745952e+06
   2.965850e+06  -1.804251e+06
   3.721047e+06   1.095043e+06
   2.760550e+06   2.956595e+06
   5.753834e+05   2.924994e+06
  -1.391219e+06   1.534916e+06
  -1.703463e+06   1.537774e+05
  -5.132291e+05  -5.567302e+04
   3.695872e+05   7.799451e+05
  -3.826336e+05   1.315324e+06
  -1.856569e+06   5.640308e+05
  -2.035380e+06  -8.283615e+05
  -4.437107e+05  -1.380236e+06
   1.190280e+06  -6.180127e+05
   1.020473e+06   4.667745e+05
  -8.103665e+05   6.971743e+05
  -2.402426e+06  -1.464479e+05
  -2.059707e+06  -1.420543e+06
   1.449017e+05  -2.220683e+06
   2.448558e+06  -1.835500e+06
   2.922484e+06  -2.947268e+05
   1.237297e+06   1.272965e+06
  -9.331794e+05   1.452369e+06
  -1.511315e+06   1.496043e+05
  -1.313778e+05  -1.066534e+06
   1.565044e+06  -7.244830e+05
   1.789268e+06   7.788278e+05
   4.362361e+05   1.709885e+06
  -1.058685e+06   1.109186e+06
  -1.334882e+06  -2.089574e+05
  -3.421963e+05  -7.714184e+05
   7.668417e+05  -6.639175e+04
   7.260987e+05   1.089434e+06
  -6.470450e+05   1.457659e+06
  -2.110847e+06   5.008895e+05
  -2.088033e+06  -1.141560e+06
  -3.711992e+05  -2.149991e+06
   1.481747e+06  -1.691501e+06
   1.784437e+06  -2.388777e+05
   5.562748e+05   8.878385e+05
  -6.719451e+05   8.579955e+05
  -7.228952e+05   6.851145e+04
   7.299170e+04  -4.814407e+05
   5.987404e+05  -3.272465e+05
   3.045570e+05   9.350621e+04
  -3.709968e+05   6.408673e+04
  -5.815891e+05  -5.818545e+05
   1.416945e+05  -1.212072e+06
   1.419672e+06  -9.419379e+05
   2.166950e+06   4.401130e+05
   1.499658e+06   2.040834e+06
  -2.580573e+05   2.552766e+06
  -1.719104e+06   1.539581e+06
  -1.846894e+06  -8.689973e+04
  -1.012954e+06  -1.020620e+06
  -3.693729e+05  -8.715595e+05
  -4.030768e+05  -3.541498e+05
  -5.335994e+05  -2.959284e+05
  -6.645139e+04  -7.241769e+05
   8.886930e+05  -9.523863e+05
   1.540550e+06  -3.872238e+05
   1.178022e+06   7.869687e+05
  -2.187925e+05   1.621922e+06
  -1.824371e+06   1.174550e+06
  -2.388496e+06  -5.115186e+05
  -1.219814e+06  -2.191581e+06
   9.958443e+05  -2.455536e+06
   2.604682e+06  -1.112407e+06
   2.496810e+06   6.191437e+05
   1.121799e+06   1.404653e+06
  -1.492386e+05   1.102257e+06
  -4.926981e+05   6.401819e+05
  -2.422234e+05   7.796916e+05
  -2.021059e+05   1.277264e+06
  -6.952845e+05   1.270219e+06
  -1.312320e+06   2.925810e+05
  -1.365320e+06  -1.159899e+06
  -5.464097e+05  -1.999385e+06
   6.844895e+05  -1.498863e+06
   1.356708e+06  -6.183689e+02
   8.598358e+05   1.310184e+06
  -3.551756e+05   1.448114e+06
  -1.136934e+06   4.930994e+05
  -8.263623e+05  -6.094913e+05
   5.406916e+04  -1.048568e+06
   4.564573e+05  -8.247709e+05
   4.611483e+04  -4.799833e+05
  -4.290764e+05  -3.836965e+05
  -4.404743e+04  -4.135104e+05
   1.165827e+06  -2.190159e+05
   2.100735e+06   3.527830e+05
   1.679144e+06   1.067686e+06
   1.040721e+04   1.447278e+06
  -1.597904e+06   1.148146e+06
  -1.891451e+06   3.179616e+05
  -8.904674e+05  -4.337023e+05
   2.449504e+05  -5.477212e+05
   5.101790e+05  -6.635461e+04
  -3.997793e+03   3.865730e+05
  -4.986114e+05   2.491280e+05
  -4.891810e+05  -3.675185e+05
  -1.878263e+05  -7.836650e+05
  -2.995155e+04  -5.106761e+05
  -1.515941e+05   1.450074e+05
  -3.476775e+05   3.632634e+05
  -2.986655e+05  -2.392127e+05
   1.944603e+05  -1.057346e+06
   9.547471e+05  -1.093312e+06
   1.353182e+06  -1.178858e+05
   8.024436e+05   9.762861e+05
  -4.533122e+05   1.126763e+06
  -1.281166e+06   2.705337e+05
  -7.525732e+05  -6.336260e+05
   7.283133e+05  -6.843433e+05
   1.695635e+06   8.376948e+04
   1.133474e+06   9.000811e+05
  -4.550424e+05   1.086228e+06
  -1.597066e+06   5.773475e+05
  -1.352642e+06  -1.664269e+05
  -1.689886e+05  -5.572928e+05
   6.781384e+05  -3.057853e+05
   3.786957e+05   2.947921e+05
  -6.539712e+05   5.114921e+05
  -1.239728e+06  -1.492121e+05
  -6.337724e+05  -1.279434e+06
   7.133868e+05  -1.763720e+06
   1.610435e+06  -8.710368e+05
   1.311909e+06   8.414032e+05
   1.795820e+05   1.910166e+06
  -8.015691e+05   1.390144e+06
  -9.860252e+05  -1.613230e+05
  -4.788794e+05  -1.260159e+06
   1.947631e+05  -1.049088e+06
   5.799862e+05  -1.019569e+05
   5.246265e+05   4.134577e+05
   2.118379e+05   1.594711e+05
   3.695136e+04  -1.122260e+05
   2.332858e+05   2.906465e+05
   5.034912e+05   1.018498e+06
   2.351831e+05   1.151456e+06
  -7.064067e+05   4.147931e+05
  -1.562556e+06  -5.143749e+05
  -1.388044e+06  -9.023040e+05
  -1.910331e+05  -7.322362e+05
   9.478340e+05  -4.285296e+05
   1.058225e+06  -1.940738e+05
   3.479852e+05   3.963819e+04
  -1.723273e+05   2.332112e+05
   4.505790e+03   2.371291e+05
   3.268602e+05   1.274741e+05
   3.344795e+04   1.452603e+05
  -7.541351e+05   2.236386e+05
  -1.101629e+06  -4.310629e+04
  -3.789715e+05  -7.342510e+05
   9.536180e+05  -1.206260e+06
   1.780614e+06  -7.374545e+05
   1.430762e+06   5.071606e+05
   2.505402e+05   1.500048e+06
  -8.226156e+05   1.426689e+06
  -1.119155e+06   5.219718e+05
  -6.967400e+05  -2.804713e+05
  -1.168364e+05  -3.813213e+05
   1.140821e+05  -4.536745e+04
  -7.083607e+04   4.489551e+04
  -3.310416e+05  -3.799401e+05
  -2.651908e+05  -8.577463e+05
   2.096741e+05  -7.067350e+05
   7.279386e+05   1.663794e+05
   7.431622e+05   1.046322e+06
   6.125684e+04   1.090405e+06
  -8.259833e+05   2.133990e+05
  -1.071915e+06  -8.141999e+05
  -3.254796e+05  -1.156847e+06
   7.726210e+05  -6.768616e+05
   1.163102e+06   1.090044e+05
   5.289347e+05   6.311785e+05
  -3.135980e+05   6.776001e+05
  -3.763002e+05   3.729855e+05
   2.961512e+05   2.496753e+04
   6.966766e+05  -2.607048e+04
   1.379291e+05   3.220913e+05
  -8.835621e+05   7.091128e+05
  -1.309871e+06   5.746264e+05
  -7.679160e+05  -1.752042e+05
   1.196516e+05  -9.043214e+05
   5.690127e+05  -8.808707e+05
   4.206513e+05  -1.382603e+05
   3.230192e+04   5.222068e+05
  -2.671656e+05   4.389066e+05
  -3.735178e+05  -1.904522e+05
  -2.548753e+05  -6.159023e+05
   7.204027e+04  -4.245002e+05
   4.121846e+05   6.637857e+04
   4.869109e+05   2.844219e+05
   2.534653e+05   8.750137e+04
  -1.776581e+04  -1.371475e+05
  -8.352556e+04   4.064311e+02
  -3.244572e+04   3.951461e+05
  -1.208341e+05   5.522520e+05
  -3.622336e+05   1.740189e+05
  -4.420356e+05  -4.450996e+05
  -1.044422e+05  -6.950355e+05
   4.521990e+05  -3.127784e+05
   6.800879e+05   3.262775e+05
   2.453758e+05   6.229292e+05
  -5.340640e+05   3.737433e+05
  -9.159610e+05  -1.076794e+05
  -4.921831e+05  -4.081636e+05
   3.182972e+05  -3.972727e+05
   6.733603e+05  -2.044697e+05
   2.431984e+05  -9.518122e+03
  -3.996467e+05   4.604329e+04
  -4.442147e+05  -1.045180e+05
   2.064370e+05  -3.257655e+05
   8.318435e+05  -2.769902e+05
