
 $NMID
 id='ANONYMOUS ', fmtdat='(2E16.6)'
 volume=1.0
 tramp=1.0
 $END
   2.796456e+07   4.744248e+05
   1.817235e+07   1.400979e+07
  -8.344662e+05   1.784699e+07
  -1.245312e+07   1.095466e+07
  -9.878469e+06   4.178884e+05
  -2.649993e+05  -4.980018e+06
   5.590720e+06  -2.058147e+06
   3.856413e+06   4.576767e+06
  -1.621305e+06   7.311331e+06
  -5.231550e+06   3.080649e+06
  -4.384649e+06  -3.631644e+06
  -4.901750e+05  -5.716451e+06
   2.662348e+06  -1.217795e+06
   2.037908e+06   4.651355e+06
  -1.725034e+06   5.434775e+06
  -4.619085e+06   3.347975e+05
  -3.278893e+06  -5.515502e+06
   1.435743e+06  -6.853146e+06
   5.386162e+06  -3.214198e+06
   5.449349e+06   1.644611e+06
   2.379963e+06   3.979369e+06
  -3.928024e+05   3.254649e+06
  -3.456312e+05   1.810615e+06
   1.668928e+06   1.998201e+06
   2.299896e+06   3.675436e+06
  -6.681620e+05   4.480406e+06
  -5.384654e+06   2.603885e+06
  -7.296579e+06  -9.931999e+05
  -4.067841e+06  -3.475906e+06
   1.415325e+06  -3.035923e+06
   3.920853e+06  -4.745067e+05
   1.547282e+06   1.848375e+06
  -2.515019e+06   2.032389e+06
  -3.957401e+06  -1.273403e+05
  -1.929647e+06  -2.955439e+06
   9.003526e+05  -3.895793e+06
   1.867306e+06  -1.803718e+06
   8.254270e+05   1.328673e+06
  -4.891501e+05   2.017370e+06
  -5.445768e+05  -5.719732e+05
   7.218096e+05  -3.142304e+06
   2.033043e+06  -2.157985e+06
   1.868646e+06   1.481612e+06
  -9.300126e+04   3.334116e+06
  -2.283866e+06   9.804969e+05
  -2.371746e+06  -2.966534e+06
   3.839950e+05  -4.113642e+06
   3.913330e+06  -1.314840e+06
   4.943405e+06   2.566224e+06
   2.178397e+06   4.142115e+06
  -2.180368e+06   2.614147e+06
  -4.368407e+06  -2.435286e+05
  -2.684234e+06  -2.065011e+06
   8.842057e+05  -1.717849e+06
   2.785684e+06   3.067222e+04
   1.566950e+06   1.295916e+06
  -8.528828e+05   8.790188e+05
  -1.585736e+06  -5.420472e+05
  -4.002985e+04  -1.247151e+06
   1.618528e+06  -4.416118e+05
   1.139971e+06   9.597820e+05
  -1.185402e+06   1.439962e+06
  -2.835123e+06   3.345939e+05
  -1.771065e+06  -1.747235e+06
   1.443410e+06  -3.371216e+06
   4.233682e+06  -3.097390e+06
   4.516964e+06  -5.922366e+05
   2.519826e+06   2.674214e+06
   2.164308e+05   4.401263e+06
  -8.015587e+05   3.683941e+06
  -7.051587e+05   1.931754e+06
  -7.600229e+05   1.058483e+06
  -1.635899e+06   1.135827e+06
  -2.665083e+06   6.251333e+05
  -2.670726e+06  -1.166285e+06
  -1.233405e+06  -2.808645e+06
   8.688895e+05  -2.394131e+06
   2.216828e+06   6.593112e+04
   1.755267e+06   2.476368e+06
  -3.356109e+05   2.778191e+06
  -2.537884e+06   8.609748e+05
  -3.101094e+06  -1.586454e+06
  -1.664095e+06  -2.791127e+06
   3.370673e+05  -2.372511e+06
   1.234872e+06  -1.337031e+06
   1.008280e+06  -8.255212e+05
   1.126359e+06  -9.393790e+05
   2.437638e+06  -7.882896e+05
   3.768997e+06   3.968277e+05
   3.131040e+06   2.313974e+06
   1.724516e+05   3.734084e+06
  -3.068351e+06   3.510999e+06
  -4.068593e+06   1.560128e+06
  -2.303344e+06  -9.157878e+05
   3.250247e+05  -2.207385e+06
   1.445609e+06  -1.507852e+06
   4.574986e+05   2.244626e+05
  -1.166636e+06   1.095434e+06
  -1.615316e+06   2.806199e+05
  -5.768643e+05  -1.018569e+06
   6.592422e+05  -1.033701e+06
   7.146564e+05   3.024429e+05
  -4.743293e+05   1.145107e+06
  -1.687132e+06  -1.582194e+04
  -1.597524e+06  -2.392321e+06
   9.343597e+04  -3.629408e+06
   2.387616e+06  -2.329294e+06
   3.665129e+06   5.385491e+05
   2.909272e+06   2.716688e+06
   6.541218e+05   2.825827e+06
  -1.317812e+06   1.403577e+06
  -1.576375e+06   8.143979e+04
  -4.600902e+05  -4.806612e+04
   3.425311e+05   6.874060e+05
  -2.621909e+05   1.107452e+06
  -1.517399e+06   5.131281e+05
  -1.763041e+06  -5.981352e+05
  -4.752994e+05  -1.134098e+06
   1.023723e+06  -6.023507e+05
   1.018311e+06   3.974592e+05
  -6.497434e+05   8.035909e+05
  -2.302227e+06   9.502586e+04
  -2.117746e+06  -1.259029e+06
  -1.601268e+04  -2.170956e+06
   2.209467e+06  -1.802209e+06
   2.644050e+06  -3.291895e+05
   1.105220e+06   1.065317e+06
  -7.712185e+05   1.205390e+06
  -1.228520e+06   1.249160e+05
  -6.415637e+04  -8.837115e+05
   1.365577e+06  -6.361774e+05
   1.617933e+06   6.231254e+05
   5.138567e+05   1.515432e+06
  -8.501080e+05   1.115631e+06
  -1.234211e+06  -4.069685e+04
  -4.156286e+05  -6.455497e+05
   6.189910e+05  -9.048250e+04
   6.282998e+05   9.464257e+05
  -5.955687e+05   1.283560e+06
  -1.889891e+06   4.205579e+05
  -1.849854e+06  -1.024674e+06
  -3.463597e+05  -1.898661e+06
   1.267943e+06  -1.522466e+06
   1.576569e+06  -2.727813e+05
   5.520501e+05   7.664297e+05
  -5.691307e+05   8.040226e+05
  -7.092565e+05   5.878454e+04
   1.203637e+04  -5.470370e+05
   6.292862e+05  -4.118412e+05
   4.568476e+05   1.202348e+05
  -2.434657e+05   2.248344e+05
  -5.874366e+05  -3.881551e+05
   2.189646e+04  -1.067572e+06
   1.228702e+06  -8.828530e+05
   1.942861e+06   3.577341e+05
   1.352180e+06   1.807462e+06
  -2.156049e+05   2.315810e+06
  -1.549900e+06   1.479640e+06
  -1.748328e+06  -9.455513e+02
  -1.044330e+06  -9.941683e+05
  -3.708538e+05  -9.776793e+05
  -2.569272e+05  -4.316351e+05
  -3.601925e+05  -2.104300e+05
  -5.125150e+04  -5.676764e+05
   7.507115e+05  -8.867774e+05
   1.407676e+06  -4.267738e+05
   1.155715e+06   7.238469e+05
  -1.275122e+05   1.565787e+06
  -1.644528e+06   1.145407e+06
  -2.194295e+06  -4.208556e+05
  -1.176322e+06  -1.941467e+06
   7.790593e+05  -2.211166e+06
   2.262090e+06  -1.092667e+06
   2.301797e+06   4.343704e+05
   1.164632e+06   1.255050e+06
  -5.237720e+04   1.118935e+06
  -5.302424e+05   6.892803e+05
  -3.707099e+05   6.810885e+05
  -2.469686e+05   1.047201e+06
  -5.855255e+05   1.073069e+06
  -1.125592e+06   2.493793e+05
  -1.209932e+06  -1.043341e+06
  -4.898402e+05  -1.800062e+06
   6.210639e+05  -1.351323e+06
   1.231363e+06  -2.947156e+04
   8.123145e+05   1.126100e+06
  -2.321029e+05   1.299861e+06
  -9.336060e+05   5.467388e+05
  -7.425759e+05  -4.009951e+05
  -5.952699e+04  -8.686237e+05
   2.823986e+05  -7.672149e+05
  -9.601399e+03  -4.841198e+05
  -3.635943e+05  -3.687736e+05
  -2.628104e+04  -3.821725e+05
   1.004316e+06  -2.224340e+05
   1.831403e+06   2.754715e+05
   1.517128e+06   9.064806e+05
   9.708262e+04   1.246533e+06
  -1.338294e+06   1.020282e+06
  -1.668550e+06   3.551233e+05
  -8.364036e+05  -2.836298e+05
   1.740724e+05  -4.480358e+05
   4.327934e+05  -1.058286e+05
  -3.010531e+04   2.849227e+05
  -4.794920e+05   2.063010e+05
  -4.290154e+05  -3.300750e+05
  -9.508061e+04  -7.224173e+05
   4.257230e+04  -4.611211e+05
  -1.467973e+05   1.831802e+05
  -3.726153e+05   3.908587e+05
  -2.849169e+05  -2.058177e+05
   2.090646e+05  -9.765096e+05
   8.498049e+05  -9.735040e+05
   1.125267e+06  -6.506165e+04
   6.361460e+05   8.741653e+05
  -4.005874e+05   9.440821e+05
  -1.096884e+06   1.765359e+05
  -6.663062e+05  -5.920317e+05
   6.338278e+05  -6.359449e+05
   1.564372e+06   2.603984e+04
   1.129289e+06   7.903576e+05
  -3.326793e+05   1.049169e+06
  -1.463730e+06   6.361584e+05
  -1.293842e+06  -8.990147e+04
  -1.942660e+05  -5.224194e+05
   6.031085e+05  -3.166423e+05
   3.191158e+05   2.388980e+05
  -6.227854e+05   4.237843e+05
  -1.108241e+06  -1.895461e+05
  -5.018322e+05  -1.179907e+06
   7.239224e+05  -1.558619e+06
   1.491323e+06  -7.323750e+05
   1.180601e+06   7.902014e+05
   1.508404e+05   1.746701e+06
  -7.291681e+05   1.301093e+06
  -9.110634e+05  -9.764354e+04
  -4.870709e+05  -1.138212e+06
   1.125545e+05  -9.923221e+05
   5.080172e+05  -1.220695e+05
   5.233040e+05   3.882390e+05
   2.440392e+05   1.643457e+05
   1.410867e+04  -1.194121e+05
   1.382444e+05   2.229756e+05
   4.298332e+05   9.064486e+05
   2.774303e+05   1.060230e+06
  -5.682293e+05   3.928002e+05
  -1.428903e+06  -4.688697e+05
  -1.320549e+06  -8.217373e+05
  -1.816985e+05  -6.519359e+05
   9.126142e+05  -3.792731e+05
   9.812678e+05  -1.949214e+05
   2.728020e+05   1.916539e+03
  -1.770252e+05   2.044786e+05
   6.448879e+04   2.498558e+05
   3.606287e+05   1.560864e+05
   3.515768e+03   1.344219e+05
  -7.542008e+05   1.698814e+05
  -9.874503e+05  -6.472352e+04
  -2.413863e+05  -6.503330e+05
   9.316217e+05  -1.042117e+06
   1.567978e+06  -6.089749e+05
   1.206330e+06   5.021040e+05
   1.892032e+05   1.368977e+06
  -7.351054e+05   1.263410e+06
  -1.012254e+06   4.187624e+05
  -6.357853e+05  -2.964364e+05
  -7.419877e+04  -3.431183e+05
   1.588060e+05   1.903564e+03
  -4.530448e+04   8.604755e+04
  -3.285295e+05  -3.275449e+05
  -2.601249e+05  -7.786201e+05
   2.079878e+05  -6.225007e+05
   6.674036e+05   2.016735e+05
   6.213879e+05   9.941206e+05
  -2.606604e+04   9.756144e+05
  -7.845170e+05   1.211443e+05
  -9.372619e+05  -8.032047e+05
  -2.410071e+05  -1.043375e+06
   7.131516e+05  -5.564633e+05
   1.017821e+06   1.270717e+05
   4.376852e+05   5.307797e+05
  -2.830453e+05   5.519170e+05
  -2.912946e+05   3.222414e+05
   3.232648e+05   5.045254e+04
   6.445109e+05  -6.445283e+03
   1.021028e+05   2.804308e+05
  -8.059581e+05   6.401048e+05
  -1.142654e+06   5.519303e+05
  -6.373556e+05  -1.182075e+05
   1.214285e+05  -7.929303e+05
   4.720384e+05  -7.691218e+05
   3.224828e+05  -8.180168e+04
  -7.978599e+03   4.944227e+05
  -2.556169e+05   3.620274e+05
  -3.362098e+05  -2.274774e+05
  -2.150855e+05  -5.609987e+05
   8.162305e+04  -3.351032e+05
   3.683459e+05   8.725801e+04
   4.203142e+05   2.257935e+05
   2.289794e+05   4.972710e+04
   9.670012e+03  -8.249661e+04
  -7.853345e+04   8.311022e+04
  -1.072259e+05   3.865167e+05
  -2.149804e+05   4.360120e+05
  -3.576727e+05   5.691479e+04
  -3.222258e+05  -4.660661e+05
   6.670948e+03  -6.331827e+05
   4.377150e+05  -2.498486e+05
   5.738401e+05   3.365155e+05
   1.858974e+05   5.856631e+05
  -4.712949e+05   3.236824e+05
  -7.939811e+05  -1.313170e+05
  -4.236125e+05  -3.757655e+05
   2.910194e+05  -3.155173e+05
   5.947040e+05  -1.283516e+05
   1.785048e+05   1.182416e+03
  -4.170139e+05  -8.471056e+03
  -4.197228e+05  -1.598609e+05
   2.394105e+05  -3.242312e+05
   8.321672e+05  -2.331997e+05
