
 $NMID
 id='ANONYMOUS ', fmtdat='(2E16.6)'
 volume=1.0
 tramp=1.0
 $END
   4.888337e+07   2.033001e+06
   2.843341e+07   3.036396e+07
  -6.959162e+06   3.235422e+07
  -2.386570e+07   1.279178e+07
  -1.435424e+07  -5.403230e+06
   2.596365e+06  -7.981242e+06
   8.542338e+06   5.706451e+05
   2.791370e+06   8.348958e+06
  -5.116706e+06   8.591401e+06
  -8.450797e+06   2.044812e+06
  -6.159000e+06  -5.718736e+06
  -5.320265e+05  -7.904094e+06
   3.753665e+06  -2.248879e+06
   2.417936e+06   5.327119e+06
  -3.325635e+06   6.178136e+06
  -6.938765e+06  -1.095244e+06
  -3.849957e+06  -9.078012e+06
   3.495700e+06  -1.038054e+07
   9.061775e+06  -4.894265e+06
   9.373711e+06   2.315659e+06
   5.252623e+06   6.841947e+06
   4.901502e+04   7.267720e+06
  -2.469504e+06   4.756450e+06
  -9.127662e+05   2.338310e+06
   1.531499e+06   2.575908e+06
  -2.249214e+04   4.371137e+06
  -5.593609e+06   3.898478e+06
  -9.187606e+06  -1.135506e+05
  -6.218454e+06  -4.192076e+06
   3.608633e+05  -4.629281e+06
   3.949024e+06  -1.987057e+06
   2.335901e+06   5.878774e+05
  -1.117836e+06   1.366919e+06
  -2.838453e+06   3.929455e+05
  -2.227106e+06  -1.926279e+06
  -2.183096e+05  -4.071674e+06
   1.979205e+06  -3.310255e+06
   2.645212e+06   6.055069e+05
   9.891924e+05   3.341466e+06
  -8.626450e+05   1.206894e+06
  -5.754507e+04  -2.752037e+06
   2.396107e+06  -2.258069e+06
   2.205598e+06   2.785675e+06
  -1.967519e+06   5.264605e+06
  -5.694141e+06   7.278337e+05
  -4.133578e+06  -6.047392e+06
   1.784864e+06  -7.266514e+06
   6.582958e+06  -1.893782e+06
   6.336461e+06   4.120166e+06
   1.829522e+06   5.567053e+06
  -3.173083e+06   2.633414e+06
  -5.002168e+06  -1.257363e+06
  -2.444198e+06  -3.128103e+06
   2.038788e+06  -1.994500e+06
   4.031336e+06   7.950662e+05
   1.778139e+06   2.374834e+06
  -1.521753e+06   1.189689e+06
  -1.690356e+06  -9.193066e+05
   9.286514e+05  -9.494973e+05
   2.137256e+06   1.194407e+06
  -2.584238e+05   2.666254e+06
  -3.722682e+06   1.585200e+06
  -4.563759e+06  -1.043459e+06
  -2.050945e+06  -3.428670e+06
   1.864026e+06  -4.762811e+06
   4.990076e+06  -4.333485e+06
   5.875346e+06  -1.304157e+06
   4.003315e+06   3.207011e+06
   6.115052e+05   5.797751e+06
  -1.669282e+06   4.464202e+06
  -1.454798e+06   1.388528e+06
  -2.780003e+05   1.623355e+05
  -4.645782e+05   1.127438e+06
  -2.018262e+06   1.518005e+06
  -2.894880e+06  -1.989389e+05
  -1.862595e+06  -2.279431e+06
   2.380799e+05  -2.304657e+06
   1.792560e+06  -1.537184e+05
   1.738858e+06   2.240280e+06
  -1.242561e+05   2.961378e+06
  -2.802225e+06   1.420777e+06
  -4.161884e+06  -1.430708e+06
  -2.746073e+06  -3.645794e+06
   2.507970e+05  -3.774486e+06
   2.102641e+06  -2.292384e+06
   1.939854e+06  -9.886180e+05
   1.653988e+06  -7.210468e+05
   2.840677e+06  -5.288424e+05
   4.240828e+06   7.366510e+05
   3.406021e+06   2.737974e+06
   8.928391e+04   4.095636e+06
  -3.286486e+06   3.832127e+06
  -4.276300e+06   1.961011e+06
  -2.630320e+06  -6.126496e+05
  -8.719561e+04  -2.305947e+06
   1.260042e+06  -1.860405e+06
   5.530637e+05   9.940344e+04
  -1.155119e+06   1.269200e+06
  -1.871035e+06   3.427224e+05
  -8.222363e+05  -1.200854e+06
   5.806706e+05  -1.117265e+06
   5.099220e+05   3.609119e+05
  -9.018089e+05   7.992752e+05
  -1.769041e+06  -9.756509e+05
  -8.446813e+05  -3.202689e+06
   1.214490e+06  -3.453956e+06
   2.938670e+06  -1.417066e+06
   3.421260e+06   1.228464e+06
   2.476371e+06   2.795271e+06
   5.063327e+05   2.721322e+06
  -1.306844e+06   1.471517e+06
  -1.621964e+06   1.775769e+05
  -4.946899e+05  -5.345408e+04
   3.505608e+05   7.545976e+05
  -4.057304e+05   1.292893e+06
  -1.849466e+06   5.340685e+05
  -1.979104e+06  -8.601204e+05
  -3.900719e+05  -1.367217e+06
   1.159824e+06  -5.713314e+05
   9.342529e+05   4.521016e+05
  -8.058928e+05   5.882079e+05
  -2.237575e+06  -2.325675e+05
  -1.864671e+06  -1.360070e+06
   1.931815e+05  -2.052524e+06
   2.342425e+06  -1.701696e+06
   2.800244e+06  -2.598812e+05
   1.191264e+06   1.256853e+06
  -9.292106e+05   1.438068e+06
  -1.509745e+06   1.443684e+05
  -1.475548e+05  -1.059590e+06
   1.522268e+06  -7.024859e+05
   1.713215e+06   7.796560e+05
   3.677633e+05   1.646553e+06
  -1.054114e+06   1.010902e+06
  -1.260541e+06  -2.610803e+05
  -2.801568e+05  -7.550471e+05
   7.653554e+05  -4.561577e+04
   7.062006e+05   1.063366e+06
  -6.180477e+05   1.413981e+06
  -2.035171e+06   4.948397e+05
  -2.020968e+06  -1.098726e+06
  -3.518796e+05  -2.081783e+06
   1.450936e+06  -1.624736e+06
   1.724998e+06  -2.061914e+05
   5.123066e+05   8.629268e+05
  -6.576254e+05   8.090324e+05
  -6.678137e+05   7.141374e+04
   8.855017e+04  -4.088333e+05
   5.298927e+05  -2.666351e+05
   2.135426e+05   6.551654e+04
  -3.893867e+05  -1.633651e+04
  -5.254323e+05  -6.165141e+05
   1.834159e+05  -1.171502e+06
   1.385031e+06  -8.890612e+05
   2.085696e+06   4.391039e+05
   1.441272e+06   1.974253e+06
  -2.517713e+05   2.446433e+06
  -1.645190e+06   1.441649e+06
  -1.734802e+06  -1.105434e+05
  -9.220955e+05  -9.403035e+05
  -3.503231e+05  -7.514088e+05
  -4.407089e+05  -2.967675e+05
  -5.633087e+05  -3.157483e+05
  -6.365803e+04  -7.350093e+05
   8.750533e+05  -9.020903e+05
   1.469657e+06  -3.400179e+05
   1.093384e+06   7.456531e+05
  -2.347235e+05   1.511060e+06
  -1.749062e+06   1.092396e+06
  -2.276207e+06  -5.054882e+05
  -1.138535e+06  -2.115997e+06
   1.007040e+06  -2.355120e+06
   2.534736e+06  -1.027529e+06
   2.370984e+06   6.436468e+05
   1.011771e+06   1.345063e+06
  -1.715466e+05   1.000001e+06
  -4.291597e+05   5.712020e+05
  -1.662671e+05   7.673371e+05
  -1.697856e+05   1.276996e+06
  -6.885722e+05   1.250944e+06
  -1.286762e+06   2.858384e+05
  -1.322304e+06  -1.115313e+06
  -5.282450e+05  -1.921862e+06
   6.542725e+05  -1.441090e+06
   1.298183e+06   1.030773e+04
   8.080653e+05   1.280284e+06
  -3.788305e+05   1.389581e+06
  -1.126547e+06   4.249772e+05
  -7.875948e+05  -6.504862e+05
   1.028679e+05  -1.035534e+06
   4.934000e+05  -7.752963e+05
   6.323412e+04  -4.357385e+05
  -4.247078e+05  -3.599324e+05
  -4.920930e+04  -3.945516e+05
   1.139982e+06  -1.980926e+05
   2.044989e+06   3.596490e+05
   1.610172e+06   1.049154e+06
  -3.080980e+04   1.411320e+06
  -1.580451e+06   1.105565e+06
  -1.829468e+06   2.754772e+05
  -8.351374e+05  -4.610883e+05
   2.581422e+05  -5.442929e+05
   4.998191e+05  -4.247661e+04
   4.831606e+03   4.017023e+05
  -4.669715e+05   2.504827e+05
  -4.762966e+05  -3.538771e+05
  -2.154255e+05  -7.506340e+05
  -6.026234e+04  -4.945587e+05
  -1.384003e+05   1.171513e+05
  -3.044729e+05   3.245979e+05
  -2.798259e+05  -2.340629e+05
   1.702602e+05  -1.008851e+06
   9.228923e+05  -1.056287e+06
   1.345044e+06  -1.266828e+05
   8.103672e+05   9.456549e+05
  -4.425399e+05   1.114743e+06
  -1.261024e+06   2.877770e+05
  -7.308796e+05  -5.998032e+05
   7.082663e+05  -6.491449e+05
   1.611616e+06   9.822276e+04
   1.042112e+06   8.671660e+05
  -4.664317e+05   1.009580e+06
  -1.517397e+06   5.071303e+05
  -1.264052e+06  -1.808312e+05
  -1.456801e+05  -5.241928e+05
   6.525466e+05  -2.759355e+05
   3.722692e+05   2.960526e+05
  -6.156419e+05   5.105055e+05
  -1.198991e+06  -1.184891e+05
  -6.427616e+05  -1.221465e+06
   6.498195e+05  -1.714785e+06
   1.532666e+06  -8.649828e+05
   1.265003e+06   7.933142e+05
   1.813061e+05   1.825798e+06
  -7.632386e+05   1.316507e+06
  -9.354098e+05  -1.738775e+05
  -4.372064e+05  -1.206611e+06
   2.113963e+05  -9.840988e+05
   5.621857e+05  -8.411042e+04
   4.831973e+05   3.871103e+05
   1.813438e+05   1.407332e+05
   4.266791e+04  -9.871202e+04
   2.540068e+05   3.007015e+05
   4.949982e+05   9.849402e+05
   1.998005e+05   1.092623e+06
  -7.076855e+05   3.870177e+05
  -1.493914e+06  -4.890877e+05
  -1.305182e+06  -8.579577e+05
  -1.797471e+05  -7.068526e+05
   8.853988e+05  -4.197010e+05
   1.003789e+06  -1.805174e+05
   3.506953e+05   5.517403e+04
  -1.559757e+05   2.282506e+05
  -1.985841e+04   2.084803e+05
   2.874923e+05   1.002062e+05
   4.404293e+04   1.397263e+05
  -6.937744e+05   2.341757e+05
  -1.062950e+06  -2.924689e+04
  -4.087134e+05  -7.165240e+05
   8.861328e+05  -1.184916e+06
   1.730602e+06  -7.333602e+05
   1.415633e+06   4.710670e+05
   2.597352e+05   1.436555e+06
  -7.935877e+05   1.382013e+06
  -1.077004e+06   5.259213e+05
  -6.691619e+05  -2.492915e+05
  -1.262468e+05  -3.685885e+05
   8.747079e+04  -6.595319e+04
  -7.356070e+04   2.192892e+04
  -3.043125e+05  -3.697361e+05
  -2.466690e+05  -8.204644e+05
   1.932538e+05  -6.869439e+05
   6.978566e+05   1.356681e+05
   7.399300e+05   9.852105e+05
   9.570108e+04   1.056106e+06
  -7.802619e+05   2.400300e+05
  -1.048342e+06  -7.524862e+05
  -3.374289e+05  -1.114633e+06
   7.378602e+05  -6.763164e+05
   1.133525e+06   9.268536e+04
   5.240398e+05   6.255294e+05
  -3.042797e+05   6.777271e+05
  -3.833966e+05   3.620422e+05
   2.615980e+05   7.782661e+03
   6.635010e+05  -3.433249e+04
   1.422174e+05   3.152705e+05
  -8.442835e+05   6.828210e+05
  -1.273301e+06   5.364991e+05
  -7.602963e+05  -1.884357e+05
   1.092831e+05  -8.800975e+05
   5.656126e+05  -8.559951e+05
   4.319838e+05  -1.489267e+05
   4.952689e+04   4.937528e+05
  -2.518717e+05   4.380416e+05
  -3.629193e+05  -1.579852e+05
  -2.525438e+05  -5.901177e+05
   6.427067e+04  -4.302334e+05
   3.993551e+05   5.137442e+04
   4.747538e+05   2.875044e+05
   2.418026e+05   9.669581e+04
  -2.608037e+04  -1.515739e+05
  -7.384612e+04  -3.596727e+04
   5.633024e+03   3.711475e+05
  -7.226445e+04   5.648009e+05
  -3.402503e+05   2.138907e+05
  -4.631437e+05  -4.032381e+05
  -1.462551e+05  -6.711888e+05
   4.229941e+05  -3.172280e+05
   6.740887e+05   2.965283e+05
   2.536262e+05   5.900369e+05
  -5.183125e+05   3.650980e+05
  -8.967292e+05  -8.927599e+04
  -4.829217e+05  -3.895466e+05
   3.062503e+05  -4.013400e+05
   6.558268e+05  -2.213999e+05
   2.524342e+05  -1.137120e+04
  -3.618865e+05   7.026673e+04
  -4.224978e+05  -6.964592e+04
   1.725569e+05  -3.029966e+05
   7.637897e+05  -2.794880e+05
