
 $NMID
 id='ANONYMOUS ', fmtdat='(2E16.6)'
 volume=1.0
 tramp=1.0
 $END
   2.620203e+07   1.668211e+06
   1.589333e+07   1.388255e+07
  -1.846383e+06   1.634508e+07
  -1.173645e+07   9.382529e+06
  -8.700537e+06  -1.439953e+04
   1.590655e+04  -4.449273e+06
   4.974058e+06  -1.681024e+06
   3.289555e+06   4.158126e+06
  -1.554562e+06   6.499784e+06
  -4.760599e+06   2.630136e+06
  -3.989145e+06  -3.474835e+06
  -3.791910e+05  -5.330285e+06
   2.563910e+06  -1.123894e+06
   1.946129e+06   4.280781e+06
  -1.573013e+06   4.911715e+06
  -4.178772e+06   1.572351e+05
  -2.826135e+06  -5.151372e+06
   1.556393e+06  -6.236474e+06
   5.140760e+06  -2.776731e+06
   5.096084e+06   1.769076e+06
   2.106107e+06   3.947858e+06
  -6.306094e+05   3.168809e+06
  -6.182797e+05   1.583559e+06
   1.437150e+06   1.573727e+06
   2.247813e+06   3.196672e+06
  -4.742532e+05   4.162665e+06
  -4.984404e+06   2.537661e+06
  -6.852357e+06  -8.713972e+05
  -3.832118e+06  -3.310676e+06
   1.322278e+06  -2.982473e+06
   3.721396e+06  -5.944850e+05
   1.608362e+06   1.676633e+06
  -2.145920e+06   2.019421e+06
  -3.630418e+06   8.574826e+04
  -1.922135e+06  -2.662640e+06
   7.314779e+05  -3.696666e+06
   1.819028e+06  -1.729775e+06
   9.184682e+05   1.344358e+06
  -4.643781e+05   2.042081e+06
  -6.769125e+05  -4.745127e+05
   5.280803e+05  -2.945446e+06
   1.833515e+06  -1.987569e+06
   1.645484e+06   1.396654e+06
  -2.381772e+05   2.964572e+06
  -2.165132e+06   6.488469e+05
  -2.039068e+06  -2.916634e+06
   5.711734e+05  -3.758581e+06
   3.689551e+06  -1.083083e+06
   4.495323e+06   2.405826e+06
   1.950764e+06   3.760109e+06
  -1.977351e+06   2.361286e+06
  -3.943643e+06  -2.154343e+05
  -2.402951e+06  -1.860572e+06
   8.441079e+05  -1.519626e+06
   2.541189e+06   9.812900e+04
   1.384678e+06   1.222003e+06
  -8.145265e+05   7.890338e+05
  -1.441491e+06  -4.871778e+05
  -5.613741e+04  -1.057969e+06
   1.357129e+06  -3.400870e+05
   8.774153e+05   7.998982e+05
  -1.151225e+06   1.134554e+06
  -2.528570e+06   1.680951e+05
  -1.520986e+06  -1.643827e+06
   1.386397e+06  -3.120351e+06
   3.940901e+06  -2.893076e+06
   4.226474e+06  -5.418351e+05
   2.366026e+06   2.541163e+06
   1.823970e+05   4.109331e+06
  -7.593534e+05   3.343201e+06
  -5.923883e+05   1.693271e+06
  -5.813067e+05   9.829865e+05
  -1.423297e+06   1.168516e+06
  -2.470156e+06   7.212377e+05
  -2.559763e+06  -9.865066e+05
  -1.264539e+06  -2.578259e+06
   7.090479e+05  -2.268775e+06
   2.039205e+06  -3.964231e+04
   1.688391e+06   2.218376e+06
  -2.521357e+05   2.579999e+06
  -2.364148e+06   8.439197e+05
  -2.924723e+06  -1.471719e+06
  -1.544481e+06  -2.644559e+06
   3.799319e+05  -2.234413e+06
   1.216478e+06  -1.203102e+06
   9.508855e+05  -6.956935e+05
   1.007029e+06  -8.274722e+05
   2.199899e+06  -7.310674e+05
   3.438180e+06   3.315700e+05
   2.884997e+06   2.085438e+06
   2.076081e+05   3.415952e+06
  -2.761301e+06   3.270218e+06
  -3.729834e+06   1.512855e+06
  -2.169773e+06  -8.044961e+05
   2.400597e+05  -2.068411e+06
   1.317596e+06  -1.444536e+06
   4.449604e+05   1.982347e+05
  -1.055966e+06   1.040609e+06
  -1.491374e+06   2.779376e+05
  -5.484755e+05  -9.496531e+05
   5.863854e+05  -9.793699e+05
   6.555621e+05   2.401719e+05
  -3.873601e+05   1.013986e+06
  -1.461994e+06  -9.022978e+03
  -1.419388e+06  -2.112685e+06
   2.723365e+04  -3.220836e+06
   2.071194e+06  -2.105062e+06
   3.295018e+06   4.170529e+05
   2.698915e+06   2.388827e+06
   6.646296e+05   2.554084e+06
  -1.181247e+06   1.314573e+06
  -1.452630e+06   1.068626e+05
  -4.235443e+05  -3.871751e+04
   3.258733e+05   6.234063e+05
  -2.324166e+05   1.014997e+06
  -1.390340e+06   4.798725e+05
  -1.617066e+06  -5.328866e+05
  -4.442950e+05  -1.031134e+06
   9.229009e+05  -5.694777e+05
   9.377331e+05   3.285563e+05
  -5.550889e+05   7.280008e+05
  -2.068003e+06   1.368799e+05
  -1.947909e+06  -1.081790e+06
  -6.898912e+04  -1.962363e+06
   1.975581e+06  -1.684128e+06
   2.412732e+06  -3.443780e+05
   1.023752e+06   9.664963e+05
  -7.046240e+05   1.117906e+06
  -1.136146e+06   1.195235e+05
  -6.973462e+04  -8.224227e+05
   1.245876e+06  -6.049803e+05
   1.486850e+06   5.459301e+05
   4.908989e+05   1.369374e+06
  -7.507293e+05   1.023624e+06
  -1.116395e+06  -1.573166e+04
  -3.873409e+05  -5.745229e+05
   5.608236e+05  -8.849372e+04
   5.893369e+05   8.553921e+05
  -5.231007e+05   1.186294e+06
  -1.726004e+06   4.175476e+05
  -1.713131e+06  -9.113479e+05
  -3.443786e+05  -1.735654e+06
   1.141700e+06  -1.410084e+06
   1.439251e+06  -2.696291e+05
   5.169325e+05   6.919209e+05
  -5.049371e+05   7.459497e+05
  -6.510435e+05   7.762583e+04
  -1.714279e+04  -4.889568e+05
   5.458936e+05  -3.977427e+05
   4.176702e+05   7.221052e+04
  -1.969290e+05   1.878275e+05
  -5.194242e+05  -3.424799e+05
   1.166139e+04  -9.620659e+05
   1.107499e+06  -8.185069e+05
   1.779646e+06   2.987999e+05
   1.263609e+06   1.634936e+06
  -1.594710e+05   2.124237e+06
  -1.386197e+06   1.379319e+06
  -1.590846e+06   3.458160e+04
  -9.785573e+05  -8.777148e+05
  -3.787448e+05  -8.814825e+05
  -2.592168e+05  -4.031548e+05
  -3.270641e+05  -2.048642e+05
  -4.141422e+04  -5.211976e+05
   6.726866e+05  -8.125939e+05
   1.268587e+06  -4.095223e+05
   1.064348e+06   6.319929e+05
  -8.195683e+04   1.420644e+06
  -1.474801e+06   1.070042e+06
  -2.008678e+06  -3.461645e+05
  -1.102981e+06  -1.749539e+06
   6.803318e+05  -2.023003e+06
   2.045776e+06  -1.024799e+06
   2.099999e+06   3.573400e+05
   1.083130e+06   1.111863e+06
  -1.497290e+04   1.012243e+06
  -4.573722e+05   6.486997e+05
  -3.277930e+05   6.516792e+05
  -2.224280e+05   9.763057e+05
  -5.309315e+05   9.901007e+05
  -1.031599e+06   2.395464e+05
  -1.126559e+06  -9.397266e+05
  -4.784997e+05  -1.642792e+06
   5.469469e+05  -1.250182e+06
   1.124428e+06  -4.858774e+04
   7.549691e+05   1.014716e+06
  -1.943267e+05   1.183562e+06
  -8.348126e+05   5.018572e+05
  -6.664169e+05  -3.588381e+05
  -5.575988e+04  -7.816713e+05
   2.452015e+05  -6.895693e+05
  -2.270570e+04  -4.363450e+05
  -3.412566e+05  -3.357726e+05
  -3.017417e+04  -3.509994e+05
   9.138624e+05  -2.113449e+05
   1.676353e+06   2.336182e+05
   1.396658e+06   8.066785e+05
   1.005882e+05   1.129180e+06
  -1.213361e+06   9.428688e+05
  -1.515692e+06   3.465712e+05
  -7.565993e+05  -2.433938e+05
   1.597622e+05  -4.073540e+05
   3.888542e+05  -9.881294e+04
  -3.340391e+04   2.662462e+05
  -4.401761e+05   1.998430e+05
  -3.981225e+05  -2.989971e+05
  -1.003190e+05  -6.714781e+05
   3.112210e+04  -4.334584e+05
  -1.243773e+05   1.697752e+05
  -3.242837e+05   3.706261e+05
  -2.599850e+05  -1.810334e+05
   1.738059e+05  -9.000228e+05
   7.637483e+05  -9.021767e+05
   1.034785e+06  -6.437786e+04
   5.959474e+05   8.026981e+05
  -3.623369e+05   8.704602e+05
  -1.012436e+06   1.707611e+05
  -6.225796e+05  -5.343770e+05
   5.694659e+05  -5.890561e+05
   1.427292e+06  -3.685907e+03
   1.042392e+06   6.928252e+05
  -2.808032e+05   9.546802e+05
  -1.315502e+06   6.070840e+05
  -1.177731e+06  -5.269167e+04
  -1.885541e+05  -4.697457e+05
   5.420732e+05  -2.987088e+05
   2.932083e+05   2.165774e+05
  -5.682497e+05   4.032130e+05
  -1.026270e+06  -1.566081e+05
  -4.828658e+05  -1.082981e+06
   6.433422e+05  -1.451744e+06
   1.363455e+06  -7.001945e+05
   1.099008e+06   7.069212e+05
   1.681534e+05   1.600619e+06
  -6.419443e+05   1.204241e+06
  -8.294665e+05  -7.281053e+04
  -4.638428e+05  -1.027546e+06
   8.101104e+04  -9.017016e+05
   4.587675e+05  -1.176862e+05
   4.873783e+05   3.399491e+05
   2.291262e+05   1.387596e+05
   8.826148e+03  -1.072175e+05
   1.252516e+05   2.123363e+05
   4.069549e+05   8.277442e+05
   2.738648e+05   9.586790e+05
  -5.126164e+05   3.593833e+05
  -1.317971e+06  -4.050415e+05
  -1.223860e+06  -7.233376e+05
  -1.749601e+05  -5.933297e+05
   8.316259e+05  -3.695734e+05
   8.934288e+05  -1.973460e+05
   2.453844e+05   3.676218e+03
  -1.600872e+05   1.936715e+05
   6.717325e+04   2.195382e+05
   3.379267e+05   1.274684e+05
   6.012750e+03   1.260775e+05
  -6.922765e+05   1.777906e+05
  -9.095258e+05  -4.437538e+04
  -2.302664e+05  -6.064092e+05
   8.438975e+05  -9.802055e+05
   1.436089e+06  -5.774542e+05
   1.120161e+06   4.534690e+05
   1.967544e+05   1.256962e+06
  -6.574786e+05   1.168059e+06
  -9.280136e+05   3.999267e+05
  -5.929583e+05  -2.600998e+05
  -7.354950e+04  -3.171183e+05
   1.510132e+05  -8.733846e+03
  -3.379236e+04   7.661276e+04
  -3.038348e+05  -2.906816e+05
  -2.515768e+05  -7.062903e+05
   1.823391e+05  -5.768031e+05
   6.220683e+05   1.720454e+05
   5.928664e+05   9.080029e+05
  -9.207991e+03   9.065087e+05
  -7.273366e+05   1.293232e+05
  -8.815959e+05  -7.257578e+05
  -2.371557e+05  -9.601763e+05
   6.526839e+05  -5.234509e+05
   9.388306e+05   1.050223e+05
   4.039884e+05   4.850294e+05
  -2.588573e+05   5.101664e+05
  -2.636251e+05   2.933390e+05
   3.009788e+05   3.370754e+04
   5.927808e+05  -1.796502e+04
   9.637441e+04   2.586649e+05
  -7.288309e+05   6.005412e+05
  -1.034368e+06   5.180774e+05
  -5.807726e+05  -1.065691e+05
   1.022326e+05  -7.309233e+05
   4.246648e+05  -7.065895e+05
   3.005827e+05  -7.190449e+04
   3.597974e+03   4.585227e+05
  -2.335202e+05   3.378036e+05
  -3.194836e+05  -2.033669e+05
  -2.065668e+05  -5.129758e+05
   7.636465e+04  -3.109414e+05
   3.429662e+05   7.463226e+04
   3.846296e+05   2.032817e+05
   2.065522e+05   4.223180e+04
   1.321923e+04  -7.946655e+04
  -5.903137e+04   7.753505e+04
  -8.771857e+04   3.668961e+05
  -1.987408e+05   4.182966e+05
  -3.411417e+05   6.244180e+04
  -3.120223e+05  -4.329239e+05
  -4.831394e+03  -5.947680e+05
   4.018317e+05  -2.400007e+05
   5.371554e+05   3.050841e+05
   1.828273e+05   5.387423e+05
  -4.288636e+05   3.024230e+05
  -7.346836e+05  -1.124902e+05
  -3.953096e+05  -3.407127e+05
   2.679100e+05  -2.945792e+05
   5.513340e+05  -1.253856e+05
   1.653987e+05   4.245077e+03
  -3.893290e+05   7.180523e+03
  -3.966990e+05  -1.370427e+05
   2.098285e+05  -3.085274e+05
   7.613659e+05  -2.384225e+05
