
 $NMID
 id='ANONYMOUS ', fmtdat='(2E16.6)'
 volume=1.0
 tramp=1.0
 $END
  -4.154582e+07   2.122426e+06
  -2.734004e+07  -2.220785e+07
   2.061267e+06  -2.777083e+07
   1.895176e+07  -1.429992e+07
   1.353088e+07   2.026694e+06
  -8.419014e+05   7.251135e+06
  -7.752759e+06   1.194170e+06
  -4.025202e+06  -6.918517e+06
   3.260144e+06  -8.835504e+06
   7.312218e+06  -3.198577e+06
   6.000097e+06   4.621310e+06
   1.026081e+06   7.219113e+06
  -3.253618e+06   2.109123e+06
  -2.634139e+06  -5.119856e+06
   2.407102e+06  -6.359467e+06
   6.311274e+06   2.382546e+04
   4.386272e+06   7.620629e+06
  -2.010443e+06   9.489441e+06
  -7.434581e+06   4.966153e+06
  -8.114283e+06  -1.441806e+06
  -4.640058e+06  -5.401746e+06
  -4.255026e+05  -5.700456e+06
   1.197512e+06  -3.848384e+06
  -3.644622e+05  -2.487662e+06
  -1.997790e+06  -3.175700e+06
   1.324463e+05  -4.572564e+06
   5.484865e+06  -3.736039e+06
   8.667849e+06  -7.418284e+03
   5.733729e+06   3.632226e+06
  -5.552346e+05   4.050170e+06
  -3.927359e+06   1.557476e+06
  -2.022747e+06  -1.041438e+06
   1.794007e+06  -1.696784e+06
   3.429826e+06  -2.246179e+05
   2.205165e+06   2.370508e+06
  -1.006734e+05   4.089028e+06
  -1.773443e+06   2.852585e+06
  -1.901522e+06  -7.355058e+05
  -5.827015e+05  -2.739430e+06
   5.859534e+05  -4.964199e+05
  -2.020755e+05   3.001032e+06
  -2.225864e+06   2.440213e+06
  -2.354968e+06  -2.186531e+06
   8.272252e+05  -4.812198e+06
   4.350507e+06  -1.350250e+06
   3.969307e+06   4.589609e+06
  -6.865082e+05   6.296238e+06
  -5.514420e+06   2.175029e+06
  -6.254150e+06  -3.208473e+06
  -2.411294e+06  -5.092660e+06
   2.735412e+06  -2.946531e+06
   5.051084e+06   5.797191e+05
   2.870007e+06   2.683048e+06
  -1.490090e+06   2.122738e+06
  -3.719758e+06  -2.165884e+05
  -1.934837e+06  -1.890707e+06
   1.207371e+06  -1.211678e+06
   1.782846e+06   7.041510e+05
  -4.984551e+05   1.234915e+06
  -2.151294e+06  -3.613526e+05
  -6.070875e+05  -2.097186e+06
   2.632003e+06  -1.917435e+06
   4.099308e+06   1.381676e+05
   2.271596e+06   2.692137e+06
  -1.450370e+06   4.436264e+06
  -4.586617e+06   4.220336e+06
  -5.400268e+06   1.379875e+06
  -3.669043e+06  -2.828112e+06
  -8.024071e+05  -5.354331e+06
   1.094124e+06  -4.429469e+06
   1.146811e+06  -1.811910e+06
   5.635771e+05  -5.625633e+05
   9.751149e+05  -1.125067e+06
   2.279144e+06  -1.221416e+06
   2.865197e+06   5.098347e+05
   1.722593e+06   2.500937e+06
  -4.426532e+05   2.419202e+06
  -2.047908e+06   1.130267e+05
  -1.909342e+06  -2.371679e+06
   8.328202e+04  -2.999981e+06
   2.704520e+06  -1.366858e+06
   3.908062e+06   1.312373e+06
   2.582656e+06   3.219360e+06
  -4.468782e+04   3.297070e+06
  -1.630532e+06   2.099114e+06
  -1.539245e+06   1.101245e+06
  -1.463645e+06   9.605607e+05
  -2.770847e+06   8.248171e+05
  -4.261964e+06  -3.918130e+05
  -3.576848e+06  -2.491904e+06
  -3.380923e+05  -4.108994e+06
   3.137157e+06  -4.012050e+06
   4.254546e+06  -2.065756e+06
   2.603424e+06   6.414713e+05
   1.013922e+04   2.331889e+06
  -1.296615e+06   1.824210e+06
  -5.311966e+05  -1.308558e+05
   1.143114e+06  -1.296633e+06
   1.816943e+06  -4.299494e+05
   8.111848e+05   1.117638e+06
  -5.879357e+05   1.150523e+06
  -6.486178e+05  -3.391783e+05
   7.288809e+05  -1.063214e+06
   1.913672e+06   4.882876e+05
   1.425223e+06   2.978001e+06
  -6.058709e+05   3.812921e+06
  -2.807356e+06   2.067845e+06
  -3.782591e+06  -8.265353e+05
  -2.914756e+06  -2.799120e+06
  -7.117015e+05  -2.875762e+06
   1.299343e+06  -1.561803e+06
   1.658368e+06  -2.157442e+05
   5.032285e+05   2.941317e+04
  -4.008784e+05  -7.403376e+05
   2.867169e+05  -1.291709e+06
   1.751990e+06  -6.527185e+05
   2.022580e+06   6.739812e+05
   5.241060e+05   1.308400e+06
  -1.123991e+06   6.732282e+05
  -1.039148e+06  -4.089093e+05
   7.546569e+05  -7.597898e+05
   2.395901e+06  -5.813498e+03
   2.130906e+06   1.304833e+06
  -2.002557e+04   2.219177e+06
  -2.313725e+06   1.936319e+06
  -2.844003e+06   4.384719e+05
  -1.272592e+06  -1.165255e+06
   8.179248e+05  -1.445921e+06
   1.439022e+06  -2.273739e+05
   1.747935e+05   1.013368e+06
  -1.480955e+06   7.815374e+05
  -1.789866e+06  -6.584985e+05
  -5.341131e+05  -1.651698e+06
   9.676559e+05  -1.165019e+06
   1.330547e+06   1.118682e+05
   3.973343e+05   7.341553e+05
  -7.312516e+05   1.134654e+05
  -7.566025e+05  -1.017794e+06
   5.619189e+05  -1.444074e+06
   2.029260e+06  -5.827753e+05
   2.084026e+06   1.010831e+06
   4.697236e+05   2.072224e+06
  -1.350906e+06   1.725504e+06
  -1.727833e+06   3.325171e+05
  -5.987829e+05  -8.366389e+05
   6.089498e+05  -8.784407e+05
   7.132625e+05  -9.664798e+04
  -4.612501e+04   4.997053e+05
  -5.955775e+05   3.637363e+05
  -3.352113e+05  -9.871528e+04
   3.539364e+05  -1.209128e+05
   6.183473e+05   5.177688e+05
  -5.774782e+04   1.192259e+06
  -1.332572e+06   9.964725e+05
  -2.135126e+06  -3.181485e+05
  -1.561727e+06  -1.913037e+06
   1.286403e+05  -2.506686e+06
   1.611548e+06  -1.602179e+06
   1.829342e+06  -1.173495e+04
   1.057637e+06   9.739408e+05
   3.938530e+05   8.757208e+05
   3.787936e+05   3.411945e+05
   5.138204e+05   2.423371e+05
   1.035094e+05   6.851981e+05
  -8.144268e+05   9.804880e+05
  -1.494681e+06   4.640084e+05
  -1.203767e+06  -7.232329e+05
   1.315258e+05  -1.619172e+06
   1.731133e+06  -1.249008e+06
   2.365333e+06   3.813992e+05
   1.311792e+06   2.078885e+06
  -8.304160e+05   2.450979e+06
  -2.477341e+06   1.233702e+06
  -2.485233e+06  -4.642400e+05
  -1.193347e+06  -1.327010e+06
   8.651734e+04  -1.114632e+06
   4.771164e+05  -6.638968e+05
   2.290570e+05  -7.552433e+05
   1.416652e+05  -1.228847e+06
   6.037911e+05  -1.260467e+06
   1.253202e+06  -3.491601e+05
   1.382489e+06   1.064588e+06
   6.272421e+05   1.923577e+06
  -5.974353e+05   1.494099e+06
  -1.327191e+06   7.024693e+04
  -9.126877e+05  -1.228748e+06
   2.592635e+05  -1.435139e+06
   1.074841e+06  -5.631410e+05
   8.460830e+05   5.245755e+05
   2.526698e+04   1.018050e+06
  -3.813474e+05   8.411154e+05
  -1.567090e+04   4.851263e+05
   4.299838e+05   3.571582e+05
   5.874038e+04   4.022828e+05
  -1.119283e+06   2.773344e+05
  -2.056110e+06  -2.314454e+05
  -1.693308e+06  -9.507626e+05
  -1.013454e+05  -1.405828e+06
   1.481906e+06  -1.200355e+06
   1.827744e+06  -4.167810e+05
   9.045422e+05   3.612264e+05
  -1.998355e+05   5.400348e+05
  -4.925542e+05   1.004042e+05
  -1.365463e+04  -3.622531e+05
   4.797388e+05  -2.605185e+05
   4.923052e+05   3.343940e+05
   2.035234e+05   7.532954e+05
   3.887217e+04   4.915257e+05
   1.473946e+05  -1.585798e+05
   3.391598e+05  -3.789774e+05
   3.061916e+05   2.186637e+05
  -1.490520e+05   1.042609e+06
  -8.765302e+05   1.109440e+06
  -1.291283e+06   1.774017e+05
  -8.109898e+05  -9.064051e+05
   3.817860e+05  -1.106146e+06
   1.219709e+06  -3.148261e+05
   7.599181e+05   5.860344e+05
  -6.750152e+05   7.077279e+05
  -1.669449e+06   5.740182e+03
  -1.172104e+06  -8.286689e+05
   3.821353e+05  -1.101701e+06
   1.544734e+06  -6.606619e+05
   1.347420e+06   9.185664e+04
   1.983011e+05   5.430555e+05
  -6.484318e+05   3.395055e+05
  -3.807387e+05  -2.622049e+05
   6.176561e+05  -5.193763e+05
   1.210005e+06   9.766908e+04
   6.621329e+05   1.218164e+06
  -6.269501e+05   1.741408e+06
  -1.534019e+06   9.117352e+05
  -1.316694e+06  -7.653145e+05
  -2.611510e+05  -1.859255e+06
   7.214195e+05  -1.403375e+06
   9.777535e+05   1.026440e+05
   5.379019e+05   1.211343e+06
  -1.309294e+05   1.046967e+06
  -5.600655e+05   1.341709e+05
  -5.404519e+05  -3.856092e+05
  -2.235878e+05  -1.538366e+05
  -2.813540e+04   1.165591e+05
  -2.292915e+05  -2.587676e+05
  -5.351892e+05  -9.653952e+05
  -2.957848e+05  -1.121771e+06
   6.566521e+05  -4.472375e+05
   1.552402e+06   4.305998e+05
   1.410395e+06   8.217501e+05
   2.234521e+05   7.043308e+05
  -9.159914e+05   4.568133e+05
  -1.030344e+06   2.412961e+05
  -3.354260e+05  -1.208812e+04
   1.611312e+05  -2.328424e+05
  -2.534664e+04  -2.433636e+05
  -3.352891e+05  -1.225722e+05
  -3.357938e+04  -1.386846e+05
   7.380760e+05  -2.413376e+05
   1.073396e+06  -5.024840e+03
   3.843653e+05   6.881826e+05
  -8.847263e+05   1.206752e+06
  -1.690093e+06   7.947141e+05
  -1.398813e+06  -4.301259e+05
  -3.062613e+05  -1.452118e+06
   7.320455e+05  -1.426232e+06
   1.063730e+06  -5.508579e+05
   6.910109e+05   2.503677e+05
   1.254831e+05   3.638269e+05
  -1.174611e+05   3.637102e+04
   6.663661e+04  -5.802867e+04
   3.482248e+05   3.541739e+05
   3.031523e+05   8.268216e+05
  -1.738784e+05   6.947392e+05
  -7.161909e+05  -1.394736e+05
  -7.603396e+05  -9.923202e+05
  -9.496368e+04  -1.052975e+06
   7.984674e+05  -2.293213e+05
   1.072737e+06   7.557864e+05
   3.611681e+05   1.109209e+06
  -7.210786e+05   6.842637e+05
  -1.131088e+06  -5.509174e+04
  -5.404804e+05  -5.797320e+05
   2.694604e+05  -6.633993e+05
   3.383176e+05  -3.823204e+05
  -2.997196e+05  -2.055285e+04
  -6.804846e+05   5.344495e+04
  -1.458635e+05  -3.039333e+05
   8.304474e+05  -7.329058e+05
   1.245281e+06  -6.323957e+05
   7.490105e+05   1.221563e+05
  -7.510716e+04   8.821387e+05
  -5.030489e+05   8.840987e+05
  -3.887285e+05   1.501472e+05
  -4.660756e+04  -5.099793e+05
   2.404172e+05  -4.326086e+05
   3.689684e+05   1.797517e+05
   2.741929e+05   5.888521e+05
  -5.005572e+04   4.063089e+05
  -4.024371e+05  -5.073392e+04
  -4.868925e+05  -2.466420e+05
  -2.537416e+05  -6.736974e+04
   2.161857e+04   1.223857e+05
   8.849430e+04  -2.132020e+04
   3.154526e+04  -3.873025e+05
   1.091161e+05  -5.234105e+05
   3.439509e+05  -1.636707e+05
   4.313748e+05   4.209585e+05
   1.131897e+05   6.667104e+05
  -4.301535e+05   3.174505e+05
  -6.673777e+05  -2.920039e+05
  -2.595345e+05  -5.983749e+05
   5.002020e+05  -3.877910e+05
   8.893316e+05   6.649433e+04
   4.946059e+05   3.749929e+05
  -2.892908e+05   3.933891e+05
  -6.403392e+05   2.205820e+05
  -2.276046e+05   2.187259e+04
   3.956130e+05  -4.906612e+04
   4.372491e+05   9.608246e+04
  -1.993998e+05   3.297979e+05
  -8.142210e+05   2.997488e+05
