
 $NMID
 id='ANONYMOUS ', fmtdat='(2E16.6)'
 volume=1.0
 tramp=1.0
 $END
  -5.694069e+07   4.640143e+05
  -3.455304e+07  -3.520296e+07
   7.337086e+06  -3.873304e+07
   2.794270e+07  -1.488566e+07
   1.674431e+07   7.191186e+06
  -3.372349e+06   9.496142e+06
  -9.988031e+06  -1.303457e+06
  -2.777327e+06  -9.937093e+06
   6.336690e+06  -9.405200e+06
   9.777504e+06  -1.985092e+06
   7.062609e+06   6.212130e+06
   8.517142e+05   8.623801e+06
  -3.976927e+06   2.796041e+06
  -2.617027e+06  -5.406135e+06
   3.821778e+06  -6.550200e+06
   7.964475e+06   1.356166e+06
   4.510643e+06   1.029088e+07
  -3.776400e+06   1.192300e+07
  -1.015787e+07   6.031760e+06
  -1.092539e+07  -1.955276e+06
  -6.797762e+06  -7.476655e+06
  -8.402165e+05  -8.771076e+06
   2.913785e+06  -6.237078e+06
   1.997408e+06  -2.781703e+06
  -9.809749e+05  -2.093964e+06
  -2.669984e+05  -4.082063e+06
   5.306111e+06  -4.398828e+06
   9.612558e+06  -5.789574e+05
   7.095317e+06   4.060547e+06
   3.596309e+05   5.051066e+06
  -3.617676e+06   2.617091e+06
  -2.437993e+06   1.165565e+05
   5.428104e+05  -8.223760e+05
   2.159553e+06  -4.587252e+05
   2.134625e+06   1.346255e+06
   7.436166e+05   3.845474e+06
  -1.739160e+06   3.892895e+06
  -3.271710e+06   5.145645e+03
  -1.819663e+06  -3.614926e+06
   7.182977e+05  -2.019649e+06
   3.579809e+05   2.370085e+06
  -2.458421e+06   2.283935e+06
  -2.476096e+06  -3.231982e+06
   2.460525e+06  -6.240595e+06
   7.083194e+06  -1.096308e+06
   5.255127e+06   6.976409e+06
  -1.882927e+06   8.659478e+06
  -7.482008e+06   2.496010e+06
  -6.990558e+06  -4.468044e+06
  -1.828813e+06  -6.071112e+06
   3.510603e+06  -2.703455e+06
   5.271589e+06   1.574261e+06
   2.407785e+06   3.537268e+06
  -2.458381e+06   2.224362e+06
  -4.576017e+06  -9.308258e+05
  -1.970437e+06  -2.755708e+06
   1.731989e+06  -1.391775e+06
   1.737148e+06   1.044518e+06
  -1.382215e+06   9.276570e+05
  -2.542629e+06  -1.818757e+06
   6.314116e+05  -3.558140e+06
   4.723066e+06  -1.975344e+06
   5.393024e+06   1.373061e+06
   2.358131e+06   4.028523e+06
  -1.777258e+06   5.292702e+06
  -4.970732e+06   4.863092e+06
  -6.182171e+06   1.791133e+06
  -4.621403e+06  -3.115147e+06
  -9.812761e+05  -6.173890e+06
   1.886545e+06  -4.792296e+06
   1.820708e+06  -1.201295e+06
   1.751880e+05   3.227275e+05
  -8.771943e+04  -9.178432e+05
   1.523760e+06  -1.786211e+06
   2.761524e+06  -2.866114e+05
   2.014154e+06   1.870137e+06
   4.502390e+04   2.098377e+06
  -1.511658e+06   1.895198e+05
  -1.644440e+06  -2.059882e+06
  -6.362067e+03  -2.916000e+06
   2.745240e+06  -1.669753e+06
   4.481316e+06   1.150514e+06
   3.272162e+06   3.746239e+06
   6.752442e+03   4.267230e+06
  -2.279393e+06   2.775004e+06
  -2.267337e+06   1.166595e+06
  -1.864998e+06   6.779307e+05
  -2.962475e+06   4.598669e+05
  -4.360849e+06  -7.853965e+05
  -3.482207e+06  -2.788373e+06
  -1.109642e+05  -4.132821e+06
   3.217521e+06  -3.887651e+06
   4.163152e+06  -2.115352e+06
   2.647867e+06   4.035422e+05
   2.896420e+05   2.214351e+06
  -1.081281e+06   1.932115e+06
  -5.617594e+05  -2.730588e+04
   1.084895e+06  -1.307787e+06
   1.917373e+06  -3.992080e+05
   9.344819e+05   1.208438e+06
  -5.153346e+05   1.108580e+06
  -4.130202e+05  -4.057366e+05
   1.113980e+06  -6.833166e+05
   1.890843e+06   1.358926e+06
   6.014329e+05   3.568277e+06
  -1.699238e+06   3.423826e+06
  -3.217785e+06   1.043196e+06
  -3.296191e+06  -1.527049e+06
  -2.212674e+06  -2.793816e+06
  -4.130811e+05  -2.602070e+06
   1.244031e+06  -1.452765e+06
   1.573103e+06  -2.237685e+05
   4.939472e+05   4.874901e+04
  -3.547488e+05  -7.585778e+05
   4.272837e+05  -1.356975e+06
   1.935188e+06  -5.786632e+05
   2.052525e+06   9.159532e+05
   3.752677e+05   1.442030e+06
  -1.188648e+06   5.631704e+05
  -8.776913e+05  -4.722366e+05
   8.771491e+05  -4.986310e+05
   2.181389e+06   3.740965e+05
   1.706667e+06   1.391419e+06
  -2.928283e+05   1.961344e+06
  -2.334467e+06   1.624059e+06
  -2.786340e+06   2.478421e+05
  -1.220034e+06  -1.287647e+06
   9.340736e+05  -1.520462e+06
   1.584411e+06  -1.911921e+05
   2.080977e+05   1.093074e+06
  -1.532181e+06   7.358926e+05
  -1.724345e+06  -8.075162e+05
  -3.115238e+05  -1.672727e+06
   1.126095e+06  -9.625067e+05
   1.265124e+06   3.465127e+05
   2.279682e+05   8.013716e+05
  -8.137801e+05   5.006050e+04
  -7.402402e+05  -1.066280e+06
   5.824926e+05  -1.431283e+06
   2.019498e+06  -5.396474e+05
   2.043947e+06   1.064698e+06
   3.740178e+05   2.093070e+06
  -1.467030e+06   1.645985e+06
  -1.743994e+06   1.928570e+05
  -4.925673e+05  -8.847738e+05
   6.749132e+05  -7.999975e+05
   6.271101e+05  -6.943855e+04
  -1.376709e+05   3.465357e+05
  -4.878688e+05   1.814113e+05
  -9.056661e+04  -7.259390e+04
   4.751726e+05   1.013302e+05
   5.139047e+05   7.043915e+05
  -2.308469e+05   1.201381e+06
  -1.404117e+06   8.880643e+05
  -2.092008e+06  -4.341408e+05
  -1.461783e+06  -1.965519e+06
   2.353435e+05  -2.428057e+06
   1.635667e+06  -1.392826e+06
   1.686130e+06   1.553320e+05
   8.283138e+05   9.009737e+05
   2.956531e+05   6.263925e+05
   4.881484e+05   1.971873e+05
   6.514245e+05   3.196955e+05
   9.375479e+04   7.813675e+05
  -8.953514e+05   8.973279e+05
  -1.457229e+06   3.024807e+05
  -1.031825e+06  -7.348230e+05
   2.787023e+05  -1.449991e+06
   1.740305e+06  -1.051083e+06
   2.248956e+06   5.082544e+05
   1.114308e+06   2.125778e+06
  -1.048310e+06   2.376953e+06
  -2.579287e+06   1.009953e+06
  -2.354894e+06  -7.010438e+05
  -9.251494e+05  -1.361455e+06
   2.351215e+05  -9.312490e+05
   3.857718e+05  -4.845271e+05
   5.452071e+04  -7.496292e+05
   9.275993e+04  -1.325536e+06
   6.826544e+05  -1.305161e+06
   1.309621e+06  -3.192436e+05
   1.341140e+06   1.090467e+06
   5.498369e+05   1.904988e+06
  -6.309406e+05   1.439298e+06
  -1.290891e+06  -1.498323e+04
  -8.050982e+05  -1.305238e+06
   4.154453e+05  -1.405920e+06
   1.192594e+06  -3.877645e+05
   8.202927e+05   7.315078e+05
  -1.445135e+05   1.099997e+06
  -5.681894e+05   7.860581e+05
  -1.005023e+05   4.108213e+05
   4.363266e+05   3.332491e+05
   6.031420e+04   3.823824e+05
  -1.164567e+06   2.032355e+05
  -2.083961e+06  -3.480498e+05
  -1.621154e+06  -1.059841e+06
   5.846692e+04  -1.457191e+06
   1.619975e+06  -1.146627e+06
   1.851631e+06  -2.584174e+05
   8.347169e+05   5.236235e+05
  -2.710938e+05   5.820088e+05
  -5.221672e+05   2.393519e+04
  -3.848212e+04  -4.340096e+05
   4.382418e+05  -2.595696e+05
   4.848310e+05   3.446139e+05
   2.668029e+05   7.184879e+05
   1.097601e+05   4.767396e+05
   1.394831e+05  -8.242552e+04
   2.727667e+05  -2.746011e+05
   2.727096e+05   2.375980e+05
  -1.396015e+05   9.823768e+05
  -9.084028e+05   1.070569e+06
  -1.387068e+06   1.870390e+05
  -8.732881e+05  -9.166276e+05
   4.176198e+05  -1.160118e+06
   1.273346e+06  -3.549527e+05
   7.367281e+05   5.717288e+05
  -7.143329e+05   6.453253e+05
  -1.588957e+06  -1.174198e+05
  -9.808707e+05  -8.835149e+05
   5.145966e+05  -9.786555e+05
   1.508690e+06  -4.431208e+05
   1.222226e+06   2.175404e+05
   1.202865e+05   5.145189e+05
  -6.585485e+05   2.574338e+05
  -3.931085e+05  -3.026628e+05
   5.772110e+05  -5.321044e+05
   1.188204e+06   6.659753e+04
   6.922424e+05   1.175774e+06
  -5.680819e+05   1.715689e+06
  -1.477299e+06   9.031659e+05
  -1.261137e+06  -7.529840e+05
  -2.035234e+05  -1.793981e+06
   7.480927e+05  -1.285085e+06
   9.265894e+05   1.965158e+05
   4.129713e+05   1.203102e+06
  -2.475359e+05   9.630841e+05
  -5.729163e+05   7.413917e+04
  -4.497239e+05  -3.788085e+05
  -1.442108e+05  -1.350063e+05
  -5.716599e+04   9.069924e+04
  -3.095373e+05  -3.066013e+05
  -5.210246e+05  -9.757629e+05
  -1.652301e+05  -1.082143e+06
   7.461123e+05  -3.942358e+05
   1.476154e+06   4.692731e+05
   1.261071e+06   8.454476e+05
   1.824293e+05   7.071297e+05
  -8.363301e+05   4.203680e+05
  -9.817186e+05   1.730623e+05
  -3.816849e+05  -6.422164e+04
   1.375425e+05  -2.280103e+05
   6.295904e+04  -1.960747e+05
  -2.368733e+05  -8.267171e+04
  -6.194298e+04  -1.308263e+05
   6.329213e+05  -2.465910e+05
   1.055126e+06  -1.091533e+03
   4.806563e+05   6.949293e+05
  -8.119891e+05   1.202521e+06
  -1.723761e+06   7.917224e+05
  -1.456370e+06  -4.065581e+05
  -2.949435e+05  -1.406419e+06
   7.718225e+05  -1.398176e+06
   1.051534e+06  -5.676668e+05
   6.544814e+05   2.133930e+05
   1.499194e+05   3.590486e+05
  -4.206888e+04   8.295213e+04
   9.352062e+04   2.727599e+03
   2.905485e+05   3.791616e+05
   2.404229e+05   8.131318e+05
  -1.690335e+05   6.906450e+05
  -6.779632e+05  -9.581614e+04
  -7.678427e+05  -9.284909e+05
  -1.605853e+05  -1.037146e+06
   7.332092e+05  -2.851243e+05
   1.055362e+06   6.857294e+05
   3.815390e+05   1.092947e+06
  -7.040534e+05   7.115282e+05
  -1.141223e+06  -5.438298e+04
  -5.605348e+05  -6.319544e+05
   2.824672e+05  -7.144800e+05
   4.044625e+05  -3.827249e+05
  -2.185756e+05   1.975443e+03
  -6.449215e+05   4.955398e+04
  -1.610719e+05  -3.134840e+05
   8.250757e+05  -6.859293e+05
   1.289864e+06  -5.338454e+05
   8.003565e+05   1.929146e+05
  -8.535030e+04   8.872990e+05
  -5.731412e+05   8.810134e+05
  -4.551248e+05   1.914018e+05
  -7.392871e+04  -4.676307e+05
   2.290880e+05  -4.566533e+05
   3.517741e+05   1.171125e+05
   2.660361e+05   5.768060e+05
  -3.887979e+04   4.552296e+05
  -3.941064e+05  -2.831223e+04
  -4.929447e+05  -2.959832e+05
  -2.467557e+05  -1.119190e+05
   5.213837e+04   1.714661e+05
   8.795879e+04   8.818062e+04
  -5.362272e+04  -3.341558e+05
  -1.439032e+04  -5.805955e+05
   2.961797e+05  -2.739773e+05
   5.006955e+05   3.390619e+05
   2.160225e+05   6.411751e+05
  -3.911080e+05   3.346739e+05
  -6.898794e+05  -2.520300e+05
  -2.766824e+05  -5.609774e+05
   5.145384e+05  -3.792522e+05
   9.055226e+05   5.016029e+04
   4.956534e+05   3.725056e+05
  -2.886883e+05   4.287002e+05
  -6.459690e+05   2.656450e+05
  -2.746672e+05   2.836114e+04
   3.129495e+05  -9.474733e+04
   3.955322e+05   2.634097e+04
  -1.400213e+05   2.732390e+05
  -7.001003e+05   2.809921e+05
