
 $NMID
 id='ANONYMOUS ', fmtdat='(2E16.6)'
 volume=1.0
 tramp=1.0
 $END
  -5.320026e+07  -5.435506e+05
  -3.191219e+07  -3.286372e+07
   6.999834e+06  -3.585578e+07
   2.609200e+07  -1.406287e+07
   1.576925e+07   6.316630e+06
  -2.981004e+06   8.855636e+06
  -9.401816e+06  -9.257695e+05
  -2.846260e+06  -9.256745e+06
   5.799656e+06  -9.115950e+06
   9.217327e+06  -2.051167e+06
   6.655516e+06   5.997954e+06
   6.865365e+05   8.308509e+06
  -3.874396e+06   2.530454e+06
  -2.500081e+06  -5.409593e+06
   3.627785e+06  -6.420508e+06
   7.526267e+06   1.219252e+06
   4.233776e+06   9.747316e+06
  -3.631833e+06   1.123792e+07
  -9.641254e+06   5.523628e+06
  -1.019337e+07  -2.102486e+06
  -6.082219e+06  -7.143694e+06
  -5.125226e+05  -8.040043e+06
   2.649445e+06  -5.569028e+06
   1.471780e+06  -2.649629e+06
  -1.201266e+06  -2.386902e+06
  -7.694243e+04  -4.226153e+06
   5.471918e+06  -4.122425e+06
   9.417069e+06  -2.068200e+05
   6.672172e+06   4.137916e+06
   3.541422e+03   4.826762e+06
  -3.775137e+06   2.274097e+06
  -2.351081e+06  -2.360126e+05
   8.729057e+05  -1.042493e+06
   2.498073e+06  -3.607897e+05
   2.133991e+06   1.655930e+06
   4.453979e+05   3.938766e+06
  -1.849044e+06   3.599349e+06
  -2.938675e+06  -2.678491e+05
  -1.421364e+06  -3.454438e+06
   7.449509e+05  -1.622709e+06
   1.677714e+05   2.548112e+06
  -2.457047e+06   2.271074e+06
  -2.368924e+06  -3.034464e+06
   2.209594e+06  -5.827456e+06
   6.435345e+06  -9.794805e+05
   4.765806e+06   6.523313e+06
  -1.802839e+06   8.033806e+06
  -7.064904e+06   2.234775e+06
  -6.710988e+06  -4.328184e+06
  -1.833605e+06  -5.877526e+06
   3.384742e+06  -2.684733e+06
   5.185711e+06   1.450736e+06
   2.441631e+06   3.382480e+06
  -2.273597e+06   2.139485e+06
  -4.344810e+06  -8.659048e+05
  -1.895191e+06  -2.590461e+06
   1.638413e+06  -1.305577e+06
   1.726083e+06   1.001442e+06
  -1.182673e+06   9.688859e+05
  -2.397500e+06  -1.517819e+06
   4.142097e+05  -3.175227e+06
   4.253743e+06  -1.841429e+06
   5.039111e+06   1.198739e+06
   2.239492e+06   3.756216e+06
  -1.826747e+06   5.046525e+06
  -5.002225e+06   4.596198e+06
  -6.044487e+06   1.544174e+06
  -4.318931e+06  -3.163811e+06
  -7.902291e+05  -6.006287e+06
   1.804369e+06  -4.662807e+06
   1.677568e+06  -1.310746e+06
   2.583882e+05   1.012372e+05
   1.993213e+05  -9.833409e+05
   1.764166e+06  -1.619681e+06
   2.808093e+06  -2.358081e+04
   1.907477e+06   2.083235e+06
  -1.244452e+05   2.189664e+06
  -1.656316e+06   1.394838e+05
  -1.670346e+06  -2.180314e+06
   8.317729e+04  -2.945608e+06
   2.782955e+06  -1.533832e+06
   4.322720e+06   1.301835e+06
   3.016130e+06   3.703005e+06
  -1.115940e+05   4.033414e+06
  -2.189887e+06   2.554031e+06
  -2.116127e+06   1.095558e+06
  -1.781661e+06   7.053443e+05
  -2.929600e+06   4.839999e+05
  -4.326256e+06  -7.885790e+05
  -3.448875e+06  -2.799756e+06
  -7.355053e+04  -4.138441e+06
   3.293826e+06  -3.854863e+06
   4.245920e+06  -2.013305e+06
   2.635951e+06   5.262244e+05
   1.695742e+05   2.258699e+06
  -1.183973e+06   1.886210e+06
  -5.556045e+05  -6.728247e+04
   1.133027e+06  -1.283907e+06
   1.906267e+06  -3.626141e+05
   8.769622e+05   1.211452e+06
  -5.609009e+05   1.110438e+06
  -4.640180e+05  -3.983693e+05
   1.032969e+06  -7.528711e+05
   1.864364e+06   1.185953e+06
   7.247141e+05   3.436194e+06
  -1.503496e+06   3.483618e+06
  -3.138736e+06   1.227606e+06
  -3.386867e+06  -1.426006e+06
  -2.331254e+06  -2.847743e+06
  -4.318427e+05  -2.685077e+06
   1.293574e+06  -1.455808e+06
   1.603690e+06  -1.866564e+05
   4.961379e+05   5.531258e+04
  -3.497647e+05  -7.639846e+05
   4.248226e+05  -1.333409e+06
   1.907076e+06  -5.528858e+05
   2.027524e+06   9.051928e+05
   3.792366e+05   1.420075e+06
  -1.188258e+06   5.646441e+05
  -9.098871e+05  -4.769496e+05
   8.580619e+05  -5.454560e+05
   2.230173e+06   3.272814e+05
   1.785925e+06   1.409238e+06
  -2.677881e+05   2.022981e+06
  -2.370354e+06   1.653395e+06
  -2.812356e+06   2.328617e+05
  -1.205694e+06  -1.287893e+06
   9.429782e+05  -1.483146e+06
   1.556000e+06  -1.629758e+05
   1.742639e+05   1.081093e+06
  -1.540112e+06   7.136883e+05
  -1.725757e+06  -8.114067e+05
  -3.296491e+05  -1.677464e+06
   1.110043e+06  -9.889580e+05
   1.275417e+06   3.171998e+05
   2.521708e+05   7.909853e+05
  -7.963176e+05   4.714378e+04
  -7.220035e+05  -1.073892e+06
   6.113805e+05  -1.425182e+06
   2.039420e+06  -5.060046e+05
   2.034699e+06   1.100439e+06
   3.509075e+05   2.101182e+06
  -1.478843e+06   1.635667e+06
  -1.747751e+06   1.881061e+05
  -4.996157e+05  -8.857515e+05
   6.782558e+05  -8.058801e+05
   6.521414e+05  -6.234073e+04
  -1.218032e+05   3.828016e+05
  -5.194692e+05   2.178421e+05
  -1.514665e+05  -7.973953e+04
   4.416748e+05   5.687617e+04
   5.242513e+05   6.697643e+05
  -2.150201e+05   1.195585e+06
  -1.409063e+06   8.852154e+05
  -2.097552e+06  -4.534375e+05
  -1.445439e+06  -1.990041e+06
   2.641504e+05  -2.447887e+06
   1.664274e+06  -1.411399e+06
   1.721718e+06   1.513151e+05
   8.678665e+05   9.390009e+05
   3.083216e+05   6.968212e+05
   4.582030e+05   2.457646e+05
   6.105998e+05   3.166068e+05
   7.816488e+04   7.609256e+05
  -8.968028e+05   8.995442e+05
  -1.475937e+06   3.112682e+05
  -1.061005e+06  -7.557852e+05
   2.739961e+05  -1.488895e+06
   1.764910e+06  -1.064039e+06
   2.271584e+06   5.280435e+05
   1.118105e+06   2.143613e+06
  -1.049940e+06   2.376387e+06
  -2.581856e+06   1.009255e+06
  -2.376153e+06  -6.962652e+05
  -9.636752e+05  -1.375748e+06
   2.184100e+05  -9.735455e+05
   4.197152e+05  -5.227521e+05
   1.158187e+05  -7.527850e+05
   1.363447e+05  -1.302621e+06
   6.946908e+05  -1.280989e+06
   1.305824e+06  -2.972246e+05
   1.329823e+06   1.117165e+06
   5.272251e+05   1.926635e+06
  -6.567681e+05   1.442115e+06
  -1.302527e+06  -2.289622e+04
  -8.039607e+05  -1.307058e+06
   4.091176e+05  -1.406385e+06
   1.173744e+06  -4.049789e+05
   8.109100e+05   6.997392e+05
  -1.276848e+05   1.077777e+06
  -5.401607e+05   7.878651e+05
  -8.838630e+04   4.277831e+05
   4.282970e+05   3.499921e+05
   5.151197e+04   3.896285e+05
  -1.160146e+06   1.956080e+05
  -2.073458e+06  -3.671580e+05
  -1.618577e+06  -1.071597e+06
   5.189504e+04  -1.445732e+06
   1.615139e+06  -1.125258e+06
   1.855263e+06  -2.564375e+05
   8.415205e+05   5.027398e+05
  -2.673107e+05   5.662549e+05
  -5.160703e+05   3.120017e+04
  -2.203150e+04  -4.178555e+05
   4.555822e+05  -2.505382e+05
   4.798609e+05   3.538760e+05
   2.352430e+05   7.353547e+05
   8.131042e+04   4.845004e+05
   1.431941e+05  -9.869641e+04
   2.958433e+05  -2.958623e+05
   2.764316e+05   2.392529e+05
  -1.642121e+05   9.967997e+05
  -9.267249e+05   1.062249e+06
  -1.370687e+06   1.530560e+05
  -8.388102e+05  -9.365293e+05
   4.363479e+05  -1.139652e+06
   1.271211e+06  -3.163579e+05
   7.313474e+05   5.934019e+05
  -7.205419e+05   6.460465e+05
  -1.609695e+06  -1.225380e+05
  -1.010961e+06  -8.931609e+05
   5.041032e+05  -9.995294e+05
   1.530365e+06  -4.647697e+05
   1.251136e+06   2.136156e+05
   1.286437e+05   5.253084e+05
  -6.631151e+05   2.636536e+05
  -3.838788e+05  -3.023090e+05
   6.010667e+05  -5.172915e+05
   1.195306e+06   1.016187e+05
   6.597134e+05   1.205326e+06
  -6.233899e+05   1.713657e+06
  -1.515757e+06   8.740120e+05
  -1.261003e+06  -7.864491e+05
  -1.778654e+05  -1.819091e+06
   7.719183e+05  -1.300770e+06
   9.367661e+05   1.942138e+05
   4.180629e+05   1.216903e+06
  -2.402988e+05   9.803911e+05
  -5.724956e+05   7.636451e+04
  -4.651226e+05  -3.912602e+05
  -1.616153e+05  -1.430131e+05
  -5.195472e+04   9.596455e+04
  -2.828397e+05  -3.027788e+05
  -5.035066e+05  -9.873862e+05
  -1.739722e+05  -1.097909e+06
   7.341395e+05  -3.910502e+05
   1.488021e+06   4.940265e+05
   1.282319e+06   8.695776e+05
   1.770677e+05   7.120700e+05
  -8.678224e+05   4.118524e+05
  -9.999559e+05   1.685075e+05
  -3.692136e+05  -6.016825e+04
   1.490348e+05  -2.267260e+05
   4.510439e+04  -2.065448e+05
  -2.606158e+05  -9.782210e+04
  -5.205908e+04  -1.347025e+05
   6.666128e+05  -2.319742e+05
   1.062332e+06   2.190936e+04
   4.416573e+05   7.063797e+05
  -8.597559e+05   1.188313e+06
  -1.737523e+06   7.548439e+05
  -1.436203e+06  -4.470202e+05
  -2.666239e+05  -1.428003e+06
   7.954213e+05  -1.390830e+06
   1.070198e+06  -5.409086e+05
   6.606355e+05   2.379679e+05
   1.359946e+05   3.646953e+05
  -6.329902e+04   7.085237e+04
   8.660090e+04  -1.031913e+04
   2.970345e+05   3.801325e+05
   2.383360e+05   8.237820e+05
  -1.864518e+05   6.895643e+05
  -6.873257e+05  -1.223592e+05
  -7.469308e+05  -9.644536e+05
  -1.207916e+05  -1.047658e+06
   7.582347e+05  -2.553016e+05
   1.046963e+06   7.290800e+05
   3.524403e+05   1.108494e+06
  -7.264178e+05   6.903825e+05
  -1.140198e+06  -8.078374e+04
  -5.421879e+05  -6.332185e+05
   2.964166e+05  -6.968610e+05
   3.975397e+05  -3.740337e+05
  -2.396681e+05  -8.298115e+03
  -6.565426e+05   3.612345e+04
  -1.504264e+05  -3.155705e+05
   8.438669e+05  -6.806051e+05
   1.293467e+06  -5.302901e+05
   7.845898e+05   1.940843e+05
  -1.032822e+05   8.861393e+05
  -5.769655e+05   8.704817e+05
  -4.440483e+05   1.707556e+05
  -5.674742e+04  -4.812416e+05
   2.430266e+05  -4.465176e+05
   3.545769e+05   1.411242e+05
   2.556225e+05   5.872664e+05
  -5.242272e+04   4.431640e+05
  -3.966230e+05  -4.300083e+04
  -4.856072e+05  -2.955608e+05
  -2.463299e+05  -1.065618e+05
   4.042289e+04   1.608585e+05
   8.576006e+04   6.280333e+04
  -2.490833e+04  -3.500007e+05
   3.024913e+04  -5.685093e+05
   3.157263e+05  -2.402935e+05
   4.770774e+05   3.722962e+05
   1.761059e+05   6.545856e+05
  -4.096119e+05   3.224003e+05
  -6.803131e+05  -2.785656e+05
  -2.604129e+05  -5.781553e+05
   5.207796e+05  -3.705095e+05
   9.025695e+05   7.515112e+04
   4.880937e+05   3.853630e+05
  -2.995130e+05   4.142443e+05
  -6.524034e+05   2.401292e+05
  -2.641295e+05   2.027839e+04
   3.369514e+05  -7.670293e+04
   4.067400e+05   5.283893e+04
  -1.613118e+05   2.852511e+05
  -7.368949e+05   2.709504e+05
