
 $NMID
 id='ANONYMOUS ', fmtdat='(2E16.6)'
 volume=1.0
 tramp=1.0
 $END
   3.212934e+07  -4.202439e+04
   2.120883e+07   1.577239e+07
  -5.987740e+05   2.057625e+07
  -1.414982e+07   1.282439e+07
  -1.138255e+07   6.185628e+05
  -3.790013e+05  -5.738841e+06
   6.416713e+06  -2.436808e+06
   4.501106e+06   5.222591e+06
  -1.772975e+06   8.427261e+06
  -5.975441e+06   3.616515e+06
  -5.090416e+06  -4.089828e+06
  -6.547110e+05  -6.539813e+06
   3.022359e+06  -1.440636e+06
   2.394745e+06   5.294916e+06
  -1.908034e+06   6.259205e+06
  -5.308552e+06   4.589223e+05
  -3.864040e+06  -6.279801e+06
   1.524324e+06  -7.899141e+06
   6.117628e+06  -3.797131e+06
   6.281298e+06   1.767769e+06
   2.822050e+06   4.501584e+06
  -3.578470e+05   3.743855e+06
  -3.494101e+05   2.116163e+06
   1.923787e+06   2.295738e+06
   2.659781e+06   4.177032e+06
  -7.058728e+05   5.124469e+06
  -6.112456e+06   3.054520e+06
  -8.357123e+06  -1.019573e+06
  -4.713430e+06  -3.904666e+06
   1.559289e+06  -3.484792e+06
   4.461640e+06  -5.971904e+05
   1.781324e+06   2.079729e+06
  -2.851363e+06   2.334619e+06
  -4.513925e+06  -1.066750e+05
  -2.232197e+06  -3.343870e+06
   9.719162e+05  -4.450875e+06
   2.093649e+06  -2.094641e+06
   9.602888e+05   1.482777e+06
  -5.111564e+05   2.302594e+06
  -6.108029e+05  -6.330974e+05
   7.865311e+05  -3.590827e+06
   2.298549e+06  -2.498266e+06
   2.171480e+06   1.674721e+06
  -5.460677e+04   3.847828e+06
  -2.623680e+06   1.188168e+06
  -2.796154e+06  -3.361971e+06
   3.595999e+05  -4.746062e+06
   4.468854e+06  -1.587671e+06
   5.712482e+06   2.866760e+06
   2.557363e+06   4.722558e+06
  -2.467028e+06   3.027300e+06
  -5.013786e+06  -2.237224e+05
  -3.104432e+06  -2.336256e+06
   9.949519e+05  -1.988056e+06
   3.201556e+06  -7.717321e+03
   1.819461e+06   1.466140e+06
  -9.660095e+05   1.024046e+06
  -1.824004e+06  -6.017509e+05
  -5.041341e+04  -1.434313e+06
   1.867356e+06  -5.200378e+05
   1.325476e+06   1.110737e+06
  -1.352110e+06   1.692260e+06
  -3.264227e+06   4.302487e+05
  -2.068675e+06  -1.982390e+06
   1.593192e+06  -3.886481e+06
   4.790966e+06  -3.611778e+06
   5.156929e+06  -7.547317e+05
   2.929989e+06   3.011477e+06
   3.211741e+05   5.032881e+06
  -8.662610e+05   4.236230e+06
  -7.916548e+05   2.222599e+06
  -8.617985e+05   1.209370e+06
  -1.849217e+06   1.306732e+06
  -3.026496e+06   7.465194e+05
  -3.059369e+06  -1.292469e+06
  -1.442321e+06  -3.186529e+06
   9.623205e+05  -2.740236e+06
   2.530991e+06   5.278833e+04
   2.034239e+06   2.809606e+06
  -3.467104e+05   3.179406e+06
  -2.886480e+06   1.021878e+06
  -3.569982e+06  -1.762063e+06
  -1.954113e+06  -3.162517e+06
   3.382481e+05  -2.723955e+06
   1.388366e+06  -1.560462e+06
   1.145550e+06  -9.692101e+05
   1.281872e+06  -1.093759e+06
   2.783601e+06  -9.355316e+05
   4.322395e+06   4.027009e+05
   3.616346e+06   2.606081e+06
   2.475478e+05   4.271406e+06
  -3.462640e+06   4.058257e+06
  -4.629571e+06   1.839567e+06
  -2.643310e+06  -1.013445e+06
   3.411180e+05  -2.524039e+06
   1.629230e+06  -1.741222e+06
   5.245158e+05   2.500786e+05
  -1.319167e+06   1.267813e+06
  -1.844668e+06   3.432482e+05
  -6.751377e+05  -1.156179e+06
   7.405524e+05  -1.188811e+06
   8.204371e+05   3.410911e+05
  -5.360175e+05   1.318700e+06
  -1.942614e+06  -2.487401e+03
  -1.862014e+06  -2.730161e+06
   7.090327e+04  -4.163879e+06
   2.715776e+06  -2.694535e+06
   4.204474e+06   5.768854e+05
   3.358726e+06   3.075726e+06
   7.810729e+05   3.224411e+06
  -1.488279e+06   1.621734e+06
  -1.800309e+06   1.137375e+05
  -5.267114e+05  -4.881169e+04
   4.009595e+05   7.825523e+05
  -2.853073e+05   1.272815e+06
  -1.731160e+06   6.092887e+05
  -2.027813e+06  -6.620913e+05
  -5.588091e+05  -1.294020e+06
   1.165634e+06  -7.025101e+05
   1.170004e+06   4.444171e+05
  -7.371822e+05   9.286504e+05
  -2.636077e+06   1.348101e+05
  -2.437624e+06  -1.417464e+06
  -4.249311e+04  -2.484650e+06
   2.506524e+06  -2.089438e+06
   3.021166e+06  -4.105078e+05
   1.279399e+06   1.204741e+06
  -8.655476e+05   1.390948e+06
  -1.404669e+06   1.610053e+05
  -8.636813e+04  -1.010116e+06
   1.554369e+06  -7.464564e+05
   1.860326e+06   6.928147e+05
   6.065163e+05   1.729329e+06
  -9.614346e+05   1.287692e+06
  -1.414763e+06  -3.312700e+04
  -4.830538e+05  -7.360845e+05
   7.093121e+05  -1.126677e+05
   7.329375e+05   1.075004e+06
  -6.636843e+05   1.477258e+06
  -2.156488e+06   5.071592e+05
  -2.130470e+06  -1.147194e+06
  -4.218682e+05  -2.168103e+06
   1.431050e+06  -1.759405e+06
   1.800885e+06  -3.324401e+05
   6.409433e+05   8.709346e+05
  -6.420736e+05   9.273051e+05
  -8.100995e+05   7.479175e+04
   9.618962e+03  -6.266442e+05
   7.164576e+05  -4.769914e+05
   5.223080e+05   1.348880e+05
  -2.795343e+05   2.612324e+05
  -6.796080e+05  -4.382969e+05
   1.085821e+04  -1.223964e+06
   1.394840e+06  -1.027396e+06
   2.228411e+06   3.833157e+05
   1.571728e+06   2.049957e+06
  -2.162578e+05   2.652046e+06
  -1.755015e+06   1.711999e+06
  -2.000317e+06   1.973331e+04
  -1.204684e+06  -1.124764e+06
  -4.329130e+05  -1.111714e+06
  -2.986436e+05  -4.867231e+05
  -4.175501e+05  -2.338269e+05
  -6.856890e+04  -6.492340e+05
   8.473884e+05  -1.025432e+06
   1.605758e+06  -5.066255e+05
   1.330920e+06   8.136336e+05
  -1.271250e+05   1.793247e+06
  -1.867475e+06   1.331906e+06
  -2.516347e+06  -4.530862e+05
  -1.371557e+06  -2.207337e+06
   8.630811e+05  -2.542504e+06
   2.576023e+06  -1.280823e+06
   2.640763e+06   4.687701e+05
   1.347347e+06   1.423479e+06
  -4.852295e+04   1.280978e+06
  -5.986737e+05   7.925851e+05
  -4.128501e+05   7.811580e+05
  -2.657418e+05   1.200911e+06
  -6.544971e+05   1.236832e+06
  -1.284611e+06   3.015590e+05
  -1.398239e+06  -1.177024e+06
  -5.843339e+05  -2.052648e+06
   6.925439e+05  -1.553985e+06
   1.408834e+06  -4.947724e+04
   9.450030e+05   1.278881e+06
  -2.491076e+05   1.491976e+06
  -1.063961e+06   6.386341e+05
  -8.580602e+05  -4.504320e+05
  -8.011365e+04  -9.960715e+05
   3.148655e+05  -8.839816e+05
  -1.564542e+04  -5.541098e+05
  -4.206666e+05  -4.159723e+05
  -3.533115e+04  -4.362895e+05
   1.146822e+06  -2.688034e+05
   2.100373e+06   2.894717e+05
   1.748875e+06   1.017378e+06
   1.279176e+05   1.427448e+06
  -1.518244e+06   1.187482e+06
  -1.905870e+06   4.283583e+05
  -9.624908e+05  -3.154102e+05
   1.926159e+05  -5.164103e+05
   4.949490e+05  -1.269771e+05
  -2.872495e+04   3.262690e+05
  -5.446486e+05   2.418492e+05
  -4.951808e+05  -3.714006e+05
  -1.190059e+05  -8.230080e+05
   4.173164e+04  -5.263843e+05
  -1.663755e+05   2.107374e+05
  -4.217495e+05   4.502586e+05
  -3.290918e+05  -2.318565e+05
   2.257656e+05  -1.118887e+06
   9.588221e+05  -1.125740e+06
   1.286720e+06  -9.243146e+04
   7.407583e+05   9.894796e+05
  -4.439734e+05   1.086426e+06
  -1.251435e+06   2.188633e+05
  -7.697345e+05  -6.676478e+05
   7.170933e+05  -7.361497e+05
   1.790305e+06   1.016530e+04
   1.301518e+06   8.914665e+05
  -3.688496e+05   1.205405e+06
  -1.668017e+06   7.454008e+05
  -1.481673e+06  -8.786800e+04
  -2.282468e+05  -5.956920e+05
   6.867661e+05  -3.699224e+05
   3.691602e+05   2.689493e+05
  -7.055398e+05   4.928890e+05
  -1.269179e+06  -2.011142e+05
  -5.900827e+05  -1.341055e+06
   8.054785e+05  -1.791009e+06
   1.694250e+06  -8.573816e+05
   1.360205e+06   8.875605e+05
   1.955092e+05   1.995263e+06
  -8.175920e+05   1.497253e+06
  -1.044277e+06  -1.005415e+05
  -5.717186e+05  -1.296710e+06
   1.173287e+05  -1.137598e+06
   5.804578e+05  -1.464906e+05
   6.028890e+05   4.381033e+05
   2.802363e+05   1.857903e+05
   1.522900e+04  -1.369463e+05
   1.629521e+05   2.520409e+05
   5.043387e+05   1.030716e+06
   3.301148e+05   1.210297e+06
  -6.460348e+05   4.582546e+05
  -1.640307e+06  -5.176014e+05
  -1.520437e+06  -9.237365e+05
  -2.167075e+05  -7.435694e+05
   1.037848e+06  -4.447877e+05
   1.119922e+06  -2.352471e+05
   3.133703e+05  -2.039521e+03
  -1.993678e+05   2.357550e+05
   7.553625e+04   2.858186e+05
   4.129123e+05   1.747347e+05
   6.163180e+03   1.531275e+05
  -8.587622e+05   2.031526e+05
  -1.129896e+06  -6.034617e+04
  -2.863652e+05  -7.384586e+05
   1.049728e+06  -1.203363e+06
   1.784508e+06  -7.191449e+05
   1.386552e+06   5.555957e+05
   2.348699e+05   1.562262e+06
  -8.234048e+05   1.455505e+06
  -1.151023e+06   4.932427e+05
  -7.302000e+05  -3.301815e+05
  -8.993506e+04  -3.908365e+05
   1.799886e+05   7.857220e+02
  -5.196837e+04   9.891931e+04
  -3.802015e+05  -3.711745e+05
  -3.075933e+05  -8.876622e+05
   2.290732e+05  -7.146278e+05
   7.648389e+05   2.214154e+05
   7.234867e+05   1.127101e+06
  -1.561252e+04   1.114483e+06
  -8.935674e+05   1.489888e+05
  -1.081541e+06  -9.046334e+05
  -2.903079e+05  -1.188960e+06
   8.067705e+05  -6.463615e+05
   1.165665e+06   1.305829e+05
   5.092245e+05   6.008408e+05
  -3.149537e+05   6.359209e+05
  -3.292257e+05   3.738652e+05
   3.689962e+05   5.433312e+04
   7.365156e+05  -1.588911e+04
   1.210845e+05   3.189722e+05
  -9.132136e+05   7.427365e+05
  -1.300908e+06   6.470982e+05
  -7.322302e+05  -1.258691e+05
   1.275893e+05  -9.085522e+05
   5.295400e+05  -8.873549e+05
   3.674514e+05  -9.979885e+04
  -2.581152e+03   5.644460e+05
  -2.865175e+05   4.176108e+05
  -3.862913e+05  -2.549519e+05
  -2.536014e+05  -6.383803e+05
   8.752558e+04  -3.846004e+05
   4.218853e+05   9.446470e+04
   4.847469e+05   2.525945e+05
   2.632528e+05   5.417908e+04
   8.652683e+03  -9.442000e+04
  -9.063799e+04   9.499565e+04
  -1.172156e+05   4.413201e+05
  -2.372624e+05   4.998561e+05
  -4.055778e+05   7.039880e+04
  -3.742256e+05  -5.261523e+05
  -1.975511e+03  -7.218570e+05
   4.961704e+05  -2.913550e+05
   6.603907e+05   3.757378e+05
   2.203888e+05   6.662719e+05
  -5.345527e+05   3.769904e+05
  -9.095491e+05  -1.383686e+05
  -4.896496e+05  -4.235711e+05
   3.276056e+05  -3.652304e+05
   6.773469e+05  -1.557472e+05
   2.044360e+05  -2.122144e+03
  -4.752401e+05  -4.859358e+03
  -4.804185e+05  -1.769023e+05
   2.695937e+05  -3.724216e+05
   9.473238e+05  -2.761215e+05
