
 $NMID
 id='ANONYMOUS ', fmtdat='(2E16.6)'
 volume=1.0
 tramp=1.0
 $END
  -4.178690e+07   4.444378e+05
  -2.650770e+07  -2.366555e+07
   3.380398e+06  -2.791882e+07
   1.976906e+07  -1.335634e+07
   1.346402e+07   2.879248e+06
  -1.279323e+06   7.254939e+06
  -7.839896e+06   6.858114e+05
  -3.595870e+06  -7.180789e+06
   3.790185e+06  -8.588255e+06
   7.485772e+06  -2.761502e+06
   5.757828e+06   4.869060e+06
   6.943323e+05   7.193164e+06
  -3.304332e+06   1.974011e+06
  -2.341759e+06  -5.138699e+06
   2.734952e+06  -6.145736e+06
   6.308873e+06   3.636278e+05
   4.010888e+06   7.822695e+06
  -2.455173e+06   9.387075e+06
  -7.645964e+06   4.654658e+06
  -8.066194e+06  -1.739976e+06
  -4.488906e+06  -5.575895e+06
  -2.618006e+05  -5.790687e+06
   1.406322e+06  -3.912103e+06
  -8.471694e+04  -2.521137e+06
  -1.710533e+06  -3.137856e+06
   3.191345e+05  -4.414201e+06
   5.495606e+06  -3.441879e+06
   8.514822e+06   3.229933e+05
   5.537011e+06   3.803633e+06
  -6.395056e+05   3.975804e+06
  -3.857950e+06   1.407164e+06
  -1.928297e+06  -1.017782e+06
   1.760802e+06  -1.482987e+06
   3.262060e+06  -5.077131e+04
   2.015736e+06   2.340065e+06
  -2.276228e+05   3.946434e+06
  -1.830265e+06   2.776454e+06
  -1.900301e+06  -7.176003e+05
  -5.526946e+05  -2.732127e+06
   5.675723e+05  -5.693852e+05
  -3.081411e+05   2.862229e+06
  -2.302761e+06   2.276494e+06
  -2.232424e+06  -2.311813e+06
   1.108186e+06  -4.800747e+06
   4.508897e+06  -1.168386e+06
   3.815788e+06   4.800031e+06
  -9.838596e+05   6.313498e+06
  -5.614555e+06   1.944328e+06
  -6.043508e+06  -3.487244e+06
  -2.105894e+06  -5.163905e+06
   2.864452e+06  -2.752911e+06
   4.943307e+06   8.602487e+05
   2.666197e+06   2.819061e+06
  -1.618016e+06   2.032197e+06
  -3.698057e+06  -4.116231e+05
  -1.823947e+06  -1.992968e+06
   1.267423e+06  -1.151852e+06
   1.712140e+06   7.935581e+05
  -6.139212e+05   1.180902e+06
  -2.145583e+06  -5.455425e+05
  -4.426905e+05  -2.208349e+06
   2.804146e+06  -1.806750e+06
   4.116483e+06   3.766074e+05
   2.134141e+06   2.823082e+06
  -1.617248e+06   4.334141e+06
  -4.678009e+06   3.968765e+06
  -5.379035e+06   1.152323e+06
  -3.528728e+06  -2.923080e+06
  -5.741570e+05  -5.315808e+06
   1.314894e+06  -4.317848e+06
   1.261910e+06  -1.689010e+06
   5.671461e+05  -4.523967e+05
   9.317444e+05  -1.015765e+06
   2.214029e+06  -1.112330e+06
   2.748437e+06   5.733916e+05
   1.573722e+06   2.467905e+06
  -5.154316e+05   2.306611e+06
  -1.964366e+06   9.241646e+03
  -1.729528e+06  -2.386196e+06
   2.131858e+05  -2.916154e+06
   2.697388e+06  -1.234006e+06
   3.792147e+06   1.432145e+06
   2.437412e+06   3.279303e+06
  -1.649079e+05   3.283646e+06
  -1.715395e+06   2.039372e+06
  -1.601700e+06   1.028352e+06
  -1.507242e+06   8.617519e+05
  -2.764850e+06   6.592798e+05
  -4.159887e+06  -5.998144e+05
  -3.380032e+06  -2.616924e+06
  -1.291288e+05  -4.033813e+06
   3.252231e+06  -3.768623e+06
   4.238585e+06  -1.825976e+06
   2.509431e+06   7.261766e+05
  -7.880215e+04   2.261747e+06
  -1.330169e+06   1.723761e+06
  -5.116418e+05  -1.445408e+05
   1.170792e+06  -1.213161e+06
   1.800948e+06  -3.367175e+05
   7.514443e+05   1.131415e+06
  -6.225624e+05   1.090644e+06
  -6.024636e+05  -3.721104e+05
   7.972129e+05  -9.873295e+05
   1.866393e+06   6.262638e+05
   1.212660e+06   3.033583e+06
  -8.509367e+05   3.693194e+06
  -2.887721e+06   1.828925e+06
  -3.637182e+06  -1.038479e+06
  -2.668729e+06  -2.879918e+06
  -5.372718e+05  -2.826992e+06
   1.337143e+06  -1.456968e+06
   1.621840e+06  -1.342663e+05
   4.894199e+05   5.291533e+04
  -3.548770e+05  -7.436094e+05
   3.472716e+05  -1.256241e+06
   1.755047e+06  -5.566885e+05
   1.951591e+06   7.667134e+05
   4.439773e+05   1.314431e+06
  -1.136066e+06   5.995209e+05
  -9.862379e+05  -4.557686e+05
   7.867630e+05  -6.929992e+05
   2.334037e+06   1.344687e+05
   1.993670e+06   1.386712e+06
  -1.454676e+05   2.154070e+06
  -2.355247e+06   1.764120e+06
  -2.796357e+06   2.845206e+05
  -1.188339e+06  -1.204925e+06
   8.705592e+05  -1.382238e+06
   1.426016e+06  -1.573437e+05
   1.285377e+05   1.002200e+06
  -1.486181e+06   6.937059e+05
  -1.716300e+06  -7.363059e+05
  -4.308486e+05  -1.643410e+06
   1.013940e+06  -1.082415e+06
   1.294725e+06   1.884680e+05
   3.434067e+05   7.441104e+05
  -7.275698e+05   7.508589e+04
  -6.933942e+05  -1.032438e+06
   6.156051e+05  -1.384935e+06
   2.008209e+06  -4.745335e+05
   1.987653e+06   1.085660e+06
   3.586721e+05   2.047998e+06
  -1.406870e+06   1.620379e+06
  -1.705799e+06   2.366461e+05
  -5.394991e+05  -8.498824e+05
   6.414053e+05  -8.256196e+05
   6.951994e+05  -5.727967e+04
  -7.844663e+04   4.778168e+05
  -5.953987e+05   3.128052e+05
  -3.051878e+05  -1.160790e+05
   3.651935e+05  -8.996660e+04
   5.780468e+05   5.488103e+05
  -1.216440e+05   1.166476e+06
  -1.353434e+06   9.072921e+05
  -2.070077e+06  -4.158259e+05
  -1.432843e+06  -1.944029e+06
   2.479606e+05  -2.438064e+06
   1.652142e+06  -1.476762e+06
   1.779865e+06   8.646760e+04
   9.699172e+05   9.984007e+05
   3.315645e+05   8.565591e+05
   3.587835e+05   3.365875e+05
   5.029526e+05   2.614771e+05
   7.262516e+04   6.805890e+05
  -8.464290e+05   9.169706e+05
  -1.481252e+06   3.740489e+05
  -1.131037e+06  -7.646678e+05
   2.154478e+05  -1.566399e+06
   1.751597e+06  -1.128044e+06
   2.286949e+06   4.904418e+05
   1.174179e+06   2.096985e+06
  -9.386188e+05   2.355763e+06
  -2.487050e+06   1.079342e+06
  -2.401695e+06  -5.855533e+05
  -1.086503e+06  -1.358478e+06
   1.501374e+05  -1.074695e+06
   4.935398e+05  -6.112662e+05
   2.449706e+05  -7.219911e+05
   1.874454e+05  -1.198812e+06
   6.505963e+05  -1.208459e+06
   1.243881e+06  -2.837787e+05
   1.299348e+06   1.104312e+06
   5.196812e+05   1.906613e+06
  -6.543128e+05   1.428485e+06
  -1.298401e+06   1.635841e+03
  -8.299276e+05  -1.248979e+06
   3.297384e+05  -1.391273e+06
   1.087802e+06  -4.917405e+05
   8.060422e+05   5.658420e+05
  -3.123159e+04   1.005449e+06
  -4.252152e+05   8.049664e+05
  -4.535682e+04   4.695957e+05
   4.036052e+05   3.657496e+05
   3.910953e+04   3.937071e+05
  -1.110201e+06   2.165418e+05
  -2.001951e+06  -3.256209e+05
  -1.608025e+06  -1.013950e+06
  -2.547587e+04  -1.385121e+06
   1.512069e+06  -1.105102e+06
   1.808826e+06  -3.137254e+05
   8.659642e+05   4.071146e+05
  -2.233124e+05   5.232088e+05
  -4.895062e+05   7.119395e+04
  -1.079987e+03  -3.586128e+05
   4.765878e+05  -2.315339e+05
   4.651552e+05   3.492198e+05
   1.687013e+05   7.398893e+05
   2.073424e+04   4.784023e+05
   1.523363e+05  -1.424691e+05
   3.460643e+05  -3.454807e+05
   2.875594e+05   2.292774e+05
  -1.927192e+05   1.006486e+06
  -9.086555e+05   1.042091e+06
  -1.275422e+06   1.189639e+05
  -7.560943e+05  -9.200819e+05
   4.232829e+05  -1.067689e+06
   1.207440e+06  -2.572422e+05
   7.133762e+05   6.055134e+05
  -6.950621e+05   6.570034e+05
  -1.627066e+06  -8.035754e+04
  -1.094375e+06  -8.704788e+05
   4.353190e+05  -1.052749e+06
   1.540596e+06  -5.587126e+05
   1.305327e+06   1.626665e+05
   1.626920e+05   5.389942e+05
  -6.512319e+05   2.965137e+05
  -3.619612e+05  -2.757756e+05
   6.228972e+05  -4.792165e+05
   1.174324e+06   1.478486e+05
   5.928209e+05   1.214738e+06
  -6.862489e+05   1.668086e+06
  -1.534052e+06   8.189920e+05
  -1.246368e+06  -8.064851e+05
  -1.656246e+05  -1.823086e+06
   7.721604e+05  -1.329455e+06
   9.486024e+05   1.522826e+05
   4.613920e+05   1.209338e+06
  -1.856690e+05   1.013219e+06
  -5.554195e+05   1.018756e+05
  -5.034272e+05  -4.026543e+05
  -2.049535e+05  -1.610800e+05
  -3.557631e+04   1.113455e+05
  -2.195423e+05  -2.641790e+05
  -4.783703e+05  -9.674437e+05
  -2.276098e+05  -1.108875e+06
   6.691010e+05  -4.056871e+05
   1.491341e+06   4.947734e+05
   1.329420e+06   8.710953e+05
   1.836920e+05   6.987964e+05
  -9.095335e+05   3.999647e+05
  -1.014765e+06   1.830185e+05
  -3.317564e+05  -2.933785e+04
   1.660892e+05  -2.189600e+05
  -5.998896e+03  -2.375589e+05
  -3.134561e+05  -1.344462e+05
  -2.853789e+04  -1.355838e+05
   7.232742e+05  -2.000509e+05
   1.046748e+06   4.393136e+04
   3.517329e+05   6.867195e+05
  -9.122664e+05   1.135897e+06
  -1.687752e+06   7.007897e+05
  -1.349676e+06  -4.789863e+05
  -2.318845e+05  -1.427945e+06
   7.820147e+05  -1.358447e+06
   1.061569e+06  -4.910952e+05
   6.596227e+05   2.735676e+05
   1.079361e+05   3.597762e+05
  -1.093891e+05   3.162845e+04
   7.134269e+04  -4.992175e+04
   3.205081e+05   3.647787e+05
   2.538531e+05   8.214351e+05
  -2.006492e+05   6.699346e+05
  -6.888135e+05  -1.660758e+05
  -6.964745e+05  -9.977058e+05
  -4.995264e+04  -1.028982e+06
   7.831813e+05  -1.903729e+05
   1.009937e+06   7.809573e+05
   3.039664e+05   1.096994e+06
  -7.323564e+05   6.371897e+05
  -1.102305e+06  -1.039909e+05
  -5.046422e+05  -5.933743e+05
   2.922057e+05  -6.397173e+05
   3.523110e+05  -3.599788e+05
  -2.848770e+05  -3.404792e+04
  -6.640430e+05   2.049021e+04
  -1.302024e+05  -3.034350e+05
   8.442687e+05  -6.745522e+05
   1.249849e+06  -5.554641e+05
   7.314062e+05   1.565436e+05
  -1.133987e+05   8.583009e+05
  -5.358319e+05   8.421681e+05
  -3.898897e+05   1.341385e+05
  -2.353271e+04  -4.959025e+05
   2.524538e+05  -4.129766e+05
   3.490322e+05   1.877474e+05
   2.403532e+05   5.863380e+05
  -6.480560e+04   3.976614e+05
  -3.892696e+05  -6.609968e+04
  -4.660308e+05  -2.660226e+05
  -2.453770e+05  -8.060463e+04
   1.928688e+04   1.232293e+05
   9.038520e+04  -8.686035e+03
   4.328881e+04  -3.702514e+05
   1.191091e+05  -5.067377e+05
   3.363396e+05  -1.512078e+05
   4.050381e+05   4.221038e+05
   8.759753e+04   6.509787e+05
  -4.306408e+05   2.907975e+05
  -6.388897e+05  -3.112226e+05
  -2.268036e+05  -5.923861e+05
   5.068676e+05  -3.559276e+05
   8.658147e+05   1.029949e+05
   4.659945e+05   3.879261e+05
  -2.989290e+05   3.736244e+05
  -6.340010e+05   1.901366e+05
  -2.264052e+05   1.298073e+04
   3.809141e+05  -3.121055e+04
   4.173764e+05   1.093686e+05
  -2.065944e+05   3.070812e+05
  -8.001716e+05   2.514960e+05
