
 $NMID
 id='ANONYMOUS ', fmtdat='(2E16.6)'
 volume=1.0
 tramp=1.0
 $END
   5.626691e+07   1.844790e+06
   3.276212e+07   3.588738e+07
  -8.607063e+06   3.783524e+07
  -2.803867e+07   1.382648e+07
  -1.630105e+07  -7.464213e+06
   3.571565e+06  -9.235167e+06
   9.819082e+06   1.485977e+06
   2.517138e+06   9.864731e+06
  -6.485871e+06   9.201793e+06
  -9.731880e+06   1.725604e+06
  -6.800455e+06  -6.442074e+06
  -5.257834e+05  -8.652272e+06
   4.091492e+06  -2.601900e+06
   2.454481e+06   5.572429e+06
  -3.988292e+06   6.470840e+06
  -7.845230e+06  -1.573420e+06
  -4.128933e+06  -1.035604e+07
   4.154901e+06  -1.168687e+07
   1.029194e+07  -5.578016e+06
   1.072741e+07   2.409344e+06
   6.354640e+06   7.688941e+06
   4.088900e+05   8.634194e+06
  -3.069274e+06   5.938069e+06
  -1.886930e+06   2.667561e+06
   1.057108e+06   2.261249e+06
   8.716455e+04   4.228525e+06
  -5.602117e+06   4.211162e+06
  -9.718072e+06   1.430209e+05
  -6.910799e+06  -4.387136e+06
  -5.047295e+04  -5.068324e+06
   3.841854e+06  -2.418706e+06
   2.468488e+06   1.102366e+05
  -6.996788e+05   9.414889e+05
  -2.358872e+06   3.901347e+05
  -2.152590e+06  -1.558994e+06
  -5.255643e+05  -3.986186e+06
   1.943724e+06  -3.783114e+06
   3.197061e+06   2.309289e+05
   1.560339e+06   3.681839e+06
  -8.284464e+05   1.860116e+06
  -2.293264e+05  -2.507818e+06
   2.558666e+06  -2.244177e+06
   2.360585e+06   3.272404e+06
  -2.595447e+06   6.067221e+06
  -6.948833e+06   8.138637e+05
  -4.892526e+06  -7.070183e+06
   2.166458e+06  -8.460386e+06
   7.503790e+06  -2.179738e+06
   6.839506e+06   4.690774e+06
   1.674348e+06   6.128587e+06
  -3.585689e+06   2.627919e+06
  -5.259736e+06  -1.698118e+06
  -2.346665e+06  -3.587399e+06
   2.485234e+06  -2.137091e+06
   4.513529e+06   1.063342e+06
   1.876337e+06   2.786745e+06
  -1.763984e+06   1.319404e+06
  -1.725524e+06  -1.091239e+06
   1.340006e+06  -9.050680e+05
   2.443519e+06   1.798654e+06
  -6.768652e+05   3.411560e+06
  -4.656490e+06   1.778613e+06
  -5.268174e+06  -1.496109e+06
  -2.208377e+06  -4.045580e+06
   1.991064e+06  -5.219432e+06
   5.213872e+06  -4.684593e+06
   6.283761e+06  -1.528628e+06
   4.476690e+06   3.334786e+06
   7.281508e+05   6.235566e+06
  -2.022738e+06   4.748122e+06
  -1.810055e+06   1.203766e+06
  -1.861118e+05  -2.302014e+05
  -5.481023e+04   9.858147e+05
  -1.713748e+06   1.718453e+06
  -2.852487e+06   1.041683e+05
  -1.963144e+06  -2.055274e+06
   7.930185e+04  -2.184263e+06
   1.606666e+06  -1.397813e+05
   1.632525e+06   2.187056e+06
  -1.114148e+05   2.979864e+06
  -2.860062e+06   1.562361e+06
  -4.459552e+06  -1.370399e+06
  -3.102455e+06  -3.894434e+06
   1.814331e+05  -4.238931e+06
   2.368855e+06  -2.650162e+06
   2.273219e+06  -1.078314e+06
   1.873131e+06  -6.417221e+05
   3.003368e+06  -3.927214e+05
   4.389596e+06   9.218098e+05
   3.443429e+06   2.933978e+06
  -1.767547e+04   4.203217e+06
  -3.408988e+06   3.848660e+06
  -4.328010e+06   1.993832e+06
  -2.680861e+06  -5.375168e+05
  -1.838398e+05  -2.284472e+06
   1.199573e+06  -1.918908e+06
   5.699788e+05   6.173034e+04
  -1.160630e+06   1.290860e+06
  -1.955675e+06   3.347465e+05
  -8.899826e+05  -1.258783e+06
   5.741845e+05  -1.115116e+06
   4.298346e+05   4.166499e+05
  -1.109428e+06   6.867872e+05
  -1.856897e+06  -1.358837e+06
  -5.545413e+05  -3.571434e+06
   1.730305e+06  -3.438281e+06
   3.245994e+06  -1.043165e+06
   3.334066e+06   1.590236e+06
   2.223618e+06   2.910799e+06
   3.617949e+05   2.686847e+06
  -1.323976e+06   1.445121e+06
  -1.618853e+06   1.696282e+05
  -5.012968e+05  -6.591957e+04
   3.373441e+05   7.827464e+05
  -4.723270e+05   1.355342e+06
  -1.970480e+06   5.201839e+05
  -2.046360e+06  -9.844737e+05
  -3.405140e+05  -1.464819e+06
   1.222508e+06  -5.393889e+05
   8.926198e+05   5.035779e+05
  -8.920829e+05   5.012087e+05
  -2.221430e+06  -4.156179e+05
  -1.729701e+06  -1.461010e+06
   3.357984e+05  -2.007511e+06
   2.427765e+06  -1.599256e+06
   2.847375e+06  -1.696606e+05
   1.196148e+06   1.342225e+06
  -9.973765e+05   1.501804e+06
  -1.603490e+06   1.352923e+05
  -1.650868e+05  -1.113021e+06
   1.581056e+06  -6.954266e+05
   1.728798e+06   8.692890e+05
   2.777612e+05   1.707295e+06
  -1.161058e+06   9.558276e+05
  -1.276883e+06  -3.736964e+05
  -2.186750e+05  -8.138543e+05
   8.205581e+05  -2.595580e+04
   7.150565e+05   1.107617e+06
  -6.436045e+05   1.436650e+06
  -2.076063e+06   4.791323e+05
  -2.044018e+06  -1.153430e+06
  -3.122046e+05  -2.140191e+06
   1.540702e+06  -1.626330e+06
   1.777442e+06  -1.452741e+05
   4.782290e+05   9.119251e+05
  -7.086410e+05   7.961491e+05
  -6.501571e+05   5.165354e+04
   1.395774e+05  -3.629110e+05
   5.112856e+05  -1.892632e+05
   1.172400e+05   7.451437e+04
  -4.612433e+05  -9.901937e+04
  -5.039597e+05  -7.129748e+05
   2.608419e+05  -1.209120e+06
   1.451866e+06  -8.618000e+05
   2.115236e+06   5.062902e+05
   1.424160e+06   2.047211e+06
  -3.170853e+05   2.468623e+06
  -1.709754e+06   1.378483e+06
  -1.722053e+06  -1.999872e+05
  -8.355152e+05  -9.507930e+05
  -2.933630e+05  -6.733353e+05
  -4.806536e+05  -2.367906e+05
  -6.344651e+05  -3.440349e+05
  -6.544097e+04  -7.877103e+05
   9.336551e+05  -8.869924e+05
   1.494499e+06  -2.722453e+05
   1.041170e+06   7.807685e+05
  -3.176731e+05   1.480322e+06
  -1.804830e+06   1.026366e+06
  -2.279878e+06  -5.847199e+05
  -1.075324e+06  -2.195931e+06
   1.130502e+06  -2.383614e+06
   2.647133e+06  -9.536570e+05
   2.379665e+06   7.731477e+05
   9.190401e+05   1.410859e+06
  -2.540447e+05   9.557916e+05
  -4.167789e+05   5.001999e+05
  -1.023860e+05   7.652820e+05
  -1.514584e+05   1.336123e+06
  -7.360595e+05   1.296224e+06
  -1.338101e+06   2.779587e+05
  -1.328175e+06  -1.156351e+06
  -4.971865e+05  -1.959875e+06
   6.912666e+05  -1.446602e+06
   1.315573e+06   5.350828e+04
   7.807774e+05   1.348012e+06
  -4.578023e+05   1.415289e+06
  -1.211829e+06   3.666979e+05
  -8.060236e+05  -7.520624e+05
   1.713985e+05  -1.101667e+06
   5.861826e+05  -7.809531e+05
   1.069563e+05  -4.206795e+05
  -4.313389e+05  -3.580138e+05
  -4.741624e+04  -3.934345e+05
   1.186163e+06  -1.705305e+05
   2.102382e+06   4.197337e+05
   1.615978e+06   1.125783e+06
  -9.753706e+04   1.472127e+06
  -1.675447e+06   1.109541e+06
  -1.888342e+06   2.104609e+05
  -8.342558e+05  -5.450912e+05
   2.907067e+05  -5.761425e+05
   5.274598e+05  -1.259646e+04
   1.880004e+04   4.356071e+05
  -4.600320e+05   2.485333e+05
  -4.809663e+05  -3.675138e+05
  -2.384352e+05  -7.460658e+05
  -8.643035e+04  -4.922727e+05
  -1.442097e+05   8.711176e+04
  -2.928640e+05   2.821612e+05
  -2.720708e+05  -2.489176e+05
   1.782379e+05  -1.001165e+06
   9.599652e+05  -1.059390e+06
   1.408354e+06  -1.358678e+05
   8.476235e+05   9.654765e+05
  -4.654153e+05   1.158470e+06
  -1.303985e+06   3.082695e+05
  -7.311344e+05  -6.103837e+05
   7.454836e+05  -6.359603e+05
   1.618790e+06   1.638482e+05
   9.848341e+05   9.258481e+05
  -5.432863e+05   9.873357e+05
  -1.551357e+06   4.189855e+05
  -1.246787e+06  -2.507986e+05
  -1.122576e+05  -5.296481e+05
   6.771393e+05  -2.461328e+05
   3.866939e+05   3.186035e+05
  -6.119474e+05   5.194800e+05
  -1.209783e+06  -1.150610e+05
  -6.581563e+05  -1.227628e+06
   6.481047e+05  -1.728704e+06
   1.543078e+06  -8.659145e+05
   1.261468e+06   8.136241e+05
   1.476275e+05   1.839124e+06
  -8.040190e+05   1.292122e+06
  -9.393055e+05  -2.233276e+05
  -3.891456e+05  -1.238180e+06
   2.734797e+05  -9.777599e+05
   5.832506e+05  -6.043781e+04
   4.535995e+05   4.012310e+05
   1.507802e+05   1.433096e+05
   5.793765e+04  -9.238539e+04
   2.939171e+05   3.199532e+05
   4.951135e+05   1.011081e+06
   1.426625e+05   1.109212e+06
  -7.632620e+05   3.773389e+05
  -1.492186e+06  -5.270081e+05
  -1.267500e+06  -9.019406e+05
  -1.636767e+05  -7.252556e+05
   8.746842e+05  -4.020471e+05
   1.009432e+06  -1.478434e+05
   3.799478e+05   7.481440e+04
  -1.510030e+05   2.278460e+05
  -6.088131e+04   2.005373e+05
   2.495181e+05   9.533999e+04
   5.531577e+04   1.368704e+05
  -6.648137e+05   2.288503e+05
  -1.075735e+06  -3.746865e+04
  -4.525989e+05  -7.262853e+05
   8.790659e+05  -1.195289e+06
   1.780002e+06  -7.409774e+05
   1.461038e+06   4.717747e+05
   2.497656e+05   1.446947e+06
  -8.326944e+05   1.396311e+06
  -1.092899e+06   5.369101e+05
  -6.628169e+05  -2.448468e+05
  -1.366682e+05  -3.719996e+05
   5.501185e+04  -7.928490e+04
  -9.094624e+04  -1.699343e+02
  -2.873450e+05  -3.928446e+05
  -2.214427e+05  -8.367767e+05
   1.982814e+05  -6.971334e+05
   6.914350e+05   1.268244e+05
   7.471713e+05   9.806909e+05
   1.178213e+05   1.064463e+06
  -7.649948e+05   2.579454e+05
  -1.051600e+06  -7.445303e+05
  -3.455493e+05  -1.128611e+06
   7.453900e+05  -6.951474e+05
   1.158225e+06   9.818693e+04
   5.436835e+05   6.587142e+05
  -3.136525e+05   7.107723e+05
  -4.187184e+05   3.731163e+05
   2.317080e+05   7.045506e+03
   6.619059e+05  -2.749388e+04
   1.503690e+05   3.242528e+05
  -8.649105e+05   6.724252e+05
  -1.325783e+06   5.049479e+05
  -8.002909e+05  -2.195051e+05
   1.189929e+05  -8.989887e+05
   6.084485e+05  -8.741095e+05
   4.638443e+05  -1.720142e+05
   5.561649e+04   4.837492e+05
  -2.518494e+05   4.537441e+05
  -3.566671e+05  -1.387822e+05
  -2.503127e+05  -5.980476e+05
   5.872096e+04  -4.566904e+05
   4.013408e+05   4.581533e+04
   4.889657e+05   3.143678e+05
   2.468090e+05   1.181222e+05
  -4.239462e+04  -1.716965e+05
  -8.415573e+04  -8.109595e+04
   3.384758e+04   3.494851e+05
  -2.159079e+04   5.875277e+05
  -3.189607e+05   2.566520e+05
  -4.908881e+05  -3.739891e+05
  -1.851925e+05  -6.652977e+05
   4.150640e+05  -3.248512e+05
   6.909494e+05   2.869938e+05
   2.594913e+05   5.855831e+05
  -5.360251e+05   3.673892e+05
  -9.181692e+05  -8.693122e+04
  -4.904195e+05  -3.978734e+05
   3.105490e+05  -4.216475e+05
   6.675449e+05  -2.411708e+05
   2.755477e+05  -1.696420e+04
  -3.319210e+05   8.134879e+04
  -4.074160e+05  -4.839055e+04
   1.580849e+05  -2.801445e+05
   7.350068e+05  -2.640404e+05
