
 $NMID
 id='ANONYMOUS ', fmtdat='(2E16.6)'
 volume=1.0
 tramp=1.0
 $END
  -3.191825e+07  -9.050036e+04
  -1.894921e+07  -2.043330e+07
   4.771032e+06  -2.181746e+07
   1.595724e+07  -7.655412e+06
   9.127700e+06   4.682688e+06
  -2.216209e+06   5.262249e+06
  -5.508651e+06  -1.163051e+06
  -1.155183e+06  -5.640195e+06
   3.829281e+06  -4.876454e+06
   5.447444e+06  -7.602171e+05
   3.788843e+06   3.464446e+06
   3.956921e+05   4.647398e+06
  -2.157820e+06   1.554099e+06
  -1.319575e+06  -2.792702e+06
   2.220837e+06  -3.352861e+06
   4.364958e+06   9.552545e+05
   2.307867e+06   5.746898e+06
  -2.267651e+06   6.525044e+06
  -5.689610e+06   3.267721e+06
  -6.095420e+06  -1.091814e+06
  -3.876321e+06  -4.200148e+06
  -5.117218e+05  -5.057624e+06
   1.819038e+06  -3.640827e+06
   1.489512e+06  -1.470524e+06
  -2.868115e+05  -8.420918e+05
  -2.135739e+05  -1.964090e+06
   2.647136e+06  -2.356722e+06
   5.051807e+06  -4.075386e+05
   3.864209e+06   2.139827e+06
   3.682101e+05   2.755987e+06
  -1.765362e+06   1.537146e+06
  -1.315063e+06   2.939735e+05
   2.281582e+04  -2.361390e+05
   8.345243e+05  -2.761328e+05
   1.062805e+06   4.747174e+05
   5.450469e+05   1.894652e+06
  -8.724167e+05   2.179064e+06
  -1.931230e+06   1.540340e+05
  -1.171594e+06  -2.003933e+06
   3.877330e+05  -1.330041e+06
   2.924566e+05   1.069769e+06
  -1.291605e+06   1.122860e+06
  -1.277966e+06  -1.847000e+06
   1.574301e+06  -3.447761e+06
   4.136483e+06  -5.060091e+05
   2.920445e+06   4.010627e+06
  -1.192802e+06   4.859407e+06
  -4.182430e+06   1.328527e+06
  -3.685214e+06  -2.515564e+06
  -8.066577e+05  -3.270254e+06
   1.933809e+06  -1.318494e+06
   2.712185e+06   9.988596e+05
   1.124859e+06   1.964001e+06
  -1.439761e+06   1.147210e+06
  -2.489019e+06  -6.149377e+05
  -1.005012e+06  -1.569644e+06
   9.820832e+05  -7.411561e+05
   8.698446e+05   5.978079e+05
  -8.786946e+05   4.084445e+05
  -1.367560e+06  -1.214869e+06
   5.681412e+05  -2.097590e+06
   2.812560e+06  -1.013238e+06
   2.991511e+06   9.439595e+05
   1.211284e+06   2.308801e+06
  -9.655360e+05   2.850076e+06
  -2.592440e+06   2.588334e+06
  -3.284803e+06   9.882445e+05
  -2.529505e+06  -1.633486e+06
  -5.318747e+05  -3.288541e+06
   1.115752e+06  -2.498274e+06
   1.059340e+06  -4.846326e+05
   1.196342e+04   3.436036e+05
  -2.588989e+05  -4.197545e+05
   6.167877e+05  -1.015549e+06
   1.373876e+06  -3.052438e+05
   1.075890e+06   8.179633e+05
   1.204432e+05   9.953531e+05
  -6.557249e+05   1.100244e+05
  -7.768264e+05  -9.795101e+05
  -2.036563e+04  -1.457592e+06
   1.396571e+06  -9.050603e+05
   2.381800e+06   5.495252e+05
   1.794209e+06   2.001278e+06
   1.409790e+04   2.354603e+06
  -1.284054e+06   1.540718e+06
  -1.294598e+06   6.036789e+05
  -1.025315e+06   2.855759e+05
  -1.537789e+06   1.578386e+05
  -2.225741e+06  -4.784147e+05
  -1.741329e+06  -1.471699e+06
  -8.658915e+03  -2.095287e+06
   1.645050e+06  -1.939727e+06
   2.087548e+06  -1.078141e+06
   1.347573e+06   1.566230e+05
   2.022014e+05   1.095577e+06
  -5.036694e+05   9.983744e+05
  -2.902226e+05   7.229832e+03
   5.371247e+05  -6.632200e+05
   9.902012e+05  -1.954391e+05
   4.975152e+05   6.295533e+05
  -2.461960e+05   5.520718e+05
  -1.611823e+05  -2.189879e+05
   6.421041e+05  -2.689371e+05
   9.526009e+05   8.641663e+05
   1.371040e+05   1.925858e+06
  -1.082756e+06   1.654226e+06
  -1.712790e+06   3.196213e+05
  -1.569274e+06  -9.164242e+05
  -9.757902e+05  -1.414085e+06
  -1.469187e+05  -1.261213e+06
   6.187411e+05  -7.120275e+05
   7.784445e+05  -1.140675e+05
   2.480023e+05   2.878788e+04
  -1.698679e+05  -3.874490e+05
   2.447730e+05  -6.995458e+05
   1.016012e+06  -2.774291e+05
   1.044289e+06   5.126860e+05
   1.596413e+05   7.566595e+05
  -6.143701e+05   2.623619e+05
  -4.110573e+05  -2.519874e+05
   4.689149e+05  -1.989704e+05
   1.060082e+06   2.673793e+05
   7.767093e+05   7.225430e+05
  -2.045182e+05   9.399830e+05
  -1.185909e+06   7.572537e+05
  -1.397916e+06   8.566210e+04
  -6.062470e+05  -6.765127e+05
   4.962183e+05  -7.840141e+05
   8.309033e+05  -8.920861e+04
   1.118943e+05   5.688993e+05
  -7.854731e+05   3.625436e+05
  -8.587925e+05  -4.391874e+05
  -1.120417e+05  -8.507113e+05
   6.021887e+05  -4.457672e+05
   6.268926e+05   2.231449e+05
   8.101879e+04   4.191563e+05
  -4.281393e+05   1.237953e+04
  -3.705949e+05  -5.491556e+05
   2.992459e+05  -7.208432e+05
   1.019451e+06  -2.633250e+05
   1.025171e+06   5.501378e+05
   1.690646e+05   1.063011e+06
  -7.661463e+05   8.160411e+05
  -8.856690e+05   6.874127e+04
  -2.275495e+05  -4.575446e+05
   3.549568e+05  -3.886633e+05
   2.997582e+05  -2.940245e+04
  -8.844196e+04   1.441777e+05
  -2.251326e+05   5.438736e+04
   3.934757e+03  -3.180523e+04
   2.652025e+05   9.637522e+04
   2.386837e+05   3.944844e+05
  -1.523559e+05   6.095711e+05
  -7.251189e+05   4.266390e+05
  -1.049203e+06  -2.439612e+05
  -7.182973e+05  -1.005354e+06
   1.416978e+05  -1.212122e+06
   8.329904e+05  -6.614751e+05
   8.240185e+05   1.132709e+05
   3.720797e+05   4.416833e+05
   1.289998e+05   2.667147e+05
   2.686466e+05   7.065776e+04
   3.572074e+05   1.774109e+05
   4.515510e+04   4.146915e+05
  -4.697992e+05   4.366626e+05
  -7.297747e+05   1.194515e+05
  -4.866208e+05  -3.747952e+05
   1.717256e+05  -6.991469e+05
   8.827339e+05  -4.906852e+05
   1.113738e+06   2.838523e+05
   5.227731e+05   1.085250e+06
  -5.752583e+05   1.186977e+06
  -1.325748e+06   4.646414e+05
  -1.164678e+06  -4.035430e+05
  -4.131747e+05  -6.962714e+05
   1.496129e+05  -4.340060e+05
   1.771054e+05  -2.084508e+05
  -7.416239e+03  -3.776737e+05
   3.739254e+04  -6.898216e+05
   3.616331e+05  -6.689671e+05
   6.738903e+05  -1.549745e+05
   6.694903e+05   5.572981e+05
   2.616372e+05   9.599628e+05
  -3.264873e+05   7.166104e+05
  -6.455922e+05  -2.534938e+04
  -3.849884e+05  -6.760110e+05
   2.422787e+05  -7.051615e+05
   6.273301e+05  -1.603413e+05
   4.096157e+05   4.121471e+05
  -1.077418e+05   5.730391e+05
  -3.254991e+05   3.864197e+05
  -6.822803e+04   1.928411e+05
   2.217538e+05   1.639264e+05
   3.058287e+04   1.894045e+05
  -5.983183e+05   8.733262e+04
  -1.059535e+06  -2.004797e+05
  -8.049620e+05  -5.588099e+05
   6.238598e+04  -7.474688e+05
   8.476924e+05  -5.685229e+05
   9.415757e+05  -9.798273e+04
   4.080446e+05   2.980420e+05
  -1.516991e+05   3.028003e+05
  -2.701803e+05  -3.544555e+03
  -2.434462e+04  -2.340164e+05
   2.134333e+05  -1.308523e+05
   2.435799e+05   1.766067e+05
   1.473447e+05   3.564113e+05
   6.960841e+04   2.380895e+05
   6.910808e+04  -2.620677e+04
   1.247729e+05  -1.175294e+05
   1.309838e+05   1.241861e+05
  -6.928289e+04   4.845432e+05
  -4.663636e+05   5.331320e+05
  -7.208469e+05   9.600379e+04
  -4.538101e+05  -4.659337e+05
   2.188882e+05  -5.974547e+05
   6.549243e+05  -1.871101e+05
   3.676460e+05   2.866275e+05
  -3.695904e+05   3.135130e+05
  -7.874778e+05  -8.507038e+04
  -4.571221e+05  -4.586082e+05
   2.876228e+05  -4.700483e+05
   7.562120e+05  -1.794505e+05
   5.928989e+05   1.361025e+05
   4.481858e+04   2.545977e+05
  -3.352902e+05   1.133583e+05
  -2.012205e+05  -1.613613e+05
   2.839408e+05  -2.713553e+05
   5.964264e+05   2.793904e+04
   3.556098e+05   5.863271e+05
  -2.761929e+05   8.621899e+05
  -7.361023e+05   4.543352e+05
  -6.262685e+05  -3.789593e+05
  -9.042674e+04  -8.942954e+05
   3.844468e+05  -6.257458e+05
   4.583068e+05   1.188164e+05
   1.830821e+05   6.071155e+05
  -1.492468e+05   4.701374e+05
  -2.924189e+05   2.512419e+04
  -2.089334e+05  -1.904981e+05
  -5.682258e+04  -6.461286e+04
  -3.483835e+04   4.067155e+04
  -1.726640e+05  -1.647496e+05
  -2.602396e+05  -4.958128e+05
  -5.670685e+04  -5.395101e+05
   3.956299e+05  -1.884672e+05
   7.310116e+05   2.458735e+05
   6.072922e+05   4.330992e+05
   8.365788e+04   3.583247e+05
  -4.071290e+05   2.047767e+05
  -4.868386e+05   7.325516e+04
  -2.024049e+05  -4.312681e+04
   6.490206e+04  -1.142679e+05
   4.981689e+04  -8.970945e+04
  -9.982267e+04  -3.397268e+04
  -3.696911e+04  -6.455074e+04
   2.989627e+05  -1.253548e+05
   5.299233e+05   7.254478e+02
   2.622257e+05   3.529119e+05
  -3.965038e+05   6.068751e+05
  -8.789316e+05   3.990865e+05
  -7.479652e+05  -2.014416e+05
  -1.461987e+05  -7.022099e+05
   3.990329e+05  -7.011425e+05
   5.295642e+05  -2.899860e+05
   3.234640e+05   1.007879e+05
   8.057882e+04   1.806399e+05
  -6.033613e+03   5.124072e+04
   5.279374e+04   1.365905e+04
   1.351514e+05   1.969911e+05
   1.085566e+05   4.086287e+05
  -8.479679e+04   3.483720e+05
  -3.350485e+05  -3.997255e+04
  -3.893694e+05  -4.570038e+05
  -9.400009e+04  -5.213305e+05
   3.577047e+05  -1.550763e+05
   5.298605e+05   3.331469e+05
   1.965700e+05   5.496190e+05
  -3.529229e+05   3.650197e+05
  -5.791795e+05  -2.786124e+04
  -2.873000e+05  -3.303659e+05
   1.457390e+05  -3.715247e+05
   2.180557e+05  -1.935285e+05
  -9.415548e+04   5.349871e+03
  -3.190129e+05   2.393854e+04
  -8.439757e+04  -1.605297e+05
   4.165494e+05  -3.370539e+05
   6.616871e+05  -2.495804e+05
   4.151391e+05   1.121442e+05
  -4.561575e+04   4.497672e+05
  -3.044072e+05   4.447721e+05
  -2.436205e+05   1.049951e+05
  -4.264544e+04  -2.279607e+05
   1.137550e+05  -2.356860e+05
   1.743166e+05   4.676665e+04
   1.326283e+05   2.894138e+05
  -1.755571e+04   2.400746e+05
  -1.975991e+05  -9.973856e+03
  -2.504535e+05  -1.598602e+05
  -1.233890e+05  -6.571435e+04
   3.250823e+04   9.660912e+04
   4.446105e+04   6.673794e+04
  -4.410453e+04  -1.581980e+05
  -3.201504e+04  -3.050465e+05
   1.401501e+05  -1.606457e+05
   2.669777e+05   1.550945e+05
   1.296938e+05   3.191001e+05
  -1.900518e+05   1.725161e+05
  -3.532851e+05  -1.196799e+05
  -1.430948e+05  -2.762653e+05
   2.632976e+05  -1.898638e+05
   4.611873e+05   2.245606e+04
   2.507179e+05   1.881073e+05
  -1.460275e+05   2.238148e+05
  -3.279011e+05   1.431721e+05
  -1.484256e+05   1.558491e+04
   1.415726e+05  -5.691706e+04
   1.915334e+05  -5.416916e+02
  -5.900618e+04   1.266468e+05
  -3.311815e+05   1.378930e+05
