
 $NMID
 id='ANONYMOUS ', fmtdat='(2E16.6)'
 volume=1.0
 tramp=1.0
 $END
   5.878078e+07   1.554225e+06
   3.432638e+07   3.773958e+07
  -9.107827e+06   3.976367e+07
  -2.943858e+07   1.417668e+07
  -1.694263e+07  -8.215876e+06
   3.915321e+06  -9.662964e+06
   1.022836e+07   1.835588e+06
   2.387643e+06   1.037079e+07
  -6.952002e+06   9.349054e+06
  -1.014262e+07   1.594140e+06
  -7.019843e+06  -6.639631e+06
  -5.626571e+05  -8.860414e+06
   4.171564e+06  -2.748550e+06
   2.468129e+06   5.579547e+06
  -4.189746e+06   6.516139e+06
  -8.137180e+06  -1.736158e+06
  -4.231391e+06  -1.076271e+07
   4.349975e+06  -1.212118e+07
   1.068347e+07  -5.844845e+06
   1.120053e+07   2.381676e+06
   6.789772e+06   7.947877e+06
   5.875549e+05   9.132107e+06
  -3.284136e+06   6.390881e+06
  -2.287714e+06   2.769575e+06
   8.495017e+05   2.072260e+06
   1.642639e+05   4.105104e+06
  -5.504341e+06   4.325058e+06
  -9.818851e+06   3.082484e+05
  -7.146888e+06  -4.377775e+06
  -2.631749e+05  -5.198549e+06
   3.726315e+06  -2.607010e+06
   2.502795e+06  -1.219515e+05
  -4.842022e+05   7.510616e+05
  -2.108191e+06   4.107836e+05
  -2.111962e+06  -1.358476e+06
  -6.875197e+05  -3.900277e+06
   1.887923e+06  -3.959522e+06
   3.413240e+06   4.981918e+04
   1.812213e+06   3.784611e+06
  -8.049536e+05   2.132168e+06
  -3.252229e+05  -2.365062e+06
   2.581373e+06  -2.218643e+06
   2.407301e+06   3.430385e+06
  -2.818674e+06   6.338642e+06
  -7.406465e+06   8.537841e+05
  -5.180129e+06  -7.412230e+06
   2.283227e+06  -8.875199e+06
   7.801005e+06  -2.300028e+06
   6.980646e+06   4.847853e+06
   1.606090e+06   6.277458e+06
  -3.699848e+06   2.601570e+06
  -5.299166e+06  -1.841565e+06
  -2.285522e+06  -3.722658e+06
   2.632966e+06  -2.176687e+06
   4.663193e+06   1.146934e+06
   1.905244e+06   2.918029e+06
  -1.837718e+06   1.364061e+06
  -1.720127e+06  -1.139719e+06
   1.494286e+06  -8.697891e+05
   2.540826e+06   2.032484e+06
  -8.491687e+05   3.686684e+06
  -4.999827e+06   1.845251e+06
  -5.507469e+06  -1.660469e+06
  -2.258615e+06  -4.254272e+06
   1.999506e+06  -5.361233e+06
   5.221942e+06  -4.804584e+06
   6.375150e+06  -1.637376e+06
   4.644280e+06   3.328562e+06
   8.009298e+05   6.342374e+06
  -2.127023e+06   4.814498e+06
  -1.931883e+06   1.110516e+06
  -1.376864e+05  -3.969525e+05
   1.362162e+05   9.175197e+05
  -1.546744e+06   1.799256e+06
  -2.797689e+06   2.568401e+05
  -1.998507e+06  -1.913715e+06
  -1.204853e+04  -2.102240e+06
   1.496975e+06  -1.477092e+05
   1.576914e+06   2.116443e+06
  -8.363858e+04   2.945703e+06
  -2.837390e+06   1.621264e+06
  -4.540167e+06  -1.301893e+06
  -3.238122e+06  -3.939949e+06
   1.317666e+05  -4.391012e+06
   2.447637e+06  -2.782497e+06
   2.387436e+06  -1.109896e+06
   1.939663e+06  -6.032471e+05
   3.027829e+06  -3.401090e+05
   4.395133e+06   9.688987e+05
   3.425078e+06   2.959895e+06
  -4.165033e+04   4.188647e+06
  -3.391875e+06   3.819141e+06
  -4.277685e+06   2.006709e+06
  -2.670264e+06  -4.788891e+05
  -2.402801e+05  -2.242575e+06
   1.142815e+06  -1.927980e+06
   5.699589e+05   3.857482e+04
  -1.137235e+06   1.288538e+06
  -1.961272e+06   3.381565e+05
  -9.147781e+05  -1.260870e+06
   5.528820e+05  -1.101956e+06
   3.870907e+05   4.290177e+05
  -1.178227e+06   6.263469e+05
  -1.866360e+06  -1.502322e+06
  -4.293273e+05  -3.674612e+06
   1.913639e+06  -3.379878e+06
   3.321149e+06  -8.735792e+05
   3.249678e+06   1.706236e+06
   2.095534e+06   2.900561e+06
   3.100229e+05   2.627334e+06
  -1.303389e+06   1.421319e+06
  -1.593554e+06   1.749897e+05
  -4.977068e+05  -6.712582e+04
   3.304552e+05   7.808940e+05
  -4.879322e+05   1.363972e+06
  -1.991368e+06   5.158673e+05
  -2.049118e+06  -1.012999e+06
  -3.209535e+05  -1.481640e+06
   1.226397e+06  -5.223347e+05
   8.606587e+05   5.116490e+05
  -9.133230e+05   4.561814e+05
  -2.179589e+06  -4.789864e+05
  -1.650055e+06  -1.471196e+06
   3.814200e+05  -1.956442e+06
   2.418239e+06  -1.543435e+06
   2.824266e+06  -1.444346e+05
   1.188279e+06   1.352782e+06
  -1.004495e+06   1.513400e+06
  -1.620720e+06   1.382117e+05
  -1.767364e+05  -1.119135e+06
   1.579013e+06  -6.905817e+05
   1.713640e+06   8.854967e+05
   2.434589e+05   1.704817e+06
  -1.183197e+06   9.218547e+05
  -1.263992e+06  -4.098745e+05
  -1.916254e+05  -8.233947e+05
   8.313211e+05  -1.877722e+04
   7.124888e+05   1.107504e+06
  -6.387813e+05   1.428424e+06
  -2.061413e+06   4.759144e+05
  -2.030584e+06  -1.149578e+06
  -3.020300e+05  -2.132543e+06
   1.548069e+06  -1.611481e+06
   1.772781e+06  -1.271169e+05
   4.614053e+05   9.152824e+05
  -7.144214e+05   7.814898e+05
  -6.306256e+05   4.757384e+04
   1.575359e+05  -3.347588e+05
   4.917947e+05  -1.540029e+05
   7.122785e+04   7.441732e+04
  -4.864454e+05  -1.348314e+05
  -4.889974e+05  -7.438103e+05
   2.863674e+05  -1.209015e+06
   1.456052e+06  -8.442630e+05
   2.099962e+06   5.174848e+05
   1.407003e+06   2.041956e+06
  -3.266261e+05   2.444132e+06
  -1.703519e+06   1.340189e+06
  -1.690974e+06  -2.253408e+05
  -7.918344e+05  -9.339284e+05
  -2.715672e+05  -6.254849e+05
  -4.957968e+05  -2.053745e+05
  -6.588466e+05  -3.511353e+05
  -6.812226e+04  -8.012131e+05
   9.420896e+05  -8.724604e+05
   1.482359e+06  -2.459104e+05
   1.007474e+06   7.789051e+05
  -3.409980e+05   1.446011e+06
  -1.797134e+06   9.915869e+05
  -2.250995e+06  -5.984556e+05
  -1.042755e+06  -2.192115e+06
   1.156090e+06  -2.365577e+06
   2.651713e+06  -9.200876e+05
   2.350640e+06   8.051154e+05
   8.715200e+05   1.411105e+06
  -2.796676e+05   9.212107e+05
  -3.996972e+05   4.645655e+05
  -6.724631e+04   7.567865e+05
  -1.344137e+05   1.345879e+06
  -7.402079e+05   1.301702e+06
  -1.340397e+06   2.774023e+05
  -1.318294e+06  -1.150242e+06
  -4.876283e+05  -1.945150e+06
   6.888784e+05  -1.431910e+06
   1.303434e+06   6.428100e+04
   7.635992e+05   1.353493e+06
  -4.786983e+05   1.407035e+06
  -1.228564e+06   3.398614e+05
  -8.039210e+05  -7.829397e+05
   1.954214e+05  -1.114531e+06
   6.149652e+05  -7.725461e+05
   1.215225e+05  -4.069475e+05
  -4.311376e+05  -3.501048e+05
  -4.849457e+04  -3.876539e+05
   1.188898e+06  -1.615412e+05
   2.099928e+06   4.301946e+05
   1.600401e+06   1.134662e+06
  -1.194423e+05   1.476705e+06
  -1.688052e+06   1.102750e+06
  -1.884491e+06   1.884068e+05
  -8.222167e+05  -5.696358e+05
   2.990580e+05  -5.831608e+05
   5.314736e+05  -1.217870e+03
   2.629355e+04   4.459722e+05
  -4.491988e+05   2.482320e+05
  -4.788103e+05  -3.656867e+05
  -2.509468e+05  -7.337154e+05
  -1.005258e+05  -4.852465e+05
  -1.432772e+05   7.321917e+04
  -2.802469e+05   2.612877e+05
  -2.656794e+05  -2.509950e+05
   1.732195e+05  -9.854320e+05
   9.574780e+05  -1.050626e+06
   1.417415e+06  -1.438008e+05
   8.581386e+05   9.577580e+05
  -4.640131e+05   1.164433e+06
  -1.304804e+06   3.199078e+05
  -7.251186e+05  -6.021431e+05
   7.473592e+05  -6.249001e+05
   1.598514e+06   1.805893e+05
   9.494421e+05   9.307524e+05
  -5.630242e+05   9.643795e+05
  -1.539024e+06   3.824886e+05
  -1.220639e+06  -2.699103e+05
  -9.896523e+04  -5.226317e+05
   6.758162e+05  -2.326550e+05
   3.887228e+05   3.224325e+05
  -5.990215e+05   5.204441e+05
  -1.199018e+06  -1.045748e+05
  -6.639667e+05  -1.210131e+06
   6.276684e+05  -1.716095e+06
   1.521261e+06  -8.646633e+05
   1.247568e+06   8.031316e+05
   1.423002e+05   1.817913e+06
  -8.017748e+05   1.267293e+06
  -9.275593e+05  -2.365588e+05
  -3.688851e+05  -1.230835e+06
   2.910601e+05  -9.603485e+05
   5.832889e+05  -5.155993e+04
   4.359812e+05   3.977843e+05
   1.356616e+05   1.399555e+05
   6.297597e+04  -8.797006e+04
   3.090004e+05   3.242880e+05
   4.939605e+05   1.005798e+06
   1.217580e+05   1.097819e+06
  -7.748918e+05   3.702695e+05
  -1.473044e+06  -5.268054e+05
  -1.237463e+06  -8.992630e+05
  -1.581591e+05  -7.220423e+05
   8.546570e+05  -3.951933e+05
   9.958615e+05  -1.376230e+05
   3.875868e+05   8.159751e+04
  -1.450496e+05   2.259243e+05
  -7.667911e+04   1.927946e+05
   2.298345e+05   8.849127e+04
   6.044343e+04   1.339579e+05
  -6.411578e+05   2.291275e+05
  -1.066777e+06  -3.421227e+04
  -4.705696e+05  -7.200696e+05
   8.565392e+05  -1.190126e+06
   1.773726e+06  -7.439410e+05
   1.465057e+06   4.582701e+05
   2.510904e+05   1.430129e+06
  -8.306549e+05   1.387611e+06
  -1.082452e+06   5.409663e+05
  -6.527937e+05  -2.349920e+05
  -1.416308e+05  -3.681264e+05
   3.985352e+04  -8.610819e+04
  -9.647937e+04  -1.038431e+04
  -2.772352e+05  -3.952392e+05
  -2.117548e+05  -8.300109e+05
   1.936880e+05  -6.932114e+05
   6.803459e+05   1.162461e+05
   7.470785e+05   9.607054e+05
   1.329772e+05   1.054148e+06
  -7.469555e+05   2.684867e+05
  -1.044384e+06  -7.240177e+05
  -3.514587e+05  -1.117890e+06
   7.351293e+05  -6.989304e+05
   1.154200e+06   9.292290e+04
   5.478348e+05   6.622274e+05
  -3.107134e+05   7.176262e+05
  -4.270256e+05   3.739196e+05
   2.153875e+05   3.475735e+03
   6.518777e+05  -2.850463e+04
   1.537506e+05   3.234187e+05
  -8.575380e+05   6.635061e+05
  -1.326599e+06   4.902424e+05
  -8.074771e+05  -2.271548e+05
   1.166269e+05  -8.957396e+05
   6.146116e+05  -8.724868e+05
   4.720363e+05  -1.815877e+05
   6.138366e+04   4.727565e+05
  -2.462739e+05   4.564524e+05
  -3.510359e+05  -1.255935e+05
  -2.495668e+05  -5.918368e+05
   5.372296e+04  -4.631599e+05
   3.974284e+05   4.008298e+04
   4.895513e+05   3.196381e+05
   2.454969e+05   1.247636e+05
  -4.926231e+04  -1.789671e+05
  -8.591600e+04  -1.002581e+05
   4.953943e+04   3.362473e+05
   4.311220e+03   5.926051e+05
  -3.055551e+05   2.757134e+05
  -5.008214e+05  -3.539194e+05
  -2.050037e+05  -6.544999e+05
   4.041809e+05  -3.271267e+05
   6.917108e+05   2.751295e+05
   2.627690e+05   5.743359e+05
  -5.345099e+05   3.661764e+05
  -9.162091e+05  -7.967261e+04
  -4.894564e+05  -3.933654e+05
   3.064792e+05  -4.269866e+05
   6.632100e+05  -2.507753e+05
   2.824676e+05  -2.000513e+04
  -3.139075e+05   8.900354e+04
  -3.965408e+05  -3.459446e+04
   1.463560e+05  -2.678588e+05
   7.095964e+05  -2.599763e+05
