
 $NMID
 id='ANONYMOUS ', fmtdat='(2E16.6)'
 volume=1.0
 tramp=1.0
 $END
   5.005360e+07  -5.730151e+05
   3.103149e+07   2.959333e+07
  -5.239343e+06   3.370464e+07
  -2.402942e+07   1.451672e+07
  -1.533086e+07  -4.866945e+06
   2.247031e+06  -8.479025e+06
   9.021246e+06   1.619582e+05
   3.355257e+06   8.613015e+06
  -4.999210e+06   9.223756e+06
  -8.726550e+06   2.526916e+06
  -6.562978e+06  -5.607455e+06
  -8.345078e+05  -8.076463e+06
   3.716258e+06  -2.433975e+06
   2.593847e+06   5.409118e+06
  -3.261717e+06   6.535620e+06
  -7.250542e+06  -7.972333e+05
  -4.397997e+06  -9.171040e+06
   3.093937e+06  -1.084594e+07
   9.021974e+06  -5.459705e+06
   9.647037e+06   1.873276e+06
   5.704672e+06   6.628976e+06
   5.281108e+05   7.348746e+06
  -2.150349e+06   5.080003e+06
  -8.398408e+05   2.673349e+06
   1.492323e+06   2.729339e+06
  -6.686793e+03   4.424193e+06
  -5.573466e+06   4.054773e+06
  -9.317760e+06   1.450694e+05
  -6.463813e+06  -4.020494e+06
   1.863280e+05  -4.625815e+06
   3.887004e+06  -2.052330e+06
   2.260928e+06   5.247682e+05
  -1.231840e+06   1.277859e+06
  -2.875286e+06   2.994528e+05
  -2.184523e+06  -1.944648e+06
  -2.529795e+05  -4.054715e+06
   1.844250e+06  -3.398242e+06
   2.612093e+06   4.226921e+05
   1.157573e+06   3.247020e+06
  -6.821586e+05   1.251526e+06
  -2.793567e+04  -2.750354e+06
   2.424377e+06  -2.375845e+06
   2.420478e+06   2.787921e+06
  -1.741479e+06   5.594500e+06
  -5.814822e+06   1.163334e+06
  -4.598306e+06  -5.940236e+06
   1.411157e+06  -7.578657e+06
   6.640555e+06  -2.277228e+06
   6.687896e+06   4.004144e+06
   2.083832e+06   5.716722e+06
  -3.221274e+06   2.836752e+06
  -5.247387e+06  -1.167286e+06
  -2.649962e+06  -3.203411e+06
   2.035872e+06  -2.184542e+06
   4.211472e+06   6.414424e+05
   1.954632e+06   2.389074e+06
  -1.513365e+06   1.301967e+06
  -1.782434e+06  -9.156563e+05
   9.651541e+05  -1.093047e+06
   2.373103e+06   1.129170e+06
  -3.928380e+04   2.865762e+06
  -3.754307e+06   1.928777e+06
  -4.813821e+06  -8.275914e+05
  -2.308894e+06  -3.446589e+06
   1.718069e+06  -4.926641e+06
   4.941943e+06  -4.550331e+06
   5.923202e+06  -1.521130e+06
   4.169480e+06   3.093051e+06
   8.166144e+05   5.883875e+06
  -1.582211e+06   4.676470e+06
  -1.528155e+06   1.522986e+06
  -3.843854e+05   1.293146e+05
  -4.844514e+05   1.038046e+06
  -1.975335e+06   1.495781e+06
  -2.870358e+06  -1.706102e+05
  -1.866643e+06  -2.269189e+06
   2.468232e+05  -2.305731e+06
   1.826323e+06  -1.236829e+05
   1.780935e+06   2.294602e+06
  -8.821662e+04   3.018840e+06
  -2.803988e+06   1.501281e+06
  -4.252358e+06  -1.325219e+06
  -2.922489e+06  -3.592091e+06
   7.904455e+04  -3.845044e+06
   2.023340e+06  -2.446942e+06
   1.949447e+06  -1.127024e+06
   1.705928e+06  -8.143022e+05
   2.933498e+06  -6.155080e+05
   4.389721e+06   6.633342e+05
   3.561687e+06   2.746159e+06
   1.667690e+05   4.208989e+06
  -3.304435e+06   3.982336e+06
  -4.329612e+06   2.065535e+06
  -2.669971e+06  -5.786833e+05
  -1.123123e+05  -2.323476e+06
   1.246224e+06  -1.895408e+06
   5.554967e+05   9.133005e+04
  -1.158820e+06   1.310695e+06
  -1.910597e+06   3.932339e+05
  -8.700235e+05  -1.199481e+06
   5.824558e+05  -1.143790e+06
   5.390675e+05   3.885375e+05
  -9.497307e+05   8.823784e+05
  -1.928314e+06  -9.607934e+05
  -9.944800e+05  -3.349009e+06
   1.218733e+06  -3.680847e+06
   3.094383e+06  -1.554560e+06
   3.600801e+06   1.247499e+06
   2.581652e+06   2.895201e+06
   5.343041e+05   2.808221e+06
  -1.322479e+06   1.519458e+06
  -1.653308e+06   1.982914e+05
  -5.081858e+05  -4.750328e+04
   3.741804e+05   7.708335e+05
  -3.836815e+05   1.345105e+06
  -1.888891e+06   5.998880e+05
  -2.066274e+06  -8.407478e+05
  -4.386273e+05  -1.409022e+06
   1.189676e+06  -6.137171e+05
   9.735314e+05   4.648284e+05
  -8.416118e+05   6.334767e+05
  -2.336659e+06  -2.191196e+05
  -1.943053e+06  -1.405799e+06
   1.894159e+05  -2.134826e+06
   2.400287e+06  -1.784147e+06
   2.879279e+06  -3.078763e+05
   1.252904e+06   1.269756e+06
  -9.160403e+05   1.498453e+06
  -1.543869e+06   1.898503e+05
  -1.778526e+05  -1.076772e+06
   1.549096e+06  -7.507594e+05
   1.782452e+06   7.742485e+05
   4.078558e+05   1.703000e+06
  -1.083540e+06   1.071642e+06
  -1.321922e+06  -2.517671e+05
  -3.088512e+05  -7.880216e+05
   7.891566e+05  -7.202334e+04
   7.477971e+05   1.075120e+06
  -6.066578e+05   1.458750e+06
  -2.075338e+06   5.413006e+05
  -2.090598e+06  -1.091247e+06
  -3.986876e+05  -2.131935e+06
   1.463184e+06  -1.698996e+06
   1.775389e+06  -2.422066e+05
   5.442675e+05   8.865408e+05
  -6.679748e+05   8.471520e+05
  -6.865146e+05   7.391027e+04
   9.974113e+04  -4.330181e+05
   5.593665e+05  -2.720931e+05
   2.195885e+05   9.174528e+04
  -4.218598e+05   7.112705e+03
  -5.700739e+05  -6.299153e+05
   1.635258e+05  -1.219328e+06
   1.410481e+06  -9.417499e+05
   2.151865e+06   4.157405e+05
   1.513566e+06   2.002458e+06
  -2.234978e+05   2.516243e+06
  -1.680596e+06   1.505231e+06
  -1.794718e+06  -9.906619e+04
  -9.503153e+05  -9.727906e+05
  -3.407856e+05  -7.752661e+05
  -4.363951e+05  -2.832089e+05
  -5.885372e+05  -2.945735e+05
  -8.966238e+04  -7.485114e+05
   8.860087e+05  -9.461020e+05
   1.513053e+06  -3.703254e+05
   1.131848e+06   7.615038e+05
  -2.315765e+05   1.565478e+06
  -1.789685e+06   1.149189e+06
  -2.349356e+06  -4.888138e+05
  -1.207464e+06  -2.164476e+06
   9.941113e+05  -2.450102e+06
   2.597010e+06  -1.107975e+06
   2.462593e+06   6.300316e+05
   1.063264e+06   1.388628e+06
  -1.786949e+05   1.044124e+06
  -4.509492e+05   5.814075e+05
  -1.589752e+05   7.653235e+05
  -1.403161e+05   1.300026e+06
  -6.755592e+05   1.298394e+06
  -1.312247e+06   3.212468e+05
  -1.373246e+06  -1.120924e+06
  -5.712451e+05  -1.963254e+06
   6.497270e+05  -1.487802e+06
   1.337016e+06  -8.453916e+03
   8.580446e+05   1.305820e+06
  -3.647473e+05   1.445027e+06
  -1.163321e+06   4.698430e+05
  -8.411732e+05  -6.513865e+05
   7.513323e+04  -1.079094e+06
   4.950493e+05  -8.239454e+05
   6.545843e+04  -4.573706e+05
  -4.364736e+05  -3.592903e+05
  -5.459963e+04  -4.015136e+05
   1.168629e+06  -2.283763e+05
   2.107824e+06   3.266195e+05
   1.676562e+06   1.050807e+06
   1.456388e+03   1.460991e+06
  -1.599613e+06   1.174100e+06
  -1.882757e+06   3.175067e+05
  -8.817401e+05  -4.633322e+05
   2.480722e+05  -5.684266e+05
   5.185172e+05  -5.655208e+04
   2.029109e+04   4.055906e+05
  -4.728556e+05   2.580016e+05
  -4.932688e+05  -3.539406e+05
  -2.274983e+05  -7.548258e+05
  -6.723915e+04  -4.951669e+05
  -1.485097e+05   1.217318e+05
  -3.185567e+05   3.299594e+05
  -2.924829e+05  -2.371187e+05
   1.633151e+05  -1.031781e+06
   9.275947e+05  -1.099036e+06
   1.368317e+06  -1.651147e+05
   8.443246e+05   9.431319e+05
  -4.250967e+05   1.149471e+06
  -1.276472e+06   3.217845e+05
  -7.547543e+05  -6.027031e+05
   7.191447e+05  -6.803031e+05
   1.662935e+06   8.123693e+04
   1.087637e+06   8.902965e+05
  -4.724680e+05   1.056308e+06
  -1.567641e+06   5.418610e+05
  -1.310634e+06  -1.768083e+05
  -1.551424e+05  -5.426966e+05
   6.717028e+05  -2.953290e+05
   3.903550e+05   2.938283e+05
  -6.184735e+05   5.268463e+05
  -1.222577e+06  -1.031888e+05
  -6.716733e+05  -1.232594e+06
   6.377841e+05  -1.754610e+06
   1.551428e+06  -9.022076e+05
   1.303929e+06   7.952446e+05
   2.088786e+05   1.868550e+06
  -7.709115e+05   1.361711e+06
  -9.702151e+05  -1.665626e+05
  -4.677432e+05  -1.239879e+06
   2.077087e+05  -1.024066e+06
   5.797889e+05  -9.819905e+04
   5.003655e+05   3.982023e+05
   1.863434e+05   1.507926e+05
   4.487183e+04  -1.054597e+05
   2.696059e+05   2.918820e+05
   5.238044e+05   9.986645e+05
   2.193555e+05   1.129001e+06
  -7.213812e+05   4.192134e+05
  -1.539198e+06  -4.827155e+05
  -1.351863e+06  -8.717928e+05
  -1.965429e+05  -7.234230e+05
   9.020523e+05  -4.339926e+05
   1.030669e+06  -1.963101e+05
   3.648564e+05   4.375945e+04
  -1.563351e+05   2.327353e+05
  -2.165541e+04   2.247372e+05
   2.914931e+05   1.100291e+05
   4.627335e+04   1.383269e+05
  -7.046800e+05   2.378154e+05
  -1.086341e+06  -1.364235e+04
  -4.292754e+05  -7.121339e+05
   8.855992e+05  -1.215725e+06
   1.753874e+06  -7.826969e+05
   1.449377e+06   4.494596e+05
   2.842782e+05   1.463808e+06
  -7.890859e+05   1.429747e+06
  -1.088177e+06   5.538508e+05
  -6.832522e+05  -2.477884e+05
  -1.345286e+05  -3.710250e+05
   8.315946e+04  -5.883002e+04
  -8.199464e+04   2.781531e+04
  -3.209712e+05  -3.790623e+05
  -2.651824e+05  -8.414270e+05
   1.859877e+05  -7.042103e+05
   7.098613e+05   1.317257e+05
   7.642861e+05   9.928859e+05
   1.130288e+05   1.068426e+06
  -7.861886e+05   2.494990e+05
  -1.074437e+06  -7.531691e+05
  -3.613126e+05  -1.129553e+06
   7.382275e+05  -7.005591e+05
   1.158400e+06   7.369446e+04
   5.521673e+05   6.261849e+05
  -2.921247e+05   6.981192e+05
  -3.842096e+05   3.847175e+05
   2.652122e+05   1.407079e+04
   6.775162e+05  -4.209205e+04
   1.515977e+05   3.172526e+05
  -8.560519e+05   7.114584e+05
  -1.302395e+06   5.764607e+05
  -7.875963e+05  -1.718939e+05
   9.565304e+04  -9.014885e+05
   5.620975e+05  -8.923752e+05
   4.322637e+05  -1.673263e+05
   5.334230e+04   5.001775e+05
  -2.465975e+05   4.496928e+05
  -3.654176e+05  -1.579622e+05
  -2.665352e+05  -5.991609e+05
   5.213847e+04  -4.382214e+05
   4.058200e+05   4.691202e+04
   4.957297e+05   2.839309e+05
   2.541706e+05   9.486816e+04
  -3.508882e+04  -1.498063e+05
  -8.984950e+04  -3.412754e+04
   4.347347e+03   3.686774e+05
  -5.839306e+04   5.614256e+05
  -3.302967e+05   2.167164e+05
  -4.684437e+05  -3.959162e+05
  -1.563130e+05  -6.698884e+05
   4.245813e+05  -3.259327e+05
   6.878155e+05   2.886726e+05
   2.641499e+05   5.961583e+05
  -5.236152e+05   3.835408e+05
  -9.146004e+05  -7.378972e+04
  -4.993448e+05  -3.892085e+05
   3.012678e+05  -4.144433e+05
   6.599040e+05  -2.373951e+05
   2.560278e+05  -2.174294e+04
  -3.635613e+05   6.694627e+04
  -4.242299e+05  -7.004053e+04
   1.788640e+05  -3.055297e+05
   7.786966e+05  -2.842552e+05
