
 $NMID
 id='ANONYMOUS ', fmtdat='(2E16.6)'
 volume=1.0
 tramp=1.0
 $END
   3.343908e+07   1.673551e+06
   2.015600e+07   1.881328e+07
  -3.124010e+06   2.143328e+07
  -1.552136e+07   1.085654e+07
  -1.071577e+07  -1.396442e+06
   6.679682e+05  -5.620580e+06
   6.205195e+06  -1.170895e+06
   3.342242e+06   5.503815e+06
  -2.601963e+06   7.403111e+06
  -5.994974e+06   2.619368e+06
  -4.750028e+06  -4.219646e+06
  -4.349433e+05  -6.246170e+06
   2.971181e+06  -1.461864e+06
   2.118794e+06   4.769866e+06
  -2.146921e+06   5.495178e+06
  -5.137045e+06  -1.540458e+05
  -3.263982e+06  -6.445438e+06
   2.113225e+06  -7.663642e+06
   6.402640e+06  -3.512155e+06
   6.465511e+06   1.950090e+06
   3.062359e+06   4.850763e+06
  -4.227628e+05   4.377395e+06
  -1.076038e+06   2.528301e+06
   8.983012e+05   1.923629e+06
   2.123584e+06   3.239389e+06
  -4.274079e+05   4.409214e+06
  -5.393103e+06   2.968126e+06
  -7.767494e+06  -7.523053e+05
  -4.612174e+06  -3.692680e+06
   1.140182e+06  -3.505933e+06
   3.932377e+06  -9.327775e+05
   1.824101e+06   1.479779e+06
  -2.021667e+06   1.894253e+06
  -3.593484e+06   1.110793e+05
  -2.054833e+06  -2.605986e+06
   5.397512e+05  -3.939049e+06
   1.923840e+06  -2.215274e+06
   1.379410e+06   1.178395e+06
  -1.022411e+05   2.438778e+06
  -7.164088e+05  -6.074489e+04
   4.400997e+05  -3.019589e+06
   2.088946e+06  -2.149758e+06
   1.883570e+06   1.832446e+06
  -6.950875e+05   3.745212e+06
  -3.206647e+06   7.483639e+05
  -2.717669e+06  -3.867026e+06
   8.952474e+05  -4.888534e+06
   4.631577e+06  -1.365794e+06
   5.208491e+06   2.994079e+06
   2.008148e+06   4.446625e+06
  -2.408410e+06   2.546005e+06
  -4.430296e+06  -5.250851e+05
  -2.534824e+06  -2.302123e+06
   1.202085e+06  -1.720253e+06
   3.061140e+06   2.871959e+05
   1.559332e+06   1.582267e+06
  -1.039518e+06   9.287812e+05
  -1.575161e+06  -6.337948e+05
   2.159820e+05  -1.094054e+06
   1.659134e+06   4.870606e+04
   6.443845e+05   1.359621e+06
  -1.890668e+06   1.346979e+06
  -3.215641e+06  -1.261301e+05
  -1.756016e+06  -2.199492e+06
   1.576772e+06  -3.705653e+06
   4.410476e+06  -3.399536e+06
   4.858818e+06  -7.606797e+05
   2.900611e+06   2.830726e+06
   2.967001e+05   4.744450e+06
  -1.044069e+06   3.810210e+06
  -8.664064e+05   1.711525e+06
  -5.556044e+05   8.111310e+05
  -1.259880e+06   1.183956e+06
  -2.470622e+06   9.256451e+05
  -2.746087e+06  -8.557560e+05
  -1.442435e+06  -2.628403e+06
   6.486869e+05  -2.365249e+06
   2.068575e+06  -3.691451e+04
   1.752727e+06   2.351284e+06
  -2.548389e+05   2.796635e+06
  -2.590334e+06   1.015983e+06
  -3.374016e+06  -1.538965e+06
  -1.929547e+06  -3.026521e+06
   3.531685e+05  -2.741877e+06
   1.497147e+06  -1.557910e+06
   1.259277e+06  -8.224544e+05
   1.240265e+06  -8.450644e+05
   2.492887e+06  -7.020161e+05
   3.827543e+06   4.778417e+05
   3.156086e+06   2.382701e+06
   1.601514e+05   3.769018e+06
  -3.064000e+06   3.559287e+06
  -4.064658e+06   1.673330e+06
  -2.380339e+06  -8.094076e+05
   1.870540e+05  -2.220671e+06
   1.372057e+06  -1.604259e+06
   4.852710e+05   1.860027e+05
  -1.142891e+06   1.137425e+06
  -1.662544e+06   2.947751e+05
  -6.374011e+05  -1.061007e+06
   6.215529e+05  -1.049430e+06
   6.439425e+05   2.989420e+05
  -5.635069e+05   1.010411e+06
  -1.637221e+06  -2.811057e+05
  -1.335636e+06  -2.535462e+06
   3.756146e+05  -3.464615e+06
   2.442426e+06  -2.021110e+06
   3.503779e+06   6.852440e+05
   2.753900e+06   2.647688e+06
   6.292678e+05   2.734872e+06
  -1.283329e+06   1.410639e+06
  -1.566294e+06   1.186004e+05
  -4.621818e+05  -4.666989e+04
   3.417574e+05   6.927420e+05
  -2.985858e+05   1.137732e+06
  -1.584182e+06   5.075269e+05
  -1.788145e+06  -6.592120e+05
  -4.409846e+05  -1.174560e+06
   1.039632e+06  -5.857341e+05
   9.782872e+05   3.941304e+05
  -6.663260e+05   7.267454e+05
  -2.228257e+06   2.228349e+04
  -2.015023e+06  -1.236586e+06
   2.031313e+04  -2.089992e+06
   2.190073e+06  -1.755042e+06
   2.637840e+06  -3.183901e+05
   1.110838e+06   1.097294e+06
  -8.047406e+05   1.250840e+06
  -1.288581e+06   1.250932e+05
  -8.605955e+04  -9.230684e+05
   1.385493e+06  -6.486267e+05
   1.615802e+06   6.486452e+05
   4.694434e+05   1.516404e+06
  -8.804247e+05   1.064064e+06
  -1.211075e+06  -9.461048e+04
  -3.698343e+05  -6.567969e+05
   6.481570e+05  -7.489524e+04
   6.431723e+05   9.622384e+05
  -5.867209e+05   1.303579e+06
  -1.899363e+06   4.443485e+05
  -1.872848e+06  -1.020773e+06
  -3.494524e+05  -1.916354e+06
   1.291082e+06  -1.527916e+06
   1.586987e+06  -2.548830e+05
   5.328693e+05   7.750760e+05
  -5.788055e+05   7.925857e+05
  -6.857976e+05   6.909021e+04
   2.248578e+04  -4.950322e+05
   5.797864e+05  -3.735830e+05
   3.831058e+05   8.698704e+04
  -2.676194e+05   1.471487e+05
  -5.520981e+05  -4.388324e+05
   6.347539e+04  -1.071586e+06
   1.245165e+06  -8.727398e+05
   1.949911e+06   3.650338e+05
   1.362237e+06   1.817127e+06
  -2.089261e+05   2.313828e+06
  -1.536641e+06   1.451911e+06
  -1.709324e+06  -1.719918e+04
  -1.001904e+06  -9.471938e+05
  -3.771120e+05  -8.917364e+05
  -3.151434e+05  -3.917174e+05
  -4.092552e+05  -2.432330e+05
  -5.109323e+04  -6.058164e+05
   7.664014e+05  -8.763695e+05
   1.393270e+06  -4.038177e+05
   1.122997e+06   7.045382e+05
  -1.400387e+05   1.519088e+06
  -1.633907e+06   1.119767e+06
  -2.179858e+06  -4.230052e+05
  -1.153797e+06  -1.946736e+06
   8.191940e+05  -2.210888e+06
   2.289596e+06  -1.061762e+06
   2.276339e+06   4.709920e+05
   1.107169e+06   1.242689e+06
  -7.081650e+04   1.060600e+06
  -4.808487e+05   6.527087e+05
  -3.039121e+05   7.067788e+05
  -2.224671e+05   1.100915e+06
  -6.043792e+05   1.105937e+06
  -1.152256e+06   2.575871e+05
  -1.226993e+06  -1.041221e+06
  -5.020144e+05  -1.801997e+06
   6.128382e+05  -1.357759e+06
   1.227555e+06  -2.481537e+04
   7.996569e+05   1.144149e+06
  -2.634829e+05   1.298643e+06
  -9.628965e+05   5.014466e+05
  -7.347495e+05  -4.615499e+05
  -1.156414e+04  -8.937415e+05
   3.320550e+05  -7.491932e+05
   5.265476e+03  -4.585673e+05
  -3.783100e+05  -3.595484e+05
  -3.507453e+04  -3.798585e+05
   1.022930e+06  -2.138895e+05
   1.859720e+06   2.891486e+05
   1.519016e+06   9.233857e+05
   6.174892e+04   1.265966e+06
  -1.380245e+06   1.027565e+06
  -1.679672e+06   3.327788e+05
  -8.160806e+05  -3.227051e+05
   1.958211e+05  -4.655896e+05
   4.407913e+05  -8.642515e+04
  -2.253178e+04   3.152101e+05
  -4.678972e+05   2.198282e+05
  -4.367658e+05  -3.298159e+05
  -1.326382e+05  -7.226995e+05
   1.006202e+04  -4.678202e+05
  -1.372402e+05   1.626812e+05
  -3.403047e+05   3.715040e+05
  -2.790705e+05  -2.074911e+05
   1.874230e+05  -9.724190e+05
   8.516079e+05  -9.845036e+05
   1.171223e+06  -8.129833e+04
   6.793487e+05   8.821725e+05
  -4.055214e+05   9.783131e+05
  -1.128658e+06   2.071529e+05
  -6.779406e+05  -5.814573e+05
   6.395943e+05  -6.306835e+05
   1.547977e+06   3.541992e+04
   1.087994e+06   7.854058e+05
  -3.547526e+05   1.016462e+06
  -1.442829e+06   5.980296e+05
  -1.259763e+06  -1.022503e+05
  -1.812915e+05  -5.101658e+05
   6.025368e+05  -3.023779e+05
   3.283928e+05   2.509699e+05
  -6.104485e+05   4.470030e+05
  -1.120142e+06  -1.607406e+05
  -5.416385e+05  -1.173817e+06
   6.843662e+05  -1.586069e+06
   1.477515e+06  -7.683451e+05
   1.190952e+06   7.715616e+05
   1.679186e+05   1.739532e+06
  -7.162931e+05   1.287728e+06
  -8.998036e+05  -1.113070e+05
  -4.708811e+05  -1.132007e+06
   1.302660e+05  -9.695237e+05
   5.121262e+05  -1.109806e+05
   5.061936e+05   3.750792e+05
   2.243789e+05   1.499338e+05
   2.016524e+04  -1.102571e+05
   1.674484e+05   2.454983e+05
   4.451734e+05   9.128241e+05
   2.577666e+05   1.045617e+06
  -5.949728e+05   3.828782e+05
  -1.426055e+06  -4.577021e+05
  -1.298722e+06  -8.063675e+05
  -1.809938e+05  -6.548678e+05
   8.878188e+05  -3.931512e+05
   9.686335e+05  -1.946137e+05
   2.880575e+05   1.836418e+04
  -1.673746e+05   2.101914e+05
   4.311880e+04   2.293456e+05
   3.373454e+05   1.310550e+05
   1.603070e+04   1.354243e+05
  -7.254167e+05   1.944345e+05
  -9.943463e+05  -4.858836e+04
  -2.876640e+05  -6.636809e+05
   9.004000e+05  -1.075000e+06
   1.588265e+06  -6.399249e+05
   1.251203e+06   4.839718e+05
   2.145324e+05   1.366469e+06
  -7.340381e+05   1.279259e+06
  -1.014770e+06   4.478778e+05
  -6.390897e+05  -2.740011e+05
  -8.962077e+04  -3.462680e+05
   1.386937e+05  -2.213089e+04
  -4.901849e+04   6.531269e+04
  -3.168252e+05  -3.301918e+05
  -2.564643e+05  -7.745514e+05
   1.979290e+05  -6.327737e+05
   6.694129e+05   1.751025e+05
   6.534284e+05   9.747479e+05
   1.375302e+04   9.876974e+05
  -7.742219e+05   1.598394e+05
  -9.619934e+05  -7.721307e+05
  -2.699809e+05  -1.048244e+06
   7.087549e+05  -5.860967e+05
   1.036145e+06   1.117399e+05
   4.551415e+05   5.490537e+05
  -2.852918e+05   5.799528e+05
  -3.118108e+05   3.264822e+05
   3.023490e+05   3.193364e+04
   6.400862e+05  -1.885255e+04
   1.126145e+05   2.865420e+05
  -7.997422e+05   6.463647e+05
  -1.155258e+06   5.416951e+05
  -6.594975e+05  -1.365345e+05
   1.132064e+05  -8.058883e+05
   4.882726e+05  -7.805648e+05
   3.506491e+05  -9.740597e+04
   1.276923e+04   4.883946e+05
  -2.505487e+05   3.798920e+05
  -3.430970e+05  -2.020680e+05
  -2.254940e+05  -5.596205e+05
   7.673123e+04  -3.580770e+05
   3.732651e+05   7.381825e+04
   4.278280e+05   2.385697e+05
   2.270291e+05   6.100925e+04
   1.661612e+03  -1.025678e+05
  -6.981660e+04   4.842782e+04
  -6.915252e+04   3.814527e+05
  -1.725664e+05   4.736335e+05
  -3.531243e+05   1.046602e+05
  -3.637676e+05  -4.437298e+05
  -4.081675e+04  -6.401349e+05
   4.269354e+05  -2.691727e+05
   5.973226e+05   3.190054e+05
   2.068061e+05   5.783663e+05
  -4.758491e+05   3.318231e+05
  -8.128065e+05  -1.150183e+05
  -4.358641e+05  -3.724224e+05
   2.916399e+05  -3.364472e+05
   6.051565e+05  -1.550014e+05
   1.971914e+05  -5.795303e+02
  -3.977123e+05   2.017114e+04
  -4.187185e+05  -1.279364e+05
   2.125269e+05  -3.175996e+05
   7.984835e+05  -2.524462e+05
