
 $NMID
 id='ANONYMOUS ', fmtdat='(2E16.6)'
 volume=1.0
 tramp=1.0
 $END
  -4.250164e+07  -9.633620e+05
  -2.551755e+07  -2.631758e+07
   5.587937e+06  -2.866513e+07
   2.106677e+07  -1.144897e+07
   1.294539e+07   4.903066e+06
  -2.258916e+06   7.215178e+06
  -7.701232e+06  -5.636513e+05
  -2.471612e+06  -7.507784e+06
   4.679895e+06  -7.581363e+06
   7.534572e+06  -1.759572e+06
   5.360084e+06   4.951866e+06
   4.377927e+05   6.819327e+06
  -3.184915e+06   1.976204e+06
  -1.950270e+06  -4.552330e+06
   3.037521e+06  -5.317418e+06
   6.126393e+06   9.829335e+05
   3.373580e+06   7.941066e+06
  -3.039397e+06   9.082654e+06
  -7.843963e+06   4.332051e+06
  -8.129619e+06  -1.860050e+06
  -4.701443e+06  -5.769599e+06
  -3.129483e+05  -6.312545e+06
   2.013379e+06  -4.383258e+06
   1.002020e+06  -2.310081e+06
  -9.602461e+05  -2.257511e+06
   1.751612e+05  -3.561767e+06
   4.681153e+06  -3.150568e+06
   7.705773e+06   1.477802e+05
   5.301480e+06   3.518474e+06
  -1.818364e+05   3.840188e+06
  -3.178880e+06   1.630302e+06
  -1.819067e+06  -3.842424e+05
   9.877757e+05  -8.641130e+05
   2.253336e+06  -8.938609e+04
   1.667585e+06   1.616791e+06
   1.035388e+05   3.303299e+06
  -1.614899e+06   2.817389e+06
  -2.230427e+06  -3.248947e+05
  -9.790423e+05  -2.733915e+06
   5.482638e+05  -1.138716e+06
  -6.920776e+04   2.176559e+06
  -2.118521e+06   1.846641e+06
  -1.944307e+06  -2.470893e+06
   1.718805e+06  -4.718820e+06
   5.061064e+06  -8.287614e+05
   3.755087e+06   5.194591e+06
  -1.454196e+06   6.409120e+06
  -5.689420e+06   1.716239e+06
  -5.441937e+06  -3.626371e+06
  -1.473818e+06  -4.886742e+06
   2.832767e+06  -2.221513e+06
   4.328904e+06   1.238265e+06
   2.062687e+06   2.839008e+06
  -1.822601e+06   1.785680e+06
  -3.543447e+06  -7.008953e+05
  -1.572988e+06  -2.112584e+06
   1.319159e+06  -1.058755e+06
   1.447120e+06   8.493721e+05
  -9.135860e+05   8.804741e+05
  -2.007602e+06  -1.117940e+06
   1.708391e+05  -2.528704e+06
   3.329296e+06  -1.534481e+06
   4.091162e+06   9.207743e+05
   1.825903e+06   3.037214e+06
  -1.610788e+06   4.064155e+06
  -4.259768e+06   3.602899e+06
  -4.978606e+06   1.072925e+06
  -3.392913e+06  -2.695075e+06
  -4.861500e+05  -4.934150e+06
   1.542586e+06  -3.855438e+06
   1.416096e+06  -1.176200e+06
   3.459097e+05   6.971743e+03
   3.637455e+05  -7.520991e+05
   1.582097e+06  -1.151629e+06
   2.293996e+06   1.907646e+05
   1.438350e+06   1.863885e+06
  -2.595198e+05   1.832904e+06
  -1.450369e+06   1.804766e+04
  -1.336807e+06  -1.933866e+06
   1.837946e+05  -2.464380e+06
   2.350293e+06  -1.151939e+06
   3.481951e+06   1.219459e+06
   2.339316e+06   3.086746e+06
  -1.746794e+05   3.240129e+06
  -1.792595e+06   2.015160e+06
  -1.713339e+06   8.817346e+05
  -1.484086e+06   5.890625e+05
  -2.464341e+06   3.583117e+05
  -3.599059e+06  -7.587436e+05
  -2.814373e+06  -2.432934e+06
   5.446983e+04  -3.471837e+06
   2.887985e+06  -3.121910e+06
   3.628655e+06  -1.518621e+06
   2.163105e+06   5.562134e+05
   2.025031e+04   1.887051e+06
  -1.073970e+06   1.511671e+06
  -4.531814e+05  -7.858208e+04
   9.918885e+05  -1.028036e+06
   1.591480e+06  -2.562747e+05
   6.865538e+05   1.017669e+06
  -5.109547e+05   9.153652e+05
  -4.081493e+05  -3.467000e+05
   8.574254e+05  -6.670686e+05
   1.572186e+06   9.398591e+05
   6.335523e+05   2.875548e+06
  -1.260018e+06   2.988863e+06
  -2.685225e+06   1.079670e+06
  -2.898010e+06  -1.257514e+06
  -1.942820e+06  -2.517128e+06
  -2.849725e+05  -2.317670e+06
   1.150900e+06  -1.181453e+06
   1.361033e+06  -9.345566e+04
   4.177546e+05   6.192179e+04
  -2.731828e+05  -6.480165e+05
   3.742296e+05  -1.097352e+06
   1.588736e+06  -4.205796e+05
   1.675747e+06   7.851496e+05
   3.042545e+05   1.186476e+06
  -1.001232e+06   4.511507e+05
  -7.641331e+05  -4.245788e+05
   7.352763e+05  -4.593257e+05
   1.900024e+06   3.213533e+05
   1.499959e+06   1.257760e+06
  -2.775902e+05   1.730971e+06
  -2.056892e+06   1.339518e+06
  -2.380276e+06   1.183245e+05
  -9.819068e+05  -1.104699e+06
   8.154589e+05  -1.206700e+06
   1.289281e+06  -1.015433e+05
   1.131542e+05   8.932581e+05
  -1.303912e+06   5.532265e+05
  -1.432434e+06  -7.194742e+05
  -2.520469e+05  -1.424106e+06
   9.499489e+05  -8.283331e+05
   1.078264e+06   2.763264e+05
   2.152698e+05   6.659358e+05
  -6.510180e+05   2.375083e+04
  -5.631051e+05  -9.125319e+05
   5.609483e+05  -1.164193e+06
   1.722703e+06  -3.501835e+05
   1.666883e+06   9.877359e+05
   2.330640e+05   1.770930e+06
  -1.282553e+06   1.334580e+06
  -1.476839e+06   1.193205e+05
  -4.098710e+05  -7.555948e+05
   5.854558e+05  -6.659232e+05
   5.580168e+05  -3.293887e+04
  -1.110889e+05   3.347721e+05
  -4.629953e+05   1.765586e+05
  -1.494527e+05  -8.997238e+04
   3.670415e+05   3.165985e+04
   4.368914e+05   5.652201e+05
  -2.041060e+05   1.001110e+06
  -1.209138e+06   7.043319e+05
  -1.748242e+06  -4.447871e+05
  -1.150803e+06  -1.715760e+06
   3.002339e+05  -2.055259e+06
   1.452421e+06  -1.151756e+06
   1.466175e+06   1.745557e+05
   7.218800e+05   8.432475e+05
   2.327756e+05   6.375779e+05
   3.502718e+05   2.382551e+05
   4.825167e+05   2.711086e+05
   4.003129e+04   6.289671e+05
  -7.823744e+05   7.340094e+05
  -1.263061e+06   2.194438e+05
  -8.808877e+05  -6.859386e+05
   2.790714e+05  -1.267052e+06
   1.527860e+06  -8.479027e+05
   1.901991e+06   5.174123e+05
   8.843750e+05   1.837029e+06
  -9.386670e+05   1.968733e+06
  -2.193182e+06   7.858313e+05
  -1.993150e+06  -6.424474e+05
  -7.959355e+05  -1.195232e+06
   2.074233e+05  -8.398614e+05
   3.933346e+05  -4.415662e+05
   1.493688e+05  -6.165714e+05
   1.630297e+05  -1.069009e+06
   6.142456e+05  -1.044692e+06
   1.096605e+06  -2.081554e+05
   1.078188e+06   9.814508e+05
   3.802486e+05   1.636749e+06
  -5.994572e+05   1.191249e+06
  -1.096796e+06  -5.613338e+04
  -6.427732e+05  -1.116614e+06
   3.732530e+05  -1.173030e+06
   9.882926e+05  -3.260355e+05
   6.657205e+05   5.875486e+05
  -1.189926e+05   8.932846e+05
  -4.568114e+05   6.551341e+05
  -8.043039e+04   3.696021e+05
   3.432391e+05   3.139755e+05
   2.589484e+04   3.320598e+05
  -9.764243e+05   1.315309e+05
  -1.722399e+06  -3.692806e+05
  -1.328604e+06  -9.450630e+05
   7.223323e+04  -1.205798e+06
   1.375293e+06  -8.943404e+05
   1.565316e+06  -1.703120e+05
   7.027484e+05   4.308064e+05
  -2.332362e+05   4.610492e+05
  -4.326688e+05   1.854682e+04
  -1.266452e+03  -3.411424e+05
   3.991109e+05  -1.922092e+05
   3.913479e+05   3.142354e+05
   1.585667e+05   6.285848e+05
   3.923145e+04   4.083622e+05
   1.292984e+05  -8.741367e+04
   2.729268e+05  -2.466202e+05
   2.252190e+05   2.118413e+05
  -1.825553e+05   8.362467e+05
  -8.140237e+05   8.581048e+05
  -1.137585e+06   7.618175e+04
  -6.567022e+05  -8.121534e+05
   4.016451e+05  -9.304897e+05
   1.067414e+06  -2.124601e+05
   5.931197e+05   5.282349e+05
  -6.252396e+05   5.250408e+05
  -1.361246e+06  -1.490735e+05
  -8.430368e+05  -7.870851e+05
   4.467151e+05  -8.419721e+05
   1.313890e+06  -3.612386e+05
   1.062666e+06   2.133626e+05
   9.808059e+04   4.519321e+05
  -5.660995e+05   2.082516e+05
  -3.091536e+05  -2.601648e+05
   5.276025e+05  -4.059508e+05
   9.979576e+05   1.356033e+05
   5.005665e+05   1.038805e+06
  -5.962981e+05   1.413199e+06
  -1.311575e+06   6.742446e+05
  -1.034822e+06  -7.105260e+05
  -8.621727e+04  -1.542806e+06
   6.966910e+05  -1.078770e+06
   7.881200e+05   1.866342e+05
   3.214600e+05   1.040618e+06
  -2.244271e+05   8.274835e+05
  -4.818772e+05   5.071792e+04
  -3.869759e+05  -3.494052e+05
  -1.405470e+05  -1.308931e+05
  -4.351572e+04   8.366473e+04
  -2.150218e+05  -2.540164e+05
  -3.869629e+05  -8.444892e+05
  -1.226258e+05  -9.363490e+05
   6.180415e+05  -3.109229e+05
   1.240462e+06   4.669740e+05
   1.064057e+06   7.789915e+05
   1.269767e+05   6.045143e+05
  -7.560690e+05   3.145916e+05
  -8.536315e+05   1.113132e+05
  -3.020519e+05  -5.535054e+04
   1.367697e+05  -1.846448e+05
   3.432551e+04  -1.821145e+05
  -2.268098e+05  -1.014520e+05
  -3.315702e+04  -1.143881e+05
   5.823845e+05  -1.637825e+05
   8.911166e+05   5.885434e+04
   3.289148e+05   6.037746e+05
  -7.758306e+05   9.607282e+05
  -1.479029e+06   5.679910e+05
  -1.176755e+06  -4.306692e+05
  -1.688673e+05  -1.213561e+06
   7.146758e+05  -1.139716e+06
   9.179624e+05  -4.085354e+05
   5.474852e+05   2.314096e+05
   9.564937e+04   3.098851e+05
  -6.510662e+04   4.698470e+04
   7.116457e+04  -1.512901e+04
   2.433172e+05   3.279015e+05
   1.769166e+05   7.024357e+05
  -1.825611e+05   5.702510e+05
  -5.743210e+05  -1.360375e+05
  -5.855851e+05  -8.445449e+05
  -5.161911e+04  -8.819205e+05
   6.523286e+05  -1.748508e+05
   8.495798e+05   6.612703e+05
   2.494943e+05   9.437051e+05
  -6.364651e+05   5.459181e+05
  -9.502060e+05  -1.111009e+05
  -4.282687e+05  -5.424552e+05
   2.712828e+05  -5.645822e+05
   3.368257e+05  -2.998046e+05
  -2.123169e+05  -2.227869e+04
  -5.568133e+05   4.226896e+03
  -1.119393e+05  -2.683387e+05
   7.350460e+05  -5.448374e+05
   1.100234e+06  -4.112443e+05
   6.447588e+05   1.800871e+05
  -1.182925e+05   7.380122e+05
  -5.061429e+05   7.101217e+05
  -3.673634e+05   1.221322e+05
  -2.367555e+04  -4.108025e+05
   2.216615e+05  -3.607790e+05
   2.921679e+05   1.417465e+05
   1.925069e+05   5.037648e+05
  -6.080758e+04   3.615894e+05
  -3.310496e+05  -5.458377e+04
  -3.963730e+05  -2.583757e+05
  -2.049684e+05  -9.231287e+04
   2.483634e+04   1.278051e+05
   7.325608e+04   3.961995e+04
   6.807095e+03  -2.990576e+05
   6.324457e+04  -4.624592e+05
   2.770131e+05  -1.714413e+05
   3.725358e+05   3.397919e+05
   1.064711e+05   5.554007e+05
  -3.606983e+05   2.505263e+05
  -5.544963e+05  -2.645779e+05
  -1.920849e+05  -4.991728e+05
   4.485666e+05  -2.921062e+05
   7.500773e+05   9.924085e+04
   3.939179e+05   3.416058e+05
  -2.653465e+05   3.303905e+05
  -5.532047e+05   1.701272e+05
  -2.151353e+05   7.712582e+03
   2.955396e+05  -4.213740e+04
   3.425786e+05   7.111586e+04
  -1.563733e+05   2.391451e+05
  -6.449510e+05   1.980553e+05
