
 $NMID
 id='ANONYMOUS ', fmtdat='(2E16.6)'
 volume=1.0
 tramp=1.0
 $END
   2.153390e+07  -3.227225e+05
   1.490295e+07   9.434571e+06
   6.857184e+05   1.359976e+07
  -9.091071e+06   9.832420e+06
  -8.207441e+06   1.580426e+06
  -8.418623e+05  -3.995210e+06
   4.544653e+06  -2.425227e+06
   3.772065e+06   3.442453e+06
  -7.603005e+05   6.449033e+06
  -4.142624e+06   3.061754e+06
  -3.700411e+06  -2.853490e+06
  -5.055568e+05  -4.774205e+06
   2.188459e+06  -9.459688e+05
   1.815947e+06   4.073831e+06
  -1.223768e+06   4.823701e+06
  -3.778646e+06   6.292162e+05
  -2.954382e+06  -4.316116e+06
   8.273706e+05  -5.604423e+06
   4.162854e+06  -2.694057e+06
   4.240401e+06   1.276300e+06
   1.696008e+06   3.026393e+06
  -3.608985e+05   2.209165e+06
   1.306273e+05   1.130168e+06
   2.009002e+06   1.773342e+06
   2.238615e+06   3.531903e+06
  -6.966796e+05   4.080213e+06
  -4.811002e+06   2.161517e+06
  -6.263267e+06  -9.893197e+05
  -3.324022e+06  -2.963507e+06
   1.437020e+06  -2.452509e+06
   3.526228e+06  -1.759245e+05
   1.252113e+06   1.888228e+06
  -2.533934e+06   1.963638e+06
  -3.789235e+06  -1.992780e+05
  -1.702740e+06  -2.851606e+06
   9.917218e+05  -3.491100e+06
   1.638787e+06  -1.373186e+06
   4.119408e+05   1.306742e+06
  -6.848613e+05   1.568208e+06
  -4.155079e+05  -8.387178e+05
   7.822805e+05  -2.916389e+06
   1.761123e+06  -1.957932e+06
   1.659628e+06   1.085572e+06
   3.083949e+05   2.693200e+06
  -1.440130e+06   9.959726e+05
  -1.886703e+06  -2.084422e+06
   2.184566e+04  -3.171952e+06
   3.041748e+06  -1.147419e+06
   4.264967e+06   1.990253e+06
   2.086876e+06   3.484421e+06
  -1.776301e+06   2.394623e+06
  -3.859644e+06   3.740644e+03
  -2.506637e+06  -1.660405e+06
   5.729989e+05  -1.526150e+06
   2.305795e+06  -1.479956e+05
   1.404357e+06   9.614509e+05
  -6.399231e+05   7.531232e+05
  -1.426719e+06  -4.095356e+05
  -2.191652e+05  -1.197092e+06
   1.390031e+06  -7.193840e+05
   1.319423e+06   5.660909e+05
  -5.965285e+05   1.320369e+06
  -2.268986e+06   5.998105e+05
  -1.589255e+06  -1.259151e+06
   1.189675e+06  -2.817746e+06
   3.662829e+06  -2.621915e+06
   3.833452e+06  -4.556267e+05
   2.037993e+06   2.290165e+06
   1.726592e+05   3.727465e+06
  -5.306808e+05   3.214193e+06
  -4.942835e+05   1.867539e+06
  -7.823115e+05   1.125359e+06
  -1.692642e+06   1.028275e+06
  -2.521344e+06   4.117068e+05
  -2.376278e+06  -1.215715e+06
  -1.014100e+06  -2.628191e+06
   8.896026e+05  -2.184536e+06
   2.085684e+06   9.165513e+04
   1.607748e+06   2.277714e+06
  -3.222924e+05   2.484800e+06
  -2.239463e+06   6.981111e+05
  -2.625776e+06  -1.432159e+06
  -1.340776e+06  -2.347947e+06
   2.861942e+05  -1.894797e+06
   9.380341e+05  -1.057330e+06
   7.351490e+05  -7.387658e+05
   9.212142e+05  -9.073153e+05
   2.135341e+06  -7.846800e+05
   3.339496e+06   2.655724e+05
   2.810981e+06   1.995880e+06
   2.017046e+05   3.320390e+06
  -2.715153e+06   3.149320e+06
  -3.636021e+06   1.371635e+06
  -2.030542e+06  -8.664986e+05
   3.547485e+05  -1.980364e+06
   1.329909e+06  -1.309451e+06
   3.963294e+05   2.223822e+05
  -1.050752e+06   9.686500e+05
  -1.414620e+06   2.567587e+05
  -4.866909e+05  -8.827584e+05
   6.041117e+05  -9.244575e+05
   6.878579e+05   2.620577e+05
  -3.490932e+05   1.110614e+06
  -1.528227e+06   1.738892e+05
  -1.614437e+06  -2.020213e+06
  -1.437683e+05  -3.339521e+06
   2.060622e+06  -2.304090e+06
   3.382199e+06   3.394675e+05
   2.738004e+06   2.435254e+06
   6.383201e+05   2.579819e+06
  -1.186694e+06   1.269566e+06
  -1.419251e+06   6.769100e+04
  -4.112206e+05  -3.881287e+04
   3.144120e+05   6.087966e+05
  -2.018920e+05   9.737667e+05
  -1.311375e+06   4.756627e+05
  -1.566102e+06  -4.798370e+05
  -4.566527e+05  -9.832224e+05
   9.001020e+05  -5.597558e+05
   9.419288e+05   3.455307e+05
  -5.589850e+05   7.750981e+05
  -2.104417e+06   1.607124e+05
  -1.977280e+06  -1.112907e+06
  -6.580334e+04  -1.993689e+06
   1.968834e+06  -1.669697e+06
   2.367877e+06  -3.312695e+05
   9.960315e+05   9.220679e+05
  -6.591333e+05   1.057327e+06
  -1.060952e+06   1.215639e+05
  -5.069257e+04  -7.673628e+05
   1.204609e+06  -5.756631e+05
   1.455853e+06   5.243656e+05
   5.045351e+05   1.348522e+06
  -7.273640e+05   1.038974e+06
  -1.117247e+06   1.187334e+04
  -4.068974e+05  -5.642271e+05
   5.350478e+05  -9.572939e+04
   5.634040e+05   8.324772e+05
  -5.262467e+05   1.144991e+06
  -1.684170e+06   3.824228e+05
  -1.654429e+06  -9.012208e+05
  -3.283088e+05  -1.686009e+06
   1.104620e+06  -1.372897e+06
   1.401216e+06  -2.722876e+05
   5.139299e+05   6.738100e+05
  -4.945809e+05   7.327249e+05
  -6.499095e+05   5.473691e+04
  -4.227844e+03  -5.227764e+05
   5.887816e+05  -4.028212e+05
   4.591748e+05   1.198374e+05
  -1.962349e+05   2.522157e+05
  -5.504656e+05  -3.070938e+05
  -1.860306e+04  -9.520166e+05
   1.079930e+06  -8.104014e+05
   1.739826e+06   2.944688e+05
   1.224765e+06   1.598559e+06
  -1.713318e+05   2.078396e+06
  -1.378560e+06   1.360694e+06
  -1.589523e+06   3.107654e+04
  -9.756424e+05  -9.057100e+05
  -3.438826e+05  -9.255752e+05
  -2.007395e+05  -4.117966e+05
  -2.927399e+05  -1.664182e+05
  -5.077536e+04  -4.840175e+05
   6.517743e+05  -8.088502e+05
   1.264131e+06  -4.139005e+05
   1.065513e+06   6.454810e+05
  -8.588259e+04   1.432953e+06
  -1.465671e+06   1.061614e+06
  -1.979564e+06  -3.501805e+05
  -1.089353e+06  -1.721705e+06
   6.481702e+05  -1.987641e+06
   1.995374e+06  -1.021908e+06
   2.080690e+06   3.391899e+05
   1.093817e+06   1.115949e+06
  -1.980353e+04   1.038492e+06
  -4.962860e+05   6.489601e+05
  -3.677017e+05   6.016918e+05
  -2.277490e+05   9.083652e+05
  -5.024424e+05   9.460831e+05
  -9.892246e+05   2.293575e+05
  -1.084889e+06  -9.233781e+05
  -4.510798e+05  -1.606481e+06
   5.468591e+05  -1.213785e+06
   1.104914e+06  -4.311180e+04
   7.472021e+05   9.878339e+05
  -1.737403e+05   1.166127e+06
  -8.095775e+05   5.269862e+05
  -6.714928e+05  -3.126239e+05
  -9.175326e+04  -7.592847e+05
   2.124793e+05  -6.991815e+05
  -2.456745e+04  -4.487129e+05
  -3.212023e+05  -3.326392e+05
  -2.262465e+04  -3.439171e+05
   8.850601e+05  -2.150742e+05
   1.625390e+06   2.189806e+05
   1.367228e+06   7.846179e+05
   1.219120e+05   1.101766e+06
  -1.161691e+06   9.222680e+05
  -1.482596e+06   3.500505e+05
  -7.630803e+05  -2.193617e+05
   1.381762e+05  -3.912438e+05
   3.805204e+05  -1.114337e+05
  -2.984719e+04   2.369131e+05
  -4.348823e+05   1.823154e+05
  -3.831129e+05  -2.912560e+05
  -6.988560e+04  -6.476207e+05
   5.360511e+04  -4.109188e+05
  -1.343100e+05   1.791247e+05
  -3.487238e+05   3.681860e+05
  -2.614522e+05  -1.797822e+05
   1.893722e+05  -8.809307e+05
   7.498219e+05  -8.749313e+05
   9.796316e+05  -5.862785e+04
   5.524263e+05   7.731172e+05
  -3.468548e+05   8.286673e+05
  -9.622578e+05   1.498366e+05
  -5.967667e+05  -5.299564e+05
   5.566872e+05  -5.797564e+05
   1.411301e+06  -9.783128e+02
   1.046526e+06   6.962558e+05
  -2.707084e+05   9.628723e+05
  -1.315151e+06   6.111775e+05
  -1.180704e+06  -5.659994e+04
  -1.885780e+05  -4.728083e+05
   5.364192e+05  -2.992750e+05
   2.821487e+05   2.034648e+05
  -5.620725e+05   3.727644e+05
  -9.889324e+05  -1.759877e+05
  -4.382107e+05  -1.057110e+06
   6.570228e+05  -1.389069e+06
   1.337978e+06  -6.509753e+05
   1.060805e+06   7.066716e+05
   1.444335e+05   1.568182e+06
  -6.459102e+05   1.182623e+06
  -8.235831e+05  -6.815371e+04
  -4.595046e+05  -1.017249e+06
   7.759474e+04  -9.036098e+05
   4.507061e+05  -1.217860e+05
   4.844789e+05   3.493445e+05
   2.334013e+05   1.525883e+05
   7.083506e+03  -1.124920e+05
   1.070424e+05   1.855984e+05
   3.852747e+05   8.039528e+05
   2.732912e+05   9.547646e+05
  -4.874665e+05   3.630867e+05
  -1.287508e+06  -4.108128e+05
  -1.206471e+06  -7.297887e+05
  -1.704226e+05  -5.800825e+05
   8.293248e+05  -3.425441e+05
   8.846706e+05  -1.864315e+05
   2.340949e+05  -1.088566e+04
  -1.625722e+05   1.819967e+05
   7.492123e+04   2.347912e+05
   3.405960e+05   1.502799e+05
  -3.151733e+03   1.204401e+05
  -6.928579e+05   1.467661e+05
  -8.817952e+05  -5.732109e+04
  -1.940330e+05  -5.737835e+05
   8.439055e+05  -9.249369e+05
   1.386570e+06  -5.428031e+05
   1.059133e+06   4.496805e+05
   1.692001e+05   1.226951e+06
  -6.457354e+05   1.130214e+06
  -9.019501e+05   3.682665e+05
  -5.719503e+05  -2.725794e+05
  -6.056924e+04  -3.053828e+05
   1.559989e+05   1.390830e+04
  -3.630580e+04   9.034835e+04
  -3.051587e+05  -2.875393e+05
  -2.441963e+05  -6.969875e+05
   1.861810e+05  -5.540533e+05
   6.001806e+05   1.898994e+05
   5.486945e+05   8.972237e+05
  -3.786084e+04   8.685982e+05
  -7.096637e+05   9.365585e+04
  -8.346347e+05  -7.295362e+05
  -2.093036e+05  -9.302716e+05
   6.367350e+05  -4.882243e+05
   9.025141e+05   1.128329e+05
   3.863082e+05   4.600416e+05
  -2.473219e+05   4.800565e+05
  -2.448149e+05   2.883141e+05
   3.040127e+05   5.206673e+04
   5.806282e+05  -5.520939e+03
   8.778478e+04   2.467416e+05
  -7.189546e+05   5.788145e+05
  -1.009030e+06   5.129749e+05
  -5.575611e+05  -8.838027e+04
   1.056380e+05  -7.039471e+05
   4.046400e+05  -6.863398e+05
   2.711449e+05  -6.584123e+04
  -1.422733e+04   4.477171e+05
  -2.289103e+05   3.162883e+05
  -3.006435e+05  -2.161401e+05
  -1.925484e+05  -5.014711e+05
   7.350160e+04  -2.870128e+05
   3.285054e+05   8.265363e+04
   3.737314e+05   1.899534e+05
   2.063379e+05   3.484223e+04
   1.369187e+04  -6.189905e+04
  -7.318529e+04   9.735401e+04
  -1.152051e+05   3.524113e+05
  -2.159156e+05   3.715559e+05
  -3.248609e+05   2.545313e+04
  -2.690414e+05  -4.297740e+05
   2.878959e+04  -5.651966e+05
   3.969263e+05  -2.172030e+05
   5.040260e+05   3.070280e+05
   1.604313e+05   5.280943e+05
  -4.160983e+05   2.899602e+05
  -7.017648e+05  -1.197828e+05
  -3.761984e+05  -3.345283e+05
   2.577763e+05  -2.728107e+05
   5.260314e+05  -1.045116e+05
   1.483213e+05   1.044657e+03
  -3.870541e+05  -1.987439e+04
  -3.798980e+05  -1.583628e+05
   2.272825e+05  -2.985266e+05
   7.647290e+05  -2.078192e+05
