
 $NMID
 id='ANONYMOUS ', fmtdat='(2E16.6)'
 volume=1.0
 tramp=1.0
 $END
   7.652208e+06  -1.002027e+06
   4.911104e+06   5.646380e+06
  -1.647848e+06   6.074149e+06
  -4.688978e+06   1.140437e+06
  -2.229147e+06  -2.685646e+06
   1.294019e+06  -1.973059e+06
   1.831439e+06   7.520170e+05
  -6.380289e+03   1.899787e+06
  -1.525389e+06   1.043244e+06
  -1.625710e+06  -2.598416e+05
  -8.373290e+05  -1.048478e+06
   1.593258e+05  -1.131768e+06
   7.419559e+05  -4.768220e+05
   3.672945e+05   3.779672e+05
  -5.956957e+05   4.159582e+05
  -9.378184e+05  -5.020567e+05
  -1.693288e+05  -1.269305e+06
   8.453444e+05  -1.074008e+06
   1.259175e+06  -3.500938e+05
   1.229196e+06   2.815701e+05
   1.027815e+06   9.004571e+05
   3.300540e+05   1.472984e+06
  -8.194215e+05   1.301399e+06
  -1.382619e+06   2.068171e+05
  -7.026724e+05  -6.837046e+05
   2.834861e+05  -3.812624e+05
   2.746467e+05   4.582574e+05
  -5.514273e+05   5.275897e+05
  -9.887500e+05  -2.336070e+05
  -6.129782e+05  -8.351673e+05
  -3.073159e+04  -8.524209e+05
   3.434129e+05  -6.761394e+05
   6.175007e+05  -4.570052e+05
   6.933122e+05  -4.491154e+03
   3.270559e+05   3.804745e+05
  -9.384407e+04   1.523482e+05
   1.034681e+05  -3.663587e+05
   6.837127e+05  -2.561495e+05
   7.066892e+05   4.791788e+05
   7.077154e+04   8.130657e+05
  -2.634202e+05   3.929823e+05
   8.169660e+04   1.408159e+05
   1.909385e+05   6.230430e+05
  -5.804647e+05   9.623864e+05
  -1.365757e+06   2.313930e+05
  -1.017465e+06  -9.485183e+05
   1.457945e+05  -1.233241e+06
   8.158065e+05  -4.424330e+05
   4.841353e+05   3.781816e+05
  -1.766256e+05   4.697050e+05
  -4.580450e+05   2.705690e+04
  -2.738067e+05  -4.589166e+05
   1.867150e+05  -6.787188e+05
   6.589883e+05  -4.129319e+05
   7.112337e+05   2.560164e+05
   1.821993e+05   6.813003e+05
  -3.249329e+05   3.403759e+05
  -1.079565e+05  -2.532459e+05
   5.036072e+05  -1.212276e+05
   4.850612e+05   6.764758e+05
  -3.431078e+05   1.005089e+06
  -9.843825e+05   3.229346e+05
  -7.344896e+05  -5.314205e+05
  -1.166117e+05  -6.432473e+05
   1.075665e+05  -2.645615e+05
   6.306983e+04  -1.190325e+05
   2.254298e+05  -1.759590e+05
   3.956396e+05   4.231121e+04
   7.108609e+04   3.833312e+05
  -5.040830e+05   2.302118e+05
  -5.430699e+05  -3.910497e+05
   9.372672e+04  -7.149041e+05
   6.694866e+05  -3.327040e+05
   6.124684e+05   2.860711e+05
   1.605893e+05   5.324422e+05
  -1.777794e+05   3.682261e+05
  -2.597571e+05   1.002369e+05
  -1.945924e+05  -8.551195e+04
  -5.103864e+04  -1.238510e+05
   6.394952e+04   2.017459e+04
  -2.217627e+04   1.973588e+05
  -2.551751e+05   1.233177e+05
  -3.094288e+05  -2.083227e+05
  -4.095917e+04  -4.260435e+05
   2.697515e+05  -2.808848e+05
   3.172407e+05   1.866041e+04
   1.605870e+05   1.624839e+05
   1.986642e+04   1.527290e+05
  -5.903452e+04   1.350367e+05
  -1.115508e+05   8.625392e+04
  -6.988786e+04  -4.661923e+04
   7.092187e+04  -1.176384e+05
   1.134977e+05  -1.206796e+03
  -4.546250e+04   1.315158e+05
  -1.750808e+05   6.518313e+04
  -5.634092e+04  -8.053364e+04
   1.237858e+05  -5.211858e+04
   6.320181e+04   8.657283e+04
  -1.371399e+05   7.086914e+04
  -1.470714e+05  -8.202611e+04
   1.131921e+04  -1.112122e+05
   1.768799e+04  -1.216148e+04
  -1.290804e+05  -6.263514e+04
  -5.139135e+04  -2.770713e+05
   3.297562e+05  -2.769614e+05
   5.404916e+05   1.043163e+05
   2.345804e+05   4.735817e+05
  -2.594625e+05   4.116829e+05
  -4.039155e+05   5.762309e+04
  -1.778815e+05  -1.541488e+05
   2.700316e+04  -1.123053e+05
   3.293620e+04  -3.967283e+04
   8.032491e+02  -3.985895e+04
   2.678361e+04  -4.561747e+03
   5.771060e+03   7.693489e+04
  -9.073418e+04   6.112168e+04
  -1.264885e+05  -6.751340e+04
  -5.255358e+04  -1.423291e+05
   1.233436e+04  -9.875492e+04
   1.849953e+04  -6.653955e+04
   6.707229e+04  -1.095734e+05
   1.794611e+05  -1.050806e+05
   2.102663e+05   2.044632e+04
   9.388423e+04   1.414741e+05
  -2.333656e+04   1.405894e+05
  -1.999769e+04   8.967342e+04
   1.135659e+04   9.145259e+04
  -4.704536e+04   9.454659e+04
  -1.211607e+05   1.751388e+04
  -8.436484e+04  -6.849184e+04
   1.053299e+04  -4.700273e+04
   1.947490e+04   4.066936e+04
  -5.556834e+04   6.055309e+04
  -9.320631e+04  -4.746937e+03
  -6.186114e+04  -6.210654e+04
  -3.348739e+04  -7.845950e+04
  -2.137498e+04  -9.705311e+04
   3.039728e+04  -1.110297e+05
   1.046020e+05  -6.730028e+04
   1.134974e+05   1.044333e+04
   5.441492e+04   3.822760e+04
   2.243188e+04   1.486783e+04
   4.865772e+04   2.146392e+04
   5.833041e+04   7.074678e+04
   1.572287e+04   8.656063e+04
  -2.098097e+04   5.096167e+04
  -2.623855e+04   3.691031e+04
  -5.558830e+04   5.941250e+04
  -1.132087e+05   3.194108e+04
  -1.021800e+05  -6.818284e+04
   1.325702e+04  -1.218934e+05
   1.113869e+05  -4.357308e+04
   7.652571e+04   7.498289e+04
  -3.530303e+04   9.678476e+04
  -9.600016e+04   2.672715e+04
  -8.593773e+04  -3.952505e+04
  -6.239803e+04  -7.422335e+04
  -2.389911e+04  -1.047201e+05
   5.969676e+04  -1.047550e+05
   1.318571e+05  -3.381464e+04
   1.082402e+05   5.020252e+04
   2.911935e+04   5.430560e+04
   1.084060e+04   1.124275e+04
   4.850490e+04   3.785599e+04
   1.616182e+04   1.277879e+05
  -1.103505e+05   1.328636e+05
  -1.808902e+05  -7.222915e+03
  -8.763225e+04  -1.525278e+05
   7.147818e+04  -1.533958e+05
   1.354666e+05  -4.341113e+04
   8.818120e+04   4.606726e+04
   2.343297e+04   7.306980e+04
  -1.823418e+04   8.149075e+04
  -6.104288e+04   7.632121e+04
  -9.015861e+04   2.284273e+04
  -5.879151e+04  -5.437889e+04
   1.081421e+04  -8.107706e+04
   3.826268e+04  -4.493761e+04
   6.080667e+03  -1.079540e+04
  -1.658503e+04  -1.447219e+04
   1.276449e+04  -1.818862e+04
   5.007944e+04   1.038568e+04
   4.295720e+04   4.292558e+04
   3.340989e+03   4.199731e+04
  -2.835964e+04   1.484901e+04
  -3.903086e+04  -1.213490e+04
  -3.275755e+04  -3.036981e+04
  -9.460554e+03  -3.642695e+04
   1.835340e+04  -2.100695e+04
   2.626948e+04   6.193679e+03
   1.843377e+04   1.554714e+04
   2.682309e+04   2.999706e+03
   4.861081e+04   2.267139e+03
   3.319463e+04   2.992847e+04
  -3.549732e+04   5.347576e+04
  -9.267465e+04   3.944128e+04
  -7.509307e+04   6.433664e+02
  -1.054820e+04  -3.096293e+04
   2.727664e+04  -4.613655e+04
   2.122267e+04  -4.548895e+04
   9.221875e+03  -2.065534e+04
   5.233418e+03   1.671407e+04
  -9.891975e+03   2.277060e+04
  -2.717162e+04  -1.764026e+04
  -1.018966e+04  -4.986647e+04
   3.377215e+04  -2.226942e+04
   4.865369e+04   2.686270e+04
   1.729438e+04   2.069121e+04
  -4.875303e+03  -3.244873e+04
   2.298522e+04  -4.296954e+04
   5.717787e+04   2.447963e+04
   3.247488e+04   9.393029e+04
  -3.950394e+04   8.527334e+04
  -8.449626e+04   1.631305e+04
  -6.085530e+04  -4.160851e+04
   2.085875e+03  -5.778349e+04
   5.061764e+04  -4.412043e+04
   5.368536e+04  -6.349234e+03
   1.066164e+04   4.696848e+04
  -4.962392e+04   7.187768e+04
  -7.747098e+04   2.875615e+04
  -4.432508e+04  -4.969557e+04
   1.795773e+04  -8.383896e+04
   4.715548e+04  -4.641511e+04
   2.455451e+04   7.071974e+03
  -7.229167e+03   1.628133e+04
  -4.529692e+03  -1.409993e+04
   2.772583e+04  -3.565341e+04
   5.557536e+04  -1.580251e+04
   5.688141e+04   3.793913e+04
   2.802097e+04   8.751888e+04
  -2.368752e+04   8.749868e+04
  -7.225976e+04   2.514427e+04
  -7.817695e+04  -5.144275e+04
  -2.917374e+04  -7.248186e+04
   3.281420e+04  -2.670778e+04
   5.053579e+04   2.536848e+04
   1.576758e+04   3.189498e+04
  -2.490373e+04   9.458607e+03
  -2.904256e+04  -1.379010e+02
  -4.675586e+03   3.613802e+03
   8.206853e+03  -4.700415e+03
  -1.060469e+04  -2.106851e+04
  -3.821880e+04  -2.054049e+04
  -3.499059e+04  -9.099201e+03
   9.609447e+03  -1.659400e+04
   6.020629e+04  -3.732145e+04
   7.000424e+04  -2.796686e+04
   3.242154e+04   2.123858e+04
  -1.200484e+04   5.911962e+04
  -2.502141e+04   4.352296e+04
  -1.305410e+04   2.216581e+03
  -7.926125e+03  -1.066598e+04
  -1.842192e+04   6.610452e+03
  -2.249519e+04   9.091054e+03
  -3.682389e+03  -2.085912e+04
   2.645753e+04  -4.568142e+04
   4.476483e+04  -2.491673e+04
   3.760839e+04   3.247364e+04
   3.536537e+03   7.880862e+04
  -4.517691e+04   7.470377e+04
  -7.772292e+04   1.992463e+04
  -6.314442e+04  -4.785077e+04
  -7.756150e+03  -7.998930e+04
   4.099959e+04  -5.657465e+04
   4.378469e+04  -6.054178e+03
   1.226484e+04   2.389348e+04
  -1.071747e+04   1.746072e+04
  -3.431659e+03   1.471164e+03
   1.756544e+04   4.315198e+03
   2.393993e+04   2.108125e+04
   3.044155e+03   2.705015e+04
  -3.431327e+04   1.069999e+04
  -5.756762e+04  -1.811082e+04
  -3.608398e+04  -4.113103e+04
   2.427933e+04  -4.110843e+04
   7.020807e+04  -1.015148e+04
   5.224994e+04   3.515726e+04
  -1.208972e+04   5.577201e+04
  -5.327361e+04   2.788422e+04
  -3.424478e+04  -2.243905e+04
   7.624763e+03  -4.182724e+04
   1.693796e+04  -1.167370e+04
  -8.570198e+03   2.866424e+04
  -2.788450e+04   2.940442e+04
  -1.820649e+04  -1.161609e+04
   4.964585e+03  -5.014375e+04
   2.130519e+04  -4.710595e+04
   2.726779e+04  -6.741328e+03
   2.220544e+04   3.378961e+04
   1.961623e+03   4.172789e+04
  -2.322516e+04   1.502687e+04
  -2.738363e+04  -1.962422e+04
  -1.211564e+03  -3.143951e+04
   2.895519e+04  -1.292303e+04
   3.066710e+04   1.443987e+04
   4.903357e+03   2.386469e+04
  -1.845572e+04   1.217112e+04
  -1.907954e+04   2.579441e+02
  -6.181704e+03   4.149314e+03
  -1.271513e+03   1.332411e+04
  -1.164952e+04   5.113374e+03
  -2.299533e+04  -2.262377e+04
  -1.435958e+04  -4.356725e+04
   1.731386e+04  -3.225865e+04
   4.575960e+04   4.810681e+03
   3.740287e+04   3.491582e+04
  -7.531681e+03   3.396873e+04
  -4.557656e+04   8.156054e+03
  -3.568968e+04  -1.882625e+04
   1.092219e+04  -2.989093e+04
   4.307425e+04  -2.162726e+04
   3.063730e+04   1.079696e+03
  -4.465275e+03   2.493176e+04
  -2.203638e+04   2.936739e+04
  -1.028703e+04   5.745544e+03
   1.135370e+04  -2.289052e+04
   2.122518e+04  -1.969746e+04
   1.232050e+04   1.841272e+04
  -1.029976e+04   4.680198e+04
