
 $NMID
 id='ANONYMOUS ', fmtdat='(2E16.6)'
 volume=1.0
 tramp=1.0
 $END
   5.127428e+07  -1.391449e+06
   3.199096e+07   3.024428e+07
  -5.249012e+06   3.468315e+07
  -2.448320e+07   1.473745e+07
  -1.548461e+07  -5.216641e+06
   2.410428e+06  -8.637117e+06
   9.101134e+06   3.546684e+05
   3.246589e+06   8.758709e+06
  -5.115168e+06   9.156056e+06
  -8.804579e+06   2.462885e+06
  -6.701725e+06  -5.558609e+06
  -9.926537e+05  -8.076311e+06
   3.687570e+06  -2.580043e+06
   2.683756e+06   5.241679e+06
  -3.218981e+06   6.464661e+06
  -7.329463e+06  -8.208376e+05
  -4.514969e+06  -9.250858e+06
   3.043639e+06  -1.102135e+07
   9.107762e+06  -5.698784e+06
   9.911696e+06   1.694161e+06
   6.062502e+06   6.690131e+06
   7.231790e+05   7.665933e+06
  -2.289810e+06   5.365096e+06
  -1.134699e+06   2.616026e+06
   1.400012e+06   2.409517e+06
   2.075635e+05   4.243732e+06
  -5.298996e+06   4.237383e+06
  -9.251657e+06   4.939787e+05
  -6.637678e+06  -3.830753e+06
  -8.291131e+04  -4.706128e+06
   3.705323e+06  -2.302948e+06
   2.320638e+06   2.632078e+05
  -9.320940e+05   1.173667e+06
  -2.591444e+06   4.527453e+05
  -2.205282e+06  -1.659131e+06
  -5.155047e+05  -3.928756e+06
   1.717665e+06  -3.541632e+06
   2.805692e+06   2.482098e+05
   1.407473e+06   3.308669e+06
  -6.902847e+05   1.488300e+06
  -2.205146e+05  -2.592068e+06
   2.325384e+06  -2.358119e+06
   2.436452e+06   2.820058e+06
  -1.835201e+06   5.698468e+06
  -6.077001e+06   1.195232e+06
  -4.811156e+06  -6.079487e+06
   1.406129e+06  -7.788551e+06
   6.737692e+06  -2.421918e+06
   6.729554e+06   3.927516e+06
   2.083334e+06   5.655449e+06
  -3.175357e+06   2.802948e+06
  -5.161053e+06  -1.147941e+06
  -2.581970e+06  -3.170929e+06
   2.080748e+06  -2.182731e+06
   4.247531e+06   6.379156e+05
   1.961063e+06   2.413488e+06
  -1.527173e+06   1.331181e+06
  -1.749134e+06  -8.933128e+05
   1.044828e+06  -1.020701e+06
   2.373080e+06   1.279203e+06
  -1.945061e+05   3.002267e+06
  -3.947481e+06   1.947581e+06
  -4.898044e+06  -8.989018e+05
  -2.333934e+06  -3.512497e+06
   1.602297e+06  -4.987710e+06
   4.760542e+06  -4.682196e+06
   5.868630e+06  -1.709804e+06
   4.308352e+06   2.961945e+06
   9.824697e+05   5.851765e+06
  -1.540735e+06   4.645947e+06
  -1.538126e+06   1.412428e+06
  -2.828697e+05   2.307266e+03
  -2.598983e+05   1.021476e+06
  -1.771119e+06   1.632194e+06
  -2.808337e+06   5.526530e+04
  -1.954440e+06  -2.059585e+06
   8.123532e+04  -2.216194e+06
   1.690740e+06  -2.036197e+05
   1.771358e+06   2.124366e+06
   2.309357e+04   2.934754e+06
  -2.703130e+06   1.598026e+06
  -4.285229e+06  -1.151514e+06
  -3.057955e+06  -3.518852e+06
  -2.199124e+04  -3.912453e+06
   2.023538e+06  -2.540884e+06
   1.988049e+06  -1.148989e+06
   1.696794e+06  -7.883378e+05
   2.862867e+06  -6.241527e+05
   4.305537e+06   5.804970e+05
   3.532509e+06   2.615169e+06
   2.528193e+05   4.096297e+06
  -3.110193e+06   3.960660e+06
  -4.144666e+06   2.156435e+06
  -2.634718e+06  -4.448610e+05
  -2.296023e+05  -2.250240e+06
   1.124856e+06  -1.909726e+06
   5.524023e+05   5.585265e+04
  -1.080548e+06   1.316760e+06
  -1.866626e+06   4.339574e+05
  -9.027715e+05  -1.161326e+06
   5.199381e+05  -1.128216e+06
   4.969564e+05   3.667905e+05
  -9.519895e+05   8.162750e+05
  -1.881792e+06  -1.020564e+06
  -9.199113e+05  -3.309590e+06
   1.245493e+06  -3.532048e+06
   3.009220e+06  -1.430038e+06
   3.449504e+06   1.208742e+06
   2.489796e+06   2.724159e+06
   5.647811e+05   2.668470e+06
  -1.231049e+06   1.505252e+06
  -1.592142e+06   2.473172e+05
  -4.948894e+05  -3.379864e+04
   3.802749e+05   7.418631e+05
  -3.579258e+05   1.330094e+06
  -1.851493e+06   6.253591e+05
  -2.038663e+06  -7.973256e+05
  -4.426187e+05  -1.378408e+06
   1.148776e+06  -6.149161e+05
   9.351140e+05   4.293821e+05
  -8.141189e+05   5.968847e+05
  -2.239054e+06  -1.990653e+05
  -1.865040e+06  -1.314010e+06
   1.574539e+05  -2.037255e+06
   2.280733e+06  -1.760689e+06
   2.783209e+06  -3.581057e+05
   1.248327e+06   1.218578e+06
  -8.686136e+05   1.498071e+06
  -1.522492e+06   2.222738e+05
  -2.096196e+05  -1.058482e+06
   1.494631e+06  -7.703559e+05
   1.746664e+06   7.232637e+05
   4.124072e+05   1.645406e+06
  -1.044324e+06   1.040304e+06
  -1.279443e+06  -2.419366e+05
  -2.955769e+05  -7.653491e+05
   7.789528e+05  -8.170352e+04
   7.578296e+05   1.032804e+06
  -5.499600e+05   1.437969e+06
  -2.004019e+06   5.841629e+05
  -2.063437e+06  -1.007971e+06
  -4.373699e+05  -2.067259e+06
   1.391765e+06  -1.684849e+06
   1.722528e+06  -2.668247e+05
   5.389785e+05   8.528632e+05
  -6.341236e+05   8.317119e+05
  -6.522316e+05   9.095503e+04
   9.479897e+04  -3.974734e+05
   5.142552e+05  -2.553040e+05
   1.773155e+05   7.167834e+04
  -4.248894e+05  -2.018360e+04
  -5.526047e+05  -6.246383e+05
   1.510674e+05  -1.190484e+06
   1.355268e+06  -9.412841e+05
   2.100351e+06   3.576953e+05
   1.518770e+06   1.912118e+06
  -1.566872e+05   2.444236e+06
  -1.590972e+06   1.483673e+06
  -1.724732e+06  -6.552061e+04
  -9.204357e+05  -9.013143e+05
  -3.465000e+05  -7.018669e+05
  -4.559711e+05  -2.421669e+05
  -6.032221e+05  -2.857576e+05
  -1.058940e+05  -7.425492e+05
   8.460897e+05  -9.334126e+05
   1.453257e+06  -3.814842e+05
   1.097990e+06   7.052042e+05
  -1.977424e+05   1.501421e+06
  -1.705944e+06   1.142038e+06
  -2.282768e+06  -4.227228e+05
  -1.209403e+06  -2.075795e+06
   9.283709e+05  -2.400899e+06
   2.508888e+06  -1.119773e+06
   2.392262e+06   5.746226e+05
   1.033937e+06   1.319831e+06
  -1.618303e+05   9.892327e+05
  -4.020432e+05   5.535977e+05
  -1.028608e+05   7.548582e+05
  -9.183785e+04   1.289000e+06
  -6.333082e+05   1.291665e+06
  -1.278076e+06   3.467065e+05
  -1.365505e+06  -1.054171e+06
  -6.045261e+05  -1.891545e+06
   5.921568e+05  -1.460438e+06
   1.294996e+06  -3.596978e+04
   8.565647e+05   1.256611e+06
  -3.364710e+05   1.410887e+06
  -1.134428e+06   4.614777e+05
  -8.300345e+05  -6.427452e+05
   7.052844e+04  -1.063168e+06
   4.867325e+05  -8.042290e+05
   6.178800e+04  -4.334064e+05
  -4.381473e+05  -3.332798e+05
  -6.622080e+04  -3.865672e+05
   1.137818e+06  -2.447843e+05
   2.066331e+06   2.742189e+05
   1.651723e+06   9.893898e+05
   1.827240e+04   1.428403e+06
  -1.545003e+06   1.180792e+06
  -1.825555e+06   3.402291e+05
  -8.578735e+05  -4.496289e+05
   2.374144e+05  -5.666757e+05
   5.065764e+05  -5.754069e+04
   3.419202e+04   4.072807e+05
  -4.463740e+05   2.668905e+05
  -4.901805e+05  -3.315762e+05
  -2.560799e+05  -7.250473e+05
  -9.265365e+04  -4.802518e+05
  -1.377080e+05   1.108982e+05
  -2.867538e+05   3.160602e+05
  -2.862958e+05  -2.244548e+05
   1.246632e+05  -1.001237e+06
   8.750603e+05  -1.092441e+06
   1.344959e+06  -2.015591e+05
   8.617976e+05   8.971979e+05
  -3.868365e+05   1.141479e+06
  -1.244619e+06   3.576589e+05
  -7.507752e+05  -5.616828e+05
   6.851999e+05  -6.738298e+05
   1.607201e+06   4.663369e+04
   1.054599e+06   8.386889e+05
  -4.468847e+05   1.020409e+06
  -1.500036e+06   5.412704e+05
  -1.259207e+06  -1.496969e+05
  -1.557540e+05  -5.175684e+05
   6.453038e+05  -2.946448e+05
   3.904502e+05   2.815516e+05
  -5.806546e+05   5.356679e+05
  -1.192374e+06  -5.770138e+04
  -6.984608e+05  -1.175167e+06
   5.580820e+05  -1.727486e+06
   1.475619e+06  -9.269639e+05
   1.286708e+06   7.321400e+05
   2.528173e+05   1.803142e+06
  -7.113270e+05   1.330936e+06
  -9.400197e+05  -1.468730e+05
  -4.734846e+05  -1.189819e+06
   1.881619e+05  -9.877786e+05
   5.627258e+05  -1.031836e+05
   4.852553e+05   3.693931e+05
   1.737721e+05   1.360707e+05
   4.459412e+04  -9.915607e+04
   2.835820e+05   2.864111e+05
   5.384717e+05   9.590386e+05
   2.278989e+05   1.083991e+06
  -7.037828e+05   4.195233e+05
  -1.501790e+06  -4.280620e+05
  -1.319401e+06  -8.086388e+05
  -2.068140e+05  -6.986631e+05
   8.522126e+05  -4.467681e+05
   9.890471e+05  -2.128884e+05
   3.632032e+05   4.138722e+04
  -1.413467e+05   2.315291e+05
  -2.746938e+04   2.095990e+05
   2.724886e+05   8.915460e+04
   5.418801e+04   1.329275e+05
  -6.626962e+05   2.570371e+05
  -1.056446e+06   1.960764e+04
  -4.557926e+05  -6.849912e+05
   8.144048e+05  -1.213532e+06
   1.691596e+06  -8.150360e+05
   1.436843e+06   3.918422e+05
   3.210775e+05   1.410708e+06
  -7.315909e+05   1.412248e+06
  -1.042533e+06   5.761664e+05
  -6.686959e+05  -2.137270e+05
  -1.465857e+05  -3.575159e+05
   6.819855e+04  -6.958998e+04
  -8.183446e+04   1.891147e+04
  -3.143205e+05  -3.623154e+05
  -2.742381e+05  -8.083175e+05
   1.589883e+05  -6.917017e+05
   6.910234e+05   9.861333e+04
   7.783451e+05   9.345135e+05
   1.538979e+05   1.037450e+06
  -7.497532e+05   2.781112e+05
  -1.069525e+06  -6.896720e+05
  -3.904071e+05  -1.088178e+06
   6.963946e+05  -7.104065e+05
   1.133313e+06   3.677769e+04
   5.592386e+05   6.028139e+05
  -2.671026e+05   6.975327e+05
  -3.737289e+05   3.850248e+05
   2.463215e+05  -2.579766e+02
   6.533315e+05  -6.197760e+04
   1.596779e+05   3.066824e+05
  -8.108103e+05   7.121317e+05
  -1.256859e+06   5.842652e+05
  -7.795837e+05  -1.566454e+05
   6.765922e+04  -8.823972e+05
   5.322899e+05  -8.847002e+05
   4.283683e+05  -1.812206e+05
   7.285743e+04   4.798415e+05
  -2.255509e+05   4.501828e+05
  -3.599726e+05  -1.321564e+05
  -2.770776e+05  -5.738545e+05
   3.701599e+04  -4.371614e+05
   3.963383e+05   2.948874e+04
   4.915949e+05   2.699988e+05
   2.483251e+05   9.187604e+04
  -4.242436e+04  -1.538695e+05
  -8.554494e+04  -4.847557e+04
   3.087359e+04   3.529412e+05
  -2.117938e+04   5.619122e+05
  -3.106358e+05   2.407307e+05
  -4.823704e+05  -3.602363e+05
  -1.903303e+05  -6.470002e+05
   3.981105e+05  -3.345789e+05
   6.841574e+05   2.545913e+05
   2.795035e+05   5.675355e+05
  -5.009541e+05   3.880677e+05
  -8.970465e+05  -4.189041e+04
  -4.989220e+05  -3.638963e+05
   2.819894e+05  -4.190385e+05
   6.383259e+05  -2.587587e+05
   2.568548e+05  -2.875406e+04
  -3.401272e+05   8.609331e+04
  -4.108213e+05  -4.280361e+04
   1.538032e+05  -2.956836e+05
   7.313347e+05  -3.008854e+05
