
 $NMID
 id='ANONYMOUS ', fmtdat='(2E16.6)'
 volume=1.0
 tramp=1.0
 $END
  -2.831328e+03  -8.293525e+01
  -1.852028e+03  -1.414026e+03
  -6.950589e+01  -1.763278e+03
   1.001073e+03  -1.117965e+03
   8.792782e+02  -3.129068e+02
   1.444172e+02   1.165530e+02
  -2.450178e+02  -4.774482e+01
  -2.119837e+01  -4.145420e+02
   3.852134e+02  -5.341221e+02
   5.048829e+02  -1.419614e+02
   3.347358e+02   4.049749e+02
   7.569865e+01   5.725034e+02
  -2.322142e+02   1.213206e+02
  -2.382144e+02  -3.456369e+02
   5.448093e+01  -4.730957e+02
   3.517258e+02  -9.343952e+01
   2.355363e+02   3.615894e+02
  -1.063606e+02   5.485486e+02
  -3.094500e+02   2.893930e+02
  -3.940682e+02  -1.637448e+02
  -1.234755e+02  -3.493724e+02
   4.132877e+01  -2.393846e+02
   5.289940e+01  -6.366416e+01
  -2.066933e+02  -1.038504e+02
  -2.185225e+02  -2.838334e+02
   7.657561e+01  -2.667009e+02
   4.214681e+02  -7.848591e+01
   5.104843e+02   2.150643e+02
   1.822462e+02   3.465857e+02
  -3.203517e+02   1.623252e+02
  -4.403068e+02  -1.990479e+02
  -1.367523e+02  -2.754889e+02
   2.010379e+02  -3.046685e+02
   3.379454e+02  -1.719122e+02
   3.032823e+02   8.744390e+01
   3.450820e+01   2.761877e+02
  -3.359457e+01   1.324494e+02
   8.733091e+01  -3.796649e+01
   1.700029e+02  -6.660471e+01
   1.176723e+02   1.856939e+02
  -3.821013e+01   3.942572e+02
  -2.304070e+02   3.784229e+02
  -3.159330e+02  -3.315206e+01
  -1.233133e+02  -2.174803e+02
   1.779487e+02  -1.303060e+02
   1.276468e+02   1.978590e+02
  -1.346504e+02   3.438640e+02
  -3.278797e+02   2.443333e+01
  -4.414857e+02  -3.931708e+02
  -1.127599e+02  -4.056647e+02
   2.489916e+02  -1.831368e+02
   4.397422e+02   6.393472e+01
   3.218379e+02   2.436112e+02
  -5.043604e+01   1.869667e+02
  -2.710272e+02   3.449207e+01
  -2.033679e+02   1.306224e+01
  -2.958169e+01   4.584853e+01
  -6.044399e+00   2.953395e+01
  -6.142130e+01   7.627938e-01
  -2.340340e+02  -4.763037e+01
  -8.237935e+01  -1.980795e+02
   1.213146e+02  -2.070969e+02
   3.193680e+02  -1.313050e+02
   2.633998e+02   1.190767e+02
  -2.541197e+01   3.087972e+02
  -2.787124e+02   3.127551e+02
  -3.010195e+02   1.064759e+02
  -1.928805e+02  -1.438493e+02
  -4.322734e+01  -2.986225e+02
   1.978609e+01  -2.813560e+02
  -3.455988e+01  -1.159757e+02
   2.243589e+00  -9.484616e+01
   1.332850e+02  -6.581079e+01
   1.993268e+02  -6.600787e+01
   1.849542e+02   1.626963e+02
   8.672179e+01   2.425372e+02
  -1.040631e+02   1.857670e+02
  -1.781934e+02  -4.246074e+01
  -7.862299e+01  -2.059691e+02
   7.019739e+01  -2.512958e+02
   2.644205e+02  -4.416990e+01
   2.279291e+02   1.834135e+02
   1.562157e+02   2.552860e+02
   1.686262e+01   2.374097e+02
  -2.062095e+02   1.105091e+02
  -8.999690e+01   1.708958e+01
  -1.333562e+02   6.312388e+01
  -2.697604e+02   2.705271e+01
  -3.326965e+02  -1.250422e+02
  -2.288865e+02  -2.797265e+02
   6.407802e+01  -3.865487e+02
   3.500107e+02  -4.153695e+02
   4.218989e+02  -9.612282e+01
   2.698722e+02   1.045062e+02
   4.865272e+00   2.041618e+02
  -1.103482e+02   1.574953e+02
   7.182059e+00  -2.943066e+01
   1.018202e+02  -6.956748e+01
   1.102642e+02   8.646703e+01
  -3.502177e+00   1.356876e+02
  -1.515336e+02   6.147442e+01
  -1.264619e+02  -4.687917e+01
   3.138699e+01  -1.135602e+02
   1.426278e+02   3.835551e+01
   1.050497e+02   2.378580e+02
  -2.133289e+01   3.357105e+02
  -1.952001e+02   2.088237e+02
  -3.406688e+02  -2.985082e+01
  -2.382847e+02  -2.017324e+02
   6.050194e+00  -1.993710e+02
   1.404424e+02  -1.668763e+02
   1.010380e+02   1.544284e+01
   2.947829e+01  -8.601401e+00
  -9.302683e+01  -7.843920e+01
  -6.459827e+01  -4.573907e+01
   1.334969e+02  -5.586551e+00
   1.444985e+02   4.814237e+01
   4.609265e+00   3.748710e+01
  -4.958509e+00   3.748429e+01
  -1.497659e+00  -5.208109e+01
   1.783168e+02  -1.115392e+02
   2.410610e+02  -9.615293e+00
   2.706308e+02   1.539741e+02
   2.172068e+01   2.168881e+02
  -1.737473e+02   2.180535e+02
  -2.290243e+02   7.646240e+01
  -1.036816e+02   3.271155e+01
  -4.142353e+00   1.238028e+01
   2.825338e+00  -1.346437e+01
  -3.032388e+01   8.592185e+01
  -2.584829e+02  -1.273212e+01
  -1.523954e+02  -1.400990e+02
  -7.584136e+01  -1.607548e+02
   8.632493e+01  -1.067216e+02
   9.337963e+01  -2.653366e+01
   3.351228e+01   7.767091e+01
  -1.199222e+02   1.036574e+00
  -1.204356e+01  -8.616781e+01
   7.147510e+01  -1.213816e+02
   1.859980e+02  -1.281343e+01
   8.748063e+01   1.404075e+02
  -4.305868e+01   1.719567e+02
  -1.705733e+02   1.522259e+02
  -1.361684e+02  -3.282944e+01
  -6.543569e+01  -1.148759e+02
   3.163719e+01  -9.165939e+01
   8.697070e+01  -7.880664e+01
   2.980937e+01  -1.585906e+01
  -6.085414e+01   6.766633e+00
   2.806632e+01   3.722450e+01
   7.390003e+01  -2.984904e+01
   9.692332e+01   3.045920e+01
  -5.968798e+00   1.371397e+02
  -1.145900e+02   1.456540e+02
  -2.169463e+02  -4.031260e+01
  -1.446254e+02  -1.560153e+02
  -3.930247e+01  -1.751505e+02
   9.135127e+01  -1.772838e+02
   1.088423e+02  -2.896562e+01
   1.205122e+02   6.035061e+01
   6.099024e+01   2.993261e+01
   5.125924e+01   3.373371e+01
   7.150502e+01  -1.133051e+01
  -1.148926e+01   2.047446e+01
   2.365515e+00   1.105522e+02
  -5.438160e+01   2.659130e+01
  -1.195976e+02  -5.324620e+01
   2.762012e+01  -1.560697e+02
   1.555870e+02  -1.033860e+02
   1.709467e+02   8.481352e+01
   3.815873e+01   2.502750e+02
  -8.735245e+01   1.658522e+02
  -2.493779e+02   3.106257e+01
  -2.603029e+02  -6.174652e+01
  -9.870128e+01  -1.434479e+02
   8.321944e+01  -1.219572e+02
   4.100581e+01   1.656410e+01
   9.100171e+01  -6.880944e+01
   7.919348e+01  -4.811219e+01
   1.305473e+02  -1.318752e+01
   1.489355e+02   3.285394e+01
   9.683652e+01   9.980072e+01
  -1.503418e+01   2.051776e+02
  -1.324688e+02   1.246655e+02
  -1.075613e+02   2.988782e+01
  -1.038020e+02  -1.254138e+02
   2.714171e+01  -2.023656e+02
   8.497522e+01  -1.017947e+02
   1.439204e+01  -2.420177e+01
   5.040978e+00   5.913225e+01
  -1.122416e+01   2.048343e+01
  -1.470906e+01   2.565203e+01
   1.134083e+02  -9.695782e+00
   4.946489e+01   4.045082e+01
  -4.653955e+01  -2.409810e+01
  -1.749302e+02  -4.704059e+01
  -1.856382e+02  -5.817651e+01
  -1.539392e+01  -1.020155e+02
   1.626692e+02  -5.717261e+01
   1.240907e+02  -2.152375e+01
   3.388004e+01   2.664827e+01
  -7.659564e+01   8.042219e+01
  -1.866867e+01  -5.249156e+01
  -6.880656e+00  -3.593967e+01
   3.642714e+01  -1.439227e+02
  -1.238176e+01  -3.088410e+01
   4.056909e+01   3.903798e+01
   3.794347e+01   2.846651e+01
   1.648148e+00  -5.566180e-01
   9.032796e+01  -1.596058e+01
   6.898343e+01   7.172189e+01
   4.182900e+00   1.618397e+02
  -1.322505e+02   1.825612e+02
  -1.217910e+02   2.361950e+01
  -1.173499e+02  -9.452906e+01
  -1.276314e+01  -1.423959e+02
   1.106368e+02  -4.851460e+01
  -8.308648e+00  -2.737046e+01
  -4.737141e+01   5.645458e+01
  -1.658112e+02  -2.303036e+01
  -8.843932e+01  -6.357410e+01
   7.741217e+01  -6.339493e+01
   1.778772e+02  -1.246660e+00
   1.047671e+02   5.253643e+01
   2.600232e+01   3.067762e+01
  -5.248556e+01   2.991962e+01
  -5.838390e+01  -1.619951e+01
   3.395358e+01  -4.624456e+00
   9.332965e+01  -4.483811e+00
   4.193893e+01   1.244806e+02
  -7.266256e+01   7.206097e+01
  -1.093491e+02   3.958220e+01
  -1.442230e+02  -7.612963e+01
  -3.919341e+01  -1.569849e+02
   4.904835e+01  -7.749405e+01
   1.160970e+02  -6.537955e+00
   4.594834e+01   7.725811e+01
   2.565415e+01   3.709785e+01
  -1.011609e+01   2.537174e+01
  -4.705516e+01  -7.140919e+01
  -5.791844e+01  -4.450237e+01
  -2.966051e+01   5.546639e+01
  -1.010384e+02  -1.487991e+01
  -6.417809e+01  -1.359662e+02
  -1.136132e+01  -1.238443e+02
   1.034022e+02  -7.678033e+01
   1.229066e+02   6.459345e+01
   1.456684e+02   5.874480e+01
  -2.381417e+01   4.193093e+01
  -1.166949e+02   2.754632e+01
  -7.061955e+01   3.119309e+01
  -3.803271e+01   1.656064e+01
   8.476925e+01   3.684574e+01
   3.038429e+01   2.907337e+01
  -6.480033e+01  -3.285098e+01
   1.133957e+01   4.604715e+01
   4.267666e+01   3.336342e+01
   1.227665e+02   5.245593e+01
  -1.788047e+01   1.090921e+02
  -1.173906e+02   1.024186e+02
  -1.723696e+02   3.554222e+01
  -1.058919e+02  -8.179031e+01
  -4.899257e+01  -9.567910e+01
   1.214728e+02  -1.318216e+02
   7.987096e+01  -5.355885e+01
   7.917083e+01  -2.509756e+00
   6.620550e+01   8.987914e+01
  -3.899396e+01   4.073743e+01
   1.143892e+02  -6.878490e+00
   1.974858e+01  -1.236614e+01
  -1.229471e+01   3.678456e+01
  -2.727264e+01   9.432319e+01
  -5.739288e+01  -5.257509e+01
  -9.028456e+01  -8.324951e+01
  -2.788352e+01  -7.649122e+01
   6.146131e+01  -1.016666e+02
   1.420348e+02   1.733139e+01
   8.087180e+01   7.710809e+01
  -1.110898e+01   8.216958e+01
  -6.111354e+01   1.081704e+01
  -7.668363e+01  -3.282429e+01
   3.815461e+01  -1.061151e+02
   4.555442e+01  -2.860117e+01
  -7.476045e+01  -6.745954e+00
   8.943703e+00  -2.220539e+01
  -2.042513e+01  -3.054461e+01
   6.880508e+01  -6.706265e+01
   7.870190e+01  -5.486559e+01
   1.064104e+02   5.774354e+00
  -4.701131e+01   1.018018e+02
  -4.830588e+01   6.401993e+01
  -8.974973e+01  -7.659271e+01
  -6.854464e+01  -1.088602e+02
  -1.996802e+01  -3.900418e+01
   1.008893e+01   2.432168e+00
   7.482918e+01   8.164683e+01
   3.198755e+01   9.032048e+01
  -1.809589e+01   5.870553e+00
   8.933717e+00   9.428874e-02
   1.628965e+01   1.184760e+01
   4.506140e+01   3.343701e+01
   2.227404e+01   1.849407e+01
   1.180126e+01   2.211981e+01
   6.069853e-01  -1.032898e+02
  -6.371203e+00  -8.632521e+01
  -7.427002e+00   4.887547e+01
   2.048030e+01   7.918183e+01
  -4.550810e+01   1.425905e+01
  -4.648322e+01  -5.720550e+01
  -6.671403e+01   4.118591e+00
   3.222002e+01  -1.078152e+01
   9.446129e+01   1.787242e+01
   3.133905e+00   3.881882e+01
  -1.256071e+01   2.365563e+01
  -7.157695e+01   1.850480e+01
  -9.800957e+01  -8.371697e+00
   4.006242e+01  -8.736410e+01
   6.481388e+01  -4.560664e+01
  -2.107347e+01   4.724377e+01
  -1.183864e+02   1.885098e+01
