
 $NMID
 id='ANONYMOUS ', fmtdat='(2E16.6)'
 volume=1.0
 tramp=1.0
 $END
   3.298257e+03  -9.859382e+01
   2.207066e+03   1.662036e+03
   5.843883e+01   2.041781e+03
  -1.215834e+03   1.211968e+03
  -9.397575e+02   1.674430e+02
   1.262579e+01  -2.437249e+02
   4.535641e+02   9.792483e+01
   5.211150e+01   5.393550e+02
  -4.480212e+02   5.839231e+02
  -5.960661e+02   6.801068e+01
  -4.117746e+02  -4.737468e+02
   4.047132e+01  -5.803159e+02
   2.969472e+02  -1.998848e+02
   2.189405e+02   4.072875e+02
  -3.902047e+01   5.777062e+02
  -4.899977e+02   9.000615e+01
  -2.912973e+02  -4.507224e+02
   1.297411e+02  -6.555864e+02
   4.576442e+02  -2.615339e+02
   4.166937e+02   1.243976e+02
   8.908785e+01   3.664361e+02
  -1.199155e+02   2.424636e+02
  -3.727134e+01   4.994709e+01
   1.939075e+02   5.821939e+01
   2.988170e+02   2.027900e+02
   7.456757e+01   3.485864e+02
  -4.368399e+02   1.787294e+02
  -6.220746e+02  -1.638956e+02
  -2.339370e+02  -3.383711e+02
   2.996845e+02  -2.067841e+02
   5.058750e+02   5.576490e+01
   2.663925e+02   4.039334e+02
  -2.413498e+02   3.444121e+02
  -4.245450e+02   8.817768e+01
  -3.326016e+02  -1.577021e+02
  -5.177449e+01  -2.961472e+02
   1.174608e+02  -1.692366e+02
   6.177787e-01   1.074532e+02
  -1.935260e+02   2.014880e+02
  -1.772351e+02  -1.241403e+02
  -9.950371e+00  -5.353079e+02
   2.752697e+02  -4.343304e+02
   3.319612e+02   1.615361e+01
   1.016915e+02   3.457550e+02
  -2.001791e+02   1.804559e+02
  -1.967984e+02  -2.937654e+02
   1.424707e+02  -4.198403e+02
   4.250875e+02  -6.731800e+01
   5.383327e+02   4.067017e+02
   1.485881e+02   4.977777e+02
  -2.933506e+02   2.725698e+02
  -5.029298e+02  -4.102105e+01
  -3.285822e+02  -3.128099e+02
  -2.842845e+01  -2.622023e+02
   2.887295e+02  -7.159734e+01
   2.479846e+02   6.272420e+01
   1.647773e+01   1.271481e+01
  -6.688150e+01  -9.244942e+01
   1.399659e+02  -7.671886e+01
   2.476686e+02   4.085137e+01
   1.231382e+02   1.841354e+02
  -1.584251e+02   2.525760e+02
  -3.502355e+02   1.473565e+02
  -2.605743e+02  -6.051591e+01
   2.236062e+01  -3.312209e+02
   2.525844e+02  -3.885982e+02
   4.020760e+02  -1.874671e+02
   2.265552e+02   1.444300e+02
   4.912475e+01   2.634969e+02
  -3.076624e+01   3.192287e+02
  -2.108936e+01   2.176538e+02
  -2.304534e+01   1.026127e+02
  -1.153407e+02   1.933770e+02
  -2.221661e+02   5.342427e+01
  -2.717414e+02  -1.024187e+02
  -1.098716e+02  -2.503918e+02
   1.299104e+02  -1.960146e+02
   2.070829e+02   4.482164e+01
   8.173212e+01   2.225563e+02
  -3.969359e+01   2.440056e+02
  -2.549505e+02   5.716517e+01
  -3.376887e+02  -1.284022e+02
  -1.452937e+02  -2.799295e+02
   4.101875e+01  -2.426914e+02
   1.253154e+02  -1.593630e+02
   1.488004e+02  -1.301762e+02
   1.366161e+02  -2.960368e+01
   2.773447e+02  -1.845745e+01
   4.347684e+02   5.535731e+01
   3.031530e+02   3.152568e+02
   4.492640e+01   4.342546e+02
  -3.641934e+02   4.173813e+02
  -4.254131e+02   2.171530e+02
  -2.986657e+02  -7.882706e+01
   1.316860e+01  -2.192431e+02
   1.130515e+02  -1.494154e+02
  -2.167952e+01  -5.675653e+01
  -8.787144e+01   3.093690e+00
  -1.323663e+02  -1.273536e+01
  -4.274690e+01  -2.034339e+02
   7.085078e+01  -7.724529e+01
   7.926595e+01   4.239569e+01
  -2.586043e+01   1.469133e+02
  -1.608851e+02  -1.420648e+00
  -9.603484e+01  -2.696603e+02
   4.720067e+01  -3.737041e+02
   1.935458e+02  -1.827223e+02
   4.023661e+02   5.406452e+01
   3.011576e+02   2.406211e+02
   6.392314e+01   2.903346e+02
  -1.411257e+02   1.719429e+02
  -1.674388e+02  -2.332814e+01
   7.918803e+00  -1.217778e+00
   7.036624e+01   1.185651e+02
  -3.594730e+00   1.566137e+02
  -1.563374e+02   9.824427e+01
  -1.051181e+02  -7.946321e+01
  -9.249178e+00  -2.240664e+01
   8.185640e+01   7.054508e+00
   1.837227e+01   8.192274e+01
  -1.312218e+02   6.148190e+01
  -2.795279e+02  -6.085593e+01
  -2.563518e+02  -2.149895e+02
  -6.550765e+01  -2.630928e+02
   1.648757e+02  -2.195813e+02
   2.726758e+02  -1.187674e+02
   1.122128e+02   3.557032e+01
  -1.919998e+01   9.067729e+01
  -5.436204e+01  -4.826086e+01
   3.964787e+01  -4.035268e+01
   1.996480e+02  -7.924218e+01
   2.239870e+02   1.235863e+02
   5.263830e+01   2.247534e+02
  -1.264406e+02   2.005531e+02
  -1.687857e+02   1.492335e+01
   8.717545e-01  -6.736898e+01
   9.974409e+01  -5.205722e+00
   6.678839e+00   6.514018e+01
  -7.589886e+01   1.063310e+02
  -1.673219e+02  -6.183934e+00
  -1.802896e+02  -1.789922e+02
   1.067167e+01  -1.957425e+02
   1.309280e+02  -1.394303e+02
   1.404233e+02   2.350069e+01
   3.971946e+01   1.002630e+02
  -6.696733e+01   1.340015e+02
  -3.239297e+01   3.408905e+00
  -1.238113e+00  -7.129004e+01
   4.131827e+01  -5.360834e+01
   1.855892e+01   2.707534e+01
  -9.437526e+01  -6.372879e+00
  -1.317126e+02  -3.782023e+01
  -1.696568e+01  -1.468578e+02
   1.255341e+02  -1.318758e+02
   2.085835e+02  -1.990866e+01
   1.701550e+02   1.939902e+02
   3.088295e+01   2.673909e+02
  -8.928736e+01   9.599133e+01
  -7.089787e+01   3.443925e+01
  -8.399656e+01  -4.750358e+01
  -1.506271e+01  -5.109609e+01
  -9.175880e+01   2.149078e+01
  -3.058550e+01   4.850315e+01
  -9.857374e+01  -4.850858e+01
   4.188935e+01  -6.413778e+01
   1.452930e+02  -1.253426e+02
   1.481492e+02   4.577695e+01
  -5.110718e+01   1.889425e+02
  -7.595415e+01   6.144201e+01
  -2.147665e+02  -7.176962e+01
  -6.441119e+01  -1.924466e+02
   1.371270e+02  -2.563667e+02
   2.879350e+02  -9.629009e+01
   2.117631e+02   5.337402e+01
   9.770657e+01   1.842875e+02
  -3.661461e+01   1.619057e+02
  -1.023154e+02   7.330629e+01
  -2.567151e+01   6.928602e+01
  -5.675222e+01   8.719730e+01
  -5.716196e+01   1.223199e+02
  -1.599699e+02  -3.183151e+01
  -7.980514e+01  -1.448472e+02
  -3.193068e+01  -2.833220e+02
   1.074966e+02  -1.599930e+02
   1.731477e+02  -2.762304e+01
   1.027626e+02   1.161519e+02
  -5.490083e+00   1.675598e+02
  -5.569796e+01   9.696618e+01
  -6.128221e+01   1.482640e+01
   5.210002e+01  -4.398530e+01
   3.824659e+01  -5.634834e+01
  -9.801363e+01  -5.542380e+01
  -7.396940e+01  -5.011509e+01
  -4.633581e+00  -4.393796e+01
   1.221830e+02  -5.463101e+00
   1.534483e+02   2.113055e+01
   1.382748e+02   9.367471e+01
   2.984258e+01   6.287872e+01
  -1.899863e+02   1.186710e+02
  -1.299627e+02   1.305020e+01
  -5.588619e+01  -1.689871e+01
   4.856057e+01  -4.819914e+01
   5.037355e+01   3.519640e+01
   4.809702e+01   8.669377e+01
  -3.458484e+01  -5.507536e+00
  -6.989911e+01  -5.225974e+01
  -3.679583e+01  -2.075011e+01
  -2.608833e+01  -2.076121e+01
  -8.755717e+01   3.563324e+01
  -6.015481e+01  -2.889009e-01
  -7.996001e+01  -3.581325e+01
   3.904683e+01  -1.632911e+02
   1.689207e+02  -1.086139e+02
   2.576084e+02  -3.580273e+01
   1.629327e+02   7.794233e+01
   1.537324e+01   1.222531e+02
  -1.013225e+02   5.850442e+01
  -3.984374e+01  -1.531544e+01
   4.200101e+01   3.097255e+00
   1.357431e+02   6.304366e+01
   1.008197e+02   1.831685e+02
  -1.260589e+02   1.116449e+02
  -1.721099e+02   5.971420e+01
  -1.386261e+02  -1.506169e+01
  -3.492867e+01  -4.917599e+01
   8.803543e+00  -5.821848e+01
   3.649491e+01  -5.535405e+01
  -8.893881e+00   3.564506e+01
  -1.236118e+02   1.930243e+01
  -6.069072e+01  -1.275326e+02
   7.518648e+01  -1.489562e+02
   1.107199e+02  -6.342406e+01
   8.011559e+01   7.861723e+01
   2.921034e+01   2.052496e+02
  -9.869758e+01   1.954425e+02
  -1.023916e+02   1.752858e+01
  -6.513365e+00  -9.257356e+01
   2.694247e+01  -6.902587e+01
   7.368246e+01   1.526394e+01
   1.964882e+01   1.331396e+01
  -1.610057e+01   3.165996e+01
   5.499102e+00   2.919726e+01
   2.087361e+01   6.317489e+01
   6.245119e+01   1.199793e+02
   3.691892e+01   2.534693e+01
  -4.981283e+01   4.520417e+01
  -1.130429e+02  -3.479140e+01
  -1.892766e+02  -5.749795e+01
  -2.208082e+01   1.640493e+01
   4.966796e+01   7.609056e+00
   5.681308e+01   2.583629e+00
   3.100182e+01  -5.404758e+00
  -7.571695e+01   3.890924e+01
  -2.608809e+01  -4.377603e+01
   9.547705e+01   2.559232e+01
   5.100214e+01  -4.862279e+01
  -7.102390e+01  -6.828248e+00
  -7.116960e+01  -4.810595e+01
   3.365707e+00  -9.349920e+01
   1.260722e+02  -7.070075e+01
   1.993129e+02  -1.268747e+02
   1.498855e+02   1.144645e+02
   7.510827e+01   1.175327e+02
  -7.902619e+01   1.775090e+02
  -9.619814e+01   6.933498e+01
  -5.330518e+01   4.988300e+00
  -1.035246e+01  -4.178780e+01
  -1.643768e+01  -2.946662e+01
   6.851009e+00  -2.694243e+00
  -7.001290e+01  -5.962951e+01
   1.955736e+01  -1.039095e+02
   4.040936e+00  -1.358330e+02
   7.262872e+01  -8.994637e+00
   7.544132e+01   7.276451e+01
   4.312132e+01   1.368035e+02
  -3.663817e+01   3.092283e+01
  -1.079699e+02  -5.944905e+01
  -6.643309e+01  -7.007065e+01
   9.164099e+01  -8.939529e+01
   1.534942e+02  -4.124887e+01
   1.488032e+00   1.107445e+02
  -2.015163e+01   6.299984e+01
  -5.947131e+01   1.378217e+01
  -2.306827e+01  -3.010809e+01
   4.635146e+01   2.744010e-01
   2.317530e+01   6.534224e+01
  -4.025968e+01   4.020432e+01
  -1.277665e+02   8.626584e+01
  -8.997003e+01   4.596431e+00
   5.487790e+00  -4.615068e+01
   3.964457e+01  -1.173575e+02
   3.764672e+01  -1.501763e+01
   4.056937e+01   1.175585e+01
  -5.583626e+01   3.209195e+01
  -2.624285e+01  -3.954615e+01
   9.455574e+00  -6.929606e+01
  -1.006881e+01  -5.188914e+01
   4.750692e+01   7.263653e+00
   5.880632e+01   4.356183e+01
   2.601638e+01  -7.554459e+00
   3.654229e+01  -3.254399e+01
  -3.791960e+00   1.863892e+01
  -5.618085e+01   2.150572e+01
  -2.428039e+01   5.935050e+01
  -5.211679e+01   3.409517e+01
  -4.989268e+01  -1.200223e+01
  -3.928637e+01  -1.358751e+02
   7.175497e+01  -2.801283e+01
   7.809383e+01  -2.411475e+01
   1.181766e+01   1.253450e+01
  -5.717895e+01   8.993379e+01
  -8.500193e+01  -2.601372e+01
  -3.591456e+01  -2.111612e+01
   3.449567e+01  -8.979025e+01
   1.004224e+02  -4.500294e+01
   1.884790e+01  -2.959092e+01
  -4.237209e+00   1.228567e+01
  -1.426797e+01   5.583185e+01
   1.121310e+01  -2.445446e+01
   7.679038e+01   6.243449e+01
