
 $NMID
 id='ANONYMOUS ', fmtdat='(2E16.6)'
 volume=1.0
 tramp=1.0
 $END
   3.033888e+03  -1.169366e+02
   1.892853e+03   1.621912e+03
  -2.244861e+02   1.929164e+03
  -1.399434e+03   8.844236e+02
  -8.085440e+02  -2.087350e+02
   2.764373e+02  -3.435989e+02
   5.220682e+02   1.405310e+02
   3.646495e+01   6.334826e+02
  -5.468181e+02   5.531217e+02
  -6.737185e+02   1.456907e+01
  -3.831177e+02  -5.041641e+02
   6.736944e+01  -6.425827e+02
   4.165654e+02  -1.622191e+02
   2.666088e+02   4.759912e+02
  -1.354008e+02   5.773142e+02
  -4.069349e+02   5.160821e+01
  -1.406085e+02  -5.027586e+02
   1.229323e+02  -4.899027e+02
   4.047906e+02  -2.266089e+02
   4.407140e+02   1.925710e+02
   8.374958e+01   3.411599e+02
  -1.185749e+02   2.012334e+02
  -1.268192e+02   5.238988e+01
   1.370001e+02  -1.546052e+01
   2.690654e+02   1.525346e+02
   9.554732e+01   3.139493e+02
  -4.374554e+02   2.368300e+02
  -5.801066e+02  -3.028319e+01
  -2.669150e+02  -3.854127e+02
   2.881419e+02  -3.046065e+02
   4.318408e+02   3.796340e+01
   2.036847e+02   3.408566e+02
  -1.941910e+02   2.851679e+02
  -3.651739e+02   1.668508e+02
  -3.121297e+02  -1.203920e+02
  -1.077270e+02  -3.796908e+02
   6.849424e+01  -1.729982e+02
   6.188983e+01   5.562032e+01
  -1.394687e+02   2.377659e+02
  -2.774633e+02  -5.865343e+01
  -1.190044e+02  -3.911178e+02
   1.742875e+02  -3.938002e+02
   3.173295e+02  -4.091295e+01
   1.324193e+02   3.137281e+02
  -2.385900e+02   2.001582e+02
  -2.346998e+02  -2.083517e+02
   1.059457e+02  -3.876416e+02
   3.754738e+02  -8.842499e+01
   4.083845e+02   3.144049e+02
   1.650653e+02   4.643297e+02
  -2.888895e+02   2.542977e+02
  -4.444828e+02  -5.125799e+01
  -2.979469e+02  -2.628239e+02
   5.150700e+01  -2.418370e+02
   3.149758e+02  -6.709501e+01
   1.846625e+02   3.703200e+01
  -3.459095e+01  -1.007602e+01
  -8.791244e+01  -4.627271e+01
   3.876915e+01  -5.399695e+01
   2.048427e+02   9.684236e+01
   7.270273e+01   1.521653e+02
  -1.431720e+02   2.415193e+02
  -2.630328e+02   4.035024e+01
  -1.636829e+02  -7.750992e+01
   6.099920e+01  -2.280458e+02
   1.969246e+02  -2.311469e+02
   2.818298e+02  -1.589209e+02
   1.972629e+02   1.230066e+02
   7.446796e+01   2.866201e+02
  -8.761433e+01   2.781136e+02
  -5.594448e+00   1.502160e+02
  -4.168024e+01  -2.825716e+01
  -5.479933e+00   6.216714e+01
  -1.712790e+02   5.890247e+01
  -2.178616e+02  -9.862110e+01
  -1.016678e+02  -2.053539e+02
   1.209724e+02  -1.815616e+02
   1.499681e+02   7.143690e+00
   1.193396e+02   1.668747e+02
  -4.270127e+00   2.242683e+02
  -1.890258e+02   3.494044e+01
  -2.394024e+02  -9.553234e+01
  -1.373038e+02  -2.394760e+02
   4.235273e-01  -2.177870e+02
   1.285470e+02  -1.429280e+02
   9.510625e+01  -9.108960e+01
   1.405175e+02  -7.902050e+00
   2.025946e+02  -5.859512e+01
   3.518405e+02   1.316285e+01
   2.560936e+02   2.156110e+02
  -4.385426e+01   3.203078e+02
  -2.663862e+02   3.022964e+02
  -3.703903e+02   8.777505e+01
  -2.054542e+02  -6.797860e+01
  -6.146398e+01  -2.411456e+02
   8.953884e+01  -1.293519e+02
   6.264601e+00  -4.998881e+01
  -1.009706e+02   8.828789e+01
  -1.086336e+02  -3.410177e+01
  -2.181522e+01  -1.810087e+02
   1.110788e+02  -1.659310e+02
   1.258215e+02   3.623797e+01
   2.069057e+01   1.195940e+02
  -1.463263e+02   2.680039e+01
  -7.952776e+01  -1.652137e+02
   3.447230e+01  -2.183717e+02
   1.861240e+02  -1.700425e+02
   1.757706e+02   5.356888e+01
   2.622898e+02   1.556959e+02
   4.063228e+01   1.567237e+02
  -1.040521e+02   1.248867e+02
  -1.598860e+02  -5.636056e+00
  -6.778775e+00  -4.927658e+01
   3.755953e+01   6.271294e+01
  -9.664406e+00   1.216754e+02
  -6.501517e+01   1.156338e+02
  -1.093677e+02  -9.929806e+00
  -4.918347e+01  -2.128944e+01
   4.142494e+01  -1.833968e+01
   6.958851e+00   2.754942e+01
  -9.493642e+01   7.957578e+01
  -1.546557e+02  -3.710702e+01
  -2.847473e+02  -9.443473e+01
  -2.661700e+01  -2.371316e+02
   1.733443e+02  -2.613839e+02
   2.222448e+02  -1.259027e+02
   1.147273e+02   6.068069e+01
   5.293922e+00   3.346303e+01
  -7.714549e+01  -5.185682e+01
  -7.409822e+00  -1.202296e+02
   1.703943e+02  -1.409051e+01
   1.802733e+02   7.656107e+01
   5.323277e+01   7.624843e+01
  -2.228823e+01   1.509750e+02
  -1.332004e+02   2.393446e+01
  -4.114921e+01  -5.191847e+01
  -5.090943e+00  -7.909835e+00
   7.553663e+01   7.725673e+01
  -5.719200e+01   1.427334e+02
  -1.457263e+02   3.928321e+01
  -1.397975e+02  -8.350050e+01
  -1.231552e+01  -1.801471e+02
   1.477919e+02  -1.496543e+02
   1.045252e+02  -3.942086e+01
   7.796088e+01   7.799627e+01
  -2.145567e+01   6.408752e+01
  -7.169878e+01   2.488836e+01
   2.641449e+01  -1.353118e+01
   5.489736e+01  -1.512249e+01
   2.896771e+01  -1.293839e+01
  -5.089146e+01  -6.562830e+01
  -1.049469e+02  -1.170452e+02
  -2.439803e+01  -1.279599e+02
   5.209640e+01  -3.961392e+01
   1.489512e+02  -5.279264e+00
   1.953459e+02   7.297700e+01
   8.860146e+00   2.036046e+02
  -6.349748e+01   1.669019e+02
  -9.431700e+01   4.590790e+01
  -4.043082e+01   6.453701e+01
  -4.740815e+00  -2.596921e+01
  -3.505603e+01   4.726110e+01
  -1.619353e+01   3.512415e+01
  -5.055649e+00  -1.440038e+01
   6.911177e+01  -7.423925e+01
   1.349950e+02  -8.833686e+01
   5.373838e+01   7.526892e+01
   1.372503e+01   1.451851e+02
  -1.058152e+02   5.146735e+01
  -1.314747e+02   5.982412e+00
  -1.021734e+02  -2.025758e+02
   2.425519e+01  -2.203859e+02
   2.287822e+02  -1.412342e+02
   2.096042e+02   4.528615e+01
   1.239985e+02   9.387199e+01
  -5.481594e+01   1.082731e+02
  -1.222011e+02   1.080840e+02
  -4.835396e+01   1.038645e+02
  -5.701443e+01   5.528903e+01
  -1.914034e+01   6.842651e+01
  -1.172767e+02  -1.657578e+01
  -1.543258e+02  -1.715563e+02
  -5.973902e+01  -2.295400e+02
   9.576453e+01  -1.194186e+02
   1.516962e+02  -3.184123e+01
   1.098534e+02   1.035326e+02
   4.532419e+00   1.049915e+02
  -5.550399e+01   7.189700e+01
  -5.736801e+01   2.601543e+01
   9.793266e-01  -9.603483e+01
   2.786508e+01  -1.230844e+01
  -4.260354e+01  -4.973127e+01
  -2.942162e+01  -3.201942e+00
  -2.211372e+01   3.568603e+00
  -2.361943e+00  -4.489556e+01
   1.172958e+02   2.608868e+01
   8.442020e+01   8.913840e+01
  -3.188963e+00   1.063028e+02
  -7.274536e+01   9.665680e+01
  -9.496226e+01   1.374101e+01
  -2.761134e+01  -8.890300e+01
   6.649987e+01  -1.234543e+01
   1.769006e+01   4.552969e+01
  -2.287599e+01   3.580541e+01
  -5.257202e+01   9.100001e+01
  -7.035953e+01  -4.566797e+01
   6.563587e+01  -5.728859e+01
  -4.243300e+01  -5.705191e+01
  -8.989019e+01  -9.025529e+00
  -1.052723e+02   5.875256e+01
  -1.533605e+01  -6.770782e+01
  -1.950165e+00  -1.152642e+02
   1.207077e+02  -9.385538e+01
   1.074175e+02   3.513738e+01
   7.987206e+01   1.261016e+01
  -4.047702e+01   1.267000e+02
  -8.283245e+01   8.644578e+00
  -6.187467e+01  -5.140702e+01
   1.804184e+01  -5.331105e+01
   7.144935e+01  -5.732685e+00
   5.686569e+01   1.003779e+02
  -8.206429e+01   1.110771e+02
  -1.426989e+02   4.405434e+01
  -1.143503e+02  -4.523639e+01
  -7.247986e+01  -6.184637e+01
   6.172552e+01  -2.876641e+01
   4.713063e+01  -5.424682e+01
  -1.005435e+02   9.920854e+01
  -4.745047e+01  -1.815632e+01
   1.396796e+01  -1.210332e+02
   1.193539e+02  -1.414052e+02
   1.011132e+02  -6.412290e+01
   1.366373e+02  -1.315359e-01
   2.868501e+01   1.951173e+02
  -1.357033e+01   9.344185e+01
  -8.679382e+01   3.136355e+01
  -3.247785e+01  -7.208208e+01
   4.647920e+01  -8.562035e+01
   1.501501e+01  -1.056102e+02
   7.539568e+01  -4.038756e-01
   1.845765e+01  -2.699959e+01
  -2.727458e+01  -1.889786e+01
   6.561445e+01  -7.743526e+00
   9.706619e+01   3.633896e+01
   1.069114e+01   7.334437e+01
  -2.876229e+01   6.837461e+01
  -8.194723e+01  -1.839717e+01
  -1.378552e+02  -9.565013e+01
  -2.864100e+01  -1.293383e+01
   1.391361e+01  -1.001042e+02
   8.705512e+01   2.630632e+01
  -3.546044e+01   2.391227e+01
   1.850068e+01   2.659176e+01
  -1.393416e+01   5.699872e+01
   2.612748e+01   9.164952e+00
  -1.506278e+01  -5.148902e+01
   1.090505e+01  -1.421086e+01
  -8.032635e+01  -2.958625e+01
  -3.585217e+01  -6.813071e+01
   1.285204e+02  -7.602383e+01
   1.320396e+02  -1.546532e+01
   1.434904e+02   6.559618e+01
   6.723577e+01   1.108429e+02
  -1.276130e+01   1.124469e+02
  -7.427381e+01   1.075350e+02
  -7.710787e+01  -4.449980e+00
   1.250327e+01  -4.664631e+01
   2.840124e+01   2.827871e+01
  -3.905761e+01   2.479083e+00
  -6.019520e+00  -7.184769e+01
  -2.762329e+01  -2.768267e+01
   6.735777e+01  -4.570638e+01
   4.560581e+01   8.992639e+00
   5.686164e+01   4.243921e+01
   2.609873e+01   9.096327e+01
  -8.405535e+01   4.164783e+01
  -1.104965e+02  -1.420623e+02
  -9.905304e+00  -8.183436e+01
   6.476233e+01  -6.913921e+01
   6.749694e+01   1.990130e+01
   4.173268e+01   2.843354e+01
  -3.209336e+01   1.232330e+01
  -4.224370e+01   8.052099e+00
  -3.071318e+01   5.486547e+00
   4.486868e+00   1.994546e+01
  -1.363296e+01  -9.075534e-01
  -5.686411e+01   5.230729e+01
  -9.732210e+01   5.149547e+01
  -5.943833e+01  -2.087521e+00
  -8.544050e+01  -5.826371e+01
   2.128205e+01  -9.919221e+01
  -1.805488e+01   1.332339e+01
   1.342269e+00   5.604208e+01
  -3.392351e+01   5.692959e+01
  -2.429476e+01  -3.084435e+01
  -2.432568e+01  -2.614702e+01
  -2.266050e+01  -2.298630e+01
  -1.703129e+01  -5.141690e+00
   2.263596e+01   1.368323e+01
  -4.911072e+01  -3.700204e+01
   5.118381e+00   6.773309e+00
   1.935021e+01  -5.037100e+01
   5.985089e+01   5.192645e+01
  -5.046948e+01   2.041872e+01
  -4.811202e+01  -2.520773e+01
  -2.181741e+01  -2.715795e+01
   7.602128e+00  -6.012350e+01
   3.596450e+01  -5.896058e+01
   5.415499e+01  -3.932608e+01
   6.376155e+01   4.389797e+01
  -4.432782e+01   1.556777e+01
  -9.769533e+01  -9.364877e+00
  -2.758424e+01  -1.799865e+01
   5.234671e+01  -3.408306e+01
   7.501772e+01  -5.461026e+00
  -4.855082e+01  -4.063110e+01
  -1.807330e+01  -5.788700e+00
  -3.454503e+01  -2.880646e+01
   3.602398e+01  -6.069035e+01
   9.781575e+01   3.227482e+01
