
 $NMID
 id='ANONYMOUS ', fmtdat='(2E16.6)'
 volume=1.0
 tramp=1.0
 $END
   2.631951e+03  -3.357744e+01
   1.878390e+03   1.137916e+03
   3.765281e+02   1.704076e+03
  -8.786213e+02   1.348268e+03
  -9.476771e+02   4.586713e+02
  -3.144705e+02  -4.205188e+01
   1.940844e+02  -1.096117e+01
   1.930332e+01   3.456149e+02
  -3.019963e+02   4.849174e+02
  -4.825305e+02   1.680543e+02
  -4.652036e+02  -3.558289e+02
  -1.467761e+02  -5.211601e+02
   2.076078e+02  -1.878400e+02
   1.809005e+02   2.423045e+02
  -5.952285e+01   4.296873e+02
  -2.924110e+02   1.220386e+02
  -2.988777e+02  -4.061233e+02
   4.464433e+01  -6.328687e+02
   4.459834e+02  -2.928885e+02
   4.530865e+02   7.122762e+01
   1.663917e+02   3.550800e+02
  -7.584301e+01   2.785416e+02
  -7.421042e+00   1.019839e+02
   1.743386e+02   1.908400e+02
   1.734014e+02   3.006413e+02
  -7.927941e+01   2.774298e+02
  -3.683903e+02   7.636765e+01
  -4.815808e+02  -1.579247e+02
  -1.335004e+02  -2.501939e+02
   3.250252e+02  -6.689889e+01
   4.300817e+02   1.420510e+02
   8.306852e+01   3.247367e+02
  -2.194719e+02   2.662301e+02
  -3.894615e+02   9.361025e+01
  -3.048020e+02  -9.938353e+01
  -1.722041e+02  -2.401920e+02
  -5.692336e+01  -1.164632e+02
  -8.138652e+01   1.800237e+01
  -1.606150e+02   1.115103e+02
  -7.940867e+01  -1.492613e+02
   4.153736e+01  -3.810023e+02
   1.965456e+02  -3.346544e+02
   1.613729e+02   7.043550e+01
   9.974107e+01   2.570219e+02
  -8.851260e+01   4.772646e+01
  -1.025377e+02  -2.360721e+02
   9.399501e+01  -2.740292e+02
   3.806810e+02  -8.773803e+01
   3.923027e+02   2.973754e+02
   1.495964e+02   3.960371e+02
  -2.190725e+02   2.092679e+02
  -5.087815e+02  -4.152420e+01
  -3.633948e+02  -1.703831e+02
  -1.472288e+00  -1.661441e+02
   2.513326e+02  -7.160244e+01
   2.021646e+02   1.889763e+01
   7.856903e+01  -9.423198e+00
   9.883645e+00  -2.665243e+01
   7.033432e+01   1.326456e+01
   1.452924e+02   5.868655e+00
   1.267296e+02   1.554380e+02
  -1.377913e+02   2.619974e+02
  -3.624283e+02   1.355055e+02
  -2.652580e+02  -1.559978e+02
   2.463412e+01  -3.146730e+02
   3.257727e+02  -2.907531e+02
   3.274101e+02  -6.433522e+01
   1.732687e+02   1.085391e+02
   7.611426e+01   2.973238e+02
  -2.036985e+01   2.771006e+02
   6.076450e+01   1.971415e+02
  -1.263080e+01   9.234659e+01
  -2.130143e+02   1.585176e+02
  -2.324773e+02   7.327181e+01
  -2.064896e+02  -1.406922e+02
  -3.168932e+01  -2.136406e+02
   9.354370e+01  -1.446324e+02
   1.658868e+02   9.861249e+01
   1.236650e+02   2.674695e+02
  -1.108219e+02   2.057254e+02
  -2.244348e+02   3.625106e+01
  -2.774568e+02  -1.755605e+02
  -1.426264e+02  -2.863051e+02
   4.321315e+01  -2.535221e+02
   7.900704e+01  -1.884600e+02
   1.349625e+02  -1.095044e+02
   1.058864e+02  -6.367094e+01
   2.484494e+02   6.708568e+00
   4.001552e+02   1.512875e+02
   2.621883e+02   3.028982e+02
  -9.210256e+01   3.521962e+02
  -3.368511e+02   4.311916e+02
  -4.589886e+02   1.752224e+02
  -2.456773e+02  -1.338222e+02
   2.755710e+01  -1.647613e+02
   5.627700e+01  -2.078137e+02
  -3.975349e+01  -8.374681e+01
  -1.404497e+02  -1.545796e+01
  -1.007299e+02  -4.669980e+01
   7.429598e+00  -6.087248e+01
   7.121238e+01  -7.422765e+01
   8.932077e+01   9.007868e+01
  -9.452997e+01   1.018993e+02
  -7.603176e+01  -4.624016e+01
  -1.142500e+02  -2.266153e+02
  -4.117204e+01  -3.019414e+02
   2.550340e+02  -1.787708e+02
   3.575235e+02   3.644059e+01
   2.763622e+02   2.772325e+02
   5.351197e+01   2.722601e+02
  -1.692063e+02   1.251850e+02
  -1.667304e+02   2.218492e+01
  -7.319076e+01  -7.856282e+00
   5.705493e+01   8.476139e+01
  -3.110987e+01   1.039504e+02
  -1.199568e+02   6.683765e+01
  -1.273993e+02  -8.179347e+01
  -2.647587e+01  -5.522781e+01
   6.488189e+01   6.494711e+01
   2.580292e+01   6.441354e+01
  -1.578955e+02  -3.486750e+00
  -3.056038e+02  -4.109001e+01
  -2.577904e+02  -1.802325e+02
  -1.296709e+00  -2.349546e+02
   2.251028e+02  -2.282189e+02
   2.622362e+02   3.194533e+00
   1.204182e+02   4.756708e+01
  -2.732085e+01   2.366461e+01
  -7.453386e+01   3.139470e+01
   4.688479e+01  -2.123896e+01
   1.468140e+02   1.576322e+01
   1.573644e+02   1.107701e+02
   9.297566e+01   1.391752e+02
  -7.915669e+01   9.021913e+01
  -7.744655e+01   1.641434e+01
  -2.016268e+01  -2.960935e+00
   2.923082e+01   3.992319e+01
  -1.413807e+01   1.320435e+02
  -3.359518e+01   1.080009e+02
  -2.715831e+02   8.166279e+00
  -1.572338e+02  -1.407837e+02
   3.389853e+01  -2.283374e+02
   1.386983e+02  -1.481810e+02
   1.191319e+02  -3.596107e+01
   1.204650e+01   1.389383e+02
  -3.039643e+01   6.538574e+00
  -9.906413e+01   1.991740e+01
  -3.109191e+01   5.068755e+01
   4.167989e+01  -1.195808e+01
   2.877286e+01   3.867439e+01
  -1.139448e+02  -5.568921e+01
  -6.066114e+01  -3.006443e+01
  -1.142569e+01  -2.253491e+02
   1.738104e+02  -1.290013e+02
   1.919802e+02  -7.371883e+00
   1.794776e+02   1.611812e+02
   7.374710e+01   2.531130e+02
  -8.475291e+01   1.592927e+02
  -1.189334e+02  -1.831576e+01
  -7.706746e+01  -2.600136e+01
  -2.194179e+00   5.220845e+00
  -1.075273e+02   2.030203e+01
  -9.533376e+01   5.739015e+01
  -4.538263e+01  -8.982117e+01
   4.872233e+01  -9.410734e+01
   1.504622e+02  -9.626088e+01
   1.047184e+02   8.490799e+01
  -2.110976e+01   1.768009e+02
  -1.908833e+02   1.037363e+02
  -1.931240e+02  -7.531971e+01
  -3.823912e+01  -1.932042e+02
   1.242959e+02  -1.883495e+02
   2.637321e+02  -9.490492e+01
   2.368760e+02   8.294776e+01
   1.119749e+02   1.638905e+02
  -4.144003e+00   1.370188e+02
  -8.907828e+01   4.164314e+01
  -7.642379e+01   6.284208e+01
  -6.362485e+01   8.463560e+01
  -3.329267e+01   6.838465e+01
  -1.595879e+02  -1.098193e+01
  -1.130738e+02  -1.042665e+02
   1.654334e+01  -2.107762e+02
   1.295876e+02  -2.170193e+02
   1.333051e+02   2.815020e+01
   1.670117e+02   1.387407e+02
  -2.986857e+01   1.220117e+02
  -8.132272e+01   5.760878e+01
  -5.911541e+01  -1.664101e+01
  -2.075907e+01  -3.207026e+01
   7.348860e+01  -4.609191e+01
   2.418911e+00  -6.395507e+00
  -9.759656e+01  -7.206952e+01
  -2.837489e-02  -9.236336e+01
   3.690207e+01  -7.278030e+00
   6.475256e+01  -1.926419e+01
   1.053843e+02   1.726234e+01
  -3.072615e+01   9.935601e+01
  -1.792249e+02   6.821965e+01
  -1.167719e+02  -8.538351e+00
  -5.830896e+01  -3.437050e+01
   5.161366e+01  -2.456245e+01
   5.655834e+01   1.689987e+01
   3.383686e+01   9.178195e+01
  -1.309867e+01   5.990561e+01
  -3.051906e+01  -1.715017e+01
  -6.815084e+01  -6.998974e+01
  -5.845408e+01  -7.221532e+01
  -6.164064e+01  -4.143237e+01
  -5.364946e+01  -7.778618e+00
  -2.139209e+01  -1.101737e+02
  -2.916561e+01  -1.733125e+02
   1.470696e+02  -1.573255e+02
   1.385810e+02   3.123046e+01
   1.407675e+02   8.843276e+01
  -4.218100e+00   6.935652e+01
  -2.703968e+01   1.096611e+02
  -7.370510e+01   1.388208e+01
   9.093187e+01   2.981992e+00
   8.703448e+01   6.684574e+00
   8.250822e+01   1.216875e+02
  -9.494241e+01   1.210293e+02
  -1.699680e+02  -1.551336e+00
  -1.233415e+02  -4.736800e+01
  -5.530247e+01  -9.116733e+01
   9.689510e+01  -6.651916e+01
  -1.996118e+01   3.591699e+01
  -5.929448e+01   5.482081e+01
  -1.049836e+02   1.369470e+01
  -9.182809e+01  -1.370038e+02
   1.027274e+02  -1.710658e+02
   1.482614e+02  -2.841010e+01
   9.784221e+01   1.420535e+02
   2.313836e+01   1.587919e+02
  -8.741794e+01   1.645442e+02
  -1.314738e+02   2.636910e+01
  -1.094573e+02  -1.140902e+02
   2.145114e+01  -1.232081e+02
   7.158134e+01  -4.408636e+01
   3.283147e+01   4.649449e+01
  -9.288569e+00  -6.471891e+01
  -1.825836e+00  -1.987882e+01
   6.336079e+01   4.238753e+01
   1.087483e+02   1.246713e+02
  -1.238452e+01   1.276128e+02
  -3.137230e+01   1.979475e+01
  -1.460887e+02  -9.723842e+00
  -8.679371e+01  -3.115996e+01
   1.429660e+01  -2.954915e+01
   8.879221e+01  -2.730477e+01
   4.717775e+01  -7.400646e+01
   3.912637e+01  -2.606971e+00
  -2.813881e+01  -5.846180e+01
   7.370435e+01   7.440589e+01
   4.016951e+01   8.236308e+00
  -1.190200e+01  -2.366750e+01
  -1.015262e+00   5.888691e+01
  -1.181507e+02   1.853100e+01
  -4.867838e+01  -1.271925e+02
   3.231779e+01  -5.064535e+01
   1.550702e+02   7.471921e-01
   1.161491e+02   2.346336e+01
   9.637787e+01   1.285432e+02
  -1.133982e+02   1.538770e+02
  -1.458436e+02   1.596199e+02
  -7.516776e+01   3.201745e+01
  -3.691071e+01  -2.814662e+01
  -1.330993e+01  -1.224313e+01
  -9.085024e+00  -7.446330e+00
  -1.978042e+01  -2.903446e-01
   6.325240e+00  -5.636128e+01
   2.603968e+01  -9.855446e+00
   2.795596e+01   8.532936e+00
   1.295694e+02   9.116760e+01
   4.861109e+01   1.355217e+02
  -3.473227e+01   8.725931e-01
  -1.125596e+02  -1.712672e+01
  -4.312983e+01  -2.959933e+01
   8.442351e+01  -5.692536e+01
   1.287721e+02  -5.202277e+00
   8.438440e+01   3.503421e+01
   6.740561e+00   1.147368e+02
  -1.135145e+01   4.551758e+01
   1.474476e+01  -1.941172e+00
   5.693307e+01  -5.480774e+01
   4.003579e+01   6.079949e+01
  -5.812483e+01   8.179662e+01
  -1.349078e+02   5.656334e+01
  -7.789844e+01  -2.402191e+01
   2.124943e+00  -7.320307e+01
   9.002440e+01  -1.173597e+02
   2.805837e+01   5.393270e+01
  -4.263849e+01  -3.086178e+00
  -1.290600e+01   5.574953e+01
   4.073520e+01   2.389468e+01
  -3.633047e+01  -3.061144e+01
   3.633074e+01  -3.074850e+01
  -1.143398e+01  -5.254559e+00
   2.292722e+01   8.743731e+01
  -1.254413e+00   2.606315e+01
   2.173969e+01  -1.343988e+01
   4.175703e+01  -2.342981e+01
  -1.718437e+01   5.770291e+01
  -3.662168e+00   8.286986e+01
  -3.486940e+00   3.077648e+01
  -1.819910e+01  -4.700970e+01
  -4.862754e+01  -6.982912e+01
  -1.375298e+01  -3.671859e+01
   5.802768e+01   5.385759e+01
  -4.302186e+00   6.342547e+01
  -5.985634e+01   3.632641e+01
  -9.667159e+01  -8.609916e+00
  -6.248098e+01  -6.045866e+01
   5.030703e+01   3.455595e+00
   3.818692e+01  -1.978457e+01
   2.643310e+01   6.842535e+00
  -4.144322e+01  -3.445824e+01
   4.616009e+00   2.391128e+01
  -9.416535e+00  -3.466396e+01
   6.594555e+01  -5.823350e+00
