
 $NMID
 id='ANONYMOUS ', fmtdat='(2E16.6)'
 volume=1.0
 tramp=1.0
 $END
   2.075807e+03  -1.065683e+02
   1.537893e+03   1.067982e+03
   1.008623e+02   1.337323e+03
  -7.290516e+02   9.540019e+02
  -6.597745e+02   2.685695e+02
  -9.845952e+01  -1.355189e+02
   2.820045e+02  -6.560829e-01
   8.242128e+01   2.846419e+02
  -2.410368e+02   4.281622e+02
  -4.520835e+02   1.224961e+02
  -3.273669e+02  -3.032966e+02
  -2.007506e+01  -3.945402e+02
   2.039643e+02  -9.286487e+01
   1.790825e+02   2.623164e+02
   1.877877e+00   3.015417e+02
  -2.114532e+02   7.345374e+01
  -1.863808e+02  -3.213289e+02
   3.902576e+01  -4.192460e+02
   3.247648e+02  -2.228904e+02
   3.109080e+02   8.211093e+01
   1.027213e+02   2.311403e+02
  -8.244328e+01   2.053213e+02
   1.738939e+01   8.834061e+01
   7.288040e+01   8.653988e+01
   1.931402e+02   1.750929e+02
  -9.284295e+00   2.144469e+02
  -2.298006e+02   1.186142e+02
  -4.509497e+02  -7.744361e+01
  -1.237803e+02  -2.294153e+02
   2.338621e+02  -7.790612e+01
   3.101964e+02   3.050859e+00
   1.052401e+02   2.002591e+02
  -1.566731e+02   3.027524e+02
  -2.945771e+02   2.460464e+01
  -2.720953e+02  -5.207183e+01
  -1.101807e+02  -2.027427e+02
   1.164656e+01  -1.184809e+02
  -7.951672e+00   5.431383e+01
  -1.566842e+02   1.292125e+02
  -1.383660e+02  -1.095431e+02
  -4.628721e+01  -2.877913e+02
   1.996514e+02  -3.197291e+02
   2.204480e+02  -2.566998e+01
  -4.134625e+01   1.516040e+02
  -8.874259e+01   6.048548e+01
  -1.032869e+02  -1.487158e+02
   7.178350e+01  -2.659438e+02
   2.350815e+02  -1.064449e+02
   2.963684e+02   1.988792e+02
   1.286427e+02   3.027958e+02
  -1.819955e+02   1.723206e+02
  -3.374336e+02  -1.784243e+01
  -2.211263e+02  -1.301044e+02
  -3.098101e+01  -1.476421e+02
   1.976316e+02  -9.807093e+01
   1.407722e+02  -3.693797e+01
   7.378692e+01   4.707594e+01
   4.005826e-01  -3.794627e+01
   9.084132e+01  -1.080824e+01
   1.347867e+02  -3.352386e+01
   1.283311e+02   9.112925e+01
  -1.348213e+02   1.196268e+02
  -2.117082e+02   1.275357e+02
  -2.182563e+02  -1.141681e+02
  -5.813982e+01  -2.267291e+02
   1.708812e+02  -2.652021e+02
   2.537465e+02  -1.479423e+02
   1.780461e+02   1.169687e+02
   7.377232e+01   2.093709e+02
   8.449354e+00   1.580210e+02
  -2.032288e+01   1.063389e+02
  -1.698469e+01   3.150242e+01
  -1.353437e+02   7.546283e+01
  -1.989959e+02   7.529345e+01
  -1.730271e+02  -7.424902e+01
  -1.673618e+01  -1.440653e+02
   1.081429e+02  -1.220117e+02
   1.447688e+02   6.334392e+01
   7.772434e+01   1.940422e+02
  -9.563089e+00   1.527725e+02
  -1.891102e+02   1.546424e+01
  -1.534045e+02  -1.240626e+02
  -8.617974e+01  -1.734785e+02
   3.253927e+01  -1.983502e+02
   1.419015e+02  -9.535828e+01
   1.161572e+02  -3.585803e+01
   1.409440e+02  -3.793566e+01
   1.729575e+02  -3.274257e+01
   2.971683e+02   6.510968e+01
   2.000826e+02   2.002201e+02
  -3.265491e+01   2.611038e+02
  -2.728491e+02   2.863710e+02
  -3.195421e+02   8.582172e+01
  -2.006125e+02  -5.367047e+01
  -1.385201e+01  -2.116918e+02
   4.868337e+01  -1.420460e+02
   2.662251e+01  -2.275306e+01
  -1.115998e+02  -1.181180e+01
   1.844218e+01  -6.491245e+01
  -3.285436e+01  -1.098558e+02
   8.359718e+01  -9.909157e+01
   1.134621e+02  -1.696911e+00
   5.476466e+00   1.525820e+02
  -1.223996e+02   1.243667e+01
  -1.102099e+02  -1.761019e+02
   1.165825e+01  -2.225406e+02
   1.492446e+02  -1.123006e+02
   2.374624e+02   2.246831e+01
   2.174723e+02   2.165268e+02
   4.996421e+01   1.606985e+02
  -5.393314e+01   7.002414e+01
  -8.499374e+01   5.002558e+01
  -6.532432e+01   3.751452e+00
  -6.249887e+00   1.068201e+01
   2.259685e+01   5.913199e+01
  -4.633866e+01   7.358324e+01
  -3.875487e+01  -2.037172e+01
  -1.165139e-01  -2.603396e+01
   8.589449e+00   8.692368e+00
   6.857584e-01   8.745186e+01
  -1.081073e+02   1.129233e+02
  -2.062292e+02  -1.302402e+01
  -2.398544e+02  -1.353689e+02
  -1.566895e+01  -1.761249e+02
   1.159296e+02  -2.073169e+02
   2.013518e+02  -9.436268e+01
   6.410594e+01   4.733350e+01
  -2.239074e+01   6.044521e+01
   2.611320e+01  -2.706692e+01
   1.343192e+01  -1.061912e+02
   1.045596e+02  -4.968128e+00
   6.225131e+01   3.768272e+01
   3.972477e+01   1.274450e+02
  -1.021716e+02   1.097038e+02
  -1.070938e+02   4.508241e+00
  -6.478679e+01  -1.837270e+01
   5.973913e+01  -2.545624e+01
   6.047877e+00   5.757915e+01
  -8.721876e+01   9.156870e+01
  -1.242391e+02   6.155187e+01
  -1.253858e+02  -8.026531e+01
  -3.815069e+01  -1.756808e+02
   4.885018e+01  -6.398409e+01
   6.639545e+01  -3.493228e+01
   2.871620e+01   1.067001e+02
  -5.535534e+01   5.003717e+01
   3.768240e+01   2.127144e+01
  -2.069152e+01  -4.598323e+00
   4.939003e+01   5.874877e+00
   8.859387e-01  -8.821907e+00
  -6.645168e+01  -1.623876e+01
  -8.398457e+01  -6.956538e+01
  -4.680752e+01  -1.440692e+02
   8.577032e+01  -8.780373e+01
   1.483095e+02  -1.453336e+01
   1.416043e+02   1.417660e+02
   4.655558e+01   1.353824e+02
  -1.599561e+01   1.451537e+02
  -8.774962e+01   5.919795e+01
  -5.930388e+01  -3.028299e+01
   2.326782e+01   2.189922e+01
  -7.602251e+01   1.789456e+01
  -9.378839e+01   4.073018e+01
  -3.724224e+01  -5.612311e+01
   2.195370e+01  -6.554152e+01
   1.311299e+02  -8.385712e+01
   1.469586e+02   2.247400e+01
  -2.623749e+01   7.538360e+01
  -1.003816e+02   6.568823e+01
  -1.878181e+02  -5.178458e+01
  -5.107257e+01  -1.708323e+02
   1.465037e+02  -1.866834e+02
   2.022650e+02  -8.558402e+01
   9.268867e+01   8.396215e+01
   3.663540e+01   1.064512e+02
  -1.818813e+01   8.646985e+01
  -6.106356e+01   8.563459e+01
  -5.246022e+00   1.210636e+02
  -5.427398e+01   5.382122e+01
  -8.286117e+01   9.539318e+01
  -3.867180e+01  -3.637708e+00
  -8.299541e+01  -5.804655e+01
  -2.744361e+01  -1.702451e+02
   7.972141e+01  -1.421617e+02
   1.032285e+02   9.198217e+00
   1.377163e+02   7.990702e+01
   4.991159e+01   1.217400e+02
  -1.518693e+01   1.655366e+01
  -4.617518e+01  -2.968751e+01
   6.638878e+01  -4.002559e+01
   3.933630e+01   7.498628e+00
  -2.545732e+01  -4.568502e+01
  -5.954342e+01  -2.029834e+01
  -9.233461e+00  -3.200551e+01
   6.500011e+01   2.116906e+00
   1.470049e+02  -1.691121e+01
   8.566832e+01   9.396830e+01
  -1.729024e+01   7.390260e+01
  -1.042942e+02   5.216521e+01
  -9.043165e+01   1.886612e+01
  -4.256761e+01  -5.032902e+01
   3.366717e+01  -1.672812e+01
   1.031170e+02   5.356999e+00
   2.449615e+01   3.715829e+01
  -1.229407e+01   9.732375e+01
  -6.897767e+01   2.924948e+01
  -2.264633e+01  -9.652034e+00
  -2.701433e+01  -3.448672e+01
   3.790806e+00   3.719768e+01
  -7.271041e+01   2.483184e+01
  -1.584050e+01  -4.219143e+01
   4.589440e+01  -1.572603e+02
   7.698566e+01  -1.419348e+02
   1.299176e+02  -3.688680e+01
   4.608872e+01   3.547451e+01
   1.792899e+01   7.289034e+01
  -9.002462e+01   4.265871e+01
  -6.487234e+01   1.677264e+00
   2.343922e+01   4.776876e+01
   7.874340e+01   1.202376e+01
  -1.290162e+01   1.453557e+01
  -3.989390e+01   8.490845e+01
  -1.166604e+02   7.263250e+01
  -1.037173e+02  -7.309527e+01
  -7.232649e+01  -5.098794e+01
  -1.481470e+01  -8.413504e+01
   3.633033e+01  -3.247321e+00
  -2.898148e+01   2.145269e+01
  -5.369580e+01  -4.899460e+01
  -1.738611e+00  -9.490467e+01
   7.909005e+01  -1.612093e+02
   8.880300e+01  -1.057316e+02
   1.308622e+02   3.955108e+01
   5.450844e+01   1.236455e+02
  -2.510270e+01   1.210864e+02
  -1.329387e+02  -8.527823e+00
  -1.550384e+01  -3.074961e+01
   6.219155e+01  -7.416854e+01
   2.543185e+01   2.631655e+01
   4.372179e+01   1.457729e-01
  -1.297146e+00  -3.121058e+01
  -5.165424e+01  -4.863243e+01
  -5.471626e+00   6.404879e+01
  -1.581314e+01   6.923900e+01
   2.454170e+01   6.117470e+01
  -3.355581e+01   7.098259e+01
  -4.014984e+01   8.662880e+00
  -1.025044e+02  -2.721619e+01
   5.171240e+01  -4.013743e+01
   2.466270e+01   2.961371e+01
   2.833283e+01   2.188625e+01
   1.201164e+01  -6.355535e+01
  -4.580988e+01  -4.395722e+00
  -4.287511e+01   2.379143e+01
  -3.451495e+00  -1.240685e+01
   8.534678e+00   1.076396e+01
  -1.050885e+02  -3.745123e+01
  -6.558232e+01  -7.746247e+01
  -9.442399e+00  -5.554136e+01
   8.122868e+01  -1.371059e+02
   9.421952e+01  -5.798554e+01
   1.485873e+02   5.516061e+01
   1.109822e+01   1.133551e+02
  -4.804213e+01   1.228339e+02
  -3.722510e+01  -3.615086e+01
  -5.626214e+01   1.619659e+01
   3.032460e+00   2.169815e+01
   2.470190e+01   1.638295e+01
  -4.014318e+01   4.175809e+00
   1.006419e+01   1.264393e+01
  -1.866135e+01  -5.014198e+01
  -3.091869e+01  -7.393054e+01
  -1.210688e+01  -5.587420e+01
   2.960801e+01   6.641338e+01
  -1.645865e+01   6.989279e+01
  -1.124076e+02  -2.262648e+01
  -7.805314e+01  -3.480126e+01
  -6.786169e+01  -1.603854e+01
   8.323602e+00  -6.070127e+01
   3.522144e+01  -4.975398e+01
   3.198753e+01   5.037143e+01
  -3.304833e+01   6.534079e+01
  -9.522906e+00  -1.456865e+01
   3.743389e+01  -1.760193e+01
   1.543210e+01   4.449602e+01
  -1.684386e+00   4.799357e+01
  -6.646617e+01   6.605644e+01
  -8.483888e+01   5.089400e+01
  -5.205731e+01   2.251921e+01
   3.968310e+00  -7.225355e+01
  -3.944544e+00  -6.531057e+01
   5.630656e+00   3.622099e+01
   3.755124e+01   2.668103e+01
  -4.155226e+01   1.192001e+01
  -7.262387e+01   1.752646e+01
   6.009603e+00  -2.321142e+01
  -7.551311e+01  -4.829884e+01
   2.321127e+01  -1.307923e+01
  -7.464729e+00   4.766110e+01
   7.863055e+01  -4.060005e+01
   1.224207e+00   1.791997e+01
   5.512695e+00  -2.723504e+01
   6.084149e+00   6.933465e+01
  -9.340530e+00  -9.214282e+00
  -6.065644e+01  -1.969647e+01
  -2.356923e+01  -2.347038e+01
  -3.987988e+01  -6.246333e+01
   3.610298e+01  -4.394267e+01
   2.698766e+01   2.711592e+01
   2.241834e+01   8.882902e+01
  -7.268896e+01   8.003691e+00
  -8.820646e+01  -1.446638e+01
  -3.078720e+01   2.562086e+01
   1.998978e+01  -2.510991e+01
   8.488205e+01  -2.778600e+01
   3.861781e+01   9.097582e+01
  -2.354599e+01  -2.060599e+01
   2.822160e+01   2.306803e+01
   3.715296e+01  -1.923436e+01
   1.289869e+02   2.197790e+00
