
 $NMID
 id='ANONYMOUS ', fmtdat='(2E16.6)'
 volume=1.0
 tramp=1.0
 $END
  -2.501791e+03  -5.785751e+01
  -1.802968e+03  -1.189728e+03
  -1.619503e+02  -1.544875e+03
   8.909243e+02  -1.148436e+03
   8.194523e+02  -3.798579e+02
   1.550489e+02   1.195621e+02
  -1.892113e+02  -1.132417e+00
  -1.191689e+01  -3.781766e+02
   2.751799e+02  -4.366477e+02
   5.144482e+02  -1.222063e+02
   3.725816e+02   4.292413e+02
   4.856394e+01   5.240569e+02
  -1.219030e+02   1.585623e+02
  -1.406950e+02  -2.794409e+02
   9.344006e+01  -4.434230e+02
   2.925538e+02  -8.289588e+01
   2.897963e+02   3.119717e+02
  -4.870114e+01   5.638713e+02
  -3.342523e+02   2.974897e+02
  -3.668907e+02  -1.042452e+02
  -1.245387e+02  -2.503295e+02
   2.677788e+01  -2.351179e+02
   6.005391e+01  -8.120260e+01
  -1.553916e+02  -1.171593e+02
  -2.554959e+02  -2.699198e+02
   7.976110e+01  -2.867746e+02
   4.246798e+02  -8.708286e+01
   5.083557e+02   2.063460e+02
   1.040561e+02   2.510441e+02
  -2.948503e+02   1.248803e+02
  -3.144712e+02  -1.676548e+02
  -1.427664e+02  -2.992483e+02
   2.217062e+02  -3.193359e+02
   3.486524e+02  -9.043272e+01
   2.804876e+02   1.289477e+02
   8.009912e+01   1.960686e+02
  -2.259818e+01   1.438757e+02
   1.121099e+02  -2.398884e+01
   2.115436e+02  -3.881052e+01
   5.687594e+01   1.204474e+02
  -8.108826e+01   3.705357e+02
  -1.630259e+02   3.060820e+02
  -2.108440e+02   8.228510e+00
  -6.587961e+01  -2.649960e+02
   1.509093e+02  -6.799599e+01
   9.734193e+01   2.374786e+02
  -1.649193e+02   3.243572e+02
  -3.085211e+02  -1.735027e+01
  -4.174676e+02  -3.457410e+02
  -1.123917e+02  -3.713447e+02
   2.737722e+02  -2.230330e+02
   4.501067e+02   6.476405e+01
   2.490837e+02   2.033982e+02
   1.005457e+01   1.668491e+02
  -2.245821e+02   1.045150e+02
  -1.476858e+02   4.223049e+01
  -3.902227e+01   8.287118e+00
   1.111517e+01   4.792306e+01
  -4.997241e+01   1.713998e+01
  -1.687244e+02  -2.325467e+01
  -1.178489e+02  -1.749704e+02
   6.030593e+01  -2.228977e+02
   3.612543e+02  -1.332164e+02
   2.334496e+02   8.681927e+01
   1.261389e+01   2.899649e+02
  -2.969542e+02   2.865580e+02
  -3.178597e+02   1.473571e+02
  -1.887037e+02  -1.283526e+02
  -4.431565e+01  -3.297801e+02
   3.414176e+01  -2.346726e+02
  -2.143551e+01  -1.254659e+02
   2.253206e+01  -1.806610e+02
   1.317124e+02  -1.284469e+02
   2.630103e+02  -2.319309e+01
   2.198053e+02   1.509579e+02
   2.438296e+01   2.171618e+02
  -1.533124e+02   1.370453e+02
  -1.201019e+02  -7.483697e+01
  -5.185962e+01  -2.210209e+02
   4.920716e+01  -1.787116e+02
   1.795416e+02  -6.865017e+01
   2.162644e+02   2.377784e+02
   1.280687e+02   2.137457e+02
  -2.502230e+01   1.804416e+02
  -1.126641e+02   1.732393e+02
  -1.624122e+02   1.545806e+02
  -1.639095e+02   6.336991e+01
  -2.399296e+02   5.114900e+01
  -3.424053e+02  -1.521804e+02
  -2.631510e+02  -2.320288e+02
   2.243693e+01  -3.470682e+02
   3.525087e+02  -3.083581e+02
   4.180525e+02  -9.686304e+01
   2.710843e+02   6.507590e+01
  -6.364607e+01   2.897402e+02
  -1.190649e+02   1.320546e+02
  -6.121252e+01   7.485694e+01
   1.080280e+02  -5.390033e+01
   3.536566e+01   2.779482e+01
   4.113026e+01   7.857076e+01
  -1.566947e+02   5.682049e+01
  -6.367095e+01  -5.623426e+01
   3.654765e+01  -1.044398e+02
   1.270315e+02  -3.768884e+01
   1.248169e+02   2.317417e+02
   2.720963e-01   2.895645e+02
  -2.025511e+02   2.234793e+02
  -3.641494e+02  -1.361181e+01
  -2.078956e+02  -3.219978e+02
  -4.729546e+01  -2.120628e+02
   1.523714e+02  -8.896507e+01
   1.822655e+02  -3.237853e+01
   6.057245e+01   4.645669e+01
  -3.716478e+01  -7.981310e+01
   2.482981e+01  -9.306424e+01
   1.082923e+02  -8.880015e+01
   1.437208e+02   4.252074e+01
  -4.290846e+01   8.605475e+01
  -4.148019e+01  -3.925688e+01
  -7.667128e-01  -1.370320e+02
   1.783200e+02  -1.212002e+02
   2.592256e+02   9.212921e+01
   1.800323e+02   1.472542e+02
  -1.960843e+01   2.114792e+02
  -2.000281e+02   1.438523e+02
  -3.100578e+02   4.731737e+01
  -1.327089e+02  -4.154348e+01
   1.061121e+01  -5.189498e+01
   8.952095e+01  -2.765203e+00
  -2.434820e+00   7.309764e+01
  -1.046826e+02   2.037032e+01
  -1.685743e+02  -4.618283e+01
  -5.661932e+01  -1.072726e+02
   4.497448e+01  -1.082346e+02
   8.283898e+01   5.533953e+00
   2.178363e+01  -6.001223e+00
  -2.426694e+01  -1.396829e+01
  -1.179270e+01  -1.095271e+02
   9.966097e+01  -1.299212e+02
   1.618083e+02   1.161171e+01
   1.466475e+02   1.217971e+02
  -4.384449e+01   1.854709e+02
  -1.256666e+02   8.981800e+01
  -1.205216e+02   3.384056e+01
  -7.358705e+01  -5.969464e+01
   8.545928e+01  -1.006181e+02
   7.379194e+01   1.275002e+01
   9.154313e+00   4.265688e+01
  -4.583244e+01  -2.510968e+01
   2.715752e+00   1.888856e+01
   9.140424e+01   1.200636e+01
   1.217408e+02   1.378830e+02
  -3.111809e+01   1.165641e+02
  -1.501021e+02   1.059005e+02
  -2.106543e+02   2.284395e+01
  -1.959787e+02  -1.241193e+02
   5.489313e-01  -2.238154e+02
   1.209819e+02  -1.394836e+02
   1.707345e+02  -4.320756e+01
   7.402492e+01   3.923162e+00
   5.055659e+01   5.284773e+00
   1.129950e+01   7.498688e+00
   9.556577e+01   8.986018e+00
   5.746044e+00   3.817115e+01
  -3.430692e+01   1.181491e+02
  -2.045476e+02   7.646786e+01
  -1.386901e+02  -4.422824e+01
  -7.498444e-01  -1.597645e+02
   1.710106e+02  -6.120886e+01
   2.248792e+02   3.909014e+01
   4.695890e+01   1.801845e+02
  -1.023427e+02   1.643785e+02
  -2.787590e+02   3.256034e+01
  -2.733192e+02  -1.191337e+02
  -1.072374e+02  -1.241218e+02
   2.862224e+01  -1.348521e+02
   3.071046e+01  -1.089985e+02
   4.763078e+01  -4.678616e+01
  -1.314441e+01  -3.610447e+01
   5.223785e+01   6.710998e+00
   8.421350e+01  -2.465038e+01
   1.010601e+02   1.512829e+02
   5.981658e+01   2.312948e+02
  -1.086103e+02   1.711730e+02
  -1.397924e+02  -1.891926e+01
  -1.508863e+02  -1.188687e+02
  -6.817867e+01  -1.223889e+02
   8.306829e+01  -7.000689e+01
   1.567014e+01  -5.983235e+01
   4.186937e+01   9.229244e+01
  -2.047489e+01   7.466674e+01
   3.019549e+01   3.383749e+01
   1.238136e+02  -6.675525e+00
   4.954102e+01   1.868903e+01
  -1.102654e+02   5.287475e+01
  -1.395955e+02  -1.050195e+01
  -1.204782e+02  -4.033861e+01
  -3.292769e+00  -8.959265e+01
   1.318570e+02  -5.006757e+01
   1.419470e+02   3.064083e+00
   1.290940e+01  -2.819132e+01
  -3.570046e+01   2.198848e+00
  -7.778741e+01  -5.863105e+01
  -1.178526e+01  -6.220045e+01
   5.311953e+01  -7.376550e+01
   4.241805e+01  -1.391556e+01
   1.092831e+02   5.483861e+01
   5.572761e+01   1.095976e+02
   1.739456e+01  -2.688612e+01
   1.380784e+01   6.751214e+01
  -2.567134e+00   5.432568e+01
   2.092455e+01   1.293527e+02
  -1.428828e+02   1.363249e+02
  -1.886521e+02   2.162879e+01
  -6.864071e+01  -8.327466e+01
  -1.421596e+01  -5.982048e+01
   1.016434e+02  -3.301674e+01
   3.865452e+01   1.815782e+01
  -8.222068e+01  -5.553961e+00
  -1.256331e+02  -3.991353e+01
  -1.421614e+02  -1.548691e+02
   7.343050e+01  -8.919654e+01
   1.601050e+02  -3.153452e+01
   1.365227e+02   5.942952e+01
   3.846121e+01   1.339184e+02
  -7.281259e+01   2.315861e+01
  -4.734866e+01   1.737709e+01
   3.928236e+01  -7.033461e+01
   5.649220e+01   2.978750e+01
   4.619283e+01   1.280097e+02
  -8.902867e+01   1.636524e+02
  -9.037791e+01   7.794389e+01
  -1.085121e+02  -1.203197e+02
  -1.760662e+01  -1.599067e+02
   2.130944e+01  -1.046524e+02
   1.147454e+02   1.426340e+01
   9.196251e+01   9.313947e+01
  -7.627195e+01   1.194884e+02
  -2.788925e+01  -3.484535e+01
  -3.255210e+01  -2.082096e+01
   3.540564e+00   3.646739e+01
   1.830869e+01  -3.285705e+01
  -5.251312e+01  -1.675741e+01
  -3.783110e+01  -8.445928e+01
  -3.027730e+01  -1.210237e+02
   6.095246e+01  -5.798467e+01
   1.318410e+02  -3.461262e+01
   1.394756e+02   7.128788e+01
   3.612777e+01   3.276160e+01
  -2.623298e+01  -1.121375e+01
  -6.748305e+01   4.978511e+01
  -9.414039e+01   6.377791e+00
   4.253076e+01  -2.211976e+01
   2.651012e+01   1.901308e+01
  -7.225782e+01  -3.642103e+01
   8.631619e+01   5.038666e+01
   9.781341e+01   5.143814e+01
   6.827668e+01   4.476893e+01
   8.592097e+01   1.347333e+02
  -1.085319e+02   6.961083e+01
  -1.794832e+02   5.332817e+01
  -1.380169e+02  -4.457372e+01
  -1.372523e+01  -1.142112e+02
   2.040880e+01  -1.492047e+02
   1.009967e+02  -8.361931e+01
   4.147986e+01   4.582315e+00
  -4.228840e+01   7.610439e+01
  -5.502211e+00   2.344290e+01
   1.879635e+00   3.785893e+01
   4.854509e+01   6.928081e+01
  -2.600938e+01   1.135053e+02
   1.525609e+01   9.971837e+01
  -1.131114e+02  -1.660650e+01
  -9.121435e+01  -5.016351e+01
  -1.950575e+01  -9.746604e+01
   4.552996e+01  -4.512408e+01
   9.934741e+01   5.585929e+01
   5.278770e+01   4.884266e+01
  -9.575005e+01   7.038000e+01
  -7.212925e+01   2.871102e+01
  -3.672063e+01  -5.755998e+01
   7.080544e+01  -5.020909e+01
   3.099050e+01   7.817515e-01
   1.094941e-01   1.480476e+01
  -4.365384e+01  -2.412114e+01
  -1.085565e+01  -3.234371e+01
   8.381895e+01  -9.039581e+01
   1.357092e+02  -8.812463e+01
   6.913967e+01   8.847963e+01
   3.709612e+01   6.192847e+01
  -1.093285e+02   1.417218e+02
  -5.107740e+01   2.148889e+01
  -3.547945e+01  -1.069283e+02
   5.172135e+00  -7.105356e+01
  -2.380931e+01   1.478101e+01
   2.121329e+01   5.562494e+01
   1.878095e+01  -8.639644e+00
  -7.877319e+01   5.023476e+00
  -3.186341e+01   3.984942e+01
   2.121433e+01  -2.752601e+01
   3.219996e+01   3.248062e+01
   6.336528e+01  -2.761538e+01
   2.367847e+00  -6.261317e+01
  -2.523634e+01  -1.286637e+01
   4.810209e+00  -1.585264e+01
   4.095768e+01   9.050284e+00
   2.456470e+01   7.193966e+01
  -3.251332e+01  -2.859385e+01
  -8.954157e+01   6.984399e+00
   2.076491e+01  -1.105659e+01
   6.757158e+01  -1.896918e+01
   9.992150e+01   9.355964e+01
   7.534303e+01  -5.147285e+01
   2.592844e+01   2.468467e+01
  -9.470637e+01  -7.135203e-01
  -5.415823e+01  -9.829729e-01
  -2.277511e+01   3.835134e+01
   3.235413e+01  -2.453054e+01
  -2.851280e+01   1.847679e+01
  -4.613419e+01   3.184864e+01
