
 $NMID
 id='ANONYMOUS ', fmtdat='(2E16.6)'
 volume=1.0
 tramp=1.0
 $END
  -2.401925e+03  -1.308933e+02
  -1.572472e+03  -1.207882e+03
  -3.478967e+01  -1.493758e+03
   8.651923e+02  -9.831839e+02
   7.270120e+02  -2.552257e+02
   7.276396e+01   5.051155e+01
  -1.814541e+02  -3.551542e+01
  -8.465231e+01  -3.227569e+02
   3.388304e+02  -4.361957e+02
   4.941709e+02  -9.409516e+01
   3.222367e+02   4.104600e+02
   2.879432e+00   4.715642e+02
  -1.864713e+02   1.655900e+02
  -1.819534e+02  -3.038601e+02
   5.967744e+01  -3.923350e+02
   3.027560e+02  -7.193117e+01
   1.827565e+02   3.592550e+02
  -1.108924e+02   4.710817e+02
  -3.571249e+02   2.388136e+02
  -3.699831e+02  -1.142666e+02
  -1.457125e+02  -2.803416e+02
   1.151891e+02  -2.158587e+02
   3.859285e+00  -8.816434e+01
  -1.433778e+02  -1.058154e+02
  -2.317025e+02  -2.734047e+02
   4.943120e+01  -2.714499e+02
   4.111544e+02  -9.186197e+01
   4.145794e+02   1.882141e+02
   1.472146e+02   2.107948e+02
  -2.773663e+02   9.908268e+01
  -3.982253e+02  -1.675503e+02
  -1.000312e+02  -2.519574e+02
   2.333882e+02  -1.964868e+02
   4.402069e+02  -8.912845e+01
   2.301073e+02   7.457633e+01
   2.150642e+01   2.397874e+02
   6.227859e+00   9.840285e+01
   1.748931e+01  -7.123638e+01
   1.387477e+02  -6.324295e+01
   7.776849e+01   1.155278e+02
  -2.306418e+01   3.959161e+02
  -1.992969e+02   2.702874e+02
  -2.197469e+02  -2.782889e+01
  -6.196228e+01  -2.679958e+02
   9.605014e+01  -2.686532e+01
   1.009296e+02   2.170067e+02
  -3.422011e+01   3.115948e+02
  -3.419496e+02  -1.113815e+01
  -3.609810e+02  -2.624173e+02
  -1.545295e+02  -3.530278e+02
   2.196021e+02  -1.841551e+02
   3.847919e+02   1.293430e+02
   2.577406e+02   2.131542e+02
  -2.061843e+01   1.742140e+02
  -1.989147e+02   1.007920e+02
  -1.729211e+02  -5.785706e+01
  -6.142769e+01   5.557547e+01
   1.344395e+01   3.072259e+01
  -7.163164e+01   7.644741e+01
  -1.721627e+02  -3.595378e+01
  -8.991850e+01  -1.612564e+02
   1.395242e+02  -2.038333e+02
   2.704483e+02  -1.254230e+02
   2.516119e+02   4.822371e+01
  -3.280737e+01   2.266256e+02
  -2.732456e+02   3.189357e+02
  -2.811789e+02   8.815332e+01
  -2.048610e+02  -1.905711e+02
   1.790841e+01  -2.631042e+02
   4.723885e+01  -2.415383e+02
   2.541839e+01  -1.712291e+02
   9.184172e+01  -6.821036e+01
   1.363595e+02  -1.309569e+02
   2.325815e+02  -3.466893e+01
   2.092255e+02   1.095758e+02
   6.371099e+01   1.679926e+02
  -7.995973e+01   1.613901e+02
  -1.533516e+02  -1.349268e+01
  -9.092059e+01  -2.647566e+02
   6.531323e+01  -1.630614e+02
   1.729009e+02  -9.387862e+01
   2.575888e+02   1.625562e+02
   1.409074e+02   2.553427e+02
   3.001217e+01   1.470680e+02
  -1.035043e+02   1.370173e+02
  -8.479680e+01   7.851698e+01
  -1.058413e+02   5.961060e+01
  -2.217520e+02   8.626325e+01
  -3.802845e+02  -1.354356e+02
  -3.101091e+02  -2.012177e+02
   1.701711e+01  -3.410714e+02
   3.231373e+02  -2.709119e+02
   4.407691e+02  -1.613548e+02
   1.937433e+02   4.708737e+01
   1.048761e+00   2.143008e+02
  -9.041124e+01   1.614520e+02
  -2.996657e+01   2.826726e+01
   7.463331e+01  -5.303407e+01
   1.495929e+02   5.462775e+01
  -1.834898e+01   8.883974e+01
  -1.315968e+02   8.659469e+01
  -5.740630e+01   6.323495e+00
   2.300432e+00  -8.441259e+01
   1.880246e+02   2.123846e+01
   1.223973e+02   2.037585e+02
  -4.441244e+00   2.873543e+02
  -2.270779e+02   1.756433e+02
  -2.857031e+02  -7.755905e+01
  -1.646514e+02  -2.620249e+02
  -3.516381e+01  -2.080869e+02
   1.453581e+02  -1.086600e+02
   1.401231e+02  -4.488630e+01
   1.543382e+01   1.310543e+01
   5.774497e+00  -2.498707e+01
  -1.805602e+01  -5.914842e+01
   1.082650e+02  -5.663852e+01
   9.479327e+01  -2.778872e+01
   1.770391e+01   6.597221e+01
  -8.800200e+01  -1.164872e+01
  -4.220583e+01  -9.282649e+01
   7.591651e+01  -4.369626e+01
   2.610030e+02   5.948833e+01
   9.249044e+01   1.427093e+02
  -1.145292e+01   1.582815e+02
  -1.752190e+02   2.465331e+02
  -2.159704e+02  -3.694127e+00
  -1.063325e+02   2.167590e+01
   1.631438e+01  -9.546470e+01
   8.445676e+01   2.196251e+01
  -9.667317e+01   6.769207e+01
  -1.268631e+02   1.540902e+01
  -1.285776e+02  -1.155713e+02
  -6.358204e+01  -6.677816e+01
   7.385759e+01  -6.977694e+01
   8.223611e+01  -8.925712e+00
   8.489840e+00   1.189948e+01
  -7.688586e+01  -1.264434e+01
   6.736565e+00  -1.214599e+02
   6.026173e+01  -4.503797e+01
   1.317682e+02   3.952048e+01
   1.108833e+02   9.657121e+01
   2.754588e+01   1.467409e+02
  -9.018508e+01   1.519088e+02
  -1.485951e+02  -3.544575e+01
  -6.351281e+01  -7.960423e+01
   3.951158e+01  -6.262057e+01
   5.433451e+01  -2.773959e+00
  -6.114933e+01   4.157734e+01
  -5.983217e+01  -7.955661e+00
   3.498665e+01   1.631449e+01
   9.799222e+01   1.860576e+01
   7.149058e+01   4.360912e+01
   2.101157e+00   1.248753e+02
  -8.969427e+01   1.179248e+02
  -2.233896e+02  -7.311119e+01
  -1.449595e+02  -9.096687e+01
   5.102074e+00  -1.691794e+02
   9.387011e+01  -1.934465e+02
   1.152505e+02  -5.473047e+01
   4.295711e+01   6.529196e-01
   1.456597e+01   4.427457e+01
   3.138836e+01   3.626114e+01
   9.280872e+01  -2.944323e+00
   5.904868e+01   1.388983e+02
  -8.227056e+01   1.716245e+02
  -9.596769e+01   4.139287e+01
  -9.945872e+01   1.441109e+01
   4.563821e+01  -6.436141e+01
   4.725174e+01  -4.840130e+01
   1.745834e+02   3.048233e+01
   5.914749e+01   2.266300e+02
  -1.139807e+02   9.754350e+01
  -1.694308e+02   5.706574e-02
  -1.999063e+02  -1.170268e+02
  -3.051859e+01  -1.356668e+02
   7.979287e+01  -1.053856e+02
   6.132855e+01   7.657099e+00
   1.002383e+01  -8.533836e+01
   8.839259e+01  -2.598367e+01
   3.118119e+01  -1.273034e+02
   1.147978e+02   1.952998e+01
   1.603996e+02   9.440275e+01
   1.056556e+01   1.934780e+02
  -1.406455e+02   1.004919e+02
  -8.981577e+01  -3.901165e+01
  -7.396981e+01  -9.339549e+01
  -5.901762e+00  -7.266359e+01
   4.140175e+01  -6.107313e+01
   5.327183e+01  -1.403850e+01
   1.885287e+01   3.784572e+01
  -1.979041e+01  -3.395225e-01
   3.091262e+01   3.402643e+01
   8.552054e+01  -1.339429e+01
   5.088876e+01   1.723943e+01
  -9.388137e+01   2.134109e+01
  -1.440311e+02  -3.039143e+01
  -1.164058e+02  -1.617343e+01
   4.824721e+01  -9.569760e+01
   7.631418e+01  -5.812793e+01
   1.594313e+02   7.284460e+00
   5.530407e+01  -2.197917e-01
  -5.127234e+01   2.739116e+01
  -7.287725e+01  -1.033349e+02
   6.768841e+00  -5.397575e+01
   3.228460e+01  -2.694605e+01
   7.141240e+01   1.170629e+01
   2.607420e+01   9.924006e+01
  -5.669704e+00   3.274790e+01
   2.305168e+00   5.307348e+01
   1.007238e+02   1.029102e+00
   1.559181e+00   7.415284e+01
  -1.342193e+01   1.788913e+02
  -1.361698e+02   1.237358e+02
  -1.356778e+02  -1.406254e+00
  -1.299690e+02  -9.488360e+01
   4.403401e+01  -9.815002e+01
   5.787111e+01  -6.450950e+01
   8.724446e+01  -1.503708e+01
  -8.750689e+01  -1.305518e+01
  -1.107010e+02   2.915374e+01
  -6.922223e+01  -6.404940e+01
   9.633856e+01  -1.156180e+02
   1.358227e+02   4.153519e+01
   6.580321e+01   7.508607e+01
   4.133138e+01   8.165727e+01
  -5.561531e+01   2.185248e+01
  -5.541245e+01  -1.770955e+01
   3.710400e+01  -7.231631e-01
  -1.972623e+01   1.321570e+01
   4.388369e+01   7.885802e+01
  -6.100114e+01   9.394141e+01
  -1.337799e+02   7.560786e+01
  -3.783079e+01  -9.927699e+01
   1.505154e+01  -1.437227e+02
   3.982181e+01  -1.529186e+02
   4.713576e+01   2.812607e+01
   6.515009e+00   1.025309e+02
   2.010144e+01   9.868458e+01
  -1.000263e+02   4.675895e+01
  -9.153860e+00   6.041095e+01
   3.328179e+00  -3.055918e+01
  -3.548232e+01  -1.450690e+01
  -2.843280e+01  -2.132538e+01
  -4.755495e+01  -1.230489e+02
  -1.012486e+01  -8.147769e+01
  -1.760444e+01  -6.269762e+01
   1.104061e+02   1.811318e+01
   2.234650e+01   5.162663e+01
   5.572408e+01   4.115422e+01
  -5.517857e+01   2.377050e+01
  -7.095450e+01  -5.696657e+00
  -1.731667e+01   1.030960e+01
   2.515158e+00   3.724725e+01
   4.908027e+01  -6.188536e+00
  -4.415546e+01  -1.350014e+00
   4.055872e+00  -8.577485e+00
   8.187554e+01   2.946599e+01
   8.783227e+01   1.547606e+01
   1.662362e+01   7.423641e+01
  -7.454478e+01   1.581454e+02
  -7.962936e+01   8.305723e+01
  -1.253816e+02  -1.014131e+02
  -2.928323e+01  -1.166626e+02
   3.542139e+01  -9.451714e+01
   1.052146e+02   1.779765e+01
   4.828749e+01  -3.935296e+01
  -2.277136e+01   4.699595e+01
   1.397490e+01   1.970925e+01
   3.167601e+01   2.129987e+01
  -7.692955e+00   9.862666e+01
  -4.745309e+01   1.201937e+02
  -1.567918e+01   3.203785e+01
  -1.541346e+01  -3.537766e+01
  -6.874521e+01  -9.915824e+01
   4.027744e+00  -1.013298e+02
   3.930519e+01   4.595107e+00
   6.611763e+01   2.831387e+01
   3.926446e+01   6.274957e+01
  -5.403491e+01   6.142775e+01
  -3.492889e+01  -1.035718e+01
  -4.489748e+01  -5.051499e+01
   3.435797e+01  -1.869131e+01
   3.281074e+01  -7.568218e+01
  -2.789578e+01  -3.288870e+01
  -7.182475e+01   7.606447e-01
  -2.672291e+01  -2.258212e+01
   7.446103e+01  -4.994953e+01
   1.128225e+02  -1.148592e+02
   3.225366e+01   3.803440e+01
  -1.681814e+01   7.158075e+01
  -4.592211e+01   8.450233e+00
  -9.337497e+00   8.305472e+01
   1.670900e+01  -7.581057e+01
   4.061592e+01  -5.344590e+01
   2.642404e+01   5.649281e+00
   1.757428e+01   4.080951e+01
   5.151414e+00   2.831689e+01
  -2.524470e+01  -6.012397e+00
   3.915201e+00  -7.789952e+01
  -1.381449e+01  -4.695126e+01
  -3.326538e+01  -7.116797e+00
  -6.271850e+01  -5.666268e+01
  -1.327503e+01  -2.970438e+00
   8.150096e+00  -9.699350e+00
   3.303548e+01  -3.944557e+01
   3.532436e+01  -4.013630e+01
   9.959319e+00   3.649521e+01
  -3.750966e+01   4.964267e+01
  -7.310355e+01   2.019669e+00
   2.854310e+00  -8.990332e+01
   4.629347e+01   5.323283e+00
   8.604938e+01   2.212325e+01
   4.986756e+01   3.373022e+01
   1.522422e+01   2.783019e+01
   2.674954e+01  -2.452278e+01
  -2.070052e+01  -1.998205e+01
   3.558780e+01   2.620192e+00
   2.434740e+01  -7.750195e+00
  -2.615652e+01   4.815883e+00
  -3.429285e+01   4.093222e+01
