
 $NMID
 id='ANONYMOUS ', fmtdat='(2E16.6)'
 volume=1.0
 tramp=1.0
 $END
   6.326842e+02   1.644068e+02
   2.300781e+02   4.922825e+02
  -2.302803e+02   3.902693e+02
  -4.041725e+02  -4.976323e+01
  -2.076505e+02  -1.945114e+02
   2.020335e+02  -8.873757e+01
   1.400634e+02   1.184836e+02
  -9.847508e+01   1.745260e+02
  -2.095344e+02   3.728256e+01
  -1.884126e+02  -9.086673e+01
  -1.440193e+01  -1.370219e+02
   6.706449e+01  -1.474966e+02
   6.463689e+01  -3.245490e+01
   1.741337e+00   1.041789e+02
  -7.361631e+01   9.963444e+01
  -8.052049e+01   2.284116e+01
   2.234131e+01  -1.213172e+02
   1.008453e+02  -9.662244e+01
   1.232202e+02   6.413381e+01
   7.556274e+01   8.302589e+01
  -2.932810e+01   7.499173e+01
  -4.888611e+01   2.183950e+01
  -6.251224e+01   2.007379e+01
   2.165441e+00  -3.128389e+01
   2.431765e+01   2.407335e+01
   1.746015e+01   7.741690e+01
  -5.072262e+01   4.573218e+01
  -1.619461e+02  -7.485344e+01
  -3.089216e+01  -1.149649e+02
   5.632752e+01  -2.937288e+01
   1.609035e+02   1.095776e+00
   3.322053e+01   1.504355e+02
   1.030273e+01   8.791450e+01
  -7.012709e+01   2.207934e+01
  -6.024559e+01  -5.423600e+01
   1.324102e+01  -5.527270e+01
   2.161578e+01  -1.243054e+01
   8.159266e+01   3.283050e+01
  -6.243658e+01   6.817037e+01
  -1.293688e+02  -3.778597e+01
  -3.967097e+01  -1.529715e+02
   5.960298e+01  -6.125005e+01
   1.543952e+02   1.642578e+01
  -8.371775e+00   7.813423e+01
  -3.125647e+01   1.724141e+00
  -9.592050e+01  -6.566162e+01
  -4.040241e+01  -1.016421e+02
  -1.050464e+01  -6.472796e+00
   1.365185e+01   7.411800e+01
  -5.864176e+01   9.658457e+01
  -9.981449e+01   1.836275e+01
  -6.036915e+01  -4.951426e+00
  -2.758348e+01  -3.663310e+01
   9.244170e+01   3.294635e-01
   7.761069e+01  -7.230349e+00
   3.013242e+01   1.611261e+01
   6.016861e+00   3.301223e+01
  -5.652212e+01  -5.851113e+01
   9.058771e+01  -6.163199e+01
   1.002511e+02  -1.250015e+01
   1.961205e+01   7.629893e+01
  -1.381887e+01   3.624135e+00
   1.503830e+01  -2.788178e+01
  -9.785965e+01  -2.821340e+01
  -5.108169e+01   4.267497e+01
   4.932234e+01  -1.912894e+01
   3.389134e+01   2.267700e+01
   9.015254e+01   6.379200e+01
  -5.955291e+01   6.792474e+01
  -5.333987e+01   2.708921e+01
   2.423640e+01  -2.350722e+01
  -7.582280e-01  -5.072104e+01
  -1.945174e+01   2.743318e+01
  -4.168542e+01  -3.485123e+01
  -1.508209e+01  -6.670933e+01
  -1.755211e+01  -1.443163e+01
   2.612348e+01   5.142028e+00
   3.673591e+01  -2.190968e+01
  -1.714873e+00   2.899237e+01
  -5.771769e+01   4.194420e+01
  -3.083177e+01   1.729760e+01
   1.235602e+00  -3.864284e+01
   1.209482e+01  -7.149166e+01
   7.054756e+01  -3.229773e+01
   9.549238e+01   2.313298e+01
  -2.829639e+01   9.417257e+00
   3.472080e+00  -2.382388e+01
   5.078540e+01   4.505967e+01
  -1.693347e+01   3.646370e+01
  -2.691101e+01   6.368497e+01
  -1.294829e+01   7.012512e+01
  -7.172837e+01   6.720734e+01
  -1.026781e+02  -4.611456e+00
   1.893330e+01   2.802968e+01
  -1.907979e+01  -2.232369e+00
   7.232810e+01   2.640310e+01
   2.280944e+01  -9.997557e+00
  -5.687561e+01   2.200270e+01
   8.469139e+00   7.637423e+00
  -2.521827e+01  -5.864950e+01
   3.427326e+01  -2.514127e+01
  -2.154816e+01   3.108945e+01
   2.974863e+01   3.238314e+01
  -2.718779e+01  -3.369402e+01
   5.173654e+00  -6.056021e+01
   7.938661e+00  -3.310863e+01
   3.034911e+01   4.748979e+01
   6.103325e+01   4.261646e+01
   5.791976e+01   7.995935e+01
  -4.238123e+00   2.772341e+01
  -5.862946e+01   7.651462e+01
  -1.126959e+01   3.715684e+01
  -6.349050e+01  -2.060096e+01
   3.374488e+01   9.053032e-01
  -2.261428e+01  -1.172864e+01
   3.951930e+01   3.302689e+01
   1.808694e+00  -6.739041e+00
  -3.449963e+01  -1.253794e+00
   1.799299e+01  -3.015250e+01
  -3.097571e+01   8.926410e+01
   1.525547e+00  -1.789351e+01
  -2.506173e+01  -4.082788e+01
   2.040229e+00   1.976884e+01
   2.822305e+01  -3.907995e+01
   7.995350e+01   2.805130e+01
   1.227774e+02   1.098946e+01
  -2.131028e+01  -4.933128e+01
   4.638575e+01   2.270097e+01
  -3.985040e+00   1.680394e+01
   5.576695e+01  -5.972794e+01
  -4.107770e+00   6.524218e+00
   9.710631e+01   5.389085e+01
   8.430007e+01   6.634047e+01
   5.593715e+00   2.271187e+01
  -3.130303e+01  -2.297513e+01
  -3.712455e+01  -4.144220e+01
   3.734866e+01  -3.963081e+01
  -3.082464e+01   1.766707e+01
  -6.032386e+00   1.578488e+01
   1.030232e+01  -5.421396e-01
  -1.727812e+01  -2.341470e+01
   1.975100e+01  -4.302347e+01
   3.342719e+01  -3.007711e+00
   3.218102e+01   5.878729e+01
   1.149408e+01   2.238309e+01
  -1.490660e+01   4.441352e+01
   1.964466e+01   4.574702e+01
   3.170398e+01   2.809485e+01
  -2.783296e+01  -2.774352e+01
  -5.577714e+01   4.721742e+01
  -3.121185e+01  -5.020387e+01
   1.062092e+01  -2.540269e+01
  -7.784713e+00  -1.176869e+01
  -4.641400e+00  -1.888423e+01
   6.105978e+01   3.923069e+01
   3.266716e+00   5.131956e+01
  -4.099917e+01   8.478391e+01
  -6.592241e+01   9.665550e+00
   1.165904e+01  -1.272587e+01
  -2.490963e+01  -3.161940e+00
   1.419996e+01   4.182262e+01
   4.196153e+01  -3.650955e+01
  -6.184790e+01  -5.398470e+00
  -8.937060e+00  -2.246166e+01
   4.615404e+01   2.582503e+01
   2.374946e+01   3.607845e+01
  -5.778225e+00  -4.428972e+00
  -9.724568e+00  -1.128795e+01
  -3.554059e+01  -3.054554e+00
  -5.819865e+00  -2.628957e+00
  -6.700143e+01  -4.522634e+01
  -2.985373e+01   1.185512e+01
   5.803256e+01  -6.591184e+00
  -6.361579e+01   6.429834e+01
  -1.310362e+01   2.232828e+01
  -2.808335e+01   3.483883e+01
  -4.173260e+01   2.489052e+01
  -7.107663e+00   6.354916e+01
   1.221528e+01  -2.216041e+01
   2.584944e+01   7.347835e+01
  -2.702665e+01   1.705715e+00
  -2.973713e+01  -1.127458e+01
  -2.941919e+01  -3.377649e+01
   6.790886e+01  -2.040818e+01
   2.493757e+01   2.009388e+01
  -1.034446e+01   2.426583e+01
  -1.069046e+01  -4.721695e-01
  -1.269444e+01   2.248542e+01
   8.149935e+00  -1.775854e+01
  -2.970582e+01  -3.725858e+01
   6.721133e+01   5.710555e+01
  -4.552569e+01  -8.442055e+00
   1.480317e+01   1.732952e+01
  -3.674187e+01  -5.433023e+01
  -5.956314e+01  -1.277770e+01
   7.063002e+01  -6.088433e+01
   4.274192e+01   7.956527e+00
   7.087139e+01  -4.277023e+01
  -6.717189e+01   2.024485e+01
   5.885472e+00  -2.888553e+00
   1.232342e+01   5.506568e+01
  -7.814022e-01   3.188552e+01
   1.519605e+01   1.815742e+01
   4.063826e+01   2.377271e+01
   7.896742e+01   7.684951e+01
  -3.038152e+01  -8.664204e+00
  -2.338638e+00  -9.524683e+00
   1.382834e+01  -2.498566e+00
   4.902295e+01   3.883943e-01
  -8.725599e+00  -7.859050e+01
   2.009968e+01  -4.424902e+01
   6.439858e+01  -2.277694e+01
   5.371464e+01  -4.862804e+00
   5.174222e+01  -5.212057e+00
  -5.029654e+01  -2.380959e+00
  -1.044646e+00   4.803408e+01
  -1.432865e+01  -2.846229e+01
  -4.878598e+01  -2.027208e+01
   1.064762e+01  -6.048521e+00
  -3.044087e+01  -2.099744e+01
   2.370684e+01   1.098381e+01
   3.669868e+01  -4.241802e+01
  -1.514783e+01  -1.175918e+01
  -4.225610e+01  -6.367053e+01
  -2.446481e+01  -3.679244e+01
   1.274724e+01   6.755349e+00
  -2.468533e+01   3.669340e+01
  -2.679505e+01   1.167758e+01
  -2.493816e+01  -3.164600e+01
  -3.170675e+01   1.868813e+01
  -3.384577e+01   1.583322e+01
   2.384872e+01  -4.390646e+01
   1.630420e+01   6.586065e+01
   7.796530e+00   4.928664e+01
   9.043190e+00   1.114382e+01
  -5.409377e+01  -1.509775e+00
  -2.477441e+00  -1.057334e+01
  -1.615172e+01   2.442167e+00
  -7.608967e+00   2.724294e+00
  -4.428008e+01  -6.902814e+01
   2.415592e+01   1.844767e+01
   7.111572e+01   4.178055e+01
   1.177775e+01   3.640321e+01
  -1.303220e+01   3.632058e+01
  -4.903274e+01   5.087938e+01
  -7.220071e+01  -4.674863e+01
   2.437790e+01   4.584970e+01
   1.559025e+01  -1.660782e+01
   1.247317e+01  -1.819437e+01
   3.448135e+00   2.930156e+01
   4.964689e+00  -6.383201e+01
   2.840489e+01  -1.637861e+01
  -1.908097e+01   1.143584e+01
   4.392144e+01   1.191592e+01
  -5.187049e+01  -2.926800e+01
  -5.358431e+01   1.905237e+01
   4.723923e+00  -1.495026e+01
  -6.729508e+00  -2.036428e+01
   2.683932e-02  -2.835995e+01
  -1.046185e+01  -1.863231e+01
   1.202411e+01   3.079517e+01
   1.796236e+01   1.115006e+01
  -1.442278e+00   1.491467e+01
   4.251602e+01   3.239577e+01
  -4.153048e+01  -3.631518e+01
  -2.699690e+01   1.449477e+01
   1.398556e+01   1.385245e+01
   5.100267e+01   6.810501e+01
  -5.223559e+00   3.966359e+01
  -1.801092e+01  -1.607178e+00
   8.758380e+00  -7.035518e+01
   1.285726e+01  -2.384740e+01
   2.006322e+01  -2.950138e+01
   1.535087e+01   3.228119e+01
   1.914422e+01  -3.727444e+00
  -5.262598e+01   1.345937e+01
  -3.917077e+01  -2.034621e+01
  -4.055361e+01  -2.523180e+01
   4.443674e+01   7.370527e+01
   2.696599e+01   1.162795e+01
  -1.934091e+01   2.826591e+01
  -1.566358e+01   2.675691e+01
   6.867514e+01   3.563292e+01
  -1.244205e+01   2.386517e+01
   1.667828e+01  -1.005889e+01
   3.715773e+00   4.744937e+00
  -9.058654e+01  -1.500854e+01
  -2.508386e+01  -5.392343e+01
   1.048045e+01  -4.490256e+01
   1.208856e+00   1.261313e+01
   2.128793e+01  -2.253716e+01
   1.033832e+01   5.554323e+01
   2.581570e+01  -2.187794e+01
   3.928544e+01  -1.217071e+01
  -2.418380e+01   1.519165e+01
   2.926939e+00  -4.140924e+01
  -1.375201e+01   2.309201e+01
   2.499486e+00   4.533243e+00
  -2.992936e+01   2.196103e+01
  -3.998817e+01  -2.692182e+01
   8.780059e-01  -3.644323e+01
   1.908088e+01   3.302744e+01
  -1.519198e+01   9.163034e-01
  -8.415839e+01  -1.787309e+01
   4.291619e+01   3.974963e+01
  -3.507681e+01  -3.106330e+01
  -1.590265e+01   1.973395e+01
   6.298314e+01   7.181052e+00
  -3.628251e+00   2.289985e+01
   7.023398e+00   2.474247e+01
   2.794284e+01   1.962790e+00
   3.512542e+01  -3.359738e+00
  -4.267348e+01   1.428480e+00
  -7.642942e+00  -2.567459e+01
   9.870399e+00   2.917728e+01
  -4.089921e+00   2.947087e+01
  -2.367293e+01  -2.624222e+00
   1.233567e+01   1.545384e+00
  -2.138696e+01   1.029962e+01
   7.538856e+01   3.289339e+01
