
 $NMID
 id='ANONYMOUS ', fmtdat='(2E16.6)'
 volume=1.0
 tramp=1.0
 $END
   3.200151e+03   2.202333e+02
   2.117937e+03   1.710383e+03
   3.076342e+01   2.032089e+03
  -1.212147e+03   1.256209e+03
  -1.002778e+03   2.479199e+02
  -7.793236e+01  -1.529673e+02
   2.941609e+02   1.003456e+02
   2.893814e+01   5.536384e+02
  -4.071553e+02   5.145077e+02
  -5.972281e+02   6.894473e+01
  -4.476282e+02  -4.912427e+02
  -2.736230e+01  -6.051600e+02
   2.744605e+02  -1.753722e+02
   2.146199e+02   4.223310e+02
  -1.371353e+02   5.044196e+02
  -4.075489e+02   6.260426e+01
  -2.724298e+02  -4.342563e+02
   1.230641e+02  -5.818449e+02
   4.601970e+02  -3.512289e+02
   4.847523e+02   1.534880e+02
   9.594858e+01   3.162030e+02
  -1.226696e+02   1.612652e+02
  -3.408236e+01   1.064964e+02
   2.104721e+02   1.061928e+02
   2.764799e+02   3.576720e+02
  -6.198392e+01   3.331374e+02
  -5.442140e+02   1.382020e+02
  -5.553803e+02  -2.148515e+02
  -1.974322e+02  -3.366502e+02
   3.202444e+02  -1.494389e+02
   4.880627e+02   2.206801e+02
   1.400777e+02   3.025928e+02
  -2.855069e+02   3.297795e+02
  -4.503740e+02   7.754199e+01
  -2.797613e+02  -1.805026e+02
  -7.239000e+01  -2.964665e+02
   9.217749e+00  -1.962233e+02
  -1.241791e+02   1.377259e+02
  -1.981485e+02   1.243627e+02
  -1.848932e+02  -1.849054e+02
  -5.558344e+00  -4.357486e+02
   2.511850e+02  -4.692382e+02
   2.788437e+02   4.880384e+01
   8.329372e+01   3.015091e+02
  -2.066781e+02   1.278618e+02
  -8.143201e+01  -3.149154e+02
   1.634015e+02  -3.987193e+02
   4.665089e+02   1.511505e+01
   4.381876e+02   3.396132e+02
   1.448150e+02   4.636218e+02
  -2.683479e+02   2.562261e+02
  -5.302269e+02  -1.195833e+02
  -3.039749e+02  -2.714562e+02
   4.822303e+01  -1.682157e+02
   2.871169e+02  -6.033538e+01
   2.125056e+02   2.684584e+01
  -6.516448e+01   2.823711e+01
  -5.689853e+01  -1.705529e+01
   1.171658e+02  -5.453293e+01
   1.721231e+02   2.705650e+01
   1.036251e+02   1.579046e+02
  -1.412696e+02   2.817639e+02
  -4.067995e+02   1.266257e+02
  -3.276620e+02  -1.112275e+02
   1.400595e+00  -3.708650e+02
   3.422164e+02  -3.858196e+02
   4.198183e+02  -1.574085e+02
   2.635302e+02   1.847989e+02
   3.173347e+01   4.111692e+02
  -8.458186e+01   3.105439e+02
  -4.941047e+01   2.078159e+02
  -2.051010e+01   1.033313e+02
  -1.717934e+02   1.106406e+02
  -3.041560e+02   2.993903e+01
  -2.524542e+02  -1.406340e+02
  -5.514824e+01  -2.731603e+02
   1.339178e+02  -1.140717e+02
   2.241065e+02   9.676918e+01
   6.638452e+01   3.062196e+02
  -6.311240e+01   1.791728e+02
  -3.159763e+02   1.788039e+01
  -3.261512e+02  -1.916014e+02
  -1.081401e+02  -2.897323e+02
   8.159688e+01  -2.535042e+02
   1.694493e+02  -2.185779e+02
   1.661203e+02  -7.459277e+01
   2.043355e+02  -1.382191e+02
   2.857026e+02  -5.189218e+01
   3.970775e+02   1.425910e+02
   3.193323e+02   3.351741e+02
  -1.086686e+02   4.271528e+02
  -4.375972e+02   4.621764e+02
  -4.890590e+02   1.108594e+02
  -2.583031e+02  -1.305387e+02
  -6.390716e+01  -2.625567e+02
   1.210220e+02  -1.827533e+02
  -6.881727e+00  -6.165183e+01
  -9.835154e+01   2.246644e+01
  -1.367505e+02  -3.426267e+00
   2.801205e+01  -1.574136e+02
   1.753275e+02  -1.620107e+02
   1.237736e+02   5.429680e+01
  -9.984030e+01   1.213297e+02
  -1.611538e+02  -2.768074e+01
  -1.253276e+02  -3.004503e+02
   8.195835e+01  -3.619045e+02
   2.581752e+02  -2.393752e+02
   3.407374e+02   1.028781e+02
   2.654948e+02   2.772790e+02
   5.639353e+01   2.775628e+02
  -1.045859e+02   1.186496e+02
  -1.458478e+02  -4.844885e+00
  -2.679650e+01  -5.366315e+01
   6.662093e+01   8.599418e+01
   1.088529e+00   8.650056e+01
  -1.452445e+02   7.823207e+01
  -1.988391e+02  -4.997738e+01
  -2.059008e+01  -4.291380e+01
   9.013283e+01   4.895507e+01
   5.715536e+01   1.052837e+02
  -1.673304e+02   1.528288e+02
  -3.305131e+02  -3.143705e+01
  -2.510129e+02  -2.196735e+02
  -1.942534e+01  -2.843295e+02
   2.430424e+02  -1.727504e+02
   2.624584e+02  -7.537689e+01
   1.078194e+02   6.469997e+01
  -3.186940e+01   7.277339e+01
   1.472840e+01  -2.848889e+01
   3.964914e+01  -1.152594e+02
   1.958075e+02  -6.888987e+01
   2.175678e+02   1.464733e+02
   6.820795e+01   1.539328e+02
  -1.094846e+02   6.212671e+01
  -1.751754e+02   4.715443e+00
  -9.589503e+00  -5.587488e+01
   5.909205e+01  -4.567873e+01
  -2.202663e+01   1.319852e+02
  -1.189454e+02   1.189448e+02
  -2.144473e+02   1.229025e+01
  -1.505675e+02  -1.744208e+02
  -1.033918e+02  -2.113361e+02
   1.811999e+02  -2.286570e+02
   2.399713e+02  -3.642430e+01
   1.158149e+02   8.718034e+01
  -1.402636e+02   1.066076e+02
  -1.698745e+02   4.046447e+01
  -3.314094e+01  -3.534546e+01
   3.611738e+01  -4.712633e+01
  -2.854258e+00   2.952483e+01
  -1.084436e+02  -7.823610e+00
  -8.208380e+01  -1.344478e+02
   1.778277e+01  -2.261390e+02
   1.359647e+02  -1.999330e+02
   3.225136e+02   4.290959e+01
   2.050485e+02   1.845946e+02
   2.698084e+01   2.216054e+02
  -8.153733e+01   1.135526e+02
  -1.352767e+02   7.930651e+00
  -9.586217e+01  -6.796245e+01
  -6.093642e+01  -1.409375e+01
  -9.941363e+01  -5.023932e+01
  -1.317605e+02  -2.445376e+01
  -3.537050e+01  -6.494197e+01
   3.537098e+01  -1.328473e+02
   1.409396e+02  -8.067470e+01
   7.012713e+01   8.508353e+01
  -8.094710e+01   1.499950e+02
  -2.238932e+02   1.554904e+02
  -2.023051e+02  -9.473395e+01
  -7.547842e+01  -2.076351e+02
   1.376011e+02  -2.598484e+02
   2.651515e+02  -3.509066e+01
   2.206569e+02   1.026506e+02
   3.333837e+01   1.802015e+02
  -6.449402e+01   1.728255e+02
  -8.091626e+01   9.366834e+01
  -7.049528e+01   3.685241e+01
  -9.317109e+01   1.010052e+02
  -7.796783e+01   1.187011e+02
  -1.014252e+02  -1.197746e+00
  -1.739599e+02  -1.877803e+02
   3.967350e+01  -2.583707e+02
   9.387255e+01  -1.691759e+02
   1.503442e+02  -9.877691e+00
   1.481827e+02   1.065149e+02
   3.335880e+01   1.408829e+02
  -9.111538e+01   6.548372e+01
  -1.024444e+02  -6.954359e+01
   1.759698e+01  -6.855163e+01
   1.538644e+01  -4.264381e+01
  -4.426439e+01  -2.337766e+00
  -1.250032e+02  -1.349329e+01
  -2.525399e+01  -4.086861e+01
   7.228382e+01  -7.981987e+00
   2.221665e+02   3.743357e+01
   1.193313e+02   3.981458e+01
   2.291659e+00   1.216145e+02
  -1.679963e+02   9.245952e+01
  -1.690176e+02   5.392443e+01
  -3.920379e+01  -7.561702e+01
   4.125308e+01  -2.565271e+01
   1.075940e+02   6.004537e+01
  -4.895228e+01   7.037258e+01
  -4.877441e+01   1.169807e+02
  -1.196239e+02   7.577065e+00
  -9.000926e+01  -6.135597e+01
  -6.156840e+01  -6.833870e+01
  -9.127731e+01   4.983571e+01
  -5.914497e+01  -9.359821e-01
  -1.011039e+02  -1.147960e+02
  -1.221230e+01  -1.270637e+02
   9.586063e+01  -1.191862e+02
   1.403360e+02  -2.901758e+01
   1.300574e+02   1.651912e+02
  -2.584361e+01   1.194987e+02
  -1.005133e+02   2.306350e+01
  -1.966401e+01  -1.230992e+01
   1.439240e+02  -6.580175e+01
   1.649333e+02   3.366799e+01
   5.750816e+01   1.382196e+02
  -6.989483e+01   1.121996e+02
  -1.978180e+02   4.680696e+01
  -1.082670e+02  -3.690205e+01
  -2.808661e+01  -4.391970e+01
   2.094251e+01  -1.512883e+01
   5.224849e+01   1.213042e+01
  -3.231832e+01   3.342645e+01
  -3.259718e+01  -4.670743e+01
   2.848931e+01  -1.927749e+02
   1.086435e+02  -1.524397e+02
   1.879923e+02  -1.144133e+01
   2.247303e+02   1.486966e+02
   2.155280e+01   1.869117e+02
  -1.100496e+02   1.700642e+02
  -8.722371e+01   1.248651e+00
  -8.102004e+01  -9.380580e+01
   7.258098e+01  -7.944142e+01
   5.939218e+01  -3.832250e+01
   6.313780e+01   6.395044e+01
   7.689871e+01   2.336407e+00
   2.691303e+00  -4.329253e+01
   7.442641e+01   3.026889e+01
   7.161186e+01   4.230721e+01
  -1.157113e+01   3.324506e+01
  -7.234292e+01   8.602164e+01
  -1.909339e+02   2.448380e+00
  -1.097676e+02  -1.045398e+02
   3.647458e+01  -1.117409e+02
   1.113960e+02  -3.853491e+01
   5.545911e+01   9.329909e+00
   1.910368e+00   3.898835e+01
  -4.844220e+01   4.621359e+01
  -2.953280e+00   4.658123e+00
   1.530017e+01   1.860206e+01
   2.236721e+01   1.050451e+01
  -7.562700e+01   7.860959e+00
  -1.005796e+02  -4.942370e+01
  -2.940289e+01  -1.138318e+02
   1.988821e+02  -1.293668e+02
   1.662648e+02  -2.689972e+01
   1.324376e+02   1.897807e+01
  -4.144395e+01   1.521631e+02
  -5.033302e+01   1.709360e+02
  -1.479518e+02   7.809418e+01
  -7.241644e+01  -5.866463e+01
  -5.093201e+01  -1.397194e+01
   3.024884e+01  -5.492909e+01
  -5.281751e+00  -4.652680e+01
  -1.558435e+01  -5.853004e+01
   3.737770e+01  -9.126778e+01
   6.467194e+01  -8.772148e+01
   6.090590e+01  -3.671177e+01
   1.001371e+02   1.121188e+02
   4.488991e+01   9.077363e+01
  -1.303361e+01  -1.264193e+01
  -1.407515e+02   5.323947e-01
  -3.077549e+01  -1.636069e+02
   5.984295e+01  -1.132015e+02
   5.462009e+01   4.162580e+01
   2.466268e+01   3.813317e+01
  -4.724783e+01   9.625902e+01
  -5.037382e+01   2.270343e+01
   4.569856e+01   3.209644e+01
   3.549833e+01   2.424253e+01
  -2.469511e+01  -2.006850e+01
  -8.425470e+01   4.374272e+01
  -1.733010e+02   3.198104e+01
  -5.726395e+01   6.045111e-02
   5.574228e+01  -6.379990e+01
   4.426337e+01  -9.309085e+01
   7.303040e+01   3.304919e+01
   4.670519e+01  -2.445273e+01
  -4.638956e+01   6.264917e+01
   1.556772e+01  -5.793276e+01
  -4.667035e+01  -3.851454e+01
   9.591871e+00  -4.473675e+01
   2.699016e+00  -5.252212e+01
   5.094428e+01  -5.337063e+00
   1.393871e+01  -4.209009e+01
  -3.385018e+01   1.222970e+01
  -2.811525e+01   3.687632e+01
   3.583587e+00  -3.484391e+00
  -2.902551e+01   9.277580e+01
  -7.313148e+01  -2.869609e+01
  -3.539873e+01  -1.104399e+01
   3.478173e+01  -4.940239e+01
   1.087305e+02  -7.135908e+01
   4.651479e+01   4.846249e+01
   2.458018e+00   5.464817e+01
  -6.305696e+01   8.674234e+01
  -2.489126e+01   2.742021e+01
  -8.011773e+01  -2.388487e+01
   2.386794e+01  -1.692425e+01
   4.509261e+01  -1.363417e+01
   4.345807e+01  -3.239159e+01
  -1.721945e+00  -4.515229e-02
  -2.644247e+01   5.549936e+01
   2.485990e+01  -6.065618e+01
   7.834165e+01  -3.456931e+01
