
 $NMID
 id='ANONYMOUS ', fmtdat='(2E16.6)'
 volume=1.0
 tramp=1.0
 $END
  -4.227966e+03   1.592760e+02
  -2.511641e+03  -2.491711e+03
   6.868144e+02  -2.706287e+03
   2.012459e+03  -8.932087e+02
   8.453671e+02   6.846898e+02
  -6.454018e+02   5.846976e+02
  -8.991925e+02  -3.924188e+02
  -2.124611e+01  -1.077180e+03
   8.222343e+02  -7.100656e+02
   9.279808e+02   1.124264e+02
   4.148345e+02   8.494016e+02
  -2.230393e+02   8.699985e+02
  -6.425462e+02   1.509267e+02
  -3.434399e+02  -6.974208e+02
   2.067396e+02  -7.536862e+02
   6.079741e+02   1.504131e+00
   2.667960e+02   6.508557e+02
  -3.303505e+02   6.386796e+02
  -6.193194e+02   1.468884e+02
  -3.676637e+02  -3.646589e+02
  -2.486970e+01  -3.447968e+02
   2.942754e+02  -3.043097e+02
   2.093070e+02   4.159484e+01
  -9.197331e+01   1.172544e+02
  -4.322065e+02  -7.100570e+01
  -1.636883e+02  -3.667154e+02
   3.986087e+02  -4.467612e+02
   8.292447e+02   3.786750e+01
   4.154147e+02   4.997999e+02
  -3.758057e+02   5.241421e+02
  -7.206990e+02   6.723704e+00
  -3.693460e+02  -4.434578e+02
   1.907983e+02  -5.295997e+02
   5.178708e+02  -2.115218e+02
   4.572409e+02   2.320954e+02
   1.080616e+02   3.913508e+02
  -1.936002e+02   2.656751e+02
  -1.855252e+02  -2.017305e+02
   1.080289e+02  -4.338154e+02
   4.222025e+02   1.923316e+00
   2.475168e+02   7.038186e+02
  -2.308611e+02   6.898120e+02
  -6.107214e+02  -1.257242e+01
  -3.148188e+02  -4.843967e+02
   2.639753e+02  -3.081553e+02
   4.133780e+02   2.613382e+02
  -5.633613e+01   5.753327e+02
  -5.512388e+02   1.492883e+02
  -5.921050e+02  -3.901214e+02
  -2.114570e+02  -5.367074e+02
   3.383796e+02  -2.931296e+02
   6.433422e+02   3.761158e+01
   3.039811e+02   3.309854e+02
  -1.586872e+02   4.228928e+02
  -4.360748e+02   2.833395e+01
  -2.064077e+02  -2.161918e+02
   6.746373e+01  -6.663024e+01
   1.127537e+02   1.157720e+02
  -2.139843e+02   2.249470e+02
  -4.105972e+02  -2.116417e+01
  -1.519467e+02  -3.102369e+02
   2.052829e+02  -2.813593e+02
   3.139875e+02  -1.125399e+02
   1.958271e+02   1.122448e+02
   3.660564e+00   2.241854e+02
  -2.134977e+02   2.558762e+02
  -3.137713e+02   1.788289e+02
  -2.874560e+02  -1.563358e+02
  -8.439961e+01  -4.114930e+02
   5.136072e+01  -3.770528e+02
   8.854352e+01  -7.220921e+01
   2.456920e+01   7.011047e+00
   4.110697e+01  -8.871785e+01
   2.123827e+02  -1.383450e+02
   2.567652e+02   5.007753e+01
   1.948365e+02   2.424477e+02
  -3.150912e+01   2.354466e+02
  -2.299514e+02   4.936862e+01
  -2.682710e+02  -1.970709e+02
  -1.334426e+01  -3.086809e+02
   1.796485e+02  -7.295600e+01
   3.428747e+02   1.149835e+02
   2.501242e+02   3.203846e+02
  -4.909214e+01   2.870745e+02
  -2.270391e+02   1.454880e+02
  -1.539906e+02   1.666020e+01
  -1.135852e+02   3.789339e+01
  -2.361525e+02   1.140120e+02
  -4.155134e+02  -9.601640e+00
  -3.444206e+02  -2.753036e+02
   1.794001e+01  -3.860483e+02
   2.839850e+02  -3.955351e+02
   4.283883e+02  -1.863623e+02
   3.325326e+02   3.605679e+01
   3.149587e+01   2.325219e+02
  -9.702318e+01   1.964188e+02
  -4.821563e+01   2.792244e+01
   1.140026e+01  -6.836659e+01
   1.920321e+02   5.966596e+01
   5.453023e+01   1.522267e+02
  -1.616261e+02   1.883055e+02
  -1.654477e+02  -8.005932e+01
   1.939055e+01  -1.768194e+02
   1.843743e+02  -2.296811e+01
   1.846974e+02   2.352858e+02
  -5.003235e+01   3.529514e+02
  -2.393003e+02   1.124831e+02
  -2.822786e+02  -4.544748e+01
  -3.238264e+02  -2.785822e+02
  -1.354367e+02  -2.494568e+02
   2.876554e+01  -2.049611e+02
   1.786731e+02  -7.030202e+01
   5.822669e+01   3.461555e+01
  -8.317891e+01  -5.219031e+01
  -6.665567e+00  -1.243855e+02
   1.057235e+02  -2.926852e+01
   1.727444e+02  -7.722354e+00
   2.134775e+01   7.391481e+01
  -4.161819e+01   1.900295e+00
  -7.559604e+01  -6.359928e+01
   9.061310e+01  -6.032630e+01
   2.613610e+02  -2.134764e+01
   3.103394e+02   1.209746e+02
   6.858285e+01   1.824636e+02
  -1.479662e+02   3.092822e+02
  -2.715110e+02   1.964635e+02
  -2.177408e+02  -9.050116e+00
   6.901405e+01  -1.423255e+02
   7.129419e+01   2.581798e+01
  -7.960767e+01   1.247940e+02
  -1.462560e+02   1.273802e+02
  -2.095554e+02  -9.245405e+01
  -1.436033e+02  -2.226200e+02
   1.056665e+02  -1.316918e+02
   1.550377e+02  -4.640354e+01
   3.594428e+01   2.107969e+01
  -5.620081e+01   4.286035e+01
  -4.857511e+01  -1.110949e+02
   3.185510e+01  -6.437021e+01
   1.786597e+02  -4.884029e+01
   1.492915e+02   1.334909e+02
   4.834417e+01   2.139385e+02
  -2.243362e+02   1.680894e+02
  -1.445894e+02   1.810322e+01
  -7.986039e+01  -7.452846e+01
   3.805373e+01  -8.450336e+01
   1.277920e+02  -5.960353e+01
   4.692529e+01   3.102105e+01
  -2.334156e+01   5.518843e+01
   1.781517e+01   6.037776e+01
   8.845507e+01   2.074085e+01
   8.554736e+01   8.977037e+01
  -1.433876e+01   1.206086e+02
  -1.336957e+02   1.406000e+02
  -2.594486e+02   3.815364e+01
  -2.031621e+02  -1.258477e+02
  -1.112712e+01  -2.206257e+02
   9.987461e+01  -1.472011e+02
   1.155256e+02  -6.238401e+01
   6.841514e+01   6.533079e+01
   1.954013e+01   2.615732e+01
   1.059421e+02  -4.656487e+01
   1.230167e+02  -1.759879e+01
   2.911817e+01   8.859348e+01
   5.434223e+01   7.211734e+01
  -8.555394e+01   8.249120e+01
  -3.532279e+01  -4.792180e+01
  -3.433803e+01  -7.800178e+01
   1.326442e+02  -1.004977e+02
   2.289338e+02  -2.295742e+01
   1.185837e+02   2.216382e+02
  -1.110013e+02   2.544846e+02
  -2.612790e+02   1.596886e+02
  -2.942823e+02  -4.896331e+01
  -1.272474e+02  -1.335421e+02
  -2.613702e+01  -1.549354e+02
   8.413342e+01  -9.300906e+01
   9.074518e+01  -8.330366e+01
   2.668189e+01  -8.298255e+01
   1.391421e+02  -2.749294e+01
   1.371812e+02   3.815016e+01
   1.396045e+02   1.122687e+02
   7.118384e+01   2.626565e+02
  -7.617410e+01   1.085545e+02
  -1.898014e+02  -8.054966e+00
  -9.106022e+01  -1.378798e+02
  -1.532486e+01  -1.617453e+02
   4.106872e+01  -1.395376e+02
   2.868881e+01  -6.218107e+00
  -8.991960e+00   3.053609e+01
  -2.539758e+01   5.571118e+01
   3.764858e+01   3.120223e+01
   1.485724e+02   6.546495e+01
   4.707721e+01   5.133476e+01
  -4.010778e-01   4.727427e+01
  -1.740787e+02  -2.476780e+01
  -1.943359e+02  -5.570372e+01
   3.098129e+01  -6.566243e+01
   1.551473e+02  -2.464782e+01
   1.519169e+02  -1.012144e+01
   7.121148e+01   6.132994e+01
  -3.992374e+01   4.951168e+01
  -9.121743e+01   8.806844e+00
   3.820062e+01  -1.151076e+02
   5.801071e+01  -2.662977e+01
   5.233694e+01   6.025827e+00
   6.174153e+01   9.627381e+01
   1.419569e+01   5.954201e+01
   2.668092e+01   1.411087e+01
   8.450554e+01  -9.227703e-01
   2.867281e+01   7.814283e+01
  -6.311145e+00   1.297619e+02
  -6.424363e+01   1.567866e+02
  -1.918419e+02   2.402236e+01
  -9.009784e+01  -2.144056e+01
  -2.275269e+01  -7.646248e+01
   1.201523e+02  -8.411080e+00
   2.475426e+01   7.433379e+01
  -8.363283e+01   2.907910e+01
  -9.121174e+01  -3.679040e+01
  -5.823894e+01  -1.128845e+02
   8.481199e+01  -1.274809e+02
   1.626486e+02  -6.815685e+01
   1.650288e+02   5.265836e+01
   7.049287e+01   5.172165e+01
  -2.174038e+01   3.014540e+01
  -1.777232e+01   3.073533e+00
   2.950302e+01  -6.117523e+01
   9.562260e+01   8.511655e+00
   4.699356e+00   1.255772e+02
  -1.226357e+02   1.562361e+02
  -1.602397e+02   6.746625e+01
  -1.346453e+02  -6.559633e+01
  -1.058320e+01  -1.884066e+02
   1.089887e+02  -1.263497e+02
   7.960109e+01   3.911998e+01
   7.207450e+01   1.538414e+02
   2.321451e-01   1.177176e+02
  -6.330299e+01   1.042044e+01
  -6.021586e+01  -4.476380e+01
  -1.868217e+01  -3.148758e+01
  -4.605950e+01   2.484028e+01
  -5.043263e+00  -5.729379e+01
  -1.492009e+01  -1.819176e+01
  -7.048060e+01  -1.177104e+02
  -8.466190e+00  -7.697454e+00
   1.640795e+02   1.012083e+02
   1.381648e+02   8.088508e+01
   3.408516e+01   7.238322e+01
  -6.297967e+01   6.275447e+01
  -9.223042e+01   4.317088e+01
   1.370387e+01  -1.653780e+01
   2.545406e+01  -9.356781e+00
   1.158437e+01   1.402981e+01
  -5.233943e+01   6.565559e+01
   2.336516e+01   1.807363e+01
   1.018148e+02   1.767214e+01
   1.002727e+02   4.009746e+01
  -8.022242e+00   9.801560e+01
  -1.038457e+02   1.116297e+02
  -1.634375e+02   1.154426e+02
  -1.775108e+02  -4.699818e+01
  -2.803102e+01  -1.842483e+02
   8.816353e+01  -9.274248e+01
   1.050381e+02  -3.987443e+01
   9.014071e+01   2.073870e+01
   5.058981e+01   1.389600e+02
   4.458772e+01   3.376795e+01
   2.173767e+01   3.239460e+01
   5.391089e+00   4.912361e+01
  -3.433730e+00   5.301840e+01
  -2.634636e+01   9.372476e+01
  -9.390634e+01  -3.367876e+01
  -8.298792e+01  -7.855371e+01
   1.481552e+01  -1.529128e+02
   7.376664e+01  -8.080715e+01
   1.544006e+02   4.241144e+01
   5.744185e+01   1.048378e+02
  -2.960556e+01   6.630921e+01
  -1.414242e+02   2.758720e+01
  -2.305710e+01  -4.078904e+01
   4.371954e+01  -8.214022e+01
   1.527719e+01  -1.591120e+01
  -3.087662e+01  -1.823537e+00
  -8.907878e+01   1.654046e+01
  -3.852796e+01  -6.706294e+01
   1.448774e+02  -4.100286e+01
   1.122619e+02  -1.431834e+02
   6.931917e+01  -2.514790e+01
  -1.163028e+01   8.153609e+01
  -1.220217e+01   1.264628e+02
  -1.956143e+01  -4.372495e+00
   4.718149e+00  -8.655200e+01
   5.857483e+01  -2.215086e+01
   7.247727e+01   3.983351e+01
   3.917479e+01   1.032462e+01
  -3.627118e+00   1.322336e+01
   7.915234e+00   3.710317e+01
  -3.476849e+01  -3.550786e+01
  -5.496347e+01   6.887936e+00
  -1.190645e+01  -1.061825e+01
  -1.386703e+01  -1.839459e+01
   3.211765e+01   1.156982e+01
   1.397518e+01  -1.971470e+01
   4.627228e+01  -2.846601e+01
   6.662626e+01   8.152499e+01
  -1.945693e+00   5.408853e+01
  -2.233463e+01  -5.112030e+00
  -3.239996e+01  -6.366461e+01
  -1.726087e+00  -7.028964e+01
   6.587265e+01  -7.465834e+01
   1.544111e+02   2.069483e+01
  -1.339153e+00   3.747387e+01
   6.174669e+00   1.617636e+01
  -9.823445e+01   2.541142e+01
  -3.011991e+01   9.750971e-01
   2.754799e+01  -2.475948e+01
  -1.523980e+01   4.476889e+01
  -8.628741e+00   5.590943e+01
  -6.465724e+01   2.616503e+01
