
 $NMID
 id='ANONYMOUS ', fmtdat='(2E16.6)'
 volume=1.0
 tramp=1.0
 $END
  -2.555930e+03   1.591797e+02
  -1.810582e+03  -1.288809e+03
  -4.498874e+01  -1.649594e+03
   9.467199e+02  -9.159268e+02
   7.518439e+02  -1.367019e+02
   4.428261e+00   2.024624e+02
  -3.842591e+02  -6.228913e+01
  -9.136656e+01  -5.061671e+02
   3.191832e+02  -4.552142e+02
   5.095130e+02   1.154942e+01
   3.981890e+02   4.526607e+02
  -2.091746e+01   5.373555e+02
  -2.526262e+02   1.590569e+02
  -2.512855e+02  -3.418290e+02
   7.836900e+01  -4.379897e+02
   4.196250e+02  -8.873224e+01
   2.510898e+02   3.332676e+02
  -1.172890e+02   4.575102e+02
  -3.796036e+02   1.768395e+02
  -3.524362e+02  -1.202365e+02
  -1.103897e+02  -2.712655e+02
   2.203016e+01  -2.479237e+02
   8.820855e+01  -5.145151e+01
  -7.069484e+01  -5.451982e+01
  -2.468919e+02  -1.459323e+02
  -4.855668e+01  -3.023474e+02
   3.174632e+02  -1.585610e+02
   4.627514e+02   8.437490e+01
   1.857820e+02   2.367104e+02
  -2.768362e+02   1.731550e+02
  -4.151339e+02  -6.152433e+01
  -1.928422e+02  -3.584278e+02
   1.761541e+02  -2.780048e+02
   3.653020e+02  -1.771559e+02
   2.484037e+02   5.874238e+01
   3.548877e+01   3.006307e+02
  -8.812811e+01   2.043624e+02
  -1.766189e+01  -8.545123e+01
   8.509782e+01  -1.165627e+02
   2.185413e+02   5.316506e+01
   4.575792e+01   4.208848e+02
  -2.212047e+02   3.226351e+02
  -3.198426e+02   7.169032e+01
  -1.634638e+02  -2.775166e+02
   1.615125e+02  -1.224271e+02
   2.020777e+02   2.989086e+02
  -5.679452e+01   3.244888e+02
  -2.955528e+02   1.048423e+02
  -4.345708e+02  -2.412642e+02
  -1.667176e+02  -3.750032e+02
   1.950299e+02  -2.514542e+02
   4.086473e+02   1.327973e+01
   2.626099e+02   1.964763e+02
  -2.241379e+01   1.612463e+02
  -2.306254e+02   2.708952e+01
  -1.414667e+02   6.835234e+00
   3.091144e+01  -1.105442e+01
   2.141906e+01   1.384421e+01
  -9.244735e+01   5.181482e+01
  -2.186748e+02  -1.049930e+02
  -8.932781e+01  -1.420347e+02
   1.144184e+02  -2.159179e+02
   2.375178e+02  -1.203965e+02
   1.920477e+02   8.910036e+01
   1.824144e+01   2.145883e+02
  -1.876594e+02   2.288917e+02
  -2.352806e+02   1.310335e+02
  -2.464945e+02  -1.007816e+02
  -8.288290e+01  -2.428969e+02
   7.166246e+01  -2.033747e+02
  -1.476810e+01  -1.070508e+02
   4.545405e+01  -6.329068e+01
   6.897834e+01  -8.604420e+01
   1.375014e+02  -6.435886e+01
   1.766633e+02   9.772067e+01
   8.532191e+01   1.632720e+02
  -8.056194e+01   1.502902e+02
  -1.369835e+02   1.895428e+01
  -1.122851e+02  -1.546131e+02
   2.752922e+01  -2.279553e+02
   1.909339e+02  -2.690568e+01
   1.899787e+02   1.008921e+02
   1.844674e+02   2.645778e+02
  -5.702246e+01   1.865538e+02
  -1.424084e+02   8.076101e+01
  -1.358826e+02   1.276003e+00
  -7.860090e+01   2.314185e+01
  -1.851707e+02   9.638485e+01
  -3.330294e+02  -3.843119e+01
  -2.241856e+02  -2.122665e+02
   3.291821e+01  -3.868728e+02
   2.882592e+02  -3.290974e+02
   3.233895e+02  -1.635968e+02
   1.677182e+02   7.938505e+01
  -3.013051e+01   2.083773e+02
  -6.682322e+01   1.724352e+02
  -3.562749e+00   7.538719e-01
   9.777884e+01  -6.652771e+01
   4.316117e+01   2.041365e+00
   3.548384e+01   8.824733e+01
  -8.717336e+01   1.164402e+02
  -7.477866e+01  -4.177110e+01
   1.516657e+01  -1.179117e+02
   1.113900e+02  -2.167451e+01
   1.386442e+02   2.087933e+02
  -1.617713e+01   2.382261e+02
  -2.231843e+02   1.389835e+02
  -2.940980e+02  -7.663264e+01
  -2.038323e+02  -1.671273e+02
  -4.596365e+01  -1.948030e+02
   7.590980e+01  -1.667139e+02
   2.018074e+02  -9.348835e-01
   5.773512e+01   4.626325e+01
   1.782209e+01  -5.184193e+01
   1.334546e+01  -1.231853e+02
   6.325818e+01  -8.472237e+01
   1.397442e+02   2.804549e+01
   6.509398e+00   7.994025e+01
  -1.009504e+02  -3.841713e+01
  -5.920524e+01  -9.014189e+01
   1.272010e+02  -6.737750e+01
   2.111994e+02   9.815271e+00
   2.168671e+02   8.948782e+01
   8.695935e+01   1.999172e+02
  -1.577704e+02   1.638724e+02
  -1.851278e+02   7.590058e+01
  -9.174330e+01   6.283064e+00
   5.560330e+01  -7.071467e+01
   5.116367e+01   3.787533e+01
  -3.079625e+01   4.251238e+01
  -1.674060e+02   9.465619e+01
  -1.436887e+02  -8.310526e+01
  -1.774129e+01  -1.273910e+02
   3.719160e+01  -1.273666e+02
   2.242859e+01   6.199363e+00
   4.834761e+01   3.026933e+01
  -3.528040e+01  -6.131353e+01
   6.125113e+01  -8.441835e+01
   8.664654e+01  -1.134292e+02
   1.954727e+02  -3.778438e+01
   1.446729e+02   9.503978e+01
  -3.234285e+01   9.748332e+01
  -7.790183e+01   9.434189e+01
  -1.375665e+02   5.534642e+01
  -5.811831e+01  -3.135920e+01
   2.242145e+01  -1.121052e+02
   5.563193e+01  -2.943838e+00
   2.162399e+01   3.926244e+01
  -2.811220e+00   4.322365e+00
  -4.190823e+00  -3.657868e+01
   6.480654e+01   6.377063e+00
   4.308800e+01   1.370226e+01
   2.520132e+01   9.836075e+01
  -8.370728e+01   1.102708e+02
  -1.987567e+02   2.195695e+00
  -1.869040e+02  -9.303708e+01
  -8.133654e+01  -1.619932e+02
   7.795341e+01  -1.249494e+02
   1.230848e+02  -1.162982e+01
   6.001472e+01   3.884475e+01
   5.449280e+00   5.328002e+01
   4.597426e+00  -2.666948e+01
   3.112981e+01  -2.313333e+01
   6.152248e+01   3.884815e+01
  -2.741509e+01   1.113957e+02
  -9.166678e+01   5.253538e+01
  -5.389431e+01  -5.427247e+01
  -9.896673e+00  -9.103994e+01
   7.821355e+01  -7.799693e+01
   2.215087e+02   1.683947e+01
   3.386605e+01   1.445978e+02
  -7.808359e+01   2.065220e+02
  -2.344086e+02   3.303246e+01
  -1.433244e+02  -8.159315e+01
  -1.134812e+01  -8.748001e+01
   2.460547e+00  -1.032550e+02
   9.167008e+01   6.359305e+00
   8.494564e+01  -1.214123e+02
   8.576647e+01  -7.094467e+01
   1.177879e+01  -8.544313e+01
   8.310534e+01  -5.056392e+01
   1.533587e+02   1.117590e+02
   3.667276e+01   1.730659e+02
  -6.220381e+01   9.941064e+01
  -1.446847e+02  -9.804380e+00
  -1.267926e+02  -1.825431e+02
  -1.113771e+01  -6.261896e+01
   4.297014e+01  -5.556256e+01
   1.833444e+01   3.284062e+01
  -6.303972e+01   3.308388e+01
   1.475110e+01   4.193321e+01
   1.960319e+01   3.776615e+01
   9.576589e+01   7.389784e+01
   1.059899e+01   6.974607e+01
  -1.197391e+02   1.540785e+01
  -1.377158e+02   8.745299e-01
  -1.014210e+02  -3.509741e+01
  -5.087055e+00  -7.306605e+01
   1.710149e+02  -1.119168e+02
   1.541541e+02  -2.527519e+01
   2.069818e+01   4.172245e+01
  -9.239432e+01   3.061130e+01
  -6.920121e+01  -5.809496e+01
  -9.365244e+00  -4.063420e+01
   5.295054e+01  -5.490947e+01
   2.583572e+01   2.974893e+01
   6.717746e+01   5.235473e+01
   2.428881e+01   9.237253e+00
   5.260845e+01   1.481589e+01
   2.116531e+01   4.324524e+00
   1.995835e+01   1.271825e+01
  -4.481565e+01   1.089105e+02
  -4.995280e+01   1.225304e+02
  -1.318296e+02   7.568618e+00
  -1.437916e+02  -1.223680e+02
   4.931891e+01  -4.403471e+01
   1.208823e+02  -1.272857e+01
   2.509961e+01  -4.356308e+01
  -8.117887e+01   5.131661e+01
  -1.101586e+02  -1.010367e+02
  -4.870604e+01  -2.775690e+01
   1.083191e+02  -6.654772e+01
   1.421901e+02  -5.801720e+01
   1.341263e+02   3.743886e+01
  -1.337548e+01   5.775900e+01
  -6.415877e+01   6.876349e+01
   3.280713e+01   1.585232e+01
  -1.743711e+00  -1.905752e+01
   1.409922e+02  -1.522704e+01
   1.302507e+01   4.596489e+01
  -2.952989e+01   1.263735e+02
  -1.000425e+02   1.063724e+02
  -9.922839e+01  -7.344792e+01
  -7.669261e+01  -1.761858e+02
   5.116412e+01  -1.059663e+02
   1.107666e+02  -1.522039e+01
   2.731025e+01   7.682751e+01
   2.643387e+01   9.089399e+01
  -5.142321e+01   6.479211e+00
  -4.333253e+01  -6.579427e+01
  -5.464066e+01  -4.788856e+01
  -5.938392e+01   2.646791e+01
   3.007753e+01  -4.028220e+01
  -6.434283e+01  -6.389546e+01
  -4.764435e+01  -8.259345e+01
   2.023255e+01  -6.094067e+01
   9.104944e+01   5.944721e+01
   9.593881e+01   7.121418e+01
  -2.337465e+00   7.288447e+01
  -5.526810e+01   4.377581e+01
  -9.797663e+01   4.125764e+01
   3.745316e+00  -4.200588e+01
   3.090061e+01  -6.060517e+01
   5.162547e+01   1.435381e+01
   7.386913e+00   5.893362e+01
  -1.914380e+01   7.728100e+00
   1.075015e+02   1.096711e+01
   7.157806e+01  -7.524677e+00
   1.238103e+01   9.067160e+01
  -8.797649e+01   6.445683e+01
  -1.216321e+02   9.521130e+01
  -1.484833e+02  -9.528893e+01
   4.135466e+01  -1.203718e+02
   9.391489e+01  -1.428963e+02
   1.102991e+02  -6.365427e+01
   6.510991e+01   3.098568e+01
   4.683669e+01   5.316184e+01
   2.046522e+00   1.206141e+01
   1.463165e+01  -1.378441e+01
   2.038102e+01   3.823782e+01
   2.205005e+00   4.675290e+01
  -2.020376e+01   5.657668e+01
  -9.769937e+01   1.431823e+01
  -4.233128e+01  -4.919048e+01
  -8.026733e+01  -5.009825e+01
   1.539970e+01  -5.943948e+00
   5.237106e+01   2.480604e+01
   1.742872e+01   9.217588e+01
  -3.778451e+01   5.638125e+01
  -1.458069e+02  -4.552906e+00
  -5.940280e+01  -4.166311e+01
   7.748790e+01  -3.501405e+01
   5.126754e+01  -1.362052e+01
  -5.592160e+01  -1.068627e+01
  -2.447294e+01  -2.387576e+00
  -8.131535e+01  -1.746072e+01
   1.468769e+02  -6.028374e+01
   8.724070e+01  -7.675855e+01
   9.427434e+00   2.283734e+01
  -2.688195e+00   4.583915e+01
  -3.732088e+01   3.301820e+01
   1.668127e+00  -1.711655e+01
   1.012967e+00  -2.840429e+01
   5.679857e+01  -5.984190e+01
   3.058226e+01   2.269583e+01
  -8.464728e+00   8.310365e+00
   1.187076e+01   4.236765e+01
   1.624997e+01   4.467111e+01
   9.847981e+00  -2.688098e+01
  -2.317487e+01  -2.057079e+00
  -3.697249e+01   4.982374e+01
   3.355824e+01  -1.126706e+01
  -4.309455e+01  -2.619231e+01
   4.183881e+01  -9.258899e+01
  -2.311944e+01   4.214556e+00
   8.068473e+01   3.459876e+01
   3.501557e+01   7.217558e+00
   4.895212e+01   3.122245e+01
  -8.701472e+00  -1.125316e+01
  -3.869809e+01  -6.217863e+01
   8.193214e+01  -2.679451e+01
   4.711360e+01   2.702445e+00
   4.811493e+01   9.990160e+01
  -5.258274e+01   2.451366e+01
  -7.399696e+01   6.299138e+01
   1.093527e+01   9.731167e+00
   2.963763e+00   3.264950e+01
   1.275323e+01   4.128641e+01
  -6.881309e+01   2.202484e+00
  -8.527301e+01   7.315804e+01
