
 $NMID
 id='ANONYMOUS ', fmtdat='(2E16.6)'
 volume=1.0
 tramp=1.0
 $END
  -7.537682e+02   1.583361e+02
  -5.956060e+02  -3.178160e+02
  -6.157350e+01  -4.601991e+02
   2.578547e+02  -3.437737e+02
   1.677529e+02  -4.007307e+01
  -2.657993e+01   7.492078e+01
  -1.213398e+02  -2.042173e+01
  -4.794625e+01  -1.629041e+02
   8.919020e+01  -1.653898e+02
   1.801992e+02  -8.835280e+01
   1.071388e+02   1.214749e+02
   9.525368e+00   2.050816e+02
  -9.460981e+01   6.706683e+01
  -4.992634e+01  -6.257278e+01
   9.553862e-01  -1.363285e+02
   9.843437e+01  -3.136238e+01
   1.724125e+02   1.595363e+02
   1.312500e+01   1.682412e+02
  -7.317303e+01   9.333532e+01
  -1.261668e+02   3.630638e+01
  -1.634598e+01  -5.240558e+01
  -4.466058e+01  -8.474302e+01
  -5.919121e+01  -3.128359e+01
  -4.825831e+01  -2.297256e+01
  -3.895126e+01   1.596274e+01
  -6.412269e+01  -1.152919e+02
   6.086647e+01  -8.718180e+01
   1.751265e+02   3.461850e+01
   1.187045e+02   1.353499e+02
  -8.134661e+01   1.490484e+02
  -1.519258e+02   7.426091e+00
  -9.299855e+01  -7.235350e+01
   3.806982e+01  -1.190421e+02
   8.457601e+01  -7.835255e+01
   3.344218e+01   1.140271e+01
   2.227511e+01   7.437802e+01
  -2.084542e+01   1.265608e+01
   2.142636e+01  -2.288709e+01
  -3.468090e+01  -2.364758e+01
   5.775748e+01   1.391099e+01
   4.829221e+01   7.077599e+01
  -1.262633e+00   1.297083e+02
  -7.591780e+01   1.243456e+01
  -3.126582e+01  -1.247458e+02
   4.495509e+01  -3.322402e+01
   6.130618e+01   9.052613e+01
  -9.718336e+00   1.293151e+02
  -3.658568e+01   3.996723e+01
  -1.429813e+02  -4.941657e+00
  -3.098227e+01  -6.965982e+01
   4.232864e+01  -1.780752e+01
   1.140213e+02  -5.556899e+01
   8.771772e+01   6.496309e+01
  -1.609315e+01   5.621825e+01
  -1.428250e+02  -4.539775e+01
  -4.249286e+01   1.809367e+01
   4.412264e+01   6.341021e+01
   5.245128e+01   1.218443e+01
  -6.485421e+01   3.756664e+01
  -3.963331e+01   7.167434e+01
  -3.639682e+01  -3.270706e+01
   2.269718e+01  -6.095156e+01
   1.091238e+02  -7.556723e+01
   3.712135e+01  -5.410770e+01
   4.169696e+00   6.037085e+01
  -5.720992e+00   1.067363e+02
  -5.344952e+01   1.100620e+02
  -3.209417e+01  -3.334519e+01
  -6.180641e+01  -9.267429e+01
  -1.392845e+01  -1.237193e+02
  -4.445320e+00  -7.006406e+01
  -4.780288e+01  -5.474423e+01
  -9.125727e+00  -9.713259e+00
   5.922947e+01   6.072970e+01
   8.142646e+01   3.629778e+01
   5.196816e+01   7.427012e+01
  -3.141301e+01   1.004156e+02
  -4.883689e+01   1.103787e+01
  -1.019647e+02  -8.538953e+00
  -3.636712e+01  -2.752125e+01
   7.708381e+01  -6.362297e+01
   6.278412e+01  -4.476520e+01
   4.945195e+01   2.130043e+00
  -4.557782e+00   2.679652e+01
  -1.166620e+02   5.143463e+01
  -6.584693e+01   5.445119e+01
   3.515444e+01   2.477783e+01
  -7.615779e+01   3.869886e+01
  -9.995844e+01   3.054259e+01
  -1.761092e+01  -8.366810e+01
  -1.528291e+01  -1.471454e+02
   6.515523e+01  -1.196530e+02
   1.184877e+02  -2.505645e+01
   5.686417e+01   5.065157e+01
   4.371730e+01   4.481254e+01
  -6.436750e+01   2.270549e+01
  -3.089782e+01   8.137951e+00
   2.856388e+01  -4.135116e+01
  -2.434427e+01  -2.208748e+01
   2.750799e+00   2.773140e+01
   3.072966e+00   2.661122e+01
  -1.946863e+01   5.062819e+00
  -3.337337e+01  -6.585309e+00
   5.090281e+01   8.479926e+01
   4.603807e+01   1.888806e+01
  -2.074589e+00   1.023933e+02
  -6.514152e+01   5.165757e+01
  -7.015033e+01  -3.246822e+01
  -1.797205e+01  -3.398681e+01
  -3.315379e+01  -2.510844e+01
  -3.416292e+01  -5.116611e+01
   1.472654e+01   5.154937e+01
   3.551043e+01   2.808648e+01
  -2.172911e+01  -4.478987e+01
  -9.012178e+01  -3.582339e+01
   3.499623e+01  -3.049750e+01
   3.324776e+01  -6.518047e+00
   9.417743e+00  -1.628305e+00
   3.186471e+01  -5.211309e+01
  -7.025367e+01  -7.379083e+00
   4.076727e+00   1.419527e+01
   1.066579e+02  -5.553406e+01
  -3.694956e+01  -2.820255e+00
  -9.519482e+00   6.455939e+01
  -5.611847e+01   5.454793e+01
  -4.325731e+01   6.086809e+01
   2.434481e+01   5.963147e-01
   3.550412e+00  -2.657666e+01
   2.250044e+01  -5.121397e+01
  -1.331720e+00   3.409680e+00
  -1.846988e+01   4.194955e+01
  -3.652484e+01   2.720899e+01
   3.554217e+01  -1.168363e+02
   1.333681e+01  -6.945440e+00
   3.671767e+01   1.983275e+01
   1.097229e+01   4.133752e+01
   5.798163e+01  -2.777065e+01
  -1.888824e+01  -9.467141e+00
   4.298913e+01  -3.378862e+01
   9.869391e+01  -2.628758e+01
   4.981248e+01   4.556155e+00
  -2.331502e+01   7.915029e+01
   2.533581e+00   1.372021e+01
  -5.693857e+01   5.063954e+01
  -2.651636e+01   7.189899e+00
   3.093357e+01  -3.249763e+01
   1.187201e+01  -2.432483e+01
  -7.265762e+00  -1.224545e+01
  -5.347919e+01  -1.488147e+01
  -2.889673e+01   1.978112e+01
  -4.221041e+00   1.864841e+01
   5.582715e+01  -2.902119e+01
   5.377318e+00   4.504463e+01
  -2.682781e+01   4.903425e+01
  -4.619102e+01   8.970600e+01
  -6.100760e+01  -1.718131e+01
   3.848107e+01  -7.579244e+01
   3.089577e+00  -1.708014e+01
   4.048124e+01   1.961026e+01
   1.726984e+01   9.849992e+00
  -1.533458e+01  -4.194620e+01
  -5.650422e+01  -3.301570e+00
   3.198409e+01  -2.079701e+00
   5.952249e+01  -8.241289e+01
  -1.000583e+01   3.632213e+01
  -4.375995e+01   1.791122e+01
  -4.086508e+01   4.601487e+00
  -2.006616e+01  -5.356561e+01
   6.167754e+01  -5.490140e+01
   4.030466e+01  -4.371254e+01
  -2.398901e+01   4.846013e+00
  -2.606225e+01   6.982148e+01
  -5.608024e+01   6.768011e+00
  -9.311289e+01   3.985759e+00
  -3.117580e+01  -6.267267e+01
   2.645211e+00  -7.402637e+01
  -1.925390e+01  -4.794073e+01
   4.773690e+01  -2.143086e+01
   4.592873e+01   9.985567e+00
  -1.113645e+01  -3.869391e+01
   1.207733e+01   1.249185e+01
   6.043937e+00   2.894583e+01
  -7.465797e+00   9.491264e+01
  -3.384169e+01   6.964202e+00
  -9.449656e+01  -1.792730e+00
  -2.734507e+01  -5.722890e+00
  -1.456522e+01  -4.191754e+01
   2.483273e+01   6.790921e+00
  -3.151192e+01   7.424545e+01
  -2.084991e+01  -1.335308e+00
  -3.047065e+00   2.661961e+01
   3.626947e+01   1.993045e+01
   3.367637e+00  -1.023746e+01
   2.710145e+01   2.664279e+01
   2.189979e+00   3.280492e+01
  -3.619467e+01   2.094641e+01
  -2.958681e+01  -8.400367e+01
   1.264800e+01  -7.367732e+01
  -3.085641e+00  -3.707168e+01
   7.958368e+01  -1.583029e+01
   1.403561e+01   4.715164e+00
  -1.769544e+00   1.463224e+00
   1.474246e+01  -2.136034e+01
   3.941689e+01   1.692597e+01
   1.036232e+02   4.131362e+01
  -8.567704e+00   6.413955e+00
  -5.328200e+00   2.827676e+01
  -2.485149e+01   3.115294e+00
  -5.269909e+00   8.537914e+00
   5.486635e+01  -2.069100e+01
  -3.143149e+01  -4.593579e+00
  -2.316035e+01  -7.845125e+00
  -4.641065e+01   3.407686e+01
  -3.592421e+01   2.285563e+01
  -1.835231e+01  -4.749487e+01
  -9.051148e+00  -1.065645e+02
   3.637692e+00   1.134526e+01
   6.766687e+01  -2.881226e+01
  -1.385750e+01   1.788747e+00
  -5.488931e+01  -1.623726e+01
   2.037578e+01  -1.458010e+01
   3.234678e+01   3.543586e+01
   5.629679e+01   1.271511e+01
   2.559765e+01  -3.693213e+01
   5.468003e+00   3.053371e+01
   3.475495e+01  -3.103770e+01
   9.166292e-01  -1.629292e+01
   2.902296e+01   3.016379e+01
   4.012101e+01  -8.241737e+00
  -1.678120e+01  -2.853610e+01
  -2.801925e+01   3.354233e+00
  -4.192572e+00   2.820433e+00
  -3.499075e+01   2.611048e+01
   4.200985e+01  -7.672760e+01
  -2.306881e+00  -7.544605e+01
   3.117092e+01  -2.727871e+01
   4.554767e+01   9.219946e+01
   4.115096e+01   1.075233e+00
   5.996746e+01   2.413906e+01
  -3.877956e+00  -3.645201e+01
   1.511028e+01  -2.522115e+01
   7.493181e+00  -6.310440e+00
  -3.291510e+01   1.081219e+01
  -6.640042e+01  -3.313801e+01
  -9.677710e+01  -2.972768e+01
  -2.982327e+01  -2.806021e+00
   3.785202e+01  -2.157909e-01
   6.657668e+01  -3.832407e+01
  -1.205915e+01   3.779063e+01
   9.828571e+00  -4.045022e+01
  -3.811160e+01   1.003650e+01
   3.766264e+01  -1.479905e+01
   9.931854e+00  -2.751926e+01
  -1.113324e+00   2.362577e+00
  -4.233332e+00  -3.345522e+01
  -6.203441e+00   6.472430e+00
  -6.865472e+00  -1.239794e+01
   2.538388e+01   2.571574e+01
   5.046656e+01  -7.754066e-01
   1.911491e+01   2.042524e+01
  -3.219961e+01   4.236670e+01
   1.017189e+01  -2.192157e+01
   2.100637e+01   1.544637e+01
  -2.307739e+01  -5.146382e+01
   2.178895e+01  -3.171591e+01
   2.048121e+01  -9.280228e+00
   1.186049e+01  -3.786901e+00
  -1.327918e+01   2.398278e+01
   2.255740e+01  -5.470826e+01
  -3.742123e+01   6.351216e+00
   6.907855e+01   6.193892e+01
  -3.673369e+01  -3.219541e+00
  -6.689402e+01  -2.098695e+01
   8.733182e-01  -4.426210e+01
   7.784264e+00  -7.544361e+01
   4.417198e+01  -5.754004e-01
   6.308835e+01   5.317414e+00
   1.170369e+01   4.323711e+01
   3.536250e+01   2.867846e+01
  -3.643752e+01   1.635968e+01
  -5.233955e+01  -7.734332e+00
   1.949168e+01   2.339224e+01
   6.027063e+01   3.913635e+01
  -1.891747e+01   4.654448e+01
  -7.934107e+00   9.180473e+00
  -6.142959e+00  -1.669843e+01
   1.145845e+01  -2.277846e+01
   4.267375e+00  -6.546491e+01
  -6.455879e+00  -3.167716e+01
  -1.957290e+01   2.005511e+01
   3.476540e+01   2.448059e+01
   2.987841e+01  -2.667356e+01
  -1.769756e+00  -7.835778e+00
   1.278285e+01  -1.474889e+01
   3.158048e+01  -2.119933e+01
   2.591095e+01  -1.972679e+01
  -2.520190e+01  -5.841811e+00
  -5.872806e+01   5.051792e+01
  -3.835839e+01   3.662313e+01
  -2.349621e-01  -5.991764e+01
   2.818340e+01   2.665785e+01
   2.698879e+01   1.599058e+01
  -4.609327e+00  -5.198902e+01
  -2.758151e+01  -5.490036e+01
   4.186725e+01  -1.473551e+01
   5.884981e+01   1.512176e+01
  -5.711142e+00   1.628182e+01
  -4.552056e+01   3.459737e+01
   1.103921e+01   3.585012e+01
   1.497591e+01  -3.482081e+00
   5.763945e+01   1.688881e+01
   3.347595e+01   1.571282e+01
   6.235324e+01  -5.685182e+00
  -6.441752e+01   1.986303e+01
   2.088228e+01   1.347665e+01
  -6.651421e+00  -2.679067e+01
  -1.904114e+00  -2.269005e+01
   3.327191e+01   1.080053e+01
  -1.985883e+01   7.351426e+00
  -3.142367e+01  -2.173052e+01
