
 $NMID
 id='ANONYMOUS ', fmtdat='(2E16.6)'
 volume=1.0
 tramp=1.0
 $END
   4.064376e+03  -8.344660e+01
   2.528950e+03   2.372150e+03
  -5.653591e+02   2.633877e+03
  -1.954744e+03   1.021585e+03
  -9.243558e+02  -5.494406e+02
   5.638018e+02  -5.349079e+02
   8.408992e+02   3.595056e+02
   3.780003e+01   9.766512e+02
  -7.563850e+02   8.108638e+02
  -8.740324e+02  -4.124393e+01
  -4.586896e+02  -7.606780e+02
   2.724499e+02  -8.471474e+02
   5.006083e+02  -9.647027e+01
   4.357237e+02   6.386159e+02
  -2.024640e+02   7.082922e+02
  -5.937660e+02   3.447276e+01
  -2.688378e+02  -6.128620e+02
   2.932184e+02  -6.412925e+02
   5.508471e+02  -1.170603e+02
   4.089578e+02   2.870823e+02
   4.422194e+01   4.375411e+02
  -2.081979e+02   3.005210e+02
  -2.245712e+02   2.083604e+01
   9.191410e+01  -8.411910e+01
   4.080606e+02   1.633778e+02
   8.647473e+01   4.181034e+02
  -4.836353e+02   3.889056e+02
  -7.742436e+02  -1.124941e+02
  -3.857991e+02  -5.225998e+02
   3.688408e+02  -4.451104e+02
   7.273679e+02   2.605162e+01
   3.330506e+02   4.456098e+02
  -2.804848e+02   4.751681e+02
  -4.891336e+02   2.321112e+02
  -4.464889e+02  -2.118873e+02
  -8.137116e+01  -4.389275e+02
   1.689660e+02  -2.559651e+02
   1.463974e+02   2.395388e+02
  -1.164111e+02   3.670510e+02
  -3.379140e+02  -9.413740e+01
  -2.260958e+02  -6.719575e+02
   2.984993e+02  -6.832177e+02
   6.255645e+02   2.997754e+01
   1.980762e+02   5.295065e+02
  -2.665732e+02   3.323400e+02
  -3.963120e+02  -3.004225e+02
   1.153031e+02  -5.271019e+02
   4.978786e+02  -7.711640e+01
   6.108275e+02   3.918764e+02
   2.047547e+02   6.196963e+02
  -3.584495e+02   3.243228e+02
  -6.044509e+02  -5.095052e+01
  -3.705238e+02  -3.204360e+02
   1.242636e+02  -3.726043e+02
   4.390324e+02  -2.251098e+01
   2.694108e+02   1.793601e+02
  -1.018165e+02   9.609673e+01
  -1.480051e+02  -1.829911e+02
   1.621868e+02  -1.740633e+02
   3.252879e+02   4.468246e+01
   1.572260e+02   2.551037e+02
  -2.018692e+02   2.532553e+02
  -3.357090e+02   7.434008e+01
  -1.679757e+02  -4.747692e+01
   8.310484e+00  -2.659509e+02
   2.225063e+02  -3.814352e+02
   2.699795e+02  -2.157824e+02
   2.947085e+02   1.069187e+02
   1.022650e+02   4.235180e+02
  -9.352677e+01   3.677728e+02
  -1.052666e+02   6.705145e+01
  -3.072172e+01   1.966406e-01
  -6.136440e+01   7.995368e+01
  -1.736602e+02   1.331821e+02
  -2.736796e+02  -1.359307e+01
  -1.435966e+02  -2.602577e+02
   1.074338e+02  -1.701944e+02
   1.969513e+02  -1.252426e+01
   2.144842e+02   2.201279e+02
  -3.433658e+01   3.015963e+02
  -2.112611e+02   8.731731e+01
  -2.730926e+02  -1.092748e+02
  -2.333246e+02  -2.850382e+02
   1.190570e+02  -2.955551e+02
   2.137518e+02  -1.318227e+02
   1.485087e+02   3.072977e+01
   1.232707e+02  -6.407588e+01
   1.734490e+02  -5.016332e+01
   3.989444e+02   1.284167e+01
   3.478157e+02   2.104711e+02
   1.764325e+00   4.650865e+02
  -3.913233e+02   4.038071e+02
  -4.575430e+02   1.906408e+02
  -3.647326e+02  -6.411188e+01
  -8.782531e+01  -2.687290e+02
   1.376235e+02  -2.769677e+02
   9.288011e+01   1.192971e+01
  -1.260954e+02   4.649881e+01
  -1.803939e+02  -5.719578e+01
  -5.843944e+01  -2.411259e+02
   2.019805e+02  -1.529303e+02
   2.014778e+02   9.169500e+01
  -4.099556e+01   2.546743e+02
  -2.122702e+02   4.652279e+01
  -1.480058e+02  -2.525903e+02
   1.003022e+01  -3.534841e+02
   2.680229e+02  -2.445251e+02
   3.112393e+02   9.884576e-01
   2.971807e+02   2.207397e+02
   1.321840e+02   2.355376e+02
  -9.470411e+01   9.808333e+01
  -1.341554e+02   9.690051e+01
  -4.636065e+01  -2.454478e+01
   9.086194e+01   3.308771e+01
   4.061754e+01   1.290407e+02
  -1.686307e+02   7.381920e+01
  -2.104257e+02   2.831673e+01
  -7.009896e+01  -7.346144e+01
   1.040342e+02  -5.140606e+01
   9.899431e+01   1.365433e+02
  -1.441033e+02   1.368229e+02
  -2.708399e+02   2.527310e+01
  -2.227697e+02  -1.391156e+02
  -7.374760e+01  -2.238435e+02
   2.168614e+02  -2.478400e+02
   2.393609e+02  -1.017830e+02
   2.035602e+02   4.585995e+01
  -3.493720e+01   1.373453e+02
  -8.111817e+01   1.046471e+01
   1.887926e+01  -6.745816e+01
   1.418018e+02  -4.526307e+01
   2.695585e+02   8.887968e+01
   4.896149e+01   1.399077e+02
  -4.172516e+01   1.642545e+02
  -1.760228e+02   4.358588e+00
  -7.772241e+01  -4.458218e+01
   4.154178e+00  -1.369513e+01
   6.530838e+01   6.410963e+01
  -9.649848e+01   1.375350e+02
  -1.923175e+02   4.069620e+01
  -1.736510e+02  -1.449445e+02
  -2.182788e+01  -2.355496e+02
   1.475796e+02  -1.614269e+02
   1.991136e+02   2.433056e+01
   9.406945e+01   9.114296e+01
  -1.035511e+02   8.232292e+01
  -7.181746e+01  -1.703309e+01
   2.486594e+01   6.362856e+00
  -2.496425e+01  -5.632734e+01
  -4.774810e+01  -3.376236e+01
  -7.463162e+01  -1.076561e+01
  -8.530379e+01  -4.179038e+01
  -7.376700e+01  -1.071223e+02
   1.240093e+02  -1.785595e+02
   2.770916e+02   5.712287e+00
   1.500390e+02   1.521996e+02
   3.606976e+01   2.347867e+02
  -6.316164e+01   1.267548e+02
  -1.128546e+02   5.428439e+01
  -7.556914e+01  -1.013997e+02
  -1.419238e+00  -2.932760e+01
   5.646304e+00   1.703624e+01
  -5.019175e+01  -1.463399e+01
  -7.582774e+01  -1.304867e+02
   3.994256e+01  -5.114105e+01
   1.157597e+02  -5.713787e+01
   1.224198e+02   3.470364e+01
   1.509990e+01   1.232128e+02
  -1.402151e+02   1.226431e+02
  -2.039565e+02  -7.322750e+01
  -9.928781e+01  -1.613957e+02
   1.172727e+02  -2.463209e+02
   2.486739e+02  -1.644472e+02
   2.175249e+02   8.304259e+01
   1.011932e+02   1.863792e+02
  -7.276344e+01   1.814235e+02
  -9.117043e+01   1.914482e+01
  -1.874394e+01   6.397949e+01
  -7.132825e+01   9.689554e+01
  -6.412967e+01   1.078301e+02
  -1.256513e+02   4.741324e+01
  -7.422596e+01  -1.484963e+02
  -8.758230e+01  -2.123091e+02
   6.643736e+01  -2.348637e+02
   1.265185e+02   3.883101e+01
   1.214316e+02   5.597695e+01
   2.318563e+01   9.683872e+01
  -7.936668e+01   1.206410e+02
  -1.101145e+02  -3.111400e+01
  -5.193328e+01   1.254265e+01
   2.814828e+01  -3.260968e+01
  -2.876289e+01  -6.483659e+01
  -6.901050e+01  -3.683504e+01
  -4.881612e+01  -3.955523e+01
   2.444545e+01  -1.452196e+01
   1.218759e+02  -3.625251e+01
   1.678286e+02  -4.392040e-01
  -2.271847e+01   1.070845e+02
  -1.201796e+02   9.542061e+01
  -1.706411e+02  -6.664290e+00
  -1.605658e+01  -7.299415e+01
   8.649501e+01  -3.428445e+01
   7.067111e+01   2.729954e+01
  -1.552236e+01   4.995978e+01
  -4.191657e+01   5.908484e+01
  -3.162266e+01   8.470474e+00
   1.298641e+01  -7.232919e+01
  -4.330433e+01  -7.614911e+01
  -5.122612e+01   7.045932e-01
  -4.251647e+01   4.086396e+01
  -7.678603e+01  -1.237868e+02
   3.413586e+01  -1.810912e+02
   1.151373e+02  -1.472638e+02
   1.565411e+02  -7.927764e+01
   1.124460e+02   1.067533e+02
  -3.524890e+01   9.766914e+01
  -1.271630e+02   5.988907e+01
  -6.010464e+01  -3.155590e+01
   5.591494e+01  -6.399274e+01
   1.548733e+02   5.594016e+01
   1.351418e+00   8.692969e+01
  -5.116098e+01   7.402805e+01
  -1.327482e+02   8.770348e+01
  -1.722243e+02  -3.053329e+01
  -9.110451e+01  -6.359110e+01
   4.825012e+01  -7.683291e+01
   4.917586e+01  -4.710183e+01
  -7.804576e+01   7.158421e+01
  -1.140821e+01  -8.758459e+00
  -2.513069e+01  -1.330901e+02
   1.146433e+02  -1.530350e+02
   1.670415e+02  -8.812912e+01
   9.915278e+01   9.412534e+01
   4.442550e+01   1.918513e+02
  -1.102973e+01   3.877148e+01
  -6.988206e+01  -2.858415e+01
  -2.249667e+01  -1.097001e+02
  -5.037883e+00  -6.090010e+01
   3.483639e+01   3.098523e+00
   8.620820e+01   1.987995e+01
   4.502730e+01  -6.702674e+00
   6.981139e+00  -4.657455e+01
  -1.341273e+01   3.481241e+01
   2.048617e+01   9.653356e+01
   7.230495e+00   6.203103e+01
  -3.854732e+01   2.775176e+01
  -1.369084e+02  -6.857112e+00
  -1.448136e+02  -6.249783e+01
  -8.526889e+01  -7.795151e+01
   9.043416e+01  -6.593522e+01
   9.123966e+01  -2.489788e+01
  -1.223081e+01   4.614250e+01
  -3.985829e+01   1.187969e+02
  -7.758282e+01   3.052631e+01
   2.893265e+01  -6.228183e+01
  -1.024771e+01  -3.595925e+01
  -1.066945e+02  -2.198547e+01
  -1.084478e+02  -5.367193e+01
   3.036652e+00  -3.329415e+01
   9.076265e+01  -1.272662e+02
   2.307181e+02  -4.572752e+01
   1.899623e+02   5.752414e-01
  -4.468264e+00   1.750363e+02
  -5.387204e+01   1.366651e+02
  -1.161306e+02   7.838120e+01
  -4.836720e+01  -2.704200e+01
  -3.997605e+01  -6.245566e-01
   2.028066e+01   4.425481e+01
  -1.003992e+02   2.145072e+00
  -1.122137e+02  -2.967281e+01
  -1.831107e+01  -1.239788e+02
  -7.680429e+00  -5.109298e+01
   9.820504e+01   2.641927e+01
   7.554138e+01   2.660834e+01
   8.085223e+01   7.155221e+01
  -6.528595e+01   7.110559e+01
  -5.416691e+01  -7.409047e+01
  -7.455428e+01  -6.812204e+01
   3.065850e+01  -2.977370e+01
   9.407398e+01  -1.936987e+01
   3.479643e+01   7.151761e+01
  -4.788416e+01   4.252758e+01
  -4.029182e+01   1.863803e+01
  -4.445378e-01   3.533823e+01
   8.583041e+01  -1.880623e+01
  -2.804179e+01   7.069590e+01
  -2.335190e+01   8.312134e+01
  -1.102026e+02   7.880698e+01
  -4.237732e+01  -6.068988e+01
   1.012088e+01  -8.267762e+01
   5.961319e+01  -9.851173e+01
   3.371631e+01   9.309927e+00
   5.210210e+01   5.263349e+01
  -2.623166e+01   5.415484e+01
  -6.394822e+01   2.616679e+01
  -2.424365e+01  -7.668052e+01
   5.395404e-03   4.135902e+01
   6.807480e+01  -4.142203e+01
   9.964987e+00   5.801559e+01
   2.776389e+00   3.659649e+01
  -2.325362e+01  -1.125139e+01
  -5.996379e+00   4.483940e+01
  -2.373966e+01   5.736903e+01
  -3.530465e+00   4.207673e+01
  -2.540440e+01   2.608989e+01
  -1.767341e+01  -4.870039e+01
   3.747689e+01  -9.764542e+01
  -1.613324e+01   5.034853e+01
   9.109988e+01   5.843992e+01
  -1.151647e+01   9.502117e+01
  -8.776144e+00   4.066129e+01
  -4.083654e+01  -1.593530e+00
  -1.647341e+01  -3.888018e+01
   6.115389e+00  -1.001594e+02
  -8.604449e+00  -1.203197e+01
  -6.421347e+00   5.034601e+01
  -7.972282e+01   6.565056e+00
  -5.086267e+00   3.372517e+01
  -1.389938e+01  -3.288626e+01
   1.194177e+02  -4.008683e+01
