
 $NMID
 id='ANONYMOUS ', fmtdat='(2E16.6)'
 volume=1.0
 tramp=1.0
 $END
  -1.408581e+03  -4.149805e+01
  -6.922847e+02  -8.573392e+02
   4.012317e+02  -7.808769e+02
   6.742945e+02  -2.009959e+02
   1.889173e+02   3.161394e+02
  -2.723555e+02   2.381037e+02
  -3.605799e+02  -2.385284e+02
   4.465803e+01  -3.153642e+02
   2.934215e+02  -2.105737e+02
   3.407265e+02   4.244864e+01
   1.438320e+02   2.393897e+02
  -7.805052e+01   2.419438e+02
  -2.922299e+02  -3.406406e+01
  -4.935051e+01  -2.266087e+02
   1.648242e+02  -2.557089e+02
   1.672852e+02   4.104708e+00
   1.168803e+02   1.884065e+02
  -1.588944e+02   1.752899e+02
  -1.461655e+02  -3.624639e+01
  -1.320679e+02  -1.442716e+02
   2.425771e+01  -1.435577e+02
   1.330924e+02  -3.926111e+01
   7.677191e+01  -3.238878e+01
   2.466367e+01   7.674924e+01
  -1.603079e+02  -4.720311e+01
  -2.411748e+01  -1.606994e+02
   1.256932e+02  -1.612781e+02
   2.824460e+02   1.249362e+01
   1.594352e+02   2.034381e+02
  -1.023651e+02   1.247402e+02
  -2.639691e+02  -1.210622e+00
  -6.570429e+01  -1.138003e+02
   7.820192e+01  -1.576867e+02
   1.663921e+02  -1.011565e+02
   1.726170e+02   6.948573e+01
   5.424225e+01   1.509899e+02
  -1.548859e+02   1.165256e+02
  -7.942587e+01  -4.465337e+01
   5.490183e+01  -1.655800e+02
   2.104231e+02   7.015598e+01
   1.449246e+02   2.505592e+02
  -1.011379e+02   1.745833e+02
  -1.679876e+02  -4.270208e+01
  -6.615328e+01  -1.914854e+02
   1.215912e+02  -1.123681e+02
   6.160969e+01   1.123237e+02
  -6.832805e+01   1.928926e+02
  -1.907137e+02   5.812951e+01
  -1.972776e+02  -1.423892e+02
  -1.444413e+01  -1.669146e+02
   1.259030e+02  -1.446894e+02
   2.054106e+02   6.267241e+01
   1.092424e+02   7.814516e+01
  -5.727935e+01   1.258939e+02
  -1.395975e+02   2.322752e+01
  -3.380111e+01  -1.099296e+02
   5.672603e+01  -2.652173e+01
   3.485870e+01   9.739345e+01
  -6.671961e+01   3.019468e+01
  -1.148657e+02  -2.246420e+01
  -1.365397e+01  -1.338230e+02
   9.665936e+01  -6.818385e+01
   1.162442e+02  -1.824296e+00
   8.921194e+01   3.991766e+01
  -6.976215e+00   6.476544e+01
  -1.103632e+02   7.494617e+01
  -1.298496e+02   1.682094e+01
  -1.148998e+02  -7.179903e+01
   2.322630e+01  -1.438747e+02
   8.648798e+01  -1.310419e+02
   4.044781e+01   4.954238e+01
   3.863384e+01  -1.363794e+01
  -4.001757e+01   6.559342e+01
  -3.183026e+01  -2.174757e+01
   1.257569e+02   3.182800e+01
   5.073801e+01   1.011706e+02
  -3.251645e+00   9.200974e+01
  -6.810992e+01   1.147343e+01
  -3.747423e+01  -5.123853e+01
   6.963826e+01  -8.303490e+01
   9.224169e+01   6.842565e+01
   1.273293e+02   4.559673e+01
   6.746263e+01   1.008679e+02
  -1.163837e+01   1.228700e+02
  -8.727047e+01   1.536343e+01
  -7.402847e+01  -6.780456e+00
  -5.734634e+01  -2.219922e-01
  -4.282619e+01   3.208061e+01
  -1.413895e+02   1.573820e+01
  -1.311146e+02  -5.178659e+01
   2.321328e+01  -1.161357e+02
   9.296303e+01  -8.335184e+01
   1.938233e+02  -7.229196e+01
   8.229169e+01   3.574762e+01
  -1.110722e+01   1.038835e+02
  -8.289786e+01   1.088969e+02
   3.981995e+01   4.009624e+01
   2.876721e+01  -1.376666e+01
   5.308407e+01   2.827181e+00
   2.093995e+01   6.036948e+01
  -1.854395e+01   8.691430e+01
  -3.311081e+01  -4.812284e+00
   5.253460e+00  -7.376191e+01
   4.683132e+01   1.452126e+01
   4.445112e+01   6.482560e+01
   1.072653e+01   5.980640e+01
   3.724191e+00   1.246865e+02
  -7.187533e+01  -5.668571e+01
  -7.480714e+01  -8.278916e+01
  -2.393834e+01  -5.641161e+01
   2.907741e+01   1.485626e+01
  -8.736309e+00  -1.832201e+01
  -1.494450e+01   4.554592e+01
  -2.120829e+01   1.150201e+01
   1.637867e+01  -3.257455e+01
   4.705967e+01  -2.760568e+01
   3.962849e+01  -2.429718e+01
   1.009747e+01   3.722545e+01
  -7.457903e+00   2.751437e+01
   1.139334e+01   1.356209e+01
   4.185641e+01   1.713362e+01
   8.171535e+01   5.177403e+01
   7.922792e+01   5.115168e+01
   2.878831e+01   1.302934e+02
  -7.110659e+01   5.078474e+01
  -1.082108e+02  -1.028723e+01
  -7.379341e+01  -1.874336e+01
  -3.163764e+01  -2.210246e+01
   9.171724e+01   1.290186e+01
  -3.585263e+01   3.603324e+01
  -4.952717e+01   4.037920e+00
  -7.051239e+01  -4.168291e+01
  -3.340892e+01  -2.823667e+01
   6.709877e+01  -7.339043e+00
   6.918637e+01  -6.807818e+01
   8.145795e+01  -9.014341e+00
   1.736933e+01   3.184980e+01
  -1.421265e+01   1.309035e+01
   1.599181e+01  -3.531975e+01
   6.847038e+01  -3.314734e+01
   9.157472e+01   4.506985e+01
   3.810992e+01   6.499980e+01
  -5.136389e+01  -2.000174e+01
  -7.915960e+01  -1.362375e+01
   1.740698e+01  -2.296003e+01
   4.801568e+01  -2.509390e+01
   2.883125e+01  -3.101257e+01
  -7.482381e+00   1.258605e+01
   5.032344e+01   2.219636e+01
  -1.348369e+01   3.490200e+01
  -5.002841e+00   1.135311e+01
   1.368397e+01   4.431278e+01
  -1.452425e+01   2.168495e+01
   1.382220e+01   9.347393e+01
  -8.438793e+01  -7.081853e+01
  -6.222924e+01  -6.136429e+01
  -1.207936e+00  -9.505632e+01
   4.013488e+01  -4.071289e+01
   8.698343e+01   4.510394e+01
  -3.127100e-02   1.986547e+01
   3.836722e+01   7.178826e+01
   1.692950e+01   1.911171e+01
   3.050500e+01  -3.903993e+01
  -1.232100e+01  -5.057755e+01
  -9.033642e+00   6.065402e+00
   4.740197e+01  -3.631183e+00
   3.415736e+00  -6.281458e+01
   1.726814e+00   1.243814e+01
   4.948173e+01  -5.990933e+00
   1.896615e+01   1.635094e+01
   1.116443e+01   3.892418e+01
  -7.056558e+01   4.477600e+01
  -2.720376e+01   6.036075e+01
  -7.246657e+01  -2.307805e+01
  -2.639512e+01  -6.443807e+01
   4.553413e+01  -8.070154e+01
   1.956345e+01  -3.432335e+01
   8.512308e+00   4.672234e+00
  -1.857706e+00  -4.265938e+01
   6.891562e+01   3.664431e+01
   6.149241e+01  -4.621591e+01
   2.682911e+01  -3.097014e+01
   2.507787e+01   3.641012e+01
  -4.946268e+01  -2.152498e+00
  -5.991457e+01  -1.737692e+01
  -6.215994e+01  -1.957485e+00
   6.435386e+01  -8.810744e+01
   1.571468e+01  -7.002701e+01
  -1.753842e+00   3.544199e+01
   3.301574e+01  -4.486705e+01
  -2.902473e+00  -1.410395e+01
  -7.794763e-01  -2.195878e+01
   4.816312e+01  -7.362033e+01
   2.518066e+01   3.042514e+01
  -5.568967e+01   2.050189e+01
  -1.955120e+01  -2.608163e+01
  -2.567634e+01  -3.594050e+01
   1.613485e+01   3.145755e+01
   1.810940e+01  -8.603879e+00
   1.410823e+01   1.606125e+01
  -3.792437e+01   2.626310e+00
   2.115111e+00  -1.721667e+01
  -4.491871e+01  -4.402078e+01
   5.261480e+01  -2.429435e+01
   7.490821e+00  -2.905354e+01
   7.785649e+01  -8.933501e+00
   1.895375e+01   1.881895e+01
  -2.218122e-01   7.209309e+01
   4.557819e+01  -3.021228e+01
   8.940163e+01   7.303949e+01
  -1.285423e+00   3.747619e+01
  -1.536014e+01   6.815058e+01
  -3.331589e+00   5.223209e+01
  -5.595093e+01  -1.879693e+01
   3.312773e+01  -4.802770e+01
  -1.111006e+01   2.336292e+01
  -2.367902e+01   6.052129e-01
  -6.316735e+00   2.924780e+01
  -2.222745e+01   1.055480e+01
  -6.736875e+01  -6.994380e+00
  -3.013829e+01  -3.132144e+01
   1.417122e+01  -6.798866e+01
   8.260634e+01   3.027373e+01
   7.522332e+01  -2.009027e+01
   8.846588e-01   4.340310e+01
  -3.145190e+01   7.469390e+01
   1.546261e+01  -2.808069e+01
  -4.055042e+00   1.270359e+01
   5.100643e+01  -1.130375e+01
  -3.415455e+01   3.430053e+01
  -2.826465e+01   8.405804e+01
  -2.732253e+01   1.533084e+01
  -3.673493e+01  -6.970828e+01
   2.976229e+01  -6.115198e+01
   8.903261e+00  -4.499818e+01
   1.327383e+01   1.888190e+01
   1.252662e+01   3.847133e+01
   1.434616e+01   6.598840e+01
  -4.983383e+01   4.711095e+01
  -2.304893e+01  -3.009975e+01
   1.047950e+01  -1.237533e+01
  -2.001678e+01  -2.109443e+01
  -4.766146e+00   6.834856e+01
   1.266990e+01  -2.632827e+01
   1.527559e+01  -1.315059e+02
   3.102800e+01   9.604978e+00
  -1.160477e+00   1.411074e+01
   2.163716e+01   4.918487e+01
   1.434478e+01   1.935964e+01
  -8.749011e+01   1.420901e+01
   4.353630e+00   5.574297e+01
   3.895504e+01  -3.044400e+01
  -1.879124e+01   2.519312e+01
   3.163850e+01   3.571358e+01
   2.832110e+01   3.934243e+01
  -5.804818e+01   1.399941e+01
  -3.155832e+01   2.304093e+00
   6.887906e+00  -7.350050e+01
   6.503667e+01   3.407799e+01
  -3.027570e+01  -2.460531e+01
  -6.571881e+01   5.856420e+01
  -5.885403e+01  -1.958528e+01
  -1.028343e+01   4.034957e+00
   5.688280e+00   8.497011e+00
   2.429594e+01  -5.856395e+00
   2.858627e+01   2.728602e+01
  -3.053378e+01   6.351658e+01
   8.446807e+01  -7.901094e+00
   1.890734e+01  -8.082603e+00
  -3.690655e+01   3.657455e+01
  -4.211804e+01   4.136154e+01
   1.101535e+01  -2.248017e+01
  -3.180543e+00   1.007659e+00
   2.461286e+01  -4.483271e+01
   7.108400e+01   6.273154e+01
   5.685875e+01  -9.685373e+00
   5.104974e+01   7.065226e+01
  -2.357017e+01   7.499705e+01
  -1.481282e+01   6.862349e+01
  -3.885099e+01  -5.335750e+01
  -4.350014e+00  -7.437398e+01
   6.494935e+01  -3.735971e+01
   4.722987e+01   7.356628e+00
  -5.453230e+00   9.993679e+00
   4.276237e-01  -4.703558e+01
  -1.906329e+01   1.977728e+01
   1.187839e+01   2.436130e+01
   8.463454e+01   9.509334e+00
   2.432649e+01  -1.304055e+01
  -1.050323e+01   1.631083e+01
  -2.344749e+01   9.332303e+01
  -7.753803e+00   1.387145e+00
   2.049573e+01  -4.858310e+01
  -2.312607e+01   3.993642e+01
  -3.225824e+00   9.271549e+01
   1.361353e+01  -1.830297e+01
   2.493934e+00   2.885322e+01
  -1.689148e+01   2.199499e+01
  -5.543682e+01  -1.764685e+01
   3.941864e+01  -1.901230e+01
   5.703150e+01   4.436518e+00
  -7.136428e+00   4.550126e+01
   4.545621e+01  -2.065900e+01
  -5.088678e+01  -5.860359e+01
  -6.895006e+00   3.520963e+01
   1.887201e+01   9.680312e+01
  -3.014729e+01   6.846690e+01
  -1.317183e+01  -1.966752e+01
  -1.489799e+01  -6.484210e+01
  -8.165066e+01   1.040057e+01
   9.836130e+00  -1.872117e+01
  -1.869144e+01   1.678406e+01
  -2.019461e+01   3.215597e+01
   5.407980e+00   5.379106e+01
   6.244750e+00  -2.735141e+00
   1.418459e+01  -1.214604e+01
   6.068519e+01   4.388449e+01
   5.233023e+00   2.565264e+01
   1.907347e+01  -4.406014e+01
  -8.939791e+01   1.134478e+01
