
 $NMID
 id='ANONYMOUS ', fmtdat='(2E16.6)'
 volume=1.0
 tramp=1.0
 $END
   2.395283e+03  -1.233404e+02
   1.794462e+03   8.729782e+02
   3.340078e+02   1.510364e+03
  -7.139086e+02   1.297104e+03
  -8.138182e+02   5.413353e+02
  -2.660389e+02  -9.289580e+01
   1.228852e+02  -8.326645e+01
   1.552127e+02   3.820181e+02
  -1.792117e+02   4.720026e+02
  -4.510336e+02   1.789466e+02
  -3.728178e+02  -3.055573e+02
  -1.709790e+02  -4.616674e+02
   3.995041e+01  -2.224618e+02
   1.931591e+02   1.981548e+02
  -3.702962e+01   4.093562e+02
  -2.330111e+02   1.162992e+02
  -2.514318e+02  -3.617745e+02
   3.558966e+01  -5.194006e+02
   3.685592e+02  -3.232486e+02
   3.345958e+02   9.261382e+01
   1.601108e+02   2.829296e+02
   3.118389e+01   1.825970e+02
  -1.092229e+01   1.113319e+02
   1.771503e+02   1.707210e+02
   1.993942e+02   2.940860e+02
  -9.453389e+01   2.753215e+02
  -3.456723e+02   5.231094e+01
  -4.306877e+02  -1.787949e+02
  -9.936853e+01  -2.128526e+02
   2.247663e+02  -1.195758e+02
   3.897762e+02   1.712521e+02
   8.315398e+01   2.995457e+02
  -1.977383e+02   2.581002e+02
  -3.456065e+02   9.052480e+01
  -2.666107e+02  -7.390044e+01
  -6.474135e+01  -1.746715e+02
  -6.653229e+01  -1.126151e+02
  -8.299136e+01   2.029227e+01
  -8.650413e+01   7.967087e+01
  -9.280400e+01  -1.423807e+02
   6.009973e+01  -3.699159e+02
   2.219550e+02  -3.132955e+02
   1.762337e+02  -3.746423e+01
   3.381506e+01   1.572559e+02
  -5.762337e+01   1.305003e+02
  -1.043074e+02  -1.984869e+02
   1.118580e+02  -2.617919e+02
   3.072199e+02  -1.192199e+01
   3.291185e+02   2.374674e+02
   1.919951e+02   3.487118e+02
  -1.952203e+02   2.177081e+02
  -3.885394e+02  -6.191268e+01
  -2.873914e+02  -1.286980e+02
  -2.220239e+01  -1.900869e+02
   1.897429e+02  -9.426099e+01
   2.027282e+02  -5.783051e+01
   2.710088e+01   1.587577e+01
   3.824813e+01   3.696863e+01
   2.956288e+01  -1.066966e+01
   1.856989e+02   1.383081e+01
   1.388368e+02   1.675606e+02
  -1.155887e+02   1.855302e+02
  -2.656523e+02   2.092836e+02
  -2.565234e+02  -1.226911e+02
   3.163713e+00  -3.467116e+02
   2.807118e+02  -2.957009e+02
   2.977764e+02  -1.034075e+02
   1.595018e+02   1.490157e+02
  -2.544982e+01   2.823934e+02
   1.624781e+01   1.997430e+02
  -2.261793e+01   1.510412e+02
  -4.848480e+01   9.192779e+01
  -1.116077e+02   7.293347e+01
  -2.188947e+02  -3.819477e+01
  -1.815887e+02  -1.460586e+02
  -1.077261e+02  -2.524875e+02
   1.348706e+02  -1.577795e+02
   1.173564e+02   3.769471e+01
   9.086731e+01   2.186221e+02
  -2.407382e+01   1.788193e+02
  -2.202250e+02  -1.304034e+01
  -2.839420e+02  -1.535160e+02
  -1.343314e+02  -2.031686e+02
   1.719751e+01  -1.857394e+02
   1.371531e+02  -2.124489e+02
   7.983097e+01  -6.217374e+01
   1.184621e+02  -5.313448e+01
   2.423245e+02  -4.746892e+01
   3.234168e+02   7.450277e+01
   3.263075e+02   3.083573e+02
  -1.679887e+01   3.998047e+02
  -3.163946e+02   2.665441e+02
  -3.854796e+02   2.057582e+02
  -2.553446e+02  -1.409855e+02
  -2.714181e+01  -2.261280e+02
   1.114070e+02  -1.218556e+02
  -5.363490e+01  -6.165719e+00
  -6.593286e+01   3.000166e+01
  -2.863754e+01  -3.556008e+01
   2.526034e+01  -1.290472e+02
   9.060097e+01  -2.682811e+01
   8.229319e+01   6.689353e+01
  -5.174232e-01   7.573999e+01
  -7.006487e+01  -3.505479e+01
  -1.382129e+02  -1.509519e+02
   7.727538e+01  -2.891172e+02
   1.318090e+02  -1.728541e+02
   2.914774e+02   8.162033e+01
   2.265801e+02   2.623974e+02
  -1.597673e+01   2.537888e+02
  -9.094015e+01   7.256720e+01
  -8.772586e+01  -1.325629e+01
  -2.178921e+00  -3.207396e+01
   7.328621e+01   6.659579e+01
  -1.701660e+01   1.076692e+02
  -9.313559e+01   7.047065e+01
  -1.788270e+02  -4.799432e+01
   7.933404e+01  -8.293355e+01
   1.061307e+02   2.558130e+01
   3.674733e+01   5.558411e+01
  -1.481878e+02   7.297980e+01
  -3.342778e+02   1.463587e+01
  -2.086761e+02  -1.348870e+02
  -1.715317e+00  -2.118331e+02
   1.985454e+02  -2.599563e+02
   2.320399e+02  -6.752710e+01
   6.249649e+01   3.692331e+01
  -7.002147e+01   5.000622e+01
   3.424259e+01   2.873296e+01
   4.632042e+01  -5.184600e+01
   1.983509e+02   1.844447e+01
   1.382522e+02   7.177660e+01
   3.053354e+01   1.623519e+02
  -1.014428e+02   1.259150e+02
  -4.948154e+01   4.968834e+01
  -1.313758e+01  -1.874567e+01
   1.091831e+01   4.590016e+01
   1.455649e+01   8.683301e+01
  -1.211598e+02   7.826041e+01
  -1.583676e+02  -6.446253e+00
  -1.193015e+02  -1.047313e+02
   2.239792e+01  -1.336778e+02
   1.139941e+02  -6.809556e+01
   2.146697e+02  -1.683773e+01
   3.550327e+01   3.641682e+01
  -1.278564e+01   1.283325e+02
  -6.709175e+01   5.645785e+01
   1.200921e+01  -3.656312e+01
   1.091138e+02  -3.179683e+00
   1.354067e+01   5.646483e+01
  -6.772957e+01   3.643729e+01
  -6.523742e+01  -9.893814e+01
  -2.019715e+01  -2.122678e+02
   1.324959e+02  -1.118976e+02
   2.049025e+02  -7.857210e+01
   1.778959e+02   1.519228e+02
   3.008852e+01   1.633575e+02
  -5.769287e+01   1.256814e+02
  -8.919138e+01   3.120313e+01
  -7.552518e+01  -6.883821e+01
   5.272356e+01   3.081125e+01
  -2.694941e+01   2.852616e+01
  -5.095315e+01   9.955689e+00
  -9.436962e+01  -1.925879e+01
  -7.626821e+00  -9.909812e+01
   8.943083e+01  -7.423730e+01
   7.543061e+01   1.621202e+01
  -2.520394e+01   7.719865e+01
  -1.830611e+02   4.489226e+01
  -1.964984e+02  -6.525098e+01
  -4.779453e+01  -1.663675e+02
   1.092617e+02  -1.675370e+02
   2.181273e+02  -3.877453e+01
   2.584506e+02   1.273220e+02
   6.299438e+01   1.671970e+02
   2.041968e+01   4.635957e+01
  -6.627553e+01   8.482292e+01
  -4.527043e+01   1.356696e+02
  -1.486922e+01   1.234721e+02
  -5.213494e+01   8.786742e+01
  -1.496001e+02   3.239443e+01
  -1.458320e+02  -6.715888e+01
  -6.339956e+01  -1.969837e+02
   9.394542e+01  -1.527452e+02
   1.974111e+02  -2.875876e+01
   1.601096e+02   6.270224e+01
   2.129009e+01   1.021927e+02
  -8.497118e+01   3.660540e+01
  -9.648067e+01   2.204732e+01
  -6.687436e+00  -3.369710e+01
  -1.888545e+01  -6.086426e+01
  -3.793853e+01   1.899890e+01
  -2.734808e+01  -1.358931e+01
   9.013147e+00  -7.710235e+00
   1.025524e+02  -7.352143e+01
   1.386666e+02  -1.915048e+01
   1.399682e+02   5.163957e+01
   2.193209e+01   7.473598e+01
  -1.236138e+02   5.831356e+01
  -1.145922e+02   5.208317e+01
  -1.852531e+01  -2.147970e+01
   9.098662e+01   2.678703e+00
   6.934066e+01   1.693504e+01
   4.690583e+01   1.474301e+02
  -7.391570e+01   9.151646e+01
  -3.210482e+01   5.997117e+01
  -6.497541e+01  -2.954401e+01
  -4.944490e+01  -1.581145e+01
  -5.605064e+01   9.835136e+00
  -5.369863e+01  -1.528702e+00
  -6.258253e+01  -7.010597e+01
   5.159025e+01  -1.162765e+02
   7.405313e+01  -1.512117e+02
   1.554577e+02  -3.806696e+01
   9.308334e+01   5.241664e+01
   7.454629e+01   1.023727e+02
  -4.219350e+01   4.033789e+01
  -7.730557e+01   2.871322e+01
   9.333699e+01  -2.233522e+01
   1.065440e+02  -4.865445e+01
   6.441354e+01   4.652954e+01
  -5.902277e+01   1.574807e+02
  -2.033830e+02   5.642645e+01
  -1.354745e+02   1.568358e+01
   9.113269e+00  -9.262735e+01
   3.622086e+01  -1.840037e+01
   6.102598e+01  -1.171590e+01
  -2.086287e+00   5.242825e+01
  -1.426785e+02   1.213571e+01
  -4.729830e+01  -1.122133e+02
   5.386211e+01  -9.940854e+01
   1.252424e+02  -1.079062e+02
   1.589151e+02   8.863662e+01
   4.507195e+00   1.799820e+02
  -5.099680e+01   1.118620e+02
  -3.974721e+01   3.427081e+01
  -3.829915e+01  -9.881985e+01
  -2.614010e+01  -9.192840e+01
   4.451011e+01  -5.103884e+01
   5.637410e+01   4.835316e+01
   6.401679e+00   8.562627e+00
   3.806640e+01  -6.083128e+00
   8.191037e+01   1.345705e+01
   3.290290e+01   7.718027e+01
   7.480277e+01   6.356986e+01
  -2.239834e+01   7.767377e+00
  -1.102729e+02  -4.531850e+01
  -1.351936e+02  -2.433414e+01
  -1.950533e+00  -6.238384e+01
   8.820843e+01  -4.083420e+01
   4.062420e+01   5.418542e+00
   4.662829e+01   2.174387e+01
  -6.771007e+01   3.713572e+01
  -2.342419e+00  -1.054572e+01
  -8.847753e+00  -4.447860e+01
  -2.403928e+01  -2.166116e+01
  -3.086869e+01   2.342846e+01
  -1.058484e+02   4.615901e+00
   1.876346e+00  -1.032313e+02
   5.336048e+01  -1.229259e+02
   1.550405e+02  -6.884407e+01
   1.658517e+02   9.246583e+01
   5.070785e+01   1.234896e+02
  -7.405525e+01   1.957766e+02
  -1.153323e+02   6.020779e+01
  -1.142288e+02   4.441409e+01
  -1.482508e+01  -7.373047e+01
   2.897055e+01   4.668327e+01
   5.202654e+00  -1.235222e+01
  -3.851680e+01  -5.760170e+01
  -5.208770e+00  -5.202426e+01
  -4.569991e+00  -6.351830e+01
   1.950119e+01   5.320074e+00
   7.392954e+01   2.905430e+01
   4.687381e+00   1.124752e+02
  -1.157257e+01  -2.792755e+01
  -1.456814e+02  -9.352031e+01
  -7.290682e+01  -5.996318e+01
   5.098565e+01  -5.094637e+01
   7.778454e+01  -6.885109e+00
   5.253971e+01   4.544170e+01
  -1.998630e+01   1.221127e+02
  -8.789982e+01   4.785563e+01
   4.875688e+00  -4.506207e+01
   1.187303e+02  -2.182623e+01
  -2.465792e+01   5.840586e+00
  -9.756520e+01   8.235048e+01
  -1.097810e+02  -9.723223e-01
  -2.334411e+01  -5.007689e+01
  -9.098115e+00  -5.893779e+01
   4.977397e+01  -3.676432e+01
   3.145827e+01  -4.652190e+01
   3.438513e+00   6.943019e+01
  -1.925398e+01   3.730433e+01
  -8.316298e+00  -6.381109e+00
  -5.229097e+01  -6.881573e+01
   2.389024e+00   3.793534e+01
   2.227835e+01   4.369533e+00
   2.041156e+01   2.594105e+01
   5.990026e+00  -1.498584e+01
  -2.995683e+01  -5.714965e+01
   4.409679e+00  -8.673709e+00
   2.380373e+01   8.413303e+01
   4.457813e+01   7.514498e+01
  -2.441220e+01   1.110562e+02
  -3.636456e+01   2.539184e+01
  -2.286193e+01  -3.628499e+00
   3.657644e+01  -2.025829e+01
   9.831753e+01   4.783917e+01
   2.269415e+01   5.570566e+01
  -4.127864e+01   2.305869e+01
  -8.211105e+01   4.029639e+00
  -1.331302e+02  -1.008174e+01
  -3.222507e+00  -5.012883e+01
   4.556688e+01  -1.239944e+01
   4.742126e+01  -2.172142e+01
  -6.432988e+01  -5.647579e+00
  -3.892301e+01   4.880244e+00
   6.144927e+01  -2.424483e+01
   4.182245e+01   2.215715e+01
