
 $NMID
 id='ANONYMOUS ', fmtdat='(2E16.6)'
 volume=1.0
 tramp=1.0
 $END
  -2.186425e+02  -1.392805e+02
  -7.887369e+01  -1.662546e+02
   1.145422e+02  -1.359961e+02
   9.725841e+01  -3.531731e+00
   6.267194e+01   1.858269e+01
   8.646619e+00  -1.358894e+01
   2.019863e+01  -4.976702e+01
  -2.592866e+00  -3.312699e+01
   5.944388e+01  -4.311841e+01
  -2.001520e+01  -1.613030e+01
  -4.110192e+01   5.787603e+01
   7.427178e+00   8.723129e+01
  -5.807568e+01  -2.804456e+01
  -6.200703e+01  -1.541057e+01
   7.810899e+01   1.249008e+01
   2.516915e+01  -5.014084e+00
  -1.845212e+01   5.565221e+01
  -4.710224e+01   5.142811e+01
  -6.642560e+01   7.264161e+00
   6.007709e+01  -6.428694e+00
   5.916251e+00  -8.146229e+01
   1.444604e+00  -5.623075e+01
  -1.421774e+01  -9.632584e+00
  -2.855781e+01  -2.567104e+00
  -7.365659e+01  -2.316227e+00
  -2.016794e+01   3.255363e+00
   4.072006e+01   3.638639e+01
  -4.191735e+01  -4.069915e+00
  -4.128039e-01   2.176768e+01
   5.266150e+01  -9.283485e+00
  -1.949552e+01   1.085430e+01
   1.267375e+01  -2.046347e+01
   3.343182e+01   4.480005e+01
   6.269141e+01   2.374359e+01
   8.268460e+00   3.402737e+01
  -8.626238e+00  -3.008732e+01
  -1.857065e+01  -2.261846e+01
   6.167709e+01  -7.461822e+00
   2.945431e+01  -2.039894e+01
  -3.603565e+01  -7.249830e+01
  -4.166608e+01   1.050690e+01
   1.864396e+00  -3.543583e+01
  -3.978991e+00  -5.977480e+01
  -3.226057e+01   2.202425e-01
   2.757469e+01   1.087832e+01
  -2.584185e+01   2.660584e+01
  -2.174238e+01   1.942423e+01
   1.286769e+01  -4.993879e+01
  -8.848770e+00  -1.166056e+00
   4.352828e+01  -3.604665e+00
  -1.046651e+01   5.911751e+00
   1.887455e+01  -6.990458e+00
  -1.560238e+01   2.580548e+00
   2.569399e+01  -1.121588e+01
  -2.429352e+01  -1.857392e+01
  -1.656373e+01   2.651730e+01
  -3.028210e+01   4.692802e+01
  -1.405959e+01   3.441669e+01
   2.402974e+00  -5.831685e-01
  -4.140292e-01  -2.260787e+01
   2.113010e+01  -3.254023e+01
   5.636396e+01  -4.614108e+00
   3.427058e+01   3.483991e+01
  -5.473974e-01   3.955337e+01
  -3.795603e+01  -3.715988e-01
  -9.323376e+01   1.721404e+01
   1.131658e+01  -2.370689e+01
   5.205756e+01   2.370039e+01
   2.744892e+01  -9.744185e+01
  -3.492962e+01  -4.686633e+01
   1.578069e+01   1.877762e+00
   2.818637e+01  -2.920151e+01
   3.205368e+00  -2.078941e+01
   5.416255e+01  -1.919879e+01
   3.459861e+01   2.708258e+01
   1.253010e+00  -2.949475e+01
  -1.057295e+02  -1.920014e+01
  -6.808245e+01  -3.507422e+01
   2.330550e+01  -5.558332e+01
  -2.213903e+01   6.763991e+00
   3.729056e+01   2.286378e+01
  -2.502350e+01   5.679309e+01
   5.089846e+00   3.979586e+01
  -2.982001e+01  -5.388641e+01
   1.506691e+00  -5.446081e+00
  -4.704975e+01  -4.722317e+01
   5.193817e+01  -1.248351e+01
  -9.259063e+00  -4.167922e+01
  -2.034621e+01   2.081818e+01
  -6.297236e+01  -1.378944e+01
  -3.762124e+01   1.761490e+01
   3.429493e+01  -1.538652e+01
   1.928152e+01   1.441983e+01
  -6.271258e+00   2.171910e+01
   9.033828e+00   4.584885e+01
   5.409605e+01   2.431538e+01
   6.187141e+01   6.886336e+01
  -1.374418e+01   6.530289e+01
   3.596497e+01  -6.581776e+00
  -7.406574e+01   5.872410e+01
  -3.114661e+01   1.025771e+01
  -3.126269e+01  -2.153133e+01
  -1.639878e+01  -2.273519e+01
   1.486096e+01  -5.975528e+00
   4.140672e+01  -1.842467e+01
  -8.406232e+01   1.534554e+01
  -1.783048e+01   2.555690e+01
  -1.491727e+01   1.039945e+01
  -2.553058e+01  -2.359279e+01
   6.094257e+01  -4.292275e+01
  -2.236403e+01   2.798528e+01
  -2.960900e+01  -7.021940e+00
  -9.639720e+00  -1.367734e+01
   4.856787e+01  -7.311868e+00
  -5.499478e+00   3.747830e+01
   1.870681e+01   5.158690e+01
   4.846030e+01   2.905572e+01
   3.923070e+01   3.163751e+01
  -2.063674e+01  -8.870285e-01
  -1.399740e+01  -1.379686e+01
  -3.097629e+00   8.022384e+00
  -1.381656e+01   1.890088e+01
   1.174018e+02  -2.379861e+00
  -1.337465e-01  -4.287695e+01
  -3.161617e+00  -1.496607e+01
  -1.037498e+01  -1.375274e+00
  -4.720615e+01  -3.106367e+00
   3.203932e+01  -3.634552e-01
   7.487342e+00  -2.439366e+01
  -3.954911e+00   3.469069e+01
  -7.359419e+01  -1.674854e+01
  -1.140178e+01  -5.819480e+01
  -2.634366e-01  -3.215257e+01
   1.279804e+01   3.826376e+01
  -2.688145e+01   5.553321e+00
   4.081437e+01  -2.237425e-01
   2.059290e+01   2.695641e+01
  -5.104036e+00  -4.949702e+01
  -2.763883e+01   1.394660e+01
   3.271902e+01   7.977061e+00
  -5.342890e+01   7.804874e+01
   5.614763e+01   7.981424e+00
  -8.191192e+01  -3.232332e+01
   3.092441e-01  -3.187877e+01
  -1.260779e+01  -2.153862e+01
  -1.014000e+01   3.740915e+00
   6.329456e+01   1.208448e+01
  -1.864973e+01   1.168607e+01
  -2.208745e+01   5.183712e+00
   7.636593e+01  -4.428573e+01
   2.131835e+01  -4.662131e-01
   8.923211e+00   3.067034e+00
  -5.206925e+00  -3.078352e+01
  -3.569868e+01   2.308535e+01
  -8.635925e+01  -5.378663e+01
   5.159557e+00   3.599910e+00
  -3.693239e+01   5.027135e+01
   9.526132e+00   3.180577e+01
   1.983913e+01   2.451573e+01
  -1.154851e+01   6.750635e+01
   2.730276e+01   1.796982e+01
   6.342606e+00   1.755108e+01
   3.694693e+01   1.545011e+01
   6.479348e+01  -1.068586e+01
   3.219893e+01   2.888894e+01
  -4.001286e+01  -1.584751e+01
  -3.921786e+01   3.541556e+01
   2.216489e+01  -1.387825e+01
   2.136305e+01  -7.717748e+00
   9.693568e+00   1.384412e+01
  -2.182112e+01  -8.008776e+00
  -2.096903e+01   1.881589e+00
   7.273645e+01   2.885938e+01
   5.077581e+01  -6.150476e+00
  -2.201814e+01   4.136839e+01
  -2.684724e+01  -4.439750e+01
   3.085647e+01   1.184067e+01
   8.385068e+00  -2.383810e+00
  -1.280575e+00   2.355178e+01
   2.963585e+01   5.383069e+01
  -2.663171e+00   6.434688e+01
  -1.711491e+01   1.076207e+01
   5.970831e+00  -1.887555e+01
  -2.921273e+01   8.129015e+00
  -1.724578e+00  -2.816833e+01
  -4.481332e+01  -3.196097e+01
   2.035143e+01  -5.782544e+00
  -2.408727e+01  -2.165098e+01
   2.675299e+01  -7.499428e+01
  -2.824517e+01   2.619669e+01
   7.964265e+01   2.942437e+01
   2.213944e+01  -3.068320e+01
  -4.226682e+01  -2.200758e+01
  -1.614639e+01   1.660372e+01
   7.185966e+00   2.015988e+01
  -3.220049e+01  -1.988103e+01
  -2.781771e+01  -9.864083e+00
   4.334932e+01  -3.752437e+01
   3.901627e+01   1.954303e+01
   1.864164e+01   1.063959e+01
  -7.719390e-01  -5.618266e+01
  -2.552772e+01  -7.002117e+00
   5.148752e+01   1.791107e+01
  -2.411540e+01  -2.147846e+01
  -4.306167e+01  -6.374304e+01
   1.670394e+01  -2.180706e+01
   4.274425e+00  -6.673657e+00
  -3.295191e+01  -3.569749e+00
  -4.072654e+01  -5.583973e+01
   1.007804e+01  -1.719079e+01
   5.974005e+01   3.144239e+01
  -9.346117e+01  -6.896889e+01
  -2.210622e+00   1.181760e+01
  -1.742476e+01  -4.474212e+01
   2.878326e+01  -1.077632e+01
  -6.339652e+01  -2.887492e+01
   1.594233e+01   8.448372e+00
  -7.575535e-01  -4.091081e+01
  -8.228988e+00   1.340005e+01
   5.436193e+01   1.040404e+01
   2.148472e+00  -8.257306e+00
   2.503009e+01   1.199051e+01
   2.729187e+00  -1.193032e+00
  -6.793456e+00   1.269565e+01
  -7.663677e+00   9.568042e+00
  -6.332086e+01   1.747302e+00
   2.906289e+01  -2.941159e+01
  -3.498041e+01   8.180940e+00
  -1.080937e+01   4.367963e+01
  -2.654410e+01  -3.909452e+01
  -1.957643e+01   7.424261e+00
   2.773191e+01  -7.026990e+00
   5.735523e+01   2.280686e+01
   2.981743e+00  -1.663656e+01
   9.302592e+00   5.243229e-01
  -1.943676e+01  -2.471930e+00
  -2.609217e+01  -4.163299e+00
   2.121656e+01   1.592464e+01
  -1.822188e+01  -3.229056e+01
   4.209367e+01   1.442745e+01
   2.845713e+00  -5.474491e+01
   3.146370e+01  -6.814530e+00
  -2.467137e+01   2.202495e+01
   6.265325e+01  -5.754959e+01
   1.790177e+00   2.339720e+01
   2.343594e+01   3.916528e+01
  -1.885195e+01   4.756172e+00
   4.412420e+01   2.742412e+01
   1.108527e+00   8.570812e+00
  -5.696848e+01   4.208753e+00
  -1.000833e+01  -1.867031e+01
   1.781922e+01  -9.018500e+00
  -3.501236e+01   1.270110e+01
   2.016675e+01  -6.733007e+01
  -6.223311e+01  -4.288299e+01
  -5.414547e+01  -9.357824e+00
   5.963614e+01   1.716807e+01
   2.064344e+01   7.514046e+01
   2.219679e+01   7.393493e+01
  -4.086814e+00   5.576447e+01
   2.407409e+01   1.166823e+01
   4.180444e+01   3.518049e+01
   1.240272e+01   3.277236e+01
  -8.720622e+00  -1.253649e+00
   5.628028e+01  -3.881675e+01
   6.797782e+00   1.468306e+01
   4.621039e+01   1.740297e+01
  -2.263490e+01  -5.306102e+01
  -5.167491e+01   5.062090e+01
  -1.866541e+01  -1.009028e+00
   6.143143e+00   3.599738e+01
  -1.183731e+01   2.579244e+01
  -2.319930e+01  -1.733571e+01
   1.802839e+01  -5.738138e+01
   6.508905e+01   1.347339e+01
   4.190150e+01   8.241666e+00
  -2.119874e+01   5.103594e+01
   2.700280e+01   4.062686e+01
  -6.717748e+00  -1.592729e+01
   4.525480e+01  -2.994801e+01
   5.912227e+01  -2.842420e+01
  -2.370087e+01   1.419211e+01
  -1.459194e+01  -2.983946e-01
  -1.922841e+01  -4.813443e+01
  -1.612456e+01  -4.959215e+00
  -3.567930e+00  -3.061430e+01
  -2.470477e+01   5.655573e+00
   5.024344e+01  -5.966785e+01
   3.558756e+01   1.352127e+01
  -1.248503e+01   4.280525e+01
   1.631605e+01  -1.500826e+01
   3.307565e+01  -1.144723e+01
   7.255318e+01   6.445537e-02
  -1.041099e+01  -5.873097e+01
  -3.446970e+01   6.615143e+00
  -1.019058e+01   2.081254e+01
  -3.916706e+01  -3.482281e+01
  -4.438952e+01   1.087282e+01
   3.391009e+01  -1.680124e+01
  -5.532461e+01  -2.847496e+01
   7.039339e+01  -1.733758e+00
   2.689448e+01   3.898593e+01
   5.590939e+00  -1.029996e+01
  -5.938680e+01   7.880259e+00
  -3.669649e+01  -6.492609e+01
   5.977985e+00  -2.986487e-01
   3.353282e+00   3.393449e+01
   2.425907e+01   7.766262e+01
  -2.729180e-01   9.787921e+00
   4.287488e+01  -2.241254e+01
   4.022068e+01   1.680008e+01
  -1.637374e+01  -5.900300e+01
  -8.799312e+00  -2.831076e+00
  -4.564532e+01   5.854529e+01
  -4.267465e+01  -8.144629e+00
   4.460959e+01  -5.897361e+00
  -1.096016e+01  -9.513992e+00
  -2.222933e+01  -1.932473e+01
  -3.453210e+01   8.478078e+01
  -6.812285e+01   3.907999e+00
