
 $NMID
 id='ANONYMOUS ', fmtdat='(2E16.6)'
 volume=1.0
 tramp=1.0
 $END
  -1.758468e+03  -1.592043e+02
  -9.396374e+02  -9.972373e+02
   2.487476e+02  -1.069526e+03
   8.076582e+02  -3.941261e+02
   4.241467e+02   1.748910e+02
  -2.549560e+02   1.550392e+02
  -3.019705e+02  -1.407371e+02
   6.414436e+01  -3.615137e+02
   2.951290e+02  -2.602052e+02
   3.779729e+02  -3.122203e+00
   1.871091e+02   3.189426e+02
  -1.082096e+02   3.750483e+02
  -1.922271e+02   2.969031e+01
  -1.373898e+02  -2.768371e+02
   7.501730e+01  -2.711139e+02
   1.858965e+02  -1.908783e+01
   1.316415e+02   2.749486e+02
  -1.677102e+02   2.148434e+02
  -2.658994e+02   7.104843e+01
  -1.737767e+02  -1.297937e+02
  -4.052256e+01  -1.833712e+02
   5.317557e+01  -9.410213e+01
   8.195583e+01  -3.725380e+01
  -8.679676e+01  -4.815329e+01
  -1.332618e+02  -7.045179e+01
  -2.387466e-01  -2.003306e+02
   2.031533e+02  -9.637677e+01
   3.381841e+02   7.226392e+01
   8.919727e+01   2.221125e+02
  -1.691329e+02   1.696157e+02
  -2.865302e+02  -5.270695e+00
  -4.111926e+01  -2.199328e+02
   1.590457e+02  -1.407944e+02
   2.104329e+02  -9.649553e+01
   1.270549e+02   1.247226e+02
   3.966674e+00   1.710511e+02
  -7.984120e+01   1.324624e+02
  -3.199768e+01  -2.049394e+01
   7.855701e+01  -1.313592e+02
   1.803852e+02   1.680235e+01
   6.658639e+01   2.126708e+02
  -1.143763e+02   2.685485e+02
  -2.272981e+02  -1.468490e+01
  -5.774524e+01  -1.840613e+02
   6.389790e+01  -1.332552e+02
   1.567168e+02   1.786244e+02
  -1.842349e+01   1.965880e+02
  -2.534924e+02  -1.266163e+01
  -2.232518e+02  -1.527964e+02
  -7.868694e+00  -2.377934e+02
   1.200665e+02  -1.608825e+02
   2.719370e+02   4.117688e+01
   1.708516e+02   2.253577e+02
  -5.373192e+01   1.025361e+02
  -1.631112e+02  -1.907413e+01
  -7.303458e+01  -6.488612e+01
   8.488009e+01  -6.955907e+01
   6.663478e+01   5.102912e+01
  -5.352894e+01   7.587662e+01
  -1.618922e+02  -1.156336e+01
  -4.970961e+01  -6.700172e+01
   9.328788e+01  -1.606253e+02
   1.652708e+02  -6.683802e+01
   5.826803e+01   5.383053e+01
  -8.261736e+01   1.488490e+02
  -8.391145e+01   1.725501e+02
  -9.140258e+01   1.178945e+02
  -1.150476e+02  -5.666261e+01
  -3.309799e+01  -1.535861e+02
   5.484159e+01  -1.367815e+02
  -1.003536e+01  -8.940332e+01
  -2.113266e+01  -4.906218e+01
   5.599099e+01  -7.963842e+01
   1.139198e+02   8.317705e+00
   1.692808e+02   7.033161e+01
   1.277539e+01   1.380444e+02
  -9.770031e+01   2.816620e+01
  -9.259044e+01   7.889021e+01
  -9.366852e+01  -8.305451e+01
   4.177410e+01  -1.655811e+02
   1.521698e+02   2.127342e+01
   1.001520e+02   1.099003e+02
   6.795832e+01   1.506602e+02
  -3.074277e+01   1.614961e+02
  -6.462581e+01   6.935428e+01
  -8.594100e+00   5.603571e+00
  -8.418701e+01   4.227572e+01
  -1.322199e+02   4.262662e+00
  -1.397244e+02  -5.212275e+01
  -1.197128e+02  -1.395354e+02
   5.466908e+01  -1.679984e+02
   2.204934e+02  -2.072695e+02
   2.590938e+02  -5.860332e+01
   1.123452e+02   9.754233e+01
   2.552728e+00   8.625920e+01
  -1.237878e+02   8.490223e+01
  -1.288088e+01   6.839690e+00
   7.917920e+01  -7.219598e+01
   8.649489e+01   9.210134e+00
   3.507429e+01   1.072031e+02
  -4.762799e+01   2.388943e+01
  -6.001278e+01   1.213985e+00
  -1.858993e+01  -1.089009e+02
   8.334598e+01   6.284467e+01
  -1.353818e+00   1.313360e+02
  -3.216942e+01   1.273995e+02
  -8.701547e+01   5.458569e+01
  -1.619778e+02  -8.360151e+01
  -1.718155e+02  -1.108859e+02
  -7.510165e+01  -1.054407e+02
   5.866376e+01  -9.834817e+00
   7.562782e+01   2.563476e+01
   7.301370e+01   5.440420e+01
  -1.914672e+01  -1.649326e+01
  -3.771867e+01  -8.390778e+01
   7.399441e+01  -7.510347e+01
   3.095703e+01  -1.461700e+01
   4.007989e-01   4.127709e+01
  -3.034244e+01   3.519968e+01
  -6.957327e+01  -1.102675e+02
   6.690752e+01  -2.847104e+01
   1.476499e+02   7.634850e+01
   1.235771e+02   9.713364e+01
  -1.562118e+01   6.524279e+01
  -1.610701e+02   1.307934e+02
  -1.408554e+02  -3.046692e+01
  -1.149952e+02   6.445687e+01
   3.251260e+01  -2.653277e+01
  -8.356883e-01  -3.147889e+01
  -2.568258e+01   4.785385e+01
  -3.069431e+00  -3.169206e+00
  -1.407919e+02  -6.022706e+01
  -4.847372e+01  -8.473713e+01
   4.955293e+01  -1.081485e+01
   4.903793e+01   3.055588e+01
  -2.613485e+00  -2.206929e+01
  -1.178752e+01   5.377001e+00
   4.999664e+01  -6.732057e+00
   3.412072e+01  -2.471564e+01
   4.521365e+01   8.648052e+00
   5.311684e+01   7.428364e+01
  -4.717466e+00   1.015600e+02
  -7.821411e+01   5.299168e+01
  -5.544591e+01   4.835266e+00
  -6.453605e+01  -3.951351e+01
   2.119246e+01  -5.922928e+01
   2.710982e+01   2.050868e+01
  -6.231285e+00  -2.656065e+01
   1.147510e+01  -8.637662e+00
  -1.377661e+01   3.034615e+01
   1.928194e+01  -4.430234e+01
   4.970870e+01   4.914067e+00
  -3.227461e+00   5.914722e+01
  -5.019801e+01   1.763497e+01
  -1.170450e+02  -8.349563e+00
  -7.134636e+01  -9.952915e+01
  -4.287943e+00  -6.230016e+01
  -1.887686e+01  -6.772454e+01
   8.636535e+01   1.291840e+00
   2.619125e+01   4.241853e+01
   3.115317e+01   5.156143e+01
   1.657572e+01   1.910220e+01
   8.352073e+01   5.792680e+00
   5.150104e+01   3.431920e+01
  -3.712291e+01  -6.825666e+00
  -5.877144e+01  -6.148053e+01
   4.833629e+00   2.926766e+01
  -3.361362e+01  -3.236651e+01
   1.233072e+02  -3.751967e+01
   4.309182e+01   4.485513e+00
   4.034770e+01   9.857741e+01
  -6.488897e+01   2.020172e+01
  -9.011628e+01   8.689498e+00
  -9.275035e+01  -8.005877e+01
  -3.521407e+01  -6.082336e+01
   7.006872e+01  -1.196963e+02
   9.181657e+01  -4.361295e+01
   9.350579e+01  -1.143420e+02
   6.850313e+01  -3.207802e+01
   7.394273e+01  -4.349848e+01
  -3.339945e+01   4.665483e+00
   5.764454e+00   7.391896e+01
  -2.956490e+01   4.870082e+01
  -3.182256e+01   8.361733e+01
  -5.477573e+01   2.524464e+01
  -7.439268e+00   1.792023e+01
   6.671799e+00  -8.566183e+01
   3.705201e+01  -4.357071e+01
  -1.799004e+01   6.880803e-01
   2.269386e+00   2.150453e+01
   2.960741e+01   7.696974e+00
  -8.991570e+00   9.178495e+00
   5.105602e+01   1.819333e+01
   2.846345e+01  -6.973947e+00
  -3.890348e+00   5.006735e+01
  -7.209539e+01   2.424810e+01
  -9.914008e+01  -5.031606e+01
  -3.470664e+01  -3.082529e+01
   8.315485e+01   5.607070e+01
   4.340111e+01   4.532346e+01
   5.387516e+01   7.417958e+00
   4.480592e+01   3.257256e+01
   9.125141e+00  -1.193340e+01
  -6.248292e+00  -3.956761e+01
   6.191454e+01  -5.015936e+01
  -1.711527e-01   1.633788e+01
  -1.450481e+01   4.473212e+01
  -1.622987e+01   4.804565e+01
   2.347690e+01  -2.257702e+00
   2.234900e+01   4.351307e+01
  -3.516578e+01   4.898200e+01
  -3.922862e+01   1.044667e+02
  -2.314487e+01   1.006720e+02
  -8.760447e+01  -5.239009e+01
  -4.661999e+01  -5.300178e+01
   4.153894e+01  -7.118578e+01
   9.919416e+01   3.830046e+01
   3.750016e+01   2.501989e+01
  -6.690195e+01   2.654876e+01
  -1.033593e+02  -4.761669e+01
  -6.215319e+01  -8.362866e+01
   3.151879e+01  -1.205928e+01
   2.590335e+01   2.505396e+01
   3.305527e+01  -5.931360e+00
  -1.426367e+01   3.148983e+01
   1.448823e+01   4.946426e+01
  -2.775882e+00   2.972132e+01
   6.531312e+00   5.055339e+01
   1.339142e+01  -6.729567e+00
   4.328449e+01   6.504354e+01
   7.361011e+01   3.024875e+01
  -5.154211e+01  -2.596360e+01
  -9.238110e+01  -9.234064e+01
  -1.093100e+01  -5.426694e+01
   6.336757e+01  -4.740075e+01
   9.538285e+01   4.460722e+01
   3.288549e+01   8.256595e+01
  -4.998290e+01   9.869044e+00
  -4.536805e+01   4.262605e+01
   9.645441e+00  -2.007260e+01
  -1.761549e+01   2.704616e+01
   1.467942e+01  -2.068681e+01
  -4.123993e+01   1.555998e+00
  -9.101328e+01  -9.516068e+01
   1.326748e+00  -8.912281e+01
  -4.037993e-01  -5.323480e+01
   3.150204e+01  -1.239937e+01
   6.763100e+01   6.270076e+00
  -6.422954e+00  -5.692081e-01
  -4.667642e+01  -1.124937e+01
  -9.275834e+01  -2.663451e+01
  -4.504725e+01   4.742849e+01
   3.465768e+01  -2.748382e+00
   8.751864e+01   5.497641e+01
  -3.599817e+01  -1.547340e+01
  -5.388670e+01  -1.186858e+01
   7.603914e-01  -2.803681e+01
   5.060980e+01   4.139067e+01
   1.806789e+01   3.962765e+01
  -2.270097e+01   8.358659e+01
  -1.194669e+02  -1.730941e+01
  -7.206711e+01  -1.878722e+00
  -4.367008e+01  -3.599196e+01
   3.990032e+01  -1.234962e+01
   4.755432e+01   4.973412e+00
  -8.126374e+00  -4.468766e+01
  -1.976369e+01   3.115944e+01
  -1.426011e+01  -2.246149e+01
   9.080978e+01  -1.746063e+01
   1.971332e+01   5.306436e+01
  -4.462712e+00   3.581556e+01
   1.733723e+01   3.317327e+01
  -4.503644e+01  -1.952650e+01
  -7.596551e+01  -9.863236e+01
   2.723268e+01  -1.130400e+01
   5.091456e+01  -1.294806e+01
   4.394561e+01  -3.650393e+01
   6.452862e+01   5.684419e+01
  -7.028592e+01   4.650018e+01
  -8.879808e+01  -1.873409e+01
   2.605494e+01   1.036819e+01
   5.944643e+01  -2.476719e+01
  -2.023189e+01  -8.596072e+01
  -6.232766e+00  -1.361027e+01
  -6.886772e+01  -3.875644e-01
   3.976307e+01  -7.022210e+01
   5.170927e+01   6.846705e+00
   3.803599e+01  -4.452320e+01
   1.746919e+01  -4.330553e+01
  -1.510684e+01   3.713375e+01
  -4.775849e+01   1.025757e+02
  -4.514555e+01   9.415947e+00
  -3.841464e+01  -7.614857e+01
   3.941745e+01  -2.578544e+01
  -6.754109e+00  -7.635944e-01
   4.149633e+00   2.297447e+01
   3.098836e+00   1.231049e+01
  -1.106111e+00  -5.133828e+00
   1.210899e+01  -5.580844e+01
  -1.250477e+01   3.139164e+01
   1.679481e+01   4.536854e+01
   4.233722e+01  -1.469280e+01
  -3.403308e+01  -7.521615e+00
  -3.123691e+01  -1.459550e+01
  -3.719899e+01   3.020932e+01
   2.995469e+01   1.548464e+01
   1.167893e+01   2.383598e+01
  -2.510134e+01  -1.975744e+01
  -5.090831e+01  -5.779495e+00
   1.213453e+01  -1.877988e+01
   3.333549e+01  -2.297313e+01
   1.629058e+01   9.264530e+00
   4.139677e+01  -9.861628e+00
  -3.737735e+01  -9.411131e+00
  -1.087729e+01   1.811208e+01
  -4.960526e+01   2.315706e+01
   4.149555e+01  -9.057588e+00
   4.397050e+01  -1.765152e+01
   3.530663e+01  -2.587447e+01
  -6.417633e+01   6.679114e+01
