
 $NMID
 id='ANONYMOUS ', fmtdat='(2E16.6)'
 volume=1.0
 tramp=1.0
 $END
  -3.930521e+02  -1.038477e+02
  -1.346132e+02  -3.461217e+02
   2.150934e+02  -2.536265e+02
   2.635719e+02  -5.333944e+01
   8.970730e+01   1.167951e+02
  -8.864375e+01   5.129937e-01
  -1.296299e+02  -7.910838e+01
   3.969299e+01  -1.080712e+02
   7.118789e+01  -7.915312e+01
   6.783668e+01   1.981716e+01
   2.271569e+01   3.858573e+01
  -6.537763e+01   7.857737e+01
  -7.940154e+01  -3.079204e+01
  -8.678163e+01  -1.833519e+01
   7.812251e+01  -9.054483e+01
   4.391310e+01   3.969579e+01
  -3.384178e+01   1.424730e+02
  -1.055082e+02   4.344599e+01
  -3.775372e+01  -7.310724e+00
  -5.339508e+01  -2.641354e+00
   1.643188e+01  -4.879985e+01
   1.012566e+01  -6.203221e+01
   1.681300e+01  -6.233722e+00
  -7.858182e+01   2.071934e+01
  -7.971925e+01  -4.714568e+01
   5.594882e+01  -4.088950e+01
   4.535249e+01  -4.245948e+00
   4.009634e+01  -1.857193e+01
   8.659709e+01   8.816852e+01
  -7.088435e+01   4.016137e+01
  -1.477951e+02  -1.054593e+01
  -1.566407e+01   6.030061e+00
  -5.444359e+00  -4.514126e+01
   7.320833e+01   5.622689e+01
   1.702354e+01   7.155295e+00
   1.560647e+01   2.339160e+01
  -6.100568e+01   2.343555e+01
  -1.080358e+01  -5.565226e+01
   6.017299e+01  -1.075127e+01
   5.827931e+01  -1.759814e+01
  -4.568809e+00   5.778453e+01
  -8.644204e+01   9.649671e+01
  -1.027805e+02  -8.534047e+00
  -4.719250e+01  -6.238072e+01
   1.154996e+01  -5.998824e+01
   1.613158e+01   5.391639e+01
  -3.971495e+01   6.216099e+01
  -4.698900e+01   5.163346e+01
  -7.058979e+01  -2.594119e+01
  -3.119764e+00  -5.620633e+01
   5.975665e+01  -4.458936e+01
   1.067057e+02  -1.569414e+01
   4.507093e+01   4.209623e+01
  -2.774721e+01   3.959994e+01
  -3.463208e+01  -2.026907e+01
   1.480253e+01  -6.798135e+01
   3.288935e+01   8.575763e+00
   8.422466e+00   3.150898e+01
  -3.842883e+01  -1.126386e+01
  -6.348293e+01   1.553821e+01
  -3.177466e+01  -3.434952e+01
   4.736036e+01  -2.818653e+01
  -1.641701e+01  -1.509899e+01
  -8.191067e+01   3.107452e+01
   3.074620e+01   4.379687e+01
   1.592739e+01  -2.020073e+01
  -2.999564e-01   3.422213e+01
  -3.456004e+01  -3.234560e+01
   3.761027e+01  -1.098741e+02
   4.774620e+01  -4.262274e+01
   6.903771e+00  -1.873001e+01
   3.570774e+01   1.738013e+00
   3.764415e+01  -2.328817e+01
   2.131949e+01   3.591211e+00
   6.361389e+01   6.262834e+01
   5.447438e+00   8.018626e+01
  -3.662008e+01   8.169052e+01
  -2.944860e+00  -6.369342e+01
  -9.758507e+00  -3.611413e+01
  -9.375985e+00  -4.456145e+01
  -2.945992e+00  -8.040473e+00
   8.177720e+01  -3.365726e+01
  -2.743959e+01   2.183126e+01
  -3.897041e+01   5.401573e+00
  -9.710980e+00   6.670532e+01
   1.133626e+01  -5.934446e+00
  -3.317854e+00  -2.665717e+00
  -1.114917e+02  -4.419684e+01
  -5.511972e+01  -1.492348e+01
  -1.777564e+01   8.644025e+00
   1.671469e+01  -2.397953e+01
   5.657630e+00   8.716213e-01
   2.510601e+01  -2.798662e+01
   4.188092e+01   3.763990e+01
  -5.270891e+01   3.442792e+01
   1.591725e+01   2.458926e+01
  -7.751502e+00  -5.522948e+01
   3.888757e+01  -3.551675e+01
   4.747057e+01   6.897892e-01
   5.920059e+01  -4.482511e+00
   2.050634e+01   3.329927e+01
   1.021690e+01   1.257714e+01
  -3.759165e+01   3.501754e+01
  -3.140779e+01  -2.652157e+01
   2.339254e+01   2.831586e+01
  -2.566962e+01   5.322827e+01
  -5.419303e+01   6.639935e+01
   3.546748e+01  -6.398652e+00
  -5.375367e+01  -3.415971e+01
   2.326716e+00  -2.244517e+01
  -1.109595e+00  -6.221930e+00
  -1.074580e+01   3.161160e+01
  -3.746331e+01  -5.595340e+00
   1.103138e+01   5.504590e+00
   2.738086e+01  -6.534647e+01
   2.774024e+01  -4.447457e+00
   3.908921e+01   1.033502e+01
  -9.589901e+00  -7.929217e+00
   3.281488e+01   6.191000e+01
   2.268022e+01  -1.417741e+01
   3.705663e+01  -6.693850e+01
   3.680919e+01   6.371770e+01
  -5.221022e+01   1.232813e+01
  -1.270265e+01   5.327417e+00
  -8.172687e+01  -8.844221e+00
   2.383653e+01   3.910697e+01
  -8.155630e+01  -4.312117e+01
   1.124138e+01  -3.615435e+00
   5.599105e+01   2.745098e+01
  -1.555859e+01   3.894098e+01
   6.720024e+00  -8.988040e-01
   7.198653e+00  -4.574626e+01
  -1.237611e+01   3.316266e+00
   4.424128e+01   7.269502e+00
   1.899707e+01   5.041455e+00
   6.470221e+01   4.609219e+01
  -7.544280e+01  -8.117433e+00
  -4.999398e+01  -7.771677e+01
  -8.307844e+00  -9.241431e-01
  -2.135694e+01  -2.464193e+01
   5.755456e+00   2.010045e+01
   4.667500e+01   2.781442e+00
  -5.910449e+01   1.350109e+01
  -3.982703e+01   2.942931e+01
  -2.278286e+01  -2.817546e+01
  -5.958458e-01  -8.961056e-01
   3.259399e+01  -2.013507e+01
   2.717271e+01  -1.131980e+01
  -1.457444e+01  -2.286739e+01
   3.178113e+00   9.658219e+00
  -2.131496e+01   1.537670e+01
  -1.783440e+01   4.445090e+01
  -3.968300e+01  -1.668836e+01
   3.517376e+01   2.367921e+01
  -5.392736e+01   2.711519e+01
   2.313512e+01  -1.108743e+01
   4.488745e+01  -6.896276e+00
   5.374935e+01  -2.623731e+01
  -4.992312e+01  -1.635425e+01
  -5.830357e+01   3.608466e+01
  -3.854917e+01   5.251965e+01
   7.746340e+00  -2.067559e+00
   9.284919e+00   1.894130e+01
  -4.682799e+01   4.437314e+01
  -5.495799e+01  -3.926630e+01
   7.240741e+01  -3.318811e+01
   2.385611e+00  -1.842820e+01
   8.219719e-01   1.309739e+01
   2.423977e+01   1.694008e+01
   5.368044e+01  -2.450178e+00
   1.964816e+01   3.914917e+01
  -6.244222e+01  -2.758476e+01
  -2.262046e+01  -9.026510e+01
   3.072163e+00  -3.648702e+01
   6.359598e+00   1.188725e+00
   6.372027e+01  -5.064288e+00
   7.540693e+01  -1.356629e+01
   1.097794e+01   9.760153e+00
   6.402633e+01  -2.312875e+01
   1.725765e+01  -2.456125e+01
   6.508413e+01   4.709607e+00
   2.907568e+01   4.981742e+01
  -3.311629e+01   2.376545e+01
  -1.062036e+01   1.216102e+01
  -2.191942e+01  -3.281888e+01
   9.586380e+00  -9.245220e+00
   7.589411e+00  -8.774754e+00
  -1.749549e+01   3.388836e+00
   2.732511e+01   2.383531e+01
  -1.488680e+01  -2.277182e+01
   3.668060e+01   1.153343e+01
  -5.729720e+00  -1.716752e+01
   2.668628e+00   4.106362e+01
  -1.554359e+01  -1.114845e+01
  -3.487226e+01  -1.700323e+01
  -4.565749e+01  -6.296010e+01
   3.306135e+01   3.662388e+01
   1.137563e+01   1.423422e+01
   5.098621e+01  -6.113895e+01
   2.317036e+01  -4.047914e+01
   8.644106e+00  -9.251424e+00
  -4.758328e+01  -7.345646e+00
   3.242245e+01   7.231104e+00
   1.046197e+01  -4.857112e+01
   5.057184e+01   3.371112e+01
  -5.753088e-01  -7.806991e+01
  -1.420369e+01  -4.825359e+01
   1.974879e+01  -7.767712e+00
  -2.300058e+01   4.640552e+01
   3.236783e+01  -4.490239e+01
   5.727157e+00  -1.886954e+01
  -1.960712e+01  -4.038079e+01
  -6.768910e+00  -3.356775e+01
   5.768180e+01  -3.573516e+00
   3.138044e+01  -6.137635e+01
   5.948312e+01  -4.794551e-01
  -5.286230e+00  -2.942239e+01
   7.080181e+00   6.353762e+01
  -6.497115e+01  -2.765466e+01
  -3.738023e+01   5.052971e+00
  -1.984792e+01  -1.096831e+01
  -2.734857e+01   7.241471e+00
  -1.809279e+01   4.072332e+01
   4.438228e+01  -6.589981e+00
  -2.466092e+01  -2.036099e+01
  -2.022489e+01  -2.563342e+01
  -1.316294e+01   2.973172e+01
   1.017689e+01  -2.050852e+01
   3.116328e+01   3.045851e+01
   1.548028e+01   2.365127e+01
   1.097083e+01   6.270262e+01
   4.098384e+00  -3.552608e+01
  -5.133913e+01  -4.319687e+00
   1.932012e+01   2.408223e+01
   5.189590e+01  -4.031853e+01
   3.305465e+01   2.313770e+01
   4.667578e+00  -2.973143e+01
  -1.148438e+01   1.742244e+01
  -8.619057e+00   6.467928e+01
  -6.245029e+00   7.446336e+00
   2.785199e+00  -3.775678e+01
  -6.409392e+01  -3.596639e+00
   4.441715e+01   7.673538e+00
   3.237375e+01   1.716076e+01
  -1.026728e+01  -3.672199e+01
   5.863187e+01  -6.451611e+01
   8.562432e+00  -1.699806e+01
   6.511860e+00  -7.184258e+00
   3.056063e+00  -1.995628e+01
   1.569643e+01  -9.192549e+00
   4.610765e+01   2.064056e+00
   2.186363e+01  -1.440044e+01
  -2.517455e+00  -8.531094e+00
   4.509028e+01   1.778048e+01
   5.987571e+00   1.464192e+01
   6.513642e+01  -7.094376e+00
  -4.161032e+00  -3.441914e+01
   9.266855e+00   5.966558e+00
   2.498981e+01   7.170953e+01
   2.136849e+01   2.582835e+01
  -7.171423e+00  -5.831647e+01
  -6.418289e+01   1.610691e+01
  -8.527366e+00   2.049372e+00
   2.290436e+01   1.278987e+00
   1.824840e+01  -1.102505e+01
   1.407439e+01  -1.227016e+01
   6.526993e+01   2.438927e+01
   4.695215e+01   1.065573e+01
  -3.519647e+01  -2.005626e+01
  -4.872708e+01  -2.589320e+00
   3.349233e+01   4.397931e+01
  -1.312631e+01   3.541238e+01
   1.976478e+01  -8.739555e+01
   1.291712e+01  -3.414627e+01
   3.740976e+01  -3.217342e+01
   1.824579e+01  -1.601390e+01
  -1.195381e+01   1.407305e+01
  -2.979939e+00  -3.394690e+01
   5.703282e+01   4.873074e+00
   2.259492e+01   1.202469e+00
  -2.720376e+00   4.891250e+00
   9.450522e+00  -5.674040e+01
   6.105945e+01   1.418673e+01
  -3.117293e+01   5.829077e+01
  -2.644109e+01  -2.474393e+01
  -4.099444e+00  -4.763956e+00
   3.276695e+01  -6.781350e+01
   2.531315e+00  -1.331636e+01
   3.240653e+01  -2.882146e+01
  -2.593082e+01   1.069483e+01
  -2.126037e+01   1.190748e+00
  -2.908355e+01  -2.661450e+01
   4.303261e+00  -2.394401e+01
   6.344630e+01   1.160487e+01
  -1.108240e+01  -4.588047e+00
  -2.820792e+01   5.956429e+01
   2.234563e+01   3.927005e+01
   2.156312e+01   5.872395e+01
   1.696059e+00  -2.162814e+01
  -3.270379e+01  -4.488030e-01
  -2.685875e+01   4.426927e+00
   1.066807e+01  -2.659825e+01
   4.942708e+01   1.387270e+01
  -1.016852e+00  -1.438570e+01
   4.096094e+01   5.821254e+00
  -8.644005e+01  -4.030963e+01
  -1.733922e+01   5.140773e+01
   1.188797e+01   1.242832e+01
  -3.544403e+01  -2.417337e+01
   8.353735e+01  -1.712049e+01
  -4.350987e+01  -2.125388e+01
   2.094533e+00   2.365017e+01
  -1.630720e+01   4.343726e+01
   2.313913e+01   2.054569e+01
   1.801454e+00   3.062663e+01
  -1.741629e+01   2.783660e+01
   7.176330e+01  -3.251089e+01
   3.328845e+01   9.799928e+00
   2.185978e+00  -3.916183e+01
   3.105654e+00  -1.577061e+01
