
 $NMID
 id='ANONYMOUS ', fmtdat='(2E16.6)'
 volume=1.0
 tramp=1.0
 $END
   3.418760e+03   1.777258e+02
   2.089916e+03   1.805505e+03
  -1.378663e+02   2.095845e+03
  -1.368528e+03   1.117774e+03
  -8.925945e+02   1.357283e+02
   1.084275e+02  -1.568779e+02
   3.857439e+02   1.807705e+02
  -3.125197e+01   5.458967e+02
  -5.437065e+02   5.923780e+02
  -6.661188e+02   6.247118e+01
  -3.937985e+02  -5.623000e+02
   7.022543e+01  -6.543695e+02
   3.469784e+02  -1.725356e+02
   2.016884e+02   4.001079e+02
  -1.800584e+02   5.664534e+02
  -4.152279e+02  -2.117599e+01
  -3.094765e+02  -5.163387e+02
   1.546207e+02  -6.475654e+02
   4.809743e+02  -2.713538e+02
   4.233455e+02   1.517855e+02
   1.599478e+02   3.973570e+02
  -1.222503e+02   2.083814e+02
  -4.110518e+01   8.675968e+01
   2.016914e+02   1.176531e+02
   3.339011e+02   2.635460e+02
   2.871641e-01   4.088661e+02
  -4.880996e+02   1.949036e+02
  -6.606912e+02  -2.366260e+02
  -2.372636e+02  -4.341551e+02
   3.839656e+02  -2.152105e+02
   5.300120e+02   1.387742e+02
   1.852360e+02   3.033046e+02
  -3.214459e+02   3.691112e+02
  -4.861749e+02   9.629013e+01
  -4.181771e+02  -2.300293e+02
  -5.516235e+01  -3.254925e+02
   3.835804e+01  -1.372275e+02
  -1.188957e+01   6.656692e+01
  -1.767272e+02   2.131455e+02
  -2.480928e+02  -1.570014e+02
   6.535259e+00  -5.324567e+02
   3.352607e+02  -4.686743e+02
   3.536893e+02   1.732636e+01
   9.655379e+01   3.858860e+02
  -2.729771e+02   1.444691e+02
  -1.962119e+02  -3.397271e+02
   2.022852e+02  -3.755577e+02
   4.656940e+02  -4.599831e+01
   5.493373e+02   3.894258e+02
   1.485390e+02   4.869063e+02
  -2.861885e+02   2.898614e+02
  -5.772464e+02  -1.740643e+01
  -3.011204e+02  -2.363748e+02
   2.665782e+01  -2.327959e+02
   3.045575e+02  -4.045926e+01
   2.032027e+02   7.969614e+01
  -3.474992e+01   7.095090e+01
  -1.169124e+02  -3.064735e+01
   1.077361e+02  -5.299734e+01
   2.072699e+02   1.838501e+01
   8.908256e+01   1.950036e+02
  -1.768736e+02   2.715502e+02
  -3.132011e+02   7.257182e+01
  -2.456800e+02  -7.453717e+01
   3.624004e+00  -2.777678e+02
   3.265049e+02  -4.071914e+02
   3.887726e+02  -1.394209e+02
   2.377355e+02   1.715446e+02
   4.087166e+01   3.567708e+02
  -4.698292e+01   2.726823e+02
  -4.081137e+01   1.660511e+02
  -1.467814e+01   1.527426e+02
  -9.398867e+01   1.648693e+02
  -2.191355e+02   9.261810e+01
  -2.578742e+02  -1.435857e+02
  -1.131786e+02  -3.113086e+02
   9.358056e+01  -2.066075e+02
   1.915521e+02   7.759292e+01
   9.087768e+01   2.651839e+02
  -4.420738e+01   3.067955e+02
  -2.434032e+02   1.128322e+01
  -4.189864e+02  -1.542977e+02
  -1.223362e+02  -3.039375e+02
   9.565611e+00  -2.566413e+02
   1.605799e+02  -1.199192e+02
   1.364051e+02  -8.889544e+01
   1.718012e+02  -8.638511e+01
   3.014997e+02   6.301612e+00
   4.211364e+02   9.210879e+01
   3.101870e+02   2.860951e+02
  -9.108934e+01   4.690976e+02
  -3.424623e+02   4.005690e+02
  -4.780360e+02   1.624606e+02
  -2.963403e+02  -6.491787e+01
  -1.227927e+01  -2.660107e+02
   8.295857e+01  -1.556766e+02
   3.914407e+01  -1.035411e+02
  -9.894031e+01   7.612529e+01
  -7.710522e+01  -3.541036e+01
   3.569404e+01  -1.684561e+02
   1.104292e+02  -1.301255e+02
   1.290239e+02   1.017662e+02
  -2.337002e+01   1.073149e+02
  -1.518653e+02  -3.605433e+00
  -1.114905e+02  -2.230282e+02
   2.657864e+01  -3.341664e+02
   2.168560e+02  -2.178734e+02
   3.460219e+02   8.658579e+01
   2.784596e+02   2.728556e+02
   6.739352e+01   2.790724e+02
  -1.814442e+02   1.425033e+02
  -1.642681e+02   2.934419e+01
  -2.433872e+01  -6.002082e+01
   7.128506e+01   3.936976e+01
  -6.488148e+01   1.065614e+02
  -1.359776e+02   7.184090e+01
  -1.385894e+02  -6.127610e+01
  -9.971406e+01  -6.953237e+01
   1.122611e+02  -3.800709e+00
   8.371212e+01   4.893589e+01
  -1.403735e+02   5.658404e+01
  -3.811455e+02  -6.420175e+01
  -2.435304e+02  -2.342151e+02
  -1.715697e+01  -2.541336e+02
   2.887925e+02  -2.467526e+02
   2.951818e+02  -4.842044e+01
   1.866806e+02   7.140598e+01
  -3.721936e+01   5.245995e+01
  -3.625301e+01  -1.421781e+01
   4.589630e+01  -6.750671e+01
   2.506245e+02  -5.710509e+01
   1.615959e+02   1.147051e+02
   6.492756e+01   2.384535e+02
  -6.685012e+01   1.531968e+02
  -1.436307e+02  -3.744288e+01
  -8.514285e+01  -4.670081e+01
   9.610617e+01   2.364167e+00
   3.154536e+01   1.209902e+02
  -5.688271e+01   1.379455e+02
  -2.615510e+02  -6.331521e+01
  -1.646016e+02  -1.309523e+02
  -4.763303e-01  -1.606325e+02
   1.228866e+02  -1.643095e+02
   2.578019e+02  -7.689890e+01
   4.636590e+01   6.898338e+01
  -1.042630e+02   1.300679e+02
  -6.435394e+01   3.601353e+01
  -2.998114e+01  -1.931931e+01
   2.885229e+00  -4.226254e+01
   4.071886e+01   1.004947e+01
  -5.946436e+01  -2.040783e+00
  -1.729834e+02  -8.967535e+01
   1.756498e+01  -2.120247e+02
   1.185069e+02  -1.504993e+02
   2.467867e+02   1.969685e+01
   2.461595e+02   1.742174e+02
   4.024020e+01   2.573972e+02
  -8.193903e+01   1.713602e+02
  -1.672764e+02   3.327977e+01
  -8.578867e+01  -9.098632e+01
  -1.024100e+01  -6.040920e+00
  -1.133213e+02   3.103380e+01
  -7.991803e+01  -2.402395e+01
  -4.085796e+01   3.351027e+00
   3.195290e+01  -1.005241e+02
   1.195408e+02  -9.160301e+01
   1.318157e+02   4.422515e+01
   1.359060e+01   1.359677e+02
  -2.052381e+02   7.899449e+01
  -2.214637e+02  -1.371044e+02
  -8.718945e+01  -1.888955e+02
   1.653104e+02  -2.140046e+02
   2.641677e+02  -7.876225e+00
   2.609110e+02   1.185453e+02
   5.168748e+01   1.695171e+02
  -1.102519e+01   1.490245e+02
  -1.181007e+02   1.057194e+02
  -3.302792e+01   6.908176e+01
  -8.675142e+01   9.408872e+01
  -1.101090e+02   1.407715e+02
  -1.270146e+02  -4.508216e+01
  -7.563717e+01  -1.702671e+02
  -3.996110e+01  -2.688452e+02
   7.480340e+01  -1.506832e+02
   2.477326e+02  -2.323887e+01
   1.189124e+02   8.978140e+01
   5.113480e+01   1.253166e+02
  -7.470909e+01   5.055851e+01
  -1.588816e+02  -2.064572e+01
  -9.587576e+00  -7.842855e+01
   6.048115e+01  -3.915098e+01
  -3.601976e+01  -4.221613e+01
  -8.955157e+01  -1.116360e+01
  -6.699716e+01  -7.475922e+01
   2.995666e+01  -5.047768e+01
   2.191484e+02   2.814807e+01
   1.426411e+02   9.283913e+01
  -3.286518e+01   1.365742e+02
  -1.329097e+02   6.453467e+01
  -1.320239e+02  -4.496819e+01
  -4.699056e+01  -9.983848e+00
   7.758646e+01  -2.260314e+01
   7.143989e+01  -2.092839e+01
  -9.994055e+00   9.613190e+01
  -3.218866e+01   1.377569e+01
  -1.304665e+02  -3.458676e+01
  -8.255026e+01  -1.647082e+01
  -8.251295e+01  -5.548193e+01
  -6.711195e+01  -6.712282e+00
  -2.607972e+01  -5.106386e+01
  -5.363522e+01  -1.260739e+02
  -2.213747e+01  -8.812264e+01
   1.401667e+02  -1.094535e+02
   2.042594e+02  -9.654205e+00
   1.351989e+02   1.208637e+02
  -1.218858e+00   1.129818e+02
  -1.045494e+02   1.081916e+02
  -1.157680e+01   4.721803e+01
   4.652905e+01   3.102295e+01
   1.578928e+02   1.941912e+01
  -9.228075e+00   6.517132e+01
  -1.125196e+02   4.875270e+01
  -1.732319e+02   2.740949e+01
  -1.618885e+02  -9.193879e+01
  -5.322808e+01  -6.303014e+01
   6.788902e+01  -5.987919e+01
   8.329765e+01   2.729428e+01
  -6.129137e+01  -4.397234e+01
  -9.288699e+01   1.055572e+01
  -1.685141e+01  -1.514133e+02
   1.046145e+02  -1.725224e+02
   1.569824e+02  -6.639191e+01
   1.292981e+02   1.181720e+02
   2.197473e+01   1.718432e+02
  -1.177980e+02   1.957738e+02
  -5.613911e+01  -7.411568e+01
  -7.288355e+01  -1.267754e+02
   1.413831e+01  -7.807251e+01
   2.050119e+01  -2.859311e+00
   4.352067e+01  -1.388415e+01
   6.042395e+01  -2.290321e+01
  -3.689339e+01  -2.319473e+01
   7.030908e+01   5.133405e+01
   1.106199e+02   7.156417e+01
   4.318204e+01   1.243064e+02
  -8.086297e+01   6.393449e+01
  -1.876424e+02  -1.841046e+01
  -1.054462e+02  -6.218352e+01
   1.225991e+01  -8.556471e+01
   9.342270e+01  -2.503425e+01
   1.090629e+02   4.325552e+01
  -1.680788e-01   9.054579e+00
  -1.304843e+01   2.483166e+01
   1.213589e+01   1.351692e+01
   7.206211e+00   5.034077e+00
  -1.211868e+01  -1.582410e+01
  -7.381247e+01   2.995592e+01
  -6.239719e+01  -3.587102e+01
  -4.075036e+01  -3.911892e+01
   1.235315e+02  -1.165372e+02
   2.098216e+02  -1.153214e+02
   2.059749e+02  -2.386198e+01
   2.386706e+01   1.410160e+02
  -9.747725e+01   1.315856e+02
  -1.470260e+02   8.785863e+01
  -8.302814e+01  -2.719142e+01
   1.248383e+01  -6.965834e+01
   2.709285e+01  -3.108757e+01
   1.249165e+01   1.181374e+01
  -5.130710e+01  -8.610677e+01
   2.732665e+00  -6.862172e+01
   4.420912e+01  -7.963770e+01
   7.874512e+01  -1.082036e+01
   4.021769e+01   1.187894e+02
  -5.156839e+00   9.023545e+01
  -8.275872e+01   2.822918e+01
  -1.205019e+02  -1.011523e+02
  -5.498746e+01  -7.625984e+01
   3.212107e+01  -4.867318e+01
   8.215710e+01  -1.368991e+01
  -1.235413e+01   3.088055e+01
  -6.172015e+01   2.956499e+01
   1.698080e+01   4.098724e+01
   2.107043e+01   1.054824e+01
   7.161754e+01  -2.319639e+01
   4.494383e+01   3.086244e+01
  -1.249839e+01   1.146675e+02
  -1.556825e+02   4.271611e+01
  -8.435015e+01  -1.194314e+01
   2.565487e+01  -1.343243e+02
   4.762453e+01  -4.870952e+01
   2.348839e+01  -3.464211e+01
   3.328564e+00   9.080061e+01
   1.134383e-01   1.554475e+01
  -8.171451e+01  -4.154444e+01
  -4.273838e+01  -3.900935e+01
  -5.771110e+00   1.938289e+01
   4.156524e+01  -5.987145e+01
   3.913251e+01   2.716886e+01
   7.902432e+01  -2.547700e+01
   9.787533e+00  -4.848289e+01
  -4.799990e+01  -2.688279e+00
   8.872798e+00   1.065948e+01
   7.862282e-01   1.022792e+02
   4.695402e+00   2.383717e+01
  -2.180275e+01  -5.326262e+01
  -2.814230e+01  -5.949424e+01
   2.511124e+01  -5.565521e+01
   8.885969e+01  -3.964328e+00
   1.520492e+01   1.115791e+02
  -7.471330e+01   4.077391e+00
  -9.819414e+01  -5.752930e+01
  -9.603886e+01   2.052291e+01
  -2.844147e+01  -3.089846e+01
   9.403899e+01   4.563369e-01
   2.973833e+01  -2.409361e+01
  -6.361794e+01   3.227212e+01
  -3.044634e+01  -3.622000e+01
   4.839775e+01  -2.699342e+01
   2.270551e+01  -2.156936e+01
