
 $NMID
 id='ANONYMOUS ', fmtdat='(2E16.6)'
 volume=1.0
 tramp=1.0
 $END
  -7.027962e+02   2.289538e+02
  -5.698277e+02  -2.570173e+02
  -1.398124e+02  -4.922217e+02
   2.529772e+02  -4.123579e+02
   3.161043e+02  -1.277554e+02
   4.362869e+01   9.470625e+01
  -1.567075e+02   1.964218e+01
  -3.001131e+01  -9.882219e+01
   4.555087e+01  -1.858509e+02
   1.065225e+02  -7.202905e+01
   1.661165e+02   2.846630e+01
   5.956605e+01   1.305098e+02
  -1.236743e+02   7.802186e+01
  -5.325213e+01  -1.260981e+02
  -5.077516e+01  -1.364540e+02
   9.239041e+01  -8.485492e+01
   6.752742e+01   1.330693e+02
   8.578333e+01   1.567353e+02
  -1.275273e+02   1.169850e+02
  -1.015968e+02  -5.352375e+01
  -5.544803e+01  -3.761210e+01
   4.136107e+01  -5.891065e+01
   2.254723e+01  -3.915485e+01
  -3.883321e+01  -1.755786e+01
  -8.212472e+01  -2.563085e+01
   7.772428e+00  -9.896777e+01
   7.929584e+01  -1.046011e+02
   1.745273e+02  -4.586566e+01
   4.013810e+01   4.703921e+01
  -4.748314e+01   6.966079e+01
  -9.882723e+01  -3.538423e+00
  -4.314110e+01  -1.026684e+02
   3.369213e+01  -1.528810e+02
   7.227608e+01  -9.408368e+01
   5.735283e+01  -9.956681e+00
   2.930978e+01   5.336133e+01
   8.913939e+01   4.831807e+01
  -6.919479e+00  -1.573501e+01
   1.286877e+02  -8.530439e+01
   1.693871e+01  -2.397339e+01
   5.394857e+01   1.040731e+02
  -6.824068e+01   8.780087e+01
  -7.819105e+01   1.690192e+01
  -8.437904e+01  -6.155001e+01
   1.626149e+01  -3.154682e+01
   7.426959e+01   4.387590e+01
  -6.340522e+00   5.521763e+01
  -6.957096e+01   4.185831e+00
  -1.152797e+02  -5.940560e+01
  -7.441277e+01  -1.621721e+02
   6.119101e+01  -4.099656e+01
   1.475046e+02  -6.102127e+01
   5.402816e+01   4.970217e+01
   7.910871e-02   1.593910e+01
  -7.960491e+01   7.890061e+01
  -4.172118e+01   3.979579e+01
  -2.264926e+01  -4.449842e+01
   5.957075e+01  -1.480584e+01
  -9.238822e+00   2.236987e+00
  -5.815683e+01  -1.323307e+00
  -3.275330e+01  -1.075677e+01
   4.057062e+01  -3.351018e+01
   3.345296e+01  -5.959478e+01
   9.720719e+01  -4.104425e+01
  -6.520836e+01   1.183528e+02
  -3.525075e+01   1.031764e+02
  -1.070790e+02   1.150190e+01
   3.712588e+01  -3.855549e+01
  -1.626405e+01  -4.953833e+01
   1.077982e+01  -1.098460e+02
   1.442970e+01  -8.754007e+01
   3.129002e+01   6.798862e+00
   2.884813e+01  -1.685112e+01
   9.745500e+01  -1.924416e+00
   7.242076e+01   7.519942e+00
   3.434800e+01   5.890879e+01
  -5.580390e+01   4.610927e+01
  -5.755920e+01   4.525661e+01
  -6.363565e+01  -8.057795e+01
   1.641727e+01  -5.544294e+01
   5.266740e+01   1.467101e+01
   6.147727e+01   7.239710e+01
   4.418648e+01   3.684883e+00
   1.807914e+01   5.770659e+01
  -6.276866e+01   1.640792e+01
  -1.192133e+01   7.629429e+00
  -4.226339e+01   4.874377e+01
  -8.622351e+01   3.569515e+01
  -1.186798e+02  -8.820907e+01
  -1.563959e+02  -6.634260e+01
  -4.065112e+01  -9.555155e+01
   1.528527e+02  -1.099722e+02
   7.729341e+01  -6.257702e+01
   3.287688e+01   4.628619e+00
  -3.690703e+01   7.174102e+01
  -4.593379e+01   4.820505e+00
   8.641576e+00   3.898817e+01
   6.275605e+01   3.203986e+01
   3.385825e+01   6.522163e+01
  -1.276623e+01   1.196679e+02
   4.391777e+01   3.147534e+01
  -5.171059e+01   2.661870e+01
   4.348430e+00  -1.385768e+01
   1.207552e+02   4.153581e+01
   1.437697e+01   4.348418e+01
  -1.061428e+01   8.726540e+01
  -1.516107e+01   5.238544e+01
  -1.609233e+02   1.644154e+01
  -1.179933e+02  -5.010247e+01
  -1.100413e+02  -2.208997e+01
  -3.364688e+01  -5.066418e+01
   7.623231e+01  -5.138579e+01
  -6.631541e+01   3.061952e+01
   2.880668e+01   2.472504e+01
  -9.268542e+01  -5.071791e+01
   2.208966e+00  -1.210755e+01
   3.754340e+01  -4.595713e+01
  -3.478888e+00   3.321690e+01
  -1.811501e+01  -4.497840e-01
   1.222708e+01  -2.212687e+00
  -5.281006e+00  -1.569860e+01
   7.486859e+01  -1.345665e+01
   1.070917e+02   1.562317e+01
   6.913049e+00   1.347407e+01
  -3.651700e+01   3.455033e+01
  -7.757137e+01   1.541233e+01
  -2.923092e+01  -1.648874e+01
  -4.095824e+01   5.534809e+01
   4.104743e+00   6.706173e+00
  -2.970906e+01   3.771742e+01
  -8.232753e+01   5.801560e+01
  -5.816633e+01  -8.025610e+00
  -2.314814e+01  -6.766763e+01
   5.394662e+01  -7.885771e+01
   4.131882e+00  -2.862610e+01
   4.244010e+01  -1.647392e+01
  -8.290927e-01  -2.433727e+01
   1.916063e+01  -5.442387e+01
   2.717410e+01  -1.513719e+01
   6.115799e+01   3.154107e+01
   3.688989e+01  -1.075969e+01
   4.394384e+00   4.298101e+01
  -6.142451e+00   2.024630e+01
  -3.482749e+01   6.298604e+01
  -4.251852e+01  -1.223316e+01
  -2.086008e+01  -1.877116e+01
   1.378527e+01   4.484315e+00
  -1.949862e+01   4.971376e+01
  -1.163245e+01  -3.451361e+01
   1.020937e+01  -2.866181e+01
   7.039426e+01   2.068507e+01
   4.302464e+01   1.930200e+01
   6.057779e-01   1.130685e+02
  -4.902428e+01   8.157556e+01
   9.532821e+00  -2.337218e+01
  -6.053576e+01  -8.434821e+01
  -2.005022e+01   9.589417e+00
   7.728279e+01   2.433742e+01
   5.964754e+01   2.230504e+01
  -3.118253e+01  -1.468284e+01
   7.615072e+01   6.842232e+01
  -7.118089e+00  -3.387553e+01
   2.021068e+01   3.365768e+00
  -3.501763e+00   4.957199e+00
   7.722788e+00   1.398835e+01
  -1.798455e+01   3.834339e+01
   3.028225e+01  -1.383952e+01
  -3.453029e+00  -2.677790e+01
   4.696241e+01   1.143007e+01
   4.259919e+01   7.590086e+01
   5.498881e+01   4.027128e+01
   1.109002e+01   3.337422e+01
  -4.870190e+01   6.921009e+01
  -4.323132e+01   6.390311e+00
   3.913993e+01  -3.400869e+01
   1.585807e+01  -2.139211e+01
   3.969397e+01  -2.624355e+01
   6.160888e+01  -2.781729e+01
   4.935282e+01  -7.066737e+01
  -2.597742e+01  -8.021373e+01
  -1.175610e+01   9.473309e+00
   6.539314e+01   3.157559e+00
   1.537660e+01   3.876609e+01
   6.505397e+00   7.489335e+01
  -1.985980e+01   3.674735e+01
  -2.626191e+01  -2.379016e+01
  -1.019323e+01  -3.245697e+00
  -2.683006e+00   1.345183e+01
  -2.211727e+01   3.978243e+01
   3.560441e+01   4.756110e+01
  -7.499367e-02   1.250106e+01
  -2.450906e+01  -1.160201e+01
   4.485258e+01   2.094337e+01
   1.765696e+01   2.566205e+00
   1.969358e+00   1.064386e+01
  -5.846796e+01  -9.479398e+00
  -6.617349e+01   6.842382e+01
  -1.611280e+01  -3.549497e+01
   4.962411e+01  -1.637622e+01
   2.302981e+01  -1.576203e+01
   4.237400e+01   1.872274e+01
  -4.913515e+01   2.986597e+01
   1.683531e+01  -6.055324e+01
  -6.524523e+01  -3.528402e+01
   5.424641e+01   3.775608e+00
   4.857002e+01  -5.620581e+00
  -9.011030e+00  -9.064823e+00
  -4.281537e+01   2.357610e+01
   1.652665e+00  -2.606565e+01
   1.007582e+01  -3.557704e+01
  -5.208064e+01  -1.262618e+01
   2.989580e+01   8.400767e+00
   1.238395e+01   3.434824e+01
  -4.117074e+01   9.841884e+00
  -7.544666e+01  -4.869057e+01
  -4.823775e+01  -7.348083e+01
  -1.971775e+01   5.213037e+00
   5.098464e+00  -6.011979e+01
  -1.522010e+01   2.020455e+01
  -2.213174e+01   2.726702e+01
  -5.639513e+00  -8.283773e+01
   1.185025e+01   1.660572e+01
   2.341345e+01   7.043490e+00
   1.443690e+01  -7.772347e+01
   6.060767e+01   5.701875e+01
   5.217887e+01  -1.882244e+01
   7.794395e+01  -5.350582e+01
   3.459520e+01   2.647930e+01
   1.293870e+01   4.155928e+00
   2.280216e+01   1.691657e+01
  -1.831724e+01   4.446746e+01
  -1.418880e+01   4.137203e+01
   2.729504e+01  -1.287102e+01
   2.037583e+01  -3.070199e+01
  -1.404173e+00  -5.966414e+01
   3.716200e+01   2.675159e+01
   4.451870e+01   4.148661e+01
   3.059678e+01  -3.454082e+00
  -6.812151e+01  -4.029816e+01
  -8.019688e+01  -4.030166e+01
   3.061589e+01   4.624962e+01
  -2.590900e+01   8.791146e+00
  -4.485854e+00  -1.245991e+01
  -2.664537e+01  -5.300629e+01
  -1.202866e+01   4.241768e+01
   3.454274e+01  -5.622378e+01
   6.080426e+01   1.940982e+01
   1.809639e+01  -4.346807e+01
   1.629938e+01  -3.370119e+01
  -3.324325e+01  -2.933515e+01
  -3.481634e+01  -2.759453e+01
  -7.333322e+01  -6.562670e-01
   5.612466e+01  -3.143522e+01
   9.981107e-01  -5.094529e+01
  -4.492724e+01   4.114035e+01
   5.208717e+01   1.967177e+01
   2.046923e+00  -2.264310e+01
   1.852583e+01   1.026894e+01
   3.251898e+00  -2.858781e+01
  -1.663877e+01   6.822336e+01
  -8.673700e+01   7.108585e+01
   1.912232e+01   5.463762e+00
  -1.328263e+01  -7.819114e+00
   3.887320e+00  -7.199888e+01
   6.332452e+01  -4.509262e+01
   2.240780e+01   3.857710e+01
   2.434497e+01   4.711639e+01
   1.039791e+01  -5.909305e+01
   7.943661e+00   8.162663e+00
   3.450884e+01   9.369323e+00
  -4.510594e+00  -8.783578e+00
   2.515200e+01   1.269930e+01
  -4.267537e+01   2.458426e+01
  -1.270695e+01   1.845311e+01
  -8.606790e+00  -5.578342e+01
   7.001259e+01  -3.043762e+01
   2.959335e-01   3.822918e+01
   3.321918e+01  -2.596628e+01
  -5.486293e+00   2.886207e+01
  -3.089883e+01  -2.887172e+01
  -1.839020e+01  -3.954963e+01
   2.450264e+01  -1.711713e+01
   3.327721e+01   2.551195e+01
  -4.309399e+01  -2.543726e+01
   3.252988e+01   9.750882e-01
  -1.965158e+01  -6.189832e+01
   1.611697e+01  -2.056622e+01
   6.423852e+01  -7.062557e+00
  -2.728137e+01  -1.938849e+01
   6.849796e+00   6.153669e+01
  -7.007535e+01  -2.681734e+01
   2.278023e+01   7.164551e+00
   1.519365e+01  -1.532121e+01
  -7.880929e+00  -6.334612e+01
  -3.899987e+01   7.634560e+01
   7.153058e+00   5.311343e+01
   3.189160e+01   3.568881e+01
   6.643991e+00   1.883035e+01
  -2.749888e+01  -4.382138e+01
  -1.565634e+01   5.197071e+01
   7.445508e+00  -1.708590e+01
   6.340790e+00   1.324996e+01
   8.348986e+00  -4.384226e+00
   1.302080e+01  -2.984427e+01
  -4.913160e+01  -2.533597e+00
   9.211283e+00  -3.718724e+01
  -2.449985e+01   7.123639e+01
  -3.524699e+00   2.835917e+01
  -5.458306e+01  -1.817381e+01
   2.583609e+01  -1.378902e+01
   1.071418e+01   2.201780e+01
   1.086099e+01   1.677345e+01
   5.965391e+01   5.697890e+01
  -2.012539e+01   7.576912e+01
   1.410582e+01   3.470514e+01
  -1.353386e+01  -2.931157e+00
  -1.885568e+01   2.229841e+00
   4.286923e+01  -4.113778e+01
  -3.399019e+01   4.203865e+01
  -4.535984e+01   4.208668e+01
