
 $NMID
 id='ANONYMOUS ', fmtdat='(2E16.6)'
 volume=1.0
 tramp=1.0
 $END
  -3.979722e+03   1.877474e+02
  -2.484519e+03  -2.222737e+03
   3.209576e+02  -2.522175e+03
   1.822223e+03  -1.127739e+03
   1.042588e+03   3.314521e+02
  -3.156546e+02   5.090934e+02
  -6.997440e+02  -1.915488e+02
  -1.494576e+02  -8.815442e+02
   6.481438e+02  -7.682803e+02
   8.746904e+02  -2.853122e+01
   4.551695e+02   7.524450e+02
  -1.527249e+02   8.136232e+02
  -5.369989e+02   2.151810e+02
  -3.354231e+02  -6.248189e+02
   1.810270e+02  -7.380443e+02
   5.363900e+02  -4.197309e+01
   2.778368e+02   5.679557e+02
  -2.415919e+02   6.251115e+02
  -6.228065e+02   1.353013e+02
  -4.493279e+02  -2.997363e+02
  -1.236309e+02  -4.410267e+02
   2.396996e+02  -2.442610e+02
   2.088892e+02  -3.686386e+01
  -1.428287e+02   5.365043e+00
  -4.162780e+02  -1.721561e+02
  -1.178106e+02  -3.719748e+02
   4.543052e+02  -3.528270e+02
   7.372744e+02   3.301838e+01
   3.753444e+02   4.677217e+02
  -3.495429e+02   3.720814e+02
  -6.896729e+02   2.821876e+01
  -3.408708e+02  -3.937288e+02
   2.723599e+02  -5.061885e+02
   5.475957e+02  -2.044415e+02
   3.383825e+02   1.873791e+02
   1.198326e+02   4.062151e+02
  -1.227202e+02   2.545281e+02
  -1.072234e+02  -1.502910e+02
   1.150525e+02  -3.117908e+02
   3.321657e+02   4.216072e+01
   1.780302e+02   6.067378e+02
  -2.655543e+02   5.618896e+02
  -5.150438e+02  -1.312869e+01
  -2.259404e+02  -4.814983e+02
   2.030213e+02  -3.145204e+02
   2.965137e+02   3.192828e+02
  -9.697074e+01   4.940542e+02
  -5.423300e+02   1.211392e+02
  -5.505094e+02  -3.712065e+02
  -2.561542e+02  -5.777500e+02
   2.674543e+02  -3.709066e+02
   5.839561e+02   4.136870e+01
   3.790146e+02   3.317570e+02
  -1.373708e+02   2.853556e+02
  -3.763480e+02   1.203823e+02
  -2.213799e+02  -1.243219e+02
   7.068565e+01  -1.113696e+02
   8.692341e+01   1.005509e+02
  -1.241871e+02   1.489865e+02
  -3.509500e+02  -4.785841e+01
  -1.621020e+02  -2.513511e+02
   2.126249e+02  -2.534307e+02
   3.668802e+02  -8.762908e+01
   3.119706e+02   9.652026e+01
  -7.479621e+01   2.727149e+02
  -2.007547e+02   3.519266e+02
  -2.824062e+02   1.959039e+02
  -3.085575e+02  -1.397262e+02
  -9.546600e+01  -3.817253e+02
   1.175555e+02  -3.963756e+02
   1.685745e+01  -1.176299e+02
   5.135304e+01  -8.273242e+01
   1.006380e+02  -8.300135e+01
   1.583462e+02  -7.610915e+01
   2.994078e+02   1.158711e+02
   1.576393e+02   2.270865e+02
   5.174565e+00   2.680355e+02
  -2.531538e+02  -8.440856e+00
  -1.861817e+02  -2.139187e+02
   2.763400e+00  -3.691373e+02
   2.328058e+02  -1.157559e+02
   3.754445e+02   1.608495e+02
   2.006817e+02   3.447633e+02
  -6.177718e+01   2.434690e+02
  -2.016280e+02   1.787423e+02
  -1.546627e+02  -3.047635e+01
  -1.417031e+02   3.130305e+01
  -2.246378e+02   1.157334e+02
  -3.836376e+02  -5.730683e+01
  -3.091115e+02  -2.832957e+02
  -2.932032e+01  -5.001709e+02
   3.935424e+02  -4.530236e+02
   4.735756e+02  -1.653130e+02
   2.778188e+02   1.245349e+02
   8.399145e+01   2.658218e+02
  -7.506085e+01   2.302242e+02
   1.470932e+01   6.714695e+01
   5.520775e+01  -9.562877e+01
   1.620749e+02   1.264991e+01
   9.427871e+01   1.960554e+02
  -1.441869e+02   1.781104e+02
  -2.088371e+02  -9.483429e+01
  -1.617692e+01  -1.899751e+02
   1.970134e+02  -2.637955e+01
   2.277980e+02   1.997656e+02
  -2.994870e+01   3.201035e+02
  -1.777370e+02   2.240318e+02
  -3.540027e+02  -5.366321e+01
  -2.448357e+02  -2.518260e+02
  -1.185099e+02  -2.860330e+02
   1.634341e+02  -1.263484e+02
   1.580868e+02  -2.423488e+01
   5.007436e+01   3.793305e+01
  -2.330580e+01  -5.680898e+01
  -5.527853e+01  -7.659562e+01
   8.038400e+01  -1.024189e+02
   1.811693e+02   6.511848e+01
   4.497435e+01   6.390908e+01
  -8.906182e+01   3.870031e+01
  -4.616263e+01  -9.986784e+01
   1.103590e+02  -1.188366e+02
   2.750304e+02   2.929989e+01
   2.164925e+02   1.238050e+02
   2.537564e+00   2.687126e+02
  -1.674089e+02   2.609278e+02
  -2.639411e+02   1.515767e+02
  -2.160576e+02  -7.792096e+01
   2.014367e+01  -9.475155e+01
   1.154667e+02   1.887852e+00
   2.673539e+01   5.185241e+01
  -2.092097e+02   7.647606e+01
  -2.214889e+02  -7.657397e+01
  -4.717035e+01  -1.649483e+02
   9.532441e+01  -1.062705e+02
   1.239842e+02  -8.917295e+00
   7.257225e+01   3.974369e+01
  -1.671039e+01   3.694847e+01
  -4.138140e+01  -8.570020e+01
   7.900864e+00  -1.150730e+02
   1.786624e+02   1.155129e+00
   1.845831e+02   1.650206e+02
   9.376928e+00   2.674534e+02
  -1.710538e+02   1.246603e+02
  -1.634320e+02  -3.291153e+01
  -1.098200e+02  -1.213193e+02
   3.761067e+01  -8.498807e+01
   1.621763e+02  -9.777282e+00
  -1.750602e+01   6.699022e+00
  -4.019276e+01   2.280363e+01
   2.241703e+01  -1.677624e+01
   9.156518e+01   2.383993e+01
   1.118217e+02   7.386849e+01
   1.391096e+01   1.336945e+02
  -8.309109e+01   1.615939e+02
  -2.227574e+02  -1.342601e+01
  -2.007083e+02  -1.891106e+02
  -1.039676e+02  -2.610424e+02
   6.206980e+01  -2.108334e+02
   1.581197e+02  -1.345988e+01
   8.361295e+01   4.442228e+01
  -1.858782e+01   8.444889e+01
   2.113595e+01  -3.512774e+01
   9.752769e+01   3.948447e+00
   1.676400e+01   3.435435e+01
  -3.894352e+01   9.246207e+01
  -1.516752e+02   1.361578e+02
  -5.333568e+01  -4.742261e+01
  -2.379317e+01  -1.546120e+02
   1.254047e+02  -1.051165e+02
   2.303029e+02   4.296775e+01
   1.246102e+02   2.364487e+02
  -9.295536e+01   1.707998e+02
  -2.620097e+02   8.507969e+01
  -3.160299e+02  -8.003822e+01
  -1.001850e+02  -1.905508e+02
   2.810492e+00  -1.576491e+02
   7.736893e+01  -8.013771e+01
   2.725823e+01  -2.222534e+01
   6.250803e+00  -9.361469e+01
   9.833070e+01  -4.315831e+01
   1.170849e+02  -8.239181e+00
   1.390692e+02   1.611495e+02
   3.688360e+01   2.680927e+02
  -2.879484e+01   2.066932e+02
  -1.696623e+02  -2.767690e+01
  -1.457569e+02  -1.414992e+02
  -2.941875e+00  -1.648821e+02
   9.403365e+01  -2.941748e+01
   7.038481e+01  -1.806476e+01
  -1.050337e+01   1.755797e+01
  -3.783671e+01   7.604850e+01
   4.274698e+01   4.579280e+00
   1.065798e+02   9.077687e+01
   1.598421e+01   3.703429e+01
  -4.727274e+01   2.237439e+01
  -1.794036e+02   8.540300e+00
  -1.575034e+02  -4.052408e+01
   4.335617e-01  -1.070871e+02
   1.183511e+02  -9.761535e+01
   1.291136e+02  -2.867350e+01
   8.106329e+01   3.789586e+01
  -2.892675e+01   7.048229e+01
  -8.270416e+01  -1.481132e+01
   1.887517e+01  -2.576895e+01
   5.718979e+01  -9.742152e+01
   2.098616e+01   9.523620e+00
   7.053280e+01   7.649181e+01
   1.427796e+01   9.577489e+01
   5.249151e+01  -2.204251e+01
   3.291872e+01   1.686704e+01
   7.468096e+01   9.314805e+01
   6.001958e+01   1.427979e+02
  -1.058958e+02   1.660963e+02
  -1.934823e+02   9.111921e+01
  -1.534099e+02  -1.156245e+02
  -1.284069e+01  -1.446863e+02
   1.031871e+02  -6.565573e+01
   3.236396e+01  -1.420777e+01
  -6.065253e+01  -1.256529e+01
  -1.503391e+02  -8.702852e+01
  -9.554427e+01  -8.934336e+01
   2.611405e+01  -1.220891e+02
   1.567351e+02  -7.921660e+01
   1.294328e+02  -3.158669e+01
   6.057678e+01   7.917821e+01
  -7.695482e+01   8.707662e+01
  -2.407518e+01  -1.245626e+01
   2.693591e+01  -3.729181e+01
   7.487882e+01  -2.851355e+01
   4.354403e+01   1.502342e+02
  -3.662534e+01   1.061069e+02
  -1.327067e+02   1.344757e+01
  -1.396745e+02  -9.291318e+01
  -4.967872e+00  -1.728308e+02
   7.898675e+01  -1.382651e+02
   9.823295e+01   1.666248e+01
   5.111256e+01   1.083407e+02
  -1.429177e+01   1.327723e+02
  -7.830673e+01   1.130453e+01
  -6.001209e+01  -4.216064e+00
  -5.821402e+01  -6.168788e-01
  -1.703943e+00  -1.042648e+01
  -7.217465e+01  -3.489633e+01
  -2.618167e+01  -6.746546e+01
  -6.323906e+01  -9.622822e+01
   6.027074e+01  -2.474221e+00
   9.089484e+01   6.549980e+01
   1.488123e+02   5.258266e+01
   1.982331e+01   1.007118e+02
  -1.670685e+01   1.722736e+01
  -5.101632e+01   2.532688e+01
   8.556685e+01  -1.601366e+01
   1.146218e+01  -1.985815e+01
  -1.389158e+01  -4.284110e+01
   4.223608e+01  -5.772119e+00
  -1.690440e+01   9.239337e+00
   4.657369e+01  -7.332419e+01
   7.716317e+01   4.801010e+01
   4.337067e+00   3.993984e+01
  -8.553391e+01   1.260646e+02
  -1.700017e+02   3.877350e+01
  -1.229110e+02  -4.047230e+01
  -3.229248e+01  -1.060522e+02
   4.995305e+01  -1.583020e+02
   1.031720e+02  -2.132675e+01
   2.669581e+01   4.442496e+01
   5.804357e+01   4.204561e+01
   2.452342e+01  -8.781124e+00
   4.306863e+01   4.723777e+01
   3.502453e+01   5.407873e-01
   1.946377e+01   7.120699e+01
  -4.043303e+01   1.162750e+02
  -8.917818e+01  -1.360170e+01
  -7.466749e+01  -9.410810e+01
  -3.794687e+01  -1.181695e+02
   4.208549e+01  -4.722297e+01
   9.443591e+01   5.562658e+01
  -1.378114e+01   1.187929e+02
  -5.654014e+01   5.376765e+01
  -9.462498e+01  -5.268416e+01
  -5.401134e+01  -1.208512e+01
   7.252228e+01  -7.320285e+01
   4.813748e+01  -5.172322e+01
  -3.757692e+01  -4.004126e+00
  -8.856236e+01   5.229519e+01
  -1.555281e+01  -2.040724e+01
   3.561128e+01  -5.326264e+01
   1.431545e+02  -1.031534e+02
   4.452935e+01   2.333526e+01
   4.625493e+00   1.235694e+02
  -8.852367e+01   8.517617e+01
  -4.525025e+01   2.990218e+00
  -3.505285e+01  -6.945888e+01
   4.059788e+01  -5.230651e+01
   1.041219e+02  -3.896925e+01
   3.674890e+01   6.850240e+01
  -2.801052e+01  -2.240464e+01
  -6.187192e+01  -1.993708e+01
  -5.146318e+01  -2.724298e+01
  -2.083256e+01   1.623907e+01
  -1.936968e+01   4.412108e+01
  -2.350641e+01   1.723891e+01
   8.697572e+01   2.519768e+01
  -6.845872e+01  -2.339468e+01
   4.228576e+01  -2.407110e+01
   1.078128e+02   9.484865e+00
  -1.580772e+01   6.478890e+01
   8.224291e+00   2.326076e+01
  -1.262791e+02   2.279422e+00
   7.067333e+01  -1.021623e+02
   2.558102e+01  -5.559771e+01
   5.581409e+01   7.781802e+00
   2.737632e+01   5.833429e+01
   1.624082e+01   4.035219e+01
  -6.340541e+01   2.782978e+00
  -3.493433e+01   7.501026e+00
  -4.248994e+01  -6.293188e+01
   5.540953e+01   4.967201e+01
  -2.411848e+01   4.747333e+01
  -6.116912e+01   5.292635e+00
