
 $NMID
 id='ANONYMOUS ', fmtdat='(2E16.6)'
 volume=1.0
 tramp=1.0
 $END
  -3.449325e+03   2.542025e+02
  -2.329892e+03  -1.790299e+03
   1.002435e+02  -2.213219e+03
   1.431426e+03  -1.148733e+03
   9.660594e+02   4.947244e+01
  -1.578091e+02   3.730548e+02
  -6.020431e+02  -1.579771e+02
  -5.261634e+01  -7.253889e+02
   5.634970e+02  -6.721761e+02
   7.335152e+02  -3.431101e+01
   5.023975e+02   5.556114e+02
  -5.234002e+01   7.161263e+02
  -3.704935e+02   1.976114e+02
  -2.884042e+02  -4.730307e+02
   4.702365e+01  -6.410121e+02
   4.499086e+02  -1.220090e+02
   3.496604e+02   4.860612e+02
  -2.069270e+02   5.780845e+02
  -5.026698e+02   2.301024e+02
  -4.341017e+02  -2.012388e+02
  -6.989799e+01  -3.673425e+02
   1.157332e+02  -2.641888e+02
   1.349506e+02  -9.264851e+01
  -9.364049e+01  -1.818877e+01
  -3.348274e+02  -1.748744e+02
  -3.995713e+01  -3.680482e+02
   4.274556e+02  -2.291714e+02
   6.649770e+02   1.081028e+02
   3.070802e+02   4.258801e+02
  -2.976742e+02   2.624427e+02
  -5.806299e+02  -5.855035e+01
  -2.656524e+02  -3.851870e+02
   2.275679e+02  -4.394841e+02
   4.178492e+02  -1.949054e+02
   3.758875e+02   1.930412e+02
   9.941526e+01   3.747415e+02
  -6.807475e+01   1.903899e+02
  -9.561932e+01  -1.324092e+02
   9.059146e+01  -2.794378e+02
   3.304825e+02   7.566630e+01
   9.167022e+01   5.377037e+02
  -2.301690e+02   4.851112e+02
  -4.134921e+02   6.376931e+01
  -1.823991e+02  -3.718137e+02
   1.817343e+02  -2.173625e+02
   2.318613e+02   2.635829e+02
  -4.762180e+01   4.470007e+02
  -4.605723e+02   1.467801e+02
  -5.135904e+02  -3.246427e+02
  -8.229350e+01  -4.340974e+02
   2.703055e+02  -2.676880e+02
   5.240741e+02   7.299762e+01
   3.413178e+02   2.567626e+02
  -9.320864e+01   2.320955e+02
  -3.088092e+02   9.079142e+01
  -2.012944e+02  -6.697687e+01
   1.295159e+01  -9.522861e+01
   7.322999e+01   4.861355e+01
  -1.587911e+02   6.776154e+01
  -2.012440e+02  -3.180831e+01
  -1.576121e+02  -2.255526e+02
   1.688267e+02  -2.083260e+02
   3.155359e+02  -1.587843e+02
   1.626624e+02   1.104489e+02
   3.013779e+01   2.805382e+02
  -2.523113e+02   3.508805e+02
  -2.909194e+02   1.882638e+02
  -2.121711e+02  -1.208944e+02
  -9.516901e+01  -3.639500e+02
   7.092235e+01  -2.871487e+02
   2.280504e+01  -1.161210e+02
   5.157915e+00   1.492694e+00
   1.219791e+02   2.168818e+01
   2.022682e+02  -1.045245e+02
   2.252281e+02   1.598314e+02
   7.318042e+01   2.586021e+02
  -4.494608e+01   2.470959e+02
  -2.150284e+02  -5.354179e+01
  -1.778996e+02  -2.333964e+02
   6.967545e+00  -2.213050e+02
   2.393559e+02  -1.006259e+02
   3.154084e+02   1.257446e+02
   2.170813e+02   2.856539e+02
  -4.982354e+01   2.609613e+02
  -1.687339e+02   1.438703e+02
  -1.613981e+02   1.126375e+02
  -1.666709e+02   8.935223e+01
  -2.684917e+02   5.434571e+01
  -3.630191e+02  -8.592415e+01
  -3.231961e+02  -3.138148e+02
  -1.596787e+00  -3.927205e+02
   3.438471e+02  -3.836210e+02
   4.786946e+02  -2.180883e+02
   2.479574e+02   6.193062e+01
   3.894313e+01   1.980284e+02
  -8.004845e+01   1.848337e+02
  -2.841617e+01   1.141162e+01
   1.034828e+02  -1.117915e+02
   1.110025e+02  -4.057761e+01
   5.272700e+01   1.688405e+02
  -1.127040e+02   1.559957e+02
  -1.619893e+02  -4.555753e+01
   3.307701e+01  -1.323559e+02
   1.685824e+02  -2.375590e+01
   1.920318e+02   1.870307e+02
   5.392333e+01   2.981262e+02
  -1.954573e+02   1.859307e+02
  -3.792929e+02  -8.979765e+01
  -3.135289e+02  -1.706731e+02
  -5.907380e+01  -2.147701e+02
   1.412910e+02  -1.265935e+02
   1.878121e+02   1.047574e+01
   4.328905e+01  -3.548664e+01
  -7.793187e+01  -2.272053e+00
  -7.451239e+01  -1.353267e+02
   1.124575e+02  -5.127510e+01
   1.891210e+02   1.555022e+01
   3.786836e+01   3.641328e+01
  -2.877319e+00   1.092318e+01
  -2.976666e+01  -5.840997e+01
   1.799110e+02  -9.414071e+01
   2.828273e+02   1.313226e+01
   2.492623e+02   1.515853e+02
   4.475177e+01   2.306243e+02
  -2.035833e+02   2.461478e+02
  -3.121872e+02   7.023303e+01
  -1.205884e+02  -1.069439e+01
   3.528816e+01  -7.139243e+01
   9.985834e+01  -2.656942e+01
  -8.072462e+01   8.146478e+01
  -1.630532e+02   5.061469e+00
  -2.121932e+02  -1.160332e+02
  -4.785024e+01  -2.387298e+02
   1.406038e+02  -1.131114e+02
   1.226285e+02  -3.380348e+01
  -2.334121e+01   6.202875e+01
   1.256859e+01  -7.522830e+00
   8.146853e+00  -7.011920e+01
   5.274874e+01  -1.685299e+01
   1.937970e+02  -5.792066e+01
   1.705263e+02   1.147025e+02
   7.261945e+00   1.910943e+02
  -1.145205e+02   1.614239e+02
  -1.838556e+02  -8.770393e+00
  -1.701464e+01  -8.079194e+01
   6.231907e+01  -1.048864e+02
   5.205415e+01  -5.469744e+01
   2.278796e+00   1.628201e+01
  -1.066276e+01  -6.505337e+00
   1.289502e+01  -1.198722e+01
   9.472997e+01   1.695867e+01
   1.383764e+02   1.619997e+02
   5.060056e+00   8.271219e+01
  -1.707272e+02   1.657244e+02
  -2.662937e+02   7.151839e+01
  -2.127058e+02  -1.496536e+02
  -3.857674e+01  -2.037821e+02
   1.240888e+02  -1.445623e+02
   1.315421e+02  -7.679635e+01
   1.135018e+02   3.686021e+01
   1.573800e+01   4.492246e+01
   7.417793e+01  -3.212403e+01
   8.906397e+01   1.885340e+01
   1.158716e+02   3.896033e+01
  -4.421734e-02   8.546465e+01
  -1.021385e+02   1.057639e+01
  -1.281291e+02   3.060050e+01
  -4.236129e+01  -1.201358e+02
   1.585010e+02  -1.138187e+02
   2.010505e+02   7.616241e+01
   8.505854e+01   2.001294e+02
  -1.159147e+02   2.038280e+02
  -2.356971e+02   1.052092e+02
  -2.091252e+02  -4.823531e+01
  -9.888948e+01  -1.666898e+02
  -5.514337e+00  -1.136586e+02
   1.219114e+02  -8.369245e+01
   9.445162e+01  -6.696737e+01
   3.891612e+01  -1.290028e+02
   8.159926e+01  -9.723812e+01
   1.185021e+02   1.848078e+01
   1.474174e+02   1.089946e+02
   3.002602e+01   1.593592e+02
  -3.832530e+01   1.516627e+02
  -1.755775e+02   2.096951e+01
  -1.249527e+02  -1.342877e+02
  -2.537689e+01  -1.245396e+02
   8.810762e+01  -7.784916e+01
   3.050676e+01   6.204390e+00
   1.303087e+01   5.955026e+01
   9.935849e+00   3.809475e+01
  -3.687661e+01   1.503737e+00
   1.355200e+01   8.510183e+01
   7.740525e+01  -2.730096e+01
  -3.299780e+01  -9.253564e-01
  -1.214539e+02   8.623603e+00
  -1.700856e+02  -2.411733e+01
   3.258919e+01  -1.288859e+02
   1.374665e+02  -6.797685e+01
   1.568834e+02  -4.160864e+01
  -1.101863e+01   6.541848e+01
  -5.074088e+01   1.197159e+01
  -6.658674e+01  -5.348325e+01
  -4.086446e+01  -7.389264e+01
   1.694100e+01  -7.633691e+01
   6.063081e+01  -1.996027e+01
   6.098218e+01   4.548917e+01
   5.147102e+01  -6.772989e+00
  -1.475674e+01  -2.497747e+01
   1.048812e+02   6.111971e+01
   1.985560e+01   4.730266e+01
   2.126801e+01   1.364440e+02
  -8.859132e+01   1.621217e+02
  -1.119733e+02  -8.916597e+00
  -1.864187e+02  -1.227743e+02
  -4.992860e+01  -9.846573e+01
   1.114076e+02  -6.862285e+01
   8.305731e+01   2.850478e+01
  -6.995050e+01   5.611672e+00
  -9.699054e+01   7.227911e+00
  -8.841760e+01  -1.071586e+02
   4.918463e+01  -7.490778e+01
   1.361518e+02   7.611870e+00
   1.582831e+02  -1.584881e+01
  -1.783640e+01  -1.099376e+00
  -3.876939e+01   2.083613e+01
  -2.786555e+01   8.104398e+00
   7.714404e+01  -2.620918e+01
   6.940096e+01   3.068207e+01
   1.271356e+02   1.240896e+02
  -6.464273e+01   1.626348e+02
  -1.855073e+02   9.862091e+01
  -1.528234e+02  -1.313781e+02
  -1.922389e+01  -1.557959e+02
   5.351896e+01  -1.655372e+02
   1.347746e+02  -1.897835e+01
   6.072849e+01   1.124342e+02
  -2.266643e+01   1.903211e+02
  -7.491712e+01   1.607473e+01
  -2.320201e+01  -4.714739e+01
  -5.020372e+01  -1.194025e+01
  -6.654853e+01   3.641249e+01
  -3.692385e+01  -3.885064e+01
  -5.805204e+01  -8.765092e+01
  -5.526906e+01  -9.464531e+01
   1.075620e+02  -4.413086e+01
   1.515022e+02   4.431657e+01
   4.354034e+01   4.113147e+01
  -5.418870e+00   5.902085e+01
  -9.996806e+01  -8.248237e+00
  -4.928189e+01  -3.836532e+00
  -8.557399e+01   7.442171e+00
   2.630899e+01  -1.438975e+01
   8.570592e+00  -4.452081e+01
  -2.322555e+01  -1.323692e+01
  -4.439097e+00  -2.230796e+01
   1.244465e+02   3.399842e+01
   7.400339e+01  -4.143605e+00
  -3.236180e+00   1.179717e+02
  -4.674284e+01   1.302226e+02
  -1.550533e+02   2.977034e+01
  -1.438278e+02  -1.467778e+01
  -2.379934e+01  -1.566558e+02
   2.967920e+01  -1.604881e+02
   9.316370e+01  -7.421978e+01
   9.474014e+00  -2.210475e+00
   3.572046e+01   1.006534e+02
   3.748138e+00   2.642981e+01
   2.707380e+01   3.858497e+01
   3.398547e+00  -1.700329e+01
   1.148029e+01   1.167286e+02
  -1.817871e+01   8.192609e+01
  -3.774129e+01   2.121435e+01
  -3.179878e+01  -8.318413e+01
   3.429996e+01  -1.368697e+02
   7.958330e+01  -4.767936e+01
   5.820169e+01   8.672170e+01
   7.738283e+01   1.216818e+02
  -9.424001e+01   8.679948e+01
  -1.290752e+02   4.957837e+01
  -2.040453e+01  -7.834676e+01
   2.874746e+01  -7.249126e+01
   1.488440e+01  -1.083205e+01
  -8.270599e+01   7.208841e+00
  -6.440581e+01   1.063187e+01
   6.770387e+01   7.889107e-01
   1.344753e+02  -7.088666e+01
   1.478562e+02  -5.525687e+01
   8.075760e+01  -3.406405e+00
   3.235198e+00   8.954292e+01
  -3.222773e+01   1.371941e+02
  -5.589620e+01  -1.864149e+00
  -6.284172e+01  -8.280019e+01
   1.272512e+01   2.671818e+01
  -1.623002e+01   7.390607e+01
  -9.185099e-01   7.390760e+01
  -1.389353e+00   1.728094e+01
  -3.042531e+01  -2.116094e+01
   1.577967e+01  -2.464934e+00
  -2.711332e+01   3.060201e+01
   9.348287e+01  -3.642904e+01
  -1.767566e+01  -4.186535e+01
  -3.617943e+01  -1.196769e+01
   1.260874e+01  -8.087743e+01
   1.583001e+01   4.242755e+00
   6.030384e+01   6.884423e+01
   6.405428e+01   2.691913e+01
  -3.379028e+01   3.169817e+01
  -2.211277e+01   5.638077e+01
  -1.743357e+01  -7.366356e+01
   4.099091e+01  -7.375332e+01
   9.728128e+01   3.051034e+01
   3.925237e+01   7.216181e+00
   1.237211e+01  -1.720337e+00
  -5.931051e+01   2.941970e+01
   5.608224e+01   1.987526e+01
   1.064244e+01  -2.963042e+01
   3.516025e+01   3.922953e+01
  -1.909488e+01  -3.566115e+00
  -8.894942e+01  -1.124969e+01
