
 $NMID
 id='ANONYMOUS ', fmtdat='(2E16.6)'
 volume=1.0
 tramp=1.0
 $END
   2.677476e+03   1.718258e+02
   1.640606e+03   1.592177e+03
  -2.712479e+02   1.648012e+03
  -1.148459e+03   7.754598e+02
  -6.931750e+02  -2.595892e+01
   1.897829e+02  -1.677652e+02
   3.830682e+02   1.680184e+02
  -2.604182e+01   5.061115e+02
  -4.174524e+02   4.197699e+02
  -5.397649e+02  -1.922428e+01
  -2.645819e+02  -4.110195e+02
   3.672037e+01  -4.764216e+02
   3.166009e+02  -7.857246e+01
   2.184184e+02   4.282390e+02
  -1.374791e+02   4.294038e+02
  -3.561703e+02   1.449705e+01
  -2.009028e+02  -4.441444e+02
   1.461668e+02  -4.811123e+02
   3.848847e+02  -1.418400e+02
   2.883995e+02   1.974019e+02
  -1.200920e+01   2.887911e+02
  -1.319229e+02   1.552946e+02
  -5.993094e+01   5.772860e+01
   1.372934e+02   6.362407e+01
   2.137158e+02   2.255947e+02
   6.606177e+01   2.437742e+02
  -3.744160e+02   1.498791e+02
  -4.994743e+02  -1.418365e+02
  -2.052703e+02  -3.428191e+02
   2.925577e+02  -1.836373e+02
   4.295525e+02   1.465320e+02
   6.059459e+01   3.565263e+02
  -1.882808e+02   3.259725e+02
  -3.567216e+02   2.804585e+01
  -2.982268e+02  -1.817670e+02
  -8.125179e+01  -2.726721e+02
   7.796095e+01  -1.668237e+02
  -2.789699e+01   3.749509e+01
  -9.408197e+01   1.770352e+02
  -2.272395e+02  -1.365022e+02
  -8.176303e+00  -3.982799e+02
   1.831678e+02  -3.273989e+02
   2.692628e+02   1.747838e+01
   1.164708e+02   3.246430e+02
  -2.513616e+02   1.147821e+02
  -2.093106e+02  -2.079554e+02
   7.740731e+01  -3.274899e+02
   3.793505e+02  -2.516296e+01
   3.648979e+02   2.945353e+02
   1.105671e+02   3.986842e+02
  -2.595095e+02   1.883858e+02
  -4.107597e+02  -9.949793e+01
  -2.406914e+02  -2.082058e+02
   3.297620e+01  -1.605265e+02
   2.495494e+02   1.481095e+01
   1.765078e+02   7.624875e+01
  -1.647855e+01   2.915682e+01
  -1.282594e+02  -7.273914e+01
   9.004301e+01  -4.202350e+01
   2.233665e+02   9.395778e+01
   6.673407e+01   1.992612e+02
  -1.577253e+02   1.908411e+02
  -2.497650e+02   1.353061e+02
  -1.580754e+02  -5.754127e+01
   1.929673e+01  -1.783681e+02
   1.786305e+02  -3.197379e+02
   2.815046e+02  -8.655296e+01
   2.510291e+02   1.000896e+02
   8.121318e+01   2.864209e+02
  -5.613873e+01   2.517138e+02
  -3.655227e+01   1.017947e+02
  -4.560474e+01   8.355780e+00
  -1.075651e+02   9.935520e+01
  -1.831610e+02   5.001220e+01
  -1.677699e+02  -1.014078e+02
  -7.603986e+01  -2.209815e+02
   7.534640e+01  -1.322230e+02
   2.258444e+02   4.983297e+01
   6.293053e+01   2.187341e+02
  -2.062554e+01   1.350772e+02
  -2.116991e+02   9.528623e+01
  -1.830954e+02  -1.345867e+02
  -1.149991e+02  -2.727719e+02
   1.893559e+01  -2.523724e+02
   1.575790e+02  -6.700501e+01
   9.640372e+01  -7.510281e+01
   6.151874e+01  -6.342060e+01
   1.774617e+02  -2.465082e+01
   3.294927e+02   1.192761e+02
   2.901661e+02   2.084593e+02
  -9.890830e+01   3.062541e+02
  -3.149874e+02   3.344052e+02
  -4.008795e+02   1.773953e+02
  -1.887508e+02  -1.393643e+02
   5.532185e+00  -2.123559e+02
   1.623699e+02  -1.728263e+02
   1.228233e+01  -7.529243e+01
  -6.271148e+01   6.061038e+01
  -9.389983e+01  -1.246556e+01
   3.138145e+00  -9.622055e+01
   1.571245e+02  -1.039482e+02
   9.935860e+01   5.235127e+01
  -9.846126e+01   1.140112e+02
  -1.165658e+02  -3.170159e+01
  -1.102180e+02  -1.733139e+02
   3.734441e+00  -2.397400e+02
   1.977448e+02  -1.472027e+02
   2.706653e+02   7.706339e+01
   1.783565e+02   2.124105e+02
  -1.202645e+01   1.677283e+02
  -7.524688e+01   1.383269e+02
  -1.340382e+02  -1.924292e+01
  -1.630994e+01   6.363089e+00
   1.051634e+01   4.139520e+01
  -4.592557e+01   6.086749e+01
  -1.282031e+02  -2.506024e+01
  -1.267759e+02  -7.555405e+00
  -7.343643e+01  -3.563789e+01
   3.636983e-02   1.561366e+01
  -2.024007e+01   4.874887e+01
  -1.410441e+02   1.110574e+02
  -2.628629e+02  -5.235140e+01
  -2.163160e+02  -1.176104e+02
  -8.417163e+00  -1.491783e+02
   1.285768e+02  -2.024222e+02
   2.058129e+02  -6.179208e+01
   1.243686e+02   6.556466e+01
  -2.128216e+01   8.171074e+01
  -8.801097e+01   9.317861e+00
   1.845237e+01  -1.022719e+02
   1.745322e+02   1.273277e+01
   1.341963e+02   1.086366e+02
   2.028291e+01   1.463962e+02
  -6.615833e+01   1.539755e+02
  -1.256074e+02  -9.951656e+00
   3.139244e+01  -1.236100e+00
   3.241439e+01   3.040653e+01
   5.612552e+01   5.257184e+01
  -2.467489e+01   8.674713e+01
  -1.882136e+02   7.679298e+00
  -1.093655e+02  -5.845372e+01
  -3.677446e+01  -1.353832e+02
   1.271426e+02  -1.545023e+02
   1.034343e+02  -1.336485e+00
   2.940520e+01   2.098769e+01
  -5.618876e+01   7.148079e+01
  -4.450546e+01   2.062149e+01
  -4.091451e+01  -6.405817e+01
   4.644253e+01  -2.763130e+01
  -5.225390e+01   2.350583e+01
  -9.233607e+01   2.523539e+01
  -2.660612e+01  -1.463226e+02
   3.363633e+01  -1.283452e+02
   6.835130e+01  -1.110143e+02
   1.278640e+02  -1.474775e+01
   1.779438e+02   1.403647e+02
   2.892184e+01   1.513696e+02
  -9.044329e+01   1.794218e+02
  -9.022891e+01  -2.036889e+01
  -7.110234e+01  -1.828870e+01
  -1.900272e+00  -6.752287e+00
  -8.699116e+01   2.040264e+01
  -3.095359e+01   3.674657e+01
  -3.680597e+01  -7.578000e+01
  -1.357038e+01  -6.678425e+01
   9.861023e+01  -6.998783e+00
   9.114559e+01   8.737594e+00
  -1.249608e+02   9.379309e+01
  -1.296726e+02   5.775598e+01
  -1.827695e+02  -7.804325e+01
  -1.614950e+01  -1.368230e+02
   7.454020e+01  -1.832258e+02
   2.738580e+02  -4.578293e+01
   1.503333e+02   4.475183e+01
   6.309121e+01   1.626168e+02
   1.023137e+01   1.166559e+02
  -3.995965e+01   5.262945e+01
  -8.505797e+01   5.739575e+01
  -1.158893e+01   4.651106e+01
  -1.110285e+02  -1.095974e+01
  -1.230670e+02  -7.250233e+01
  -5.571513e+01  -1.125005e+02
   5.243440e+00  -2.263663e+02
   8.235144e+01  -1.071635e+02
   1.578015e+02   1.538194e+01
   7.564497e+01   1.400527e+02
   8.992403e+00   1.179696e+02
  -4.448016e+01   5.816536e+01
  -1.331930e+01  -4.879565e+01
   1.213247e+01  -7.582898e+01
   3.614849e+01   3.269078e+01
  -2.110721e+01   4.396387e+01
  -2.186035e+01  -3.747602e+01
  -7.474902e+00  -8.206736e+01
   1.039012e+02  -6.298817e+01
   9.592066e+01   3.582651e+01
   9.757106e+01   4.693724e+01
  -2.843831e+01   1.143442e+02
  -1.301917e+02   4.274949e+01
  -1.492098e+02   4.080885e+00
  -3.039087e+01  -3.200313e+01
   4.226690e+01  -4.286143e+01
   5.227738e+01  -3.281584e+01
  -7.530570e-01   6.492082e+01
  -5.900288e+01   6.959372e+01
  -3.800282e+01  -4.779658e+01
   2.032114e+00  -2.592652e+01
  -2.621890e+01  -1.159139e+01
  -9.367459e+01   1.549320e+01
  -6.199772e+01   1.290471e+01
  -3.346721e+00  -9.268807e+01
   3.754428e+01  -1.564548e+02
   8.376013e+01  -1.282176e+02
   1.474472e+02  -2.611453e+01
   7.421084e+01   5.286736e+01
  -2.584287e+01   8.437014e+01
  -8.549770e+01   2.462106e+01
  -4.297616e+01  -4.076189e+01
   3.386110e+01   3.291316e+00
   1.256297e+02  -8.416508e+00
   8.123229e+01   7.510161e+01
  -1.121513e+02   8.540479e+01
  -1.673419e+02   1.229178e+02
  -1.186395e+02  -9.033277e+01
  -6.874453e+01  -3.363987e+01
   2.038671e+01   1.052444e+00
   1.170066e+00  -1.604886e+01
   6.824514e+00   5.140151e+01
  -3.768425e+01  -5.300373e+01
  -4.519020e+01  -8.231399e+01
   9.536832e+01  -1.093351e+02
   1.065638e+02  -5.500980e+01
   7.581774e+01   1.467925e+02
   2.491150e+01   1.538000e+02
  -7.084126e+01   2.681363e+01
  -6.188452e+01   2.258464e+01
  -4.550062e+01  -7.399124e+01
  -3.660616e+01  -6.847081e+01
   1.153427e+01   9.998577e-01
  -8.802957e-01   4.207011e+01
   7.888232e+00   3.026597e+01
   2.857825e+01   4.585767e+01
   4.683188e+01  -3.697833e+00
   2.737402e+00   6.009810e+01
   9.152488e-01   8.259110e+01
   4.010024e+00   4.481063e+01
  -1.353964e+02  -6.000507e+01
  -1.347923e+02  -4.334947e+01
  -2.069636e+01  -1.724036e+00
   7.296520e+01  -1.754907e+01
   5.300190e+01   1.282920e+01
   8.334282e+01   3.025373e+01
  -7.119180e+01   4.824786e+01
  -2.373396e-01  -1.918996e+01
  -1.797620e+01  -5.468693e+01
   4.737857e+01   1.735690e+01
  -7.235431e+01  -5.313886e+00
  -3.337894e+01  -2.201570e+01
  -9.483137e+00  -8.790787e+01
   9.148505e+01  -1.750367e+01
   1.387324e+02  -6.935428e+00
   1.323842e+02   4.112545e+01
   6.124649e+01   7.241827e+01
  -1.019204e+02   1.009085e+02
  -1.021043e+02   6.568035e+01
  -6.316987e+00  -3.373993e+01
   1.119118e+01  -4.459418e+01
  -7.969028e+00  -6.768045e+01
  -2.138384e+01   3.626319e+01
   1.003254e+01   2.259913e+01
  -3.643816e+01  -6.061043e+01
  -6.366931e+00  -9.587026e+01
   5.900945e+01  -3.256066e+01
   3.833301e+01   6.319894e+01
   1.855510e+01   7.055288e+01
  -4.837361e+01   5.111950e+01
  -9.590369e+01  -9.518097e+01
  -4.748722e+01  -6.396652e+01
   3.886240e+01  -5.215140e+01
   2.830112e+01   4.904293e+01
   7.312281e+01   1.439091e+01
  -9.412948e+01  -1.956533e+01
   1.792044e+00  -4.220499e+00
   6.375157e+01  -2.143430e+00
   7.837258e+01  -1.212229e+01
   7.135077e+01   5.024607e+01
  -9.081690e+01   8.514092e+01
  -8.129603e+01   3.170743e+01
  -6.318769e+01  -2.314361e+01
   6.032867e+01   2.436524e+01
   7.042523e+01  -4.064491e+01
   3.336320e+01   2.254376e+01
  -1.907810e+01   4.377914e+01
  -4.109315e+01  -1.948739e+01
  -5.503158e+01   6.769840e+01
  -3.272360e+01  -6.811699e+01
   2.806768e+00  -8.244790e+01
   2.698244e+00  -1.680287e+01
  -6.238919e+00   3.892501e+01
   2.103923e+01   3.522798e+01
  -2.963026e+01   4.431865e+01
  -1.554594e+01  -8.599283e+01
  -1.884761e+01   4.280271e+01
  -4.997448e+01   1.759503e+01
  -7.401922e+00   1.555057e+01
  -1.842315e+01  -2.963542e+01
  -2.023496e+01  -6.222329e+00
  -4.384778e+01  -3.508317e+01
   6.916334e+01   5.368393e+01
   1.331284e+01   3.792517e+01
  -7.242582e+01   7.387488e-02
  -4.608667e+01  -1.285238e+01
  -1.217366e+01  -8.771882e+01
   1.730402e+01  -7.096665e+01
   4.073246e+01  -5.999690e+01
   2.047764e+01   1.810434e+01
  -4.213261e+00  -2.281958e+00
  -2.857111e+01  -1.448708e+00
   8.459605e-01  -5.030313e+01
   2.971673e-02  -3.856455e+00
