
 $NMID
 id='ANONYMOUS ', fmtdat='(2E16.6)'
 volume=1.0
 tramp=1.0
 $END
  -2.706775e+03   2.730153e+02
  -2.096781e+03  -1.105519e+03
  -4.027633e+02  -1.776680e+03
   8.575912e+02  -1.457671e+03
   9.288284e+02  -3.985244e+02
   2.875248e+02   1.009041e+02
  -2.753297e+02   1.191500e+02
  -8.151005e+01  -3.841020e+02
   2.676326e+02  -5.307929e+02
   5.592894e+02  -2.418513e+02
   5.165104e+02   3.738473e+02
   8.291321e+01   5.377045e+02
  -1.988480e+02   2.874350e+02
  -2.398614e+02  -3.253732e+02
  -2.396135e+01  -4.648184e+02
   3.436618e+02  -1.297711e+02
   3.338050e+02   3.592511e+02
   2.921016e+01   6.010543e+02
  -3.904358e+02   3.373507e+02
  -4.904216e+02  -6.260906e+01
  -1.386653e+02  -2.910470e+02
   8.449959e+01  -2.792571e+02
   8.984038e+01  -6.673346e+01
  -1.853134e+02  -8.291679e+01
  -2.316898e+02  -2.952772e+02
   9.705279e+01  -3.229026e+02
   4.247657e+02  -6.257489e+01
   4.693702e+02   1.950636e+02
   2.007506e+02   2.616297e+02
  -2.197343e+02   1.120871e+02
  -4.179151e+02  -1.214008e+02
  -1.726161e+02  -2.687190e+02
   1.672943e+02  -3.444936e+02
   3.166680e+02  -1.265529e+02
   2.209230e+02   1.216718e+02
   5.187099e+01   1.474301e+02
   1.016825e+01   2.000779e+02
   7.229921e+01  -1.299177e+01
   1.682392e+02  -7.017248e+01
   1.772786e+02   8.207192e+01
  -2.493153e+01   4.217621e+02
  -1.551574e+02   3.836130e+02
  -2.077780e+02   1.033828e+02
  -9.391655e+01  -2.494777e+02
   8.000134e+01  -1.067124e+02
   1.757582e+02   1.759012e+02
  -2.894631e+01   2.678361e+02
  -3.139085e+02   4.423224e+01
  -4.341464e+02  -2.909409e+02
  -2.381688e+02  -3.690900e+02
   2.208134e+02  -2.313798e+02
   4.849412e+02   4.132799e+01
   3.512551e+02   1.126061e+02
  -2.562383e+00   1.989977e+02
  -2.203053e+02   1.411730e+02
  -1.711776e+02  -1.995493e+01
  -1.148079e+02  -2.812916e+01
   7.745448e+00  -2.575581e+01
  -4.611789e+01  -1.693148e+01
  -1.408514e+02  -1.682280e+01
  -1.462847e+02  -2.005209e+02
   1.083975e+02  -2.589808e+02
   3.249353e+02  -1.640439e+02
   2.090453e+02   5.869567e+01
  -1.160434e+01   3.936916e+02
  -3.117431e+02   3.867576e+02
  -3.209873e+02   1.701205e+02
  -2.072826e+02  -1.606176e+02
  -5.619188e+01  -3.149519e+02
  -2.052125e+01  -3.276901e+02
  -1.138138e+01  -2.140693e+02
   6.546532e+01  -9.850697e+01
   1.980753e+02  -9.562771e+01
   2.333866e+02  -5.043734e+01
   2.048116e+02   1.557350e+02
   6.380267e+01   1.798392e+02
  -5.868116e+01   1.611045e+02
  -1.929023e+02  -6.841263e+01
  -9.739779e+01  -2.810181e+02
   6.677410e+01  -2.513716e+02
   1.822518e+02  -7.133313e+01
   3.138871e+02   1.546095e+02
   1.280134e+02   2.232850e+02
  -6.931295e+00   2.500344e+02
  -1.012881e+02   8.995369e+01
  -1.346806e+02   6.385996e+01
  -1.889085e+02   7.567544e+01
  -2.896403e+02   7.110609e+01
  -3.395346e+02  -9.283566e+01
  -2.806295e+02  -2.579434e+02
   2.761207e+01  -4.430654e+02
   3.337928e+02  -4.005935e+02
   4.341654e+02  -1.529801e+02
   2.364692e+02   7.970196e+01
  -7.593525e+00   2.494015e+02
  -6.521091e+01   1.915740e+02
  -5.139355e+01   3.100829e+01
   8.760099e+01  -2.291148e+01
   1.454361e+02   1.543845e+01
  -3.167380e+00   9.940655e+01
  -7.933616e+01   7.100695e+01
  -4.489275e+01  -5.225017e+01
   2.808200e+01  -1.269065e+02
   1.127100e+02  -8.675958e+00
   1.212193e+02   2.381787e+02
   3.293605e+01   3.150312e+02
  -2.213434e+02   1.897876e+02
  -3.804828e+02   2.336858e+01
  -2.935253e+02  -2.461829e+02
  -5.297035e+01  -2.216687e+02
   1.256870e+02  -1.682683e+02
   1.844791e+02  -8.853799e+00
  -1.820261e+00   5.414995e+01
  -3.461279e+01  -7.496028e+01
  -2.362398e+01  -1.064364e+02
   8.834223e+01  -2.764789e+01
   9.618280e+01   9.107780e+01
  -3.293991e+00   2.516963e+01
  -1.214560e+02  -1.538159e+01
  -5.725038e+01  -7.987759e+01
   7.898408e+01  -6.305371e+01
   2.601479e+02  -1.858194e+00
   2.797476e+02   2.283436e+02
   4.676095e+01   2.858274e+02
  -1.387165e+02   1.811481e+02
  -2.671083e+02   1.192532e+02
  -7.014709e+01  -8.796087e+01
  -1.475882e+01  -1.004734e+02
   8.302987e+01   1.321189e+01
  -3.429213e+01   4.461935e+01
  -1.936206e+02   6.923058e+01
  -1.851085e+02   3.162364e+01
  -1.170974e+02  -1.451843e+02
   1.080437e+02  -1.184280e+02
   1.144216e+02  -6.125560e+01
   1.073810e+02  -3.807501e+01
  -2.786468e+00  -4.061144e+01
  -5.300913e+01  -1.485574e+02
   9.925990e+01  -1.344381e+02
   2.169991e+02  -1.813789e+01
   1.702778e+02   1.046325e+02
   4.149898e+01   1.409077e+02
  -1.527371e+02   1.392136e+02
  -1.982699e+02  -4.810708e+01
  -4.858242e+01  -4.831943e+01
   3.983724e+01  -4.111771e+01
   6.120110e+01  -4.547386e+01
   1.405967e-01   3.316677e+00
  -6.526987e+01   1.983106e+00
  -1.256682e+01   4.147678e+01
   1.273340e+02  -7.688799e+00
   1.655443e+02   7.918960e+01
  -4.897954e+01   1.499980e+02
  -7.770525e+01   1.065536e+02
  -2.570460e+02   2.925386e+01
  -2.002710e+02  -8.496474e+01
  -6.510467e+01  -1.723682e+02
   7.589660e+01  -1.630423e+02
   8.303927e+01  -5.113774e+01
   8.853408e+01   2.252587e+00
   2.085813e+01  -4.548598e+00
   4.057744e+01   5.471800e+00
   3.325034e+01   1.503429e+01
   2.689572e+01   7.814368e+01
  -3.221880e+01   1.282467e+02
  -1.460860e+02   4.537640e+01
  -1.332027e+02  -4.373755e+01
   1.403491e+01  -1.467342e+02
   1.501874e+02  -1.011029e+02
   1.868221e+02   1.215495e+02
   1.502510e+02   2.170004e+02
  -9.856633e+01   2.006178e+02
  -2.252786e+02   2.700964e+01
  -2.586720e+02  -1.349502e+02
  -9.402716e+01  -1.521031e+02
  -2.568663e-01  -1.239057e+02
   8.215943e+01  -4.930703e+01
   8.838519e+01  -9.059506e+01
   6.937679e+00  -7.243783e+01
   1.179998e+02  -1.503119e+02
   1.446995e+02   2.961979e+01
   1.015246e+02   1.159552e+02
   2.884200e+01   1.859885e+02
  -3.195895e+01   1.415308e+02
  -9.474834e+01   8.297191e+00
  -1.118251e+02  -2.138337e+02
  -4.296127e+01  -1.470064e+02
  -1.005983e+01  -5.578068e+01
   8.976423e+01   3.168047e+01
   1.034984e+01   7.799497e+01
  -1.612614e+01   2.679528e+01
   6.554842e+01  -1.143212e+01
   5.604777e+01  -2.746471e+01
   1.086167e+02   2.675493e+01
  -4.668353e+01   1.757087e+01
  -1.486743e+02   2.847006e+01
  -8.308303e+01  -8.314233e+01
   2.722974e+00  -1.084422e+02
   5.586796e+01  -1.038901e+02
   1.671078e+02  -4.665302e+00
   1.707554e+01   2.774771e+00
  -3.199772e+01   1.753174e+01
  -9.108684e+01  -2.681455e+01
  -3.211669e+01  -3.371145e+01
  -1.751460e+00  -4.374096e+01
   8.558981e+01   3.894176e+01
   3.949497e+01   2.481561e+01
   5.057971e+01  -6.892998e-01
   6.079126e+01   3.183255e+01
   5.110797e+01   1.934733e+01
   2.655826e+01   2.102604e+01
  -1.945653e+01   1.576462e+02
  -1.373982e+02   1.400483e+02
  -2.045477e+02   1.164159e+01
  -1.532227e+02  -1.166656e+02
   7.934366e-01  -1.345938e+02
   9.094760e+01  -8.617538e+01
   3.343087e+01   3.305173e+01
  -3.780257e+01   1.020759e+01
  -1.892912e+02  -6.489617e+01
  -1.047829e+02  -1.154993e+02
   7.087747e+01  -1.355759e+02
   1.901959e+02  -1.926562e+00
   1.437522e+02  -5.964687e+00
   3.776868e+01   8.989418e+01
  -6.299156e+01   4.644518e+01
  -7.006498e+01  -1.983201e+00
   4.462935e+01   1.854427e+01
   1.163220e+02   4.746978e+01
   4.225118e+01   1.351630e+02
  -3.721619e+01   1.374070e+02
  -1.064602e+02   1.202118e+02
  -1.247145e+02  -7.493090e+00
  -3.959248e+01  -9.267489e+01
   4.349695e+01  -1.591300e+02
   1.068271e+02  -1.935065e+00
   4.129639e+01   8.074693e+01
  -7.161273e+01   6.771541e+01
  -7.007802e+01   1.693115e+01
  -1.243782e+01  -2.075240e+01
  -9.130986e+01   5.296386e+01
   6.267089e+00  -3.670323e+00
  -6.050882e+00   2.197432e+01
  -3.778303e+01  -8.226633e+01
  -3.997194e+01  -8.772364e+01
   9.217474e+01  -8.331667e+01
   1.911469e+02   3.840561e+01
   9.455197e+01   3.506820e+01
  -1.071337e+01   8.372352e+01
  -9.470663e+01  -2.246897e+01
  -4.926267e+01  -1.073401e+01
  -5.867319e+01  -5.878730e+01
   3.549722e+00   1.321177e+01
   1.742045e+01  -3.480918e+01
  -5.148519e+01   1.571860e+01
  -2.549310e+01   1.637634e+01
   5.773127e+01  -1.558439e-02
   1.166665e+02   1.952559e+01
   2.328194e+01   3.707592e+01
  -8.436017e+01   1.213561e+02
  -1.614173e+02   8.640053e+01
  -1.248448e+02  -9.318462e+01
   4.278306e+01  -1.370975e+02
   4.538663e+01  -1.641403e+02
   8.988382e+01  -3.016588e+01
   6.596340e+01   3.462222e+01
   1.096179e+01   5.998851e+00
  -4.028806e+01   7.019487e+01
   2.831925e+01  -1.174612e+01
   1.035904e+02   3.298694e+01
   2.584235e+01   1.211676e+02
  -7.409854e+01   1.208596e+02
  -4.858968e+01   6.089370e+01
  -1.049502e+02  -1.025028e+02
  -3.887920e+01  -1.478533e+02
   2.195924e+01  -5.810302e+01
   1.095897e+02   7.371008e+01
   5.322974e+01   1.187314e+02
  -6.351775e+01   8.896375e+01
  -1.136119e+02  -2.168078e+01
  -4.137924e+01  -8.998062e+01
   7.554259e+01  -1.219483e+02
   3.156243e+01  -5.060218e+01
   5.586073e+00   4.432469e+01
  -7.071483e+00  -2.748929e+00
  -8.138493e+01   2.741632e+00
   4.501458e+01  -6.180895e+01
   1.392970e+02  -6.873042e+01
   6.813845e+01   6.735111e+01
   1.359863e+01   9.671428e+01
  -1.450334e+01   1.017231e+02
  -8.799395e+01  -4.160400e+01
  -5.775383e+01  -3.816710e+01
  -3.437489e+01  -1.057949e+02
   4.770875e+01   2.695470e+01
   5.424954e+00   2.042780e+01
   1.200826e+01   4.327101e+01
  -4.027380e+00  -6.307740e-01
  -7.139828e+01  -2.608855e+01
  -7.556581e+01   1.232836e+01
   4.795046e+01   2.758827e+01
   2.204663e+01  -2.000260e+01
   2.212866e+01  -7.686932e+01
  -5.391684e+00  -5.645849e+00
  -3.802758e+00  -1.336200e+01
   4.483599e+01   1.175423e+01
   6.992274e+01   7.997623e+01
  -1.018516e+02   1.322009e+02
  -5.856893e+01  -3.378761e+01
  -5.438923e+01  -5.969674e+01
   2.439387e+01  -7.648691e+00
   1.037408e+02   1.551500e+01
  -9.763452e-01   1.902578e+01
  -1.288792e+01  -8.178495e+00
  -7.548463e+01   2.143181e+01
  -1.798801e+01  -1.218108e+01
  -3.392714e+00  -1.865053e+01
   2.529108e+01  -1.374212e+01
  -4.430381e+01   4.277896e+00
  -1.446235e+02   7.858027e+01
