
 $NMID
 id='ANONYMOUS ', fmtdat='(2E16.6)'
 volume=1.0
 tramp=1.0
 $END
  -3.595303e+03   1.578567e+02
  -2.376480e+03  -1.984559e+03
   2.826203e+02  -2.291269e+03
   1.637184e+03  -1.070702e+03
   9.693150e+02   1.997399e+02
  -3.390978e+02   4.824623e+02
  -5.743184e+02  -1.514620e+02
  -7.877161e+01  -7.733478e+02
   5.453184e+02  -6.691265e+02
   8.294444e+02  -4.955923e+01
   4.701712e+02   7.024544e+02
  -1.012849e+01   7.534603e+02
  -4.748126e+02   1.829795e+02
  -2.644881e+02  -5.184205e+02
   1.753153e+02  -6.211075e+02
   5.191521e+02  -3.365362e+01
   3.131450e+02   5.389161e+02
  -2.066483e+02   6.100829e+02
  -5.100241e+02   2.399803e+02
  -3.602319e+02  -2.760754e+02
  -1.905124e+01  -3.848559e+02
   2.593575e+02  -2.610376e+02
   1.016515e+02  -7.394161e+01
  -1.409053e+02  -1.319609e+01
  -3.102962e+02  -1.257489e+02
  -1.379640e+02  -3.653743e+02
   3.779987e+02  -3.106895e+02
   6.529251e+02   8.439590e+01
   3.541197e+02   4.234599e+02
  -3.248039e+02   3.646446e+02
  -5.940688e+02  -5.940834e+01
  -2.274799e+02  -3.385305e+02
   2.039031e+02  -4.257724e+02
   4.830008e+02  -2.119673e+02
   3.398543e+02   1.960758e+02
   8.831075e+01   3.264323e+02
  -1.067838e+02   2.017508e+02
  -1.139390e+02  -1.494533e+02
   8.181958e+01  -3.247758e+02
   2.752879e+02   1.546875e+01
   1.435052e+02   5.141239e+02
  -2.085809e+02   5.513347e+02
  -4.622773e+02   5.357540e+01
  -1.946357e+02  -4.244017e+02
   1.736604e+02  -2.717186e+02
   3.114832e+02   2.536449e+02
  -4.729241e+01   4.755054e+02
  -4.187876e+02   9.275416e+01
  -5.248059e+02  -3.548562e+02
  -2.025880e+02  -5.031118e+02
   2.531611e+02  -3.692870e+02
   5.707816e+02   5.491837e+00
   3.831490e+02   3.573892e+02
  -5.554264e+01   2.817604e+02
  -3.682356e+02   8.374217e+01
  -2.177179e+02  -1.138053e+02
   4.649187e+01  -6.320101e+01
   1.988601e+02   7.992155e+01
  -1.112703e+02   1.285711e+02
  -2.340499e+02  -2.707391e+01
  -8.570386e+01  -2.574392e+02
   1.610655e+02  -2.656291e+02
   3.181548e+02  -9.153817e+01
   2.462906e+02   9.007443e+01
  -4.910436e+01   2.799945e+02
  -2.266308e+02   3.687909e+02
  -3.427422e+02   2.050623e+02
  -2.516035e+02  -1.397526e+02
  -8.029299e+01  -4.055024e+02
   4.187345e+01  -3.128348e+02
   1.090389e+02  -1.349919e+02
   2.496719e+00  -8.169948e+01
   5.709505e+01  -1.133084e+02
   1.676632e+02  -1.066061e+02
   3.170576e+02   1.070490e+02
   1.240232e+02   1.976968e+02
  -8.309191e+01   2.315542e+02
  -1.477113e+02   3.080419e+01
  -1.835769e+02  -2.617599e+02
   3.093970e+01  -2.558999e+02
   1.669373e+02  -1.295792e+02
   3.133684e+02   1.243559e+02
   2.002296e+02   3.306890e+02
  -1.287048e+02   2.547199e+02
  -2.187722e+02   1.862725e+02
  -9.247398e+01   2.180057e+01
  -9.124488e+01   3.643535e+01
  -2.324477e+02   1.091896e+02
  -3.972123e+02  -5.281844e+01
  -2.440833e+02  -2.761365e+02
   5.100753e-01  -4.081856e+02
   2.612106e+02  -4.210121e+02
   4.050151e+02  -1.990889e+02
   3.407651e+02   4.134095e+01
   3.189462e+01   2.829976e+02
  -1.164986e+02   1.990205e+02
  -2.355142e+01   2.110504e+01
   8.852114e+01  -1.308050e+02
   8.011984e+01   3.920566e+01
   3.873343e+01   1.744113e+02
  -1.217590e+02   1.926644e+02
  -1.006367e+02  -1.164909e+01
  -1.370749e+01  -1.785258e+02
   1.534542e+02   4.235048e+01
   2.003148e+02   2.379498e+02
   6.874182e+00   2.520694e+02
  -2.113203e+02   1.852687e+02
  -2.604335e+02  -7.328496e+01
  -1.965129e+02  -1.753348e+02
  -1.241503e+02  -2.247174e+02
   1.050129e+02  -1.329173e+02
   1.740990e+02   9.435599e+00
   7.660970e+01   9.709630e+01
  -3.676490e+01  -4.888513e+01
   4.569320e+00  -6.547045e+01
   1.309572e+02  -1.365294e+02
   1.753692e+02  -8.158987e+00
   8.485953e+01   7.575557e+01
  -4.035784e+01   3.095400e+01
  -3.278519e+01  -7.368870e+01
   1.142282e+02  -7.377075e+01
   3.052859e+02  -1.517420e+01
   2.837035e+02   1.166897e+02
   5.531668e+01   2.330420e+02
  -9.197659e+01   2.493504e+02
  -2.660690e+02   5.370279e+01
  -1.769087e+02  -1.079796e+02
  -1.216952e+01  -1.209307e+02
   6.205132e+01  -3.834306e+01
   3.121632e+01   8.731345e+01
  -2.210931e+02   4.044740e+01
  -1.851307e+02  -1.273549e+02
  -8.587556e+01  -2.116972e+02
   1.153320e+02  -1.008343e+02
   1.196948e+02  -5.565044e+01
   2.526717e+01  -2.128297e+01
  -2.960555e+01  -2.669109e+01
  -3.567773e+01  -8.391324e+01
   6.130314e+01  -1.024611e+02
   2.301453e+02  -5.426697e+01
   1.889394e+02   9.365819e+01
   8.370504e-01   1.800919e+02
  -1.711427e+02   1.754673e+02
  -1.712256e+02   2.684690e+01
  -1.292448e+02  -6.489176e+01
   4.926582e+01  -1.239524e+02
   1.053181e+02   2.223184e+01
  -3.903686e+01   9.208415e+00
  -2.681242e+01  -5.756493e+01
   1.244952e+00  -6.720391e+01
   3.622586e+01   4.762312e+01
   1.194599e+02   5.615537e+01
  -9.208039e+00   1.225529e+02
  -7.539327e+01   1.548186e+02
  -2.139021e+02   7.109573e+00
  -1.775673e+02  -1.305549e+02
  -5.287293e+01  -1.872820e+02
   1.025251e+02  -1.163705e+02
   1.259384e+02  -4.809841e+01
   6.871972e+01   5.405196e+01
   6.307706e+01   7.552543e+01
   3.414141e+01  -2.535950e+01
   9.940676e+01   1.817281e+01
   5.901346e+01   1.434288e+01
  -3.640695e+01   1.016426e+02
  -1.288763e+02   6.416652e+01
  -1.037986e+02  -2.867320e+01
  -3.485134e+01  -1.324799e+02
   1.435132e+02  -5.376163e+01
   2.080106e+02   1.142962e+02
   1.045671e+02   2.379927e+02
  -7.747739e+01   1.916703e+02
  -2.531747e+02   1.397623e+02
  -2.619667e+02  -8.370874e+01
  -7.410052e+01  -1.499924e+02
   3.088222e+01  -1.402729e+02
   1.589042e+02  -7.535597e+01
   1.257472e+02  -7.510007e+01
   8.623125e+01  -1.383547e+02
   9.406173e+01  -7.833423e+00
   1.574161e+02   5.006899e+01
   8.251244e+01   1.876919e+02
   4.394775e+00   2.044818e+02
  -9.951588e+01   1.698103e+02
  -1.326613e+02   4.454060e+01
  -8.980559e+01  -4.015813e+01
  -4.677165e+01  -1.875671e+02
   8.391214e+01  -9.401934e+01
   4.780738e+01   3.206279e+01
   1.222783e+01   1.481929e+01
  -7.144139e+00   4.517728e+01
   5.353585e+01  -9.467712e+00
   8.442621e+01   4.294782e+01
   7.407994e+01   8.309761e+00
  -7.758317e+01  -2.352773e+01
  -1.370314e+02  -1.762591e+00
  -1.921940e+02  -1.128260e+02
   1.500179e+01  -1.286867e+02
   8.396582e+01  -9.122834e+01
   1.398705e+02  -1.590182e+01
   1.049116e+02   6.169252e+01
  -9.565609e+01  -1.679474e+00
  -6.470876e+01   4.493159e+00
  -5.263221e+01   7.929939e+00
   3.291027e+01  -7.094445e+01
   2.180663e+01   2.907676e+00
  -3.641998e+00   6.267077e+01
   7.627062e+01   6.130843e+01
   2.766054e+01  -1.085821e+01
   6.775933e+01   9.174665e+01
   2.926193e+01   4.402497e+01
  -1.448735e+01   1.609352e+02
  -1.021172e+02   1.813319e+02
  -1.877208e+02   3.358966e+01
  -8.084755e+01  -4.610765e+01
  -2.787621e+01  -8.530622e+01
   7.845360e+01   2.137750e+01
   4.217200e+01  -2.139361e+00
  -7.407726e+01   2.445802e+01
  -1.198133e+02  -6.563729e+01
  -8.311142e+01  -1.689917e+02
   7.702844e+01  -1.013595e+02
   2.001890e+02  -2.560968e+01
   1.557552e+02   6.603054e+01
   1.778393e+01   2.906332e+01
  -1.906207e+01   3.856067e+01
  -3.879573e+01   5.204292e+01
   7.766612e+01   5.776784e+00
   8.360648e+01   8.279287e-02
   3.001954e+01   1.711172e+02
  -1.043257e+02   1.069159e+02
  -1.366188e+02   5.908144e+01
  -1.077288e+02  -7.903411e+01
   2.370751e+01  -2.056227e+02
   8.991658e+01  -1.420132e+02
   1.214741e+02   4.499841e+01
   1.617831e+01   7.218584e+01
   2.884515e+01   8.777237e+01
  -5.414946e+01   6.938924e+00
  -4.212836e+01  -3.444559e+01
  -2.580711e+01   1.136077e+01
   3.829687e+01   1.834450e+01
  -2.289120e+01  -1.790792e+01
  -1.247103e+02  -7.048821e+01
   3.926603e+00  -1.583437e+02
   7.102012e+01  -1.791401e+01
   1.293793e+02  -2.153639e+01
   1.210331e+02   4.200563e+00
   2.699759e+01   3.727405e+01
  -1.097933e+02  -1.306133e+01
  -6.750488e+01  -2.459037e+01
  -6.461312e+01  -1.555105e+00
   2.459529e+00   1.783935e+01
   4.607060e+01  -5.704584e+00
  -5.765128e+01   4.228221e+00
  -3.412930e+00   4.086430e+00
   5.363592e+01  -3.857346e+01
   9.902252e+01   3.942508e+01
   2.273163e+00   5.307992e+01
  -1.544754e+02   1.089460e+02
  -1.491584e+02   1.083129e+02
  -1.403081e+02  -1.089148e+02
   8.857439e+00  -1.886951e+02
   7.488763e+01  -1.554059e+02
   1.604771e+02  -8.085084e+01
   4.085944e+01   8.445231e+00
   2.880820e+01   1.023863e+02
  -4.490624e+00  -1.561444e+01
  -2.414770e-01  -1.695426e+01
   2.623942e+01   5.212632e+00
   1.311446e+01   1.159399e+02
   2.149088e+01   3.358205e+01
  -9.176628e+01  -1.958942e+01
  -6.009996e+01  -1.238298e+02
   3.759224e+01  -1.210690e+02
   8.834082e+01  -2.640699e+01
   1.144458e+02   6.690039e+01
   3.395188e+00   1.121367e+02
  -5.596546e+01   9.881254e+01
  -8.869306e+01  -3.876182e+01
  -5.198660e+01  -1.606294e+01
  -2.176130e+01  -4.879691e+01
   4.256380e+01  -1.354664e+01
  -3.269057e+01   6.825504e+01
  -7.681690e+00   3.976308e+01
   4.218481e+01   3.441510e+00
   9.362597e+01  -5.256712e+01
   9.209753e+01  -5.870202e+01
   1.047243e+02   4.130259e+01
   4.319677e+00   1.039583e+02
  -7.700123e+01   9.543386e+01
  -3.489978e+01  -2.745362e+01
   3.246869e+01  -4.513598e+01
   4.154709e+01  -7.048592e+01
   4.478177e+01   4.725685e+01
   4.846937e+01   9.309397e+01
  -4.192475e+01   1.650820e+00
  -5.733548e+01  -6.108093e+01
  -2.817194e+01   1.049832e+01
  -2.519760e+01  -7.872253e+00
   5.064430e+01  -3.697526e+01
  -1.507577e+01  -1.104794e-01
  -6.940193e+00  -7.132134e+00
  -2.227511e+01  -6.426764e+00
   1.998884e+01  -8.685774e+00
   1.017665e+01  -8.514354e+00
   6.624192e+01   7.196570e+01
  -3.042186e+01   4.965239e+01
  -4.424518e+01  -4.683518e+00
  -5.858842e+01  -5.710046e+01
   1.073184e+02  -7.796059e+01
   9.865911e+01   1.613366e+01
   1.705858e+01   1.562423e+01
   2.277951e+01   9.884617e+00
  -6.205120e+01   4.771107e+01
  -8.132537e+01   3.971443e+00
   2.331639e+01   8.440696e+00
   6.672224e+01   4.379643e+01
   2.469878e+00   5.621192e+01
  -1.217075e+01  -3.959925e+01
