
 $NMID
 id='ANONYMOUS ', fmtdat='(2E16.6)'
 volume=1.0
 tramp=1.0
 $END
  -1.772157e+03   2.716420e+02
  -1.279423e+03  -8.555449e+02
  -4.409100e+01  -1.275619e+03
   7.063097e+02  -6.814916e+02
   5.549436e+02  -8.785923e+01
  -8.451338e+01   1.962483e+02
  -3.704574e+02  -5.062429e+01
  -4.939496e+01  -3.720735e+02
   2.439867e+02  -3.389772e+02
   4.012667e+02  -1.199283e+02
   2.950453e+02   2.811337e+02
   1.493695e+01   3.607824e+02
  -2.425285e+02   1.775951e+02
  -1.835313e+02  -2.502295e+02
   2.038610e+01  -2.657527e+02
   2.477826e+02  -8.837424e+01
   1.545877e+02   2.116696e+02
  -5.397544e+01   3.004131e+02
  -2.499265e+02   1.259701e+02
  -1.824720e+02  -1.185292e+02
  -1.065262e+02  -2.273134e+02
   6.479184e+01  -1.705719e+02
   3.884341e+01  -3.312459e+01
  -9.293110e+01  -3.822699e+01
  -1.794779e+02  -4.975892e+01
  -2.895823e+01  -1.552012e+02
   1.973777e+02  -1.403240e+02
   3.766514e+02   3.272552e+01
   1.946135e+02   2.153639e+02
  -1.984703e+02   1.313772e+02
  -2.673591e+02  -1.687567e+01
  -1.284908e+02  -1.760224e+02
   1.071649e+02  -1.883775e+02
   2.395793e+02  -1.073698e+02
   1.573307e+02   8.954302e+01
   1.373890e+02   1.316591e+02
  -4.035971e+01   1.509982e+02
  -2.808198e+01  -2.473472e+01
   7.654240e+01  -1.455478e+02
   1.397826e+02  -1.911341e+01
   8.557160e+01   2.955482e+02
  -8.504553e+01   3.109432e+02
  -1.972126e+02   7.387752e+01
  -1.468121e+02  -1.937178e+02
   8.063153e+01  -1.253704e+02
   1.363063e+02   1.604771e+02
  -7.039612e+01   2.518828e+02
  -2.735001e+02   7.411976e+01
  -2.882014e+02  -1.037266e+02
  -1.046236e+02  -2.425828e+02
   2.153241e+02  -1.318086e+02
   2.774270e+02  -1.117702e+01
   2.017583e+02   1.384667e+02
  -2.322920e+01   1.510112e+02
  -2.118758e+02   3.411130e+01
  -1.173476e+02  -5.071519e+01
  -5.940312e+00  -2.460988e+01
   4.789098e+01   5.663485e+01
  -5.403016e+01   8.638271e+01
  -1.709254e+02  -5.185716e+01
  -9.737157e+01  -1.175516e+02
   4.193804e+01  -2.093417e+02
   1.687765e+02  -9.484554e+01
   8.766976e+01   5.077630e+01
   2.556537e+01   1.732885e+02
  -1.051510e+02   1.496143e+02
  -1.718405e+02   7.100631e+01
  -1.186227e+02   8.736955e+00
  -3.233715e+01  -2.473707e+02
   1.938855e+01  -1.935870e+02
  -1.556302e+01  -7.801014e+01
  -6.978529e-01   6.270159e+01
   5.271024e+01  -9.081680e+01
   4.042709e+01  -4.914104e+01
   1.570823e+02   8.449250e+00
  -2.448887e+00   1.216612e+02
  -2.930045e+01   1.537226e+02
  -1.187371e+02   1.797961e+00
  -1.532210e+02  -1.083802e+02
   3.192653e+01  -1.183064e+02
   7.732645e+01  -7.388622e+01
   1.380562e+02   6.896329e+01
   6.931285e+01   1.578891e+02
   2.844036e+01   1.444237e+02
  -1.358065e+02   7.046538e+01
  -6.719794e+01   4.337771e+01
  -5.228822e+01   7.828246e+01
  -7.439454e+01  -9.026240e+00
  -2.173976e+02  -7.245038e+01
  -1.456667e+02  -9.358636e+01
  -3.351999e+01  -2.579337e+02
   1.689334e+02  -2.036645e+02
   2.052674e+02  -8.421160e+01
   1.394848e+02  -1.621211e+00
   4.802572e+01   9.797292e+01
  -5.430568e+01   1.577520e+02
   2.563295e+01   6.413878e+01
   2.997874e+01  -1.555223e+01
   9.869932e+01   3.842049e+01
   4.467754e+01   4.212033e+01
  -3.657413e+01   1.105377e+02
  -2.779854e+01  -3.105620e+01
  -7.932396e+00  -6.241339e+01
   4.947931e+01  -3.111120e+01
   1.249474e+02   1.368690e+02
   2.384343e+01   1.724621e+02
  -1.392368e+02   1.088682e+02
  -1.712136e+02  -4.187523e+01
  -1.122341e+02  -7.089795e+01
  -4.946618e+01  -1.469043e+02
   8.607621e+01  -6.199707e+01
   6.698570e+01  -6.284462e+00
  -9.219004e+00  -4.055765e+00
  -5.481942e+01  -5.138414e+01
   2.418658e+01  -1.182238e+02
   6.360634e+01  -7.017571e+01
   3.722011e+01   3.355774e+00
   4.709562e+01   7.585867e+01
  -1.304475e+01  -1.711011e+01
  -3.222245e+01  -2.137464e+01
   4.819645e+01   1.150037e+01
   1.494932e+02  -6.047166e+01
   1.282100e+02   1.243273e+02
   4.668753e+01   9.610783e+01
  -6.556154e+01   1.583974e+02
  -1.316829e+02   4.830819e+01
  -3.620265e+01  -1.847017e+01
  -2.230879e+01  -2.618707e+01
   1.315729e+01   1.330092e+00
  -3.188271e+00   1.288361e+01
  -7.233949e+01   7.434683e+01
  -1.096788e+02  -3.627974e+01
  -3.235669e+01  -1.069760e+02
   3.052092e+01  -7.023296e+01
   5.182079e+01  -6.927654e+01
  -2.062187e+01  -1.079282e+01
  -2.554218e+01   8.848839e+00
  -3.786539e+01  -1.046872e+02
   5.827860e+01  -1.252256e+02
   6.210828e+01   2.568226e+00
   4.463968e+01   1.189582e+02
  -1.851373e+01   9.984056e+01
  -7.211416e+01   7.077899e+01
  -1.198585e+02   3.714946e+01
  -3.097298e+01  -5.274473e+01
   6.366679e+01  -3.429810e+01
   1.096352e+01  -2.253461e+01
  -9.988452e+01  -4.922219e+01
   3.104417e+01  -2.435791e+01
   2.825850e+01  -5.718802e+01
   4.663466e+01  -1.031866e+01
   3.896853e+01   2.716205e+01
  -2.341284e+01   9.138418e+01
  -7.492411e+01   1.156313e+02
  -1.489478e+02   5.384566e+01
  -1.427941e+02  -6.705209e+01
  -9.663068e+01  -1.067270e+02
   8.639534e+01  -9.902623e+01
   7.102164e+01  -3.175288e+01
   8.973630e+01   2.838464e+01
   2.771504e+01   4.799262e+01
   5.966413e+01   2.544107e+01
  -4.103210e-01  -1.044122e+01
   5.142530e+01   7.308754e+00
  -1.908326e+01   5.024235e+01
  -9.677290e+01   2.879228e+01
  -1.073118e+02  -6.058632e+01
   3.255229e+01  -3.067372e+01
   8.566668e+01  -4.425778e+01
   3.254702e+01  -2.936290e+01
   5.995048e+01   2.153906e+02
  -2.174823e+01   1.487880e+02
  -1.428198e+02   9.043633e+01
  -1.459309e+02  -1.242263e+02
  -2.294069e+01  -8.490142e+01
  -9.840011e-01  -2.969103e+01
  -1.854886e+01  -3.319336e+01
   1.863043e+01  -6.608901e+01
   6.493994e+01  -6.004619e+01
   1.103148e+02  -4.877682e+01
   5.538857e+01   1.151496e+01
   1.055817e+02   5.348111e+01
  -4.055934e+01   1.311927e+02
  -7.405161e+01   1.037137e+02
  -8.416513e+01   1.142203e+01
  -5.539413e+01  -3.934445e+01
  -2.081036e+01  -2.795077e+01
  -2.386755e+01  -5.529807e+01
   1.837529e+01   1.950967e+01
   6.021975e+01   2.932742e+01
   2.915208e+01   2.352153e+01
  -3.508590e+01  -3.424209e+01
   1.477710e+01   9.817118e+00
   7.181511e+01   1.281198e+01
  -1.253981e+01   4.393833e+01
  -3.627411e+01  -2.428976e+01
  -9.395973e+01  -2.194341e+01
   6.316208e+01  -3.500121e+01
   7.873403e+01  -3.891815e+01
   2.496954e+01   9.302826e+00
   6.594616e+01   5.616047e+01
  -5.279529e+01   5.344022e+01
   5.559761e+00  -2.405314e+01
   3.786757e+01  -2.153931e+01
   5.005328e+00  -4.711894e+01
   1.171819e+01  -7.412772e+01
  -1.527910e+01   4.546928e+01
   2.852885e+01   5.894701e+01
   6.076751e+01   1.100574e+02
   3.642814e+01   2.808447e+01
  -2.209679e+01   4.724068e+01
  -2.672798e+01   8.934834e+01
  -6.197806e+01   6.297028e+01
  -1.117142e+02  -9.762805e+00
  -7.236969e+01  -1.649342e+01
  -3.006913e+01  -6.145359e+01
   6.875933e+01  -6.249621e+01
   6.348058e+01  -7.695270e+01
  -2.675080e+01  -4.460288e+01
  -4.704363e+01  -1.507912e+01
  -3.833296e+00  -3.538684e+01
   1.914048e+01  -1.291955e+02
   8.851089e+01  -6.335633e+01
   5.326542e+01   6.367497e+00
   2.196743e+01   3.588747e+01
  -4.884519e+01  -5.619325e+01
  -5.195601e+01   1.676818e+01
  -1.211942e+01  -7.770821e+00
   6.190068e+01   1.552592e+01
  -3.739996e+01   1.193070e+02
  -6.536762e+01   9.308565e+01
  -7.137404e+01  -2.598093e+01
  -7.827273e+01  -8.778929e+01
  -3.493394e+01  -5.888214e+01
   9.801971e+01  -1.111486e+02
   2.331167e+01   5.539883e+00
   1.673689e+01   7.777320e+01
  -6.780725e+01   2.736957e+01
  -7.437116e+01  -3.898705e+01
  -6.044165e+01  -4.009683e+01
   9.806859e-01  -5.975329e+01
  -3.435331e+01  -2.345136e+01
  -4.064698e+01   3.334907e+01
   2.417953e+01  -4.684289e+01
  -4.824613e+01  -7.737196e+00
   4.145815e+01  -8.494934e+00
   5.813269e+01   8.320621e+00
   7.936450e+01   5.399085e+01
   9.408890e+01   1.493899e+01
  -4.001992e+01   3.936607e+01
  -8.474784e+01  -2.914857e+01
   2.221077e+01  -4.100958e+01
   4.184831e+01   4.961227e+00
   5.107008e+01   4.381020e+01
  -3.507634e+01   1.248515e+01
  -5.794858e+01   5.606502e+01
   3.415869e+01  -1.973089e-01
   4.654442e+01   8.942429e+00
  -7.594855e+00  -3.497808e+00
  -8.167527e+01   1.201550e+02
  -6.121358e+01   4.803846e+01
  -7.658330e+01  -4.071805e+01
  -3.101532e+01  -1.414207e+02
   9.629395e+01  -2.189326e+01
   3.556704e+01  -3.743188e+01
   8.079367e+01  -3.666533e+00
   8.436614e+00   3.930520e+01
  -7.689101e+01  -3.803217e+01
   1.530751e+01   7.683806e+00
  -2.295880e+00   5.719412e+01
   2.502545e+01   4.719538e+01
   1.168641e+01  -8.263431e+00
  -8.314917e+01   2.114350e+01
  -4.126114e+01   7.206360e-01
  -2.715714e+01  -5.271153e+01
   6.607736e+01  -1.837785e+01
   8.338022e+01   6.183561e+01
   1.942272e+00   6.301281e+00
  -4.021381e+01   1.050935e+01
   7.262384e+00   3.944336e+01
   1.137122e+01  -1.947969e+00
   8.408797e+01  -6.250637e+01
  -4.568655e+01  -3.687575e+01
  -3.585602e+00   7.684934e+00
  -6.480126e+01   6.516357e+00
   5.984574e+01  -2.659103e+01
   9.752191e+00  -1.208638e+00
   6.029893e+01  -3.827431e+01
  -1.603286e+01   3.233872e+01
   7.886015e+01   3.954104e+01
  -3.058266e+01   3.181300e+01
  -3.690220e+01  -6.647596e+01
  -3.488270e+01  -6.838542e+01
   1.588339e+01  -7.845531e+01
   1.727562e+01  -1.804914e+00
   3.349888e+01   6.302648e+01
  -2.497766e+01   2.606744e+01
  -4.936313e+00  -1.111995e+01
  -4.174857e+01  -2.254474e+01
   3.207888e+01   5.249066e+01
   9.943045e-01   3.111273e+01
  -5.790629e+00  -7.304686e+01
  -1.625629e+01  -1.536799e+01
  -4.722710e+01   7.174145e-01
   2.452233e+01  -3.373705e+01
  -4.928705e+00   1.675625e+01
  -2.786884e+00   1.944479e+01
  -4.520123e+01  -4.325476e+01
  -8.298112e+01  -5.568752e+01
  -4.111907e+01  -7.035155e+01
   4.233351e+00   1.872022e+01
   6.703129e+01   6.732916e+01
   2.632800e+01  -7.455254e+01
  -3.273820e+01   5.531774e+01
  -9.830672e+01  -2.126133e+01
   1.304220e+01  -2.956146e+01
   1.197824e+01  -4.223716e+01
   5.980502e+00   5.944852e+01
   1.747974e+01   7.537907e+01
   5.377833e+00   1.898798e+01
