
 $NMID
 id='ANONYMOUS ', fmtdat='(2E16.6)'
 volume=1.0
 tramp=1.0
 $END
   3.949975e+02   1.794417e+02
   1.275622e+02   3.277235e+02
  -1.305259e+02   1.719975e+02
  -1.968792e+02   3.969349e+01
  -5.156046e+01  -1.451667e+01
   7.588911e+01  -5.026229e+00
   3.586148e+01   1.067171e+02
  -4.773053e+00   9.299725e+01
  -1.075164e+02   2.340208e+01
  -1.208312e+02  -6.138332e+01
  -8.769353e+00  -9.602062e+01
   1.509421e+02  -1.025532e+02
   3.216948e+01  -1.433786e+00
   2.712441e+01   3.915309e+01
  -8.794101e+01   7.311963e+01
  -1.890995e+01  -4.813174e+01
   1.504791e+01  -8.165559e+01
   5.690744e+01  -1.261115e+01
  -1.174487e+01  -3.723878e+00
   2.894471e+01   1.650936e+01
  -3.125266e+01  -9.699840e+00
  -1.632360e+01   6.061359e+01
  -1.088035e+01   4.965419e+01
   2.037506e+01  -8.466467e+01
   1.984821e+01   3.396903e+01
   6.503704e+01   4.337069e+01
  -7.531634e+01   4.218812e+01
  -8.516340e+01  -7.232060e+00
   1.170836e+01  -7.409743e+01
   2.660706e+01  -2.911832e+01
   9.500606e+01   6.351255e+01
  -5.145187e+01   5.428850e+01
  -8.668465e+01   8.008768e+01
  -7.664341e+01   6.767806e-01
  -9.185095e+01  -5.124250e+01
  -4.855286e+01  -3.436820e+01
   2.978643e+01  -4.978695e+00
   4.676975e+01  -2.027907e+01
  -7.413331e+01   2.623540e+01
  -5.523086e+01  -3.051751e+01
  -1.940024e+01  -7.836145e+01
   8.468690e+01  -4.283846e+01
   2.507542e+01   4.397547e+01
  -3.962594e+01  -7.824549e+00
  -4.898632e+01   1.386256e+01
  -4.775084e+01  -6.064954e+01
   3.127556e+01   1.620551e+01
   7.921597e+01   5.872569e+00
  -5.079347e+00   2.393688e+01
  -1.845897e+01   8.516969e+01
  -5.996259e+01   7.963012e-01
  -4.691503e+01  -3.154565e+01
  -2.736017e+01  -4.859340e+01
  -1.614501e+01   1.983899e+01
   5.944894e+01   3.899261e+01
  -2.547485e+00   7.154283e+00
   2.619425e+01  -2.048993e+01
   1.797638e+01  -1.807534e+01
   7.008936e+01   2.933524e+01
   5.326546e+01   7.415377e+01
  -5.128372e+01   4.665391e+01
  -5.448659e+01   2.471872e+01
  -1.082328e+00  -6.115380e+01
   9.121027e+00   1.012667e+01
   3.162192e-03   4.171630e+00
   1.309601e+01   2.114127e+01
   1.743586e+01  -2.103346e+01
   8.793300e+00   9.109258e+01
   1.099439e+01   8.539653e+01
  -3.560472e+01  -3.689692e+01
   2.880081e+00  -1.532170e+01
  -2.270645e+01  -3.599505e+01
   9.470844e-01   1.920422e+01
  -1.074123e+02  -1.866819e+01
  -8.437044e+01   1.464879e+01
  -4.784340e+01  -2.205676e+01
   1.653938e+00  -4.330544e+01
   3.569941e+01   2.309500e+01
  -3.876143e+00   3.057506e+01
  -6.653493e+01   2.568687e+01
  -5.666376e+01   1.419317e+01
  -4.475097e+01  -3.111904e+00
  -6.265496e+01  -4.521774e+00
   4.916293e+01  -5.339848e+01
   4.160983e+01  -7.746263e+01
  -1.761461e+01  -2.196673e+01
   4.429426e+01  -4.339920e+01
  -2.855372e+01   1.996402e+01
   5.118257e+01   4.148330e+01
  -5.489415e+00   4.364803e+01
   9.207954e+00   1.831233e+01
  -6.379401e+01   9.379792e+01
  -1.002052e+02  -2.422889e+01
  -6.362401e+01  -4.857677e+01
  -3.398894e+01   1.599204e-01
   5.029512e+01  -1.326519e+01
  -2.810965e+01  -3.150635e+00
  -3.205262e+01   1.280665e+01
  -5.179589e+01  -4.032953e+00
   2.828670e+01  -3.222144e+01
  -2.076345e+00  -1.118128e+01
  -1.963133e+01  -1.565555e+01
   4.572395e+01   2.849478e+01
  -7.102535e+01   1.333709e+01
  -4.476547e+01   1.536232e+00
  -4.108957e+01  -4.190672e+00
   9.799567e+00   1.407334e+01
   2.384602e+01   1.983591e+01
   3.633573e+01  -1.495276e+01
   5.896536e+00   1.405517e+01
  -1.185064e+01   6.383782e+00
   2.478027e+00   1.686825e+01
   2.866084e+01  -6.321413e+01
   9.086695e+00  -1.684970e+01
  -2.044897e+01   8.501247e+00
  -2.220304e+01   7.036948e+01
   1.289558e+01   1.011111e-01
   4.603540e+00  -2.862757e+01
  -1.544703e+01  -1.715461e+01
  -1.547758e+01   7.104522e+01
  -5.315478e+01   1.976923e+01
  -2.253903e+01  -1.753709e+00
  -6.974930e+01  -5.280525e+01
   2.371364e+01  -2.990588e+01
   8.298335e+01   1.642308e+01
   4.020487e+01  -8.911979e+01
   1.648454e+01   2.781478e+01
  -2.251876e+01   3.447037e+01
  -7.894957e+00   3.195653e+01
   2.658339e+01   1.622257e+01
   9.953630e+00  -5.029488e+01
   5.121224e+01   1.193280e+01
  -2.015586e+01  -5.690958e+01
   2.613758e+01  -2.120201e+01
   3.493751e+01  -2.310078e+01
   1.805818e+01  -3.272903e+01
   1.526967e+01   7.139572e+00
  -5.211305e+01   3.707036e+01
  -3.266211e+01   3.629627e+01
   1.110787e+01   2.090881e+01
  -8.716642e+00  -2.899214e+00
   1.386089e+01  -1.086942e+02
   7.388780e+01   4.280090e+01
   2.984321e+01   8.001308e+01
  -7.156048e-01   2.373328e+01
   8.112521e-02  -1.153462e+01
   2.132789e+01  -4.044129e+01
  -6.104849e+01  -4.343800e+01
   4.560830e+01  -2.937496e+01
  -2.636446e+01  -3.682505e+00
  -2.526642e+01  -1.054813e+01
   3.006913e+01  -1.465532e+01
   2.401643e+01   1.336340e+01
   2.590542e+01  -5.556033e+01
   9.753017e+01   1.333577e+01
   1.872398e+01  -1.696236e+01
  -2.884950e+01   2.375937e+01
  -2.448167e+01   5.888387e+01
   1.777775e+01  -1.612432e+01
   5.800359e+01   5.392546e+00
   2.744979e+01   2.809117e+01
  -5.984625e+01   3.107634e+00
  -1.558346e+01   4.046712e+01
  -2.080444e+01  -3.647828e+01
   2.387852e+01  -1.813653e+01
   3.533342e+01  -5.234231e+01
  -7.789387e+00   8.766145e+00
   4.358901e+01  -7.691686e-01
  -5.154617e+00  -4.686209e-01
   2.127060e+01  -5.415298e+00
   2.017509e+01   2.949451e+01
  -1.257472e+01  -1.745510e+01
   4.621678e+01  -1.212992e+01
   7.274857e+01   1.605076e+01
   2.025342e+01   5.860574e+01
  -1.952347e+01   1.957430e+01
  -3.343801e+01   4.344169e+01
   5.562796e+00  -1.592849e+01
  -4.574254e+01  -9.923508e+00
  -2.850828e+01  -4.812413e+01
  -1.962221e+00  -1.046705e+01
  -1.815893e+01  -2.479771e+01
  -1.594033e+01  -5.172662e+01
  -3.960383e+01  -3.407738e+01
  -2.369817e-01   2.211671e+01
   4.251657e+01   7.678599e+01
  -3.164328e+01   1.001184e+01
  -1.038938e+02   1.149856e+01
  -3.880609e+01  -6.336003e+01
  -2.677862e+01  -4.112991e+01
   5.383666e+00  -2.369059e+01
  -7.631467e+01  -4.310696e-01
   3.888430e+01  -7.497850e+00
  -7.031380e+00   2.252385e+01
  -1.031316e+01  -3.544069e+01
  -5.487440e+00  -1.028471e+01
   5.846319e+01  -2.306574e+01
  -9.758923e+00   2.135139e+01
  -3.100062e+01  -3.125477e+01
  -3.924116e+01   5.843025e+01
  -1.899661e+01   6.863436e-01
  -2.719905e+01   2.006478e+01
  -1.192745e+01  -2.296256e+01
   3.230472e+01   3.142966e+01
  -3.768373e+01   2.452803e+01
   4.570654e+01  -5.962314e+00
   1.090218e+01   2.402088e+01
   1.369193e+01   7.542522e+01
   1.659674e+01   2.860645e+01
  -5.497080e+01   1.553288e+01
   9.890052e+00  -4.806561e+01
   6.484654e+01  -1.695273e+01
   3.697351e+01  -4.672243e+01
  -3.071097e+01   1.066836e+01
  -2.511202e+01  -2.378702e+01
   1.759264e+01  -3.612709e+01
  -1.688455e+01   3.937489e-01
  -1.565555e+01   1.320306e+01
   4.175361e+01   1.152063e+01
  -8.465887e+00   4.449535e+01
   1.515305e+01   3.501260e+01
   5.692462e-01   3.073947e+01
  -3.307281e+01  -1.492226e+01
  -1.199599e+01   2.469599e+01
   2.858384e+01  -7.833388e+00
   4.168788e+01   8.345119e+00
  -2.064872e+01   1.819092e+01
   4.305632e+01  -5.032108e+00
   3.447555e+01   9.456499e+00
   1.169137e+01  -1.436082e+01
   1.601446e+01  -1.840755e+01
   9.414542e+00  -2.462748e+01
   2.941964e+01   1.214058e+01
  -5.427031e+01  -1.483889e+01
  -1.787741e+01   4.109563e+01
   8.361249e+01   1.315609e+01
   3.335479e+00  -3.621991e+00
  -4.503047e+01   2.340336e+01
   2.648878e+01   5.293699e+01
  -2.499344e+01   3.044848e+01
   1.874482e+01   6.041154e+01
   5.924432e+01  -5.786020e+01
   1.002857e+02  -2.133714e+01
  -2.905508e+01  -1.169667e+01
   1.878831e+01  -2.880136e+01
  -3.097049e+01   3.787094e+01
  -1.574842e+01  -1.165868e+01
  -1.605217e+01  -1.934020e+01
  -4.012834e+01   2.620158e+01
   1.058960e+01  -6.610176e+00
   4.591151e+01   1.104270e+01
   3.873204e+00  -2.315925e+01
  -3.222143e+01   5.507163e+00
  -8.306209e-01  -4.503164e+01
   1.238552e+01   5.060798e+01
  -6.668294e+01   4.693392e+01
   1.360691e+01  -6.557740e+01
  -4.506041e+01  -2.101315e+01
  -5.777812e+01  -1.715440e+01
   4.432407e+01  -1.344830e+01
   4.191210e+01  -2.667539e+01
   2.379802e+01   4.356943e+01
   1.730274e+01   8.844809e+00
   5.114213e+01   7.790873e+01
  -3.364717e+01  -5.224166e+00
  -5.327439e+01  -4.904826e+01
   4.693631e+01  -3.587652e+01
   2.482760e+01   8.851933e+00
  -5.875993e+00   1.705629e+01
   3.313451e+01  -1.260098e+01
   1.157932e+01   3.669686e+01
   2.794375e+01  -8.114878e+00
   2.357563e+01  -1.582822e+01
  -2.083760e+01   7.382722e+01
  -7.152597e+00  -6.547173e+00
  -1.754439e+01   5.441817e+01
  -2.329264e+01  -2.922224e+00
   8.928174e+00   3.060545e+01
  -8.947099e+00   1.372534e+01
   1.507605e+01  -1.739949e+01
   2.036779e+01  -1.302600e+00
  -4.972106e+01   1.409331e+00
  -1.964006e+01  -1.696481e+01
   2.842320e+01  -2.048669e+00
   1.229068e+01  -5.483763e+01
  -3.923667e+01   7.801363e+01
   1.145975e+00  -9.786917e+00
  -1.805374e+01   3.844699e+01
   2.026869e+01  -3.373578e+01
  -4.194053e+01  -4.671108e+00
  -6.358730e+01  -4.514573e+00
   8.014080e+00   4.064116e+01
   2.094331e+01   1.708997e+01
  -4.284962e+01   4.371103e+01
   2.586708e+01   9.035875e+01
  -2.234319e+01  -2.281189e+01
   3.946403e+01  -3.442739e+00
  -1.861768e+01   5.374340e+01
  -2.220473e+01  -6.930965e+00
  -9.328574e-01   2.423117e+01
  -1.175953e+01   1.084284e+01
  -3.187877e+01   1.226274e+01
   1.541898e+01   3.327089e+01
   3.473672e+01   1.263858e+01
  -5.464615e+00  -2.427891e+01
  -4.773427e+01   1.283571e+00
   5.050376e+00  -1.896542e+01
   1.120481e+01  -3.709736e+00
  -7.723934e+00   7.215653e+01
  -3.364485e+01   5.310320e+01
  -4.236568e+00   2.019203e+01
  -2.061265e+01   2.317973e+01
   1.003138e+01  -5.799051e+01
   1.206495e+00  -1.745440e+01
   8.735323e+01  -4.020260e+01
  -3.012453e+01  -3.002404e+00
   3.499261e+01   2.195274e+01
   1.080507e+01   1.576063e+01
   6.271072e+01  -1.594060e+00
   1.436971e+01   4.594322e+00
