
 $NMID
 id='ANONYMOUS ', fmtdat='(2E16.6)'
 volume=1.0
 tramp=1.0
 $END
   1.540746e+03  -1.195856e+02
   1.140838e+03   7.845358e+02
   2.554239e+01   9.914065e+02
  -5.189619e+02   6.714275e+02
  -4.858483e+02   9.065785e+01
  -2.502584e+01  -1.690212e+02
   2.319572e+02   7.593845e+01
   1.097306e+02   2.401077e+02
  -2.120250e+02   3.091785e+02
  -3.134815e+02   1.206918e+02
  -2.389998e+02  -2.393152e+02
  -6.117281e+00  -4.040242e+02
   1.899748e+02  -1.221550e+02
   1.048240e+02   2.090189e+02
  -6.280820e+01   3.336027e+02
  -2.064885e+02   4.476669e+01
  -1.979879e+02  -2.872739e+02
   5.379824e+01  -3.251162e+02
   2.111462e+02  -1.301469e+02
   2.045279e+02   7.079352e+01
   8.794020e+01   1.939678e+02
  -6.788518e+01   1.178576e+02
  -4.649058e+01  -1.028898e+01
   5.905808e+01  -1.069353e+01
   1.414965e+02   7.758903e+01
   2.909925e+01   1.881977e+02
  -2.619695e+02   4.664743e+01
  -3.168266e+02   2.421669e+01
  -1.521859e+02  -1.173286e+02
   1.329593e+02  -1.168971e+02
   2.479763e+02   4.580456e+01
   8.904854e+01   1.874159e+02
  -1.451155e+02   1.379137e+02
  -2.089793e+02   1.160646e+02
  -1.495916e+02  -7.288175e+01
  -1.136530e+01  -1.569886e+02
   2.672787e+01  -1.500808e+02
  -7.563980e+00   3.428260e+01
  -7.775493e+01   1.000144e+02
  -1.104116e+02  -2.234826e+01
   9.914214e+00  -1.958170e+02
   1.151177e+02  -2.372957e+02
   1.561548e+02  -3.341155e+01
   1.329678e+02   8.570932e+01
  -4.471775e+01   1.126105e+02
  -1.055732e+02  -1.009020e+02
   1.034528e+01  -2.345753e+02
   2.247875e+02  -4.031962e+01
   2.182100e+02   1.958953e+02
   8.217228e+01   2.315178e+02
  -1.679795e+02   1.616784e+02
  -2.567259e+02   1.561099e+00
  -1.022570e+02  -1.014393e+02
   4.033466e+01  -1.601450e+02
   1.813916e+02  -4.582784e+01
   1.289245e+02   1.315635e+01
   3.636363e+01   1.337539e+01
  -4.315861e+01  -5.509605e-01
   2.256741e+01  -7.962853e+01
   8.527911e+01   1.153878e+01
   2.570150e+01   9.610485e+01
  -6.130824e+01   1.160875e+02
  -1.720838e+02   4.102333e+01
  -1.199485e+02  -4.250375e+01
   1.586486e+01  -2.232996e+02
   1.217888e+02  -2.061399e+02
   1.304110e+02  -8.993831e+01
   1.481995e+02   1.208791e+02
   2.576727e+01   1.962862e+02
   6.879398e+00   2.074422e+02
  -1.129202e+01   5.787619e+01
  -6.502890e+01   1.458378e+02
  -4.506243e+01   5.696958e+01
  -9.041306e+01   1.107288e+01
  -9.351624e+01  -5.212008e+01
  -3.890996e+01  -1.399384e+02
   3.771548e+01  -1.133768e+01
   7.397725e+01   3.094434e+01
   5.610182e+01   1.366466e+02
  -2.937306e+01   9.913026e+01
  -7.676249e+01   3.334818e+01
  -1.580480e+02  -6.481556e+01
  -1.160149e+02  -2.115410e+02
   5.314635e+01  -9.825956e+01
   7.020685e+01  -6.038201e+01
   8.105125e+01  -3.629411e+01
   1.049242e+02  -1.300717e+01
   1.787880e+02  -2.888445e+01
   2.350586e+02   7.848706e+01
   1.721527e+02   1.219532e+02
  -4.166157e+01   2.623601e+02
  -1.929050e+02   1.706346e+02
  -2.907584e+02   3.689693e+01
  -9.007400e+01  -1.518917e+01
  -6.323306e+01  -1.274250e+02
   4.163381e+01  -1.404764e+02
   4.431255e+01  -4.099752e+00
  -9.568093e+01   1.582304e+01
  -7.356767e+01   8.497441e+00
   1.172485e+01  -1.140131e+02
   8.493719e+01  -1.125091e+02
   1.077364e+02   3.985252e+01
   4.902767e+00   4.797539e+01
  -1.048280e+02   4.342207e+01
  -5.599830e+01  -1.602824e+02
   5.037068e+01  -1.720122e+02
   8.208487e+01  -9.668252e+01
   1.799885e+02   2.498092e+01
   1.586379e+02   1.485594e+02
   2.557331e+01   8.456207e+01
  -8.361079e+01   5.981791e+01
  -9.034761e+01   2.477541e+01
  -7.069036e+01  -6.824852e+00
  -2.043012e+01   2.938422e+01
   2.872809e+01  -4.234052e-01
  -2.411673e+01   6.365861e+01
  -3.146247e+01   2.115860e+01
  -3.340899e+01  -3.734416e+01
   3.095174e+01   7.503883e+00
   1.228187e+02   1.884981e+01
  -9.353951e+01   3.148324e+01
  -1.548554e+02  -1.952372e+01
  -1.308219e+02  -6.096739e+01
   5.249961e+01  -1.767101e+02
   1.045274e+02  -1.351416e+02
   1.013811e+02  -8.576881e+01
   5.281929e+01   4.266664e+01
   3.135446e+01   7.732907e+01
  -7.307709e+01  -8.088899e+00
   3.200233e+01  -2.583310e+01
   7.767597e+01   8.710195e+00
   9.163094e+01   7.310615e+01
   4.220397e+00   1.387916e+02
  -5.454220e+01   3.537684e+01
  -6.537503e+01  -6.179012e+01
  -1.844035e+01  -3.090522e+01
  -3.286782e+01  -3.018059e+01
   2.379122e+01   8.222243e+01
  -2.924852e+01   1.114336e+02
  -9.047657e+01   1.769279e+01
  -8.333299e+01   1.339257e+01
   1.783028e+01  -1.325985e+02
   7.310968e+01  -2.264625e+01
   7.435283e+01  -5.560746e+01
  -1.267590e+01   7.792272e+01
  -3.602098e+01   2.541367e+01
  -3.311478e+01  -6.308319e+00
  -2.112098e+01   8.728216e+00
   6.857901e+01  -1.521837e+01
  -4.975245e+01   6.784625e+01
  -5.529759e+01   6.334522e+01
   3.255373e+00  -1.116940e+01
  -7.864912e+00  -1.465990e+02
   6.586450e+01  -7.621475e+01
   1.448323e+02  -6.215482e+01
   9.976707e+01   8.972555e+01
   4.378233e+01   1.308218e+02
  -3.789750e+01   3.979420e+01
  -5.521304e+01   5.034013e+01
  -9.968317e+01  -3.757240e+01
   7.037968e+00  -2.734485e+01
  -2.837112e+01   1.364021e+00
  -4.446251e+01   8.855000e+00
  -3.494138e+01   1.195084e+01
  -2.716955e+01  -8.198536e+01
   2.932497e+01  -3.949417e+01
   2.255030e+01   4.714102e+01
   2.095183e+01   5.292733e+01
  -5.030799e+01   7.505625e+01
  -9.011501e+01  -2.229212e+01
  -6.343025e+01  -6.687142e+01
   4.475045e+01  -8.326478e+01
   8.203044e+01  -7.042734e+01
   4.292784e+01   1.091586e+02
   1.013792e+02   2.852414e+01
  -4.623984e+01   5.811995e+01
  -8.837869e+00   4.486652e+01
  -5.105839e+01   5.755527e+01
   1.907203e+01  -1.004240e+00
  -7.510092e+01   4.709341e+01
  -6.844380e+01  -6.667860e+01
  -6.717802e+01  -9.742538e+01
   2.078738e+01  -7.617638e+01
   5.330097e+01  -8.040957e+01
   6.610109e+01  -2.987611e+00
   7.536080e+01   5.359150e+01
   6.728091e+00   4.427582e+01
  -7.594508e+01   3.479151e+01
   3.083228e+01  -1.865570e+01
  -3.376398e+01   3.516279e+01
   1.419339e+01  -2.745773e+01
   2.180235e+01   1.982695e+00
  -9.630876e+01   2.700239e+01
  -1.143982e+01  -5.697800e+01
  -1.497910e+00  -3.707215e+01
   1.293950e+02  -3.981432e+01
   8.330286e+01   1.358735e+01
  -1.781991e+01   4.925843e+01
  -8.543697e+01  -2.124994e+00
  -7.058293e+00   1.255177e+01
   1.808856e+01   2.290131e+00
   6.331299e+01  -1.723194e+01
   8.525883e+01   4.130204e+01
  -3.825524e+01   3.396690e+00
  -1.426544e+01  -1.305656e+01
  -1.753995e+01   1.385302e+01
  -4.820011e+01   4.031576e+01
  -2.277448e+01  -2.485763e+01
  -8.514201e+01  -1.155703e+00
  -4.760850e+01  -1.369887e+01
   1.451108e+01  -3.905089e+01
   2.880603e+00  -2.695685e+01
   8.317833e+01  -8.145227e+01
   5.336954e+01  -6.980294e+00
   5.699158e+01   5.488321e+01
  -2.060945e+00   1.214059e+01
  -2.639235e+01   2.002426e+01
  -5.689089e+01   4.715700e+01
  -3.561425e+01  -1.548295e+01
   6.776678e+00   3.013415e+01
   2.405581e+01   4.171798e+01
  -1.094557e+02   1.187208e+02
  -1.401572e+02   1.139523e+02
  -4.705833e+01  -3.449778e+01
  -8.294379e+01  -3.655066e+01
   4.770176e+01   1.116814e+01
   5.358122e+01   3.588182e+01
  -8.070318e+01  -9.116905e+00
  -1.764671e+00  -3.571939e+01
  -2.232104e+01  -1.122333e+02
  -2.792364e+01  -3.770278e+01
   8.939636e+01  -5.024181e+01
   8.127129e+01   2.905099e+01
   8.193123e+00   6.065945e+01
  -4.053441e+01   1.158044e+02
   2.528438e-01  -2.276635e+01
  -1.195426e+01  -4.882279e+01
   4.058751e+01  -2.469334e+01
   5.689687e+01  -1.215374e+00
   2.750153e+01   3.029675e+01
  -4.053164e+01   9.425870e+00
  -3.115312e+01   2.156999e-01
   1.272483e+01   7.544460e+00
   2.208405e+01   3.203615e+01
   7.059704e+01   3.305137e+01
  -8.845435e+01  -9.937273e+00
  -7.008129e+01  -3.622061e+01
  -7.409992e+01  -4.206733e+01
  -4.438693e+01  -1.726661e+01
   4.235583e+01   9.925771e+00
   2.977727e+01  -3.300353e+01
   1.440117e+01   2.391925e+00
  -3.545530e+01   3.695408e+01
   2.729041e+00   2.003629e+01
  -1.208799e+01  -2.271125e+01
   1.684030e+01  -3.590028e+01
  -6.094478e+01  -1.577241e+01
  -1.389543e+01  -4.424058e+01
  -2.058521e+01  -1.313142e+01
  -9.901427e+00  -8.671391e+01
   6.233461e+01  -4.190546e+01
  -2.577203e+01  -2.505662e+01
   7.279288e+01   7.163303e+01
   3.159163e+01   1.155490e+02
  -6.317336e+01   1.072518e+01
  -4.185742e+01  -5.974946e+01
  -5.499477e+01   4.559786e+01
  -2.791347e+01   6.430085e+00
   1.425940e+00  -2.912163e+01
  -2.004103e+01  -4.695551e+01
  -2.136050e+01  -4.554077e+01
   2.210241e+01  -1.236494e+01
   3.798209e+01   4.634380e+01
   2.923538e+01   3.186187e+01
   1.125853e+01   6.883623e+01
  -6.573406e+01   4.948056e+01
  -4.476950e+01   2.905995e+01
   3.387018e+01  -1.009765e+02
  -1.499825e+01  -1.846004e+00
   4.800123e+01   1.276801e+01
   2.727936e+01   4.373955e+01
  -6.295668e+01   2.793663e+01
   4.836345e+01   5.741235e+00
   5.015239e+01   1.459610e+01
   4.499682e+01  -4.548914e+00
  -3.225386e+01   3.615054e+00
  -1.062081e+02   1.000231e+01
  -2.641004e+01   5.041828e+01
  -3.777961e+01  -1.231259e+01
  -6.514277e+01  -5.471137e+01
   3.707105e+01  -4.585643e+01
   8.091931e+01  -3.182130e+00
  -2.404954e+01  -2.373248e+00
   1.117068e+01   1.388049e+01
   8.595724e+00   3.477176e+01
  -1.223441e+01  -6.003730e+01
  -3.531282e+00   1.487396e+01
   3.071192e+01  -1.866137e+01
  -5.521195e+01   4.332561e+01
   7.286561e+00  -4.987107e+01
  -5.461015e+00  -1.665037e+01
   1.346946e+01   3.441517e+01
   1.614770e+01   5.222144e+01
   1.298326e+01   7.240654e+01
  -4.573147e+01   4.543789e+01
  -1.811251e+01  -4.495026e+01
  -2.605671e+00   2.832297e+01
  -1.238231e+01   1.305965e+01
   8.669605e+00   6.192107e+01
   3.656240e+01   3.195294e+01
  -2.777542e+00  -5.715880e+00
  -2.126435e+01  -2.378419e+00
  -2.444775e+01   1.719620e+00
   4.365312e+01  -3.802996e+01
   4.703001e+01  -7.629878e+00
  -1.153153e-01  -7.326917e+01
   3.688702e+01   5.944035e+00
  -6.142588e+01  -4.056840e+01
  -1.757919e+01   7.038636e+01
   1.712528e+01  -2.761215e+01
