
 $NMID
 id='ANONYMOUS ', fmtdat='(2E16.6)'
 volume=1.0
 tramp=1.0
 $END
  -3.260171e+03  -4.309269e+01
  -1.854164e+03  -2.019387e+03
   6.779510e+02  -2.026190e+03
   1.582304e+03  -5.830215e+02
   6.406419e+02   6.132870e+02
  -5.524608e+02   4.199377e+02
  -7.200790e+02  -4.446525e+02
   1.684471e+01  -8.070947e+02
   7.175905e+02  -5.420868e+02
   6.681179e+02   1.375138e+02
   2.762330e+02   6.656176e+02
  -2.045749e+02   6.392406e+02
  -5.034430e+02   3.642136e+01
  -2.927446e+02  -6.269816e+02
   1.532017e+02  -5.666958e+02
   4.928217e+02   5.249465e+01
   1.639178e+02   5.127313e+02
  -2.919061e+02   3.946410e+02
  -4.130846e+02   4.688036e+01
  -2.543709e+02  -2.611584e+02
   1.444172e+01  -3.754546e+02
   2.269830e+02  -1.631652e+02
   1.428934e+02   3.474831e+01
  -9.552496e+01   1.392172e+02
  -3.506430e+02  -1.004527e+02
  -1.470415e+02  -3.516443e+02
   3.025615e+02  -3.570952e+02
   6.339935e+02   8.054323e+01
   3.514585e+02   4.220999e+02
  -2.987621e+02   3.779824e+02
  -5.744273e+02   9.253718e+00
  -2.881694e+02  -3.634851e+02
   2.144829e+02  -3.513357e+02
   4.210225e+02  -1.269840e+02
   3.247623e+02   2.052454e+02
   3.160558e+01   3.563256e+02
  -1.898518e+02   2.544197e+02
  -1.420530e+02  -2.266043e+02
   1.253429e+02  -3.516060e+02
   3.680898e+02  -6.087177e-01
   1.501213e+02   5.805180e+02
  -1.772286e+02   5.148335e+02
  -4.811211e+02  -5.935269e+01
  -2.136037e+02  -4.196239e+02
   2.383225e+02  -2.167850e+02
   3.262737e+02   2.791262e+02
  -4.893705e+01   4.548998e+02
  -4.574664e+02   1.119178e+02
  -4.166072e+02  -3.381617e+02
  -1.064288e+02  -4.075299e+02
   3.549761e+02  -2.723038e+02
   4.190895e+02   6.282293e+01
   2.367960e+02   3.338084e+02
  -1.390794e+02   2.687171e+02
  -3.667231e+02   5.290739e+01
  -1.500015e+02  -1.273669e+02
   1.127868e+02  -8.208225e+01
   1.016959e+02   1.330747e+02
  -1.370319e+02   1.786339e+02
  -2.927994e+02  -6.462873e+01
  -3.178702e+01  -2.353194e+02
   1.425019e+02  -1.909746e+02
   2.649071e+02  -3.499985e+01
   1.758907e+02   9.125936e+01
  -3.584955e+01   1.571353e+02
  -1.451227e+02   1.660605e+02
  -2.124140e+02   2.140384e+02
  -2.485672e+02  -1.664060e+02
  -2.684818e+01  -2.995815e+02
   1.318963e+02  -3.301571e+02
   1.050686e+02  -1.711301e+02
   6.165569e+01   1.282778e+01
   1.734854e+01  -4.452624e+01
   1.859613e+02  -1.707216e+02
   1.751839e+02   1.082938e+01
   1.974109e+02   2.319111e+02
  -9.413902e+00   2.155480e+02
  -1.796170e+02   2.223808e+01
  -1.407102e+02  -2.117918e+02
   3.857532e+01  -2.483115e+02
   1.987432e+02  -1.598741e+02
   2.843547e+02   1.437122e+02
   1.744747e+02   2.736313e+02
  -1.159806e+02   1.997481e+02
  -2.220411e+02   6.762161e+01
  -1.041792e+02   1.248030e+01
  -8.187972e+01   2.565140e+01
  -1.018186e+02   8.391157e+01
  -2.658375e+02  -1.238703e+02
  -2.146632e+02  -2.265735e+02
   1.487790e+01  -3.163671e+02
   2.319540e+02  -3.228023e+02
   2.889512e+02  -1.093972e+02
   2.646968e+02   9.763185e+01
   4.048610e+01   2.318525e+02
  -2.700160e+01   2.440362e+02
  -6.360642e+01   2.989777e+01
   1.081043e+02  -1.396512e+02
   1.399300e+02  -3.354046e+01
   7.135155e+01   1.288082e+02
  -1.932833e+02   1.017128e+02
  -1.518213e+02  -4.977732e+01
   3.270773e+00  -1.866492e+02
   1.125345e+02  -1.146427e+01
   8.725390e+01   2.025840e+02
   1.712856e+01   2.189409e+02
  -1.913648e+02   1.507849e+02
  -2.507573e+02  -5.030135e+01
  -2.396584e+02  -1.649272e+02
  -9.659721e+01  -2.866988e+02
   7.688395e+01  -2.017912e+02
   1.340010e+02  -4.505968e+01
   1.671111e+01   5.305177e+01
  -2.769452e+01  -3.943925e+01
   2.021910e+00  -7.219875e+01
   1.396813e+02  -1.243518e+02
   1.893451e+02   3.433138e+01
  -5.267677e+00   2.580060e+01
  -5.864675e+01   5.555898e+01
  -3.363803e+01  -2.856154e+01
   1.401900e+02  -5.231787e+01
   2.190098e+02   2.113223e+01
   2.140725e+02   1.087590e+02
   1.038178e+02   1.862003e+02
  -1.160666e+02   1.962080e+02
  -2.171109e+02   1.342715e+02
  -1.568930e+02  -2.754840e+01
   1.173065e+01  -7.986604e+01
   1.163450e+02  -1.552969e+01
  -1.739748e+01   6.899182e+01
  -1.395625e+02   5.220863e+01
  -9.572443e+01  -1.110223e+02
  -7.827079e+01  -1.636129e+02
   3.829939e+01  -1.353902e+02
   2.012444e+02  -3.233870e+01
   7.980974e+01   6.462619e+01
  -2.381885e+01   6.372788e+00
  -2.996487e+01  -9.744318e+01
   4.332162e+01  -1.241638e+02
   1.427483e+02  -6.504033e+01
   1.228886e+02   5.374036e+01
   2.828404e+01   9.271323e+01
  -3.595252e+01   1.123199e+02
  -1.007145e+02   3.689762e+01
  -2.254608e+01  -5.384690e+01
   9.939316e+01  -6.069813e+01
   7.292399e+00  -1.767256e+01
   1.376385e+01  -2.229320e+01
   9.352224e+00  -1.132405e+01
   5.973144e+01  -2.926494e+01
   7.631624e+01   4.417075e+00
   3.096147e+01  -1.514724e+01
   3.761551e+01   1.530008e+02
  -5.466282e+01   8.670211e+01
  -1.426360e+02  -2.672638e+01
  -1.355949e+02  -9.197910e+01
  -9.983135e+01  -1.467679e+02
   1.335978e+02  -2.634080e+01
   1.184439e+02  -5.345641e+01
   3.271235e+01   6.356313e+01
   6.320970e+01   2.189273e+01
   3.596020e+01  -1.573556e+00
   6.887544e+01   1.148325e+01
   1.540880e+01   2.771864e+01
  -4.310034e+01   4.197766e+00
  -7.049920e+01   6.607727e+01
  -8.066303e+01  -8.121178e+01
   2.869715e+01  -9.375105e+01
   1.158801e+02  -5.441964e+01
   1.381460e+02   6.183700e+01
   1.234251e+02   1.427816e+02
  -7.966607e+01   1.343411e+02
  -1.678796e+02   7.924385e+01
  -2.138054e+02   3.393069e+01
  -1.064538e+02  -9.517431e+01
  -1.122198e+00  -1.149340e+02
   8.003627e+01  -5.988776e+01
   2.832635e+01   1.565069e+01
   3.669851e+01  -5.486909e+01
   1.437788e+00  -9.477256e+01
   3.458938e+01   2.662648e+01
   1.073103e+02   7.601518e+01
   6.412611e+01   1.857529e+02
  -3.237859e+01   1.130272e+02
  -7.672728e+01   4.005390e+01
  -6.334450e+01  -4.020182e+01
  -1.596846e+01  -9.579535e+01
   6.696951e+01  -8.581997e+01
   4.007244e+01  -1.927255e-01
   5.040882e+01   7.006075e+01
  -2.607471e+01   6.102302e+00
  -1.766043e+00  -1.737117e+01
   8.842742e+01   1.174497e+01
   7.279608e+01  -1.188777e+00
  -3.528620e+01   2.450680e+01
  -1.034918e+02  -1.406236e+01
  -1.603907e+02  -3.971738e+01
  -2.418190e+01  -7.857260e+01
   6.067553e+01  -3.733448e+01
   9.246269e+01  -4.667086e+01
   5.917858e+01  -4.853771e+01
  -8.832078e+01   5.309248e+01
  -1.160853e+02   5.219936e-01
  -4.937970e+01  -4.824403e+01
   6.584509e+01  -6.131612e+01
   3.901646e+01  -1.719977e+01
   7.555632e+01   3.680982e+01
   3.295885e+01  -1.771666e+01
   4.159193e+01   2.124395e+01
   4.318577e+00  -2.089538e+01
   6.303869e+01   1.532858e+01
  -8.346019e+01   1.047505e+02
  -8.161601e+01   1.078414e+02
  -1.492327e+02  -9.883493e+00
  -1.554228e+02  -7.114374e+01
  -2.566556e+01  -1.032025e+02
   7.755968e+01  -2.550971e+01
   3.463370e+01   2.611218e+01
  -5.259899e+01   4.420557e+01
  -7.784006e+01  -2.850179e+01
  -2.257488e+01  -9.821403e+01
   3.287413e+01  -1.167412e+02
   1.672007e+02  -7.300435e+01
   1.876010e+02   2.543193e+01
   4.299282e+01   2.813419e+01
  -9.624872e+01   4.016550e+01
  -9.004248e+01   2.625644e+01
   7.622464e+00   2.690932e+01
   1.063760e+02  -1.359855e+01
   3.742044e+01   8.914203e+01
  -8.267567e+01   1.197529e+02
  -1.291973e+02  -2.477047e+01
  -9.415847e+01  -5.490717e+01
   3.444164e-01  -1.131222e+02
   6.407527e+01  -7.902168e+01
   7.471970e+01  -1.448748e+01
   4.063934e+01   9.810771e+01
  -1.572391e+01   7.694205e+01
   4.700506e+01   3.154915e+01
  -2.521882e+01  -2.458784e+00
  -1.096676e+01  -2.180836e+01
  -2.644741e+01  -1.536198e+00
  -4.470085e+01  -5.119595e+01
  -4.850202e+01  -8.614399e+01
  -4.750503e+01  -7.943718e+01
   2.487475e+00  -2.286192e+01
   1.441289e+02   4.056895e+01
   1.094316e+02   1.145856e+02
  -2.374136e+00   2.339315e+01
  -1.137709e+02  -4.224488e+01
  -1.324092e+02   6.993761e+01
   4.401772e+00  -8.571866e+01
   7.248805e+01   4.664410e+01
   3.177579e+01  -5.050068e+01
  -4.789744e+01  -2.708664e+01
   3.791613e+01  -4.478636e+01
   1.554785e+01   1.734102e+01
   8.944266e+01   5.262093e+01
  -8.240011e+00   1.050376e+02
  -7.199246e+01   6.797688e+01
  -1.495477e+02  -3.180548e+01
  -9.194371e+01  -4.702458e+01
  -7.399313e+01  -1.547513e+02
   1.334180e+01  -1.012761e+02
   7.719097e+01  -3.306386e+01
   7.812278e+01   4.266927e+00
   2.291190e+01   4.039602e+00
  -1.065661e+01   3.063202e+01
  -3.041418e+01   5.894294e+01
  -3.911179e+01   4.678354e+01
   4.307393e+01   6.819692e+01
  -5.711181e+01   3.236404e+01
  -4.349987e+01   1.589864e+00
  -3.204793e+01  -5.904648e+01
  -1.426390e+01  -4.587581e+01
   8.455260e+01  -5.846452e+01
   3.270504e+01   4.094081e+01
   4.546809e+01   3.524656e+01
  -5.851551e+01   4.303405e+01
  -8.444342e+01  -1.170038e+01
  -4.375796e+01  -8.567485e+01
   6.149809e+00  -7.738480e+01
   3.311086e+01  -1.873734e+01
  -6.437065e+01  -2.623319e+01
  -6.324886e+01   3.967049e+01
   1.760653e+01  -3.775082e+01
   4.693516e+01  -5.765018e+01
   1.547740e+01  -2.904544e+00
   6.202357e+01   4.241788e+01
  -1.643222e+01   6.095435e+01
  -3.953490e+01  -3.387353e+01
   4.763304e+00   6.343641e+01
   3.586818e+01  -8.781056e+00
   9.783585e+00  -1.850654e+01
   3.417130e+01  -2.562932e+01
  -8.860481e+01   4.305112e+01
   8.532469e+00   9.003424e+01
   2.150886e+01  -3.093981e+01
  -1.088154e+02   1.971978e+01
  -9.265589e+00   8.599931e+00
   1.996153e+01  -1.871123e+01
  -1.961805e+01  -4.575485e+01
   1.563621e+01  -5.943086e+01
   7.247161e+00  -5.348946e+01
   5.269732e+01   1.448077e+00
   3.764811e+01  -7.470639e+00
  -3.505216e+01   7.756198e+00
  -1.047656e+02   2.366329e+01
  -4.232546e+01  -4.792730e+01
   6.087243e+01  -5.800533e+01
  -7.278194e+00   4.395224e+01
   6.765517e+01   9.068916e+00
   9.390750e+01   7.549339e+00
  -6.612844e+01   3.695175e-01
  -5.957019e+01   7.142944e+00
   1.507991e+01  -1.005345e+01
   1.213562e+01   1.994434e+01
   5.168103e+00   1.354681e+01
  -3.177189e+01  -4.522648e+00
  -1.760525e+02   3.078150e+01
