
 $NMID
 id='ANONYMOUS ', fmtdat='(2E16.6)'
 volume=1.0
 tramp=1.0
 $END
  -1.095298e+03  -1.251275e+02
  -6.101102e+02  -6.073461e+02
   1.308023e+02  -6.216537e+02
   4.216393e+02  -3.318206e+02
   2.473828e+02   2.495409e+01
   1.402426e+01   4.265631e+01
  -1.087861e+02  -6.475901e+01
  -9.906737e+00  -1.721647e+02
   1.953106e+02  -2.049741e+02
   2.623338e+02   7.703728e+00
   1.042381e+02   1.574196e+02
   2.931925e+01   2.135413e+02
  -1.195809e+02  -3.144187e+00
  -9.340690e+00  -1.640769e+02
   8.061493e+01  -1.570363e+02
   1.315229e+02   1.237288e+01
   4.981597e+01   2.150375e+02
  -4.472851e+01   1.789424e+02
  -1.640734e+02   3.036055e+01
  -6.342557e+01  -5.149828e+01
  -3.060314e+01  -9.248703e+01
   4.337699e+01  -1.127343e+02
  -2.611580e+01  -8.043015e-01
  -1.056227e+02  -1.066477e+02
  -5.367274e+01  -1.135800e+02
   7.538979e+00  -1.357912e+02
   1.704121e+02  -4.569049e+01
   2.148235e+02   5.599169e+01
   4.219482e+01   1.528608e+02
  -1.750897e+02   6.723379e+01
  -1.744799e+02  -4.990881e+01
   8.117277e+00  -2.211070e+02
   1.427279e+02  -1.464348e+02
   2.200638e+02  -5.548651e+01
   8.251786e+01   2.490161e-01
   4.464327e+01   1.590642e+02
   1.334859e+01   3.181255e+01
   6.419055e+01   4.114070e+01
   6.009947e+01  -5.811486e+01
   8.504292e+01   5.004743e+01
  -1.065549e+02   1.268160e+02
  -6.439050e+01   1.258891e+02
  -1.026397e+02  -6.433771e+01
  -1.830199e+01  -1.077017e+02
   5.332252e+01  -5.948117e+01
   9.415506e+01   1.295514e+02
  -2.527684e+01   1.762478e+02
  -1.955172e+02   5.481316e+00
  -9.439290e+01  -1.529624e+02
  -8.042810e+01  -1.237422e+02
   1.465192e+02  -7.833676e+01
   1.376445e+02   6.594893e+01
   1.318917e+02   1.514548e+02
  -6.405154e+00   9.081584e+01
  -4.369401e+01  -1.666124e+01
  -8.683457e+01  -1.539925e+01
  -4.199489e+01   1.097446e+01
   6.315039e+00  -3.647505e+01
  -2.558685e+01   3.519382e+01
  -1.315914e+02   5.729444e+01
  -4.676191e+01  -2.606037e+01
   7.481538e+01  -6.156375e+01
   1.511090e+02   2.107230e+01
   7.448550e+01  -2.726682e+00
  -2.527992e+01   6.731209e+01
  -1.560983e+02   1.331782e+02
  -1.553090e+02  -1.566120e+01
  -3.523876e+01   2.073449e+01
   8.612695e+00  -1.319710e+02
   5.180382e+01  -1.292063e+02
   3.307701e+01  -3.497979e+01
   1.412287e+01   4.904728e+01
   7.698958e+01  -4.809347e+01
   1.158646e+02   3.457396e+01
   1.016793e+02   3.437806e+01
   4.452126e+01   1.069000e+02
   7.565306e+00   3.531119e+01
  -1.773872e+01  -3.653102e+01
  -2.078366e+01  -8.222028e+01
   6.865470e+01  -6.680433e+01
   5.213464e+01   9.304082e+00
   1.010949e+02   3.027520e+01
   3.421256e+01   9.160082e+01
  -6.957122e+01   7.256231e+01
  -3.138717e+01   2.439041e+01
  -9.578651e+01  -1.214723e+01
  -6.220344e+01   5.132052e+01
  -3.098422e+01  -2.877609e+01
  -1.033370e+02  -3.642059e+01
  -7.970925e+01  -1.243385e+02
  -1.616778e+00  -1.581502e+02
   8.589441e+01  -1.299587e+02
   1.463470e+02  -6.220656e+01
   1.379633e+02   5.112045e+01
  -6.584168e+00   1.508942e+02
  -8.799509e+00   2.118125e+01
  -2.976660e+01  -2.017055e+00
   7.039734e+01  -2.350096e+01
   3.331282e+01  -9.985982e+00
   3.413505e-01   3.879064e+00
  -8.993582e+01  -4.784814e+00
  -2.037287e+01  -2.381882e+01
  -8.954538e-01  -3.369179e+01
   8.212861e+01   4.912101e+01
   4.928836e+01   1.541068e+02
   5.194028e+00   2.175107e+02
  -3.092309e+01   5.301211e+01
  -1.399172e+02  -5.768297e+01
  -8.025938e+01  -1.003503e+02
  -3.132517e+01  -7.114569e+01
   2.941254e+01  -4.792108e+01
   4.915447e+01  -1.873670e+01
  -2.242031e+01   3.681990e+01
  -1.331451e+01  -4.591445e+01
   5.319124e+01   7.936672e+00
   3.103165e+01   1.465626e+01
   2.794095e+01  -1.947843e+01
  -6.082714e+01  -1.394748e+01
  -2.016756e+01  -5.587635e+01
   3.098768e+01  -2.344414e+01
   3.806522e+01  -3.837189e+01
   1.147674e+02   6.085738e+01
   1.180336e+02   3.729457e+01
  -6.464574e+00   1.154135e+02
  -2.975653e+01   5.997627e+01
  -8.859894e+01   4.878551e+01
  -4.585229e+01  -3.485660e+01
  -1.843957e+01  -3.572724e+01
   1.435973e+01   2.561357e+01
  -4.945904e+01   8.489408e+00
  -6.254825e+01  -7.020008e+01
  -8.852025e+01  -1.461562e+01
   2.664821e+01  -6.219888e+01
   3.006678e+01  -3.648095e+01
   6.609185e+01  -4.885422e+00
  -1.510240e+01   3.418428e+01
  -3.364800e+01  -2.868573e+01
  -2.037597e+01  -3.159052e+01
   5.663244e+00   9.248354e-01
   6.035998e+01  -1.168878e+01
   3.737668e+01   2.470457e+01
   1.397964e+01   1.098975e+02
  -1.156673e+02   1.403200e+01
  -4.415457e+01  -4.679435e+01
  -4.562279e+00  -5.923592e+01
   4.760948e+01  -3.187654e+01
  -4.037710e+01  -3.191856e+01
  -2.540524e+01  -1.681180e+01
  -3.913256e+00   3.234433e+01
  -8.751562e+00   1.927229e+01
   2.343299e+01   4.109024e+01
   4.127374e+01   3.188883e+01
   2.885253e+00   8.183025e+01
  -9.438116e+00   5.936814e+01
  -9.047550e+01  -1.516347e+01
  -5.463844e-01  -5.055636e+01
   1.548876e+01  -8.911610e+01
   6.730539e+01  -7.460053e+01
  -9.625143e+00  -3.461132e+01
   4.867668e+01   3.129287e+01
   2.444666e+01  -1.002650e+01
   2.259104e+01  -2.133217e+01
   2.233269e+00   1.275584e+01
   4.419442e+01   6.785318e+01
   2.530219e+00   2.343037e+01
   1.594069e+01   1.061735e+02
  -1.628882e+01  -3.499948e+00
  -1.197354e+01  -5.870688e+01
   1.081307e+01  -2.866498e+01
   6.535849e+01   1.402814e+01
  -4.707745e+01   5.787265e+01
  -5.546495e+01   6.725218e+01
  -6.747942e+01   6.779021e+00
  -1.154916e+02  -4.235039e+01
  -5.239135e+01  -1.743798e+01
   7.488116e+01  -7.861256e+01
  -3.661241e+00  -5.092454e+00
   6.042825e+01  -1.206790e+01
   1.052102e+02  -8.340918e+01
   7.224858e+01  -7.953056e+01
   2.010418e+01   2.552773e+01
   2.147265e+00   6.165791e+01
  -2.984202e+00   1.470674e+02
  -3.270739e+01   4.664948e+01
  -5.853590e+01  -3.446295e+01
  -2.790275e+01  -2.215395e+01
   9.044030e+01  -5.294308e+01
   5.961963e+01  -1.263425e+01
   4.256006e+01  -4.008469e+01
  -2.474343e+00   5.584279e+01
   6.861974e+00  -5.660483e+01
  -1.214921e+01   6.906680e+01
   6.126546e+01   3.654060e+01
   2.690404e+01   3.848048e+01
   1.582974e+00  -9.649374e+00
  -6.523057e+01  -3.970821e+01
  -3.007805e+01  -6.801394e+01
   1.459469e+01   1.500618e+01
   6.550609e+01   5.976037e+01
  -5.461850e+00  -4.212400e+01
   4.686095e+01  -3.316261e+01
  -3.466669e+01   5.240802e+01
  -2.870428e+01   2.963613e+01
  -1.404153e+01  -3.859049e+01
  -3.650476e+01  -1.715447e+01
   6.765485e+01   1.768107e+01
  -1.844349e+01  -3.949938e+00
   1.172000e+01   2.693133e+01
  -1.568583e+01  -1.732110e+01
   5.321426e+01   5.343033e+01
  -4.529350e+00  -5.244405e+01
  -6.030115e+01   7.869134e+01
  -3.849289e+01   3.658264e+01
  -2.053611e+01  -1.023584e+01
  -6.084521e+01  -1.714412e+01
   4.711531e+01  -5.613595e+01
  -9.113223e+00  -1.052943e+00
   1.093607e+01   3.706238e+01
   1.041624e+01   5.564953e+01
  -8.537896e+01  -5.124016e+01
  -3.073171e+01  -5.556657e+01
   1.374046e+01   8.621440e+00
   8.793732e+01  -1.047128e+01
   8.246246e+01   6.168161e+01
   4.163744e+01   2.945669e+01
  -8.078660e+01  -6.863725e+01
  -5.850087e+01  -4.623124e+01
   7.658052e+01  -3.114128e+01
   6.137532e+01  -1.698538e+01
   5.830455e+01  -3.647322e+00
  -4.739437e+01  -1.458832e+01
  -6.132877e+01  -3.577535e+01
  -4.659575e+01  -1.143200e+02
  -8.391791e+00  -1.100794e+02
  -8.415584e+00  -3.587625e+01
   6.450632e+01  -4.757391e+01
  -2.132005e+01   5.448422e+00
  -5.090426e+01   1.589586e+01
   3.652307e+01  -9.308501e-01
  -2.014553e+01  -5.680693e+01
  -1.058959e+01   3.196155e+01
  -1.166581e+01  -2.593082e+00
  -1.335482e+01  -4.297802e+00
  -2.141132e+01  -5.559338e+00
   1.094168e+01  -4.120426e+01
   1.337870e+01  -3.690169e+01
   8.144525e+01   8.475470e+01
   6.906897e+01   5.799962e+01
   2.583025e+01   3.875948e+01
  -4.791633e+01   5.953434e+00
  -3.013808e+01   4.593849e+01
  -3.808103e+01   2.920241e+01
   1.117042e+02   3.062183e+01
  -1.559099e+01  -8.916007e+00
   8.340793e+01  -1.272396e+00
   4.945322e+01  -4.073064e+01
   1.870415e+01   8.170265e+00
   2.887779e+01   1.592378e+01
   2.402911e+01  -1.885369e+01
   1.641164e+01   2.537220e+01
  -3.367026e+01   3.396577e+01
  -6.978181e+01   4.734636e+00
   2.098728e+01  -1.925675e+01
  -4.129797e+01  -9.025133e+01
   2.422374e+01  -1.413629e+01
   7.647874e+01   3.148295e+01
   5.710749e+01   3.967694e+01
  -4.587817e+01  -5.088556e+01
   2.182512e+01  -5.430518e+01
  -1.530580e+01   1.532427e+01
   3.712300e+01   3.839067e+01
   4.807802e+00   5.067635e+01
  -4.390696e+01  -6.429068e+00
   1.999471e+01  -1.597409e+01
   7.157650e+01  -6.996608e+01
   3.415228e+01  -3.041089e+01
   3.130441e+01   3.830958e+01
  -5.959155e+00   7.250219e+01
  -1.309294e+01   5.186623e+01
   3.447355e+01   1.554206e+01
  -1.723775e+01  -4.100927e+01
  -7.651364e+00  -4.799557e+01
   3.373448e+01   1.412415e+01
   7.245436e+00  -6.163013e+01
  -5.725298e+01   5.067691e+01
   2.555188e+01   4.050726e+01
   3.932678e+01  -4.427611e+01
   5.844812e+01  -1.352398e+01
  -5.474207e+00  -5.039708e+01
  -5.321403e+00   2.624276e+01
   2.788585e+01   5.997671e+01
   1.866764e+01   7.724213e+00
  -7.980957e+01  -9.073760e+00
  -3.576491e-01   7.175440e+00
   2.054461e+01  -2.582804e-01
  -2.703781e+01   1.029007e+01
   5.853261e+01  -5.655015e+00
  -5.933874e+00  -3.879081e+01
  -2.509286e+01   2.602317e+01
  -7.608986e+00   8.303242e-02
  -3.088280e+01   1.268341e+01
  -9.055476e+00   6.203942e+01
   4.378818e+01  -1.878252e+01
  -4.181412e+01   9.103481e+00
   2.313430e+01  -6.952872e+00
  -1.361132e+01  -3.263937e+01
  -2.367588e+01  -2.468454e+00
  -2.161315e+01  -2.467276e+00
  -3.437417e+00  -6.465920e+01
   1.210954e+01  -4.364248e+01
   2.527049e+00  -3.362040e+00
   5.805572e+00   7.515274e+00
   4.798341e+00   3.699220e+01
  -4.912013e+01   3.712971e+01
   2.553159e+01   1.905459e+01
  -1.184414e+01   1.073472e+01
   8.058477e+00  -4.137015e+01
  -8.471428e+00   1.007895e+01
   3.309635e+01  -8.255133e+00
  -3.337657e+00  -3.141358e+01
