
 $NMID
 id='ANONYMOUS ', fmtdat='(2E16.6)'
 volume=1.0
 tramp=1.0
 $END
  -3.026371e+03  -1.299991e+02
  -1.966366e+03  -1.567458e+03
   1.381082e+01  -1.874610e+03
   1.099172e+03  -1.117992e+03
   8.692244e+02  -2.028835e+02
  -1.404240e+00   2.307429e+02
  -3.083149e+02  -1.224142e+02
  -2.170107e+01  -5.266654e+02
   4.302056e+02  -5.042447e+02
   6.461461e+02   5.766714e-01
   4.259863e+02   4.691302e+02
  -5.545362e+01   5.672709e+02
  -3.114336e+02   1.629996e+02
  -2.196045e+02  -3.836616e+02
   1.716338e+02  -5.204609e+02
   4.069954e+02  -1.232364e+02
   2.260528e+02   4.181819e+02
  -1.438181e+02   5.058096e+02
  -4.006828e+02   2.398272e+02
  -4.427495e+02  -1.949601e+02
  -1.371035e+02  -2.707489e+02
   1.211040e+02  -2.232429e+02
   5.798352e+01  -7.859189e+01
  -1.816351e+02  -8.807517e+01
  -2.699006e+02  -2.920268e+02
  -8.267026e+00  -3.884430e+02
   4.477914e+02  -1.794525e+02
   6.645641e+02   2.089950e+02
   2.455620e+02   3.916563e+02
  -3.311666e+02   1.635550e+02
  -4.460204e+02  -1.712700e+02
  -1.894191e+02  -3.697531e+02
   2.550868e+02  -2.788557e+02
   4.053081e+02  -1.576098e+02
   3.286168e+02   2.264813e+02
   3.067708e+01   3.174220e+02
  -3.369747e+01   1.640827e+02
   5.323564e+01  -5.436757e+01
   1.506851e+02  -9.443135e+01
   1.715283e+02   1.136196e+02
  -1.827653e+01   4.866195e+02
  -2.664807e+02   4.190475e+02
  -3.109013e+02  -1.801002e+01
  -1.178380e+02  -3.291751e+02
   1.532443e+02  -1.477059e+02
   1.347034e+02   2.973725e+02
  -6.632169e+01   3.480082e+02
  -4.132861e+02   7.862759e+01
  -4.419343e+02  -3.355632e+02
  -1.557890e+02  -4.620324e+02
   2.192251e+02  -2.412449e+02
   4.655646e+02   8.462046e+01
   2.601579e+02   2.802725e+02
  -6.239370e+01   2.190656e+02
  -2.998953e+02   7.115029e+01
  -2.039196e+02  -8.384760e+01
  -1.597551e+01   5.086726e+00
   2.769829e+01   1.441701e+02
  -1.170767e+02   3.288463e+01
  -2.317110e+02  -2.588931e+01
  -7.423092e+01  -1.610925e+02
   1.698298e+02  -2.154412e+02
   4.105900e+02  -1.089203e+02
   2.661654e+02   8.694460e+01
  -1.879226e+01   2.896318e+02
  -2.917057e+02   3.599274e+02
  -3.237629e+02   8.603110e+01
  -2.373652e+02  -1.432533e+02
  -6.012732e+01  -3.702542e+02
   2.625248e+01  -3.027802e+02
  -3.109327e+01  -1.399376e+02
  -2.677558e+01  -1.105140e+02
   9.735076e+01  -1.005681e+02
   2.334620e+02  -8.455789e+01
   2.018213e+02   1.158541e+02
   8.234461e+01   1.948661e+02
  -1.336955e+02   1.358736e+02
  -2.316471e+02  -5.301538e+01
  -1.066123e+02  -2.670118e+02
   6.342855e+01  -2.245493e+02
   2.327286e+02  -1.340811e+01
   2.741306e+02   1.190979e+02
   1.436719e+02   2.979052e+02
  -9.408866e+01   1.868316e+02
  -1.319843e+02   1.726978e+02
  -1.617388e+02   4.095229e+01
  -1.411096e+02   9.955025e+00
  -2.927783e+02   3.447759e+00
  -3.807983e+02  -6.845891e+01
  -2.562529e+02  -3.028629e+02
   6.331836e+01  -3.883544e+02
   3.758160e+02  -3.845047e+02
   4.444365e+02  -1.130942e+02
   2.159583e+02   1.453400e+02
  -1.901020e+01   2.151510e+02
  -9.063801e+01   1.431626e+02
  -1.396509e+01   6.922521e+01
   1.414789e+02  -6.785811e+01
   1.382663e+02   4.248910e+01
   1.108963e+02   8.674541e+01
  -1.146091e+02   1.146304e+02
  -1.168330e+02  -2.827355e+01
   2.893961e+01  -1.662845e+02
   1.513210e+02   8.204441e-01
   1.140510e+02   2.399930e+02
  -3.421551e+01   2.711712e+02
  -2.232992e+02   1.626876e+02
  -3.257144e+02  -5.915438e+01
  -2.810882e+02  -2.835688e+02
  -7.118193e+01  -3.046211e+02
   1.149614e+02  -1.366193e+02
   1.613139e+02  -6.237748e+01
   6.550074e+01  -3.368036e+00
  -6.513646e+01  -8.852110e+01
   1.542413e+01  -7.354747e+01
   1.008619e+02  -6.766469e+01
   1.902842e+02   7.641782e+01
   6.967708e-01   4.944366e+01
  -8.086740e+01   3.330690e-01
  -2.754890e+01  -1.028016e+02
   1.735502e+02  -1.131159e+02
   2.144532e+02   4.591489e+01
   1.869369e+02   1.495008e+02
   5.529479e+01   2.968986e+02
  -2.132883e+02   2.501907e+02
  -2.425476e+02   4.335183e+01
  -1.049062e+02  -8.447810e+01
   5.374400e+01  -8.540653e+01
   1.874376e+01   3.516484e+00
  -9.280820e+01   5.874027e+01
  -1.377348e+02   6.135076e+00
  -1.815389e+02  -1.343701e+02
  -4.535576e+01  -1.930710e+02
   1.029882e+02  -1.615846e+02
   6.826322e+01   2.057476e+01
   4.969012e+01   2.923313e+01
  -7.593893e+01  -7.454791e+01
  -7.802897e+01  -1.000764e+02
   5.587196e+01  -1.367894e+02
   2.426689e+02   7.545721e+01
   1.646268e+02   1.195628e+02
  -1.321173e+01   2.102411e+02
  -1.279806e+02   8.289993e+01
  -1.671469e+02   7.148807e-01
  -3.266791e+01  -6.801267e+01
   2.433798e+01  -1.446910e+02
   1.253209e+02  -6.127238e+01
  -1.285127e+01   3.249294e+00
  -7.154708e+01   4.343446e+01
  -1.245568e+01  -5.561095e+01
   7.043441e+01   1.348290e+01
   7.886187e+01   5.006387e+01
  -1.658234e+01   1.264956e+02
  -1.527151e+02   1.256448e+02
  -2.694614e+02  -5.804684e+01
  -1.812248e+02  -2.002215e+02
  -2.732131e+01  -1.661720e+02
   7.366655e+01  -1.751343e+02
   1.517386e+02  -8.607002e+00
   7.604125e+01   6.299105e+01
   8.974700e-01   3.476581e+01
   6.017496e+01  -2.227078e+01
   7.347635e+01  -5.187532e+01
   2.974225e+01   1.407445e+02
  -2.968352e+01   8.065869e+01
  -1.608519e+02   7.233167e+01
  -4.099010e+01  -5.254528e+01
  -1.732877e+00  -1.124758e+02
   1.917050e+02  -1.504117e+02
   2.024718e+02   5.473306e+01
   3.026804e+01   2.220913e+02
  -1.494036e+02   2.048982e+02
  -2.566160e+02   6.727068e+01
  -2.354033e+02  -6.603663e+01
  -1.280283e+02  -2.086667e+02
   4.400274e+01  -2.124038e+02
   1.249073e+02  -4.871691e+01
   1.044576e+02  -8.645005e+01
   2.542513e+01  -6.356827e+01
   1.328353e+02  -5.382956e+01
   1.302906e+02   8.816373e+00
   8.163948e+01   1.672008e+02
   5.798036e+01   2.683753e+02
  -7.068296e+01   1.621371e+02
  -1.393900e+02  -4.527525e+01
  -1.028854e+02  -9.883415e+01
  -3.064176e+01  -1.112581e+02
   6.054519e+01  -3.278780e+01
   7.254843e+01   2.425870e+01
  -2.771687e+01   4.016654e+01
  -2.036323e+01   5.684848e+01
   4.251871e+01   4.057047e+01
   1.004606e+02   1.261570e+01
   4.504281e+00   2.858306e+01
  -7.215302e+01   6.118842e+01
  -1.423362e+02  -2.089205e+01
  -1.487733e+02  -1.134562e+02
  -2.498576e+01  -1.362710e+02
   8.843665e+01  -3.735408e+01
   1.500806e+02   6.197261e+01
   2.693795e+01   6.871086e+01
  -8.772977e+00   5.355269e+01
  -7.461709e+01  -4.452611e+01
  -2.233401e+00  -1.111249e+02
   2.165043e+01  -1.209063e+02
   1.633670e+01   2.145968e+01
   3.812395e+01   7.852195e+01
   3.340779e+01   9.370496e+01
   1.361638e+01   4.667471e+01
   4.686600e+01   1.378024e+01
  -7.782916e-02   9.897605e+01
  -4.275392e+01   1.768380e+02
  -1.805418e+02   1.421029e+02
  -1.752047e+02   4.337427e+01
  -9.065528e+01  -1.029681e+02
   4.135711e+01  -4.839928e+01
   1.131221e+02  -1.128524e+02
   9.796484e+01   4.001206e+01
  -3.505357e+01  -8.729337e+00
  -1.414728e+02   1.241204e+01
  -7.420691e+01  -1.327508e+01
   1.085578e+02  -1.410176e+02
   1.581043e+02   1.473703e+01
   1.788625e+02   8.430421e+01
  -6.825418e+00   8.863138e+01
  -4.588823e+01   3.431175e+01
  -3.575082e+01   3.436039e+01
   1.180612e+00  -6.348824e+01
   8.381890e+01   5.589745e+01
  -2.403219e+01   1.294462e+02
  -6.639292e+01   1.299812e+02
  -1.462959e+02   8.076109e+01
  -8.705251e+01  -9.566188e+01
  -1.575415e+01  -1.807414e+02
   1.162887e+02  -1.339028e+02
   6.295017e+01   2.320796e+01
  -1.889388e+01   1.245892e+02
   2.246250e+01   1.123459e+02
  -7.804711e+01  -1.327195e+01
  -7.497970e+01  -3.171245e+01
  -2.468884e+01  -4.210904e+01
  -5.234369e+00   8.228022e+00
   2.178739e+01  -5.625411e+00
  -3.850592e+00  -4.072634e+01
   1.660050e+01  -7.634510e+01
   5.977294e+01  -4.084029e+01
   8.796801e+01   4.423460e+01
   1.290465e+02   9.365917e+01
   1.980940e+01   3.586324e+01
  -6.524977e+01   1.403691e+01
  -9.811174e+01  -3.810950e+01
   1.094971e+01   1.525282e+01
  -2.023217e+01   2.104260e+01
   2.383154e+01  -3.686037e+01
  -7.743231e+00   2.659871e+01
   2.026298e+00  -1.677123e+01
   1.111518e+02   6.372200e+00
   1.021971e+02  -2.352326e+01
   2.913195e+01   1.023886e+02
  -8.027214e+01   8.894887e+01
  -1.727135e+02   6.139401e+01
  -1.365385e+02  -7.442757e+01
  -5.311815e+01  -1.389181e+02
   6.192655e+01  -1.491837e+02
   3.771583e+01  -1.160799e+02
   6.092656e+01   6.425121e+01
   9.904509e+01   6.513986e+01
   3.804318e+00   2.167202e+01
   4.881648e+01  -3.626642e+01
   7.502899e+01   4.909015e+00
  -2.411720e+01   6.023244e+01
  -8.446018e+01   4.642951e+01
  -1.058979e+02  -6.780056e+01
  -7.765511e+01  -5.487795e+01
  -3.428129e+01  -1.144042e+02
   1.036136e+02  -1.260685e+01
   1.003936e+02   4.880680e+01
   5.359544e+01   9.917915e+01
  -3.733199e+01   7.647541e+01
  -9.088792e+01   6.786230e+01
  -4.736795e+01  -6.066939e+01
   2.315470e+01  -7.898218e+01
   5.903115e+01   2.278766e+01
  -7.564755e+01  -1.502982e+01
  -6.376098e+01   5.059550e+00
   2.717001e+00  -3.242287e+01
   9.307394e+01  -1.220778e+01
   1.024129e+02  -2.114440e+01
   5.610601e+01  -4.168755e+01
   5.027762e+01   9.014296e+01
  -1.122432e+02   6.760527e+01
  -3.648871e+01   1.836340e+01
   1.812905e+01  -4.750443e+01
   5.485536e+01  -8.535836e+01
  -4.036382e+01   4.464762e+01
   2.260824e+01   5.233823e+01
   3.827418e+00   5.785320e+01
   4.178673e+00   4.268636e+00
  -2.108325e+01   1.898256e+01
   1.989442e+01  -1.379813e+01
  -1.504062e+00  -6.137004e+00
  -4.112176e+01   3.232764e+01
   3.828358e+01  -2.685185e+00
  -1.462363e+01  -5.080342e+01
   1.217024e+02   5.829405e+01
   9.026765e+01   5.728457e+01
   1.882842e+01   1.023442e+02
  -3.404821e+01   4.182406e+01
  -1.103647e+02  -4.764467e+01
  -5.711268e+01  -5.431306e+01
   1.031636e+01  -3.428202e+01
   7.503027e+01  -7.095896e+00
   9.911694e+01   3.021243e+01
  -7.289672e+01   5.448951e+01
  -6.615206e+01   1.108196e+01
  -2.552560e+01  -2.553606e+01
   2.069852e+01  -5.973245e+00
   6.562768e+01  -2.962533e+01
  -1.149557e+01   3.261173e+01
  -4.117965e+01  -1.722628e+01
