
 $NMID
 id='ANONYMOUS ', fmtdat='(2E16.6)'
 volume=1.0
 tramp=1.0
 $END
   4.634454e+02  -6.949574e+01
   3.701403e+02   6.991198e+01
   1.459555e+02   2.779401e+02
  -8.119964e+01   3.353466e+02
  -2.269383e+02   1.742757e+02
  -1.340119e+02   2.222401e+01
  -8.373397e+00  -8.572250e+01
   7.681376e+01   3.286504e+01
  -3.312858e+01   1.226111e+02
  -6.913924e+01   8.636916e+01
  -8.871647e+01  -4.185323e+00
   3.551897e+01  -5.133906e+01
  -4.157331e+00   1.762426e+01
   5.715850e+01  -1.360057e+01
  -1.005980e+01   5.700081e+01
  -6.197002e+01   1.860788e+00
  -4.179784e+01  -8.996277e+01
  -6.923487e+01  -9.607296e+01
   5.658731e+01  -7.169672e+01
   7.906337e+01  -8.501414e+01
   7.955213e+01   8.266303e+01
   3.228662e+01   8.768726e+00
   9.003925e+00   5.180438e+01
   5.928007e+01   3.473879e-01
   1.142919e+00   5.997747e+01
  -6.647157e+01   1.982911e+01
  -5.781899e+01  -4.191159e+01
  -1.178709e+02  -5.202044e+01
  -1.563030e+01   1.568709e+01
   1.935650e+01  -9.571884e+00
   4.468205e+01   1.413207e+01
   6.048506e+01   3.730005e+01
   3.899680e+00   6.291506e+01
  -9.512496e+01   3.472957e+01
  -3.733111e+01  -3.640527e+01
  -2.990279e+01  -3.903631e+01
  -3.030552e+01  -6.542683e+01
  -2.650634e+01   4.832919e+00
  -1.048323e+01  -2.391179e+01
   2.075723e+01  -5.195215e+01
  -3.009969e+01  -9.817858e+00
   1.106407e+01  -5.180856e+01
  -3.872366e+01  -5.585493e+01
   4.177579e+01  -1.075778e+00
   4.516651e+01  -3.375993e+01
  -8.431591e+00  -6.519955e+01
  -1.706908e+00  -5.523339e+01
   2.830458e+01  -1.139615e+01
   6.495380e+01   2.341349e+01
   2.988731e+01   7.045480e+01
   4.993831e+00   6.004547e+01
  -1.329056e+02  -2.164636e+01
  -3.733902e+01  -6.502572e+00
  -2.912564e+01  -8.294298e+00
   2.693367e+01  -2.455694e+01
  -8.625746e+00  -3.362126e+01
  -4.806300e+01   1.849672e+01
   6.310221e-01   1.661135e+01
   7.894041e+00  -4.390794e+01
   4.777045e+01   8.311972e+01
  -1.109467e+01   4.969779e+01
  -6.206586e+01  -1.701610e+01
  -7.698822e+01   1.346426e+01
  -9.561328e+00  -7.281136e+01
  -7.754567e+00  -6.161433e+00
   2.333634e+01  -1.028269e+02
   3.559160e+01   5.984248e+01
   3.888294e+00   5.053475e+00
  -3.375709e+01   4.636086e+01
   1.039625e+01   8.094430e+01
   1.712214e+00  -3.713131e+00
  -8.189566e+01   3.306110e+01
  -8.028470e+01   5.515035e+01
   1.878390e+01  -3.523159e+00
  -1.596466e+01  -8.120864e+01
   3.438358e+01  -4.591858e+01
  -1.104923e+01  -3.374333e+01
   3.669081e+01   9.705496e+01
   1.718434e+01  -1.822542e+01
   4.159285e+01   1.610894e+01
   4.473460e-01  -6.266197e+00
  -6.805336e+01  -8.107832e+01
  -4.637364e+01  -4.912088e+01
  -5.780392e+00  -2.943273e+01
   2.426141e+01  -4.154753e+01
   8.821720e+01   4.417110e+01
   1.913701e+01   1.438917e+01
   4.821659e+00   6.857826e+00
   5.100536e+01   6.639487e+01
   5.048452e+01  -9.175776e+00
   2.640877e+00   9.401019e+01
  -7.852806e+01   8.059514e+01
  -8.636827e+01   3.893413e+01
  -3.221862e+01   5.751935e+00
   2.797207e+01  -1.403564e+00
   4.084191e+00  -3.389168e+01
  -5.041706e+01   1.347828e+00
   3.123423e+00  -5.232384e+01
  -8.192765e+00   1.021174e+01
  -2.228898e+01  -5.724231e+01
   5.283608e+01   2.353949e+01
   6.894701e+01   1.358156e+01
   6.688190e+01   4.286554e+01
  -2.039863e+01  -1.569252e+01
  -1.046318e+02  -5.093940e+01
   4.013321e+01  -6.925670e+01
  -5.249456e+00  -9.166595e+00
   8.716855e+01   2.367308e+00
   5.440202e+01   5.052877e+01
  -3.002654e+01   2.735753e+01
  -4.345834e+01   7.410540e+01
  -1.534476e+00   3.733786e+01
   4.963139e+01  -6.281970e+01
  -4.637414e+00   9.184645e+01
  -6.942981e+00   1.479251e+00
  -5.558401e+01  -6.224569e+00
   9.367093e+00   5.136841e+01
  -3.546654e+01  -4.412844e+01
  -4.286675e+01   3.166078e+01
   7.450631e+00   1.488841e+01
   7.206902e+00   3.468497e+01
  -7.643048e+01   3.798726e+01
  -2.893505e+01  -9.132261e+00
   1.070679e+01  -3.035261e+01
   9.150558e+01  -1.064802e+01
   2.868391e+01  -6.697454e+01
   6.752214e+01  -5.621868e+01
   9.847783e+00  -2.619369e+00
   1.747502e+01  -4.494203e+01
  -5.462883e+01   3.508403e+01
   3.831044e-01   2.353771e+01
   1.644451e+01   2.288922e+01
  -1.228115e+01   3.514620e+01
  -1.734376e+01  -7.020220e+00
   6.062655e+00   3.983609e+01
  -5.861125e-01  -3.167014e+00
   1.049995e+01   2.214739e+01
  -3.382978e+01   2.583871e+01
  -1.946032e+01   1.393388e+01
  -4.305143e+01  -5.882163e+01
  -6.705706e+01  -4.729323e+01
   1.708277e+01  -8.155436e+01
  -6.324568e+00  -5.198822e+01
   6.200356e+01   6.080721e+01
   2.913212e+00   4.129723e+01
  -4.217702e+01   1.163662e+01
  -5.140699e+01  -3.982004e+01
   4.159929e+01   4.363246e+01
   6.213745e+01   1.148662e+01
   4.242631e+00   1.969272e-01
  -1.593690e+01   1.489352e+01
  -1.416901e+01  -2.274743e+01
   2.067475e+01  -4.107041e+01
   7.273871e+01  -3.446406e+01
   2.131647e+01   4.204629e+01
   3.032418e+01   3.810299e+01
  -6.569088e+00   1.362762e+01
  -3.769839e+01   9.765914e+00
  -4.905334e+01  -3.121068e+00
  -7.267062e+01  -4.295013e+01
  -4.706670e+01  -3.850291e+01
  -6.858379e+00   5.973909e+01
   3.273615e+01   1.984266e+01
  -2.607392e+01  -3.393183e+01
   3.579218e+01   5.426344e+00
   2.807277e+01  -8.715149e+00
  -9.693993e+00   2.731613e+01
  -6.553779e+01  -8.620305e+00
  -3.096458e+01  -2.253421e+01
  -1.885469e+01  -5.348827e+01
  -7.678650e+00  -6.494832e+01
   2.233194e+00  -4.049344e+01
   2.392012e+01   1.924489e+01
   2.972487e+01   1.967726e+00
   7.570851e+01   1.322136e+00
  -1.905659e+01   3.265598e+01
   1.449881e+01   2.444537e+01
   3.739916e-01   2.985699e+01
  -1.797787e+01   2.082693e+01
  -1.775461e+01  -1.609453e+00
  -4.326207e+01   2.586684e+01
   4.266693e+01  -5.391326e+00
   3.725420e+00  -2.582357e+01
  -2.066462e+01   9.326450e-02
   1.725900e+01   7.452075e+01
  -4.074178e+01   5.205975e+01
  -3.606461e+01   4.508741e+01
  -3.893257e+01   3.592854e+01
   3.173768e+01  -2.264172e+01
  -1.217785e+00   5.434153e+01
   1.398441e+01  -6.720226e+00
  -2.276502e+01  -2.742355e+01
   1.978300e+01   1.498649e-01
   1.818131e+01  -5.594810e+00
  -2.010143e+01  -1.703804e+01
   8.732293e+01   5.881761e+01
   9.364879e+01   8.684211e+00
  -5.515748e-01   7.121424e+01
  -5.505017e+01   9.769841e+01
  -7.808959e+01   6.134352e-01
   4.594660e+01  -1.069784e+00
   1.467563e+01  -4.497011e+00
   2.274708e+01  -1.575036e+01
   2.077036e+01   3.325294e+00
  -2.601088e+01   1.353614e+01
  -3.146070e+01  -5.692555e+00
   1.865171e+01   3.278447e+01
   1.351332e+01   3.275055e+01
   1.762391e+01   4.334924e-02
  -9.807593e+00  -5.116813e+00
   3.093417e+01  -1.872911e+01
  -7.480829e+00  -5.918338e+01
   5.034846e+01  -8.007430e+00
   2.688179e+01   2.300917e+01
   5.501885e+01   4.328149e+00
  -1.635042e+01   5.655201e+01
  -3.436470e+01  -1.784219e+01
  -2.785883e+01  -2.057096e+01
   5.381341e-01  -3.420421e+01
   3.735540e+01   9.089565e+00
  -4.649848e+00   7.087330e+00
   3.474430e+00   9.467759e+00
  -2.110099e+01   2.480422e+01
  -1.226606e+01   1.094565e+01
   2.485607e+01  -6.668361e+01
  -2.425006e+01  -2.640141e+01
   4.224217e+01   5.227033e+01
   3.215370e-01   1.064525e+01
  -2.022231e+01   1.619979e+01
  -1.125479e+00  -1.041127e+01
   6.691687e+00  -2.101141e+01
   5.173571e+00   2.713216e+01
   6.423947e+01   3.954923e+00
  -1.754690e+01   3.483355e+01
  -1.796403e+01   5.783115e+01
  -8.288233e+00  -3.979495e+01
   1.665422e+01   1.277322e+01
   1.605475e+01  -1.298244e+01
  -7.059542e+00   2.220972e+01
  -3.430803e+01  -5.011427e+01
  -1.710951e+01   1.807920e+01
  -3.010486e+01  -3.231975e+00
  -3.326441e+01  -2.201640e+01
  -5.418400e+01  -2.070808e+01
   4.711076e+01   7.628269e+01
   2.910446e+01   3.753234e+01
  -7.697388e+01   6.069066e-01
   6.983493e+00  -5.482490e+01
  -2.696202e+01  -1.489432e+01
  -3.828290e+01   6.909422e+00
   1.693535e+01  -1.074336e+01
  -1.557246e+01   1.659087e+01
  -2.344487e+01  -2.551294e+01
   2.831702e+01   3.879656e+01
  -4.422503e+01  -5.684318e+01
  -3.119494e+01   2.593424e+01
   3.510406e+01  -4.096717e+01
  -5.277259e+01   1.140952e+01
   1.149166e+01   4.239163e+01
   4.039950e+01  -5.222611e+01
   5.051887e+01  -2.570443e+01
   2.893391e+01   3.692851e+01
  -1.872311e+01   1.994400e+01
   2.227904e+01   2.213266e+01
  -5.599605e+01   3.467288e+00
  -1.970067e+01   1.751681e+01
  -8.584398e+01   4.425256e+01
   4.422491e+01   2.198212e+01
   1.136561e+01   4.219075e+01
   1.962811e+01  -5.913623e+01
   4.600358e+01  -2.246739e+01
   3.980550e+01  -1.834239e+01
   2.750810e+00   7.611585e+01
   3.032194e+01   2.703003e+01
  -1.122159e+01   2.638888e+01
  -4.641105e+01   2.769222e+01
  -2.031722e+01  -3.986372e+01
   4.329545e+00  -1.968162e+01
   1.234471e+01  -6.469799e+00
  -3.418027e+00   2.465847e+01
  -2.203088e+01  -2.548307e+01
   1.416577e+01  -4.934953e+01
   9.584889e+00  -2.250211e+00
   7.656731e+00   2.665418e+00
   7.169447e+01   5.258542e+01
  -8.862747e+00  -1.655652e+00
  -1.202390e+00   1.649112e+01
  -6.558368e+01  -2.095769e+01
   3.526067e+00  -5.029926e+01
  -1.459827e+00  -5.451235e+01
  -1.327244e+01  -3.838755e+00
   3.097392e+01  -4.392748e+00
  -5.848350e+01   5.433662e+01
   3.658732e+00   1.141992e+01
  -6.083028e+00   1.604886e+01
  -6.823056e+00  -1.382627e+01
  -1.495336e+01   3.191344e+01
   2.270070e+01   3.737007e+01
   2.937729e+01  -4.016790e+01
   5.320782e+01  -1.064185e+01
   1.847391e+01  -1.201703e+01
   5.596375e+00   2.280177e+01
   4.952616e+00   7.922714e-01
  -9.311196e+00   2.955401e+01
  -3.120932e+01   4.568056e+00
   2.862035e+01  -2.396281e+01
  -2.297367e+01   3.223483e+01
   3.918656e+01   4.266713e+01
   1.762543e+01   8.014241e+00
   1.762334e+00   9.558203e+00
  -3.836209e+01  -3.654693e+01
   1.860609e+01  -4.351299e+01
  -4.754167e+00  -3.355539e+01
  -3.423579e+01   2.929271e+01
   3.202067e-01  -1.290691e+01
   4.932166e+01   2.742700e+01
   4.467606e+01  -1.987862e+01
  -2.588998e-01   4.469300e+01
   3.608854e+01  -1.163588e+01
   3.476641e+01  -2.116334e+01
