
 $NMID
 id='ANONYMOUS ', fmtdat='(2E16.6)'
 volume=1.0
 tramp=1.0
 $END
   4.047934e+03   1.397551e+00
   2.297624e+03   2.392200e+03
  -6.523508e+02   2.590759e+03
  -1.983516e+03   9.870380e+02
  -9.402716e+02  -6.183542e+02
   6.226973e+02  -5.558439e+02
   8.029244e+02   3.663835e+02
  -4.891747e+01   1.030606e+03
  -7.484226e+02   7.654838e+02
  -8.772778e+02  -9.625640e+01
  -4.005537e+02  -8.100716e+02
   2.572087e+02  -8.758408e+02
   5.889835e+02  -9.708536e+01
   2.827744e+02   5.900865e+02
  -1.961812e+02   6.879719e+02
  -5.372923e+02  -3.494282e+01
  -2.363130e+02  -6.120748e+02
   3.311439e+02  -6.194181e+02
   5.497924e+02  -1.008781e+02
   3.523754e+02   3.637246e+02
   5.334691e+01   3.980524e+02
  -2.445491e+02   2.236552e+02
  -1.772908e+02   1.346848e+00
   1.363835e+02  -7.450982e+01
   3.203467e+02   1.578232e+02
   1.719418e+02   4.446044e+02
  -4.153355e+02   3.346960e+02
  -7.605762e+02  -5.039435e+01
  -3.400929e+02  -4.640822e+02
   3.259421e+02  -4.151724e+02
   6.700768e+02   6.022582e+01
   2.762175e+02   4.469098e+02
  -2.253008e+02   4.322802e+02
  -5.372366e+02   2.316172e+02
  -3.651570e+02  -2.026581e+02
  -4.164907e+01  -3.963515e+02
   1.341866e+02  -3.188519e+02
   1.556634e+02   1.764513e+02
  -1.155337e+02   4.970529e+02
  -3.844670e+02  -4.063573e+01
  -1.837642e+02  -5.940581e+02
   3.298787e+02  -6.644682e+02
   5.548849e+02   3.270561e+01
   2.242636e+02   4.115433e+02
  -2.989858e+02   3.057005e+02
  -3.936148e+02  -3.417781e+02
   1.072753e+02  -4.959596e+02
   4.463579e+02  -1.361023e+02
   5.379461e+02   3.806858e+02
   1.594502e+02   5.878146e+02
  -3.523936e+02   2.907686e+02
  -6.074135e+02  -3.753233e+01
  -3.700124e+02  -3.974406e+02
   1.344697e+02  -3.558274e+02
   3.600402e+02  -7.071106e+01
   2.317150e+02   1.488398e+02
  -8.474886e+01   8.965896e+01
  -1.081377e+02  -1.789285e+02
   1.463123e+02  -1.781814e+02
   3.297926e+02   9.849993e+01
   1.446154e+02   2.725380e+02
  -1.959927e+02   2.889871e+02
  -3.006722e+02   3.260771e+01
  -1.530763e+02  -1.339876e+02
   6.198080e+01  -2.248051e+02
   2.103618e+02  -2.504358e+02
   3.538866e+02  -2.038401e+02
   2.938541e+02   1.448619e+02
   6.079255e+01   3.895682e+02
  -1.260467e+02   3.614700e+02
  -7.717556e+01   8.950937e+01
  -1.070420e+01  -9.598960e+00
  -8.142822e+01   5.801638e+01
  -1.848710e+02   1.639160e+02
  -2.331209e+02  -7.874842e+01
  -8.136644e+01  -2.840733e+02
   4.071432e+01  -2.200972e+02
   2.359291e+02  -2.728558e+00
   2.011169e+02   2.880059e+02
  -5.775649e+00   2.687154e+02
  -2.305067e+02   9.827523e+01
  -3.294522e+02  -1.039684e+02
  -1.827753e+02  -3.314153e+02
   4.794431e+01  -2.827153e+02
   2.070738e+02  -7.061562e+01
   1.214546e+02  -2.787629e+01
   1.267906e+02  -6.047471e+01
   2.274454e+02  -7.571480e+01
   3.308402e+02   2.303267e+01
   2.718654e+02   2.659953e+02
   3.667185e+01   4.730040e+02
  -3.753055e+02   3.563416e+02
  -4.355738e+02   1.523002e+02
  -3.358884e+02  -6.269683e+01
  -7.587980e+01  -3.167115e+02
   7.030989e+01  -2.446135e+02
   1.188046e+02  -6.189549e+01
  -1.163110e+02   1.073478e+02
  -1.385955e+02   4.567219e+00
  -2.228745e+01  -2.072355e+02
   1.522498e+02  -1.654855e+02
   1.611862e+02   9.800390e+01
   5.403591e+00   1.135751e+02
  -2.066666e+02   1.548228e+01
  -1.234097e+02  -2.166360e+02
   3.451944e+01  -3.111193e+02
   2.719485e+02  -1.792962e+02
   3.060208e+02   1.150466e+02
   2.650779e+02   2.313663e+02
   9.467562e+01   2.880578e+02
  -6.505853e+01   1.318623e+02
  -1.428435e+02   8.408495e+00
  -1.170058e+02  -1.205061e+01
   7.044306e+01   1.390910e+01
  -7.052085e+00   1.635582e+02
  -1.113900e+02   8.549808e+01
  -9.833827e+01   3.507527e+00
  -2.475653e+01  -9.610430e+01
   9.412744e+01   1.263421e+01
   2.511429e+01   4.559243e+01
  -1.233374e+02   9.803885e+01
  -2.460216e+02  -4.067539e+01
  -2.560997e+02  -1.382206e+02
  -5.546398e+01  -2.751268e+02
   1.880328e+02  -2.443350e+02
   2.219301e+02  -1.490132e+02
   1.467697e+02   4.908629e+01
   2.164932e+01   1.346143e+02
  -6.569320e+01  -8.430173e+00
   6.161266e+01  -1.240814e+02
   1.956448e+02  -4.995685e+01
   1.620347e+02   1.199881e+02
   7.401074e+01   1.883928e+02
  -1.055868e+02   1.569689e+02
  -1.671901e+02   1.704909e+01
  -1.540934e+02  -2.919932e+01
   2.481696e+01   4.875688e+01
   1.623537e+01   5.063080e+01
  -8.750314e+01   7.930291e+01
  -1.697156e+02  -3.022956e+01
  -1.988347e+02  -2.020441e+02
  -4.681869e+01  -2.226523e+02
   1.529482e+02  -1.854099e+02
   2.146247e+02   5.610874e+00
   6.669200e+01   9.382628e+01
  -5.072792e+01   6.575737e+01
  -1.029082e+02   3.229160e+01
  -2.801955e+01  -3.039790e+01
   1.053366e+02  -4.500853e+00
  -3.823845e+01   3.034216e+01
  -3.784250e+01  -3.010784e+01
  -5.437081e+01  -6.982467e+01
  -2.190275e+01  -1.440238e+02
   9.601148e+01  -1.500857e+02
   2.146591e+02  -2.422910e+01
   2.186143e+02   1.318833e+02
   3.062839e+01   2.226888e+02
  -6.259459e+01   1.540595e+02
  -1.015627e+02  -3.955604e+00
  -1.070972e+02  -3.077097e+01
  -2.457689e+01  -4.392462e+01
  -4.123728e+01   3.873304e+01
  -1.180406e+02  -1.142575e+01
  -3.937417e+01  -9.214154e+00
   4.737180e+01  -4.329994e+01
   1.181839e+02  -8.872203e+01
   4.310073e+01   7.389699e+01
   9.922081e+00   1.039254e+02
  -1.419758e+02   7.446922e+01
  -1.526574e+02  -2.460312e+01
  -4.961145e+01  -2.553125e+02
   9.185837e+01  -1.530360e+02
   1.717219e+02  -8.644937e+01
   2.723516e+02   8.173263e+01
   9.336328e+01   2.185857e+02
  -1.543291e+01   1.476516e+02
  -6.399277e+01   5.666879e+01
  -1.266491e+02   8.088033e+01
  -9.147781e+01   1.293586e+01
  -1.628303e+01   9.195426e+01
  -1.285576e+02  -6.483312e+01
  -1.193553e+02  -1.355111e+02
  -6.825521e+01  -2.679279e+02
   7.562990e+01  -1.270835e+02
   1.405620e+02   1.124553e+01
   3.846243e+01   1.431012e+02
  -7.263979e+00   1.036932e+02
  -4.124137e+01   1.033191e+02
  -4.653210e+01  -2.617462e+00
  -1.083017e+01  -7.533629e+01
   2.338485e+01  -3.775507e+01
  -2.914499e+01  -8.265366e+01
  -2.745996e+01  -1.723910e+01
  -4.634576e+01  -9.667767e+01
   4.663529e+01  -3.226292e+01
   1.463469e+02  -4.356510e+01
   1.433458e+02   6.717194e+01
  -2.744665e+01   4.281827e+01
  -9.243688e+01   1.075409e+02
  -9.475819e+01   2.873228e+01
  -5.380728e+01  -6.138279e+01
  -6.258684e+00  -8.118041e+01
  -2.808610e+01   2.018124e+01
  -3.633722e+01   1.078983e+02
  -3.680398e+01   7.228974e+01
  -2.302986e+01   4.146909e+01
  -1.950287e+01  -7.513189e+01
  -3.951505e+01  -9.089717e+01
  -6.762502e+01  -1.640589e+01
  -1.050876e+02  -2.474385e-01
  -1.317090e+01  -5.112912e+01
   2.621963e+01  -1.404660e+02
   5.525835e+01  -9.539845e+01
   2.174954e+02  -6.070566e+00
   8.375637e+01   1.712729e+02
   3.271578e+01   6.015669e+01
  -3.943511e+01   4.732649e+01
  -3.353489e+01  -2.031618e+01
   7.534446e+01  -7.719391e+01
   1.306533e+02   1.231953e+01
   3.914521e+01   3.039452e+01
  -8.648990e+01   1.534151e+02
  -1.850925e+02   7.514836e+01
  -1.357913e+02  -1.870496e+01
  -9.681577e+01  -6.871267e+01
   5.263293e+01  -1.002741e+02
   6.342770e+01   1.093685e+01
  -3.804080e+01  -1.703897e+01
  -6.144732e+01  -4.365031e+01
   1.443596e+01  -7.568534e+01
   9.702866e+01  -1.257789e+02
   1.252481e+02  -5.918992e+01
   1.220256e+02   1.007702e+02
  -3.060203e+01   1.819694e+02
  -7.211185e+01   1.304041e+02
  -8.519164e+01  -1.759498e+01
  -8.192482e+01  -1.464763e+02
   5.056076e+00  -1.039391e+02
   8.191975e+01  -2.471422e+01
   4.765344e+01   4.798343e+01
   2.251302e+01  -2.845137e+01
  -2.593443e+01   6.640810e+00
   6.199754e+01   5.835220e+01
   6.665326e+01   9.916166e+01
   2.891021e+00   1.068456e+02
  -8.836886e+01   8.559013e+01
  -9.936351e+01  -7.230325e-02
  -1.556431e+02  -6.854518e+01
   2.328204e+01  -7.087114e+01
   3.654588e+01   1.563205e+01
   9.573024e+01  -5.115630e+01
   2.665624e+01   2.621126e+01
  -4.367114e+01   4.200668e+01
   3.663214e+01   3.140045e+01
   3.910628e+01   2.906658e+01
  -1.195416e+01  -5.460085e+01
  -6.993679e+01   1.154121e+01
  -1.336671e+01  -3.794305e+01
  -6.473402e+01  -7.079496e+01
   1.244167e+02  -7.419520e+01
   2.037611e+02  -7.470280e+01
   1.810196e+02   8.166159e+01
  -2.415214e+01   1.360793e+02
  -8.232307e+01   1.089627e+02
  -1.526693e+02   1.053937e+01
  -5.831350e+01  -1.311898e+01
   4.402529e+01  -3.358075e+01
  -7.270513e+00  -4.558240e+01
  -1.244564e+01  -4.466673e+00
  -1.638479e+01  -1.483056e+01
  -5.788250e+00  -9.588649e+01
   1.807578e+01  -9.296751e+01
   4.527437e+01   8.800987e+01
   8.252173e+01   1.003971e+02
  -1.049670e+01   1.465202e+02
  -1.061450e+02   5.336103e+01
  -1.079007e+02  -7.620730e+01
  -1.007177e+01  -9.014891e+01
   3.607635e+01  -1.045927e+02
   1.092621e+02  -7.098644e+00
   3.421116e+01   4.883288e+01
  -2.560842e+01   6.077004e+01
  -2.994096e+01  -6.857378e+00
   5.808123e+01   3.409389e+01
   1.131510e+02   3.241339e+01
  -1.288779e+01  -7.991366e+00
  -9.306302e+01   9.248532e+01
  -1.189121e+02   2.826963e+01
  -3.099552e+01  -2.243012e+01
   5.791441e+01  -3.940978e+01
   8.599036e+01  -1.330417e+02
   4.639104e+01  -2.381809e+01
  -1.601121e+01   3.577560e+01
  -5.210819e+01   1.057026e+02
  -3.199140e+01  -4.303383e+01
  -3.055196e+01  -5.437609e+01
   8.434069e+01  -1.552230e+01
   1.471587e+01   3.416298e+01
   7.724134e+01  -6.812092e+00
   6.354736e+01   2.105221e+00
   4.026034e+00   4.222741e+00
  -1.973773e+01   5.786028e+01
   1.323993e+00   1.961819e+01
   2.806326e+01   1.212579e+01
   3.178416e+00   2.463801e+01
  -1.213582e+02  -2.003730e+01
  -2.928363e+01  -5.985949e+01
   1.381773e+01  -1.994804e+01
   1.389257e+01  -2.226473e+01
   2.465128e+01   3.800282e+01
  -2.213887e+01   5.224891e+01
  -9.451536e+01  -4.267308e+01
  -3.641069e+01  -5.392939e+01
   1.438338e+01  -4.818865e+01
   9.756412e+01  -9.035624e+01
   4.678643e+01   2.301087e+01
  -1.887467e+01  -2.760167e+00
  -4.646800e+01  -6.731743e+01
   5.733204e+01  -4.016131e+01
   8.886309e+01  -3.941048e+01
