
 $NMID
 id='ANONYMOUS ', fmtdat='(2E16.6)'
 volume=1.0
 tramp=1.0
 $END
  -2.061513e+03  -4.490817e+01
  -1.523715e+03  -9.143482e+02
  -2.670662e+02  -1.353715e+03
   6.250849e+02  -1.080288e+03
   7.193778e+02  -4.869365e+02
   2.533204e+02  -4.182853e+01
  -4.465107e+01   5.156481e+01
  -5.792775e+01  -1.824842e+02
   2.230732e+02  -3.755468e+02
   4.277662e+02  -1.332333e+02
   3.264126e+02   2.411601e+02
   7.419329e+01   4.024694e+02
  -1.486763e+02   1.500562e+02
  -9.188977e+01  -2.117477e+02
  -2.792045e+01  -3.475256e+02
   2.462214e+02  -1.178756e+02
   3.180392e+02   2.994008e+02
  -1.780817e+00   4.995001e+02
  -2.713060e+02   3.301565e+02
  -3.875808e+02  -6.898116e+01
  -1.730214e+02  -2.066010e+02
   7.340580e+01  -2.162274e+02
   2.743395e+01  -6.781534e+01
  -1.636866e+02  -1.476004e+02
  -1.972933e+02  -3.119681e+02
   1.157449e+02  -2.345981e+02
   3.519587e+02   2.759926e+01
   4.304296e+02   1.772047e+02
   1.166992e+02   2.244930e+02
  -2.288542e+02   5.147433e+01
  -2.603858e+02  -1.078613e+02
  -8.830028e+01  -2.523854e+02
   1.671036e+02  -1.400895e+02
   2.887546e+02  -8.009182e+01
   2.246291e+02   6.538837e+01
   5.780522e+01   1.605604e+02
   4.750782e+01   8.932435e+01
   1.027409e+02  -3.164608e+01
   1.409052e+02  -2.392949e+01
   5.928956e+01   1.295410e+02
  -6.821764e+01   3.241898e+02
  -1.224003e+02   2.918988e+02
  -1.905800e+02   7.052949e-01
  -3.852099e+00  -1.498042e+02
   5.862630e+01  -3.779399e+01
   3.449543e+01   1.860006e+02
  -1.456257e+02   2.703344e+02
  -3.406492e+02   3.535974e+00
  -3.238356e+02  -2.719644e+02
  -1.269435e+02  -3.288316e+02
   1.942540e+02  -1.513328e+02
   3.600405e+02   2.079997e+01
   2.005601e+02   1.765470e+02
   4.000465e+01   1.667740e+02
  -1.377485e+02   9.789769e+01
  -1.967151e+02   2.063650e+01
  -3.374141e+01  -2.099547e+01
  -3.518199e+01   1.398356e+01
  -1.224801e+02  -1.627242e+01
  -1.750405e+02  -6.422655e+00
  -1.165897e+02  -1.201032e+02
   4.681240e+01  -1.836777e+02
   2.288215e+02  -1.848046e+02
   2.182565e+02   1.284101e+02
   2.515019e+01   2.818442e+02
  -2.856709e+02   3.260791e+02
  -2.792893e+02   1.372164e+02
  -1.247938e+02  -1.413468e+02
  -1.953873e+01  -2.443859e+02
   2.840614e+01  -2.220378e+02
  -4.202641e+01  -2.163351e+02
   4.540092e+01  -1.871350e+02
   1.176553e+02  -7.229625e+01
   2.314178e+02  -1.077328e+02
   1.853039e+02   1.126527e+02
   2.208713e+01   2.111645e+02
  -6.510534e+01   1.268054e+02
  -1.343052e+02   1.728640e+01
  -1.345703e+02  -1.795017e+02
   6.143064e+01  -1.949240e+02
   1.698191e+02  -2.637779e+01
   2.298900e+02   1.683255e+02
   8.641917e+01   2.204667e+02
  -8.964457e+00   1.612699e+02
  -1.178464e+02   1.529806e+02
  -6.731175e+01   7.281839e+01
  -1.686271e+02   1.106602e+01
  -1.678770e+02   2.837084e+01
  -3.252948e+02  -6.883638e+01
  -2.722914e+02  -2.627560e+02
   9.836814e+00  -4.000394e+02
   2.856184e+02  -3.149764e+02
   3.965290e+02  -9.211605e+01
   2.168309e+02   3.741015e+01
   2.377265e+01   2.057453e+02
  -7.244712e+01   1.571090e+02
  -3.140591e+01   1.629326e+01
   6.726977e+01  -3.951768e+01
   1.092419e+02   2.208290e+01
   3.458952e+01   1.533062e+02
  -6.892585e+01   5.051595e+01
  -7.301891e+01  -1.733652e+01
   9.659859e+01  -1.196840e+02
   1.014712e+02   1.934335e+01
   7.065436e+01   1.534141e+02
   2.204832e+01   2.728971e+02
  -1.711878e+02   1.458815e+02
  -2.757160e+02  -7.478734e+01
  -1.903101e+02  -2.497433e+02
  -2.993512e+01  -2.130823e+02
   1.115275e+02  -7.707896e+01
   1.579565e+02   3.301530e+00
   4.990136e+01   3.308267e+00
  -5.800321e+01  -6.023412e+01
   5.051689e+01  -6.702422e+01
   8.022278e+01  -3.703824e+01
   1.371708e+02   7.994475e+01
   3.366597e+01  -7.647180e+00
  -1.276387e+02  -3.864706e+01
  -3.056334e+01  -6.201573e+01
   1.299324e+02  -2.557348e+01
   2.213962e+02  -4.267461e-03
   1.842426e+02   1.614991e+02
   9.024288e+00   2.251170e+02
  -1.366225e+02   2.217136e+02
  -2.200300e+02   8.349973e+01
  -6.652296e+01   2.824999e+01
  -6.237348e+00  -3.775981e+01
   3.149531e+01   1.894171e+01
  -2.918148e+01   1.830044e+01
  -1.410884e+02   1.645218e+01
  -1.330836e+02  -9.400745e+01
  -5.415934e+01  -1.442336e+02
   6.809804e+01  -1.682266e+02
   8.619317e+01  -1.010784e+01
   6.474563e+01   5.703376e+01
  -4.183265e+01  -1.021249e+01
  -1.201207e+01  -1.243515e+02
   1.121016e+02  -1.591133e+02
   1.851659e+02   3.131470e+01
   1.423410e+02   1.613970e+02
   1.085034e+01   1.620865e+02
  -1.366491e+02   1.012019e+02
  -1.372677e+02   3.146067e+01
  -3.655982e+01  -4.165545e+01
   5.994610e+01  -1.178986e+02
  -5.340749e+00  -5.337075e+01
   1.963648e+01   7.506784e+01
  -2.670209e+01   4.459537e+01
   7.712217e+00  -2.300010e+01
   9.885338e+01  -1.199741e+01
   9.540054e+01   7.394313e+01
   1.823213e+01   1.401839e+02
  -9.079075e+01   1.213409e+02
  -2.604668e+02  -1.732125e+01
  -1.752947e+02  -1.457117e+02
   6.992853e-01  -1.006003e+02
   1.563269e+01  -1.395920e+02
   7.141568e+01  -7.606867e+00
   4.694611e+01   6.534237e+00
   6.281408e+00   2.943016e+00
   2.994486e+01  -3.515297e+01
   3.955833e+01  -3.421831e+00
   5.129521e+01   7.576574e+01
  -7.902479e+01   1.019387e+02
  -8.883664e+01   3.671302e+01
  -1.334094e+02  -5.330316e+01
  -3.586770e+00  -1.718762e+02
   1.460049e+02  -1.363080e+02
   1.676150e+02   6.579173e+01
   9.294860e+01   1.862263e+02
  -9.598628e+01   2.591569e+02
  -2.347427e+02   6.953066e+01
  -1.714634e+02  -1.045198e+02
  -4.972344e+01  -1.422098e+02
   4.645112e+00  -8.788610e+01
   7.855292e+01  -2.854549e+01
   5.432467e+01  -1.085561e+02
   6.748789e+01  -9.671509e+01
   8.026693e+01  -6.304039e+01
   1.273708e+02   1.113404e+01
   4.555897e+01   1.008448e+02
   7.672164e+01   1.696102e+02
  -7.422725e+01   1.492518e+02
  -1.498023e+02  -3.147676e+01
  -7.072112e+01  -8.714790e+01
  -3.068539e+01  -1.454094e+02
   4.480359e+01  -4.736144e+01
   4.502536e+01   1.241316e+01
   1.935413e+01   6.261748e+01
  -7.276122e+01   8.764002e+01
   2.387246e+01  -5.436652e+00
   6.480554e+01   1.314498e+01
   5.571139e+01  -5.629360e+00
  -2.740079e+01   6.321701e+01
  -1.430764e+02  -5.856782e+00
  -1.006185e+02  -7.990460e+01
  -2.667838e+00  -7.728049e+01
   6.072459e+01  -3.784803e+01
   1.158089e+02  -5.758756e+01
   3.660742e+01   3.510239e+01
  -3.739023e+01   3.545586e+01
  -3.452326e+01  -1.921824e+01
  -6.905812e+01  -1.163182e+02
   5.400608e+01  -6.863854e+01
   1.039052e+02   3.137059e+01
   7.105674e+01   2.583632e+01
   5.153155e+00   5.263568e+01
   5.075506e+01   3.513489e+01
   5.036290e+01  -4.383461e+01
   4.343729e+01   4.440676e+01
   2.642909e+00   1.956184e+02
  -1.198388e+02   1.133878e+02
  -1.729439e+02   4.072367e+01
  -1.025931e+02  -1.123995e+02
   1.202370e+01  -1.554906e+02
   8.832546e+01  -4.872994e+01
   2.214460e+01  -7.457607e+00
   4.795287e+01   2.680819e+01
  -1.577145e+02  -6.236873e+00
   1.576723e+00  -5.725318e+01
   5.694892e+01  -1.143959e+02
   1.437700e+02  -1.407631e+01
   1.195637e+02   2.462502e+01
   2.624955e+01   2.406730e+01
  -6.902776e+01  -2.870800e+01
  -6.132844e+01   5.467832e+01
  -2.257316e+01  -3.936605e+01
   8.137145e+01   3.752575e+01
   2.222609e+01   9.031707e+01
  -8.622513e+01   1.045139e+02
  -1.314055e+02   4.626766e+01
  -1.270243e+02  -1.335411e+02
  -6.194700e+01  -2.102645e+02
   2.525595e+01  -1.118463e+02
   5.491218e+01   3.880868e+01
   4.919788e+01   1.035163e+02
   3.565339e+00   4.537059e+01
  -1.869753e+01  -2.963185e-01
  -2.952355e+01  -5.324647e+01
   2.667753e+01   3.555376e+01
  -2.210910e+01   1.979916e+01
  -3.956725e+01  -6.055968e+00
  -5.817050e+01  -7.911326e+01
   4.793889e+00  -3.614453e+01
   7.312633e+01  -6.682139e+01
   9.223513e+01  -8.501284e+00
   9.426913e+01   3.913922e+01
   2.287396e+01   1.584270e+01
  -8.454292e+01   3.541797e+01
  -6.504453e+01  -3.374542e+01
   3.014222e+01   1.516630e+01
   9.605003e+00  -9.045063e-01
   1.227245e+01  -2.246683e+01
   1.100117e+01   4.054301e+01
  -2.619939e+01  -1.700538e+01
   3.467010e+01  -2.659300e+01
   1.184654e+02   2.605287e+01
   1.973902e+01   2.851441e+01
  -7.196538e+01   5.200275e+01
  -1.988581e+02   1.125888e+02
  -1.507651e+02  -2.776851e+01
  -4.043727e+01  -1.038557e+02
   2.381777e+01  -1.178568e+02
   7.723184e+01  -1.312508e+02
   3.542187e+01   1.785297e+00
   2.143140e+01   3.647075e+01
  -2.498258e+01  -1.914176e+00
  -3.004439e+01   1.006971e+01
  -6.088681e+00   6.413944e+00
  -1.227298e+01   7.849055e+01
  -7.847266e+01   6.260388e+01
  -2.765064e+01   2.795178e+01
  -1.062207e+02  -3.312929e+01
  -3.176636e+01  -1.581671e+02
   7.871752e+01  -1.422990e+01
   8.975254e+01   3.378170e+01
   9.181910e+00   8.997781e+01
  -6.966305e+01   3.969521e+01
  -6.769951e+01   1.354833e+01
  -2.388697e+01  -8.455777e+01
   1.050317e+01  -1.279429e+02
  -4.183525e+01  -2.637272e+01
  -6.699974e+01   1.612314e+01
  -2.990232e+01  -4.996893e+01
  -9.460825e+00  -1.381869e+01
   2.857736e+01  -2.382034e+01
   1.347353e+02  -2.983737e+01
   6.610843e+01  -2.643006e+01
  -1.092482e+01   5.871443e+01
  -3.562199e+01   1.227874e+02
  -1.272781e+02  -5.485788e+00
   2.459782e+01  -7.845062e+01
  -3.126386e+01  -7.582039e+01
   4.498905e+01  -4.711179e+00
  -3.248085e+00   6.510363e+01
  -5.409173e+01   4.825460e+01
  -2.474674e+01   3.920879e+01
  -4.784556e+01  -1.104267e+01
  -7.779147e+00  -4.652550e+01
   1.199661e+01   2.261618e+01
  -6.085277e+01   2.798952e+01
  -1.023843e+01  -1.102470e+01
  -1.416957e+01  -9.767133e+01
  -2.726593e+01  -1.287501e+01
   4.306195e+01   8.923960e+00
   4.485322e+00   9.897812e+01
   8.343004e+00   3.466092e+00
  -5.384540e+01  -1.461559e+01
   2.263257e+01  -6.873953e+01
   9.759377e+01  -2.269350e+00
   1.083106e+02   3.531024e+01
   4.975526e+01  -1.743550e+01
  -3.451728e+01   4.207628e+01
  -2.372243e+01   4.457062e+01
  -2.932329e+01  -1.699786e+01
  -1.929670e+01   1.750135e+01
   5.179721e+01  -1.732816e+01
   7.279877e+00   6.699310e+01
  -2.088616e+01   4.085471e+01
