
 $NMID
 id='ANONYMOUS ', fmtdat='(2E16.6)'
 volume=1.0
 tramp=1.0
 $END
   3.038767e+03  -3.347051e+01
   1.966599e+03   1.492163e+03
   3.914333e+01   1.953879e+03
  -1.192280e+03   1.226653e+03
  -9.364486e+02   1.140773e+02
  -2.155175e+01  -2.898958e+02
   3.947830e+02   6.788864e+01
   1.042207e+02   5.748719e+02
  -4.208872e+02   5.805129e+02
  -5.825688e+02   7.963687e+01
  -4.082095e+02  -4.227059e+02
  -2.206060e+01  -6.592815e+02
   2.765026e+02  -1.611543e+02
   2.551201e+02   3.885787e+02
  -1.023981e+02   5.142991e+02
  -3.816739e+02   7.740808e+01
  -2.834550e+02  -4.732488e+02
   1.199013e+02  -5.760708e+02
   4.019714e+02  -2.400295e+02
   4.152059e+02   1.944607e+02
   1.302480e+02   2.982808e+02
  -1.373376e+02   2.253319e+02
  -3.794803e+01   1.274220e+02
   1.608183e+02   8.504665e+01
   2.662054e+02   2.312265e+02
   4.137048e+01   3.080608e+02
  -4.244341e+02   2.273614e+02
  -5.321837e+02  -1.814718e+02
  -2.605322e+02  -3.629908e+02
   2.534228e+02  -1.665225e+02
   4.529290e+02   1.103833e+02
   2.193398e+02   3.070876e+02
  -1.869749e+02   3.182750e+02
  -3.596656e+02   8.247725e+01
  -3.140049e+02  -9.212274e+01
  -3.937997e+01  -2.754549e+02
   5.445170e+01  -2.331449e+02
   2.974608e+01   1.541937e+02
  -1.377050e+02   1.458288e+02
  -1.846486e+02  -9.551724e+01
  -3.234023e+01  -4.714638e+02
   2.172448e+02  -4.242835e+02
   2.194229e+02  -3.297565e+01
   1.460353e+02   3.318055e+02
  -1.374403e+02   1.326503e+02
  -2.313960e+02  -3.042830e+02
   1.005284e+02  -3.026476e+02
   4.147337e+02  -6.006465e+01
   4.575873e+02   3.361917e+02
   1.658305e+02   4.539117e+02
  -2.593652e+02   2.575424e+02
  -4.910751e+02  -6.857159e+01
  -3.357071e+02  -2.229317e+02
   4.276140e+01  -2.001389e+02
   2.473390e+02  -1.164336e+02
   2.326518e+02   3.983790e+01
   4.909502e+01  -3.092742e+01
  -9.069089e+01  -3.677043e+01
   1.793821e+02   2.323192e+01
   2.557699e+02   7.149876e+01
   1.310290e+02   2.044517e+02
  -1.460543e+02   2.058171e+02
  -2.810520e+02   8.390949e+01
  -2.296260e+02  -6.517683e+01
   5.361777e+01  -3.238045e+02
   2.427120e+02  -2.551635e+02
   3.442793e+02  -1.397514e+02
   2.443753e+02   1.200017e+02
   4.095104e+01   3.024983e+02
  -4.974319e+01   3.312638e+02
  -5.518449e+01   1.811135e+02
  -5.913941e+00   9.004909e+01
  -1.195598e+02   7.352948e+01
  -2.141246e+02   2.093508e+01
  -2.280463e+02  -1.071660e+02
  -1.134428e+02  -2.095832e+02
   7.892604e+01  -1.943143e+02
   2.297622e+02   3.133924e+01
   1.115745e+02   1.501737e+02
  -1.239386e+00   2.298373e+02
  -2.506633e+02   5.439210e+01
  -3.323958e+02  -1.804799e+02
  -9.190702e+01  -2.678669e+02
   4.288291e+01  -3.021276e+02
   1.849371e+02  -1.868026e+02
   1.517291e+02  -7.909491e+01
   9.933516e+01  -1.688802e+01
   2.313568e+02  -1.050238e+02
   3.362265e+02   4.439027e+01
   2.502582e+02   2.676504e+02
   1.154632e+01   3.275886e+02
  -3.192544e+02   4.085384e+02
  -4.036120e+02   1.651081e+02
  -2.499433e+02  -6.082543e+01
  -2.658051e+01  -2.357394e+02
   5.525506e+01  -2.141025e+02
   7.589390e+00  -3.353006e+01
  -6.663113e+01   3.203850e+01
  -1.579757e+02  -4.549967e+01
  -2.343329e+01  -1.261213e+02
   9.474237e+01  -1.614594e+02
   1.075415e+02   2.720288e+01
  -5.424875e+01   1.463537e+02
  -1.645323e+02  -2.606079e+00
  -1.388160e+02  -1.783543e+02
  -1.455830e+01  -3.997861e+02
   1.932344e+02  -2.248029e+02
   3.209733e+02   2.441977e+01
   2.399506e+02   2.636594e+02
   2.019736e+01   1.741070e+02
  -1.281253e+02   1.398899e+02
  -1.245634e+02   5.421425e+00
  -5.038107e+01  -4.137463e+01
   4.390143e+01  -1.100855e+00
  -6.477530e+01   8.619357e+01
  -1.275376e+02   8.113360e+00
  -1.463369e+02  -5.685198e+01
  -7.917112e+01  -4.847545e+01
   4.137706e+01  -3.448569e+01
   7.699494e+01   1.015265e+02
  -1.544948e+02   1.434194e+02
  -2.479509e+02   1.652405e+01
  -2.152490e+02  -2.181409e+02
  -1.600460e+01  -1.677485e+02
   1.640056e+02  -1.988428e+02
   1.694174e+02  -1.423969e+02
   1.264417e+02   6.651614e+01
  -9.626916e+01   1.049386e+02
  -1.301959e+02  -1.958499e+01
   5.907428e+01  -6.161947e+01
   2.194548e+02  -3.357485e+01
   1.630269e+02   7.605120e+01
   6.812605e+01   1.542929e+02
  -5.462590e+01   7.093451e+01
  -1.421077e+02  -2.461298e+01
  -2.477885e+01  -6.171340e+00
   6.386811e+01   9.062273e+00
   4.387315e+01   6.422573e+01
  -8.073935e+01   1.170411e+02
  -2.163871e+02   1.067744e+02
  -1.889768e+02  -9.674648e+01
   1.276796e+01  -1.995768e+02
   8.240458e+01  -1.266679e+02
   1.702767e+02  -2.990190e+01
   3.167547e+01   3.115200e+01
  -9.751283e+01   6.015294e+01
  -8.094070e+01  -3.365562e+01
  -4.282485e+01  -1.678993e+01
  -2.495943e-01  -1.661309e+01
  -2.261700e+01  -1.665426e+01
  -4.764513e+01   2.204088e+01
  -1.093231e+02  -9.944596e+01
  -2.634586e+01  -2.083486e+02
   8.799880e+01  -1.354158e+02
   2.873754e+02   1.976722e+00
   1.851949e+02   1.793990e+02
   6.711278e+01   2.351682e+02
  -1.137593e+02   1.057757e+02
  -1.119460e+02   1.264012e+01
  -7.803142e+01  -1.079010e+02
  -8.126160e+01  -3.557117e+00
  -2.107417e+01  -9.864212e+00
  -4.930378e+01   8.316479e+01
  -1.008145e+02  -6.448531e+01
   8.320402e+00  -6.276495e+01
   9.394282e+01  -7.775322e+01
   1.399648e+02  -5.121123e+01
   5.419726e+00   1.463508e+02
  -1.600761e+02   1.118604e+02
  -2.719817e+02  -4.789758e+01
  -4.977452e+01  -1.938749e+02
   1.337135e+02  -1.815834e+02
   2.544693e+02  -6.941732e+01
   2.499905e+02   8.427891e+01
   8.882338e+01   1.540445e+02
  -3.163273e+01   1.380420e+02
  -6.984284e+01   3.483996e+01
  -9.324771e+01  -7.489721e+00
  -8.902259e+01   4.430883e+01
  -9.938040e+01   5.152439e+01
  -1.667957e+02  -5.815041e+01
  -9.933673e+01  -9.184254e+01
   3.696505e+01  -2.768386e+02
   5.006556e+01  -1.372467e+02
   1.447330e+02   2.361198e+00
   6.659018e+01   1.565477e+02
  -5.588490e+00   1.668599e+02
  -1.797945e+02   5.947114e+01
   2.701821e+00  -2.264316e+00
   6.942252e+01   8.561208e+00
   7.702124e+01  -7.813974e+01
   1.966214e+01   2.793568e+01
  -9.074965e+01  -2.575644e+01
   2.501330e+00  -5.326993e+01
   1.001488e+02  -4.640200e+01
   1.260791e+02   4.434041e+01
   1.313765e+02   3.664695e+01
   3.480399e+01   8.590068e+01
  -1.132160e+02   3.898448e+01
  -1.064418e+02   3.020018e+01
  -4.292979e+01  -3.966258e+01
   4.037965e+01  -2.405450e+01
   1.266667e+02   2.223072e+01
  -1.733694e+01   3.741675e+01
   1.538102e+01   3.656000e+01
  -4.298234e+01   3.408649e+01
  -2.723814e+01  -3.404662e+01
  -7.268691e+01  -2.002109e+01
  -2.538786e+01  -1.471204e+00
  -1.931454e+01   1.270771e+01
  -1.153090e+02  -7.670480e+01
  -7.250415e+00  -1.289662e+02
   1.406308e+02  -1.018287e+02
   1.791246e+02  -7.503808e+01
   1.216767e+02   4.630938e+01
   9.612009e+00   1.169677e+02
  -1.019433e+02   5.338737e+01
  -6.834273e+01  -5.418825e+01
   6.310529e+01  -2.614397e+01
   1.366244e+02   1.506022e+01
   1.954082e+01   1.146883e+02
  -1.428641e+02   1.670643e+02
  -1.700727e+02   2.018704e+01
  -1.031127e+02   9.625885e+00
   1.391418e+01  -2.814821e+01
   5.847718e+01  -9.081161e+01
   9.099031e+01   5.689583e+01
  -2.797914e+01   4.507666e+01
  -9.782182e+01  -2.941500e+01
  -2.963301e+01  -5.676094e+01
   8.468789e+01  -1.151576e+02
   1.672989e+02  -6.330767e+01
   1.379061e+02   5.372886e+01
   1.909598e+01   1.332069e+02
  -7.070021e+01   1.188142e+02
  -1.292258e+02  -1.807071e+01
  -2.667594e+01  -7.025459e+01
   1.150750e+01  -7.902590e+01
   2.114752e+01  -1.196852e-01
   7.422246e+01   9.490200e+00
   1.490204e+01   6.005588e+01
   1.197536e+01  -1.062134e+01
   4.687339e+01  -1.952081e+01
   3.463185e+01   2.416689e+01
  -1.729934e+01   9.715404e+01
  -8.667540e+01   1.975050e+01
  -1.754339e+02  -1.036878e+02
  -1.156102e+02  -7.618656e+01
  -1.675152e+01  -1.252819e+02
   9.611607e+01  -5.267755e+01
   6.210038e+01  -4.228183e+01
   3.841597e+01   1.963937e+01
  -9.861018e+01  -2.308284e+01
  -3.481157e+01   2.363981e+00
   1.994336e+01   1.996683e+01
   2.306990e+01  -4.738201e+01
  -4.197968e+01  -2.023093e+00
  -8.900588e+01  -1.036999e+02
  -4.153715e+01  -5.238021e+01
   9.223601e+01  -6.959102e+01
   1.908187e+02  -8.984608e+01
   1.761344e+02  -1.234458e+01
   6.365623e+00   1.555650e+02
  -4.134954e+01   1.361002e+02
  -1.798827e+02   8.728952e+01
  -6.176807e+01  -1.929653e+01
  -6.024275e+01  -6.788804e+01
  -2.813020e+00  -5.949749e+01
  -1.779558e+01  -1.339591e+01
  -2.069976e+01  -5.510612e+01
   8.538494e+00  -6.289596e+01
   2.782328e+01  -3.338115e+01
   7.040880e+01  -7.656778e-01
   3.784040e+01   1.022316e+02
  -1.947301e+01   1.098266e+02
  -6.575663e+01   1.081125e+02
  -1.242617e+02  -9.850528e+01
  -2.987762e+01  -1.763475e+02
   4.566597e+01  -4.000502e+01
   1.307748e+02  -3.824631e+00
   8.511179e+01   1.070154e+02
  -1.356084e+01   1.608748e+00
  -3.110957e+01   1.612906e+01
  -2.437977e+01   6.805978e+00
   7.155997e+01   9.974438e+00
  -5.381259e+00   2.793673e+01
  -7.865451e+01   8.247378e+01
  -3.079369e+01   8.264626e+01
  -1.320540e+02  -1.819855e+00
   3.442579e+01  -1.540165e+01
   7.555802e+01  -1.419516e+02
   1.309563e+01   2.072172e+00
   4.003218e+01   4.881040e+01
  -1.221450e+00   8.152473e+01
  -1.574839e+01   5.034055e+01
   7.995016e+00   4.560225e+00
  -3.819522e+01   4.725454e+00
   6.183679e+01  -3.835769e+00
   4.432304e+01   5.093245e+01
   7.225229e+01   2.347764e+00
  -1.872869e+01  -4.966823e+01
   1.133471e+01  -8.589075e+00
   1.071951e+01  -6.732893e+00
  -1.077141e+01   7.844803e+01
   1.404033e+00   3.474737e+01
   3.896482e+00  -8.830467e+01
  -2.623117e+01  -3.118029e+01
   1.902160e+01  -7.664956e+01
   9.804568e+01  -5.544607e+01
   2.062919e+00   1.038871e+02
  -8.864858e+00   8.452333e+01
  -1.649506e+02  -4.730289e+01
  -1.045415e+02  -2.802044e+01
   4.027914e+01  -5.053411e+01
   1.345029e+02  -1.310671e+01
  -5.553513e+00  -4.996556e+00
  -4.148080e+01   3.823040e+01
  -2.443598e+01  -1.606813e+01
   5.452828e+01  -9.229836e+00
   6.730790e+01  -1.667308e+01
