
 $NMID
 id='ANONYMOUS ', fmtdat='(2E16.6)'
 volume=1.0
 tramp=1.0
 $END
   2.721233e+03   9.984852e+01
   1.724961e+03   1.493343e+03
  -1.496277e+02   1.668100e+03
  -1.138103e+03   9.375770e+02
  -7.445283e+02   6.716256e+01
   2.314976e+01  -1.721892e+02
   3.661143e+02   1.316112e+02
   4.840014e+01   5.480338e+02
  -4.392019e+02   4.879828e+02
  -5.338853e+02   1.110672e+01
  -3.507873e+02  -4.566309e+02
  -4.176432e-01  -4.836386e+02
   3.253530e+02  -1.414563e+02
   2.006738e+02   3.512541e+02
  -1.061582e+02   4.463640e+02
  -3.756841e+02   3.458636e+01
  -2.700356e+02  -4.357204e+02
   1.365584e+02  -4.835526e+02
   3.574053e+02  -2.444630e+02
   3.273779e+02   1.532041e+02
   7.487871e+01   2.804937e+02
  -1.029600e+02   2.079122e+02
  -4.549043e+01   8.654962e+01
   1.789914e+02   6.728327e+01
   2.031744e+02   1.617507e+02
   1.686744e+01   3.161848e+02
  -3.823965e+02   2.071076e+02
  -5.088454e+02  -1.641111e+02
  -2.140647e+02  -3.724429e+02
   3.146991e+02  -1.549936e+02
   4.859479e+02   1.069160e+02
   1.727792e+02   3.138230e+02
  -2.119750e+02   3.587664e+02
  -3.718888e+02   1.116454e+02
  -2.526389e+02  -1.181176e+02
  -4.103911e+01  -2.751033e+02
   5.698628e+01  -8.701468e+01
   4.249485e+00   1.478215e+02
  -1.794358e+02   1.506603e+02
  -2.380558e+02  -7.713625e+01
  -6.325491e+01  -4.305138e+02
   2.141336e+02  -3.160845e+02
   3.287393e+02  -4.764604e+01
   1.130183e+02   2.878373e+02
  -1.488330e+02   9.948467e+01
  -1.389381e+02  -2.312138e+02
   1.042484e+02  -3.690780e+02
   3.123262e+02  -5.379160e+01
   4.285935e+02   3.157466e+02
   1.398543e+02   4.335887e+02
  -2.971328e+02   2.558014e+02
  -3.827189e+02  -2.470227e+01
  -2.815103e+02  -2.192934e+02
   7.144629e+01  -2.270072e+02
   2.465608e+02  -1.088313e+02
   2.130053e+02   8.333583e+01
  -2.531169e+01  -3.158838e+01
  -4.785104e+01  -7.557179e+01
   4.207846e+01  -4.803326e+01
   2.424026e+02   5.848956e+01
   9.658952e+01   1.720948e+02
  -1.728646e+02   1.865765e+02
  -2.659948e+02   9.468745e+01
  -1.780646e+02  -3.545009e+01
   6.747690e+01  -2.047785e+02
   2.215120e+02  -3.013108e+02
   2.786858e+02  -1.591816e+02
   1.847650e+02   1.033593e+02
   9.996276e+00   3.082464e+02
  -2.345730e+01   2.757605e+02
  -5.283626e+00   1.374930e+02
  -8.129031e+01   7.524930e+00
  -6.167939e+01   8.919893e+01
  -1.805811e+02   5.097806e+01
  -1.661436e+02  -1.258682e+02
  -1.238791e+02  -2.006080e+02
   7.876343e+01  -1.781053e+02
   1.649627e+02   2.911336e+01
   1.394154e+02   1.802869e+02
  -8.123751e+01   2.590861e+02
  -2.301770e+02   1.007065e+02
  -2.273242e+02  -1.464724e+02
  -8.847295e+01  -2.549251e+02
   6.680205e+01  -1.759218e+02
   1.593881e+02  -1.378891e+02
   1.603685e+02   3.827059e+00
   1.384977e+02  -9.152956e+01
   2.337408e+02  -7.895083e+01
   3.032512e+02   9.123171e+01
   3.292246e+02   2.548193e+02
  -8.570371e+00   3.567813e+02
  -2.626112e+02   2.966514e+02
  -4.312306e+02   1.123385e+02
  -2.645233e+02  -9.022635e+01
  -2.869417e+01  -2.097289e+02
   9.595365e+01  -1.328211e+02
   5.259842e+01  -3.265750e+01
  -1.434434e+02   5.349048e+01
  -1.111151e+02  -3.676451e+01
  -3.320499e+01  -1.074136e+02
   1.238538e+02  -1.207833e+02
   1.268743e+02   8.649248e+01
  -5.351382e+01   1.366586e+02
  -1.794358e+02  -5.256448e+01
  -1.230849e+02  -2.337201e+02
   1.727653e+01  -3.039894e+02
   2.217102e+02  -1.599439e+02
   2.412830e+02   1.086273e+02
   2.047190e+02   2.030068e+02
   1.662873e+01   2.302481e+02
  -1.305837e+02   6.709156e+01
  -8.176977e+01   1.888430e+01
  -4.229820e+01  -4.279964e+01
   3.399268e+01  -1.860911e+00
   4.130798e+01   1.064467e+02
  -1.296193e+02   6.806171e+01
  -1.168806e+02   1.039972e+01
  -8.046843e+01  -8.544057e+01
   6.005265e+01  -3.855696e+01
   6.079586e+01   1.103234e+02
  -1.384239e+02   6.885163e+01
  -2.283244e+02  -1.072881e+01
  -2.034211e+02  -1.748448e+02
  -3.236479e+01  -2.275200e+02
   1.641682e+02  -1.576490e+02
   1.682035e+02  -1.010078e+02
   7.078587e+01   3.424137e+01
   1.384546e+01   7.338222e+01
  -1.801617e+01  -6.513550e+00
   5.860362e+01  -7.927964e+01
   1.054089e+02  -1.255063e+01
   9.023030e+01   1.133508e+02
   4.746462e+01   1.367124e+02
  -5.533087e+01   1.777240e+02
  -9.970970e+01  -3.854522e+01
  -4.487576e+01  -3.888780e+01
   3.729396e+01  -1.757844e+01
   4.190101e+00   9.514086e+01
  -6.770048e+01   6.075573e+01
  -2.210751e+02   9.383037e+00
  -1.974593e+02  -1.055294e+02
  -8.624229e+00  -2.247959e+02
   1.295317e+02  -1.549662e+02
   1.406451e+02   8.279965e-01
   6.148435e+01   9.761526e+01
  -5.866617e+01   6.969076e+01
  -4.880633e+01   4.640939e+00
  -7.411106e+00  -2.869152e+01
   1.171274e+00  -5.546770e-01
   2.517000e+01   2.197041e+01
  -9.103935e+01   3.032816e+01
  -8.890865e+01  -7.192992e+01
  -3.376999e+01  -1.615904e+02
   1.184003e+02  -1.589419e+02
   2.192500e+02  -5.789302e+00
   1.560036e+02   1.179877e+02
   2.763775e+01   1.323654e+02
  -5.620788e+01   1.340138e+02
  -5.981470e+01   5.239259e+01
  -7.168874e+01  -7.818516e+01
   1.840156e+01  -9.760898e+00
  -4.860310e+01   3.313686e+00
  -9.879006e+01  -1.435580e+01
  -3.160211e+01   4.857662e+00
  -2.919635e+01  -2.980032e+01
   1.017560e+02  -3.536915e+00
   1.142181e+02  -1.246994e+01
  -5.162686e+00   3.131255e+01
  -1.477330e+02   7.715687e+01
  -1.560473e+02  -3.732220e+01
  -3.081226e+01  -1.476066e+02
   9.983348e+01  -1.824957e+02
   2.164471e+02  -8.020251e+01
   2.490127e+02   1.156974e+02
   8.022655e+01   1.374259e+02
  -6.641879e+01   1.101459e+02
  -8.388505e+01   1.202272e+02
  -1.069803e+02   9.486175e+00
  -2.059488e+01   1.727182e+01
  -9.433945e+01   4.308434e+01
  -5.578632e+01  -5.398172e+01
  -1.199205e+02  -8.499595e+01
   1.147714e+01  -1.799588e+02
   7.932749e+00  -1.515256e+02
   1.336404e+02  -5.457779e+01
   6.418206e+01   5.286998e+01
   1.298365e+01   1.117119e+02
  -2.893090e+01   7.587659e+01
  -3.585965e+01  -6.158126e+01
   7.128016e+00  -3.889280e+01
   6.801882e+01   5.192402e+00
   2.064028e+01   8.929044e-01
  -5.352728e+01   2.368888e+01
  -3.688067e+01  -5.009627e+01
   4.946262e+01  -3.886992e+01
   7.429823e+01  -4.660324e+01
   8.333814e+01   5.214398e+01
  -2.424129e+01   8.035906e+01
  -7.999491e+01   2.929827e+01
  -1.278200e+02   3.432993e+01
  -3.564758e+01  -2.809587e+01
  -1.595424e+01  -3.522902e+01
   1.228759e+02  -1.248185e+00
   2.395352e+01   7.619064e+01
   1.331673e+01   3.963184e+01
  -3.424588e+01  -8.490107e+01
  -4.635007e+01  -4.763718e+01
  -4.136661e+01  -2.308583e+01
  -1.853276e+01  -4.316501e+01
  -3.700214e+01   5.139431e+00
  -1.559763e+00  -4.124129e+01
   9.909625e+01  -1.159682e+02
   8.861503e+01  -9.125178e+01
   8.462819e+01  -2.247755e+01
   9.175762e+01   8.260719e+01
  -5.560856e+00   6.646402e+01
  -1.388381e+02   4.133226e+01
  -8.592621e+01  -1.622704e+01
   3.020965e+01  -2.633083e+01
   1.271333e+02  -4.407299e+01
   3.504601e+01   7.158993e+01
  -1.366859e+02   1.257910e+02
  -1.311379e+02  -3.645369e+00
  -1.345060e+02  -2.883043e+01
  -4.060539e+01  -1.148932e+02
   1.860950e+01  -4.261768e+01
  -1.297410e+01   2.877302e+01
  -5.507656e+01  -1.352164e+01
  -1.790907e+02   2.467149e+01
  -6.889678e+01  -1.006572e+02
   1.082211e+02  -1.283940e+02
   1.636548e+02  -6.315838e+01
   9.627976e+01   9.097775e+01
   5.831972e+01   1.546061e+02
  -3.749727e+01   7.837311e+01
  -1.033657e+02  -5.811258e+01
  -7.276142e+01  -1.292494e+02
  -1.682211e+01  -7.349676e+01
   6.512828e+01  -2.556161e+01
  -1.404368e+01   6.490961e+01
   5.966446e+01  -9.426373e+00
   1.170536e+01   1.732670e+01
  -3.130415e+01   4.764336e+01
   3.427794e+01   3.041020e+01
   2.074822e+01   1.059945e+02
  -5.725920e+01   5.210938e+00
  -1.159072e+02   3.854744e+01
  -1.600918e+02  -5.936079e+01
  -1.572118e+00  -3.209586e+01
   1.025803e+02   4.128574e+01
   4.322176e+01  -2.065159e+01
   3.873447e+01   3.810335e+01
  -1.872971e+01   8.165161e+01
  -4.184376e+00   6.481586e+01
   1.358078e+01  -1.999317e+01
  -2.140284e+01  -3.517978e+01
  -8.440767e+01  -5.358396e+01
  -7.771934e+01   2.340570e+01
  -4.764872e+01  -9.349279e+01
   7.449668e+01  -7.648810e+01
   1.761018e+02  -8.489414e+01
   1.095121e+02   9.090079e+01
   5.781411e+01   1.398306e+02
  -8.388725e+00   1.168230e+02
  -1.457100e+02   6.217816e+01
   2.378459e+01  -2.695583e+01
   2.497184e+01   1.202946e+00
  -2.498950e+01   6.796428e+01
   2.688140e+01   4.510004e-01
  -5.278942e+01  -2.184556e+01
   2.478735e+01  -4.278185e+01
   3.597347e+01  -7.706493e+01
   4.402714e+01   3.154763e+01
   4.526815e+01   1.244412e+02
  -2.338609e+01   9.201895e+01
  -3.798025e+01  -1.122235e+00
  -4.215664e+01  -2.385525e+01
  -8.683625e+01  -1.079255e+02
   2.074933e+01  -8.301281e+01
   1.395671e+02  -2.724719e+01
  -7.299919e+00   7.647351e+01
  -3.502753e+01   3.338918e+01
  -2.357675e+01   1.889870e+00
   2.360773e+01   1.370438e+01
   3.936767e+01   1.217975e+01
  -7.035026e+00   6.331312e+01
  -5.033216e+01   9.208254e+01
  -8.233409e+01   8.031047e+01
  -1.099132e+02  -4.301442e+01
   6.174237e+01  -4.729576e+01
   7.196951e+01  -3.302771e+01
   3.612847e+01  -4.361251e+01
  -2.504227e+01   7.682009e+01
  -1.410215e+00   8.363335e+00
   3.659185e+00  -5.371608e+01
  -7.518521e+00  -1.009609e+01
   1.942852e+01  -3.517919e+01
   1.117343e+01   1.449769e+01
  -2.253703e+00   4.110942e+01
  -3.844113e+01   2.547488e+01
   2.462194e+01  -1.691408e+01
  -1.037954e+01   3.201643e+01
  -3.365076e+01   6.095638e+01
  -5.031437e+01  -4.889222e+00
  -3.229555e+01   1.353867e+01
  -2.737633e+01  -5.002274e+00
  -7.272274e+01  -2.898959e+01
   3.966705e+01   4.972801e+00
   3.089274e+01  -9.938757e+00
   3.418529e+01   7.599735e+01
  -1.723781e+01   3.817144e+01
  -2.456883e+01   1.049840e+00
   1.048538e+01  -6.566142e+01
   6.038727e+01  -4.007838e+01
   4.674218e+01   1.410864e+01
   4.328626e+01   3.797894e+01
  -3.783140e+01   2.267778e+01
  -3.936498e+01  -4.481825e+01
   8.748941e+00  -3.816426e+01
   5.416112e+01   3.206382e+01
