
 $NMID
 id='ANONYMOUS ', fmtdat='(2E16.6)'
 volume=1.0
 tramp=1.0
 $END
  -2.542333e+03   7.317825e+01
  -1.748172e+03  -1.203469e+03
  -1.439079e+02  -1.624757e+03
   8.961852e+02  -1.090873e+03
   8.383222e+02  -3.885380e+02
   1.981464e+02   6.300055e+01
  -1.929494e+02  -2.123267e+01
  -6.104074e+01  -4.092912e+02
   2.788515e+02  -4.552572e+02
   4.678105e+02  -1.496412e+02
   3.691372e+02   4.245067e+02
   3.845858e+01   4.965611e+02
  -1.580061e+02   1.730858e+02
  -2.228860e+02  -2.905302e+02
   5.120205e+01  -4.413088e+02
   3.446441e+02  -3.531018e+01
   2.308335e+02   3.413327e+02
  -3.812280e+01   5.183151e+02
  -3.631352e+02   2.045033e+02
  -4.199476e+02  -1.339771e+02
  -1.275884e+02  -2.343586e+02
   7.900877e+01  -2.289865e+02
   2.956117e+01  -1.334017e+02
  -1.724921e+02  -1.396460e+02
  -1.985863e+02  -2.279104e+02
   5.225390e+01  -2.323797e+02
   3.827450e+02  -7.164496e+01
   4.456911e+02   1.442072e+02
   1.894036e+02   2.361252e+02
  -2.558434e+02   1.135749e+02
  -4.133864e+02  -1.277762e+02
  -1.595659e+02  -2.643147e+02
   2.089120e+02  -2.801646e+02
   3.338423e+02  -7.352479e+01
   2.662491e+02   1.040863e+02
   6.222104e+01   2.401603e+02
   5.819215e+00   1.870987e+02
   7.605582e+01  -5.411075e+01
   1.168082e+02  -4.340405e+01
   1.429093e+02   1.129748e+02
  -6.296799e+01   3.842400e+02
  -1.768687e+02   3.742122e+02
  -2.153647e+02   2.918836e+01
  -7.383234e+01  -2.375080e+02
   1.101307e+02  -9.020173e+01
   1.748605e+02   1.968054e+02
  -1.140786e+02   2.878922e+02
  -3.121495e+02   4.034096e+01
  -4.086138e+02  -3.889394e+02
  -1.589712e+02  -4.019797e+02
   2.348171e+02  -1.963798e+02
   4.655958e+02   3.939241e+01
   3.007252e+02   1.823960e+02
  -3.337075e+01   1.613361e+02
  -1.882748e+02   2.007740e+01
  -1.553318e+02   2.541925e+01
   2.450980e+01  -9.287865e+00
   7.005780e+01   1.072429e+01
  -9.885514e+00  -1.616117e+00
  -1.312172e+02  -1.727596e+01
  -5.807444e+01  -1.537893e+02
   1.280164e+02  -2.240102e+02
   2.813727e+02  -1.112966e+02
   2.573063e+02   9.375738e+01
   1.083118e+01   2.216842e+02
  -2.358893e+02   3.459617e+02
  -3.013742e+02   8.927763e+01
  -1.398728e+02  -1.904335e+02
   1.778740e+01  -2.787044e+02
   6.539232e+00  -1.865757e+02
  -4.150940e+01  -2.019319e+02
   3.268080e+01  -9.149012e+01
   1.294532e+02  -1.503352e+02
   2.430640e+02  -7.150091e+01
   1.761132e+02   1.431915e+02
   5.203140e+01   2.377352e+02
  -1.307153e+02   1.535121e+02
  -1.495648e+02  -2.416603e+01
  -1.135194e+02  -2.055475e+02
   4.770109e+01  -1.647359e+02
   2.144260e+02  -4.660614e+01
   1.970990e+02   1.270019e+02
   1.652782e+02   2.658304e+02
  -3.050511e+01   1.898009e+02
  -7.988900e+01   1.056008e+02
  -1.188379e+02   5.666268e+01
  -1.426399e+02   3.189607e+01
  -2.405549e+02   3.745335e+01
  -3.345167e+02  -8.107641e+01
  -2.654248e+02  -2.381254e+02
   9.133980e+00  -3.675790e+02
   3.150406e+02  -3.452595e+02
   3.471128e+02  -1.245290e+02
   2.120922e+02   8.511516e+01
   4.655884e+00   1.972760e+02
  -4.901104e+01   1.160887e+02
  -2.037049e+01   7.205646e+01
   1.248542e+02   1.920742e+01
   6.001131e+01   6.788403e+01
  -4.769585e+01   1.007641e+02
  -9.807691e+01   6.003175e+01
  -1.207426e+02  -1.919693e+01
   2.004399e+01  -1.181807e+02
   1.514779e+02   3.356596e+00
   1.874411e+02   1.658035e+02
  -4.880833e+01   2.589289e+02
  -1.562855e+02   2.261751e+02
  -3.166016e+02  -5.822133e+01
  -2.348708e+02  -2.148930e+02
   1.602453e+01  -2.225084e+02
   9.265603e+01  -6.377516e+01
   5.710950e+01  -3.406896e+01
   7.763788e+01  -3.520780e+01
  -4.857167e+01  -8.820192e+01
   3.153184e+01  -1.052553e+02
   1.059842e+02  -4.853335e+01
   7.099961e+01   5.561296e+01
   8.731682e+01   2.630516e+01
  -8.813852e+01  -2.606566e+01
  -3.757636e+01  -9.548344e+01
   1.136964e+02  -1.550272e+02
   2.599111e+02  -1.694457e+00
   1.813203e+02   1.271543e+02
   3.797447e+01   2.592288e+02
  -1.741484e+02   1.597762e+02
  -1.764586e+02   1.000947e+02
  -1.065512e+02  -2.001876e+01
   1.949129e+01  -3.721658e+01
   1.994821e+01  -1.769499e+00
  -2.470523e+01   6.394354e+00
  -2.025606e+02   1.416799e+01
  -1.649617e+02  -4.809117e+01
  -8.978178e+01  -1.415174e+02
   6.519884e+01  -7.903357e+01
   1.008502e+02  -2.864752e+01
   4.035887e+01   3.015962e+01
  -4.606620e+01  -4.767022e+00
  -4.107877e+01  -1.071205e+02
   5.244982e+01  -8.867287e+01
   1.723494e+02   1.434482e+01
   1.922443e+02   8.831014e+01
   2.592027e+01   1.217576e+02
  -8.447380e+01   8.385253e+01
  -1.465936e+02   3.109135e+01
  -2.603580e+01  -3.840932e+01
   1.570250e+01  -8.952701e+01
   7.282177e+01  -3.027208e+01
  -1.547057e+01   2.533791e+01
  -1.150226e+01   1.278735e+01
   1.672526e+01  -3.067382e+01
   8.203311e+01  -4.658449e+00
   1.484409e+02   7.198065e+01
  -7.770029e+01   2.256600e+02
  -1.004255e+02   1.275627e+02
  -2.304594e+02   2.357301e+01
  -2.215787e+02  -1.317753e+02
   5.731379e+01  -2.061584e+02
   7.781784e+01  -1.542458e+02
   7.259275e+01   8.135738e+00
   3.020573e+01   1.538295e+01
   3.247091e+01   3.722432e+01
  -8.851933e+00  -4.973757e+01
   5.940186e+01   3.962699e+01
   8.597578e+01   1.060019e+01
   2.489486e+00   1.347557e+02
  -8.849587e+01   9.637296e+01
  -1.199900e+02  -8.255281e+01
   5.345727e+01  -1.176967e+02
   1.722893e+02  -3.327356e+01
   1.797154e+02   4.495096e+01
   9.994908e+01   2.084996e+02
  -1.282013e+02   2.037117e+02
  -2.236454e+02   1.182221e+02
  -1.815846e+02  -7.816860e+01
  -7.587890e+01  -1.090454e+02
   4.915781e+01  -1.082111e+02
   1.046129e+02  -5.030334e+01
   2.885675e+01  -4.031763e+01
   1.312732e-01  -1.109829e+02
   5.769753e+01  -4.408651e+01
   1.224695e+02  -3.395362e+00
   8.822766e+01   8.817937e+01
   4.064859e+01   1.920190e+02
  -7.394410e+01   1.229383e+02
  -1.502485e+02   2.931594e+01
  -8.782315e+01  -4.852584e+01
  -5.973220e+00  -1.175233e+02
   6.749351e+01  -2.488914e+01
   2.030380e+01  -1.722601e+01
   2.382082e+01   7.862678e+01
  -5.018331e+01   6.582711e+01
  -1.230578e+01  -5.909052e+00
   1.026143e+02   9.345559e+01
   2.892713e+01  -3.353337e+01
  -4.468886e+01  -1.184744e+01
  -1.364646e+02  -2.926547e+01
  -9.637058e+01  -1.719413e+01
  -3.299814e+01  -1.211001e+02
   1.245576e+02  -2.314207e+01
   1.107733e+02  -2.011518e+01
   3.217813e+01   7.114930e+01
  -1.833997e+01   8.051863e+01
  -1.675429e+01  -2.634540e+01
  -1.002289e+02  -5.687888e+01
   4.197169e+01  -5.239775e+01
   3.955243e+01  -3.038293e+01
   7.550531e+01   3.655677e+01
   4.348911e+01   1.392552e+01
   8.273269e+01   8.098106e+01
   4.764218e+01  -2.786437e+01
   8.076357e+01   1.079668e+02
   2.682253e+01   1.535599e+02
  -8.494283e+01   1.243095e+02
  -1.153427e+02   5.588740e+01
  -1.165325e+02  -1.772841e+01
   1.008358e+01  -1.000986e+02
   3.600979e+01  -3.821856e+01
   6.457950e+01  -2.983732e+01
  -9.541998e+01  -5.606540e+01
  -5.033107e+01  -7.873190e+01
  -6.639971e+01  -4.091213e+01
   1.020891e+02  -5.070046e+01
   1.534522e+02  -1.918973e+01
   9.075293e+01   1.541967e+01
   3.066758e+01   5.340268e+01
   2.501651e+01  -6.034980e+00
  -1.978685e+01   4.676930e+00
  -1.221356e+00  -5.141269e+00
   5.237190e+01   7.751583e+01
   2.555467e+01   1.421095e+02
  -5.285760e+01   1.550931e+02
  -1.735733e+02   1.999958e+01
  -1.332786e+02  -8.830849e+01
  -1.944895e+01  -1.453650e+02
   7.557405e+01  -1.296011e+02
   5.158779e+01  -2.137334e+01
   8.410378e+01   8.310898e+01
   4.152133e+01   8.534376e+01
  -2.101809e+01   1.243090e+01
  -2.976094e+01  -5.518921e+01
   6.612909e+00  -5.600247e+00
   3.124713e+01  -2.409779e+01
  -2.707423e+01  -3.791993e+00
  -7.758723e+01  -7.941373e+01
  -1.861755e+01  -7.459526e+01
  -5.213875e+00   1.155604e+01
   5.234887e+01   6.304328e+00
   1.192067e+02   1.080259e+01
   4.375709e+01   6.393724e+01
  -7.056637e+01   6.244199e+01
  -3.874321e+01  -3.028635e+01
  -4.196208e+00  -1.672761e-01
   2.552434e+01  -1.830526e+01
   1.380701e+01  -1.508761e+01
  -3.242691e+01  -3.124247e+01
  -3.601372e+01  -5.784956e+01
   7.234907e+01  -5.002205e+01
   5.612830e+01   4.932715e+00
   4.539401e+01   8.617813e+01
  -9.615505e+01   1.028412e+02
  -1.418405e+02   3.968611e+01
  -1.540643e+02  -2.120404e+01
  -1.802999e+01  -1.453103e+02
   2.070772e+01  -4.228869e+01
   1.004654e+02  -3.704386e+01
   4.645799e+01   4.819774e+01
   1.182287e+01   8.614109e+01
  -8.091011e+00   1.083795e+02
  -5.625450e+00   7.307917e+00
   1.956457e+01  -1.854244e+00
   4.152357e+01   1.227474e+02
   1.308562e+01   4.786287e+01
  -3.496739e+01  -2.206527e+01
  -1.475888e+02  -9.292875e+01
   8.478723e-01  -7.773826e+01
   5.967853e+01  -4.847254e+01
   1.202272e+02   8.023677e+01
   9.671451e+00   8.949106e+01
  -8.827775e+01   2.319025e+01
  -1.135659e+02  -6.211717e+01
  -4.294246e+01  -1.628161e+01
   2.060547e+01  -5.805722e+01
   1.898668e+01  -3.383867e+01
   3.313279e+01  -1.731775e+01
  -6.408151e+01   1.111125e+00
  -3.235643e+01   7.060680e+00
   1.309795e+01  -6.761834e+01
   1.570525e+02  -6.686161e+00
   2.674239e+01  -1.018225e+01
   8.593008e+01   8.854709e+01
  -5.859097e+01   4.559071e+01
  -4.663469e+01   2.337764e+00
  -2.912936e+01  -5.677816e+01
  -4.401887e+01  -1.413934e+01
   1.299831e+01  -3.471230e+01
   1.461598e+01   8.912188e+01
   4.540336e+01   4.889062e+01
  -3.139307e+01   1.754427e+01
   3.915447e+01  -2.318046e+01
  -4.632153e+01   1.245652e+01
   1.223152e+01   5.709383e+01
  -3.061361e+01   2.363172e+01
  -3.434393e+01  -5.062173e+01
   1.022128e+01  -9.631946e+00
   5.381738e+01   4.388675e+00
   2.639975e+01   7.013472e+01
   4.151061e+01   3.899113e+01
  -3.885100e+01  -1.830483e+00
  -1.058485e+02  -3.524792e+01
   1.164224e+01  -1.160865e+01
   6.890462e+01  -7.950352e+01
   7.659748e+01   9.656143e-01
   4.778445e+01   1.581582e+01
  -2.299664e+01   5.629212e+01
  -8.083625e+01   7.593986e+01
  -2.000470e+01  -7.104179e+00
   6.861448e+01  -6.312079e+00
   3.544733e+01  -1.372878e+01
  -3.129826e+01   5.367389e+01
  -8.350384e+01   2.581047e+01
