
 $NMID
 id='ANONYMOUS ', fmtdat='(2E16.6)'
 volume=1.0
 tramp=1.0
 $END
  -2.999841e+03   7.277093e+01
  -2.050442e+03  -1.428731e+03
  -1.223695e+02  -1.925357e+03
   1.072808e+03  -1.238460e+03
   9.042376e+02  -1.966689e+02
   1.159348e+02   2.308950e+02
  -3.373785e+02  -6.501908e+01
  -1.302175e+02  -4.500371e+02
   3.780277e+02  -5.663849e+02
   5.859847e+02  -1.633503e+02
   4.420252e+02   4.876516e+02
  -1.179038e-01   6.117054e+02
  -2.709962e+02   2.141993e+02
  -2.416080e+02  -3.292500e+02
   1.041237e+02  -4.903156e+02
   3.292697e+02  -1.172090e+02
   2.892258e+02   4.173181e+02
  -5.876504e+01   5.576944e+02
  -4.450689e+02   2.581293e+02
  -4.661873e+02  -1.714098e+02
  -1.309472e+02  -3.208980e+02
   1.146916e+02  -2.361183e+02
   6.156314e+01  -1.282442e+01
  -1.741484e+02  -6.527499e+01
  -2.260948e+02  -2.619437e+02
  -4.726629e+00  -3.009736e+02
   4.095852e+02  -1.878392e+02
   5.535233e+02   1.894691e+02
   2.103389e+02   3.381796e+02
  -2.972636e+02   1.729595e+02
  -4.461372e+02  -1.789058e+02
  -1.414785e+02  -2.674029e+02
   2.531719e+02  -3.034854e+02
   3.686825e+02  -1.481994e+02
   2.286383e+02   1.204132e+02
   8.239189e+01   2.505001e+02
   6.641965e-01   2.047396e+02
   6.201457e+01  -3.681928e+01
   1.769617e+02  -6.050278e+01
   2.271756e+02   1.895948e+02
   2.005068e+01   4.203641e+02
  -1.993990e+02   4.072322e+02
  -2.589943e+02   5.295618e+01
  -1.829672e+02  -2.860318e+02
   1.250731e+02  -1.261980e+02
   1.303158e+02   2.039183e+02
  -1.146867e+02   3.636517e+02
  -4.283476e+02   6.450905e+01
  -4.486531e+02  -3.030771e+02
  -1.198501e+02  -4.700315e+02
   2.363004e+02  -2.254779e+02
   4.713233e+02   1.611220e+01
   3.496018e+02   2.070176e+02
  -6.341432e+01   1.708545e+02
  -2.782715e+02   5.485735e+01
  -2.637067e+02  -8.636653e+00
  -1.752614e+01  -1.804891e+01
  -4.002766e+01   3.762189e+01
  -5.400957e+01   7.639874e+01
  -2.343298e+02  -4.421193e+01
  -1.339274e+02  -1.812413e+02
   1.117248e+02  -2.312471e+02
   2.962346e+02  -1.606586e+02
   2.050796e+02   8.147913e+01
   7.899356e+00   2.580188e+02
  -2.934177e+02   2.984225e+02
  -3.773029e+02   1.936983e+02
  -2.063738e+02  -1.554733e+02
   1.154639e+01  -3.664260e+02
   5.185567e+01  -3.055425e+02
   2.476238e+01  -1.577498e+02
   5.114034e+01  -1.030752e+02
   1.664865e+02  -1.154845e+02
   2.361666e+02  -3.183272e+01
   2.398253e+02   1.138979e+02
   9.061897e+01   2.025796e+02
  -1.688933e+02   1.224509e+02
  -1.522096e+02  -5.774151e+01
  -1.130161e+02  -2.610372e+02
   5.333449e+01  -2.310292e+02
   2.525831e+02  -5.021885e+01
   2.456045e+02   1.651450e+02
   1.454408e+02   3.125268e+02
  -3.778032e+01   2.817042e+02
  -1.584214e+02   1.640155e+02
  -1.389595e+02   5.925857e+01
  -1.460944e+02   1.143464e+02
  -2.707536e+02   2.384146e+01
  -3.901582e+02  -5.159604e+01
  -2.625170e+02  -2.942178e+02
  -2.051636e+01  -4.250380e+02
   3.383548e+02  -4.479471e+02
   4.522958e+02  -2.014780e+02
   2.569766e+02   1.070363e+02
   1.483668e+00   2.393011e+02
  -1.070022e+02   1.533490e+02
   3.352973e+00   8.940696e+00
   1.607705e+02  -1.439378e+01
   7.903217e+01   1.323723e+01
   5.350234e+01   1.389458e+02
  -6.522643e+01   1.386795e+02
  -1.070088e+02   2.276946e+01
  -1.159458e+01  -7.967129e+01
   9.404254e+01  -5.461827e+01
   1.490108e+02   1.815873e+02
  -3.553259e+01   2.673356e+02
  -1.857162e+02   1.880483e+02
  -3.976180e+02  -6.285798e+01
  -2.860764e+02  -3.041874e+02
  -3.703387e+01  -2.552712e+02
   1.146146e+02  -1.091882e+02
   1.126096e+02  -6.962108e+01
   2.662855e+01  -2.650211e+01
  -4.579328e+01  -5.722322e+01
  -1.515303e+01  -8.869937e+01
   8.983277e+01  -6.070993e+01
   1.509360e+02  -1.216207e+01
  -3.418475e+01  -3.995341e+00
  -3.682913e+01  -6.332173e+00
  -4.366857e+01  -8.203692e+01
   1.059629e+02  -6.802233e+01
   2.900227e+02   3.889154e+01
   2.475806e+02   1.615826e+02
  -2.847698e+01   2.646003e+02
  -2.223124e+02   2.305589e+02
  -1.953236e+02   8.952723e+01
  -1.679697e+02  -3.277226e+01
   5.148321e+01  -5.591683e+01
   5.423896e+01  -1.033810e+01
  -1.445731e+02   1.360512e+02
  -2.094492e+02   2.093990e+01
  -1.946399e+02  -1.311121e+02
  -6.577785e+01  -1.801291e+02
   1.278194e+02  -9.504710e+01
   9.552718e+01  -5.018310e+01
   9.078799e+01   2.505494e+01
  -5.489009e+01   6.678310e+00
   1.135294e+01  -9.020476e+01
   1.101499e+02  -1.499499e+02
   1.908721e+02   1.687215e+01
   1.875045e+02   1.274129e+02
   1.938268e+01   2.138047e+02
  -1.059979e+02   1.361271e+02
  -1.265093e+02   4.791246e+01
  -2.190304e+01  -1.251032e+02
   6.715285e+01  -8.004222e+01
   1.110656e+02  -6.780091e+01
  -1.686400e+01   1.884143e+01
  -5.121516e+01   5.307747e+01
   2.813145e+01  -8.874611e+01
   1.356550e+02   4.693840e+01
   1.128590e+02   5.877950e+01
   4.547948e+00   2.348933e+02
  -1.225882e+02   1.790454e+02
  -1.588852e+02   5.899000e+00
  -2.113436e+02  -1.274157e+02
  -7.363270e+01  -2.350713e+02
   1.085971e+02  -1.548018e+02
   1.307368e+02  -2.230119e+01
   1.269394e+02  -2.616684e+01
   5.169451e+01  -4.074877e+01
   3.447793e+01  -8.678855e+00
   1.252522e+02  -4.156404e+01
   5.355456e+01   6.020253e+01
  -7.618592e+00   1.082998e+02
  -1.137593e+02   9.246543e+01
  -6.192278e+01  -7.832986e+00
  -7.792793e+00  -1.040382e+02
   1.136202e+02  -3.809321e+01
   1.329572e+02   9.062363e+01
   1.437754e+02   2.405691e+02
  -1.098310e+02   2.087921e+02
  -2.256715e+02   1.672981e+02
  -2.337652e+02  -6.418052e+01
  -1.383792e+02  -1.451795e+02
   3.363825e+01  -1.645418e+02
   8.229199e+01  -9.098689e+01
   1.091761e+02  -9.872487e+01
   9.294443e+01  -1.069788e+02
   1.020253e+02  -8.947078e+01
   9.626178e+01   9.593439e+00
   5.195148e+01   8.098504e+01
  -2.798781e+01   2.086859e+02
  -1.168531e+02   1.495285e+02
  -1.103413e+02   1.384774e+01
  -7.255944e+01  -1.181491e+02
  -4.659996e+00  -1.442519e+02
   1.254373e+02  -7.975278e+01
   4.747358e+01   1.136001e+01
   3.941955e+00   9.679199e+01
   1.189761e+01   4.919330e+01
   2.203661e+01  -4.361474e+01
   1.017526e+02  -3.368549e+01
   5.914587e+01   1.130938e+02
  -3.410073e+01   5.498459e+01
  -1.204081e+02  -4.922525e-01
  -1.760390e+02  -7.573772e+01
   2.377814e+01  -1.299285e+02
   1.428336e+02  -8.650652e+00
   1.452775e+02   5.660313e+00
   6.534103e+01   6.220445e+01
  -4.695795e+01   1.363773e+01
  -7.585981e+01  -1.280938e+01
  -3.532839e+01  -6.687419e+01
   3.669249e+01  -7.979691e+01
   3.689870e+01   1.165957e+01
   9.293954e+01   1.334282e+02
   7.736888e+01   6.731897e+00
  -6.465341e+00   2.344417e+01
   7.443348e+01  -1.696492e+01
   5.571976e+01   5.419558e+01
  -2.667670e+01   1.686194e+02
  -8.707089e+01   1.358898e+02
  -1.303385e+02   9.067046e+01
  -1.083176e+02  -5.879109e+01
   1.644034e+01  -1.375619e+02
   1.012371e+02  -6.652924e+01
   4.196507e+01  -4.276034e+01
  -6.442057e+01   1.246854e+01
  -1.349726e+02  -5.733725e-01
  -4.355107e+01  -6.061867e+01
   1.771895e+02  -7.451756e+01
   1.715189e+02   2.125346e+01
   1.311889e+02  -1.553598e+01
   3.567903e+01   1.031011e+02
  -3.247279e+01   6.898683e+01
  -9.446408e+01  -2.771083e+01
   3.314690e+01  -5.160800e+00
   8.300437e+01  -1.014887e+01
   9.183593e+01   8.001968e+01
  -4.532050e+01   1.513436e+02
  -1.630891e+02   5.439434e+01
  -9.516160e+01  -3.633122e+01
   6.898997e+00  -1.749772e+02
   6.883852e+01  -1.295398e+02
   9.033530e+01   2.141025e-01
   4.618429e+01   1.416889e+02
  -2.725652e+01   1.124194e+02
  -7.635176e+01   1.048316e+02
  -6.220924e+01   1.253692e+01
  -2.293406e+00   5.387278e+00
  -2.634884e+01   4.188455e+01
  -2.418885e+01  -7.676864e+00
  -1.560225e+01  -8.634509e+01
  -6.869250e+01  -7.988703e+01
   1.210039e+02   2.247004e+01
   8.492602e+01   3.664103e+01
   9.335116e+01   1.309078e+02
  -1.287942e+01   1.789114e+01
  -6.596879e+01   1.825934e+01
  -3.330711e+01  -9.533458e+00
  -1.469452e+01  -1.853093e+01
   3.778245e+01  -2.494364e+01
   1.707983e+01  -7.514210e+01
   3.914973e+00  -4.535282e+01
   1.240400e+00   6.732273e+01
   5.558052e+01  -5.017654e+01
   6.707148e+01  -2.083541e+01
   2.498581e+01   1.097255e+02
  -1.054703e+02   1.471899e+02
  -1.528420e+02   7.945958e+01
  -1.306738e+02  -7.271369e+01
  -4.748846e+01  -1.836395e+02
   1.010417e+02  -1.582678e+02
   1.298734e+02  -6.618800e+01
   8.139379e+01  -1.477909e+00
   9.938233e-01   1.252830e+01
  -1.133177e+01   1.972741e+01
  -2.691291e+01   1.422007e+01
   9.635906e+01   3.016625e+01
   6.972707e+01   6.019833e+01
  -5.910115e+01   7.871628e+01
  -7.173738e+01  -2.416444e+00
  -7.023094e+01  -8.416439e+01
   6.443993e+00  -9.585538e+01
   6.604765e+01  -3.540739e+00
   8.985870e+01   1.159603e+02
   7.261386e+01   1.160211e+02
  -7.159154e+01   3.997971e+01
  -8.989770e+01  -2.815942e+01
  -8.670285e+01  -6.181328e+01
   2.253141e+01  -7.022581e+01
   2.191981e+01  -4.545476e+00
  -3.222994e+01  -1.665434e+01
  -4.866414e+01   4.346238e+01
  -4.341383e+01  -3.285088e+01
   8.719518e+01  -6.624469e+01
   1.313149e+02  -8.565089e+01
   1.263719e+02   2.952302e+01
   3.542064e+00   1.060459e+02
  -4.417297e+01   6.762588e+01
  -2.765197e+01  -4.472903e+00
  -2.758507e+00  -1.030505e+02
   2.241904e+01  -1.558038e+01
   1.641849e+01  -5.745392e+00
   6.924039e+01  -2.100443e+01
   1.146286e+01   7.479795e+01
  -3.405226e+01   4.479318e+01
  -4.510521e+01  -2.458087e+01
  -1.977667e+01  -2.466443e+01
  -2.852708e+01   1.543479e+01
   1.448164e+01   2.134013e+01
   9.557266e+00  -8.593604e+01
   3.759425e+01  -6.191430e+01
   3.346796e+00   1.634433e+00
   4.439444e+01   1.729207e+01
  -2.842266e+01   6.849577e+01
   1.597080e+00   2.768695e+01
  -7.674970e+01   2.500777e+00
  -7.517574e+00  -1.011332e+02
   7.356588e+01  -2.998317e+01
   1.099772e+02   1.080575e+01
   2.648073e+01   9.313089e+01
  -5.158219e+01   2.523882e+01
  -2.149912e+01   4.109838e+01
  -9.488240e+01  -1.523333e+01
   1.631102e+01  -1.085351e+01
   1.083025e+02   4.932927e+01
   1.806116e+01   5.716083e+01
  -1.072434e+02   2.885622e+01
