
 $NMID
 id='ANONYMOUS ', fmtdat='(2E16.6)'
 volume=1.0
 tramp=1.0
 $END
   2.237615e+03   4.430511e+01
   1.477501e+03   1.164708e+03
  -8.656958e+00   1.453323e+03
  -8.857855e+02   7.950162e+02
  -6.683170e+02   1.872799e+02
  -2.653875e+01  -9.369702e+01
   2.325981e+02   1.297810e+02
   2.032886e+01   3.404204e+02
  -3.360098e+02   4.317478e+02
  -4.744187e+02   7.534703e+01
  -2.947675e+02  -3.687494e+02
   2.693129e+01  -4.267859e+02
   1.772556e+02  -1.143291e+02
   1.570262e+02   2.762405e+02
  -7.373973e+01   4.161662e+02
  -2.810615e+02   3.110920e+01
  -2.942056e+02  -3.097495e+02
   6.145124e+01  -4.346052e+02
   3.695612e+02  -1.972068e+02
   3.351136e+02   1.243332e+02
   5.686894e+01   3.110266e+02
  -6.242429e+01   2.078279e+02
  -1.416074e+01   2.347548e+01
   1.406569e+02   7.955796e+01
   1.793761e+02   2.571129e+02
  -3.836619e+01   2.653474e+02
  -3.971685e+02   1.136173e+02
  -4.018180e+02  -8.400392e+01
  -1.371836e+02  -2.840682e+02
   2.712463e+02  -1.600891e+02
   3.404494e+02   1.465661e+02
   9.949661e+01   2.905605e+02
  -2.380737e+02   2.199843e+02
  -3.294652e+02   7.234228e+01
  -2.738526e+02  -1.101980e+02
  -1.070243e+02  -2.595730e+02
   1.882146e+01  -1.100662e+02
  -3.770978e+01   2.851348e+01
  -1.438736e+02   1.126059e+02
  -1.210308e+02  -1.585775e+02
  -4.292583e+00  -3.668910e+02
   2.069084e+02  -3.201195e+02
   2.446830e+02  -3.313416e+01
   7.753756e+01   2.001282e+02
  -7.443274e+01   5.112529e+01
  -9.687143e+01  -1.472651e+02
   4.427025e+01  -2.764348e+02
   2.893777e+02  -6.444717e+00
   3.701826e+02   2.632617e+02
   9.235742e+01   3.253348e+02
  -2.340769e+02   2.020519e+02
  -3.869190e+02  -5.968607e+01
  -2.204425e+02  -1.697799e+02
   4.518501e+01  -1.776065e+02
   2.120532e+02  -8.934359e+00
   1.588054e+02   2.960130e+01
   4.828994e+01   4.916333e+00
  -2.158860e+01  -2.720119e+01
   1.453128e+01  -8.129444e+01
   2.129173e+02   1.102469e+02
   1.110012e+02   1.658689e+02
  -9.850254e+01   2.382448e+02
  -2.564159e+02   1.360328e+02
  -2.089612e+02  -7.948246e+01
  -8.046298e-01  -2.718630e+02
   1.803308e+02  -2.575189e+02
   2.737548e+02  -1.624538e+02
   1.029910e+02   6.685132e+01
   1.828536e+01   2.100225e+02
  -1.390331e+01   2.901072e+02
  -1.630732e+01   4.731340e+01
  -5.658059e+01   1.010559e+02
  -1.181584e+02   7.951210e+01
  -1.439191e+02   3.592881e+01
  -2.044493e+02  -6.184381e+01
  -8.394989e+01  -1.763431e+02
   2.555874e+01  -1.062059e+02
   1.169224e+02   5.651672e+01
   6.769515e+01   1.312600e+02
  -2.631137e+01   1.917211e+02
  -2.183800e+02   2.979049e+01
  -1.963265e+02  -1.216477e+02
  -1.871877e+02  -1.891704e+02
  -1.106542e+01  -1.984971e+02
   1.995188e+02  -7.759335e+01
   1.310539e+02  -2.029714e+01
   1.273134e+02  -3.257583e+01
   2.239695e+02  -6.401996e+01
   2.580929e+02   6.872561e+01
   2.340689e+02   2.088633e+02
   2.406416e+01   2.988369e+02
  -2.690211e+02   2.782474e+02
  -2.857774e+02   1.486310e+02
  -2.823145e+02  -5.736222e+01
   3.029216e+01  -2.144672e+02
   8.967499e+01  -1.552404e+02
   6.318122e+00  -1.420079e+01
  -6.353741e+01   1.714968e+01
  -5.325612e+01   5.333877e+00
  -1.614300e+01  -9.901040e+01
   7.590868e+01  -7.233092e+01
   3.390142e+01   7.666740e+01
  -1.425278e+01   7.036112e+01
  -1.395099e+02  -5.703221e+01
  -1.104267e+02  -1.304877e+02
   2.591805e+01  -2.397949e+02
   1.944316e+02  -1.834251e+02
   2.030117e+02   8.290513e+01
   1.648775e+02   1.702646e+02
   3.218081e+01   2.142001e+02
  -1.439098e+02   7.088014e+01
  -1.045255e+02   1.466102e+01
  -6.681998e+01   2.250748e+01
   6.906551e+01   1.905265e+01
   5.288719e+01   2.161797e+01
  -1.709448e+02   5.998506e+01
  -1.442364e+02   4.489549e+00
   3.867003e+00  -9.575909e+01
   8.164433e+01  -3.778807e+00
   1.411263e+01   5.503413e+01
  -1.454394e+02   3.669758e-01
  -2.370233e+02  -1.018744e+01
  -2.658368e+02  -1.171776e+02
   9.201508e+00  -1.531309e+02
   1.856813e+02  -1.328239e+02
   2.208250e+02  -5.068913e+01
   1.947237e+02   2.370615e+01
  -4.228634e+01   5.018152e+01
   1.047181e+00  -3.439597e+01
   2.477170e+01  -3.665983e+01
   1.113716e+02  -4.732244e+01
   1.415149e+02   6.860596e+01
   6.825944e+01   1.404837e+02
  -4.636532e+01   8.860416e+01
  -7.511549e+01   4.574139e+01
  -4.790125e+01  -8.462929e-01
   3.230473e+01  -4.765782e+01
   8.703976e+00   5.998421e+01
  -5.624375e+01   7.471855e+01
  -1.662417e+02   1.596419e+01
  -1.667504e+02  -1.205153e+02
   9.662566e+00  -1.794545e+02
   1.134277e+02  -1.293967e+02
   1.459246e+02  -2.217056e+01
   2.066952e+01   8.692677e+01
  -1.238197e+02   9.849463e+01
  -8.204270e+01   8.198494e+01
   7.336119e+00   4.907511e+00
   8.475565e+01  -3.455686e+01
   6.269622e+01   6.189843e+01
  -5.976821e+01   1.203405e+01
  -5.040371e+01  -4.542727e+01
  -2.314959e+01  -1.071323e+02
   9.188069e+01  -1.071205e+02
   1.562662e+02   1.279835e+01
   1.098817e+02   1.232133e+02
   3.681607e+01   1.137945e+02
  -1.284851e+02   1.327728e+02
  -6.913331e+01   5.635846e+01
  -2.267720e+01  -2.952272e+01
   5.759223e+00  -3.815216e+01
  -3.595609e+01  -5.663377e+01
  -4.116288e+01   4.105870e+01
  -2.760837e+01  -2.098907e+01
   3.738528e+01  -1.021071e+02
   1.223107e+02  -8.031646e+01
   5.841451e+01   2.062332e+01
  -4.676582e+01   1.096716e+02
  -1.561172e+02   4.429535e+01
  -9.810793e+01  -8.918719e+01
  -2.050036e+01  -1.579683e+02
   5.558916e+01  -8.178071e+01
   1.682812e+02  -1.099837e+01
   1.831018e+02   1.425011e+01
   1.006831e+02   1.776145e+02
  -9.372627e+01   7.428329e+01
  -2.945953e+01  -8.448068e+00
  -3.134259e+01   4.260242e+01
  -7.734332e+01   7.338831e+01
  -9.809479e+01   4.905260e+01
  -7.358188e+01   7.185898e+01
  -1.003821e+02  -1.055724e+02
  -6.777029e+00  -1.878793e+02
   9.826237e+01  -1.205234e+02
   1.075844e+02  -1.440580e+01
   2.874119e+01   1.519874e+02
  -2.926537e+01   9.474336e+01
  -7.493612e+01   7.049141e+01
  -1.029281e+02  -2.201861e+01
   2.221345e+01  -3.791698e+01
   1.745571e+01  -6.932424e+01
  -6.023633e+00  -6.999133e+00
  -9.238781e+00   2.387058e+01
  -2.458467e+01  -2.399162e+01
   3.898787e+01  -1.102241e+01
   9.095890e+01  -7.409173e+00
   1.272005e+02   2.755414e+01
   1.723031e+01   7.384608e+01
  -1.238578e+02  -1.791912e+01
  -8.770203e+01   3.270503e+00
  -2.666196e+01  -2.116034e+01
   2.971128e+01  -5.183617e+01
   7.620519e+01   8.340669e+00
   7.542492e+00   8.288417e+01
  -5.838308e+01   1.660009e+01
  -4.517030e+01  -2.294061e+01
  -6.241463e+01  -1.421717e+01
  -6.881125e+01  -3.989844e+01
  -7.521174e+01   5.085613e+00
  -1.157872e+01   5.929703e+00
  -3.801048e+01  -9.787112e+01
   6.632429e+01  -1.417242e+02
   7.532063e+01  -1.549336e+02
   1.094131e+02  -2.365571e+01
   2.517748e+01   1.056818e+02
  -3.897665e+01   1.289865e+02
  -1.128238e+02   1.562144e+01
  -5.339671e+01  -6.401725e+01
  -8.497961e+00  -2.016086e+01
   1.156276e+02  -1.393947e+01
   3.443441e+01   9.558452e+01
  -7.943811e+01   7.784363e+01
  -1.409153e+02   1.785985e+01
  -1.211356e+02  -4.218420e+01
   1.959255e+01  -1.616418e+02
   4.566698e+01  -4.224456e+01
   2.790627e+01   1.738304e+01
  -1.328578e+01   3.451293e+01
  -7.892563e+01  -1.609946e-01
  -1.578260e+01  -9.617596e+01
   6.351364e+01  -1.137083e+02
   1.300780e+02  -4.105450e+01
   6.693473e+01   3.255454e+01
   4.535997e+01   7.019130e+01
  -1.137986e+02   6.697920e+01
  -9.547790e+01   4.474875e+01
  -5.914926e+01  -5.874674e+01
   1.392097e+01  -1.619264e+01
   3.819143e+01  -1.112698e+01
   1.036124e+01   1.612971e+01
   4.911846e+01  -3.326859e+01
  -2.769711e+01   2.323454e+01
  -6.292285e+00   7.669150e+00
  -2.049072e+01   2.251263e+01
   7.890286e+01   8.518361e+01
   1.147600e+01   5.688667e+01
  -1.351536e+02   6.066540e+00
  -6.542133e+01  -8.200072e+01
  -4.271233e+01  -8.371231e+01
   7.912735e+01  -3.394596e+01
   5.909965e+01  -2.504121e+01
   2.573166e+00  -2.602835e+01
   1.591299e+01  -1.069449e+01
  -1.081832e+01   5.718521e+01
  -4.067897e+00  -1.307133e+01
  -1.613189e+01  -7.855964e+01
  -8.413766e+01  -1.615742e+01
  -6.053886e+01  -4.119268e+01
  -3.815257e+01  -1.026116e+02
   4.622464e+01  -8.224772e+01
   1.589891e+02  -1.024529e+01
   1.389407e+02   5.294982e+01
  -4.121507e+01   8.814412e+01
  -6.976011e+01   8.900077e+01
  -8.474815e+01   3.451386e+01
  -2.238309e+01  -4.907193e+01
  -5.780567e+01  -5.291629e+01
  -2.362303e+01   6.148440e+01
   2.326649e+01  -2.310138e+01
  -2.678950e+01  -2.244148e+01
  -4.486917e+01  -6.633739e+01
  -5.383486e+01  -7.230283e+01
   7.021823e+01   3.636603e+01
   5.084134e+01   9.719540e+01
  -1.539800e+01   5.504774e+01
  -5.496651e+01  -7.142303e+01
  -1.388261e+02  -1.960888e+01
  -4.671358e+01  -7.922895e+01
   3.360130e+01  -4.316046e+01
   4.863317e+01  -3.407077e+01
   4.493983e+01   6.285761e+01
  -7.297382e+01   4.849781e+01
  -2.262623e+01  -2.161296e+01
   9.599774e+01  -2.404752e+01
   2.703220e+01   4.493060e+01
   4.654532e+01  -5.518842e+00
  -6.067726e+01   2.791645e+01
  -8.607394e+01   4.704180e+00
  -6.730677e+01  -4.023732e+01
  -8.454900e+00  -4.563392e+01
   5.918705e+01  -7.149189e+01
   8.294810e+01  -4.001271e+01
  -6.689539e+00   2.173943e+00
   1.363831e+01   1.012911e+01
  -8.915496e+00   8.451398e+00
  -4.345907e+00   6.137687e+00
   2.471943e+01  -2.223873e+01
   6.236000e+01   4.335727e+01
   1.133710e+01   7.706449e+01
   4.608913e+00   1.587264e+01
   1.693454e+01   1.334213e+01
   1.097283e-01  -1.144412e+00
  -3.306664e+00   3.314291e+01
  -2.391710e+01   5.550999e+01
  -1.034642e+01   2.363787e+01
  -5.272193e+01  -2.932889e+01
  -4.757400e+01  -8.945674e+01
  -4.188118e+01  -8.608287e+01
   4.202225e+01   6.080097e+01
  -9.492578e+00   2.771945e+01
  -2.055813e+01   2.261730e+01
  -6.733742e+01   1.635423e+01
  -7.705186e+01   8.383672e+00
   2.754431e+01   5.148951e+00
   6.593751e+01  -2.568215e+01
   3.668911e+01  -3.804952e+01
  -4.381359e+01   1.439699e+01
   6.129334e+00  -3.495423e+01
  -2.969497e+01  -2.200629e+01
   7.072282e+01   1.144362e+01
