
 $NMID
 id='ANONYMOUS ', fmtdat='(2E16.6)'
 volume=1.0
 tramp=1.0
 $END
  -2.440553e+03   4.546573e+01
  -1.764368e+03  -1.100949e+03
  -2.813592e+02  -1.491999e+03
   7.628174e+02  -1.125043e+03
   7.953744e+02  -3.555483e+02
   1.661250e+02   2.483127e+01
  -1.353091e+02   6.177209e+01
  -1.308025e+02  -3.268878e+02
   2.522394e+02  -4.394196e+02
   4.550371e+02  -1.830217e+02
   3.716045e+02   3.315541e+02
   6.175440e+01   4.713554e+02
  -1.416711e+02   1.391882e+02
  -1.625478e+02  -1.694158e+02
   5.781149e+01  -3.937831e+02
   2.521181e+02  -1.385490e+02
   3.595001e+02   3.214028e+02
  -5.384081e+01   4.978349e+02
  -3.698518e+02   2.992652e+02
  -3.956714e+02  -5.566523e+01
  -9.436990e+01  -2.845991e+02
   2.125367e+01  -2.400019e+02
  -6.140387e+00  -2.642985e+01
  -1.520264e+02  -1.185542e+02
  -2.087155e+02  -2.920444e+02
   6.086778e+01  -2.656815e+02
   4.064606e+02  -7.073465e+01
   3.845946e+02   1.441994e+02
   1.624666e+02   2.243156e+02
  -2.801782e+02   1.032711e+02
  -3.024893e+02  -1.144394e+02
  -1.177555e+02  -2.633527e+02
   2.416686e+02  -2.804819e+02
   3.680799e+02  -5.248472e+01
   1.941167e+02   1.135970e+02
   9.558908e+01   1.808301e+02
  -1.817800e+00   2.227931e+01
   7.499994e+01  -4.394520e+01
   9.331126e+01  -2.694912e+01
   1.458961e+02   1.555899e+02
  -5.965715e+01   3.425112e+02
  -1.847382e+02   2.484190e+02
  -1.825940e+02   2.680179e+00
  -6.883834e+01  -1.891759e+02
   3.864663e+01  -7.337184e+01
   8.468126e+01   2.037116e+02
  -1.098521e+02   3.109259e+02
  -3.722770e+02   1.061528e+02
  -3.649138e+02  -2.925112e+02
  -1.189833e+02  -3.647468e+02
   2.971122e+02  -1.591730e+02
   3.888330e+02   1.914909e+01
   2.786643e+02   1.442786e+02
  -3.878988e+01   1.552173e+02
  -1.674390e+02   1.211109e+02
  -1.782219e+02  -1.483187e+01
   3.457398e+01   5.508213e+01
   1.084092e+01   2.407117e+01
  -7.224741e+01   4.536360e+01
  -1.544778e+02   4.976528e+00
  -1.006585e+02  -1.530391e+02
   7.711903e+01  -1.958569e+02
   3.091981e+02  -1.677909e+02
   2.569938e+02   5.539057e+01
  -8.320085e+01   2.688747e+02
  -2.809683e+02   3.207868e+02
  -3.438647e+02   1.658445e+02
  -1.594857e+02  -1.532400e+02
   3.658658e+01  -2.831223e+02
  -3.494114e+01  -1.920546e+02
   2.337646e+01  -1.752471e+02
   2.964207e+01  -1.241995e+02
   1.601735e+02  -7.215191e+01
   2.047354e+02  -1.631418e+01
   1.445435e+02   1.311615e+02
   3.860659e+01   2.148761e+02
  -7.430311e+01   1.359536e+02
  -1.583672e+02  -1.476562e+01
  -8.082511e+01  -1.973017e+02
   3.511982e+01  -2.146769e+02
   2.282939e+02  -2.709173e+01
   2.201470e+02   1.784005e+02
   1.333335e+02   2.831403e+02
  -1.753433e+01   2.230183e+02
  -1.050067e+02   2.144727e+02
  -1.434802e+02   1.048264e+02
  -8.291895e+01   8.834984e+01
  -2.150852e+02   5.567723e+01
  -3.150018e+02  -8.750978e+01
  -2.444434e+02  -2.455296e+02
   6.891383e+01  -3.059987e+02
   3.492419e+02  -3.426422e+02
   4.043400e+02  -1.364359e+02
   2.485091e+02   1.253041e+02
   3.783298e+00   1.915345e+02
  -4.602880e+01   1.325587e+02
  -1.551220e+01   3.038306e+00
   1.050126e+02   2.425672e+01
   9.188675e+01   9.035891e+01
  -2.623929e+01   1.357151e+02
  -7.132392e+01   2.787695e+01
  -6.024254e+01  -8.420011e+01
   5.452267e+01  -9.676704e+01
   1.301808e+02  -4.841831e+00
   1.398457e+02   1.918036e+02
  -1.288134e+02   2.455942e+02
  -2.234955e+02   2.146695e+02
  -2.749302e+02   2.705543e+01
  -2.294100e+02  -1.505912e+02
  -5.496814e+01  -3.168107e+02
   9.134801e+01  -1.392762e+02
   1.126170e+02  -3.748309e+01
   2.015336e+01   1.354387e+01
  -2.408813e+01  -1.079079e+02
   4.999557e+01  -1.285810e+02
   1.306256e+02  -2.318835e+01
   1.090829e+02   1.752365e+01
  -1.523242e+01   9.981546e+01
  -2.106448e+01  -4.895807e+01
   1.564343e+00  -9.844042e+01
   1.350908e+02  -7.505053e+01
   2.364476e+02   9.814706e+00
   2.479309e+02   1.739725e+02
   2.993684e+01   2.055153e+02
  -1.987894e+02   1.538183e+02
  -1.794294e+02   3.461147e+01
  -1.165588e+02  -2.838037e+01
   5.034354e+01  -1.017147e+02
   8.057833e+01  -2.639217e+01
  -2.711809e+01   9.681659e+01
  -2.256995e+02  -1.718877e+01
  -1.339819e+02  -5.563384e+01
   1.764297e+00  -1.196535e+02
   1.265612e+02  -1.092369e+02
   7.402401e+01   3.981461e+01
   7.134712e+01   7.501043e+01
   4.617840e+01   3.159659e+01
  -1.500733e+01  -1.089795e+02
   6.963529e+01  -1.357702e+02
   2.124663e+02  -1.347756e+01
   1.266363e+02   9.997133e+01
  -1.413485e+01   1.839093e+02
  -1.551164e+02   1.431065e+02
  -1.096835e+02  -8.794071e+01
   6.016593e+00  -7.611486e+01
   6.659472e+01   2.747818e-01
   8.431371e+01  -2.346606e+01
  -7.495830e+01   2.504659e+01
  -3.376990e+01   7.129583e+00
   7.378285e+01  -6.708148e+01
   6.518449e+01  -3.015962e+01
   8.133044e+01   9.580382e+01
  -9.967184e+00   1.653138e+02
  -1.239846e+02   1.232319e+02
  -2.163984e+02  -2.671274e+00
  -8.391859e+01  -1.306789e+02
  -7.755293e+01  -1.889999e+02
   8.628443e+01  -1.064953e+02
   1.335380e+02   6.444194e-01
   6.378361e+01   1.191342e+01
   5.632251e+01   4.785850e+01
   4.779538e+01   3.576600e+01
   1.014321e+02   3.988335e+01
   1.744314e+01   4.041388e+01
  -5.343778e+01   1.291558e+02
  -1.053831e+02   7.021372e+01
  -1.043367e+02  -1.089045e+02
   2.111212e+01  -7.503488e+01
   1.318337e+02  -8.548946e+01
   1.481852e+02   2.600307e+01
   2.997015e+01   1.603373e+02
  -1.349930e+02   1.932305e+02
  -2.282884e+02   1.004856e+02
  -2.253752e+02  -1.165874e+02
  -8.420740e+01  -1.105504e+02
   3.271212e+01  -1.450909e+02
   5.751481e+01  -4.977593e+01
   8.373409e+01  -2.061764e+01
   5.252057e+01  -7.979660e+01
   1.183406e+02  -4.300415e+01
   1.610038e+02   6.585157e+01
   1.406951e+02   1.329499e+02
  -2.390527e+01   2.271158e+02
  -7.894527e+01   1.119545e+02
  -2.117808e+02   2.243546e+01
  -9.713057e+01  -9.531851e+01
   2.128359e+00  -1.777954e+02
   3.528016e+01  -6.297808e+01
   7.583792e+01  -3.049970e+00
  -7.942251e+01   2.608507e+01
  -7.649165e+01   2.863377e+01
   1.283802e+01   6.419197e+00
   1.144917e+02   1.352814e+01
   2.451422e+01  -2.467144e+01
  -9.200497e+01   4.644552e+01
  -1.695585e+02  -4.218130e+00
  -2.011280e+01   3.125945e+01
   4.494558e+01  -5.499401e+01
   1.362794e+02  -2.972475e+01
   4.293288e+01  -3.235387e+01
   2.957493e+01   2.745159e+01
  -7.211830e+01   3.960258e+01
  -9.340364e+01   2.163843e+01
  -4.268837e+01  -1.113423e+02
   2.455763e+01  -3.018108e+01
   1.111664e+02   5.739970e+00
   7.094936e+01  -5.524842e-01
   7.596375e+01   1.086936e+02
   3.151553e+01  -1.409747e+01
   5.107124e+01   5.333973e+00
   9.169988e+01   2.751056e+01
   1.108330e+01   1.332141e+02
  -1.219917e+02   1.360731e+02
  -9.587362e+01   2.287471e+01
  -1.215100e+02  -7.154383e+01
   3.707806e+00  -1.000238e+02
   1.037271e+02  -8.578068e+01
   7.937754e+00   4.744639e+01
  -6.801066e+01  -2.031218e+01
  -1.213834e+02  -1.027472e+02
  -1.244799e+02  -9.566942e+01
   4.057164e+01  -1.310561e+02
   1.135253e+02  -2.511860e+01
   3.397022e+01   7.106864e+01
   9.573468e+00   4.802424e+01
  -1.299019e+02   3.138157e+01
  -4.550159e+01  -3.029390e+01
   3.280613e+01  -8.901724e+01
   1.146620e+02   7.125545e+01
   2.170793e+01   1.102894e+02
  -1.285756e+01   1.198046e+02
  -1.165690e+02   8.431819e+01
  -1.688065e+02  -2.168271e+01
   3.985054e+01  -1.300093e+02
   3.608318e+01  -6.343421e+01
   1.265709e+02   6.788787e+01
   7.627980e+01   1.663036e+02
  -9.096756e-01   1.122433e+02
  -3.307745e+01   2.268564e+01
  -4.006053e+01  -8.325578e+01
   1.741554e-01   3.393723e+01
  -5.345122e+00   3.707548e+01
   7.849988e+00  -1.424355e+01
  -6.588016e+01  -9.188242e+01
  -4.403394e+01  -1.063927e+02
   5.126651e+01   3.810006e+00
   1.453055e+02   3.248685e+01
   9.319185e+01   3.422585e+01
  -7.252425e+01   6.240464e+01
  -3.472253e+01   4.600446e+01
  -5.809798e+01  -2.589113e+01
  -1.843403e+01   2.635861e+01
  -2.981710e+01  -5.451165e+01
   1.566548e+01   5.519671e+01
  -1.672286e+01  -6.647006e+01
  -9.804904e+00   2.086603e+01
   5.349888e+01   6.692960e+00
   8.707521e+01   3.724304e+01
  -2.526204e+01   2.024204e+01
  -6.421681e+01   1.338131e+02
  -1.751457e+02   9.341892e+01
  -1.674309e+02  -5.087326e+01
   8.633199e+00  -1.356280e+02
   3.123607e+01  -1.299839e+02
   8.988877e+01  -1.149193e+02
   8.972153e+01   9.155918e+01
   2.538730e+01   1.945232e+01
  -1.052719e+01   2.983938e+01
   4.565177e+01   1.347066e+01
   8.391047e+01   5.275647e+01
   4.261524e+01   2.477224e+01
   2.587648e+01   6.654017e+01
   3.204143e+00  -2.429319e+01
  -4.117167e+01  -9.763339e+01
  -5.335692e+01  -9.105039e+01
   3.670064e+01  -2.917808e+01
   8.501690e+01   5.996927e+01
   3.969700e+01   2.801246e+01
   7.595565e+00   4.129325e+01
  -5.283189e+01   1.991594e+01
  -4.801327e+01  -8.890401e+01
   4.064449e+01  -6.002992e+01
   7.182508e+01  -7.650693e-01
  -3.435337e+01  -1.742435e+01
  -6.159913e+01  -1.678295e+01
   7.248472e+01   2.018624e+01
   5.584126e+01  -2.808135e+01
   1.119490e+02  -5.623021e+01
   8.023207e+01   2.532553e+01
   6.995037e+00   8.157737e+01
  -7.549335e+01   9.071331e+01
  -2.949607e+01   4.088766e+01
   2.864160e+00  -1.924344e+01
  -1.620018e+01  -5.163221e+01
  -1.703825e+00   3.947468e+01
  -1.663030e+00   7.146317e+01
  -3.407764e+01   1.001615e+02
  -3.782393e+01   2.593329e+00
  -2.638824e+01  -2.438928e+01
   4.696584e+01   1.410093e+01
   1.037923e+01  -7.640107e+00
  -2.987549e+01   1.374995e+01
   5.536509e+00  -2.144358e+01
  -2.284765e+01  -1.086521e+02
   3.993013e+01  -4.399280e+01
   8.287651e+01   3.719672e+01
   2.376648e+01   6.464907e+01
  -7.202574e+01   1.118157e+01
  -5.967600e+01   6.607730e+00
  -5.115583e+01  -3.449829e+01
   2.627149e+01  -5.769467e+00
   5.664990e+01  -2.144817e+00
   2.005834e+01   3.780163e+01
  -4.180296e+01   7.751694e+01
  -5.876255e+01  -5.464329e+01
  -1.297278e+01   5.905656e+01
   8.430021e+01  -5.393791e+00
   4.885925e+01   4.493002e+01
  -4.553509e+01   1.058618e+01
  -9.097574e+01   4.264931e+01
