
 $NMID
 id='ANONYMOUS ', fmtdat='(2E16.6)'
 volume=1.0
 tramp=1.0
 $END
   2.125387e+03   1.134780e+02
   1.491784e+03   9.865636e+02
   1.624983e+02   1.241387e+03
  -6.462000e+02   9.627573e+02
  -7.170772e+02   4.266611e+02
  -1.281518e+02   2.358430e+01
   1.091877e+02  -2.452492e+01
   2.879844e+01   2.839568e+02
  -2.381500e+02   3.079404e+02
  -4.078812e+02   7.825372e+01
  -3.384728e+02  -2.088633e+02
  -5.443338e+01  -4.507677e+02
   1.187866e+02  -1.953150e+02
   1.310407e+02   1.920811e+02
  -9.842932e+01   3.741676e+02
  -2.255839e+02   4.736347e+01
  -2.253775e+02  -2.957470e+02
   6.178533e+01  -4.159324e+02
   2.944067e+02  -2.359167e+02
   3.363184e+02   8.626213e+01
   1.312406e+02   2.531271e+02
  -8.979964e+01   1.445231e+02
  -3.228906e+01   8.152750e+01
   1.883985e+02   1.637438e+02
   1.619807e+02   2.694796e+02
  -5.684825e+01   2.589684e+02
  -3.633795e+02   4.866771e+01
  -4.101548e+02  -1.950499e+02
  -8.921068e+01  -2.322941e+02
   2.590727e+02  -6.252303e+01
   3.064151e+02   8.335528e+01
  -4.077260e+00   2.340150e+02
  -2.103347e+02   2.122632e+02
  -3.663254e+02   1.051018e+02
  -2.438822e+02  -1.212219e+02
  -5.694563e+01  -1.851944e+02
  -5.228803e+01  -1.384836e+02
  -1.341296e+02   4.606582e+01
  -1.272110e+02   3.905028e+01
  -7.522335e+01  -8.850112e+01
   5.997819e+01  -3.099711e+02
   2.329367e+02  -2.872056e+02
   1.876952e+02   4.014731e+01
   2.279651e+00   1.279087e+02
  -8.528361e+01   4.221181e+01
  -8.143139e+01  -1.817517e+02
   8.701403e+01  -1.906959e+02
   3.170382e+02  -9.047028e+01
   3.209653e+02   2.488529e+02
   1.490350e+02   2.999137e+02
  -1.992005e+02   1.385393e+02
  -3.830831e+02  -4.061971e+01
  -2.192792e+02  -1.320252e+02
   6.182083e+01  -1.254933e+02
   1.891411e+02  -1.179106e+01
   1.036399e+02   2.805673e+00
   6.638587e+00  -3.535892e+01
  -5.301574e-03  -2.293416e+01
   6.658036e+01  -1.060320e+01
   1.471346e+02   4.134488e+01
   8.073722e+01   1.472089e+02
  -1.131014e+02   2.068388e+02
  -2.128758e+02   7.190526e+01
  -3.104653e+02  -5.383440e+01
  -3.654597e+01  -2.679978e+02
   2.175802e+02  -3.175308e+02
   3.016049e+02  -6.307584e+01
   2.004242e+02   1.698501e+02
   1.950787e+01   1.974941e+02
  -4.844881e+01   2.298329e+02
  -2.536116e+01   1.548877e+02
   2.268349e+00   9.967160e+01
  -1.480917e+02   2.730722e+01
  -2.405112e+02  -2.100112e+00
  -1.949446e+02  -1.080866e+02
  -7.070583e+01  -1.929477e+02
   1.141583e+02  -1.240496e+02
   1.282634e+02   2.103895e+01
   7.720288e+01   1.646662e+02
  -3.933737e+01   1.712713e+02
  -1.878792e+02  -3.475085e+01
  -2.159845e+02  -1.366619e+02
  -1.630796e+02  -2.184660e+02
   7.587855e+01  -1.633755e+02
   6.436133e+01  -4.671728e+01
   8.637567e+01   1.323511e+01
   1.145569e+02  -6.397466e+01
   2.290130e+02  -1.199455e+01
   3.343528e+02   9.160931e+01
   2.032610e+02   2.293329e+02
  -3.221736e+01   3.224956e+02
  -2.974161e+02   2.634716e+02
  -3.968359e+02   1.486709e+02
  -1.712779e+02  -6.347315e+01
  -5.181951e+01  -1.887245e+02
   8.063772e+01  -1.027296e+02
  -2.964911e+01  -3.420068e+01
  -8.066860e+01   6.097111e+01
  -8.513517e+01  -5.018322e+01
   4.943836e+00  -1.000280e+02
   7.465324e+01  -4.121942e+01
   3.440287e+01   8.074033e+01
  -3.295464e+01   7.996821e+01
  -1.458362e+02  -1.939390e+01
  -1.191742e+02  -1.897405e+02
   3.434000e+01  -2.465994e+02
   1.954876e+02  -1.342589e+02
   2.531428e+02   6.073649e+01
   2.148899e+02   1.422639e+02
  -1.910750e+01   1.986212e+02
  -7.635018e+01   1.497664e+02
  -1.751868e+02  -4.933632e+01
  -1.929238e+01   1.763475e+01
   5.617979e+01   2.460457e+01
  -4.575359e+01   9.537938e+01
  -1.412221e+02  -5.364039e+00
  -1.519993e+02  -5.160706e+01
   9.070491e+00  -4.798888e-02
   8.475708e+01   2.851654e+01
   4.763275e+00   1.652447e+00
  -9.905276e+01   6.762907e+01
  -2.733666e+02  -5.077413e+01
  -2.004673e+02  -1.060429e+02
   1.498957e+01  -1.953568e+02
   2.579764e+02  -1.938451e+02
   1.644859e+02  -9.754838e+01
   6.536926e+01   6.201975e+01
  -5.668773e+01   1.000177e+02
  -1.041559e+01  -1.380712e+01
   1.111772e+02  -5.123723e+01
   1.015363e+02  -7.080820e-01
   8.757016e+01   9.303035e+00
   2.631831e+01   9.088933e+01
  -1.028400e+02   3.142925e+01
  -4.059329e+01   7.215851e+01
  -7.311204e+01   4.072851e+00
   3.151837e+01   6.190091e+01
   3.117084e+01   9.213127e+01
  -1.146150e+02   1.424459e+02
  -1.959772e+02  -1.576251e+01
  -1.361718e+02  -1.207484e+02
   3.505967e+01  -7.850450e+01
   8.869004e+01  -1.363372e+02
   1.354491e+02  -4.203838e+01
   8.105923e+01   9.410172e+00
  -1.893352e+01   5.959755e+01
  -5.042631e+01   5.548311e+01
   2.465745e+01  -7.725851e+01
   4.535898e+01  -6.032974e+01
   4.359110e+01   2.937772e+00
  -9.592891e+01   4.789733e+01
  -1.039054e+02  -2.360284e+01
  -6.367389e+01  -1.709909e+02
   1.218028e+02  -1.315588e+02
   1.843643e+02  -5.341574e+00
   1.295736e+02   2.124348e+02
   6.622955e+01   1.632111e+02
  -5.853778e+01   1.219725e+02
  -1.092562e+02  -2.104391e+01
  -9.506761e+01  -2.092938e+01
  -4.374645e+01  -3.549335e+01
  -1.609155e+01  -3.574129e+00
  -3.686659e+01   2.761476e+01
  -1.323324e+01  -4.940415e+01
   3.806789e+01  -7.825990e+01
   1.245384e+02  -8.131384e+01
   1.137101e+02   6.589824e+01
  -7.786978e+01   1.491640e+02
  -1.097702e+02   5.722845e+01
  -1.493358e+02  -4.120487e+01
  -3.668724e+01  -1.577095e+02
   1.013814e+02  -1.508200e+02
   2.007889e+02  -5.174940e+01
   1.284375e+02   7.426942e+01
   8.054537e+01   1.087129e+02
  -4.429593e+01   8.149536e+01
  -8.991162e+01   6.072756e+01
  -5.236356e+01   4.506332e+01
  -1.665946e+01   5.710852e+01
  -4.446923e+01   4.233688e+01
  -1.063180e+02   5.557387e+01
  -6.038015e+01  -1.385484e+02
  -2.093255e+01  -2.159152e+02
   6.168676e+01  -1.335792e+02
   9.845413e+01   8.148980e+01
   1.093459e+02   1.396939e+02
   4.927351e-01   8.948980e+01
  -1.394329e+01   7.314746e+01
  -3.185841e+01  -6.801922e+01
   4.932275e+01  -7.360664e+01
   5.353132e+01   7.707025e+00
   1.793459e+00   5.552952e-01
  -6.344692e+01   1.420455e+01
  -2.341595e+01  -6.807887e+01
  -3.007023e+01  -2.728869e+01
   1.253739e+02   3.427185e+01
   1.480635e+02   7.909304e+01
  -7.857766e+00   3.489913e+01
  -1.862454e+02   1.090323e+02
  -1.330068e+02  -7.139219e+01
  -9.302623e+00  -8.567431e+00
   5.141092e+01  -3.089821e+01
   5.035902e+01   1.032447e+01
   4.119125e+01   2.227623e+01
  -3.731741e+01   9.394945e+01
  -6.080886e+01  -2.060951e+01
  -2.545170e+01  -1.568849e+01
  -6.660320e+01  -2.819081e+01
  -8.011021e+01  -2.921103e+01
  -7.676766e+01  -5.889304e+00
  -7.419471e+01  -8.191300e+01
  -3.358049e+00  -1.255554e+02
   1.249385e+02  -1.624030e+02
   1.293908e+02  -4.774821e+01
   9.573706e+01   9.383470e+01
  -1.156949e+01   1.368059e+02
  -5.159017e+00   5.962842e+01
  -3.471349e+01   8.789328e+00
   8.401919e+01  -3.155798e+01
   8.991724e+01   2.253849e+01
  -1.221521e+01   2.203797e+01
  -1.069250e+02   4.709668e+01
  -1.364739e+02  -3.634286e+01
  -1.359308e+02  -6.798552e+01
  -1.912131e+01  -6.999432e+01
   8.638670e+01   4.966371e+00
   6.675956e+01   3.836001e+00
  -6.432421e+01   2.518275e+01
  -6.481822e+01  -3.325372e+01
  -3.553061e+01  -4.350427e+01
   6.842044e+01  -8.634290e+01
   7.875738e+01   2.731516e+00
   6.505384e+01   4.543633e+01
   3.516944e+01   1.768831e+02
  -7.627846e+01   1.300123e+02
  -6.184229e+01  -1.892606e+01
   3.892344e+01  -6.325556e+01
   4.057186e+01  -4.955296e+01
   9.052863e+01   1.669882e+01
  -2.690938e+01   4.191447e+01
   4.201309e+00  -3.258142e+01
   3.190085e+01  -1.004412e+01
   3.221106e+01   2.136348e+00
  -4.370971e+00   4.618458e+01
   7.251073e+00   6.930311e+01
  -3.143443e+01   2.816705e+01
  -6.316158e+01  -4.992850e+01
  -7.480971e+01  -7.186059e+01
  -8.627472e+00  -5.289080e+01
   5.305769e+01  -2.652399e+01
   4.999621e+01   4.747286e+00
  -4.454544e-01   2.211483e+01
  -2.095996e+00   3.558969e+01
   3.235588e+01  -3.069152e+01
   1.900465e+01  -2.571051e+01
  -4.454577e+01  -6.632489e+01
  -2.244137e+01  -1.895994e+01
  -1.665309e+02  -7.318553e+01
  -3.954145e+01  -2.255042e+01
   5.372082e+01  -1.291838e+02
   1.447591e+02  -1.047052e+01
   1.280631e+02   1.429693e+01
   3.391923e+01   8.978415e+01
  -7.452527e+01   1.023021e+02
  -1.620654e+02   7.911045e+01
  -1.385078e+01  -1.514133e+01
   1.329865e+00  -3.601306e+01
  -1.334231e+01  -1.677950e+01
  -4.596597e+00   2.340070e+01
  -8.450592e+01  -4.208702e+01
  -3.903232e+00  -2.984402e+01
   4.077346e+01  -2.185341e+01
   4.166405e+01   2.132719e+01
   1.466435e+01   2.246768e+01
  -2.014812e+01   6.224853e+01
  -8.053376e+01  -4.357735e+00
  -1.031280e+02  -3.736830e+01
  -2.085097e+01  -5.115912e+01
   4.346931e+01  -9.488485e+01
   7.315384e+01  -5.685588e+01
  -1.976772e+01   4.937161e+01
  -2.594203e+01   9.109482e+01
  -3.172930e+01   3.798817e+00
   3.818600e+01  -5.962204e+01
   4.580822e+00  -2.152018e+01
   2.528873e+01   2.330124e-01
  -1.706680e+01   6.449569e+01
  -1.020654e+02   1.883710e+01
  -4.804486e+01   1.269946e+01
   1.189354e+01  -5.649382e+01
   1.301047e+01  -1.289330e+02
   2.296010e+01   6.859020e+01
  -1.009727e+01   6.034352e+01
   2.386243e+01   8.492531e+01
   8.223180e+01   2.318824e+01
  -6.620304e+01  -4.519785e+01
  -3.108411e+00  -2.073355e+01
  -9.117082e+00  -6.115733e+00
   1.818834e+01   4.106839e+01
  -1.247297e+01   3.485747e+01
   1.455472e+00  -2.890504e+01
   3.795513e+01  -4.492527e+01
  -1.231092e+01   4.289224e+01
   3.040413e+01  -6.451617e+00
  -2.601475e+01  -1.688584e+01
  -5.838204e+01  -3.792860e+01
  -1.621700e+01  -7.259300e+01
   2.338632e+01   5.723159e+00
   3.383479e+01   4.930012e+01
   4.641821e+01   4.779550e+01
  -2.053485e+01   5.798898e+01
  -3.320205e+01  -1.940112e+01
  -4.695092e+01  -8.244428e+01
   2.999004e+01  -3.545613e+01
   8.351926e+01  -5.129487e+01
   5.720517e+01  -2.838700e+01
  -2.252859e+01   2.489827e+01
   3.840936e+01   3.781604e+01
   1.515474e+01  -1.889702e+01
  -1.279117e+01  -6.726004e+01
