
 $NMID
 id='ANONYMOUS ', fmtdat='(2E16.6)'
 volume=1.0
 tramp=1.0
 $END
  -5.798539e+02   2.710476e+01
  -4.229141e+02  -2.339595e+02
  -9.363665e+01  -3.266132e+02
   2.151907e+02  -3.261260e+02
   2.073641e+02  -8.098910e+01
   9.427967e+01   4.228911e+01
  -1.200188e+01   4.134419e+01
  -3.175616e+01  -8.664889e+01
   6.462055e+01  -1.107311e+02
   6.905506e+01  -1.310080e+00
   5.407158e+01   8.606573e+01
   4.070075e+01   1.092188e+02
  -2.536221e+01   7.184365e+01
  -9.822792e+01  -3.932649e+01
   1.840424e+01  -5.692040e+01
   8.067445e+01  -4.674292e+01
   9.490557e+01   5.710270e+01
  -1.311297e+01   1.546043e+02
  -1.651293e+02   1.439954e+02
  -6.993927e+01  -2.406555e+01
  -2.855140e+01  -9.504031e+01
   2.345992e+01  -6.113327e+01
  -2.641704e+01   1.163594e+01
  -3.809870e+01  -5.866802e+01
  -8.378754e+01  -5.111352e+01
  -1.317397e+01  -8.807003e+01
   6.464934e+01  -1.336165e+00
   8.403523e+01   7.362409e+01
  -2.531411e-01   6.330006e+01
  -4.076722e+01   5.485180e+01
  -5.215423e+01  -4.390562e+00
   2.317101e+01  -3.124051e+01
   7.133512e+01  -4.868511e+01
   7.702163e+01  -4.601281e+01
   4.494745e+01   1.195261e+01
   1.476573e+01  -1.257705e+01
   2.535324e+01   3.733535e+01
   3.250453e+01   2.046423e+01
   1.078701e+01   1.209030e+01
   1.963564e+01   1.633097e+01
   2.124380e+01   6.565338e+01
  -8.345219e-01   6.366780e+01
  -8.577839e+01   6.988261e+00
  -5.852850e+01  -3.843020e+01
   1.510274e+01  -6.727242e+00
   2.312119e+01   5.158466e+01
   4.630676e+00   1.136029e+02
  -1.166544e+02  -2.646911e+00
  -8.432661e+01  -7.684169e+01
  -3.508622e+01  -5.839710e+01
   8.403051e+01  -2.524196e+01
   9.354767e+01  -5.157115e+01
   4.668638e+01   9.373948e+01
   9.048755e+00   2.049558e+01
  -4.085582e+01   2.672549e+00
  -4.853484e+01   5.280129e+01
  -5.134984e+01   2.149217e+01
  -9.848029e+00   3.001555e+01
   2.858106e+01   3.048998e+01
  -3.699720e+01  -3.381824e+01
  -1.584092e+01  -5.981412e+01
   5.355881e+01  -5.488121e+01
   8.723966e+01  -7.279162e+01
   9.320269e+01   6.803852e+01
  -5.340614e+01   5.078668e+01
  -5.730976e+01   9.347714e+01
  -9.039816e+01  -4.260894e+00
  -4.181569e+01  -4.363361e+01
  -4.248230e+01  -6.932806e+01
   3.196148e+01  -7.441403e+01
  -1.371212e+01  -9.961736e+01
  -1.133305e+01  -7.479526e+01
   7.059844e+01  -1.152680e+02
   9.323518e+01   4.873142e+00
   4.821810e+01   1.874899e+01
   6.001528e+01   3.667757e+01
   7.277455e+00   9.579175e+01
   7.720639e+00  -6.486530e+01
  -3.087404e+01  -3.406308e+01
   3.579352e+01  -1.788767e+01
   2.063771e+01  -2.997193e+01
   7.501586e+01   3.452960e+01
   5.392959e+01  -1.498836e+01
  -2.987489e+01   6.510780e+01
  -5.519842e+01   3.399553e+01
  -7.839561e+01   3.626287e+01
  -4.162102e+01  -1.312986e+01
  -8.890356e+01  -1.604131e+01
  -8.208303e+01  -5.158607e+01
  -1.404423e+02  -9.829564e+01
  -3.090069e+01  -6.564999e+01
   1.162727e+02  -7.501222e+01
   1.114929e+02   1.058872e+01
   4.448445e+01   3.137377e+01
   6.809086e+00   9.629820e+01
  -3.522936e+00   9.163815e+01
   3.636479e+01  -2.626479e+01
   7.823625e+00   3.946869e+01
   6.005759e+01   7.333277e+00
   3.465296e+01   1.031094e+01
   1.391615e+01  -8.615302e+00
   7.246559e+00   1.686283e+01
   4.572737e+01   4.850305e+01
   4.079859e+01  -1.352274e+01
   6.362926e+01   5.580349e+01
  -1.073507e+01   1.177703e+02
  -3.726171e+01   7.624043e+01
  -7.707312e+01  -2.048006e+01
  -7.225859e+01  -8.582458e+01
   4.357454e+01  -3.493189e+01
   2.845267e+01  -8.085183e+01
  -3.569879e+01   9.383670e+00
   3.159281e+01   7.419973e+00
   6.157399e+01  -1.091606e+01
  -1.826664e+01  -4.477152e+01
   3.083572e+01   4.312580e+01
   4.966173e+01   3.787234e+01
  -3.175661e+01   2.281552e+01
  -4.812557e+01  -4.114528e+01
   4.504305e+01  -5.873014e+00
   1.727143e+01  -9.844071e+01
   7.283637e+01   2.707063e+01
   9.899746e+01   5.307631e+01
  -2.180301e+01   7.758558e+01
  -6.253609e+01  -3.338216e+00
  -4.665638e+01   6.900444e+01
   1.464579e+01   3.738412e+01
  -2.167890e+01  -2.664652e+01
   2.463361e+01  -4.977609e+01
  -2.064914e+01  -3.755409e+01
  -7.199518e+01   3.991350e+00
  -7.411905e+01  -1.173183e+01
  -4.696489e+01  -2.020202e+01
  -2.527504e+01  -3.539269e+01
   4.085891e+01  -3.062372e+01
  -4.999518e+01   2.860308e+01
  -1.268300e+01   8.534767e+00
   5.287300e+01  -6.240065e+01
   1.388952e+01  -1.764759e+01
   5.912050e+01  -1.298097e+01
  -2.095906e+01   3.538326e+01
   1.686265e+01  -2.559542e+01
  -3.964771e+01   7.795574e+00
  -3.193931e+01   7.821583e+00
  -4.386009e+01   6.066732e+01
  -2.822069e+00  -1.339025e+01
   5.352690e+01  -1.893005e-01
   8.992513e+00   3.705880e+01
   5.475703e-01   3.764688e+00
  -3.328726e+01  -2.678599e+00
   1.316671e+01  -5.642444e+01
  -4.001066e+00   3.780951e+01
  -1.241479e+01   1.234584e+01
  -5.871045e+01   6.333014e+01
  -3.766012e+01   1.681647e+01
  -2.643711e+01   7.222776e+00
   1.830739e+01  -8.767526e+01
  -2.705526e+01  -4.203253e+01
   1.742741e+01  -8.062313e-01
   3.352654e+01  -2.639621e+01
   3.221657e+01  -6.119890e+00
   2.416310e+01  -4.843470e+00
   3.410740e+01  -3.317608e+01
  -4.467107e+00   1.272930e+01
  -6.720937e+01   3.639333e+01
  -9.733778e+00   1.264147e+01
  -2.825895e+01  -2.205950e+01
   8.347260e-01  -8.451961e+01
  -8.716598e+00  -7.173471e+01
   3.996049e+01  -7.083970e+00
   6.533857e+01   5.998666e+01
  -1.437225e+01   5.207448e+01
  -6.402224e+01   5.002431e+01
  -4.351503e+01  -4.615213e+01
  -2.515814e+01  -7.678438e+01
  -9.193648e+00  -2.048445e+01
  -4.368120e+01   2.207601e+01
   4.626118e+01  -3.604584e+01
   2.589711e+01  -6.329546e+01
   1.173225e+01  -7.465606e+00
  -4.473341e+01   3.808100e+00
   5.740503e+01   1.327170e+01
   2.167786e+01   6.577730e+01
  -3.200083e+01   1.856881e+01
  -4.770196e+01  -3.380509e+01
  -5.056558e+01  -1.087774e+01
  -1.368199e+01  -4.347604e+01
  -2.224318e+01  -3.603737e+01
   5.858894e+01   3.435492e+01
   1.776863e+00   6.105546e+01
  -3.273494e+01   1.089469e+01
   9.481061e+00  -3.575592e+01
  -9.916420e+00  -2.518476e+01
   2.521841e+01   9.024964e+00
  -2.005903e+01  -9.957190e+00
  -2.719520e+01  -2.635792e+01
  -5.313702e+01  -5.897163e+01
   1.024768e+01   6.299708e+00
   4.627470e+01  -5.377969e+01
  -2.409192e+01   5.454722e+01
   8.977532e-01  -3.556962e+01
  -4.126766e+01   5.667310e+01
  -4.834859e+01   2.904668e+00
  -5.892508e+01   1.769528e+01
   9.645406e+00  -8.180251e+01
  -3.152230e+00  -1.394331e+01
   2.072332e+00   1.304464e+01
  -3.326077e+01   6.660726e+01
   6.067372e+00   6.209905e+00
  -9.404350e+00  -2.541770e+01
  -3.425674e+01   1.448296e+01
   3.515038e+01  -1.651122e+01
   7.260097e+00   2.170737e+01
  -9.120575e+01   8.460602e+00
   1.746372e+01  -6.541991e+01
  -5.321984e+01  -4.471937e+01
   5.385121e+01   6.824660e+00
   3.045931e+01  -2.248008e+01
   1.710786e+01   1.178053e+01
   1.883106e+01   5.731687e-01
   4.311305e+00  -6.460479e+01
  -3.016231e+00  -4.550744e+01
   6.819220e+01  -3.287545e+01
   7.171821e+01   2.962064e+01
   2.049740e+01   1.903009e+01
  -4.338484e+01  -3.675124e+01
  -2.883146e+01  -7.284466e-01
   7.118550e+01  -5.925508e+00
   1.610530e+01   8.788739e+00
   2.051037e+00   5.910874e+01
  -6.208389e+01   8.047355e+01
  -5.586400e+01   4.688120e+01
   2.521623e+01  -9.089242e+00
   1.427566e+00   1.298508e+00
   2.485376e+01  -2.606730e+01
   3.792679e+01  -2.014170e+01
  -3.728307e+01  -1.915583e+01
  -4.977924e+01   3.146202e+01
  -5.205104e+01   8.860752e+01
  -3.815294e+01   1.451377e+01
  -2.488340e+01  -6.771457e+01
  -1.756584e+01   2.167171e+01
  -5.330068e+01   1.539218e+01
  -5.019871e+01  -4.007211e+01
   3.121017e+01   2.723116e+00
   4.516917e+01  -1.005256e+01
   3.994594e+01  -1.012970e+01
   8.768322e+01  -3.590100e+00
   6.215229e+01  -1.176265e+01
  -2.271920e+01  -2.361649e+01
   3.078460e+01   3.426290e+01
  -3.236210e+00  -2.016531e+01
   6.087501e-01   1.785996e+01
   2.841862e+00  -3.052387e+01
   1.890639e+01   2.345375e+01
  -2.569742e+00   8.312619e+00
  -2.094915e+01   4.070556e+01
   1.461606e+01  -3.415108e+01
   2.288279e+01   1.988398e+01
  -2.336017e+01   1.187491e+01
  -5.663719e+01   6.632542e+01
   4.484499e+00  -1.692396e+00
  -1.413137e+01   5.108077e+00
   2.526619e+01  -2.521746e+01
  -5.524911e+00  -2.722427e+01
  -2.620490e+01   3.103952e+00
   2.929551e+00  -3.966519e+01
   2.099878e+01   1.856846e+01
   3.577616e+01  -2.943847e+01
   3.942007e+01   2.129570e+01
  -3.235049e+01  -2.066432e+01
  -1.780978e+01   8.383985e+01
  -5.444845e+00   3.768989e+01
  -1.765811e+01  -3.280828e+01
   4.226884e+01  -6.840315e+01
   4.379586e+01  -4.572971e+01
   9.394860e+01   6.020713e+00
   7.905994e+01   6.615026e+01
  -5.313210e+00   3.131466e+00
  -4.207468e-01  -2.950641e+00
  -2.406119e+01  -3.814022e+01
  -2.737521e+01  -1.292436e+01
   1.701714e+01  -2.295062e+01
   4.725860e+01  -9.029370e+00
  -8.528371e+01   1.735564e+01
   8.655943e+01  -3.798277e+01
  -2.058850e+00  -4.089409e+01
   3.028407e+01  -2.817643e+01
  -4.160448e+00  -5.744033e+01
  -3.357991e+01   4.800159e+00
  -4.195915e+01   4.514475e+00
   2.741936e+01  -8.783907e+00
  -5.972224e+01   4.980781e+00
   4.469648e+01   2.545834e+01
   4.329070e+00  -3.646020e+01
   3.883249e+01  -3.111503e+01
   8.606992e+01   2.723668e+01
  -3.633741e+00   9.061802e+00
   3.016700e+01  -4.271229e+00
  -4.692643e+01  -1.937412e+01
  -1.756613e+01   5.508703e+00
  -7.154705e+00  -3.753357e+01
   4.028862e+00  -1.027690e+01
  -5.771397e+01  -3.940910e+01
   1.798880e+01   2.868679e+00
   2.989874e+01  -1.253587e+01
  -1.172020e+01   1.668782e+01
  -1.671530e+01   3.150617e+01
  -5.618708e+00   3.351526e+01
  -1.513784e+01  -1.455100e-01
   8.075001e+01  -1.660216e+01
   9.628172e+00   3.229130e+01
   5.055121e+01  -4.542275e+01
  -3.087923e+01   3.532941e+00
  -1.061607e+01   1.112412e+01
   2.347503e+01  -5.852784e+01
  -7.653348e+00   1.217606e+01
  -7.334752e+01  -2.117507e+01
  -2.481128e+01   4.234862e+01
  -3.042889e+01  -9.172905e+00
