
 $NMID
 id='ANONYMOUS ', fmtdat='(2E16.6)'
 volume=1.0
 tramp=1.0
 $END
  -3.074540e+03  -8.090011e+01
  -1.975326e+03  -1.759930e+03
   2.000243e+02  -1.964932e+03
   1.269285e+03  -9.540591e+02
   7.204305e+02   1.062360e+02
  -1.663443e+02   2.933786e+02
  -4.969538e+02  -2.206571e+02
   2.075972e+01  -6.456266e+02
   5.417369e+02  -5.606582e+02
   6.743705e+02  -3.651895e+01
   3.504777e+02   4.604226e+02
  -6.339455e+01   6.603441e+02
  -4.140334e+02   6.720464e+01
  -2.450389e+02  -4.325811e+02
   1.557479e+02  -4.916624e+02
   3.913380e+02  -6.839471e+01
   2.636042e+02   5.282286e+02
  -1.921036e+02   5.479364e+02
  -3.884802e+02   1.993193e+02
  -3.206778e+02  -1.486924e+02
  -6.848737e+01  -3.505781e+02
   1.243747e+02  -1.769915e+02
   7.161530e+01   1.548905e+01
  -8.121652e+01   2.291699e+01
  -3.162842e+02  -1.641306e+02
  -1.375869e+02  -3.177941e+02
   3.518168e+02  -1.975241e+02
   6.099062e+02   1.400753e+02
   3.179706e+02   3.635319e+02
  -3.227362e+02   3.289920e+02
  -5.672227e+02  -6.837036e+01
  -2.389313e+02  -2.957641e+02
   2.113510e+02  -3.651401e+02
   4.442535e+02  -1.745107e+02
   3.134375e+02   1.168186e+02
   3.649134e+01   2.882821e+02
  -4.701456e+01   1.704827e+02
   4.704526e-01  -1.420446e+02
   1.465204e+02  -2.530750e+02
   2.972368e+02   9.031412e+01
   3.785004e+01   4.631025e+02
  -1.983557e+02   4.411312e+02
  -3.778062e+02   1.317220e+01
  -6.538430e+01  -3.481421e+02
   1.680632e+02  -1.285040e+02
   1.827012e+02   2.358753e+02
  -1.344804e+02   4.171325e+02
  -4.184319e+02   4.018816e+01
  -4.130241e+02  -3.485527e+02
  -1.548529e+02  -4.245257e+02
   2.817143e+02  -2.713852e+02
   4.773241e+02   7.725719e+01
   2.937381e+02   2.203072e+02
  -1.073754e+02   2.107852e+02
  -3.472739e+02   8.316641e+01
  -1.855993e+02  -5.238775e+01
   6.756182e+00  -7.265569e+01
   1.113251e+02   4.311952e+01
  -1.151468e+02   7.469083e+01
  -2.102583e+02  -6.587521e+01
  -1.249332e+02  -2.426230e+02
   1.333406e+02  -2.281386e+02
   3.075224e+02  -7.965655e+01
   1.537187e+02   9.334702e+01
  -2.317927e+01   2.172005e+02
  -1.948675e+02   3.282142e+02
  -2.075967e+02   1.560676e+02
  -2.132233e+02  -1.879636e+02
  -4.696608e+01  -3.148133e+02
   6.824181e+01  -3.434475e+02
   5.184433e+01  -1.741881e+02
  -1.826989e+01  -4.370493e+00
   5.328630e+01  -1.001776e+02
   1.646422e+02  -8.828617e+01
   2.486665e+02   9.251313e+01
   8.652457e+01   2.356399e+02
  -2.230837e+00   1.979583e+02
  -1.802093e+02  -1.022494e+00
  -1.059209e+02  -2.600855e+02
  -1.193552e+01  -2.131468e+02
   1.979353e+02  -6.228935e+01
   2.321653e+02   1.332497e+02
   1.133968e+02   2.765134e+02
  -7.946127e+01   2.167563e+02
  -1.252414e+02   1.404025e+02
  -1.633962e+02   3.578830e+01
  -9.290969e+01   5.253419e+01
  -2.339523e+02   2.914212e+01
  -3.817517e+02  -9.953894e+01
  -2.860923e+02  -2.438595e+02
   3.901869e+00  -3.545158e+02
   3.485587e+02  -3.597228e+02
   3.646064e+02  -1.158470e+02
   2.225902e+02   8.776578e+01
  -7.749597e+00   2.497150e+02
  -9.684304e+01   1.733957e+02
  -2.049393e+01   4.364295e+01
   1.381848e+02  -2.926084e+01
   1.658284e+02   3.331021e+01
   4.965760e+01   1.489114e+02
  -1.340120e+02   2.093979e+01
  -1.163732e+02  -2.912532e+01
   2.320167e+01  -1.554215e+02
   1.689863e+02  -2.591026e+01
   8.479745e+01   2.164641e+02
  -4.326499e+01   2.875171e+02
  -1.607041e+02   1.814677e+02
  -3.298368e+02  -6.671397e+01
  -2.411913e+02  -1.881133e+02
  -2.439905e+01  -2.294703e+02
   1.292657e+02  -1.327061e+02
   1.197167e+02  -7.651341e+01
  -1.047947e+01  -1.852030e+00
  -6.577427e+01  -2.592750e+01
   1.293505e+01  -1.087300e+02
   1.077493e+02  -8.044104e+01
   9.639930e+01  -8.969363e+00
   1.358695e+02   4.670868e+01
   4.118640e+01   2.005452e+01
  -3.980938e+01  -6.630232e+01
   1.676223e+02  -8.922521e+01
   2.731873e+02   3.059337e+01
   1.943711e+02   1.581799e+02
   8.273153e+01   2.238160e+02
  -1.791279e+02   1.840114e+02
  -2.419671e+02   1.420841e+02
  -1.398144e+02  -4.015094e+01
   4.381325e+00  -1.156252e+01
   6.892041e+01   1.566749e+01
  -4.806059e+01   9.250872e+01
  -1.376645e+02   1.179582e+02
  -1.645966e+02  -8.973613e+01
  -2.313614e+01  -1.787168e+02
   8.532797e+01  -1.542191e+02
   1.587978e+02  -9.954372e+00
   6.999093e+01   5.770155e+01
  -5.813559e+00  -5.935112e+00
   5.431407e+00  -7.725351e+01
   5.821347e+01  -6.649802e+01
   1.896465e+02  -3.291641e+01
   1.482054e+02   1.320980e+02
  -5.357792e+01   1.970537e+02
  -8.796361e+01   1.524503e+02
  -1.835751e+02  -8.731025e+01
  -2.717308e+01  -1.048224e+02
   4.950416e+01  -1.145019e+02
   7.901714e+01  -1.488084e+01
  -3.976305e+01   2.958026e+01
  -7.155336e+00  -1.277017e+01
   1.944908e+01  -8.069890e+00
   1.107160e+02   1.358473e+00
   1.207692e+02   1.101522e+02
   3.495455e+01   1.136718e+02
  -1.217456e+02   1.141173e+02
  -2.239879e+02  -8.580456e+00
  -1.324137e+02  -1.880087e+02
   9.630037e-01  -1.784331e+02
   9.119917e+01  -1.011873e+02
   7.638816e+01  -3.313439e+01
   3.366191e+01   9.418018e+01
   5.553161e+01   4.603273e+00
   4.588535e+01   1.370457e+00
   9.620063e+01  -3.112331e+01
   1.389861e+01   3.453373e+01
  -1.603394e+01   9.699297e+01
  -1.434287e+02   5.525871e+01
  -1.052031e+02  -6.794033e+00
   6.923842e+00  -1.293771e+02
   1.416076e+02  -7.433338e+01
   1.558170e+02   4.501425e+01
   6.614311e+01   1.449495e+02
  -9.384001e+01   1.272677e+02
  -1.815125e+02   7.650640e+01
  -2.050062e+02  -4.161142e+01
  -3.253113e+01  -1.905239e+02
  -1.370706e+01  -1.189242e+02
   8.861940e+01  -5.115763e+01
   9.689540e+01  -3.047954e+01
   3.812192e+01  -7.269491e+01
   5.356642e+00  -9.002211e+01
   1.813698e+02   1.501280e+01
   1.591216e+02   1.167292e+02
   4.662538e+01   1.983318e+02
  -2.864108e+01   1.377283e+02
  -1.272257e+02  -2.135977e+01
  -1.136721e+02  -1.483912e+02
   1.157740e+01  -1.573312e+02
   7.399575e+01  -1.071265e+02
   2.985566e+01  -2.469739e+01
  -1.239415e+01   2.260881e+01
  -1.465058e+01   7.490077e+00
   8.302981e+01   4.889439e+01
   9.265585e+01   1.064794e+01
  -3.282354e+00   3.902420e+01
  -1.833326e+01   3.605256e+01
  -8.599102e+01  -3.810093e+01
  -7.859886e+01  -7.252838e+01
   7.180341e+00  -6.974526e+01
   1.036880e+02  -4.445517e+01
   7.507236e+01   3.434526e-01
  -1.109090e+01   3.351928e+01
  -5.088876e+01   4.327196e+01
  -7.002825e+01  -4.962011e+01
  -3.377755e+01  -5.244050e+01
   2.225085e+00  -2.002297e+01
   5.608584e+01  -6.395748e+01
   7.783898e+01   8.539588e+01
   7.500721e+01  -1.034755e+01
   3.520320e+01  -3.848659e+00
   4.565033e+01   7.360044e+00
  -1.810526e+01   4.265711e+01
   2.960732e+01   6.270553e+01
  -1.251269e+02   1.469650e+02
  -1.133072e+02  -2.974321e+00
  -1.389095e+02  -1.125158e+02
   8.797612e+00  -1.775176e+02
   5.293041e+01  -1.033312e+02
   8.317541e+01   4.305579e+01
  -5.625692e+01   4.401883e+01
  -9.412160e+01  -5.124797e+01
  -1.086083e+01  -6.916917e+01
   6.373353e+01  -7.744851e+01
   1.424355e+02   4.944524e+00
   1.504300e+02   7.545144e+01
   3.670227e+01   1.173968e+02
  -4.352194e+01   1.277176e+02
  -5.872086e+01  -2.426894e+00
  -1.657268e+01   1.248243e+01
   6.735925e+01   6.364170e+01
   4.779813e+01   1.337466e+02
   8.153054e-01   7.102234e+01
  -1.488634e+02   5.453879e+01
  -1.007779e+02  -9.389373e+01
   2.495838e+01  -1.191525e+02
   1.126943e+02  -1.114664e+02
   9.817057e+01   3.269582e+01
   8.746693e+00   6.550969e+01
   7.484096e+00   8.325970e+01
  -6.123180e+01   8.690381e-01
  -7.105599e+01  -2.383127e+01
  -7.935660e+01  -6.671194e+01
  -1.257519e+01   3.039767e+01
  -2.813767e+01  -2.400228e+01
  -6.612678e+01  -9.612844e+01
   2.036310e+01  -7.436700e+01
   3.477174e+01   1.938195e+01
   1.170751e+02   3.234438e+01
   1.726589e+02   2.186794e+01
   9.296508e+00   9.290950e+01
  -1.116744e+02   4.055192e+01
  -9.882884e+01   2.573327e+01
   2.907722e+01  -4.449580e+01
   4.928013e+01   1.962599e+01
   5.150249e+00  -5.948815e+01
  -2.712156e+01   7.272356e+00
   2.830981e+01  -2.893177e+01
   1.039223e+01   2.400262e-01
   5.186267e+01   3.804143e+00
  -2.663859e+01   7.178213e+01
  -1.041744e+02   1.098512e+02
  -1.840091e+02   6.949457e+01
  -6.780489e+01  -5.734805e+01
  -4.473411e+01  -7.974533e+01
   2.708650e+01  -1.292857e+02
   7.456990e+01  -1.164410e+02
   9.473998e+01  -4.666712e+00
  -7.980868e+00   3.004893e+01
  -2.027266e+01   3.585285e+01
   4.786510e+01   7.127280e+01
   3.325364e+01   6.759774e+01
   3.826621e+01   1.230054e+02
  -5.792644e+00   6.873187e+01
  -7.323294e+01  -3.191286e+00
  -8.676114e+01  -3.898707e+01
  -1.368424e+01  -9.647691e+01
   1.126424e+02  -8.092908e+01
   8.338478e+01   6.925022e+01
   5.646312e+01   8.139292e+01
  -7.721514e+01   9.394752e+01
  -1.532937e+02   2.076081e+01
   1.405103e+01  -3.830087e+01
   5.488243e+01  -8.306737e+01
  -5.108481e+01  -4.406966e+01
  -3.994343e+01  -1.043941e+01
  -3.690431e+01  -1.358978e+01
  -2.369940e+01  -2.492658e+01
   1.002058e+02  -5.924300e+01
   1.037378e+02  -3.129989e+01
   1.035368e+02   4.220314e+00
  -2.859635e+01   8.527434e+01
  -7.279588e+01   1.027498e+02
  -5.712182e+01   2.617366e+01
   2.435058e+01  -1.330187e+02
   1.555044e+01  -4.593936e+01
   5.111046e+01  -1.268736e+01
   4.590498e+01   7.441083e+01
   2.228621e+01   9.682398e+00
  -6.320991e+01  -3.995249e+01
  -4.488488e+01  -5.119547e+01
   7.112863e+00  -8.958626e-01
  -5.811349e+01  -4.544064e+00
  -2.337458e+01   4.308094e+01
  -2.804587e+00   1.071912e+00
  -3.627312e+01  -3.280759e+01
  -9.661140e+00   5.780030e+00
   4.019321e+01   3.307167e+01
   9.168299e+01   9.065332e+01
  -2.559421e+01   3.186348e+01
  -6.137261e+01  -2.218408e+01
  -3.111606e+01  -5.799581e+01
   3.135895e+01  -1.102129e+01
   5.112080e+01  -9.852861e+00
   5.703940e+00  -1.089544e+01
  -4.456062e+01   2.140636e+00
  -4.343347e+01  -7.494494e+00
  -6.847320e+01   1.690353e+01
   1.431210e+01   1.130972e+01
   9.938981e+00   1.580875e+01
  -4.986416e+01   1.593026e+01
  -9.067879e+01   5.122507e+01
