
 $NMID
 id='ANONYMOUS ', fmtdat='(2E16.6)'
 volume=1.0
 tramp=1.0
 $END
   2.245453e+03  -4.893681e+01
   1.582995e+03   9.696075e+02
   2.782815e+02   1.462571e+03
  -6.910277e+02   1.134695e+03
  -8.101898e+02   5.272099e+02
  -2.480043e+02  -6.180584e+01
   1.254057e+02  -4.689674e+01
   1.533804e+02   2.505461e+02
  -1.980834e+02   3.868418e+02
  -4.186005e+02   1.441159e+02
  -3.085282e+02  -2.762134e+02
  -1.122688e+02  -4.233234e+02
   1.890122e+02  -1.797211e+02
   1.720800e+02   2.241847e+02
  -6.350482e+01   3.764176e+02
  -2.173183e+02   1.165472e+02
  -2.373055e+02  -3.403820e+02
   1.276539e+01  -4.901793e+02
   3.681499e+02  -2.767172e+02
   3.959661e+02   6.404308e+01
   1.936723e+02   2.421735e+02
  -2.260530e+01   2.087403e+02
  -2.601746e+01   2.926648e+01
   1.679260e+02   1.118895e+02
   1.625348e+02   2.453046e+02
  -1.298273e+02   2.843213e+02
  -3.550824e+02   3.562553e+01
  -4.262380e+02  -1.704380e+02
  -4.139604e+01  -2.267654e+02
   2.377216e+02  -7.590134e+01
   3.183506e+02   1.427746e+02
   1.496542e+02   2.154342e+02
  -2.096810e+02   2.558350e+02
  -3.512220e+02   1.064527e+02
  -2.511234e+02  -6.030549e+01
  -4.642698e+01  -1.583415e+02
  -8.984729e+01  -1.138783e+02
  -6.937910e+01   8.159948e+01
  -1.666834e+02  -3.729466e+00
  -6.908621e+01  -1.407561e+02
   4.882288e+01  -3.800280e+02
   1.208948e+02  -2.451304e+02
   1.923317e+02  -9.976990e+00
   4.726645e+01   1.740724e+02
  -7.413453e+01   5.190849e+01
  -6.099116e+01  -1.759167e+02
   1.068760e+02  -2.418807e+02
   2.938037e+02  -8.329033e+00
   3.071048e+02   2.112181e+02
   1.422519e+02   3.660605e+02
  -1.918787e+02   1.983072e+02
  -3.389297e+02  -9.860225e+00
  -2.576665e+02  -6.092744e+01
   1.883803e+00  -1.059088e+02
   1.344365e+02  -5.656161e+01
   1.639156e+02  -5.769242e+01
   3.355154e+01   2.576940e+01
   3.782521e+01  -2.025100e+00
   4.168445e+01  -3.725489e+01
   1.381205e+02   6.639056e+01
   1.013623e+02   1.133588e+02
  -9.653613e+01   1.683921e+02
  -2.750375e+02   1.072103e+02
  -2.912558e+02  -1.053876e+02
  -9.054546e+00  -2.483872e+02
   3.179588e+02  -3.194193e+02
   3.460062e+02  -1.054925e+02
   1.415920e+02   1.740675e+02
  -1.124313e+01   2.973960e+02
   6.899211e+00   2.372351e+02
   8.676068e+00   1.303813e+02
  -5.228805e+01   1.071375e+02
  -1.649379e+02   1.361645e+02
  -2.300601e+02   3.612548e+01
  -2.264572e+02  -1.085106e+02
  -6.685746e+01  -2.312151e+02
   1.351290e+02  -1.160992e+02
   1.718047e+02   4.728842e+01
   9.173219e+01   2.403932e+02
  -6.171278e+01   1.585529e+02
  -1.989018e+02   1.400435e+01
  -2.575984e+02  -1.336298e+02
  -9.322995e+01  -2.474144e+02
   2.367747e+01  -2.059698e+02
   1.075660e+02  -8.998298e+01
   1.340286e+02  -1.402020e+02
   1.251252e+02  -4.988662e+01
   1.672564e+02  -3.246456e+01
   4.066977e+02   4.352942e+01
   2.136948e+02   2.799256e+02
  -1.912040e+01   3.110365e+02
  -3.666002e+02   3.682418e+02
  -3.741599e+02   1.499153e+02
  -1.939879e+02  -7.617210e+01
  -3.625392e+01  -1.759046e+02
   9.813389e+01  -1.916569e+02
  -2.591235e+01  -1.926488e+01
  -5.673086e+01  -4.774283e+00
  -7.085364e+01  -4.383030e+01
  -5.224150e+00  -8.693512e+01
   1.019341e+02  -5.016290e+01
   8.196178e+01   1.567955e+01
  -2.771812e+01   1.020067e+02
  -1.442389e+02  -8.925008e+01
  -1.846928e+02  -1.652733e+02
  -9.800514e+00  -2.575032e+02
   2.717425e+02  -1.478129e+02
   2.462752e+02   2.657387e+01
   1.977785e+02   2.032230e+02
  -1.112531e-01   2.151924e+02
  -1.122755e+02   1.273504e+02
  -1.070911e+02  -3.912371e+01
  -7.820729e+00   3.888287e+01
   1.959400e+01   4.604295e+01
  -5.932933e+00   5.406261e+01
  -9.156940e+01   4.923028e+01
  -1.064966e+02  -2.392842e+01
   3.013183e+01  -5.022102e+01
   7.405053e+01   3.280356e+01
   1.044025e+02   9.178390e+01
  -1.333407e+02   3.442483e+01
  -2.383631e+02  -3.784098e+01
  -2.348155e+02  -1.137811e+02
  -2.626613e+01  -2.018871e+02
   1.887796e+02  -2.189395e+02
   1.738008e+02  -3.235959e+01
   1.164562e+02   1.688620e+01
  -1.545379e+01   8.899392e+01
  -5.472930e+01  -1.804290e+01
   4.478936e+00  -9.169446e+01
   1.040099e+02   2.881184e+01
   2.237597e+02   7.486677e+01
  -9.609263e+00   1.527340e+02
  -7.068169e+01   1.256818e+02
  -1.219803e+02   7.222552e+01
  -2.646778e+00  -1.278933e+01
   3.150880e+01   2.802855e+01
   4.711560e+01   9.368864e+01
  -1.652621e+02   1.399437e+02
  -1.391273e+02   3.418696e+01
  -1.961888e+02  -9.182391e+01
   3.174842e+00  -1.484213e+02
   1.324298e+02  -8.134883e+01
   1.125177e+02  -5.782199e+01
   3.353332e+01   1.816631e+01
  -4.754869e+01   1.242198e+02
  -5.313116e+01   2.591181e+01
   4.845883e+01  -2.781134e+01
   5.101811e+01  -2.344151e+01
   2.411624e+01   3.302277e+01
  -4.752661e+01   1.784863e+01
  -1.025986e+02  -1.088989e+02
  -1.798442e+01  -1.360549e+02
   1.089051e+02  -2.016636e+02
   2.059051e+02  -3.812955e+01
   1.217374e+02   1.440175e+02
   8.144788e+01   2.062429e+02
  -5.188240e+01   8.610630e+01
  -7.206766e+01   2.575028e+01
  -5.628254e+01  -6.919721e+01
  -3.813892e-01  -9.163863e+01
  -3.777747e+01  -6.315564e+01
  -4.012386e+01  -3.050145e+00
  -5.839904e+01  -3.072805e+01
   2.717245e+01  -8.479373e+01
   1.238189e+02  -9.724558e+01
   1.734473e+02   6.334656e+01
  -4.797899e+00   1.070165e+02
  -1.691587e+02   8.498933e+01
  -2.464681e+02  -1.077118e+02
  -6.503912e+01  -1.508087e+02
   1.110291e+02  -1.636592e+02
   2.461646e+02  -1.237717e+02
   1.379317e+02   9.101489e+01
   8.882811e+01   1.314473e+02
  -5.835900e+01   1.229164e+02
  -9.511048e+01   1.161614e+02
  -8.123497e+01   7.276098e+01
  -4.224488e+01   1.081863e+02
  -7.669058e+01   3.384077e+01
  -9.854068e+01  -5.619301e+01
  -1.076903e+02  -9.212620e+01
  -5.561800e+01  -1.484948e+02
   1.504961e+02  -1.365363e+02
   1.806707e+02  -4.922168e+01
   1.117297e+02   7.539244e+01
  -3.040695e+01   1.483972e+02
  -5.836475e+01   6.704277e+01
  -2.805963e+01  -2.105736e+01
  -5.586295e+01  -5.385533e+01
   9.206849e+00  -3.485333e+01
   1.671229e+00  -1.352439e+01
  -1.015563e+02  -1.871772e+01
  -7.476457e+01  -6.135410e+01
   4.807085e+01  -7.913894e+01
   1.828343e+02   7.877668e+01
   1.197782e+02   1.175768e+02
   1.695152e+00   9.813937e+01
  -9.671541e+01   7.761078e+01
  -9.103674e+01   2.300074e+01
  -3.924028e+01  -4.068411e+01
   8.695590e+00  -3.264315e+01
   6.076349e+01   4.197269e+01
  -2.734446e+01   1.162447e+01
   9.034508e-01   7.853419e+01
  -6.272496e+01   1.042717e+01
  -2.873096e+01   1.859497e+01
  -8.991475e+01  -4.714766e+01
  -4.794648e+00   1.184184e+01
  -5.987441e+01  -6.530050e+01
  -2.786002e+01  -1.001062e+02
   2.646182e+00  -1.126378e+02
   1.062264e+02  -8.514104e+01
   1.324562e+02  -5.782833e+01
   1.074576e+02   4.222184e+01
  -3.451570e+01   1.498197e+02
  -1.459497e+01   8.731584e+01
  -8.367962e+01  -1.967517e+01
   7.442277e+01   4.330591e+01
   1.219174e+02   4.074652e+01
   6.880839e+01   3.711941e+01
  -2.727442e+01   5.620792e+01
  -1.577447e+02  -1.824883e+01
  -1.230817e+02  -3.808348e+01
  -4.446715e+01  -7.347140e+01
   4.255564e+01  -4.765000e+01
  -1.498445e+01   5.872927e+01
  -8.466725e+01  -7.579307e+00
  -6.065599e+00  -2.953939e+01
  -3.576090e+01  -8.437872e+01
   6.011212e+01  -1.120457e+02
   1.112483e+02  -2.987388e+01
   6.075467e+01   6.811310e+01
   4.320204e+00   1.604374e+02
  -3.611883e+01   1.079546e+02
  -7.026001e+01  -2.145314e+00
  -8.970059e+00  -1.019173e+02
   4.570345e+01  -3.794953e+00
   6.846095e+01   2.278702e+01
   1.222951e+01   1.542610e+01
   3.692719e+01   1.483519e+01
  -1.289664e+01  -1.905792e+01
   3.964270e+01  -3.061740e+01
   8.144942e+01   2.410492e+01
  -1.419238e+01   1.614249e+02
  -3.560409e+01   7.287302e+01
  -1.199098e+02  -3.882350e+01
  -1.089484e+02  -4.292091e+01
  -7.590354e+01  -5.802160e+01
   2.455114e+01  -5.814313e+01
   4.479123e+01   1.465645e+01
   2.545359e+01  -4.085152e+00
  -4.830088e+01   4.212444e+01
   2.882931e+01  -1.517215e+01
  -1.639226e+01  -1.906836e+01
   6.357792e-01   3.315646e+01
  -4.682348e+01   3.740974e+01
  -4.147530e+01  -2.367427e+01
  -3.097113e+01  -7.077061e+01
   9.295393e+01  -1.457170e+02
   1.173759e+02  -1.207086e+02
   1.402999e+02   6.133956e+01
   3.193924e+01   1.197295e+02
  -2.422966e+01   1.469572e+02
  -9.303417e+01   9.610417e+01
  -8.919840e+01   2.804273e+01
  -2.101490e+01  -6.185917e+01
   4.638604e+01  -3.773429e+01
  -3.697218e+01   2.369170e+01
  -1.140620e+01  -4.468514e+01
  -6.170401e+01  -5.659506e+01
   2.616399e+01  -4.636974e+01
   4.922195e+01   3.892307e+01
   4.582941e+01   7.762722e+01
   4.340316e+01   4.024991e+01
  -1.057586e+02   1.033529e+01
  -9.691616e+01  -6.954345e+01
  -4.291076e+01  -7.800463e+01
   4.166263e+01  -5.233462e+01
   1.233644e+02  -1.670141e+01
  -1.022525e+01  -9.037153e+00
  -1.048502e+02   8.223583e+00
  -3.749459e+01   2.301762e+01
   3.839157e+00  -3.889211e+01
  -5.703370e+00  -2.250775e+01
   2.162206e+01  -1.801300e+01
  -7.254478e+01   4.873732e+01
  -1.279549e+02   6.867052e+01
  -6.593887e+01  -4.984471e+00
   2.439569e+01  -1.273702e+02
   2.260537e+01  -7.216584e+01
   1.017396e+02  -7.403447e+00
   4.588261e+01   3.893621e+00
   1.620527e+01   2.687967e+01
  -4.052087e+01   3.844614e+01
  -5.462061e+01  -1.176567e+02
   2.663421e+01  -5.844385e+01
   9.849915e+00   1.068666e+00
   5.197989e+01   3.875919e+00
   3.534306e+01   2.325766e+01
   4.236484e+01  -7.551679e+00
   3.957742e+01  -4.295647e+01
  -2.337639e+01   1.136175e+02
   3.059506e+01   8.691090e+01
  -3.874826e+01   2.153271e+01
  -5.892082e+01  -3.831787e+01
   1.880444e+01  -9.139369e+01
   7.207317e+01  -6.483150e+00
   9.690454e+01   1.825692e+01
   1.205840e-01   3.695219e+01
  -6.251888e+00   2.128668e+01
  -8.724264e+01  -8.120680e+00
  -2.278097e+01   2.859779e+01
   3.066849e+01  -3.515745e+00
   2.250736e+01  -6.606836e+00
   5.149261e+01   4.527430e+01
   4.030302e+01  -4.901208e+00
  -4.429901e+01   5.311603e+01
   3.764619e+01  -2.067132e+01
   2.471984e+01  -2.193523e+01
