
 $NMID
 id='ANONYMOUS ', fmtdat='(2E16.6)'
 volume=1.0
 tramp=1.0
 $END
  -2.156108e+03   8.179880e+00
  -1.494045e+03  -1.028651e+03
  -2.174950e+02  -1.331722e+03
   6.925321e+02  -1.057305e+03
   7.517316e+02  -3.711986e+02
   2.507535e+02   4.589139e+00
  -1.073627e+02   6.217553e+01
  -3.168122e+01  -3.356903e+02
   2.664535e+02  -4.233757e+02
   3.917040e+02  -1.307803e+02
   3.086049e+02   3.043834e+02
   5.446873e+01   3.831617e+02
  -1.266023e+02   1.963894e+02
  -1.458524e+02  -2.409684e+02
   5.151127e+01  -2.785383e+02
   2.210542e+02  -1.141128e+02
   2.832007e+02   3.920395e+02
  -4.178986e+01   5.003691e+02
  -2.605230e+02   2.399916e+02
  -3.968755e+02  -1.417495e+02
  -1.469617e+02  -2.122147e+02
   1.235548e+02  -1.772414e+02
   1.076484e+01  -6.903859e+01
  -1.444563e+02  -5.421387e+01
  -1.904842e+02  -2.493827e+02
   1.091697e+02  -2.304053e+02
   3.799843e+02  -5.720993e+00
   3.641924e+02   1.611538e+02
   1.151367e+02   1.906122e+02
  -1.944834e+02   7.335950e+01
  -3.016167e+02  -1.743082e+02
  -9.895528e+01  -2.216822e+02
   1.726740e+02  -1.567595e+02
   2.534987e+02  -5.589909e+01
   1.925271e+02   8.402215e+01
   4.537120e+01   2.101096e+02
   8.669208e+00   1.008083e+02
   1.196269e+02  -6.126063e+01
   1.881590e+02  -9.499509e+01
   1.113690e+02   1.615520e+02
  -7.280999e+01   3.378763e+02
  -1.715997e+02   2.220009e+02
  -1.835411e+02   1.018631e+01
  -4.929222e+01  -1.374643e+02
   9.844926e+01  -3.640870e+01
   1.076847e+02   1.867098e+02
  -6.694904e+01   2.331710e+02
  -3.545200e+02   4.826948e+01
  -2.494736e+02  -3.338706e+02
  -1.223195e+02  -2.791084e+02
   2.568637e+02  -2.028207e+02
   4.001267e+02  -5.094913e+00
   2.088778e+02   1.325075e+02
   6.149691e+01   1.744487e+02
  -1.794416e+02   8.619372e+01
  -1.898696e+02   4.278573e+01
  -1.150892e+02   7.463308e+01
  -1.487025e+01  -1.543866e+01
  -3.485311e+01  -4.970412e+00
  -1.079456e+02  -4.853387e+01
  -9.348909e+01  -4.908130e+01
   8.526549e+01  -1.569953e+02
   2.789180e+02  -9.714031e+01
   2.383605e+02   9.256894e+01
  -3.413341e+01   2.336121e+02
  -2.631293e+02   3.399118e+02
  -2.713962e+02   1.011166e+02
  -1.840493e+02  -1.389325e+02
  -4.020004e+01  -2.442389e+02
   2.630176e+01  -2.372161e+02
   1.303673e+01  -1.273973e+02
   3.906845e+01  -1.408465e+02
   1.653250e+02  -9.080884e+01
   2.241257e+02  -3.298524e+01
   1.323984e+02   6.751031e+01
   8.069812e+00   1.797822e+02
  -8.768765e+01   1.321216e+02
  -1.893306e+02  -1.861649e+01
  -5.639004e+01  -1.498451e+02
   2.967347e+01  -2.081598e+02
   1.848547e+02  -7.336990e+01
   2.116815e+02   9.139285e+01
   1.653542e+02   1.274515e+02
  -1.697636e+00   1.090991e+02
  -1.220010e+02   1.296325e+02
  -1.369397e+02   1.068814e+02
  -9.345733e+01   7.517108e+01
  -2.630089e+02   3.012192e+01
  -3.846321e+02  -6.443156e+00
  -2.431677e+02  -2.251421e+02
   3.678328e+01  -3.661502e+02
   3.229860e+02  -2.663248e+02
   3.915434e+02  -1.516602e+02
   1.747318e+02   6.338869e+01
  -4.403096e+00   2.153131e+02
  -1.623313e+01   8.542541e+01
  -3.327496e+01   3.776602e+01
   9.856680e+01  -6.124838e+01
   6.966514e+01   4.082639e+01
  -4.627013e+01   6.251291e+01
  -3.782445e+01   6.762018e+01
   3.482843e+00  -4.065090e+01
   2.474862e+01  -5.965754e+01
   1.149386e+02  -2.372863e+01
   8.140125e+01   1.493694e+02
   7.739030e+00   2.603423e+02
  -1.583375e+02   9.063082e+01
  -3.125424e+02  -6.807854e+01
  -2.116319e+02  -1.258845e+02
  -3.642425e+00  -2.088996e+02
   1.035038e+02  -1.366614e+02
   1.149530e+02  -1.057044e+01
   4.366166e+01   2.128261e+01
  -3.797220e+01  -7.220759e+01
   2.851793e+01  -1.205381e+02
   1.300938e+02   1.396962e+01
   1.287530e+02  -3.336821e+01
   2.995563e+00   7.982272e+00
  -8.381473e+01   1.641662e+00
   7.949584e+00  -8.242991e+01
   1.561731e+02  -2.105605e+01
   1.950271e+02   3.557924e+01
   2.276297e+02   1.812423e+02
  -3.930375e+01   1.703353e+02
  -2.096735e+02   1.176083e+02
  -1.704070e+02   9.752570e+01
  -9.769172e+01  -6.911195e+00
   6.950656e+01   9.424624e+00
   8.984999e+01   3.491736e+01
  -4.587449e+01   2.827695e+01
  -1.123343e+02   2.946353e+01
  -1.535841e+02  -3.155685e+01
  -2.274507e+01  -1.483555e+02
   2.463638e+01  -1.077216e+02
   7.673482e+01   3.147584e+01
  -1.210886e+01   7.502211e+01
  -1.084401e+02  -3.711538e+01
  -1.158224e+01  -1.625102e+02
   1.166359e+02  -2.105718e+01
   1.265910e+02   2.733456e+01
   1.624308e+02   1.012808e+02
  -4.272904e+01   1.517906e+02
  -1.319158e+02   7.742900e+01
  -1.409346e+02   1.865767e+01
  -2.362093e+01  -4.301285e+01
   7.362522e+01  -4.419175e+01
   5.094114e+01  -2.599153e+01
   2.351972e+00   3.636968e+01
  -7.085545e+00  -4.386195e+01
   2.799769e+01  -2.531050e+01
   4.355884e+01   2.088459e+01
   1.027413e+02  -1.360538e+01
   7.677254e+00   1.118918e+02
  -1.437265e+02   9.234220e+01
  -1.705757e+02  -3.557148e+01
  -1.148852e+02  -1.425631e+02
  -1.766711e+01  -2.218318e+02
   8.811178e+01  -7.859821e+01
   6.139543e+01   1.939475e+01
   4.217705e+01   1.876193e+01
   1.394135e+01   3.753509e+01
   1.100101e+02  -3.330855e+01
   3.060818e+01   1.806174e+00
   1.220580e+02   1.725698e+01
  -5.862016e+01   6.827421e+01
  -9.879607e+01   1.169435e+02
  -9.461324e+01  -6.669766e+01
   4.757016e+01  -9.613820e+01
   9.324744e+01  -6.222788e+01
   1.683493e+02  -1.096968e+01
   1.094388e+01   1.872031e+02
  -1.091106e+02   1.166054e+02
  -1.769612e+02   4.754217e+01
  -1.919609e+02  -4.126360e+01
  -2.970146e+01  -1.174199e+02
   6.523572e+01  -1.311976e+02
   2.631891e+01  -4.810241e+01
   3.543615e+01  -5.825842e+01
   1.062594e+01  -6.349880e+01
   3.605412e+01  -7.393879e+01
   8.949167e+01  -5.202975e+01
   1.229940e+02   1.453326e+02
   1.071346e+01   2.052956e+02
  -6.668552e+01   1.298866e+02
  -1.373732e+02  -2.233438e+01
  -1.377760e+02  -8.346720e+01
   1.255739e+01  -1.161657e+02
   1.345747e+02  -4.095025e+01
   9.846657e+01   3.718084e+01
   7.384725e+00   4.246773e+01
  -2.791662e+01   3.980962e+01
   9.077889e+00  -7.397996e+00
   1.074496e+02  -2.054348e+01
   2.331443e+00   8.661987e+01
  -1.210384e+02   4.273265e+01
  -1.221767e+02  -4.337237e+00
  -6.561484e+01  -8.259830e+01
   1.975959e+01  -3.343935e+01
   1.242136e+02  -1.059975e+02
   1.314627e+02  -9.771208e+00
   3.874867e+01   9.801037e+01
  -4.336607e+01   7.502955e+01
  -9.922499e+01  -4.979402e+01
   4.150146e-01  -8.288167e+01
   4.973317e+01  -4.422241e+01
   5.640361e+01   4.973702e+01
   6.117363e+01  -6.484801e+00
   2.265923e+01   4.147475e+01
   6.007050e+01   1.736494e+01
   8.304652e+01   3.912167e+00
   6.631902e+00   5.633976e+01
  -1.442816e+01   1.077387e+02
  -1.490644e+02   6.612568e+01
  -1.405206e+02   1.995365e+01
  -1.442887e+02  -8.498931e+01
   3.524024e+01  -8.172642e+01
   3.994345e+01  -4.426770e+01
  -1.729502e+01  -3.292094e+01
  -4.714330e+01   7.964551e+00
  -1.546129e+02  -7.354523e+01
  -5.907866e+01  -3.480919e+01
   4.970607e+01  -1.006154e+02
   1.784496e+02  -8.872636e+00
   1.162562e+02   2.594216e+01
   7.859534e+01   7.410867e+01
  -9.018471e+01  -1.057639e+01
  -6.616941e+01   5.798229e+00
  -2.124350e+01  -6.502101e-01
   6.262102e+01  -3.434528e+01
   4.084234e+01   1.220710e+02
  -4.661651e+01   8.653373e+01
  -8.187296e+01   5.308618e+01
  -1.054975e+02  -1.226655e+02
   1.744258e+01  -1.844009e+02
   8.252034e+01  -1.364400e+02
   2.740328e+01  -7.092064e+01
  -2.835966e+01   6.268375e+01
   1.795054e+01   1.199400e+02
  -6.525813e+01   1.118106e+01
  -2.143757e+01  -2.200877e+01
  -5.179251e+00   8.649636e+01
   2.444242e+01   3.013980e+01
  -6.212588e+01  -8.237583e+00
  -5.613964e+01  -6.172800e+01
   4.425007e+01  -2.575087e+01
   8.064199e+00  -2.580653e+01
   8.050261e+01   6.036748e+01
   6.426404e+01   3.142114e+01
   6.096526e+01   1.945850e+01
  -3.857859e+01  -3.821808e+01
  -5.004741e+01   3.284771e+01
   5.783077e+01  -5.043189e+00
   5.435146e+01  -5.370610e+01
  -1.631287e+01   2.836040e+01
  -5.464204e+00   4.906033e+01
   1.588306e+00   4.556865e+01
   3.661563e+01  -1.390129e+01
   7.719660e+01  -3.309702e+01
  -7.488241e+01   7.203946e+01
  -5.937864e+01   5.561950e+01
  -1.544370e+02   8.687076e+01
  -1.073949e+02  -4.349281e+01
  -1.139623e+01  -7.278507e+01
   3.642727e+01  -1.654834e+02
   7.526326e+01  -5.875987e+01
   1.213074e+01  -3.513990e+00
   5.688402e+00   4.672009e+01
  -1.838339e+01   9.566231e+00
   1.598601e+01   3.846096e+01
   7.719383e+01   1.393021e+01
  -7.572456e+00   4.705458e+01
  -3.122588e+01   7.637947e+01
  -1.029337e+02   1.703250e+01
  -1.207707e+02  -2.205836e+01
  -9.107601e+00  -7.669404e+01
  -1.232982e+01  -5.140010e+01
   1.038079e+02   5.180629e+01
   1.298969e+01   6.019862e+01
  -9.445139e+01   8.417086e+01
  -6.359453e+01  -5.673742e+00
  -6.615263e+01  -4.414167e+01
   1.614897e+01  -8.603722e+01
   7.320714e+01  -3.627849e+01
  -5.122851e+01  -4.013886e+01
   1.620499e+01  -8.118139e+00
   9.831276e+00  -5.645960e+01
   5.707979e+01  -5.897570e+01
   1.489631e+02  -7.062237e+01
   5.714304e+01   5.220445e+01
  -1.475458e+01   5.612967e+01
  -6.482838e+01   8.963759e+01
  -4.873984e+01   6.459151e+00
  -1.011851e+01  -8.960440e+01
  -6.562631e+00  -7.693985e+00
   3.798168e+01   1.909777e-01
  -6.324511e+01   2.590018e+01
  -4.689049e+00   5.617408e+01
  -5.897414e+01   1.765552e+00
  -5.391118e+01  -1.674252e+01
  -2.350315e+01  -5.368654e+01
  -7.912964e+00  -1.780080e+01
   3.109876e+01   2.778218e+00
   2.240830e+01   2.085058e+01
  -1.152857e+01  -9.474915e+01
  -1.519207e+01  -7.557202e+01
   8.268515e+01   7.479271e+01
   5.903903e+01   5.823622e+01
   2.432768e+01   2.821683e+01
  -1.777798e+01  -3.002744e+01
  -8.087479e+01   1.903298e+01
   5.394178e+01  -4.492036e+01
   3.731603e+01   2.448275e+00
  -2.178339e+01   9.935626e+00
  -5.830042e+01   3.176387e+01
  -5.686812e+01   1.714627e+01
  -2.336155e+01  -5.396469e+01
   6.888189e+01  -1.836682e+01
   1.473863e+01  -4.192043e+01
  -7.381743e+01  -5.952282e+00
  -5.778402e+01  -1.226993e+01
