
 $NMID
 id='ANONYMOUS ', fmtdat='(2E16.6)'
 volume=1.0
 tramp=1.0
 $END
   1.813584e+03  -7.579343e+01
   1.353911e+03   8.310951e+02
   2.377947e+02   1.123841e+03
  -6.008698e+02   9.043266e+02
  -6.528958e+02   3.435289e+02
  -1.570204e+02  -8.526708e+01
   1.532573e+02  -2.281762e+01
   1.118597e+02   2.358422e+02
  -2.083015e+02   3.838062e+02
  -3.183288e+02   1.633747e+02
  -3.333045e+02  -2.787367e+02
  -3.459165e+01  -3.973394e+02
   5.508808e+01  -1.196482e+02
   2.065575e+02   1.633411e+02
   2.001847e+01   3.579537e+02
  -2.234281e+02   8.679615e+01
  -2.174143e+02  -2.913728e+02
   2.943550e+01  -4.301338e+02
   3.072673e+02  -2.874862e+02
   2.622005e+02   1.047071e+02
   1.219539e+02   1.917132e+02
  -8.251496e+01   1.659937e+02
  -4.025776e+00   6.243338e+01
   1.957972e+02   1.165357e+02
   1.446204e+02   2.679080e+02
  -7.154670e+01   2.057960e+02
  -2.936070e+02   4.183165e+01
  -3.383149e+02  -1.471106e+02
  -2.242944e+02  -1.432282e+02
   1.740466e+02  -9.624764e+01
   2.765930e+02   5.671216e+01
   1.681185e+01   2.347113e+02
  -1.799708e+02   1.737418e+02
  -2.681150e+02   8.965291e+01
  -2.245879e+02  -2.917198e+01
  -3.918526e+01  -7.497799e+01
  -2.635784e+01  -8.788158e+01
  -9.546807e+01   2.061296e+01
  -1.206943e+02   6.632273e+01
  -1.120441e+02  -1.340531e+02
   4.291198e+01  -2.741965e+02
   1.447221e+02  -2.388860e+02
   1.749998e+02  -8.749049e+01
   6.602352e+01   1.973943e+02
  -6.967342e+01   1.368437e+02
  -2.709284e+01  -1.204488e+02
   5.037487e+01  -1.902819e+02
   2.555345e+02  -1.970299e-02
   2.779292e+02   2.072319e+02
   1.477850e+02   2.601325e+02
  -1.429491e+02   1.529038e+02
  -3.350098e+02  -7.009792e+01
  -2.216377e+02  -1.451656e+02
   5.133479e+00  -8.938873e+01
   1.182505e+02  -5.357242e+01
   1.430611e+02  -4.500012e+01
   3.471169e+01  -1.863032e+01
  -1.430271e+01   1.583481e+01
   3.082886e+01   5.340953e+01
   1.846534e+02   1.408154e+01
   6.508838e+01   1.127510e+02
  -1.073061e+02   1.389187e+02
  -2.511594e+02   1.387684e+02
  -2.061765e+02  -4.786557e+01
   8.855278e+01  -2.711316e+02
   2.116903e+02  -2.727464e+02
   2.512692e+02  -5.419802e+01
   2.216427e+02   1.397148e+02
   4.744374e+01   1.985787e+02
   3.134925e+01   1.579414e+02
   2.408782e+01   1.178263e+02
  -1.882099e+01   1.147432e+02
  -1.105020e+02   7.085173e+01
  -1.880792e+02   2.431955e+01
  -1.514079e+02  -1.170665e+02
  -1.565574e+01  -1.441289e+02
   6.511732e+01  -1.394133e+02
   1.233017e+02   3.028863e+01
   4.123841e+01   1.830235e+02
  -5.005693e+01   1.149185e+02
  -1.976684e+02   3.251687e+01
  -1.767809e+02  -6.892504e+01
  -9.181986e+01  -1.711591e+02
   2.032355e+01  -1.556869e+02
   3.714913e+01  -8.905299e+01
   2.679940e+01  -1.087463e+02
   5.320349e+01  -2.769818e+01
   1.447405e+02  -3.247476e+00
   2.540352e+02   9.370118e+01
   2.475670e+02   2.262068e+02
   1.249470e+00   2.793339e+02
  -2.456579e+02   2.621177e+02
  -3.556696e+02   1.400443e+02
  -1.276302e+02  -1.033312e+02
   7.425302e+00  -9.762261e+01
   3.920758e+01  -1.612331e+02
  -3.248229e+01  -2.875025e+01
  -1.016788e+02   4.214548e+00
  -7.224702e+01  -2.803916e+00
  -4.926086e+01  -4.281847e+01
   2.233068e+01  -5.787206e+01
   7.202758e+01   6.240525e+01
  -2.009705e+00   3.369307e+01
  -4.960831e+01  -1.422611e+01
  -9.533242e+01  -1.273541e+02
  -1.151560e+01  -2.600856e+02
   1.612573e+02  -1.683750e+02
   2.139290e+02   4.229108e+01
   1.805602e+02   1.701850e+02
   3.446724e+01   1.318085e+02
  -1.175898e+02   9.590287e+01
  -7.851899e+01  -3.427103e+01
  -1.108755e+01   6.287296e+01
   4.559793e+01   4.304166e+01
  -6.544337e+01   6.765858e+01
  -1.035900e+02   1.079747e+01
  -8.912887e+01   2.362010e+01
  -1.625004e+01  -8.439029e+01
   4.907417e+01  -3.867602e+01
   4.654336e+01   8.819445e+01
  -6.537178e+01   8.298133e+01
  -2.783486e+02  -6.515773e+01
  -2.047125e+02  -1.417627e+02
  -2.176531e+00  -2.056400e+02
   1.161652e+02  -1.433638e+02
   1.507010e+02  -7.628680e+01
   1.040137e+02   5.772356e+01
   7.623796e+00  -8.691226e+00
  -3.049414e+01  -6.317913e+01
   5.258726e+01  -6.919142e+01
   1.488774e+02  -1.358404e+00
   1.291619e+02   5.907309e+01
   8.834517e+01   1.045988e+02
  -8.586208e+01   9.352529e+01
  -2.787267e+01   3.406385e+01
   2.025185e+01   1.048103e-01
   2.375208e+01   8.224792e+01
   1.158345e+01   1.019510e+02
  -4.433529e+01   1.015805e+02
  -1.441545e+02   2.066259e+01
  -1.425287e+02  -1.489700e+02
  -1.979346e+01  -1.149911e+02
   1.320932e+02  -7.936873e+01
   1.173439e+02   2.230868e+01
   5.842133e+01   3.041397e+01
  -2.164357e+01   6.121350e+01
  -4.529780e+01   8.002992e+00
   6.299683e+01   2.332989e+01
  -4.795958e+01  -3.053993e+01
   1.233733e+01   1.922703e+01
  -1.124659e+02   2.555256e+01
  -1.084500e+02  -9.279868e+01
  -7.481348e+00  -1.736453e+02
   9.143627e+01  -8.992395e+01
   1.361459e+02  -1.405330e+01
   1.679211e+02   1.185449e+02
   5.145419e+01   1.355767e+02
  -7.453604e+01   1.149081e+02
  -1.135402e+02  -3.036731e+01
  -6.124321e+01   5.231585e-01
  -4.665967e+01   1.203760e+01
  -4.396415e+01  -1.333073e+01
  -6.155602e+01   1.903125e+01
  -2.611496e+01  -3.621780e+01
   5.090071e+01  -6.632677e+01
   9.002558e+01  -3.541529e+01
   1.126603e+02   4.280569e+01
  -3.166566e+01   8.547606e+01
  -1.528697e+02   6.951359e+01
  -1.848623e+02  -5.944243e+01
  -5.782880e+01  -1.480387e+02
   1.189368e+02  -1.069393e+02
   1.479116e+02  -7.897422e+01
   1.825982e+02   2.848846e+01
  -3.759632e+00   1.122702e+02
  -9.871764e+01   5.847346e+01
  -4.377216e+01   2.820287e+01
  -7.114415e+01   3.968967e+01
  -3.715519e+01   6.650641e+01
  -1.758165e+01   4.035157e+01
  -5.432709e+01   4.192412e+01
  -1.117287e+02  -8.831896e+01
  -3.806753e+01  -1.496329e+02
   2.690319e+01  -8.837314e+01
   6.752813e+01  -1.605407e+01
   5.862358e+01   7.183364e+01
   3.176614e+00   1.642687e+02
  -1.956654e+01   7.864739e+01
   5.810240e+00   5.188925e+01
   2.361755e+01  -1.290948e+01
   6.269129e+00  -2.070564e+01
  -4.415773e+00   1.995869e+01
  -3.358677e+01  -5.243530e+01
  -6.092397e+01  -3.990899e+00
   1.057842e+02  -4.001608e+01
   9.048117e+01  -6.679408e+01
   4.117351e+01   1.223600e+02
   1.042049e+01   7.487973e+01
  -3.158846e+01   8.271748e+00
  -1.096826e+02   5.994848e+00
   1.387608e+01  -5.126842e+01
  -1.492864e+00   1.270004e+00
   2.901544e+01  -6.880167e+00
  -1.318437e+01   4.610959e+01
   2.736614e+01   4.932340e+01
  -1.138847e+02   1.417840e+01
  -4.992911e+01  -2.640332e+01
  -2.062459e+01  -7.982221e+00
   1.621671e+00   7.637859e+01
  -1.016429e+02  -1.092597e+01
  -2.083009e+01  -7.537150e+01
   6.620969e+01  -6.733833e+01
   8.262423e+01  -1.361403e+02
   1.048146e+02   1.606125e+01
   6.994378e+01   3.099213e+01
   5.962108e+00   1.001589e+02
  -1.039271e+02   1.340989e+02
  -1.861525e+01   1.075853e+01
   6.824126e+01  -3.005072e+01
   1.070407e+02   1.482574e+01
  -7.019336e+00   5.981301e+01
  -3.847299e+01   5.166450e+01
  -7.496974e+01   5.102430e+01
  -1.213472e+02   1.685893e+01
  -4.517097e+01  -4.643998e+01
   9.182547e+01  -5.447857e+01
   3.624273e+01   5.568391e+01
  -7.948084e+01   4.148465e+00
  -2.471495e+00  -3.760360e+01
  -3.951758e+01  -8.838817e+01
   1.170863e+01  -9.785484e+01
   9.106665e+01  -1.218024e+02
   9.834851e+01   2.964851e+01
  -5.657810e+01   1.273618e+02
  -6.429030e+01   8.455303e+01
  -4.863566e+01   3.974742e+00
  -4.971847e+01  -4.039744e+01
   2.819144e+00  -9.375223e+01
   3.161184e+01  -1.728848e+01
   3.047067e+01   1.305253e+00
   9.854486e+00  -6.183776e+01
   1.443640e+01  -2.106031e+01
   6.013361e+01   7.987694e+01
   3.986176e+01   5.190693e+01
   1.542329e+01   3.535964e+01
  -4.368358e+01   5.410147e+01
  -8.975022e+01   2.469725e+01
  -5.328763e+01  -8.192403e+01
  -4.866469e+01  -4.449113e+01
   1.460465e+01   3.426639e+00
   9.834207e+01   1.482026e+01
   2.486720e+01   3.115463e+01
  -3.662486e+01  -5.603861e+01
  -2.969752e+01  -9.947840e+00
   2.529308e+01  -1.595565e+01
  -2.147639e+00   5.162483e+01
   1.425138e+01   2.644728e+01
  -7.328466e+01  -2.086924e+01
  -1.005250e+01  -4.841153e+01
   7.445515e+01  -1.236772e+02
   9.014159e+01  -3.847227e+01
   6.461010e+01   9.602886e+01
  -5.941555e+01   1.028022e+02
   3.405723e+01   9.738455e+01
  -9.229878e+01   8.881012e+00
  -5.266656e+01   1.333197e+00
  -3.745527e+01  -3.617447e+01
   1.490028e+01  -2.339802e+01
   3.640654e+01  -9.797092e+00
  -3.435445e+01   4.162820e+00
   4.149692e+01  -9.273850e+01
   4.917133e+01  -7.406957e+01
   3.531347e+01   5.585495e+01
   4.204175e+01   2.847269e+01
   7.161768e+01   1.138909e+02
  -5.439170e+01   1.794031e+01
  -1.062074e+02   1.495359e+01
  -3.366490e+01  -7.028400e+01
   4.542886e+01  -4.115893e+01
   9.971505e+01   2.423846e+01
   1.113946e+00   7.634598e+01
  -4.421524e+01   2.998412e+01
  -1.111019e+02   3.103593e+01
   3.780824e+01  -3.170836e+01
   3.935786e+01  -6.513650e+01
   4.015436e+01  -6.557270e+00
  -4.280470e+01   8.833556e+01
  -1.305128e+02   1.213549e+01
  -4.781940e+01   1.953967e+01
  -1.198844e+00  -5.048238e+01
  -4.897486e+01  -5.904505e+01
   1.157731e+01  -1.386987e+01
   1.892330e+01  -2.730057e+00
  -4.417346e+01   3.652709e+01
   4.992767e+01  -2.009419e+01
   3.733482e+01  -5.793285e+01
  -3.708111e+00  -8.445576e+01
   5.793617e+01   4.836845e+00
   7.821407e+01   5.316608e+01
  -2.500147e+01   5.178470e-01
  -2.116179e+00  -1.370718e+01
   2.763025e+01   2.908440e+01
  -1.665566e+01   4.310950e+01
   9.705096e+00  -2.853191e+00
  -3.422358e+01   3.938459e+01
   1.808209e+01  -5.921569e+01
  -5.733874e+01  -3.518321e+01
  -1.403589e+01  -4.737054e+01
   3.412273e+01   2.791759e+01
  -2.534932e+01   5.889840e+00
  -2.737026e+01   1.901995e+01
   2.754823e+01  -4.330117e+00
   5.626049e+00  -5.873674e+01
  -8.979419e+00   5.287037e+00
   6.510542e+01   1.775184e-01
   6.260872e+01   3.054112e+01
   2.706421e+01   2.987649e+01
  -1.390053e+01   3.562643e+01
   9.024706e+01   4.141834e+01
   6.063479e+01  -3.529863e+01
