
 $NMID
 id='ANONYMOUS ', fmtdat='(2E16.6)'
 volume=1.0
 tramp=1.0
 $END
  -1.907827e+03   7.472990e+01
  -1.307769e+03  -8.684590e+02
  -1.844917e+02  -1.225918e+03
   6.203443e+02  -8.609977e+02
   6.617964e+02  -2.815345e+02
   1.555214e+02   1.370164e+02
  -2.001536e+02  -3.943621e+01
  -8.360998e+01  -3.356586e+02
   2.462411e+02  -3.389773e+02
   4.078034e+02  -1.063849e+02
   2.358525e+02   2.415248e+02
   1.946739e+01   3.958103e+02
  -1.162867e+02   1.928214e+02
  -1.460429e+02  -1.979073e+02
   2.116685e+01  -3.349958e+02
   2.753060e+02  -8.206906e+00
   1.764893e+02   3.673970e+02
  -1.834610e+00   3.707861e+02
  -2.283769e+02   2.275017e+02
  -3.196969e+02  -8.145798e+01
  -9.899447e+01  -2.288340e+02
   4.175069e+01  -1.446879e+02
   8.695474e+00  -3.333435e+01
  -1.041029e+02  -6.826118e+01
  -1.304436e+02  -1.305589e+02
   4.253941e+00  -2.103983e+02
   2.771195e+02  -9.789634e+01
   3.765566e+02   1.089448e+02
   1.264662e+02   1.425151e+02
  -1.814080e+02   1.138757e+02
  -3.042631e+02  -9.114681e+01
  -8.714014e+01  -2.022116e+02
   1.806044e+02  -2.272454e+02
   2.767223e+02  -1.451475e+02
   2.374640e+02   7.777985e+01
   2.537306e+01   1.997207e+02
  -2.896956e+01   1.616056e+02
   5.356655e+01   5.664151e+00
   7.978934e+01  -4.744928e+01
   9.155710e+01   4.800822e+01
  -1.439074e+01   2.983225e+02
  -1.239737e+02   2.420312e+02
  -1.586447e+02   4.987312e+00
  -5.516354e+01  -1.231106e+02
   9.548424e+01  -2.370727e+01
   1.191577e+02   1.090731e+02
  -6.949030e+01   2.426370e+02
  -2.935248e+02   6.566401e+01
  -3.305295e+02  -2.372764e+02
  -1.531504e+02  -2.435934e+02
   1.447461e+02  -1.790408e+02
   3.051966e+02   2.712960e+01
   2.397611e+02   1.407596e+02
  -3.199488e+01   1.141134e+02
  -1.420572e+02   7.928264e+01
  -1.640549e+02   6.353760e-01
  -2.221136e+00  -5.389918e+01
   3.461580e+01  -6.936702e+00
  -8.562841e+01   6.593263e+01
  -1.416537e+02  -2.471168e+01
  -5.724425e+01  -1.221710e+02
   1.089411e+02  -9.832432e+01
   2.211789e+02  -4.664797e+01
   1.971677e+02   6.315091e+01
  -4.705060e+01   2.180622e+02
  -1.650912e+02   2.329502e+02
  -2.596023e+02   1.472522e+02
  -1.422916e+02  -9.625908e+01
  -5.242780e+01  -2.550730e+02
  -5.871895e+00  -1.968858e+02
   3.608255e+01  -7.409586e+01
   1.592064e+01  -1.500180e+02
   2.816639e+01  -8.826628e+01
   1.804086e+02   1.099700e+01
   1.336974e+02   5.044132e+01
   7.170307e+01   1.683792e+02
  -8.836322e+01   1.653729e+02
  -8.781364e+01  -2.687911e+01
  -9.517962e+01  -1.188257e+02
   2.031865e+01  -1.410760e+02
   1.450221e+02  -4.265565e+01
   1.934841e+02   8.362748e+01
   1.013922e+02   1.437544e+02
  -1.406934e+01   1.316594e+02
  -8.380026e+01   8.934935e+01
  -8.908383e+01   3.690381e+01
  -3.434230e+01   3.482859e+01
  -1.825288e+02   3.679579e+01
  -2.642839e+02  -7.283506e+01
  -2.546628e+02  -1.736044e+02
  -2.052298e+01  -2.249051e+02
   1.992096e+02  -2.684273e+02
   2.486834e+02  -1.489528e+02
   1.715967e+02   8.178308e+01
   2.525899e+00   1.504570e+02
  -8.414836e+01   1.020882e+02
   3.979491e+01   1.437310e+01
   1.175300e+02  -3.551987e+01
   7.945950e+01   7.961447e+01
   3.137468e+01   1.138620e+02
  -1.137449e+02   1.195557e+02
  -6.931628e+01  -4.600974e+01
   1.971083e+01  -1.009630e+02
   7.343374e+01   3.993985e+00
   1.202721e+02   1.870647e+02
  -2.906978e+00   2.400149e+02
  -1.026447e+02   1.338010e+02
  -2.750202e+02  -1.039670e+01
  -1.812710e+02  -1.726086e+02
  -1.628959e+01  -1.823881e+02
   4.517874e+01  -9.001975e+01
   1.107171e+02  -1.179161e+01
   1.445779e+00   1.391578e+01
  -2.297770e+01  -5.034872e+01
   6.172537e+01  -1.191321e+02
   3.082929e+01   4.713175e+01
   1.118432e+02  -3.391323e+01
   1.286533e+01  -4.781984e+01
  -2.614705e+01  -8.061103e+01
  -2.030394e+01  -5.030554e+01
   7.390416e+01  -6.296082e+01
   2.254824e+02   2.488880e+01
   1.533261e+02   1.291558e+02
  -1.551339e+01   1.366635e+02
  -1.135252e+02   1.471748e+02
  -1.535680e+02   3.936940e+01
  -1.338565e+02  -5.391158e+01
   2.675863e+01  -5.032116e+01
   7.603590e+01   6.747867e+01
   2.682435e+01   2.865808e+01
  -1.616980e+02  -3.010265e+00
  -1.528359e+02  -3.485900e+01
  -2.505092e+01  -1.263845e+02
  -4.600511e+00  -1.071608e+02
   1.271235e+02   4.878936e+01
  -2.838895e+01   5.038014e+01
  -7.694812e+01  -3.507522e+01
  -5.105071e+01  -8.008181e+01
   8.040732e+01   1.359007e+01
   8.990333e+01  -9.931151e+00
   1.164258e+02   5.185573e+01
   1.197327e+01   8.840825e+01
  -1.325190e+02   1.097591e+02
  -1.093393e+02  -5.480294e+00
  -3.806141e+01  -6.176535e+01
  -3.317712e+01  -5.316633e+01
   1.360692e+01  -4.051708e+01
  -2.033066e+01   2.911993e+01
  -1.877358e+01  -5.581917e+01
  -1.857819e+01  -2.741733e+01
   6.941969e+01   2.698954e+01
   6.422439e+01   8.742625e+01
   8.154670e+00   9.633392e+01
  -5.053936e+01   4.822763e+01
  -1.929162e+02   2.140569e+01
  -1.553747e+02  -1.318695e+02
  -6.994005e+01  -1.594336e+02
   4.665554e+01  -1.359549e+02
   2.806304e+01   1.079725e+01
   5.778909e+01   2.004402e+01
   5.226541e+00   3.698579e+01
   1.680821e+00  -3.114980e+01
   3.943439e+01   1.103008e+01
  -5.692214e-01   3.634980e+01
  -4.434374e+00   5.242706e+01
  -4.683418e+01   5.489810e+01
  -5.388410e+01  -5.115239e+01
   4.038847e+01  -9.969281e+01
   4.876163e+01  -1.064647e+02
   1.754166e+02   3.298987e+01
   3.861991e+01   1.223192e+02
  -5.905487e+01   6.941134e+01
  -2.211979e+02   4.878813e+01
  -1.751566e+02  -6.183125e+01
  -2.983095e+01  -1.100965e+02
   1.725437e+01  -8.495401e+01
   1.891442e+01  -1.388102e+01
   6.427568e+01  -8.155807e+01
  -1.402468e+01  -9.863083e+01
   1.161572e+02  -3.305800e+01
   6.296287e+01   3.909278e+01
   8.339206e+01   1.349784e+02
   1.221459e+01   1.225433e+02
  -8.024637e+01   1.492616e+02
  -1.211129e+02   1.024345e+00
  -6.392458e+01  -9.975563e+01
   8.987055e+00  -1.114451e+02
   3.638874e+01  -1.627737e+01
  -5.398393e+00  -4.710537e+01
  -2.612521e+01   2.777328e+01
  -3.821151e+01  -2.674355e+01
  -8.659874e+00  -9.437051e+00
   7.136681e+01  -1.120224e+01
   8.272044e+00   6.163699e+01
  -5.183685e+01   2.361173e+01
  -9.388286e+01   6.506263e+01
  -1.167551e+02  -3.848616e+01
   3.133617e+01  -1.030325e+02
   1.045315e+02  -5.155986e+01
   1.260272e+02   4.309449e+01
   1.273604e+01   1.058045e+02
  -3.360230e+01  -1.413463e+00
  -9.972499e+01   7.819376e+00
   3.949667e+01  -3.810511e+01
   3.584842e+01  -7.495060e+01
   6.609776e+01  -4.271443e+01
   2.481095e+01   2.873847e+01
   5.490786e+01   4.117896e+01
   4.359223e+01   8.951998e+00
   5.702037e+01   3.248457e-01
   7.491580e+01   4.135532e+01
  -2.326911e+01   1.360092e+02
  -3.766435e+01   6.572766e+01
  -9.386637e+01   3.430336e+01
  -1.229483e+02  -1.197478e+02
   8.214002e+01  -8.853197e+01
   2.760735e+01  -1.822458e+00
   4.695914e+01  -1.651569e+01
  -7.554085e+01  -3.936339e+01
  -1.125212e+02  -1.339759e+01
  -4.622410e+01  -3.621873e+01
   4.610690e+01  -8.595138e+01
   5.317037e+01  -6.673567e+01
   9.351325e+01   3.421409e+01
   3.609388e+01   1.624624e+01
  -3.896056e+01  -2.421765e+01
  -2.352515e-01   2.813292e+01
   5.084201e+00  -2.963508e+01
  -2.930366e+01  -8.131143e+00
  -9.241251e+00   8.826437e+01
  -1.847276e+01   5.085772e+01
  -7.966377e+01  -3.607331e+00
  -2.130898e+01  -2.882069e+01
  -2.344112e+01  -1.026118e+02
   6.445154e+01  -8.251063e+01
  -9.696036e+00   3.354510e+01
   4.489210e+01   1.537508e+02
  -3.467390e+01   5.192204e+01
   9.687996e+00   3.526120e+01
  -4.096686e+01  -2.724602e+00
  -1.452335e+01  -5.535661e-01
   2.597337e+01   2.605071e+01
  -4.832574e+01   6.141587e+00
  -5.813696e+01  -4.324364e+01
  -2.714750e+00  -4.387196e+01
   2.798264e+01  -3.649794e+01
   6.495801e+01   2.770924e+01
   3.681117e+01   5.962049e+01
   6.175305e+01   8.234604e+01
  -6.522660e+00   3.317259e+01
  -1.429957e+02   2.868664e+01
  -5.009744e+01  -6.533304e+00
   4.853612e+00   2.560907e+01
  -2.794105e+01  -3.663400e+01
  -5.931556e+01   4.388209e+01
   2.643070e+01  -5.078850e+00
   3.499275e+01   3.031431e+01
   4.219497e+01  -2.001823e+01
   3.335363e+01   8.855829e+01
  -8.819976e+01   5.718717e+01
  -1.278266e+02   4.106925e+01
  -8.198273e+01  -5.864530e+01
  -1.931288e+00  -5.655369e+01
   7.418689e+01  -8.298442e+01
   7.227285e+01  -1.029509e+02
   8.973535e+01   1.332576e+01
   3.589618e+01  -4.688246e+01
   1.499416e+01  -3.991146e+00
   3.504421e+01   5.192962e+00
  -1.896300e+01   3.393256e+01
  -2.239699e+01   5.636243e+01
  -3.644928e+01   6.335852e+01
  -1.069127e+02  -3.892684e+01
  -7.916100e+01  -7.827200e+01
  -6.383213e+00  -8.994679e+01
   9.264809e+01  -9.400400e+01
   6.501312e+01   6.419842e+01
   1.845666e+01   3.875198e+01
  -5.619714e+00   2.864523e+01
  -1.169749e+02   9.818929e+00
  -9.173960e+00  -5.505087e+01
  -4.902173e+00  -4.818871e+01
   1.650612e+01   2.412949e+01
  -2.130496e+01  -1.548948e+01
  -1.783696e+01  -3.474678e+01
  -2.084284e+01   2.804887e+01
   1.577152e+01  -7.979480e+01
   1.522876e+02   3.024006e+01
  -2.098178e+01  -3.367484e+01
   1.555833e+01   8.657259e+01
  -4.865166e+01   1.579223e+01
  -6.010512e+01   1.653295e+01
  -3.915614e+01  -2.669945e+01
  -8.287333e+00  -4.004759e+01
   5.927846e+01   4.616174e-01
   6.043895e+01  -4.368161e+01
  -2.531938e+01   1.519522e+01
  -6.766718e+01  -5.264619e+01
  -4.575401e+01  -1.950251e+00
  -7.683872e+00  -1.167782e+01
  -2.711655e+00  -1.987771e+01
  -1.092167e+01   3.215053e+00
  -1.033839e+01  -7.752247e+00
  -1.260481e+01  -4.864931e+01
   1.897237e+01  -3.126185e+01
   5.785487e+00   3.503024e+01
   1.341754e+01  -3.659176e+01
   2.261278e+01   3.001532e+01
  -4.281772e+01  -2.563422e+01
   2.416920e+00  -6.685337e+01
  -5.392090e+01  -4.733533e+01
   3.728848e+01  -4.215972e+01
   2.649922e+01   6.244259e+01
   1.793661e+01   2.310580e+01
  -2.929639e+01  -1.641204e+01
   5.386636e+01   2.145689e+01
   6.290235e+01  -8.398964e+00
  -1.188823e+01  -2.299130e+01
   2.053762e+00  -2.641773e+01
  -6.185070e+01  -2.749488e+00
