
 $NMID
 id='ANONYMOUS ', fmtdat='(2E16.6)'
 volume=1.0
 tramp=1.0
 $END
   2.968183e+03   8.030701e+01
   2.006428e+03   1.436997e+03
   7.433228e+01   1.881774e+03
  -1.081940e+03   1.146938e+03
  -8.944501e+02   2.644819e+02
  -1.651580e+02  -1.874805e+02
   2.863056e+02   9.733288e+01
   4.700633e+01   4.721754e+02
  -3.427798e+02   5.074018e+02
  -6.117326e+02   1.054494e+02
  -4.785265e+02  -4.623335e+02
  -4.634041e+01  -5.847536e+02
   1.897760e+02  -1.882741e+02
   2.753885e+02   3.265214e+02
  -8.271310e+01   4.834007e+02
  -3.425469e+02   9.897689e+01
  -2.934469e+02  -3.908762e+02
   1.106506e+02  -5.407060e+02
   4.189849e+02  -2.312799e+02
   4.571097e+02   1.565775e+02
   1.159504e+02   3.204155e+02
  -8.148010e+01   2.177798e+02
  -9.416043e+01   1.112816e+02
   2.128354e+02   1.390979e+02
   2.529308e+02   3.043128e+02
   8.132032e+00   3.362536e+02
  -4.210375e+02   1.277397e+02
  -5.392266e+02  -1.155820e+02
  -1.916397e+02  -3.251155e+02
   2.643492e+02  -1.359887e+02
   4.642979e+02   1.405849e+02
   1.345610e+02   3.788877e+02
  -3.031864e+02   2.864747e+02
  -4.028826e+02   1.438203e+02
  -3.516088e+02  -1.412193e+02
  -3.741899e+01  -3.037661e+02
   5.131015e-01  -1.312161e+02
  -2.771250e+01   9.031290e+01
  -1.379922e+02   1.300770e+02
  -2.014152e+02  -1.268899e+02
  -4.679842e+01  -4.180971e+02
   2.563024e+02  -3.768781e+02
   3.057608e+02   9.685012e+00
   9.125462e+01   2.807255e+02
  -1.353783e+02   8.455200e+01
  -9.056034e+01  -2.675833e+02
   1.105208e+02  -3.825578e+02
   3.588837e+02  -3.033181e+01
   4.112371e+02   3.826783e+02
   1.547317e+02   4.722846e+02
  -1.820222e+02   2.585101e+02
  -4.560681e+02  -1.285864e+02
  -2.994213e+02  -1.921513e+02
   6.564067e+01  -1.473963e+02
   2.489155e+02  -7.708230e+01
   1.474991e+02   5.396026e+01
  -1.795488e+01   1.283851e+01
  -5.205569e+01  -7.158502e+01
   5.318805e+01  -2.416339e+00
   2.302069e+02   6.876235e+01
   1.007826e+02   2.407311e+02
  -9.267524e+01   1.761627e+02
  -3.373398e+02   1.268891e+02
  -2.714554e+02  -3.747498e+01
   5.003530e+01  -3.538154e+02
   2.881578e+02  -3.862270e+02
   3.267230e+02  -1.205584e+02
   1.820626e+02   1.601206e+02
   7.379334e+01   3.962717e+02
   4.791180e-01   3.055654e+02
  -2.697160e+01   1.666559e+02
  -1.488759e+01   6.900222e+01
  -1.175112e+02   1.200427e+02
  -2.686656e+02   3.245624e+01
  -2.435878e+02  -1.022443e+02
  -7.665156e+01  -1.810573e+02
   1.117226e+02  -1.291606e+02
   2.198853e+02   4.480168e+01
   1.106537e+02   2.253012e+02
  -9.924850e+01   2.318110e+02
  -2.430479e+02   8.621135e+01
  -2.899283e+02  -1.377162e+02
  -1.672636e+02  -3.384305e+02
   6.153471e+01  -2.055606e+02
   1.574512e+02  -9.391093e+01
   1.783543e+02  -2.358126e+01
   1.041968e+02  -5.897561e+01
   2.365201e+02  -2.622549e+01
   3.764699e+02   5.885762e+01
   2.670211e+02   3.266301e+02
  -3.936911e+01   3.948666e+02
  -4.296015e+02   3.957926e+02
  -4.434022e+02   1.743626e+02
  -2.890543e+02  -1.519679e+02
  -1.956135e+01  -2.088897e+02
   9.288144e+01  -1.947423e+02
   3.491763e+01  -6.661482e+01
  -1.702232e+02   1.033958e+02
  -1.111478e+02  -3.243307e+01
  -3.940569e+01  -1.253896e+02
   1.115013e+02  -1.628783e+02
   1.392424e+02   8.629070e+01
  -4.775945e+01   8.021314e+01
  -1.558454e+02   2.085585e+01
  -1.536762e+02  -1.943903e+02
   2.346692e+01  -3.003622e+02
   2.331749e+02  -1.995772e+02
   3.571021e+02   7.248706e+01
   2.813110e+02   2.653949e+02
   3.355207e+01   2.637801e+02
  -1.063585e+02   1.598051e+02
  -1.166777e+02   2.067684e+01
  -6.299359e+01  -1.101694e+01
   6.727616e+01   6.870606e+01
  -2.657534e+01   1.766578e+02
  -1.135885e+02   4.552908e+01
  -1.851023e+02  -3.068845e+01
  -7.355888e+01  -9.607672e+01
   8.305255e+01  -1.089308e+01
   7.057965e+01   9.549961e+01
  -1.409592e+02   7.054599e+01
  -2.370543e+02  -4.422870e+01
  -2.038502e+02  -1.901726e+02
  -6.774679e+01  -2.589995e+02
   2.343929e+02  -2.353096e+02
   2.158827e+02  -3.750386e+01
   1.158568e+02   1.036265e+02
  -4.947556e+01   9.512336e+01
  -1.814393e+01  -3.708418e+01
   1.666902e+01  -7.150797e+01
   1.806430e+02   1.729754e+01
   1.018978e+02   1.599292e+02
   8.303948e+01   2.373670e+02
  -1.009330e+02   6.333232e+01
  -8.526211e+01  -2.400844e+01
  -5.940208e+01  -7.382245e+01
   4.898654e+01   5.362883e+01
  -6.344809e+01   1.458579e+02
  -8.151331e+01   1.046612e+02
  -1.681329e+02   9.805305e+00
  -1.590737e+02  -1.503008e+02
  -1.557877e+01  -2.022676e+02
   1.420029e+02  -1.389251e+02
   1.869393e+02   7.701344e+00
   1.353364e+01   6.859952e+01
  -1.048983e+02   8.595169e+01
  -5.854803e+01   3.214059e+01
   1.041559e+02  -4.703139e+01
   1.801303e+00   3.891165e+01
  -2.109120e+01   8.031167e+00
  -5.907392e+01   6.304706e+01
  -1.182286e+02  -8.934418e+01
   3.127029e+01  -2.178408e+02
   1.426394e+02  -1.853173e+02
   1.947281e+02   3.046034e+01
   1.044051e+02   1.985078e+02
   9.994947e+00   2.224561e+02
  -1.237218e+02   8.722537e+01
  -9.625112e+01   8.537427e+01
  -1.138858e+02  -2.444297e+01
  -1.191449e+01  -2.997805e+01
   4.003703e+00  -3.288233e+00
  -1.086290e+02   4.609754e+01
  -7.401672e+01  -1.349666e+02
   5.109752e+01  -1.722879e+02
   1.344317e+02  -5.839390e+01
   1.396379e+02   6.669868e+01
  -2.678322e+01   2.028104e+02
  -2.026882e+02   8.424550e+01
  -2.158929e+02  -6.857551e+01
  -2.698712e+01  -2.027509e+02
   1.774489e+02  -1.687945e+02
   2.488926e+02  -9.513701e+00
   2.815010e+02   6.925357e+01
   8.456467e+01   1.556355e+02
  -1.804346e+01   9.545721e+01
  -9.423574e+01   4.323690e+01
  -1.060744e+02   1.360613e+02
  -4.665014e+01   1.038928e+02
  -8.137443e+01   1.134302e+02
  -1.798665e+02  -4.763481e+01
  -6.856432e+01  -1.265647e+02
  -1.226463e+01  -2.237518e+02
   1.203375e+02  -1.453724e+02
   1.341032e+02   3.225756e+01
   1.709503e+02   7.963099e+01
   2.228605e+01   1.127611e+02
  -8.274666e+01   1.123686e+02
  -5.681569e+01  -3.924861e+00
   5.058728e+01  -3.983070e+01
   4.980715e+01  -4.589529e+01
  -6.757080e+01  -2.617485e+01
  -3.791278e+01  -1.665178e+01
  -6.309699e+01  -1.289354e+01
   6.987034e+01  -6.163743e+01
   1.612563e+02  -1.818566e+01
   1.506690e+02   7.393504e+01
  -2.825888e+01   4.779139e+01
  -2.156664e+02   6.279035e+01
  -1.426934e+02   2.110664e+01
  -1.010061e+01  -8.700801e+01
   2.166943e+01   4.248602e+01
   9.578369e+01   2.108695e-01
   3.086581e+01   1.311492e+02
  -2.035758e+01   7.416473e+01
  -5.432409e+01   1.203150e+01
  -1.023892e+02  -6.427198e+01
  -8.313127e+00  -1.207610e+00
  -7.621236e+01  -4.226535e+01
  -4.383944e+01   1.733179e+01
  -1.692512e+01  -1.084112e+02
   6.823696e+01  -1.636815e+02
   1.120765e+02  -1.319072e+02
   1.799746e+02  -4.155112e+01
   1.405558e+02   8.560822e+01
  -7.489078e+01   1.026956e+02
  -1.220631e+02   5.742548e+01
  -9.263740e+01  -4.292784e+00
   2.833041e+01  -2.117702e+01
   1.015046e+02   6.598173e+01
   1.311766e+00   1.285135e+02
  -1.054169e+02   8.246673e+01
  -1.276662e+02   7.691816e+01
  -1.604772e+02  -3.085179e+01
  -3.959395e+01  -1.118370e+02
   6.399049e+01  -5.352599e+01
   3.688019e+01  -2.354544e+01
   8.222354e+00   4.089389e+01
  -8.490471e+01  -9.033328e+00
  -8.745691e+01  -1.632352e+02
   1.388114e+02  -1.331800e+02
   1.388589e+02   4.393566e+00
   8.579365e+01   1.152210e+02
  -6.406458e+00   2.188366e+02
  -3.004666e+01   1.240892e+02
  -1.012301e+02   3.443352e+01
  -4.096955e+01  -1.061028e+02
   6.793216e+00  -1.178196e+02
   9.162894e+01  -9.552756e+00
   1.010060e+02   3.988655e+00
  -1.908522e+01  -6.827457e+00
   2.860868e+01  -4.034123e+01
   3.790467e+01  -3.845843e+01
   3.323160e+01   1.206491e+02
   6.380609e+01   1.252852e+02
  -5.638858e+01   5.201316e+01
  -1.204867e+02  -2.844688e+01
  -1.772144e+02  -4.661339e+01
   2.046897e+01  -1.231564e+02
   7.369081e+01  -1.275073e+01
   7.998418e+01  -3.520890e+01
   7.601021e+00  -2.288748e+01
  -5.531653e+01   6.304469e+01
   1.737318e+01  -2.772857e+01
  -1.100159e+01  -4.788498e+00
   5.827364e+00  -4.508633e+00
  -8.621268e+01  -3.072606e+01
  -9.255841e+01  -2.727556e+01
  -5.035194e+01  -6.391627e+01
   1.119682e+02  -1.459878e+02
   2.085341e+02  -7.459655e+01
   1.036937e+02   2.827305e+01
   6.798366e+01   1.190256e+02
  -6.211833e+01   1.621679e+02
  -1.630635e+02   8.479386e+01
  -1.302614e+02   8.982900e-01
  -3.171345e+01  -1.877383e+01
  -4.163596e+01  -3.581362e+01
  -4.113243e+01   6.684343e+01
  -8.701313e+01  -6.924348e+01
  -7.843738e+00  -8.367786e+01
  -9.234970e+00  -1.550073e+01
   5.164780e+01   1.429660e+01
   8.404198e+01   7.707405e+01
   4.490262e+01   8.301640e+01
  -6.791983e+01   5.668084e+01
  -1.118486e+02  -1.255987e+02
  -6.516560e+01  -6.695547e+01
   2.657431e+01  -5.431208e+01
   1.646267e+02  -1.738706e+01
   8.372523e+01   6.728780e+01
  -3.901590e+00   1.113751e+01
  -2.149455e+01  -2.628240e+01
   8.910153e-01   3.455157e+00
   1.786210e+01  -4.530825e+01
  -3.289373e+01  -9.241991e-01
  -7.679976e+01   8.037134e+01
  -9.621809e+01   2.110968e+01
  -8.235056e+01   6.750961e+00
  -1.460115e+01  -8.879079e+01
   6.652607e+01  -6.417732e+01
   7.077603e+01  -5.910365e+01
   1.193701e+01  -5.817888e+00
  -1.079742e+01  -4.464675e+01
  -4.962524e+00  -2.721899e+00
  -4.396634e+01  -6.412605e+01
   2.603915e+01  -6.219702e+01
  -3.463567e+01  -5.232816e+00
  -1.525806e+01  -6.961220e+00
   1.674018e+01   6.374538e+01
  -1.992514e+01  -8.260547e+01
  -1.252175e+01   5.019071e+00
  -2.548754e+01  -1.854719e+01
  -9.713819e+00   4.252964e+01
  -5.366071e+01  -1.528980e+01
  -4.186724e+01  -5.665823e+01
   8.830312e+00  -9.165621e+01
  -1.671758e+01  -2.130602e+01
   5.967632e+01   3.037114e+01
   2.835182e+01   8.286801e+01
  -7.608283e+01   1.685089e+01
  -1.145983e+02  -3.051200e+01
  -6.815554e+01  -6.332212e+01
   6.665721e+01   2.312640e+01
   1.213061e+02  -4.075494e+01
  -1.044109e+01  -1.694263e+01
  -5.748799e+01  -3.416950e+00
   2.708917e+01  -5.914689e+00
   1.724355e+01  -4.684933e+01
   9.743949e+01  -5.994945e+01
