
 $NMID
 id='ANONYMOUS ', fmtdat='(2E16.6)'
 volume=1.0
 tramp=1.0
 $END
   3.089046e+03   5.696523e+01
   1.980001e+03   1.588457e+03
  -9.268449e+00   1.962958e+03
  -1.139097e+03   1.157345e+03
  -8.933898e+02   1.716091e+02
  -3.745212e+01  -1.484245e+02
   3.663910e+02   9.650550e+01
   1.402557e+01   5.218396e+02
  -4.125220e+02   5.900022e+02
  -5.750745e+02   6.879235e+01
  -3.854566e+02  -4.741840e+02
   3.092049e+01  -6.111503e+02
   2.185058e+02  -1.947516e+02
   2.227186e+02   3.777776e+02
  -1.151207e+02   5.752205e+02
  -3.406176e+02   3.549793e+01
  -2.671695e+02  -4.530297e+02
   1.481983e+02  -5.522941e+02
   4.602395e+02  -2.787118e+02
   4.087686e+02   1.355542e+02
   1.369155e+02   3.001534e+02
  -9.659798e+01   2.155503e+02
  -1.201251e+02   8.540044e+01
   1.734737e+02   8.044577e+01
   2.661250e+02   2.592046e+02
   3.352075e+01   3.470483e+02
  -4.524219e+02   2.074678e+02
  -6.244037e+02  -1.659021e+02
  -2.385844e+02  -3.472402e+02
   2.811032e+02  -1.776289e+02
   4.599091e+02   1.222540e+02
   1.610530e+02   3.654170e+02
  -2.956048e+02   3.447896e+02
  -4.127104e+02   1.384282e+02
  -3.543748e+02  -1.609855e+02
  -7.092245e+01  -3.481617e+02
   1.154226e+01  -1.875395e+02
  -1.051218e+01   1.289244e+02
  -2.472977e+02   1.261245e+02
  -1.332056e+02  -1.897917e+02
  -9.476655e+00  -4.430573e+02
   1.943427e+02  -3.562134e+02
   2.659812e+02   4.303319e+01
   2.656553e+01   2.915611e+02
  -1.325535e+02   4.514657e+01
  -1.199828e+02  -2.709046e+02
   1.669512e+02  -3.187813e+02
   3.833445e+02  -6.756931e+01
   4.772788e+02   3.190610e+02
   1.474987e+02   5.131203e+02
  -2.768816e+02   2.375941e+02
  -4.913227e+02  -6.364508e+01
  -2.952214e+02  -2.398626e+02
   6.454606e+01  -2.025286e+02
   2.352277e+02  -1.103347e+02
   2.102279e+02   4.822349e+00
   1.437809e+01   1.945761e+01
  -7.964724e+01  -7.796934e+01
   1.280351e+02  -1.541673e+01
   1.948232e+02   8.099851e+01
   1.501641e+02   1.945139e+02
  -1.725462e+02   2.141979e+02
  -3.039987e+02   1.183768e+02
  -2.904656e+02  -7.627399e+01
   5.249824e+01  -3.210532e+02
   2.459376e+02  -3.047980e+02
   3.775406e+02  -1.906316e+02
   2.125628e+02   1.842006e+02
   5.439201e+01   3.308150e+02
   1.336386e+01   2.772202e+02
  -2.299930e+01   1.624339e+02
   1.004573e+01   1.019958e+02
  -1.725510e+02   1.162131e+02
  -2.749832e+02   3.792500e+01
  -2.133189e+02  -1.059600e+02
  -8.735729e+01  -2.503400e+02
   9.842980e+01  -1.974854e+02
   2.216285e+02   6.684692e+01
   1.163045e+02   2.458215e+02
  -3.974600e+01   2.580739e+02
  -2.313449e+02   1.452773e+02
  -2.802333e+02  -1.799048e+02
  -1.215954e+02  -2.849490e+02
   4.079789e+01  -2.177311e+02
   1.336314e+02  -1.061944e+02
   1.431061e+02  -9.386968e+00
   1.770310e+02  -6.049471e+01
   2.836939e+02  -5.363171e+01
   4.225884e+02   8.733267e+01
   3.035525e+02   2.252490e+02
  -1.530306e+01   4.289541e+02
  -3.161274e+02   3.543696e+02
  -5.356869e+02   2.079006e+02
  -3.291550e+02  -1.423344e+02
  -5.100482e+01  -2.132516e+02
   5.971278e+01  -2.232573e+02
  -2.327995e+01   3.888504e-01
  -8.977204e+01   5.802359e+01
  -1.179901e+02  -2.975215e+01
  -4.781318e+01  -1.284850e+02
   1.903103e+02  -7.479929e+01
   9.885215e+01   8.935129e+01
  -5.056608e+01   8.399509e+01
  -1.504254e+02  -7.544587e+00
  -1.160034e+02  -2.621325e+02
   5.167758e+00  -3.053927e+02
   2.174116e+02  -2.207097e+02
   3.668296e+02   9.118992e+01
   2.908733e+02   2.380954e+02
   7.014431e+01   2.664050e+02
  -1.669811e+02   9.827500e+01
  -1.128469e+02   1.489734e+01
  -4.785057e+01  -6.449093e+01
   3.614549e+01   5.777986e+01
  -3.178288e+01   1.388102e+02
  -1.086006e+02   1.001243e+02
  -1.527387e+02   2.426380e+01
   1.553035e+01  -4.319985e+01
   8.209668e+01  -6.675078e+00
   4.778553e+01   8.150746e+01
  -1.476647e+02   1.197544e+02
  -3.123378e+02  -3.412790e+01
  -2.619473e+02  -1.568782e+02
   6.689555e+01  -2.197866e+02
   2.104788e+02  -2.493861e+02
   2.533856e+02  -1.138744e+02
   1.091131e+02   5.852165e+01
  -8.575307e+01   7.546079e+01
  -6.378109e+01  -2.403871e+01
   2.624598e+01  -6.629647e+01
   1.979144e+02   1.051041e+01
   1.704602e+02   8.250015e+01
   8.818387e+00   2.109930e+02
  -1.136824e+02   1.405361e+02
  -1.058346e+02   4.915334e+01
  -6.941018e+01  -1.832594e+01
   6.936534e+01   1.607053e+01
   4.591052e+01   1.351224e+02
  -1.259625e+02   9.462966e+01
  -1.834022e+02  -2.819860e+01
  -1.479848e+02  -9.976903e+01
  -2.137825e+01  -1.900112e+02
   1.333052e+02  -1.443189e+02
   1.845301e+02   3.221325e-01
   3.358833e+01   9.705866e+01
  -6.120838e+01   7.499263e+00
  -6.758596e+01   4.510386e+01
   5.614294e+00  -4.624229e+01
   7.302630e+01  -5.124209e+01
   5.827249e+00   3.150981e+01
  -1.082986e+02   7.057812e+01
  -7.498578e+01  -9.363844e+01
  -5.492729e+01  -1.744932e+02
   1.151268e+02  -1.544568e+02
   1.934710e+02   3.149722e+01
   2.274631e+02   1.678725e+02
   1.831764e+01   2.503622e+02
  -5.038049e+01   1.200100e+02
  -1.224346e+02   4.240354e+01
  -9.471442e+01   1.167289e+01
  -8.434351e+01  -7.519405e+01
   4.064723e+00   1.995334e+01
  -6.490922e+01   1.030285e+01
  -6.563343e+01  -1.140188e+02
   2.645000e+01  -7.196729e+01
   1.532668e+02  -4.578832e+01
   5.893505e+01   6.821002e+01
   1.519634e+01   1.044950e+02
  -1.492805e+02   1.189702e+02
  -2.485884e+02  -1.125709e+02
  -6.221582e+01  -2.264902e+02
   1.051176e+02  -2.564675e+02
   2.636727e+02  -9.452921e+01
   2.250547e+02   1.132686e+02
   1.010688e+02   1.555177e+02
  -4.891084e+01   1.120343e+02
  -4.312372e+01   6.818130e+01
  -3.611743e+01   2.729773e+01
  -5.315399e+01   7.611081e+01
  -3.120512e+01   5.481465e+01
  -1.486685e+02  -1.649949e+01
  -1.368840e+02  -1.861232e+02
  -4.549527e+01  -1.729630e+02
   1.225867e+02  -1.412811e+02
   1.381933e+02  -1.335914e+01
   4.103485e+01   9.885052e+01
   1.041230e+01   1.700153e+02
  -4.857859e+01   3.557063e+01
  -7.161136e+01  -2.388508e+01
  -1.317004e+01  -6.657463e+01
   6.198045e+00  -2.676770e+01
  -5.280792e+01  -6.076449e+00
  -1.176935e+01  -4.856245e+01
  -1.318864e+01  -5.005557e+01
   8.943609e+01  -3.478873e+01
   1.528610e+02  -3.108510e+01
   1.373857e+02   1.150053e+02
   1.826231e+01   1.025120e+02
  -1.757388e+02   3.060920e+01
  -1.292223e+02  -5.684334e+01
  -3.260078e+01  -3.407659e+01
   7.488696e+01  -5.133584e+00
   9.978655e+01   6.865517e+01
  -1.173108e+01   1.086735e+02
  -2.631871e+01   2.511242e+01
  -7.551802e+01  -6.179145e+01
  -6.417862e+01  -3.034629e+01
   3.195763e+00  -5.891004e+01
  -8.239171e+01   3.007408e+01
  -1.051950e+02  -2.547788e+01
  -2.393669e+01  -8.506467e+01
   2.642135e+01  -1.880920e+02
   1.287401e+02  -2.171271e+02
   2.124097e+02  -1.029642e+01
   8.317857e+01   1.348646e+02
   9.526894e+00   8.516619e+01
  -1.358330e+02  -8.922536e-01
  -2.920251e+01  -4.937324e+00
   7.455404e+00  -1.785730e+00
   1.012949e+02   6.563752e+01
   2.215779e+01   1.493637e+02
  -8.779599e+01   1.006162e+02
  -1.966759e+02   7.116350e+01
  -1.236502e+02  -1.082549e+01
  -1.654627e+01  -2.424465e+01
   3.265892e+01  -5.377111e+01
   6.263029e+00   2.210406e+01
  -5.996310e+00   5.596519e+01
  -9.612882e+01  -1.359764e+01
  -6.051793e+01  -1.042095e+02
   1.132878e+02  -1.447251e+02
   1.327678e+02  -3.789140e+01
   9.520999e+01   8.169823e+01
   1.554720e+01   2.194676e+02
  -9.549657e+01   1.471157e+02
  -1.360969e+02  -7.085826e+01
  -9.079914e+01  -1.257067e+02
   2.610489e+01  -8.858097e+01
   1.236116e+01  -1.391126e+01
  -1.660250e+00   3.781822e+01
   9.108040e+00   4.885446e+00
  -5.515140e+01   7.481784e+00
   5.193480e+01   3.620731e+01
   4.285958e+01   4.810374e+01
   2.527413e+01   1.186517e+02
  -5.255037e+01   5.899577e+01
  -1.047639e+02  -6.930760e+01
  -1.183872e+02  -9.741958e+01
   3.239167e+01  -5.588752e+01
   4.400764e+01   1.039098e+00
   2.705764e+01   1.244102e+01
   3.294743e+01   4.670193e+00
  -1.244907e+00   2.040805e+01
  -8.463972e+01   4.400351e+00
  -1.389580e+01  -1.620887e+01
  -3.414898e+01  -1.135563e+01
  -4.864818e+01  -3.929447e+00
  -2.405128e+01  -3.194530e+01
  -5.708729e+01  -3.880975e+01
   1.223557e+02  -1.467024e+02
   1.692694e+02  -4.959514e+01
   1.742132e+02   4.037799e+01
   1.998066e+01   1.421680e+02
  -6.002582e+01   1.755162e+02
  -8.371756e+01   9.485605e+01
  -7.075536e+01  -1.442242e+01
  -5.807722e+01  -1.831929e+01
  -1.900965e+00   2.792657e+00
  -2.712916e+01  -5.137494e+01
  -4.879135e+01  -5.515519e+01
   1.667279e+01  -6.934777e+01
   7.054066e+00  -1.121572e+02
   1.013116e+02   3.577244e+01
   6.123352e+01   6.693806e+01
   9.077414e+01   7.204050e+01
  -7.473827e+01   6.574736e+01
  -1.408260e+02  -4.755197e+01
  -7.489300e-01  -1.223567e+02
   1.049401e+02  -7.661540e+01
   5.699862e+01  -1.526483e+01
   9.278926e+01   7.112690e+01
  -7.508899e+00   7.504843e+01
   2.063169e+01   4.210474e+01
   3.534355e+01  -5.600937e+01
  -3.323928e+00  -2.621443e+01
   3.532946e+01   1.569926e+01
  -5.901197e+01   3.759351e+01
  -1.747618e+02   1.105166e+01
   3.736594e+01  -4.314033e+00
   7.298121e+00  -1.510103e+01
   1.112701e+02  -1.134286e+02
   3.303359e+01  -2.529637e+01
  -1.453323e+01   7.913299e+01
  -8.998991e+01   3.413066e+01
  -7.086136e+01  -5.559040e+01
   1.786534e+00  -6.261858e+01
  -1.930977e+01  -2.639084e+01
   5.989602e+01  -3.873906e+01
   1.149824e+01   3.599419e+01
   2.336345e+01  -2.669387e+01
  -2.724116e+01  -7.789930e+00
   2.352413e+01   3.509893e+01
   5.181411e+01   3.646767e+01
   7.932575e+01   5.587679e+01
  -3.357618e+01   4.756211e+01
  -6.420089e+00  -3.334305e+01
  -2.263815e+01  -6.798631e+01
   7.474641e+01  -2.998222e+01
   1.013282e+01   3.211985e+01
   2.826334e+01   5.834389e+01
  -8.538834e+01   6.861556e+01
  -1.297457e+02   7.652422e+00
  -5.079989e+01  -9.117266e+01
  -2.805569e+01   7.978194e+00
   4.798869e+01  -9.507812e+01
   2.522763e+01   1.245273e+01
  -3.563729e+01  -2.034112e+00
  -7.162819e+01  -5.798748e+01
  -1.421626e+01   5.986811e+00
   9.874692e+01   1.759154e+01
