
 $NMID
 id='ANONYMOUS ', fmtdat='(2E16.6)'
 volume=1.0
 tramp=1.0
 $END
  -2.544720e+03   1.106121e+02
  -1.783292e+03  -1.111157e+03
  -2.852996e+02  -1.620976e+03
   8.447547e+02  -1.224858e+03
   8.570986e+02  -5.028354e+02
   2.990310e+02   1.214993e+02
  -1.404294e+02   5.166798e+01
  -1.063804e+02  -3.280589e+02
   2.528290e+02  -4.092285e+02
   4.690836e+02  -1.906496e+02
   4.031439e+02   3.386999e+02
   1.002480e+02   5.307327e+02
  -1.636603e+02   2.009365e+02
  -2.094819e+02  -2.953083e+02
   3.625771e+01  -4.085732e+02
   3.052419e+02  -1.285321e+02
   2.752624e+02   3.326549e+02
  -3.242253e+01   5.253886e+02
  -3.996854e+02   3.928135e+02
  -3.890010e+02  -9.670946e+01
  -1.149043e+02  -3.049686e+02
   3.910454e+01  -2.395379e+02
   4.123588e+01  -7.174302e+01
  -1.420075e+02  -1.650269e+02
  -1.701744e+02  -2.334179e+02
   5.753700e+01  -2.645352e+02
   3.744346e+02  -1.635422e+01
   4.446779e+02   1.737693e+02
   1.079135e+02   2.603718e+02
  -2.520123e+02   6.007466e+01
  -3.968693e+02  -1.607162e+02
  -9.576170e+01  -2.711649e+02
   2.033379e+02  -2.447051e+02
   3.119494e+02  -7.758368e+01
   2.691840e+02   9.596775e+01
   8.510573e+01   2.084105e+02
   4.280442e+01   1.141468e+02
   6.753272e+01   5.180159e+01
   1.973847e+02  -2.327905e+01
   6.020013e+01   1.303140e+02
  -3.322371e+01   3.876002e+02
  -1.649138e+02   2.784368e+02
  -2.151506e+02   6.515422e+00
  -6.433757e+01  -1.713667e+02
   5.512767e+01  -8.830561e+01
   3.805351e+01   1.968815e+02
  -1.164146e+02   3.462257e+02
  -3.624237e+02   2.596135e+01
  -4.202730e+02  -2.699483e+02
  -1.491919e+02  -3.900082e+02
   2.617077e+02  -2.438721e+02
   4.294433e+02   6.734163e+01
   2.483402e+02   1.656416e+02
   1.778870e+01   1.580691e+02
  -2.285680e+02   5.296111e+01
  -1.759400e+02   6.072699e+01
  -5.179113e+01  -1.337149e+01
   5.229353e+01   4.311971e+00
  -9.412790e+01   3.167933e+01
  -1.678091e+02   3.520831e-01
  -3.737113e+01  -1.322106e+02
   1.168932e+02  -2.193553e+02
   3.345570e+02  -1.577049e+02
   2.638653e+02   1.159260e+02
   7.955907e+00   2.828748e+02
  -3.051211e+02   4.066036e+02
  -3.674802e+02   1.620031e+02
  -1.814876e+02  -1.525734e+02
  -6.141327e+01  -2.589236e+02
   6.138934e+00  -2.154735e+02
  -2.709935e+01  -1.626507e+02
   1.950699e+01  -8.643895e+01
   1.121424e+02  -1.351093e+02
   2.038830e+02  -2.201440e+01
   2.138462e+02   1.436428e+02
   5.574765e+01   1.953842e+02
  -1.336822e+02   1.253309e+02
  -1.207975e+02   1.846885e+01
  -6.006354e+01  -2.157797e+02
   3.277119e+01  -2.254776e+02
   1.965294e+02  -9.761012e+00
   2.175616e+02   1.373962e+02
   1.994054e+02   2.495845e+02
  -3.766132e+01   1.663847e+02
  -1.090868e+02   1.635163e+02
  -1.031618e+02   1.195693e+02
  -1.834346e+02   7.601227e+01
  -2.638797e+02   5.604517e-02
  -3.745479e+02  -9.102933e+01
  -3.238613e+02  -2.693467e+02
   5.982951e+01  -4.116098e+02
   3.359845e+02  -2.684348e+02
   4.623084e+02  -7.046680e+01
   1.813796e+02   1.326997e+02
  -4.776248e+01   2.143359e+02
  -6.929372e+01   9.804362e+01
  -1.873240e+01   6.583337e+01
   7.676889e+01  -1.361351e+00
   5.993836e+01   5.105390e+01
   5.175109e+01   8.198312e+01
  -6.419358e+01   1.091797e+02
  -7.751322e+01  -5.296719e+01
   2.697565e+01  -1.434640e+02
   1.250951e+02  -2.493363e+01
   3.322939e+01   2.475538e+02
   1.590829e+01   2.514738e+02
  -2.515155e+02   1.651279e+02
  -3.438518e+02  -5.068532e+01
  -2.165048e+02  -2.218371e+02
  -9.376987e+01  -2.347693e+02
   1.689739e+02  -1.543221e+02
   4.483272e+01  -9.351275e+00
  -4.353895e+01  -1.234387e+01
  -4.640442e+01  -4.756000e+01
   5.889337e+00  -9.708266e+01
   1.199570e+02  -7.061378e+00
   1.547228e+02   4.031516e+01
   2.080234e+01   1.509755e+01
  -7.622179e+01  -1.448270e+01
  -5.497699e+01  -1.056668e+02
   1.639201e+02  -8.280421e+01
   2.832393e+02   3.971362e+01
   2.006828e+02   1.659032e+02
   4.326387e+01   2.288686e+02
  -2.531972e+02   2.138253e+02
  -2.062548e+02   7.961874e+01
  -1.489420e+02  -7.632353e+01
   1.435678e+01  -8.626723e+01
   5.572971e+01   4.031020e+01
  -3.715414e+01   1.127619e+02
  -1.629551e+02  -3.078898e+01
  -1.906358e+02  -3.805902e+01
  -8.637968e+01  -1.430002e+02
   3.263369e+01  -5.296416e+01
   1.325661e+02  -4.271473e+01
   9.607799e+01   4.907867e+01
  -6.161854e+01  -3.522222e+01
   3.923181e+00  -7.790848e+01
   7.213886e+01  -1.152440e+02
   1.972263e+02  -3.684793e+01
   1.156889e+02   1.600971e+02
  -5.565697e+01   1.940752e+02
  -1.333607e+02   1.307787e+02
  -5.863114e+01   3.684214e+01
  -7.442384e+01  -9.251366e+01
   2.696423e+01  -3.095551e+01
   9.479745e+01   1.219166e+01
  -3.940497e+01   7.208016e+01
  -8.160130e+01  -3.481967e+01
  -9.650342e+00  -3.439506e+01
   8.913162e+01  -5.068538e+01
   7.592017e+01   9.290359e+01
   1.004291e+00   1.839995e+02
  -1.253543e+02   1.488201e+02
  -1.897424e+02   4.356543e+01
  -2.048444e+02  -1.416085e+02
  -5.221235e+01  -1.600193e+02
   1.480410e+02  -1.350740e+02
   5.456260e+01  -3.337729e+01
   9.619024e+01   8.793956e+01
   4.556543e+01   5.620792e+01
   3.021139e+01  -7.785403e+00
   7.371960e+01   1.696665e+00
   6.529428e+01   1.144660e+02
  -5.265193e+01   9.550349e+01
  -1.236844e+02   4.404626e+01
  -1.465854e+02  -3.184437e+01
   4.793524e+01  -6.917417e+01
   1.638788e+02  -1.280666e+02
   2.275293e+02   6.820378e+01
   1.046834e+02   2.062630e+02
  -1.630795e+02   1.611422e+02
  -2.531880e+02   9.126873e+01
  -1.935377e+02  -8.299842e+01
  -5.405797e+01  -1.543112e+02
   2.578841e+01  -9.376371e+01
   1.138959e+02  -7.886374e+01
   5.718401e+01  -7.369171e+01
   9.496295e+00  -1.399829e+02
   9.975061e+01  -5.505476e+01
   1.091808e+02  -3.408850e+01
   3.715826e+01   1.325349e+02
   6.603714e+00   1.949860e+02
  -1.098603e+02   1.053656e+02
  -1.847543e+02   2.359650e+01
  -1.100992e+02  -1.248205e+02
   4.975668e+01  -1.408291e+02
   3.635409e+01  -7.496681e+01
   6.301722e+01   4.761714e+01
  -2.692368e+01   6.653840e+01
   2.828847e+01   5.225929e+00
   3.425248e+01   3.885775e+00
   4.956353e+01  -2.659412e+01
   7.317535e+01   5.907620e+01
  -5.143245e+01   2.954145e+01
  -1.442685e+02   1.757205e+01
  -1.224840e+02  -1.091463e+02
   1.438122e+01  -6.848127e+01
   9.970696e+01  -8.577888e+01
   1.420344e+02   4.179208e+01
   4.769146e+01   1.131046e+01
  -9.081108e+01   2.985056e+01
  -7.721422e+01   2.989261e+01
  -9.918182e+00  -5.607951e+01
  -6.663763e+00  -1.530676e+02
   2.322092e+01   4.073982e+01
   6.707883e+01   2.890315e+01
   3.107343e+01   3.207697e+01
   6.114228e+01  -1.235714e+01
   5.056062e+01   9.714870e+00
   4.529623e+01   8.659941e+01
   2.437418e+01   1.826181e+02
  -4.795633e+01   1.369810e+02
  -2.438461e+02   3.861501e+01
  -9.811705e+01  -1.249407e+02
  -7.598812e+00  -1.735284e+02
   2.266782e+01  -4.229053e+01
   7.193922e+01   1.349743e+01
  -3.159093e+01  -3.298739e+01
  -8.676679e+01  -4.036384e+01
  -6.505608e+01  -4.912509e+01
   8.458502e+01  -1.029949e+02
   1.513396e+02  -5.525797e+01
   1.267041e+02  -5.747578e+00
   4.316459e+01   4.493455e+01
  -5.337586e+01   2.706753e+01
  -5.267042e+01   2.831593e+01
   2.406857e+01  -2.650064e+01
   9.405256e+01   4.192245e+01
   7.168809e+01   1.018898e+02
  -5.536017e+01   1.627852e+02
  -1.513503e+02   9.505120e+01
  -1.798642e+02  -5.613563e+01
  -8.204480e+00  -1.350472e+02
   3.449265e+01  -7.513231e+01
   9.557280e+01   5.512321e+01
   1.061372e+02   6.147991e+01
   8.965711e+00   7.617252e+01
  -2.372209e+01  -1.712626e+01
  -1.506898e+01  -8.667380e+01
  -4.977154e+01   5.368377e+00
   2.658784e+00   1.381179e+01
  -3.366319e+01  -5.905415e+01
  -6.352395e+01  -1.040673e+02
  -4.240985e+01  -5.573136e+01
   3.429170e+01  -3.424738e+00
   7.480072e+01   3.293656e+01
   6.512497e+01   5.621971e+01
   8.158040e+01   8.359484e+01
  -1.656064e+02   5.167033e+01
  -6.789192e+01  -7.708904e+00
  -9.416828e+00  -5.946923e+01
   1.216408e+01  -7.728564e+01
   6.192344e+00  -2.328109e+01
  -5.835090e+01  -1.972007e+01
  -1.586055e+01   2.336211e+00
   6.377559e+01  -1.166516e+01
   1.213249e+02   3.504397e+00
  -2.102424e+00   8.913023e+01
  -1.128941e+02   1.671450e+02
  -1.704614e+02   3.719429e+01
  -1.309472e+02  -8.157580e+01
  -3.737693e+01  -1.281644e+02
   1.061674e+02  -1.460858e+02
   8.460641e+01  -6.458351e+01
   9.340732e+01  -2.195778e+01
   1.367020e+01   2.953544e+01
   1.105738e+01  -1.705135e+01
  -1.807260e+00  -2.403197e+01
   6.240185e+00  -5.110448e+00
   5.178163e+01   3.262900e+01
  -4.157804e+01   5.228297e+01
  -6.589960e+01  -3.727448e+01
  -7.302099e+01  -7.075593e+01
  -3.032676e+01  -8.645042e+01
   8.825594e+01  -5.447254e+01
   1.570853e+02   8.512383e+01
   7.035862e+01   9.696635e+01
  -5.076011e+01   4.946065e+01
  -7.261331e+01  -6.995848e+01
  -6.451875e+01  -4.654820e+01
   1.757510e+01  -4.029397e+01
   6.728701e+01  -6.567017e+01
  -2.350269e+01  -3.308052e+01
  -2.704106e+01   3.517419e+01
  -1.096571e+01  -1.741266e+01
   7.618976e+01  -1.022909e+02
   8.033018e+01  -9.879617e+00
   6.646851e+01   7.169540e+00
  -8.390550e+01   1.136452e+01
  -7.291620e+01   5.634781e+01
  -3.262811e+01  -9.660986e+00
  -9.097369e+00  -5.378768e+01
  -1.143733e-01  -5.442176e+01
   5.449647e+01  -2.224942e+01
   7.284275e+01   4.020948e+01
  -8.182237e+01   1.345715e+01
  -2.969683e+01  -2.700591e+01
  -9.398839e+01  -9.589246e+01
  -2.068472e+01  -7.886994e+00
  -2.717858e+01   1.175402e+01
  -8.477331e+00  -1.585185e+01
  -7.899118e+01  -3.288311e+01
   6.691655e+00  -4.781616e+01
   8.654041e+00  -6.677619e+01
   6.694347e+01   4.610950e+01
   3.934607e+01   9.792093e+01
  -1.843736e+01   4.044968e+01
  -6.767922e+01   1.481376e+01
  -3.676772e+01  -7.443361e+01
   7.989677e+00  -1.389267e+01
   8.839039e+01  -2.798730e+01
   1.079914e+02   7.530602e+01
  -6.261276e+01   6.334812e+01
  -9.432390e+01   6.552186e+01
  -1.128496e+01  -9.907441e+00
  -6.646208e-01   7.740958e+00
   2.744334e+01   8.422381e+00
   3.139165e+01   1.144721e+02
  -5.913282e+01  -1.872670e+01
