
 $NMID
 id='ANONYMOUS ', fmtdat='(2E16.6)'
 volume=1.0
 tramp=1.0
 $END
  -1.945731e+03   8.398187e+01
  -1.430926e+03  -8.567278e+02
  -2.325822e+02  -1.225013e+03
   6.152066e+02  -1.047682e+03
   7.032931e+02  -3.888961e+02
   2.766045e+02   5.398629e+01
  -2.037110e+02   2.371636e+01
  -5.347773e+01  -2.787240e+02
   1.817277e+02  -3.600682e+02
   3.937043e+02  -1.131909e+02
   2.900727e+02   2.628269e+02
   8.430388e+01   3.879509e+02
  -1.103983e+02   1.694201e+02
  -1.405267e+02  -1.885697e+02
  -1.356647e+01  -3.212025e+02
   2.647321e+02  -7.000072e+01
   2.079953e+02   2.754413e+02
  -2.042580e+01   4.314883e+02
  -2.988696e+02   2.267082e+02
  -3.142797e+02  -7.230080e+01
  -8.222464e+01  -2.219344e+02
   2.914970e+01  -1.227466e+02
   5.949162e+01  -7.747774e+01
  -1.165374e+02  -1.044870e+02
  -1.731513e+02  -2.498941e+02
   7.483380e+01  -1.956404e+02
   2.821029e+02  -7.559040e+01
   3.644476e+02   1.291916e+02
   7.384136e+01   1.729412e+02
  -2.308360e+02   7.476372e+01
  -2.300089e+02  -1.019908e+02
  -3.514099e+01  -1.848089e+02
   1.965390e+02  -1.751305e+02
   2.299786e+02  -5.985875e+01
   2.155995e+02   1.269280e+02
   7.964220e+01   1.681790e+02
   4.598910e+01   8.529578e+01
   5.250350e+00  -6.990773e+00
   1.266018e+02  -6.868610e+01
   7.347149e+01   1.439506e+02
  -4.990656e+00   3.030477e+02
  -1.067933e+02   2.004038e+02
  -1.152998e+02   9.193174e+00
  -7.746355e+01  -1.285523e+02
   6.712222e+01  -7.068336e+01
   1.966672e+01   2.127492e+02
  -1.385314e+02   2.181737e+02
  -2.094275e+02  -3.296466e+01
  -3.405285e+02  -2.251404e+02
  -1.140093e+02  -2.880067e+02
   1.791227e+02  -1.942710e+02
   3.452315e+02   3.210653e+01
   2.566523e+02   1.586565e+02
  -3.402563e+01   1.486026e+02
  -1.829454e+02   1.011678e+02
  -1.609764e+02   8.567848e+00
  -1.429478e+01  -3.520593e+01
   2.945894e+00   1.045690e+01
  -8.077200e+01   4.773493e+01
  -1.065118e+02  -5.945253e+01
  -1.270384e+02  -9.508944e+01
   1.085544e+02  -1.693042e+02
   2.043458e+02  -9.404146e+01
   2.115291e+02   5.446703e+01
  -1.765098e+01   2.927748e+02
  -2.610526e+02   2.479063e+02
  -2.809865e+02   8.955105e+01
  -1.728977e+02  -9.920183e+01
  -6.224144e+01  -2.300755e+02
  -1.435057e+01  -2.250915e+02
  -6.134613e+00  -1.049640e+02
   1.953095e+00  -9.214999e+01
   1.520501e+02  -7.046268e+01
   1.962775e+02   4.365612e+01
   1.567996e+02   5.411214e+01
   1.549315e+01   1.907600e+02
  -9.480452e+01   6.640478e+01
  -1.020542e+02  -7.180467e+01
  -6.446520e+01  -1.853656e+02
   7.749474e+01  -1.716505e+02
   1.786316e+02  -7.357461e+01
   2.264559e+02   8.403887e+01
   7.973402e+01   1.676640e+02
  -1.157547e+01   1.710204e+02
  -1.494776e+02   9.241906e+01
  -1.221951e+02   5.321762e+01
  -1.039897e+02   1.224228e+02
  -2.616347e+02   5.287536e+01
  -3.272375e+02  -7.981896e+01
  -2.459835e+02  -1.878392e+02
   1.468695e+01  -2.595394e+02
   2.966162e+02  -2.768829e+02
   3.460351e+02  -8.669692e+01
   1.979387e+02   5.234503e+01
  -2.618732e+01   2.404569e+02
  -3.325727e+01   7.039097e+01
   5.347385e+01   6.314327e+01
   4.139188e+01   7.980027e+00
   5.780973e+01   9.124984e+01
  -1.983567e+01   1.254408e+02
  -8.865595e+01   8.182786e+01
  -1.518158e+01  -3.025549e+01
   3.174210e+00  -8.232091e+01
   1.027549e+02   2.958469e+01
   8.419189e+01   8.826882e+01
   7.560025e+01   2.783005e+02
  -1.892863e+02   1.322919e+02
  -2.204726e+02  -8.548875e+01
  -2.036774e+02  -2.388780e+02
  -8.391269e+01  -1.751877e+02
   5.493897e+01  -3.580257e+01
   1.030110e+02  -2.630971e+01
   3.089515e+01  -4.026229e+01
  -4.627383e+01  -6.022198e+01
   3.035651e+01  -1.329241e+02
   9.333241e+01  -2.326914e+01
   8.108314e+01   2.126133e+01
  -3.204164e+01  -6.499094e+01
  -8.439733e+01  -7.730767e+00
  -1.170363e+01  -6.400438e+01
   1.608209e+02  -5.361095e+01
   2.278835e+02   4.991644e+00
   1.735470e+02   1.119778e+02
  -5.810315e+01   2.203987e+02
  -1.651531e+02   1.617777e+02
  -1.473845e+02   7.680384e+01
  -7.768223e+01  -6.830538e+01
  -1.882988e+01   1.633055e+01
   5.726912e+01   5.480762e+01
  -3.901578e+01   5.964709e+01
  -1.407350e+02   2.848504e+01
  -9.349642e+01  -1.098292e+02
   5.420126e-01  -1.055657e+02
   5.593595e+01  -9.276555e+01
   6.126942e+01   8.849679e+00
   4.801088e+01   2.152394e-01
  -6.407475e+00  -3.130709e+01
   1.982296e+01  -2.549452e+01
   5.297489e+01  -1.408482e+02
   1.604085e+02   2.136545e+01
   1.352070e+02   1.376224e+02
   2.109068e+01   8.573938e+01
  -1.137926e+02   1.567444e+02
  -9.541514e+01  -4.517682e+01
  -7.226098e+01  -1.003707e+02
  -5.622232e+00  -1.180182e+02
   1.026135e+02   6.492351e+00
   7.796232e+00  -1.014386e+01
  -4.181747e+01  -3.273930e+01
   4.940067e+01   2.296354e+01
   5.026051e+01  -1.098944e+01
   3.120823e+01   6.760562e+01
   3.353980e+01   1.209015e+02
  -7.573140e+01   1.268338e+02
  -2.213082e+02   2.555590e+01
  -1.299566e+02  -9.434905e+01
   9.588772e+00  -1.717106e+02
   1.601603e+01  -7.316063e+01
   9.087551e+01   1.048322e+01
   2.028949e+01   2.751655e+01
   1.705429e+01   5.888112e+01
   4.756058e+01   1.049553e+01
   1.029271e+02   4.716496e+01
   7.249086e+00   4.976054e+01
   7.322527e+00   8.489430e+01
  -1.340142e+02   7.746493e+01
  -5.042283e+01  -4.350327e+01
   2.039798e+01  -1.029255e+02
   8.005447e+01  -4.932041e+01
   1.442618e+02   1.023963e+02
   1.715094e+01   1.572978e+02
  -6.466731e+01   1.507363e+02
  -2.259352e+02   1.732549e+01
  -1.737353e+02  -4.204845e+01
  -6.666420e+01  -4.032521e+01
   4.197448e+01  -3.468533e+01
   5.389872e+01  -1.168569e+02
   1.049962e+02  -4.279332e+01
  -6.750673e+00  -6.501631e+01
   2.870249e+01  -8.464013e+01
   4.682952e+01   3.751746e+00
   1.080323e+02   3.881103e+01
   1.605251e+01   8.221176e+01
  -1.048708e+02   1.261429e+02
  -1.309787e+02  -6.891380e-01
  -1.498338e+02  -1.405710e+02
  -4.540555e+00  -1.399389e+02
   1.607888e+01  -9.412800e+01
   2.082085e+01  -1.108718e+01
  -1.204295e+01   8.026971e+01
  -2.954434e+01   3.789712e+01
   1.197833e+01   3.973680e+01
   5.604346e+01   7.879043e+00
  -6.455679e+00   2.866140e+01
  -1.187538e+01   2.656598e+01
  -6.525409e+01   3.893154e+00
  -7.019260e+01  -9.299668e+00
   1.013573e+01  -6.283769e+01
   1.145731e+02  -6.421307e+01
   1.202083e+02   4.524805e+01
   1.721434e+01   7.556785e+01
  -4.770990e+01   3.033153e+01
  -1.392015e+02  -9.961238e+00
  -4.324877e+01  -6.206165e+01
  -2.978866e-01  -2.102789e+01
   7.192076e+01  -1.685021e+01
   2.533093e+01   2.635817e+01
   4.861639e+01   3.873825e+01
  -3.305406e+00  -5.280844e+00
   2.071751e+01   2.758882e+01
   6.592151e+01   8.828645e+01
   1.011382e+02   8.487466e+01
  -1.282131e+02   1.162302e+02
  -8.199194e+01  -3.355324e+01
  -5.730025e+01  -8.092887e+01
   1.352275e+00  -5.199948e+01
   1.159539e+02  -2.322527e+01
   8.934670e+00   6.806258e+00
  -3.837872e+01  -4.720068e+00
  -8.637916e+01  -2.992724e+01
  -6.158788e+01  -1.417822e+02
   1.069546e+02  -8.268540e+01
   1.618963e+02  -9.580207e+01
   1.331111e+02   9.596361e+01
  -8.226968e+00   9.583294e+01
  -6.053280e+01   5.138368e+00
  -5.312128e+00  -2.090488e+00
   4.016089e+01  -2.674200e+01
   5.254607e+01   9.248991e+00
   1.130305e+01   7.426642e+01
  -1.779129e+01   9.287332e+01
  -5.227933e+01   5.037505e+01
  -5.463555e+01  -6.641476e+01
  -2.512396e+01  -1.321576e+02
  -1.723202e+01  -1.199801e+02
   2.460521e+01  -8.745143e+00
   7.969131e+00   1.013181e+02
  -2.272244e+01   6.851443e+01
  -3.816395e+01  -2.984289e+01
  -7.058832e+01  -3.139350e+01
  -4.492382e+01   4.959710e+01
  -2.499983e+01   3.934459e+01
  -1.508028e+01   7.288168e+00
  -2.697536e+00  -1.198405e+02
  -1.300469e+01   5.180426e-01
   2.865254e+01  -7.297054e+00
   9.982169e+01   5.513973e+01
   8.826808e+01   6.875662e+01
   2.802125e+01   3.188325e+00
  -4.030397e+01   6.014433e+01
  -4.997886e+01  -6.463250e+01
  -3.855168e+01   2.442532e+01
   6.265530e+01  -8.182530e+01
   4.913566e+01  -1.112487e+01
  -5.392543e+01   1.929118e+01
  -1.139442e+01  -2.270784e+01
   4.358956e+00   5.712260e+00
   6.761554e+01  -8.125689e+01
  -2.431514e+01   3.592817e+01
  -5.989070e+01   5.883560e+01
  -1.611002e+02   3.765023e+01
  -8.908251e+01   2.593994e+01
  -1.044584e+02  -1.173905e+02
   1.171883e+02  -1.094136e+02
   9.671395e+01  -6.157569e+01
   1.011106e+02   4.827250e+01
   3.773896e+01   1.772207e+01
  -4.122071e+00   2.075938e+01
  -2.691760e+01   4.676263e+01
   2.904036e+01  -3.767883e+01
  -3.666921e+01   3.147155e+01
  -3.567248e+01   5.966110e+01
  -7.309968e+01  -9.047994e+01
   2.179941e+01  -4.657070e+01
  -1.479071e+00  -4.992726e+01
   4.946541e+01  -1.873479e+01
   6.200751e+01   3.105387e+01
   6.053191e+01   5.392490e+01
  -4.333759e+01   9.068185e+01
  -3.546632e+01  -1.489600e+01
  -6.796194e+01  -1.975311e+01
   3.518524e+01  -4.638895e+01
   6.455952e+01  -7.158445e+01
  -1.673602e+01  -4.565864e+01
  -1.711240e+01  -1.326945e+01
  -2.598864e+01  -1.218792e+01
   4.428290e+01  -6.863952e+01
   9.406972e+01  -5.757008e+01
   1.237648e+01   3.038468e+01
   3.327875e+00   6.457623e+01
  -5.222337e+01   4.961936e+01
  -6.758226e+01  -3.419365e+01
   4.063377e+00  -4.287626e+01
  -1.029853e+01  -5.479626e+01
   4.045139e+01   2.494384e+01
   4.076211e+01  -4.738700e+00
   6.530812e+01   5.253235e+01
   6.155512e+01  -3.244977e+01
  -2.404174e+01  -2.084787e+01
  -3.024963e+00  -4.022417e+01
   3.974160e+00  -7.998238e+01
  -5.022849e+01   5.258305e+00
   1.792331e+01  -3.170272e+01
   5.036801e+01  -4.282596e+01
   1.096972e+01  -7.520652e+01
   6.799618e+01   1.455074e+01
   3.818665e+01   5.149283e+00
  -4.377684e+01   1.267090e+01
  -9.499492e+00  -7.259158e+01
  -1.075905e+00  -4.578132e+01
   1.040070e+02  -2.439534e+00
   4.632121e+01   2.827532e+01
   5.693145e+01   2.358448e+01
  -8.218689e+01   2.194727e+01
   1.343159e+01  -3.089752e+01
  -6.444357e+00   9.347750e+00
  -2.383146e+01  -3.164596e+01
   1.834536e+01  -9.643438e+00
   1.538449e+01   2.838552e+01
  -6.164823e+01   5.982982e+01
