
 $NMID
 id='ANONYMOUS ', fmtdat='(2E16.6)'
 volume=1.0
 tramp=1.0
 $END
  -1.234801e+02   8.058615e+00
  -8.895837e+01  -2.824947e+01
  -2.661614e+01  -1.311045e+02
   9.114874e+01  -9.284447e+01
   3.387546e+01  -6.421091e+01
   4.384933e+01   2.178143e+01
  -1.669762e+01  -3.330848e+01
  -2.397115e+01  -1.407308e+01
  -9.124711e+00  -7.383461e+00
  -3.680875e+01   8.087706e+00
   2.332521e+01   2.993936e+00
   5.785684e+01   3.566215e+01
  -2.050436e+01  -1.636634e+01
  -2.361014e+01   2.432609e+01
  -1.616642e+01   2.600489e+01
  -5.777133e+01   1.740656e+01
   3.419451e+01  -5.928459e+00
  -1.767782e+01   1.219346e+01
  -2.560480e+01   8.264924e+00
  -8.619363e+01   4.159296e+00
  -5.261434e+01  -8.388822e+01
  -4.439284e+01   2.058563e+01
  -1.347977e+01   2.257084e-01
  -1.100929e+01  -2.480729e+00
   3.593339e+01   7.069355e+00
  -5.203664e+01   7.258853e+00
  -2.083748e+01   2.733351e+01
   7.418332e+01  -4.543378e+01
   2.394833e+01   6.829196e+01
   2.585612e+01   8.742398e+01
   6.440275e+01   8.069505e+00
   7.782617e+00  -3.616652e+01
   3.277637e+01  -4.877683e+00
  -1.456612e+00   1.424163e+01
   1.492486e+01  -4.646956e+00
   1.977968e+01   5.012330e+01
   5.313129e+01  -5.663113e+00
   7.358983e+01  -1.691152e+01
   2.570933e+01  -1.462512e+01
   7.803203e-01   7.762598e+01
  -1.219506e+01   4.279884e+00
  -1.400397e+01  -1.343946e+01
  -5.108313e+01   3.352476e+01
   1.650022e+01  -4.058748e+01
  -6.322247e+00   4.127315e+01
   1.957637e+00   1.957389e+00
  -4.342707e+01   3.067363e+00
   1.479137e+01  -7.828906e+00
  -1.968574e+01   5.899851e+00
   1.601196e+00  -8.866822e+00
   1.876226e+01   2.443498e+00
  -2.875131e+01  -2.941879e+01
  -1.193644e+01  -1.156251e+00
   1.272390e+01  -1.015321e+01
   6.692233e+00  -2.227345e+00
  -6.063917e+01   1.509887e+01
   1.821875e+01  -5.420013e+01
   2.292337e+01   1.302891e+01
  -3.004055e+01  -5.805912e+00
  -3.428408e+01  -9.510620e+00
  -3.787314e+01   3.515108e+01
   4.944129e+01   4.001371e+01
   6.916054e+01  -3.240406e+01
   2.379651e+01   8.622389e+00
  -2.251858e+01   4.408641e+01
  -4.145847e+01  -1.113733e+01
   6.947587e+01  -1.800717e+01
   1.781052e+01  -1.095401e+00
  -3.327219e+01  -5.029408e+01
  -6.180129e+01   1.044143e+01
  -6.102452e+00  -8.544532e+00
   2.236168e+01  -1.238473e+01
   2.713195e+01  -8.256683e+00
   7.021937e+01   2.573672e+01
   6.843489e+01   2.224154e-01
  -1.214562e-01   1.438487e+01
   2.978622e+01  -8.039668e-01
   2.065192e+01   2.098507e+01
  -9.645762e+00   2.354775e+01
   2.109128e+01   1.372320e+01
   6.340797e-01   1.508506e+01
  -2.778422e+01   4.008825e+01
   7.367557e+01   2.951578e+01
  -1.954764e+01   3.911067e-01
  -3.997386e+01   3.268390e+01
  -4.122565e+01  -3.452140e+01
  -7.673302e+00  -1.587652e+01
  -6.138558e+01   8.101280e+00
  -4.159996e+00  -1.260434e+01
   1.957357e+01   7.973589e+00
  -4.910231e+01   2.820496e+01
   2.180238e+01   3.469947e+01
   3.403022e+00   1.036213e+01
   3.683680e+01  -3.522662e+01
  -1.890864e+01   2.136751e+01
  -4.708149e+01   2.459575e+01
   4.445949e+01   4.050042e+01
   8.044922e+00   1.785906e+01
   9.222796e-01   4.885588e+01
   4.606185e+01   2.603726e+01
   2.586300e+01  -8.962871e+00
  -2.491129e+01   8.653778e+00
  -1.221278e+01  -2.006890e+01
  -2.022863e+01  -3.090988e+01
   3.878487e+00   5.082757e+00
   1.859966e+01  -6.262682e+01
   4.537843e+01  -2.176319e+01
  -5.976466e+00   1.609656e+01
  -4.224681e+01  -1.077387e+01
  -2.957415e+01  -3.772962e+01
   3.282017e+01  -4.594463e+01
   1.379815e+01  -2.351659e+01
   1.875311e+01   1.809877e+01
   2.162824e+01  -3.065743e+01
   2.797560e+01  -1.308212e+00
   1.585545e+01   3.009114e+01
   1.401317e+01  -3.624078e+01
   2.937440e+01   2.779764e+01
   2.982921e+01  -2.767326e+01
  -1.597589e+01   4.245034e+01
  -6.608560e+01   1.168042e+01
   3.749124e+01  -9.795988e+01
   1.304751e+01   4.401458e+01
  -1.310650e+01  -3.848319e+01
   4.900114e-01  -3.079615e+01
  -4.579342e+01   4.823189e+00
  -8.669339e+00  -2.388387e+01
  -7.418955e+00   3.886901e+01
   1.159326e+01  -5.451366e+01
  -5.390947e+01   1.899757e+01
  -2.459183e+00  -4.305465e+01
   2.697687e+00  -4.617559e+01
  -4.908529e+01  -4.816492e+01
  -2.393463e+01   1.558095e+01
   7.032913e+00  -2.429011e+00
  -3.105103e+01   1.041040e+01
  -6.672017e+00  -2.725321e+01
  -2.502290e+01  -1.846174e+01
   4.654054e+01   5.187487e+01
   3.177452e+01  -1.515027e+01
   5.308037e+01   4.076840e+01
   5.182540e+01   5.909436e+01
   1.912203e+01  -3.190525e+01
  -1.061995e+01  -2.394770e+01
  -5.997663e+01   2.161113e+01
   4.551891e+01  -5.593740e+01
  -2.010507e+00   7.705746e+01
   2.721607e+01   1.001462e+01
   2.045950e+01  -3.804158e+01
  -4.336883e+00  -4.017078e+00
  -4.836427e+01  -1.014723e+01
  -4.511530e+01  -4.362643e+00
  -6.791092e+00   4.842540e+00
  -2.651849e+01   6.455144e+01
   9.803492e+00  -4.848722e+01
   2.060266e+00   1.796898e+01
   4.443625e+01  -1.621308e+01
   4.880680e+01  -9.232600e+00
   1.485491e+01  -1.414346e+01
   1.846078e+00  -1.164565e+01
  -4.543456e+01  -3.296024e+01
  -1.839800e+01  -8.333054e+00
  -1.846789e+01   2.046290e+01
   3.130369e+01   2.819476e+00
   4.256304e-01   4.582488e+01
   3.621514e+01  -2.769579e+01
  -1.593619e+01   7.267591e+01
  -1.146924e+01   2.044573e+01
   2.655264e+00   8.135380e+00
  -1.103380e+01  -5.921470e-01
  -2.925874e+01   4.334075e+01
   1.072615e+01  -1.010908e+01
  -2.543991e+01   4.121804e+01
  -6.845557e+01  -3.492019e+01
   5.619970e+00  -3.241995e+01
  -4.476737e+01   2.325337e+01
  -5.545211e+01  -8.345783e+00
   4.755742e+01   1.730415e+01
  -2.738148e+01  -3.639951e+00
  -2.610035e+01   8.313871e+00
   1.801193e+01  -4.728117e+01
   1.998221e+01   1.769917e+01
  -6.173584e+01   3.874421e+01
  -5.861312e+01   4.812578e+01
   3.826974e+01   3.316288e+01
   3.033445e+01   1.565947e+01
   1.773287e+01   4.085845e+01
  -1.249811e+01  -3.988374e+01
   2.112744e+01  -1.281551e+01
  -1.050644e+01  -2.328992e+01
   4.198373e+01  -2.649465e+01
  -1.768365e+01   1.159853e+01
  -5.282039e+01  -1.124380e+01
   2.469722e+01  -5.149571e+01
  -2.968801e+01  -2.885513e+01
  -2.932784e+00   1.665801e+00
   1.199821e+01   4.480753e+01
  -1.276500e+01  -1.994226e-01
   7.827052e+01  -2.483567e+01
  -1.754990e+01  -1.480534e+01
   2.379208e+01   2.834085e+01
   5.214869e+01  -2.363666e+00
   2.891662e+01  -9.143977e+00
  -9.453859e+00  -2.726970e+01
  -5.689311e+01  -1.759196e+01
  -2.308350e+01   3.254021e+01
  -4.138065e+01   6.588465e+00
   3.500930e+01  -3.271765e+01
   1.151902e+01  -2.237659e+01
  -3.254338e+01  -4.893132e+00
  -3.611725e+01   5.011627e+01
   7.199066e-01   1.992871e+00
  -2.032806e+01   2.847429e+01
  -1.028384e+02  -3.578039e+01
   1.539946e+01  -1.700878e+01
  -1.652440e+01   2.410331e+01
  -1.853245e+01   2.956525e+01
   2.597949e+01  -3.102957e+01
   1.545052e+01   6.314621e+01
   6.871801e+01  -1.509450e+00
  -2.212769e+01  -1.608622e+01
   6.377075e+01   1.842845e+01
   3.296553e+01   3.540996e+01
  -2.959616e+01   6.226882e+01
  -2.663588e+00  -3.639706e+00
   6.475305e+01   1.902184e+01
  -2.350611e+01   4.864460e+01
   8.033895e+00   4.418426e+01
   4.837250e+01  -2.325343e+01
   3.021608e+01   1.653110e+01
  -1.192826e+01   1.101671e+01
   4.091538e+01  -4.133559e+00
   1.837539e+01   2.241244e+01
  -4.535368e+01   7.569296e+00
   3.412542e+01  -2.887174e+01
   2.102629e+01  -1.271669e-01
   4.013229e+01   3.832797e+01
  -4.616617e+01   1.009469e+01
   9.818590e+00  -6.591726e+01
   5.644075e+01   4.590433e+01
  -6.115769e+00   2.192136e+01
   6.762617e+01   1.934392e+00
  -2.830871e+01  -1.886383e+01
  -1.492318e+01  -1.649288e+00
  -1.225239e+01  -3.587805e+01
  -1.962278e+01  -2.645203e+01
   2.179239e+00   1.805595e+00
   3.817470e+00   1.755399e+01
  -1.353667e+01   3.104449e+01
   1.925143e+01  -2.510850e+00
  -1.074430e+01   2.044720e+01
   3.327596e+01   6.241732e+01
   8.817166e+00   6.870015e-01
   1.472327e+00   2.243881e+01
  -1.320072e+01  -2.619847e+01
  -2.304335e+01   5.280199e+01
  -3.200839e+01  -1.963547e+01
  -6.607232e+00  -5.376942e+01
   4.777505e+01  -8.215649e+00
  -8.740755e+00  -2.076102e+01
  -4.901111e+01  -3.207551e+01
  -2.205345e+01   2.518898e+01
  -8.537078e+01   3.952663e+01
   2.107622e+01  -7.463553e+01
   3.490955e+01  -3.361339e+01
  -1.366200e+01   4.634933e+01
  -3.097887e+01   3.168725e+01
   5.556788e+01  -8.685432e+00
   3.620993e+01  -2.508631e+00
   8.196787e+00   3.861162e+01
  -3.357876e+01  -5.419099e+01
   4.863468e+01   4.975301e+01
  -3.579080e+01   4.367549e+01
   5.338716e+01  -7.405460e+01
   7.035836e+00   2.519465e+01
  -2.631553e+01  -1.601235e+01
   5.955003e+01  -3.503104e+01
   4.473138e+01   6.039242e+01
  -1.031094e+01  -1.671975e+01
   2.365387e+01   1.808349e+01
  -2.117494e+01  -3.013481e+01
  -1.353195e+01   2.405260e+00
  -1.452702e+00  -3.038082e+01
  -1.430263e+01   4.164669e+01
   2.916415e+01  -1.092986e+01
  -3.536224e+01  -9.665439e+00
   4.429390e+00  -1.176381e+01
  -5.446297e+01   2.777573e+00
  -2.638486e+01  -5.391506e+01
   3.933441e+01   7.183083e+01
   1.504744e+01   1.990437e+01
  -3.177330e+01   5.548967e+01
  -1.510282e+01   1.154861e+01
   5.832493e+00  -2.462097e+01
   3.300093e+01   3.328776e+01
   5.374331e+01   1.848615e+01
   2.744735e+01  -2.201549e+01
  -2.903314e+00   3.970963e+01
  -8.146243e-01   2.288843e+01
  -2.118957e+01  -3.972879e+01
  -1.826773e+00  -6.411282e+00
  -3.815266e+01   8.307517e+00
   4.371499e+01   4.059385e+01
   2.090266e+01   2.863406e+00
   3.972637e+00   5.873512e+01
   2.213860e+01  -2.732139e+01
   1.852970e+01   8.319124e+00
   1.172190e+01   1.424527e+01
   1.873643e+01   6.839700e+00
   4.539084e+00   2.004596e+00
  -2.669745e+01  -3.772879e+00
   4.887279e+00   1.432185e+00
  -4.513671e+01   1.291706e+01
  -4.559302e+00   2.515176e+01
  -4.964609e+01   3.507031e+01
  -7.865601e+01  -6.813334e+01
  -4.486478e+01   1.363824e+01
   3.262115e+01  -2.520489e+00
  -2.534931e+01   5.658283e+01
  -2.106212e+01   4.113268e+01
