
 $NMID
 id='ANONYMOUS ', fmtdat='(2E16.6)'
 volume=1.0
 tramp=1.0
 $END
   1.048702e+03   1.184400e+02
   6.802751e+02   5.257834e+02
   2.462657e+01   6.627331e+02
  -3.705806e+02   3.919661e+02
  -2.989268e+02   1.379439e+02
  -1.090995e+02  -2.634693e+01
   6.199111e+01   1.055201e+02
   2.212343e+01   8.942292e+01
  -1.490366e+02   1.899410e+02
  -2.028964e+02   3.696881e+01
  -1.302837e+02  -1.321096e+02
   3.874393e+01  -1.753556e+02
   1.221625e+02  -7.043356e+01
   9.818592e+01   1.495190e+02
   5.889224e+00   1.564415e+02
  -1.255999e+02   3.204517e+01
  -6.645523e+01  -1.509873e+02
   2.479845e+01  -2.304397e+02
   1.921984e+02  -6.471911e+01
   2.305603e+02   5.777947e+01
   7.126095e+01   1.000233e+02
  -1.568352e+01   5.955518e+01
  -2.775985e+01   8.654629e+00
   9.030508e+01   7.424457e+00
   1.294528e+02   1.425109e+02
  -5.468784e+01   8.722262e+01
  -1.182309e+02   2.665795e+01
  -2.214755e+02  -1.519394e+02
  -4.046251e+01  -9.811180e+01
   1.479476e+02  -3.413427e+01
   1.830416e+02   9.233874e+01
   5.936143e+01   1.971894e+02
  -9.976954e+01   1.370667e+02
  -1.851565e+02   4.747347e+01
  -1.255835e+02  -8.790089e+01
  -1.922391e+01  -8.764236e+01
   2.013364e+01  -1.101519e+02
  -6.535306e+01  -2.429608e+01
  -5.387139e+01  -1.932571e+01
  -1.658622e+01  -6.797580e-02
   4.964978e+01  -1.091919e+02
   7.379783e+01  -1.392902e+02
   3.267032e+01  -2.003374e+01
   4.256366e+01   8.844486e+01
  -5.525578e+01   2.750150e+01
  -1.492501e+01  -8.919102e+01
   6.060007e+01  -1.262097e+02
   1.551553e+02   3.893189e+01
   1.921846e+02   1.212177e+02
   7.213939e+00   1.804383e+02
  -9.486284e+01   1.270248e+02
  -1.505405e+02   1.942480e+01
  -1.351760e+02  -1.303019e+02
   5.495909e+01  -5.148269e+01
   1.110080e+02  -4.372759e+01
   4.450535e+01  -6.796255e+01
   4.570837e+01  -1.521275e+01
   2.882582e+00   3.906983e+01
   4.958738e+01   2.974274e+01
   8.766918e+01   4.399834e+01
   1.033766e+01   1.735532e+01
  -1.318589e+01   1.005921e+02
  -1.632316e+02   1.153496e+01
  -7.446698e+01  -1.182418e+02
  -1.751548e+01  -1.597381e+02
   9.338122e+01  -1.049497e+02
   1.301951e+02  -3.121760e+01
   1.139325e+02   1.900178e+01
  -1.091574e+01   9.995949e+01
  -7.110537e+01   1.324022e+02
   7.060689e+01   1.137779e+02
  -1.157500e+00   8.018176e+01
  -8.884759e+01   9.685326e+01
  -8.714131e+01   1.165235e+00
  -1.125453e+02  -9.693583e+01
   2.700981e+00  -1.049062e+02
   5.433954e+01  -8.674891e+01
   7.775827e+01   1.306897e+01
  -4.195985e+00   2.718045e+01
  -1.462360e+01   8.734990e+01
  -1.204027e+02   3.104298e+00
  -9.435852e+01  -1.189152e+02
  -4.700666e+01  -1.164573e+02
  -2.786049e+01  -1.206489e+02
   2.134651e+01  -3.957341e+01
  -5.925049e+00  -5.347368e+00
   5.934338e+01  -1.701836e+01
   1.103951e+02   2.147710e+01
   1.647802e+02   9.572171e+01
   1.610071e+02   1.363957e+02
   3.274427e+01   1.699108e+02
  -1.744335e+02   2.064578e+02
  -1.624503e+02   4.482001e+01
  -6.638705e+01  -4.270565e+01
  -8.214146e+00  -4.788122e+01
   3.695676e+01  -7.799780e+01
  -3.200244e+01  -5.154685e+01
  -6.671060e+01  -1.136301e+01
  -6.845890e+01  -6.255268e-01
   1.185815e+01  -6.718793e+01
   7.894798e+01  -9.878435e+00
   5.054419e+01   2.069091e+01
  -4.613391e+01   4.156941e+01
  -7.649045e+01  -1.993938e+01
   8.329614e+00  -1.349261e+02
   5.764851e+01  -8.414359e+01
   1.164230e+02  -9.074444e+01
   1.353573e+02   3.665537e+01
   1.048683e+02   7.104448e+01
  -1.829449e+01   7.074569e+01
  -3.821691e+01   3.390221e+01
  -1.017147e+02  -1.563148e+01
  -6.011060e+01  -5.159270e+01
   1.996298e+01  -1.307117e+01
   2.809779e+01   2.545330e+01
   2.307482e+01  -2.748988e+01
  -7.286276e+01  -8.501734e+01
  -5.279654e+01  -1.161579e+01
   7.900262e+01   2.867897e+01
  -4.513572e+01   7.775457e+01
  -6.863493e+01   3.756169e+01
  -1.261564e+02   2.600455e+01
  -1.220845e+02  -6.809395e+01
  -2.671279e+01  -4.269144e+01
   8.544398e+01  -1.044255e+02
   1.025193e+02  -3.238637e+01
   5.981569e+01   4.654340e+01
  -4.498262e+01   8.108415e+00
  -2.774526e+01  -6.777637e+01
  -7.855173e+00  -2.177850e+01
   2.939367e+01  -2.127596e+01
   7.056388e+01   1.644170e+01
   2.407281e+01   6.637497e+01
  -3.321294e+01   8.878557e+01
   7.906443e+00  -5.562838e+01
  -2.819361e+01  -5.164453e+01
   2.974128e+01   2.603356e+01
  -1.780160e+01   1.273903e+01
  -8.615913e+01   1.006524e+02
  -9.436659e+01  -7.851294e+00
  -7.784135e-02  -6.165378e+01
   6.799776e+00  -7.226107e+01
   8.098791e+01  -5.470635e+01
   6.523683e+01  -3.269921e+00
   3.452701e+01   4.228253e+01
  -5.462853e+01   6.412167e+01
  -2.837388e+01   5.899740e+00
   1.812351e+01  -2.976471e+01
   1.615592e+01  -4.902646e+01
   1.973073e+01  -3.764064e+01
  -1.422676e+01  -4.633717e+00
  -5.578092e+01  -6.685443e+01
  -4.142497e+00  -7.415454e+01
   8.074714e+01  -6.569498e+01
   4.404824e+01  -1.799137e+01
   9.234983e+01   7.670276e+01
   1.848835e+00   6.305989e+01
  -4.554638e+01   5.858169e+00
  -5.218433e+01   9.398735e+01
  -3.150005e+01  -5.722183e+01
   4.617317e+01  -1.978801e+01
  -2.147544e+01  -5.426995e+00
  -2.125872e+01   2.125833e+01
  -2.250281e+01  -4.031646e+01
  -1.843001e+01  -8.334769e+01
   9.521359e+00  -3.858562e+01
   6.493806e+01  -2.812683e+01
   3.935491e+00   2.221887e+01
  -8.852141e+01   3.819177e+01
  -9.762758e+01  -1.893658e+01
   3.540396e+00  -9.260246e+01
   7.437448e+00  -7.584240e+01
   8.278844e+01   1.329805e+01
   3.415415e+01   4.653632e+01
   3.146621e+01   9.899350e+01
   3.353225e+00   4.709345e+01
   4.739119e+00  -1.000550e+01
  -1.211038e+01   8.703001e+00
  -1.245873e+01   6.310750e+01
   2.128532e-01  -1.528820e+00
   9.603592e+00  -2.782684e+00
  -2.209485e+01  -9.414359e+01
  -1.878888e+01  -6.324170e+01
   2.613188e+01  -4.362028e+01
   2.729086e+01   3.622340e+01
   6.926398e+01   6.449652e+01
  -1.185927e+01   5.994450e+01
  -2.226107e+01   1.170329e+01
  -3.321577e+01   2.159919e+01
  -4.775691e+00  -3.994187e+01
   5.454097e+01  -4.831546e+01
   4.004981e+01  -6.113626e+00
   7.911475e+00  -4.719554e+00
  -9.822695e+00  -4.732420e+00
   5.374615e+01   4.991884e+00
   6.134136e+01  -1.035126e+01
   1.299149e+01   2.033879e+01
   8.250877e+00   9.997196e+01
  -2.648870e+01   4.707448e+00
  -9.492169e+01   5.649095e+00
  -3.100024e+01  -1.483300e+01
   1.693142e+01   6.856684e+00
  -2.688947e+00  -3.894799e+00
  -8.772946e+00   4.667527e+01
  -2.044189e+01   2.755363e+01
  -8.651297e+00   9.064795e+00
   4.250124e+01   1.805782e+01
  -2.029563e+01  -3.190223e+01
  -2.798509e+01  -1.148996e+01
  -1.784500e+01  -5.084592e+01
   7.359139e+01  -5.327203e+00
   6.217021e+00  -7.385029e+01
   5.490736e+01  -5.794463e+01
   1.304808e+02   1.782865e+01
   6.605099e+01  -6.257490e+01
   2.301371e+01   1.219262e+02
  -1.922673e+01   6.086458e+01
  -1.502993e+01  -4.063166e+01
  -1.377678e+01   1.455415e+01
   1.221657e+02   5.235174e+01
   2.390442e+00  -4.468518e+00
  -6.793289e+01   5.232196e+00
  -9.219673e+01   7.425689e+01
  -7.152821e+01  -3.868451e+01
   3.740895e+01  -3.604258e+01
   2.140923e+01  -2.969351e+01
   4.989733e+01  -1.602367e+01
   2.568298e+00   5.180895e+01
  -1.782814e+01   1.371437e+01
  -2.593971e+01  -5.303808e+01
   1.103918e+01  -1.085399e+02
   3.463888e+01   1.998129e+01
   3.555009e+01   2.710832e+01
  -2.100737e+01   9.268191e+01
  -6.019591e+01   2.920415e+01
  -2.302635e+01  -5.671832e-01
  -6.815880e+01   1.103984e+01
  -2.307746e+01  -8.076144e+01
   2.676378e+01  -3.219956e+00
   2.323332e+01   1.376993e+01
   3.921521e+01  -3.010800e+01
  -3.921372e+01   1.644339e+01
   1.849335e+01  -3.945741e+01
   3.595067e+01  -1.217904e+01
   6.058047e+01   1.653166e+01
  -7.039666e+01   4.063394e+01
  -7.577766e+01  -4.732959e+01
  -5.228434e+01  -1.480728e+01
   5.685565e+01  -6.442177e+01
   3.026882e+01  -3.571580e+01
   6.761640e+00  -1.012173e+01
   4.632001e+01   1.077114e+01
  -5.344170e+01   4.467180e+00
  -5.532751e+01  -5.266904e+01
   8.460836e+00  -4.752777e+00
   3.891497e+01   1.942876e+01
  -4.543036e+01   3.250311e+01
  -3.186660e-01  -2.871493e+01
   1.166287e+01  -1.701965e+01
  -2.183150e+00  -6.092984e+01
   3.500397e+01  -4.460927e+01
   5.823273e+01   1.016333e+01
   2.041800e+01   8.690342e+01
  -1.112894e+02   1.564185e+02
   6.087586e+00   3.311695e+01
  -6.677941e+01  -1.806556e+01
   1.486391e+01   1.750820e+01
   4.073063e+01   2.054573e+01
   4.242884e+01  -7.654258e+00
   4.803425e+01  -3.327117e+01
  -5.972274e+00  -1.061080e+02
   1.462687e+01  -4.024171e+01
   6.449774e+01   3.229899e+01
   2.916356e+01   7.910164e+01
  -8.379411e+00   8.571972e+01
  -3.505897e+01   2.142444e+01
  -1.568036e+01  -1.574404e+01
  -3.334549e+01  -4.188797e+01
   1.680229e+01   2.825026e+00
   5.805402e+01   3.905012e+01
  -8.308503e+00  -4.180849e+01
  -1.167018e+01   3.583845e+00
   7.779236e+00   2.972578e+00
   1.590065e+01   4.078381e+01
   1.549410e+01  -5.520225e+01
  -1.865442e+01   2.529143e+01
  -7.105867e+01   5.860668e+00
  -2.304636e+01  -1.462064e+01
  -1.344282e+01  -6.320162e+01
  -1.819656e+01   6.025296e+00
   6.937139e+01   1.235101e+01
   2.438924e+01  -7.397863e+00
   2.590443e+00   2.033379e-01
   9.808058e+00  -5.592987e+00
   8.373481e+00  -5.027295e+01
  -4.192430e+01  -6.080697e+01
  -7.244295e+00  -1.314606e+01
   1.380417e+01   2.101444e+01
   3.113464e+01   1.326740e+01
   3.886351e+01  -2.653765e+01
  -4.198191e+01   3.122154e+01
  -2.629588e+01   5.246786e+00
  -5.098715e+00   3.310608e+01
  -1.225908e+01   8.735867e+00
   2.873341e+01   1.804454e+01
  -2.767280e+01   4.555946e+00
  -2.031924e+00   7.392018e+00
   6.698442e+00  -5.616227e-01
   5.208717e+01   2.547224e+01
   2.164663e+01   4.760624e+01
  -1.284784e+01   1.689472e+01
  -3.732535e+01   1.575960e+00
  -2.194336e+01   1.642126e+01
   5.477954e+01   7.976310e+00
   2.796591e+01  -4.523472e+01
   1.073171e+01  -2.646632e+01
  -5.475310e+01   5.879991e+00
  -1.841735e+01   1.092610e+01
  -1.379797e+01  -9.222460e+00
  -1.357396e+01  -8.293006e+01
