
 $NMID
 id='ANONYMOUS ', fmtdat='(2E16.6)'
 volume=1.0
 tramp=1.0
 $END
   2.764063e+03   5.558032e+01
   1.818997e+03   1.356197e+03
  -2.085328e+01   1.759122e+03
  -9.839628e+02   1.061576e+03
  -7.068127e+02   1.792243e+02
  -2.307992e+01  -1.038602e+02
   2.679018e+02   8.404737e+01
   3.193171e+00   4.355609e+02
  -3.813088e+02   4.308706e+02
  -5.220790e+02   6.615942e+01
  -4.011113e+02  -4.316970e+02
   2.169774e+01  -5.697337e+02
   2.653225e+02  -1.744467e+02
   1.860450e+02   4.130397e+02
  -9.123151e+01   4.731202e+02
  -3.072677e+02   8.507529e+01
  -2.504467e+02  -4.301578e+02
   7.234006e+01  -5.750693e+02
   3.949420e+02  -2.069244e+02
   3.152825e+02   1.148977e+02
   8.126386e+01   3.151006e+02
  -1.340661e+02   1.651091e+02
  -4.700383e+01   5.600884e+01
   1.476944e+02   7.477066e+01
   2.635802e+02   2.549127e+02
  -8.366067e+01   3.334277e+02
  -4.536379e+02   1.025529e+02
  -5.017536e+02  -2.069557e+02
  -1.641980e+02  -3.413883e+02
   2.724138e+02  -2.156373e+02
   4.296860e+02   1.176407e+02
   1.380891e+02   3.423972e+02
  -1.951127e+02   2.556973e+02
  -4.026363e+02   6.584254e+01
  -2.752670e+02  -1.433681e+02
  -7.555915e+01  -3.273052e+02
   1.480719e+01  -1.765381e+02
  -1.771357e+01   1.072454e+02
  -1.355306e+02   9.969016e+01
  -1.798773e+02  -1.298404e+02
  -9.044910e+00  -4.297397e+02
   2.391266e+02  -3.772922e+02
   2.776435e+02   2.670126e+01
   1.113380e+02   2.360968e+02
  -1.005767e+02   1.546551e+02
  -1.333008e+02  -2.410010e+02
   7.487549e+01  -2.906171e+02
   4.108918e+02   7.228542e+00
   4.718626e+02   3.564304e+02
   1.417197e+02   4.093976e+02
  -1.961569e+02   2.038676e+02
  -4.660755e+02  -6.638743e+01
  -3.067019e+02  -2.334509e+02
   2.619081e+01  -1.566719e+02
   2.822179e+02  -2.284248e+01
   1.933725e+02  -1.540480e+01
   1.551193e+01   2.554435e+01
  -9.978796e+00  -3.466193e+01
   1.111585e+02   4.653010e+01
   1.916775e+02   6.299188e+01
   7.777737e+01   1.673356e+02
  -1.175039e+02   2.056781e+02
  -3.228552e+02   1.066823e+02
  -2.216930e+02  -7.540894e+01
   4.795332e+01  -3.055763e+02
   2.835623e+02  -2.902719e+02
   2.825390e+02  -1.514955e+02
   1.430263e+02   1.344008e+02
   1.988787e+01   3.119684e+02
   5.484464e+00   2.632042e+02
   1.087915e+01   2.098871e+02
   1.828200e+01   1.048547e+02
  -8.691875e+01   1.059589e+02
  -1.973052e+02   6.578340e+01
  -2.359737e+02  -9.107468e+01
  -8.804011e+01  -2.459085e+02
   9.441883e+01  -1.209259e+02
   1.667238e+02  -3.417734e+01
   1.336237e+02   2.651079e+02
  -3.169101e+01   2.340829e+02
  -2.007468e+02   7.243787e+01
  -2.598637e+02  -1.743106e+02
  -1.239543e+02  -2.448228e+02
   3.727692e+01  -2.381449e+02
   1.200271e+02  -1.597702e+02
   1.173744e+02  -2.445126e+01
   1.260264e+02  -8.196044e+01
   2.462917e+02  -3.435083e+01
   3.759287e+02   7.838381e+01
   2.838012e+02   2.726256e+02
  -3.224874e+01   4.540648e+02
  -3.246028e+02   3.159452e+02
  -4.764136e+02   1.278939e+02
  -2.205909e+02  -1.105365e+02
  -9.790870e+01  -2.179938e+02
   5.887366e+01  -1.807622e+02
   1.289991e+01  -4.561691e+01
  -1.468211e+02   6.034271e+01
  -4.477072e+01  -5.659307e+01
  -3.106884e+01  -1.172600e+02
   8.168221e+01  -1.178881e+02
   1.213989e+02   5.381012e+01
   9.542616e+00   1.101674e+02
  -1.508306e+02   2.071826e+00
  -1.296490e+02  -2.222678e+02
  -4.302435e+00  -3.271293e+02
   2.305543e+02  -2.108975e+02
   3.584062e+02   6.160734e+01
   2.108057e+02   2.570358e+02
   2.094364e+01   3.025951e+02
  -1.110440e+02   1.183045e+02
  -1.423781e+02  -2.723781e+01
  -1.290978e+00   3.761247e+01
   6.163608e+01   8.363371e+01
   2.101377e+01   1.083387e+02
  -1.108259e+02   7.053217e+01
  -1.210572e+02  -1.825551e+01
  -1.684473e+01  -3.056405e+01
   8.920536e+01   7.362754e+01
   1.501521e+01   5.868324e+01
  -1.580683e+02   3.511559e+01
  -2.502217e+02  -1.784556e+01
  -2.341531e+02  -1.491780e+02
  -5.699512e+01  -2.524083e+02
   1.694213e+02  -1.717586e+02
   2.469578e+02  -1.697178e+02
   1.356401e+02   8.443147e+01
  -9.362610e+01   7.928371e+01
  -8.304960e+01  -3.618909e+01
   4.263700e+01  -1.021602e+02
   1.277106e+02  -1.047729e+01
   1.417313e+02   1.389194e+02
   4.616769e+01   1.721222e+02
  -8.502656e+01   8.224680e+01
  -6.775422e+01  -2.663203e+01
  -1.480810e+01  -3.258216e+01
   7.444903e+00  -1.503528e+00
   6.407670e+01   1.275283e+02
  -8.232769e+01   1.272903e+02
  -1.955329e+02  -1.764554e+01
  -1.507132e+02  -9.499007e+01
   6.121658e+01  -1.716842e+02
   1.753817e+02  -1.505782e+02
   1.216720e+02   1.556645e+01
   3.721103e+01   6.948051e+01
  -9.407379e+01   7.398861e+01
  -6.300537e+01  -6.195431e-01
   3.838485e+01  -3.333132e+01
   1.635439e+01   2.268984e+01
  -8.244002e+01   8.874978e+00
  -9.173468e+01  -1.703343e+01
  -6.695714e+01  -7.660442e+01
  -2.084304e+01  -1.380993e+02
   1.291763e+02  -1.415746e+02
   2.312909e+02   1.004517e+01
   1.313756e+02   1.533729e+02
   4.332975e+01   1.547283e+02
  -3.079514e+01   8.684096e+01
  -1.411098e+02   5.719172e+00
  -8.748528e+01  -3.470356e+01
  -2.681331e+01  -4.088030e+01
  -2.821975e+01   5.078224e+01
  -4.046343e+01   6.521841e+01
  -3.910155e+01  -2.090286e+01
   2.014600e+01  -3.539667e+01
   9.304022e+01  -7.789388e+01
   1.232696e+02   5.280242e+01
  -9.893033e+00   1.264075e+02
  -1.231636e+02   7.301525e+01
  -1.395297e+02  -4.722028e+01
  -1.013780e+02  -1.574284e+02
   2.106527e+02  -1.991267e+02
   1.865690e+02  -1.678572e+01
   2.081528e+02   6.731383e+01
   8.377809e+01   1.827955e+02
  -4.049082e+01   1.407130e+02
  -5.094598e+01   4.707895e+01
  -6.123324e+01   9.723801e+01
  -2.464615e+00   8.675271e+01
  -9.026713e+01   1.666374e+01
  -1.145290e+02   4.262300e-02
  -1.157369e+02  -1.459682e+02
  -1.567189e+01  -2.110760e+02
   6.844075e+01  -1.421327e+02
   1.932552e+02  -2.799645e+01
   1.004091e+02   1.514392e+02
  -1.987401e+01   6.802739e+01
  -1.346762e+02   6.454956e+01
  -9.368584e+01  -5.931975e+00
  -1.691979e+01  -4.132539e+01
   6.319976e+01  -6.109024e+00
  -2.795115e+01  -7.575946e+01
  -5.697541e+01  -2.539880e+01
   5.609428e+01  -5.681849e+01
   7.397510e+01  -3.383280e+01
   1.727058e+02   2.126803e+01
   9.295266e+01   4.950153e+01
   2.519011e+01   9.772416e+01
  -6.394199e+01   1.243927e+02
  -1.645371e+02   7.479825e+00
  -3.402348e+01  -8.792468e+01
   7.634677e+01  -2.738211e+01
   5.480197e+01   3.928292e+01
   6.319068e+01   8.266525e+01
  -3.367139e+01   3.914187e+01
  -8.721156e+01   5.635589e+01
  -5.752652e+01  -9.861860e+01
  -5.142895e+01  -1.951112e+00
  -3.298948e+01  -1.996791e+01
  -4.038028e+01  -1.851370e+01
  -6.423289e+01  -1.180114e+02
   8.735045e+00  -1.149558e+02
   1.281463e+02  -1.564789e+02
   1.456055e+02  -7.995425e+01
   1.016482e+02   1.145147e+02
   4.271305e+01   9.235511e+01
  -1.199556e+02   9.767825e+00
  -8.911922e+01   5.500112e+01
   3.229269e+01   2.642213e+01
   1.440188e+02  -8.078398e-01
   5.801720e+01   1.292367e+02
  -8.032820e+01   1.078696e+02
  -2.156284e+02   1.658472e+01
  -6.029268e+01  -3.792184e+00
  -7.894367e+01  -2.213026e+01
   6.712212e+01  -2.644251e+01
   1.923260e+01  -3.057142e+01
  -9.098089e+01   3.210693e+01
  -5.606154e+01  -4.612575e+01
  -6.368696e+01  -1.030096e+02
   9.502407e+01  -1.151683e+02
   1.788234e+02  -2.643627e+01
   4.973816e+01   1.003966e+02
   3.718178e+01   1.874023e+02
  -4.388948e+01   1.285113e+02
  -8.238015e+01   6.872276e+00
  -1.047293e+02  -1.184824e+02
   1.469527e+01  -9.796538e+01
   1.382023e+02  -2.636238e+00
   5.556277e+01  -9.183463e+00
   5.491170e+01   8.807957e+00
   5.221606e+01  -1.658736e+01
   1.580150e+00   3.472271e+01
   4.063807e+01   8.484235e+01
   1.072795e+01   9.982239e+01
  -2.329879e+01   2.685924e+01
  -1.102578e+02  -4.901924e+01
  -1.412634e+02  -7.021785e+01
   2.250882e+00  -4.508072e+01
   7.994649e+01  -8.355235e+01
   1.282939e+02  -3.061117e+01
  -2.878605e+01  -5.554770e+01
  -3.021961e+00   2.887210e+01
   1.462313e+01   1.691801e+01
   3.720701e+00   2.080950e+01
   2.963001e+01  -3.322058e+01
  -7.246127e+01   3.809344e+01
  -8.634160e+01  -3.702035e+01
  -6.294037e+01  -8.508646e+01
   5.091612e+01  -6.932923e+01
   1.988914e+02  -5.140151e+01
   1.520779e+02   1.720219e+01
   1.420364e+01   1.773750e+02
  -9.463946e+01   1.249630e+02
  -6.946517e+01   5.367860e+01
  -6.407480e+01  -4.368396e+01
   2.855464e+01  -5.178810e+01
   1.955810e+01   2.136266e+01
  -6.817114e+00   5.842127e+01
  -2.623257e+01  -4.446602e+01
  -2.054381e+01  -2.787416e+01
   2.998922e+01  -1.144058e+02
   1.193957e+02  -1.748732e+01
   1.497003e+02   8.215397e+01
   3.494423e+01   9.191319e+01
  -8.744033e+01  -3.221237e+01
  -2.593940e+01  -4.703680e+01
  -5.046546e+00  -8.866031e+01
   9.986408e+01  -9.202814e+01
   1.187417e+02  -8.402817e+00
   5.544417e+01   6.390587e+01
  -6.047386e+01   2.651544e+01
  -2.138323e+01   5.021293e+01
  -8.713376e+00   4.324949e+01
   1.462409e+01  -1.223293e+01
   2.143085e+01   2.888559e+01
  -1.208552e+02   3.533973e+01
  -8.225399e+01   6.183792e+01
  -2.958175e+01  -4.117675e+01
   4.382713e+01  -4.951423e+01
   1.133309e+02  -6.171414e+01
   7.394258e+01  -4.392431e+01
   7.506879e-02   1.869141e+01
  -3.554880e+01   3.263491e+01
  -2.778176e+01  -1.494847e+01
  -6.845195e+01  -7.217694e+01
  -6.540132e+01  -4.859034e+01
  -2.346849e+00  -2.095164e+01
   4.673770e+01   4.588971e+01
   5.721405e+01   2.796742e+01
  -1.535166e+01  -3.449174e+01
   8.534161e-01  -2.499516e+01
  -3.212168e+01   3.894412e+01
   3.686790e+00   8.632593e+01
  -3.596065e+01   4.005567e+01
  -3.135806e+01  -7.743994e+01
  -6.186718e+00  -7.755402e+00
   2.291698e+01  -1.011337e+01
   9.166122e+01   1.115850e+02
   2.170553e+01   2.973236e+01
  -5.632683e+01   6.681593e+01
  -7.327521e+01   3.821540e+00
  -4.779618e+01   1.722499e+01
  -1.898803e+01  -3.275483e+01
   2.758916e+01  -7.769908e+01
   1.302631e+01  -9.465589e+00
  -3.127231e+01  -2.416052e+01
  -7.867225e+01  -8.408667e+00
   2.786191e+01  -1.023099e+01
  -5.436584e+00   2.260955e+00
