
 $NMID
 id='ANONYMOUS ', fmtdat='(2E16.6)'
 volume=1.0
 tramp=1.0
 $END
   1.236723e+03   1.014480e+01
   8.663959e+02   4.821885e+02
   2.063927e+02   7.027204e+02
  -2.829732e+02   6.365523e+02
  -3.948922e+02   3.643546e+02
  -1.528072e+02   1.007808e+02
   6.425558e-01  -6.704811e+01
  -2.282702e+01   1.198606e+02
  -9.997648e+01   2.268821e+02
  -2.556637e+02   7.224781e+01
  -2.007890e+02  -9.308176e+01
  -6.214444e+01  -1.927406e+02
   5.042487e+01  -9.025569e+01
   5.312621e+01   9.689567e+01
   1.170752e+01   1.873810e+02
  -1.324674e+02   9.726846e+01
  -1.132295e+02  -2.017115e+02
  -1.975911e+01  -3.415671e+02
   1.624391e+02  -1.363233e+02
   1.883048e+02   3.252213e+01
   4.655575e+01   1.174158e+02
  -6.718664e+01   8.744430e+01
   2.215792e+01   8.443661e+01
   1.048322e+02   5.523271e+01
   1.157934e+02   1.823291e+02
  -5.881858e+01   1.743219e+02
  -2.198733e+02   1.496392e+01
  -1.625267e+02  -5.718873e+01
  -2.950708e+01  -1.142382e+02
   1.465068e+02  -2.036286e+01
   1.723840e+02   1.439201e+02
   1.895486e+01   9.736152e+01
  -1.464060e+02   1.144331e+02
  -2.089789e+02   1.362354e+01
  -1.266874e+02  -2.621264e+01
  -2.132378e+01  -1.384027e+02
  -4.200434e+01  -7.584164e+01
  -8.367192e+01   2.521171e+01
  -8.430736e+01  -4.234400e+00
  -3.026744e+01  -9.868006e+01
   4.062098e+01  -2.132744e+02
   1.108146e+02  -1.867212e+02
   8.422611e+01  -1.659137e+01
   2.106733e+01   1.017832e+02
  -1.068148e+02   5.625032e+01
   3.105664e+01  -1.176810e+02
   7.312558e+01  -1.455273e+02
   1.432680e+02  -1.464582e+01
   1.789947e+02   1.863040e+02
   4.279974e+01   1.584930e+02
  -1.269924e+02   8.412453e+01
  -1.379769e+02  -2.822433e+01
  -2.345708e+02  -5.798064e+01
   1.894648e+01  -5.096587e+01
   9.686930e+01   4.114132e+00
   8.622773e+01  -1.266620e+01
  -2.426882e+01  -5.255713e+01
  -2.229336e+01  -7.791862e+00
   1.676911e+01   1.397363e+00
   8.856640e+01   3.939893e+01
   4.089303e+01  -2.998038e+01
   2.181984e+00   7.205353e+01
  -1.749848e+02   7.112576e+01
  -1.450728e+02  -6.687416e+01
   1.343422e+01  -1.718576e+02
   1.407955e+02  -1.741856e+02
   1.390509e+02  -1.064563e+02
   7.037876e+01   8.880858e+01
  -3.953821e+01   1.730992e+02
   3.635029e+01   1.391761e+02
   6.517508e+00   7.264819e+01
   5.132934e+01   1.244869e+02
  -1.208831e+02   3.598343e+01
  -8.471343e+01  -1.633418e+00
  -1.400994e+02  -6.512760e+01
  -4.704675e+01  -1.162342e+02
   3.966298e+01  -4.852391e+01
   3.953433e+01   1.831931e+00
   2.516681e+01   6.812123e+01
   7.490215e+00   9.133870e+01
  -9.860431e+01  -1.738433e+01
  -1.693160e+02  -9.595201e+01
  -8.365055e+01  -1.701966e+02
   9.374248e+00  -9.206759e+01
   3.094140e+01  -7.577372e+01
   5.818217e+01  -2.446531e+01
   1.166871e+02   9.889020e+00
   1.190540e+02   7.329952e+00
   1.964807e+02   2.932693e+01
   1.519863e+02   2.029929e+02
   1.593824e+01   2.297977e+02
  -1.832430e+02   2.447417e+02
  -2.112053e+02   1.187727e+02
  -1.155088e+02  -6.705466e+01
   1.414104e+01  -1.185679e+02
   4.363456e+01  -1.982484e+01
  -2.675903e+01  -2.998988e+01
  -9.675865e+01  -2.323703e+01
  -6.592729e+01  -4.793309e+01
  -2.111239e+01  -7.544976e+01
   3.819198e+01  -5.317761e+01
   3.630884e+01   7.337851e+01
   1.381100e+00   7.120435e+01
  -9.904309e+01  -1.017991e+02
  -5.443164e+00  -1.273133e+02
  -2.218096e+01  -2.284941e+02
   8.968641e+01  -1.294547e+02
   1.650623e+02  -1.470143e+01
   1.584716e+02   1.650231e+02
  -1.930030e+01   1.552597e+02
  -1.137917e+02   4.200941e+01
  -8.092171e+01  -3.591429e+00
   1.072876e+01   7.958965e+00
  -4.314801e+00   5.542989e+01
   3.962153e+00   3.710517e+00
  -9.271953e+01  -5.403974e+00
  -5.000882e+01  -1.734038e+01
   5.586408e-01  -1.661278e+01
   3.379098e+01  -2.717151e+01
   8.941158e+01   9.665502e+01
  -1.021888e+02   7.027546e+01
  -1.353205e+02  -2.047674e+01
  -1.353547e+02  -3.905846e+01
  -3.707843e+01  -8.187667e+01
   1.154788e+02  -1.129057e+02
   9.384532e+01  -5.492873e+01
   7.635835e+01   5.375798e+01
  -3.385833e+01   6.184252e+01
  -1.636364e+01  -3.509462e+01
   4.024974e+01  -1.672303e+01
   6.057026e+01   1.537853e+00
   1.140319e+02   2.894570e+01
   1.890444e+00   1.009685e+02
  -3.485618e+01   4.689903e+01
  -1.545971e+01  -3.156853e+01
  -1.782135e+01   6.321610e-01
   2.307681e+01  -3.751626e+01
   3.276334e+01   8.984840e+01
  -9.899345e+01   2.034608e+01
  -1.771762e+02  -3.334352e+01
  -6.346643e+01  -6.055712e+01
  -8.346093e+00  -1.045616e+02
   6.683158e+01   1.450930e+01
  -2.092309e+01  -7.449483e+00
   3.610424e+01   3.934448e+01
  -1.925009e+01   3.133983e+01
  -4.367275e+01   1.834758e+01
   1.238859e+01  -3.272793e+01
   2.012128e+01  -1.254892e+01
  -5.725238e+01   4.198105e+01
  -6.796554e+00   3.688675e+01
  -9.722609e+01  -4.767028e+01
  -2.848460e+01  -9.803423e+01
   1.045757e+02  -3.521027e+01
   1.010167e+02   4.070596e+01
   7.472572e+01   7.899666e+01
   4.018582e+01   1.153635e+02
  -6.748297e+01   3.658938e+01
  -6.085751e+01  -1.391097e+01
  -5.149938e+01   3.142464e+01
  -4.518379e+01  -8.750382e+00
  -2.538066e+01   7.047082e+00
  -7.492233e+01   1.683672e+01
  -5.801095e+01  -1.268701e+01
   3.853312e+01  -3.908006e+01
   7.175344e+01  -7.252999e+01
   4.818517e+01   9.333066e+00
   1.350778e+01   8.631111e+01
  -8.300089e+01  -7.878833e+00
  -5.883604e+01  -1.381519e+01
  -2.336986e+01  -9.742457e+01
   7.466804e+01  -1.184101e+02
   1.565773e+02  -4.698181e+01
   9.710087e+01   4.226382e+01
   2.748536e+01   4.781792e+01
  -7.165901e+01   8.042136e+01
  -2.033203e+01   1.288081e+01
  -7.093087e+01   9.785800e+00
   1.639090e-01   7.086016e+01
  -4.210316e+01   4.452971e+01
  -3.608846e+01  -1.040330e+01
  -7.630061e+01  -5.962671e+01
  -2.228016e+01  -1.096232e+02
   5.976000e+01  -6.955419e+01
   2.171066e+01  -2.480463e+01
   7.303249e+01   6.257853e+01
   1.795809e+01   1.150181e+02
  -5.876236e+01   1.346055e+01
  -4.318273e+01   5.116738e+00
   5.614111e+01  -4.771247e+01
   1.346051e+01  -4.073893e+01
  -7.504546e+00   2.755503e+01
  -2.831561e+01   1.978599e-01
   3.288552e+01  -2.839375e+01
   7.000717e+01  -2.719770e+01
   9.736698e+01   7.309665e+01
   9.776393e+01   2.752254e+01
  -5.122018e+01   4.352179e+01
  -8.782453e+01   1.107381e+02
  -1.020588e+02  -2.029085e+01
  -1.079232e+01  -1.156600e+02
   3.003071e+01  -1.961812e+01
   5.060520e+01  -2.868982e+01
   8.642647e+01   1.632690e+01
   3.258813e+01   1.479516e+01
  -6.212781e+01  -5.730393e+01
  -7.363507e+01   5.052369e+00
  -4.218914e+01  -5.272611e+01
  -1.827338e+01   2.862591e+01
  -1.040382e+02  -4.302307e+01
  -3.864741e+01  -9.878712e+01
   1.129619e+01  -6.796721e+01
   7.320058e+01  -6.911562e+01
   5.377121e+01  -5.739850e+01
   4.149184e+01   2.380241e+01
  -1.620219e+01   3.408921e+01
  -1.000403e+02   2.220129e+01
  -9.472278e+00  -6.647172e+00
   7.751376e+01   2.092090e+01
   4.611413e+01   3.685188e+01
   5.781502e+01   2.614207e+01
  -4.931720e+01   4.213426e+01
  -1.244568e+02   3.228269e+01
  -8.224793e+01  -5.815425e+01
   1.913970e+01  -7.385942e+01
   2.427431e+01  -3.892559e+01
  -4.908546e+01   1.958019e+01
  -3.286841e+00   2.563856e+01
  -3.181671e+01   1.665499e+01
  -2.989149e+01  -7.767842e+01
   4.057835e+01  -5.929862e+01
   1.789149e+01  -5.110569e+01
   5.519782e+01   4.387575e+01
  -8.923812e+00   1.530254e+02
  -4.044604e+01   7.091703e+01
  -6.298453e+01   1.693043e+01
   5.680095e+00  -5.328994e+01
   1.621750e+00  -2.408716e+01
  -1.271676e+01   7.032001e+00
   1.173283e+01  -3.698923e-02
   3.215444e+00   4.068619e+01
   4.754064e+01   3.931774e+01
   1.453541e+01   6.683869e+00
   7.538191e+01   2.186683e+01
   2.440321e+01   8.071966e+01
  -7.708821e+01   6.397094e+00
  -4.752984e+01   4.591538e+01
  -6.657201e+01  -3.110894e+01
   1.238047e+01  -4.819950e+01
   4.678560e+01   1.540782e+01
   4.266935e+01   4.266261e+00
   8.668465e-01   4.288368e+01
   2.477003e+01  -2.726351e+01
   4.306343e+01   3.661735e+01
  -2.253709e+01   1.351866e+01
   7.209653e+00  -3.184409e+01
  -1.885237e+01   3.875335e+01
  -3.268031e+01  -3.293327e+01
  -7.295813e+00  -2.846450e+01
   3.806396e+01  -9.487639e+01
   5.787942e+01  -4.073097e+01
   6.164225e+01   6.600424e+01
   6.681891e+01   1.609539e+01
  -5.853423e+01   9.877479e+01
  -5.309971e+01   5.121369e+01
  -6.102141e+01   6.175811e+01
   3.993646e+00   1.250525e+01
  -4.692615e+01  -6.015290e+01
  -1.511087e+01   1.743672e+01
  -6.916237e+00  -4.768615e+01
   2.679628e+01  -4.489326e+00
   7.107666e+01  -7.170817e+01
   3.961870e+01  -5.445140e+01
   6.081627e+01   5.309368e+01
   1.798765e+01   9.411806e+01
  -4.904145e+01   5.502082e+01
  -3.358058e+01  -6.547985e+01
   1.701081e+01  -5.232362e+01
   2.020488e+01  -3.253018e+01
   5.000484e+01   2.836745e+01
   1.229055e+01  -1.240027e+01
  -1.284749e+01   4.651937e+01
   2.081738e+01  -3.163196e+01
   6.417902e+01   1.688435e+01
   3.484182e+01   5.699091e+01
   1.675804e+01   6.367575e+00
  -1.303362e+01   3.983308e+01
  -1.016451e+02   3.170305e+01
  -1.141992e+02   2.418741e+01
  -1.125779e-01  -4.877006e+01
  -4.536968e+00  -7.739042e+01
   5.468095e+01   2.509165e+01
   6.475769e+00   5.386720e+01
  -4.007315e+01  -9.316881e+00
  -2.564579e+01   1.360207e+01
   5.985512e+00   4.478794e+00
  -4.042665e+00  -5.066359e+01
  -2.592833e+01   2.307083e+00
   1.462326e+01  -1.148645e+00
   5.696334e+01   4.511987e+01
  -2.756998e+00  -6.787308e+01
  -1.239677e+01  -1.121032e+02
   5.077040e+01  -6.034121e+00
   3.669268e+01   6.983782e+01
  -3.814113e-01   5.359768e+00
  -8.539429e+00  -1.372274e+01
   3.563059e+01   7.005313e-01
   1.390969e+01  -4.096242e+01
   3.938771e+01   2.047610e+01
   4.260164e+01   2.509383e+01
   2.270770e+01   1.175134e+01
  -1.007305e+02  -5.729145e+01
  -1.741575e+01  -6.394510e+01
   4.214055e+01  -1.570119e+01
  -2.720840e+01   1.875895e+01
  -2.839136e+01  -2.646109e+01
   2.042887e+01  -1.137504e+01
   2.902842e+01   1.106568e+01
  -4.022326e+00   7.884903e+00
   2.882848e+01  -2.722826e+01
