
 $NMID
 id='ANONYMOUS ', fmtdat='(2E16.6)'
 volume=1.0
 tramp=1.0
 $END
  -8.444611e+02   8.125863e+01
  -6.781854e+02  -3.125168e+02
  -2.227078e+02  -6.793819e+02
   2.879412e+02  -4.702528e+02
   3.864094e+02  -1.993514e+02
   7.966830e+01  -4.763173e+00
  -5.452297e+01   9.448048e+01
  -1.169614e+02  -1.042542e+02
   6.385889e+01  -2.076438e+02
   2.079828e+02  -1.011982e+02
   1.275164e+02   9.091903e+01
   1.963603e+01   2.444648e+02
  -1.943692e+01   1.127298e+02
  -9.070031e+01  -9.272326e+01
  -4.960409e+00  -1.656353e+02
   1.547619e+02  -7.784295e+01
   1.170677e+02   8.209499e+01
   2.251118e+01   2.366771e+02
  -1.491745e+02   6.905196e+01
  -1.212725e+02  -3.040773e+01
  -3.562971e+01  -1.239470e+02
   5.389370e+01  -9.850742e+01
  -1.499877e+01  -5.315820e+01
   3.156839e+01  -6.995194e+01
  -9.867347e+01  -1.090727e+02
   4.874868e+01  -8.004571e+01
   1.119103e+02  -6.009647e+01
   1.886048e+02   1.728922e+01
   4.850653e+01   8.336196e+01
  -1.200102e+02   1.532033e+01
  -1.093201e+02  -1.511869e+01
  -9.513014e+01  -5.097514e+01
   7.888566e+01  -5.473796e+01
   1.192199e+02  -6.444435e+01
   8.014808e+01   2.423860e+01
   6.549591e+01   7.069455e+01
   6.848178e+00   7.165162e+01
   8.803518e+01   2.784781e+01
   4.207358e+01  -7.023391e+01
  -2.437831e+01   1.014067e+02
  -1.894042e+01   1.317102e+02
  -4.204458e+01   1.100414e+02
  -8.001361e+01  -3.260301e+01
  -1.697783e+01  -4.956632e+01
   7.160962e+00  -5.048324e+01
   4.265028e+01   5.081490e+01
  -3.570280e+01   1.485704e+02
  -9.287584e+01   3.954168e+01
  -1.583383e+02  -1.307794e+02
  -8.661881e+01  -1.313737e+02
   1.313629e+02  -6.353501e+01
   1.643630e+02  -2.219555e+01
   1.462633e+02   5.672712e+00
  -3.571073e+01   4.017466e+01
  -5.675737e+01  -1.946123e+00
  -1.090940e+02   3.434448e+01
  -3.295655e+01  -1.934195e+01
   6.608111e+01   4.577286e+01
  -5.960014e+01   5.103454e+01
  -8.254764e+01   4.489975e+00
  -3.832393e+01  -2.805865e+00
   7.478096e+01  -5.958607e+01
   4.630236e+01  -6.399633e+01
   9.631186e+01  -2.586620e-01
   2.509008e+00   7.882186e+01
  -1.366404e+02   8.389420e+01
  -1.230434e+02   2.214600e+01
  -2.957848e+01  -1.965794e+01
   6.230072e+00  -9.495741e+01
   2.262196e+01  -7.279991e+01
  -1.292465e+01  -5.658188e+01
   4.145764e+01  -7.617686e+01
   1.413946e+02  -3.080074e+01
   8.569186e+01   8.335777e+00
   6.551446e+01   5.219840e+01
   5.024971e+01   9.429521e+01
  -3.347563e+01   4.505424e+01
  -3.515690e+01  -8.186807e-01
   8.050443e+00  -9.776353e+01
   4.557302e+01  -9.514947e+01
   3.610557e+01   4.356755e+01
   8.985988e+01  -1.320181e+01
   1.440712e+01   1.907844e+02
  -3.804742e+00   4.683532e+01
  -2.432853e+01   7.214784e+01
  -5.749498e+01   3.306958e+01
  -7.371098e+01  -8.598944e+00
  -7.330506e+01   6.327477e+01
  -3.367550e+01  -1.064757e+01
  -1.308554e+02  -9.866360e+01
  -1.193096e+01  -1.783098e+02
   9.108736e+01  -1.057840e+02
   8.738196e+01  -7.242703e+01
   9.123579e+01  -3.427573e+01
   5.494380e+01   7.716883e+01
  -3.149828e+01   3.412030e+01
   2.935816e+01   6.362684e+01
   2.196187e+01  -3.704476e+01
   2.154100e+01  -1.638802e+00
   3.536018e+01   5.274644e+01
  -9.845157e+01   9.647451e+00
  -1.061012e+01  -1.612242e+01
  -4.906598e+01  -2.810519e+01
   5.722176e+00   1.519001e+00
   4.486695e+01   4.410470e+01
   6.396086e+01   1.529170e+02
  -9.464648e+01   9.495219e+01
  -1.011403e+02  -6.368576e+01
  -6.206151e+01  -1.421467e+02
  -1.041973e+01  -1.453152e+02
  -2.669114e+01  -8.470484e+01
   3.088588e+01   4.067071e+01
   1.625901e+01  -3.552421e+01
  -1.685684e+01  -4.869886e+01
  -5.708081e+00  -3.053786e+01
   4.607065e+01   6.566433e+00
   4.017016e+01   2.422326e+01
   6.119232e+00  -3.085602e+01
   4.222176e+01   5.142533e+01
   2.988805e+01  -1.716367e+01
   8.401357e+01  -2.937114e+01
   1.569122e+02   9.601156e+00
   5.798827e+01   9.569427e+01
  -4.422280e+00   6.002961e+01
  -7.272981e+01   5.985769e+01
  -7.548389e+01   7.387880e+01
  -2.411406e+01  -1.224597e+01
  -2.414273e+00   5.237380e+01
   1.479123e+01  -9.281758e+00
  -2.670719e+01   5.223924e+01
  -7.036788e+01   5.064164e+01
  -1.425279e+01  -1.077283e+02
  -7.159966e+00  -4.280033e+01
   7.237499e+01  -1.515676e+01
   1.556696e+01   1.001001e+01
   1.191532e+01  -4.574692e+01
  -5.634459e+01   8.491522e-01
   1.515591e+00  -1.049619e+02
   9.675600e+01  -6.022604e+01
   8.314405e+00  -1.941279e+01
   5.922946e+01   7.362361e+01
  -6.850680e+01   5.694773e+01
  -4.405917e+01   7.603798e+01
  -2.807920e+01  -2.562679e+01
   3.651916e+01  -8.524457e+01
   1.814898e+01  -5.595803e+01
   5.769709e+01   3.908481e+01
   6.620467e+00   5.646667e+00
  -3.866749e+01   2.643151e+01
  -7.674483e+00  -1.966053e+01
   9.643071e+01  -3.468961e+01
   6.214179e+01   2.015659e+01
   8.164938e+00   3.453757e+01
  -5.742242e+01   8.759835e+01
  -5.480946e+01   2.878374e+01
  -5.389579e+01  -3.274810e+01
  -3.172488e+01  -8.437057e+01
   9.407877e+01  -3.174851e+01
   1.645107e+01   3.025709e+00
  -3.753983e+01   2.955594e+01
   8.282317e+00   4.757081e+01
  -3.875638e+01  -8.498472e+01
   1.613882e+01  -8.513138e+00
  -8.297146e+01   3.666711e+01
  -6.296804e+01   3.400435e+00
  -9.803833e+01   6.692491e+00
  -4.022033e+01   1.152791e+00
   4.376968e+01  -5.867840e+01
   8.965365e+01   2.117439e+01
   5.811985e+01  -2.858353e+01
   7.252296e+01   5.115099e+01
  -5.184311e+01   6.108336e+01
  -5.039950e+01   4.035457e+01
  -6.111240e+01  -2.357454e+01
  -3.110049e+01  -8.537644e+01
   2.189256e+01  -5.950968e+01
   3.993286e+00  -4.440660e+01
   4.624663e+01   1.302163e+01
   4.225019e+01  -2.091621e+01
   9.737955e+01  -5.868466e+01
   5.677003e+01   2.053828e+01
   3.008422e+01   1.806959e+01
   7.261295e+01   7.754990e+01
  -1.815136e+01   7.330279e+01
  -2.861242e+01  -3.561290e+00
   1.500200e+01  -5.895915e+01
   7.829493e+00  -4.303334e+01
   3.555715e+01   1.729956e+01
  -3.967922e-01   4.240108e+01
  -2.863660e+01  -5.315944e+00
  -2.136102e+01  -3.448431e+01
   2.811152e+01  -5.490353e+01
   3.820847e+01   1.809677e+01
   3.427533e+01  -2.823004e+01
  -6.979409e+01  -2.334773e+01
  -4.874038e+01   1.578217e+01
  -5.620079e+01  -1.751114e+01
   6.000899e+01  -1.089887e+01
   4.395373e+01  -1.851782e+00
   4.476686e+01  -2.753580e+01
   5.874428e+01   5.643601e+01
   1.639713e+01   4.136138e+01
  -4.555355e+01   1.328789e+01
  -4.719268e+01  -3.179968e+01
   4.441926e+01  -4.359164e+01
   2.574824e+00   1.480173e+01
  -9.763105e+00  -9.055339e+00
   5.077381e+01  -2.745191e+00
   7.756784e+01   6.778444e+00
   9.080317e+01   2.527226e+01
   1.952548e+01  -7.806450e+01
  -1.787582e+00   5.914346e+01
  -4.155105e+00   2.558546e+01
  -1.034548e+02   2.349175e+01
  -5.424113e+01  -2.149276e+00
   5.073632e+01  -6.623685e+01
   8.756766e+00  -6.435098e+01
   2.924042e+01   3.873115e+01
  -3.323711e+00   3.505096e+01
  -6.069725e+01   2.776318e+01
  -2.568339e+01  -7.061972e+01
   4.762199e+01  -5.059196e+01
   1.630854e+01   5.964096e+01
   9.854863e+01   9.467973e+00
  -7.865675e+00   3.883775e+01
  -2.423729e+01  -4.774437e+01
  -6.264426e+01  -6.294948e+01
   5.030651e-02   4.802374e+01
   7.685048e+01  -1.082919e+01
   4.101011e+01   5.480544e+01
   1.915438e+01   4.324476e+01
  -1.069438e+02   3.051708e+01
  -3.685839e+01  -2.918976e+01
   3.836084e+01  -3.540097e+01
   6.069014e+01  -9.358671e+01
   3.521663e+01  -1.992804e+00
   6.963133e+01   6.255275e+01
   2.441055e+01  -1.202633e+01
  -4.637830e+01   1.455598e+01
  -7.076830e+00  -3.631401e+01
  -5.201070e+00  -2.051642e+01
  -1.220224e+01  -2.841929e+01
  -9.113677e+01   5.300193e+01
  -5.592690e+01  -3.312697e+01
   1.520541e+01   7.888599e+00
   6.133125e+01  -1.468934e+01
   5.899696e+01   5.298411e+01
   3.706725e+01   1.926581e+01
   9.602198e+00   1.623971e+01
  -1.245525e+01   1.566494e+01
  -3.826441e+00   4.520022e+01
  -2.248498e+01  -2.127728e+00
   1.868497e+01  -9.598799e+00
   7.623723e+00   1.531735e+01
  -3.992387e+01   5.982211e+00
  -2.929669e+01   3.410177e+01
   1.903199e+01   4.639475e+00
   1.540358e+00   1.034777e+00
  -1.289697e+01   3.907260e+01
  -1.237184e+01   6.463491e+01
  -4.089833e+01   6.319221e+00
  -6.384741e+01  -3.798864e+01
  -3.013210e+01  -8.905873e+01
   5.641282e-01  -6.100707e+01
   3.743621e+01  -9.728628e+00
  -9.463395e+00   1.253690e+01
  -4.951174e+01   1.437680e+01
   1.953280e+01  -1.446077e+00
   2.563291e+01   2.598578e+01
   2.706380e+01   2.563547e+01
  -2.329771e+00  -1.181719e+01
  -5.665678e+01   2.460436e+01
   1.045896e+01  -6.195372e+01
  -2.568379e+01   2.646964e+01
  -3.424408e+01  -5.590303e+01
   4.160906e+00   2.182545e+01
   1.718491e+01   2.817539e+01
   6.574979e+01  -4.360535e+00
  -3.715816e+01   2.969663e+01
  -5.993410e+01  -6.660379e+01
   6.524678e+00  -1.850201e+01
   6.526453e+01  -3.689717e+01
  -8.592011e+00  -1.438552e+01
   3.156410e+01  -2.536375e+01
  -3.925810e+01   1.108431e+01
   5.001965e+01  -2.837389e+01
   2.094603e+01   6.757541e+00
   2.103823e+01   5.972646e+00
   2.371096e+01  -3.008455e+01
   7.221489e+01   2.942710e+01
   7.007045e+01   6.656121e+01
  -7.383466e+00   4.172852e+01
   1.708379e+01  -7.745213e+01
   7.632287e-01  -6.173506e+01
  -9.281218e+00  -2.222313e+01
   2.959171e+00   2.350802e+01
   4.973669e+01  -2.535521e+01
   3.667073e+00  -2.891644e+01
  -6.879372e+01  -9.361188e+01
  -1.492357e+01  -8.033714e+00
  -8.408463e+00  -8.078413e-01
   4.737421e+01  -3.000834e+00
  -6.352227e+01  -3.462867e+01
   1.201161e+01  -1.533122e+01
   1.797232e+01   4.175843e+01
   2.287678e+01  -5.508365e+01
  -5.508388e+01   3.096065e+00
  -4.117899e+01   2.207671e+01
  -5.665216e+01   5.573042e+01
  -3.805790e+01  -6.909842e+01
   2.061337e+00  -1.125063e+01
   4.614628e+01   4.691314e+01
   1.530538e+01   4.959455e+01
  -3.677698e+01   6.799834e+01
  -3.344922e+01  -5.246912e+00
  -7.427446e+00   8.045978e+00
   3.327588e+01  -1.476845e+01
  -2.394495e+01   2.181165e+01
  -1.697195e+01  -2.550743e+01
  -1.896570e+01   1.447935e+01
