
 $NMID
 id='ANONYMOUS ', fmtdat='(2E16.6)'
 volume=1.0
 tramp=1.0
 $END
   1.104615e+02  -5.012866e+00
  -2.136743e+01   1.050927e+02
  -6.874042e+01   1.134932e+01
  -2.097367e+01  -4.099714e+01
   3.141241e+01  -2.563062e+00
  -7.204890e+00   5.095461e+01
  -3.141435e+01   9.805613e+01
   2.717397e+01   1.989706e+01
  -5.599741e+00   1.430624e+00
   1.576582e+01  -5.532495e+01
   2.989359e+01   8.316974e+00
   2.155699e+01   3.256796e+00
  -2.585451e+01   1.640050e+01
   1.784702e+01  -2.066811e-01
  -1.663009e+00  -4.845876e+01
  -2.464546e+01  -5.847260e+01
  -1.907360e+01  -6.228714e+01
  -2.289697e+00   1.708308e+01
  -1.777870e+01   1.511172e+01
   2.616103e+01  -1.657566e+01
   4.078130e+00   1.063658e+01
  -6.707635e+00   1.970777e+01
  -1.147933e+01   1.010152e+00
  -2.343304e+01  -9.479253e+00
   5.726378e+00   4.410022e+01
   2.429482e-01  -2.062753e+01
  -6.596189e+01   3.162043e+01
  -5.028564e+01  -1.017583e+01
   2.011282e+01  -5.456211e+01
   9.842335e+00   8.829743e+00
  -3.246310e+01  -1.491572e+01
   7.725317e+00  -1.211717e+01
  -3.794806e+01   3.867124e+01
  -5.525220e+01   1.669597e+01
   1.051952e+01   4.261146e+01
  -9.495838e+00   5.403981e+01
  -3.538507e+01   4.313299e+00
   4.339108e+01   8.155855e+01
   2.714429e+00   4.245625e+01
  -1.658708e+01  -2.184889e+01
  -4.803422e+00  -3.105587e+01
   1.098986e+01  -2.558602e+01
   1.054433e+01   3.363913e+01
   1.610232e+00  -3.385574e+01
   8.098602e+00   2.470546e+01
   2.627310e+01  -4.783317e+01
   2.422686e+01  -2.718257e+01
  -3.154680e+01  -2.261376e+01
   5.038749e+01  -1.406492e+01
  -1.712090e+01  -1.081173e+01
  -1.405256e+01  -2.824181e+01
  -1.623872e+01   3.750948e+01
  -1.796268e+01  -1.526873e+01
   6.363168e+00  -8.041365e+00
   1.394085e+01  -5.034339e+01
   1.702213e+00   9.841536e+00
   1.632349e+01  -2.097831e+01
  -1.723777e+01  -6.215071e+01
   2.515003e+01   1.653298e+01
   2.675822e+01  -1.018917e+01
   1.355334e+01  -5.228528e+01
  -1.147018e+01   1.962429e+01
  -8.555375e-01  -1.298694e+01
   2.129118e+01   1.023461e+01
  -3.286401e+00  -1.093551e+01
  -8.696869e+00  -5.538427e+01
   3.938829e+01  -2.723842e+00
   2.670351e+01  -6.796658e+00
  -1.579013e+01   1.441593e+01
   4.887101e+01   2.717910e+01
   2.412343e+00   1.691427e+01
   4.005549e+01   4.507644e+00
   6.251499e+01  -3.299282e+00
  -1.945560e+01   1.432242e+01
  -6.476560e+00  -8.412722e+00
  -1.268809e+01  -3.451194e+01
   1.458462e+01   1.946764e+01
   2.911959e+01  -1.403096e+01
   1.861981e+01   3.958649e+01
  -1.453566e+01   5.951020e+01
   6.734249e+00   1.574406e+01
  -3.335238e+01   9.417719e+00
   4.230388e+01   1.143215e+01
   9.500968e+00   1.414711e+01
  -3.908612e+01   2.640104e+01
   4.112809e+01   3.892281e+00
  -3.069511e+01   4.445536e+01
   2.971528e+01   4.757678e+00
  -3.533683e+01  -4.085825e-01
   3.752116e+01   7.462844e+01
  -1.622528e+01  -2.620982e+01
  -6.412925e+00   1.932047e+01
  -1.451833e+01  -7.496042e+01
   4.863569e+01   1.816583e+01
   2.764834e+01   5.211616e+01
  -5.065546e+01  -1.259208e+01
   4.229259e+01  -1.091609e+01
  -3.600676e+01   9.309377e+00
   8.171286e+01   4.557794e+01
  -2.491216e+00   2.095934e+01
   1.595866e+01   5.499915e+01
   5.193440e+01  -1.926011e+01
  -1.275359e+01  -1.352726e+01
  -4.187975e+00   4.488279e+01
  -5.502056e+01   1.960447e+01
  -4.877417e+01   1.095907e+01
  -2.682076e+01  -3.936432e+01
  -1.871857e+01  -1.828979e+01
   1.964794e+01  -5.776982e+00
   2.376828e+00   4.855361e+01
   1.456869e+01   6.852421e+00
  -3.350877e+00  -1.532256e+01
  -3.174203e+01   2.355694e+01
   4.264096e+00   2.209632e+01
  -7.686643e+00  -4.764358e+00
   4.187127e+01  -1.475072e+00
  -3.427650e+01   4.081045e+01
  -2.769242e+01  -4.848325e+01
   4.593798e+01  -4.406033e+01
  -6.521609e+01  -2.808897e+01
  -1.661153e+01   1.088096e+01
  -8.406633e+00   2.710142e+01
   4.127339e+01  -5.883237e+01
   2.009363e+01   7.947851e-01
   1.110956e+00  -9.365998e-01
   2.342773e+00  -9.875277e+00
   1.667279e+01  -4.278587e+00
  -6.300174e+01   1.814680e+01
   1.737909e+00   5.725252e+01
  -5.248298e+00  -2.305736e+01
  -1.701444e+01  -4.577209e+01
   1.971545e+01  -2.292353e+00
   3.169802e+01   1.655591e+01
  -3.051211e+01  -4.745229e+00
  -3.421611e+01   4.244207e-01
   6.580174e-01  -1.352733e+01
  -2.730709e+01   1.471277e+01
  -5.791404e+00  -2.495332e+01
   1.026254e+01   3.320692e+01
   4.005731e+00  -8.818879e+00
  -3.876134e+01   1.110066e+01
  -7.981402e+00   1.001633e+01
  -3.030322e+00   5.159549e+00
   3.078932e+01  -1.245995e+00
  -1.196304e+01  -2.519764e+01
  -2.383960e+01   3.856799e+01
   5.647188e+00   1.896477e+01
  -4.399806e+01   1.096778e+01
  -2.766691e+01  -2.688686e+01
  -1.256450e+01  -1.824243e+01
  -5.929641e+00  -4.207011e-01
   8.693420e+01   8.039366e+00
   6.952240e+00   1.194295e+01
   1.169588e+01   2.300296e+00
  -2.028935e+01  -3.514035e+01
  -1.403811e+01  -2.882762e+01
  -5.150777e+01   4.083215e-01
  -3.034202e+00   1.161373e+01
  -3.824367e+01   4.612914e+00
   3.482790e+01   6.027630e+00
  -3.489288e+01  -1.522535e+01
  -1.917097e+01  -8.063766e+01
   1.044996e+01   5.038997e+01
   3.907246e+01  -3.367505e+01
  -1.324500e+01  -1.924436e+01
  -1.613837e+00   2.824620e+01
   3.834408e+01  -2.698688e+01
  -3.274419e+01   8.598843e+00
   3.802826e+01  -2.970875e+00
   8.808610e+00   6.175653e+00
   3.621630e+00   7.579736e+01
  -2.250642e+01   1.160539e+01
   3.477918e+01  -1.903627e+01
  -6.834634e+00  -2.893462e+01
   1.520681e+01   8.327088e+00
  -5.691237e+01   2.558638e+01
  -1.024981e+01  -5.505399e+00
   1.625873e+00   4.004563e+01
  -3.377679e+01  -2.451490e+00
  -5.252710e+01   7.066601e+01
  -2.972960e+00  -6.187974e+00
  -3.161521e+01  -1.727782e+01
  -1.338269e+01  -2.671304e+01
   4.574210e+01  -1.268448e+01
   2.164190e+01   3.215154e+01
   9.757996e+00   1.600812e+01
   1.298794e+01  -4.218863e+01
  -2.176996e+01   3.258139e+01
  -4.928798e+00  -6.160383e+00
  -5.709738e+01   5.369929e+01
   1.325383e+01   9.214003e+00
   1.930713e+01  -2.747312e+01
   3.011806e+00  -5.756349e-01
  -4.266162e+00   3.777264e+01
  -7.006405e+00  -3.856998e+00
   3.241283e+01  -3.095415e+01
   3.697195e+01  -4.624171e+01
   1.921258e+01   3.975137e+00
  -4.551743e+01   6.169028e+00
  -3.516754e+01  -6.133171e+01
  -9.512729e+00   1.428424e+01
   1.844721e+01  -4.115702e+00
  -3.656545e+01  -2.304056e+01
  -5.827275e-01   1.375776e+01
  -3.387403e+01  -1.730121e+01
  -6.346468e+01  -2.806710e+01
  -1.880235e+01  -6.286549e+01
  -5.014149e+01  -4.142533e+00
   7.090842e+01   9.570193e+00
  -2.848564e+01  -1.506039e+01
   2.458112e+01  -3.703678e-01
   3.202499e-01  -6.049181e+01
  -1.879280e+01   4.246061e+01
   3.758035e+00   1.852594e+01
   4.519859e+01   4.387600e+01
  -4.122719e+00  -3.122865e+01
   2.041707e+01  -3.020151e+01
   1.015850e+01   1.598442e+00
  -3.720094e+01  -4.941239e+01
   4.776368e+01  -5.118079e+01
  -2.470760e+00   2.561875e+01
  -1.550150e+01   2.756537e+01
  -1.171856e+01  -7.914686e-01
   2.286681e+00  -4.752968e+01
  -1.134193e+01  -5.117068e+01
  -2.300533e+00   9.858524e+00
  -6.806475e+01  -1.760059e+01
   1.351603e+01   3.539205e+01
  -2.149385e+01  -2.382356e+01
  -7.689868e+00  -2.940254e+01
  -5.709349e+00   3.712760e+01
  -1.782446e+01   2.894662e+01
   3.832458e+01  -1.550040e+01
   1.220080e+01  -3.636389e+01
   2.010143e+01  -5.118596e+01
  -1.579961e+01  -2.710705e+01
   1.356864e+01  -6.556713e+01
  -1.708628e+00  -3.751338e+00
   1.893945e+01  -1.711345e+01
  -1.914429e+01  -2.424034e+01
   1.719676e+01  -2.843428e+01
  -4.028118e+01  -2.300293e+00
   1.056958e+01   3.090078e+00
  -5.433477e+00   1.045481e+01
  -4.499770e+01   3.999359e+01
   2.156792e+01   6.834692e+01
   4.501998e+01   3.707908e+01
  -2.455940e+00   9.211375e+00
   3.116172e+01  -4.821617e+01
  -7.485731e+01   4.714610e+00
   1.321741e+01  -1.113591e+01
   4.713800e+01  -8.676048e+00
  -5.829318e+00  -2.512061e+01
   1.852023e+01   6.368427e+01
  -9.756886e+00  -3.441939e+01
   2.479106e+00   1.505046e+01
  -1.429661e+01   1.177093e+01
   2.854603e+00   1.976946e+01
  -1.231551e+01   4.302529e+01
  -9.964643e+00   2.418313e+01
  -9.169955e+00   4.369810e+01
  -1.970113e+01  -3.198428e+01
   4.501388e+01  -9.434817e+00
  -2.467247e+01   1.331731e+00
  -2.954665e+01   2.939683e+01
   1.739010e+01   3.340123e+01
  -8.125506e+00   2.692058e+01
   2.404791e+01  -3.246241e+01
  -6.724684e+01  -2.571110e+01
   2.391843e+01  -5.743783e+00
  -1.117520e+01   3.532164e+01
   1.114437e+01  -4.852791e+01
  -4.536685e+01  -3.558917e+01
   3.223732e+01   1.906443e+01
  -5.952504e+01   1.157034e+01
   6.008334e+00   9.491299e+00
  -3.194944e+01  -4.106080e+01
  -2.914289e+01  -2.956046e+01
  -4.487020e+00  -1.298447e+01
   5.174257e+00   8.679143e+01
  -4.436458e+01  -7.547201e-01
   7.035568e+01   1.725379e+01
   3.411787e+01  -1.318942e+01
   4.682208e+01  -9.612080e+00
  -6.501425e+01   2.137983e+01
  -2.142223e+01  -2.166268e+01
   3.986124e+01   2.119557e+00
   3.241001e+01   5.377321e+01
  -1.956247e+01   3.892456e+01
  -1.202221e+01   4.051062e+01
   5.924803e+01   4.017942e+00
  -3.453083e+01   2.291951e+01
   5.416351e+00  -4.257150e+01
   3.872813e+01   1.710490e+01
  -8.324374e+01   2.468069e+00
  -1.743873e+01  -2.978621e+01
   7.653929e+00   3.021051e+01
  -3.350796e+01   1.718132e+01
   2.204543e+00   6.731535e+00
   3.049063e+01  -1.068748e+01
   1.110469e+01  -1.629001e+01
   5.080117e+01   3.317176e+00
  -5.311335e+01   3.833688e+01
   2.450496e+00   1.143455e+01
   3.917260e+00  -3.143990e+01
   2.184434e+01   1.301726e+01
  -1.732540e+01  -1.383902e+01
  -1.585149e+01  -2.422227e+01
  -6.779419e+01   1.598565e+01
   2.385295e+01  -1.013656e+01
  -1.993781e+01   2.426683e+01
   5.220754e+01   2.120665e+01
   1.399320e+01   5.346245e+01
   2.951086e+00   2.187659e+01
   1.398215e+01  -1.187029e+01
  -3.005604e+00  -4.759360e+01
   1.525510e+01   1.744667e+01
  -1.113108e+01   2.347429e+01
  -4.426698e+01  -6.692376e+00
   1.436930e+01   1.187087e+01
