
 $NMID
 id='ANONYMOUS ', fmtdat='(2E16.6)'
 volume=1.0
 tramp=1.0
 $END
  -2.660808e+01   9.500080e+01
  -7.883339e+01   5.172776e+01
  -8.698619e+01  -3.023000e+01
  -4.009179e+01  -1.260643e+02
   4.441179e+01  -3.286261e+01
   4.143330e+01  -2.868615e+01
  -3.653201e+01   1.215474e+01
  -3.328798e+01  -8.969220e+00
  -3.423026e+01  -3.149070e+01
   4.346409e+01  -1.912052e+01
   2.789425e+01  -3.352013e+01
   4.601983e+01   2.719652e+01
  -9.253600e+00   9.497571e+00
   4.979454e+01  -1.972592e+00
  -4.898881e+01  -5.832879e-01
   1.255780e+01   5.344118e+01
  -1.618149e+01  -4.770608e+01
   1.280161e+01   1.007987e+01
  -9.612130e+00   1.772433e+01
  -1.403775e+01  -5.286655e+00
   3.262605e+01  -6.321102e+00
   4.946132e+01  -2.765637e+01
   1.236598e+01  -1.317825e+01
  -3.460611e+01  -4.815973e+01
  -1.917400e+01  -3.124573e+01
  -5.272751e+00   2.269129e+01
  -1.580588e+01   2.185603e+01
   1.839028e+01  -6.093779e+01
   5.179544e+00   1.312684e+01
   7.518278e+01  -3.989572e+01
   1.379435e+01   3.026648e+01
  -1.509964e+01  -4.924683e+01
   4.750726e+01   3.628485e+01
   7.612506e+00  -2.577712e+01
   1.522649e+00  -1.885911e+00
   9.420864e+00  -1.717260e+01
   4.288227e+01  -3.224726e+01
  -3.928714e+01   2.225764e+01
   3.275508e+01  -7.044036e+00
  -9.396008e+01   4.122074e+01
   1.384954e+01   4.119085e+01
  -3.201588e+01   8.819435e+00
   3.965393e+00   2.916485e+01
   2.256150e+01   3.661980e+01
  -3.002642e+01   2.147680e+01
   4.294190e+01  -3.845272e+01
   1.440036e+01  -2.413150e-02
   3.855844e+01  -4.099214e+01
  -2.659726e+01  -5.228569e+00
  -5.694174e+00  -1.667966e+01
  -8.078641e+01   2.331221e+01
  -4.947032e+01   1.173013e+01
   1.634056e+01   5.512540e+00
  -4.193443e+01  -4.105625e+00
   1.850534e+01   3.042916e+01
  -3.149775e+01   3.897068e+01
   4.553205e+00  -4.813454e+01
   7.948869e+01  -6.086666e+01
   7.340264e+00   9.527877e+00
   1.153471e+00   5.189223e+01
   6.225246e+01   1.061979e+02
  -6.729562e+01   1.675904e+01
   2.582859e+01   1.960267e+01
  -9.192423e+00   3.098718e+01
  -1.070109e+01   4.892710e+01
  -6.211260e+01  -1.424016e+01
   1.265708e+01   3.227565e+01
   4.874706e+01  -3.028264e+01
   2.282595e+01   4.815662e+01
   7.106852e+00  -4.990838e+00
   1.438261e+01  -4.787116e+01
  -2.030225e+01  -2.005586e+01
  -1.279776e+01  -4.416722e+00
   5.222484e+01   5.560942e+01
  -2.165158e+01   1.240640e+01
   1.538644e+01   1.076178e+01
  -6.398772e+01   8.380117e+00
   8.212706e+00   4.005501e+01
  -4.319848e+01  -3.787560e+01
   2.909748e+01   3.641494e+01
   9.890316e+00   3.010746e+01
  -2.338263e+01  -6.438861e+00
   2.418003e+00   4.450844e+00
  -3.525696e+00   1.548992e+01
  -1.717581e+01   1.444544e+01
   3.175472e+01   1.363103e+01
  -4.913910e+01  -3.311746e+01
  -7.756041e+00  -7.406617e+01
  -4.118725e+01  -1.202893e+01
  -6.711358e+00  -9.161871e+00
   1.871580e+01  -2.360141e+00
   1.536813e+01  -5.304267e+01
  -5.339574e+01  -7.714066e+00
  -1.196257e+01   4.192752e+00
  -1.546033e+01  -3.530392e+01
  -1.488110e+01  -5.326858e+01
   1.158856e+01  -2.752172e+01
   9.691946e+01   1.348286e+01
   7.092904e+01   1.298993e+00
   1.967568e+00  -6.194212e+01
  -1.114213e+01  -4.879493e+00
   8.335960e+01  -5.366977e+01
  -2.280358e+01   9.347283e+00
  -1.190890e+01   4.829622e+01
   9.564922e+00  -5.011001e+01
  -1.646642e+01   4.182593e+01
  -8.372002e+00  -3.093646e+01
   2.818832e+00  -8.498407e+00
  -2.624496e+01   1.758578e+01
   5.391211e+01   9.790344e+00
  -4.877548e+00  -1.543662e+01
   6.183903e+00  -1.050622e+01
  -5.220958e+00  -2.589448e+01
   1.607556e+01   1.320148e+01
  -3.482967e+00  -4.233486e+01
   2.959259e+01  -2.169343e+01
   4.320552e+00  -2.297184e+01
  -3.759621e+01  -1.078799e+01
   1.429217e+01  -5.758508e+01
  -4.627311e+01   2.403660e+01
   2.027710e+01  -5.308728e+01
   9.696690e+00   3.830750e+01
   2.625017e+01   7.472480e+01
  -1.521882e+01   1.742384e+01
  -5.697653e+01  -2.025970e+01
  -5.323864e+01   4.164400e+01
  -4.423506e+01  -5.755518e+01
  -5.591366e+01  -1.434082e+01
  -6.947559e+01  -4.177090e+01
  -3.147300e+01   1.242884e+01
   1.039868e+01  -2.638438e+01
   4.368977e+01   2.459704e+01
   2.457272e+00   3.622990e+01
  -4.458624e+01   3.789575e+00
  -1.922360e+01  -2.518943e+01
   1.087689e+02   5.304407e+01
  -2.071067e+01  -2.317276e+01
   8.035919e+00   1.616463e+01
   3.706206e+01   3.446314e+01
   1.860224e+01   1.653948e+01
   2.599886e+01   1.630922e+01
   3.547979e+01   9.624587e+00
   7.412027e+00   3.806829e+01
  -2.627786e+01   7.752670e+00
   2.227721e+01   3.044730e+00
   2.544239e+01   2.699726e+01
  -6.646618e+01  -2.553478e+01
   3.598283e+00   5.873037e+00
   5.488468e+01   3.599439e+01
  -2.104458e+01  -1.443810e+01
  -8.936388e+00   3.674647e+01
  -5.837093e+01   3.374269e+00
   1.476265e+01  -3.471947e+01
  -3.435226e+01   6.103766e+01
  -2.263551e+00  -1.766852e+01
  -5.803250e+01  -3.293691e+01
   4.498813e+01   1.741028e+00
  -5.361386e+01  -2.027624e+01
   1.287463e+00  -4.784827e+01
   3.158039e+01  -3.924664e+00
  -2.704749e+01   2.951067e+00
  -1.157025e+01  -4.626140e+01
  -6.080096e+00  -5.097042e+01
   6.853753e+01  -4.853317e+00
  -3.406001e+01  -5.803046e+01
   2.083288e+00   4.672818e+01
  -3.566455e+01   2.149161e+01
  -1.462211e+01  -2.329587e+01
   9.696988e+00   4.401651e+01
  -4.454815e+01  -1.431646e+01
  -7.612437e+00  -1.760144e+01
   4.603356e+01  -3.455703e+01
  -3.504299e+00  -2.197147e+01
  -3.762923e-01   8.920943e+00
   1.902810e+01   8.841396e+00
   1.810246e+00  -1.494367e+01
   3.443706e+01  -4.308373e+00
  -9.877185e+00  -8.931304e+00
  -2.661518e+01  -2.070786e+01
  -3.387533e+01  -8.488710e+00
  -4.449077e+00  -1.536450e+01
   1.105286e+01   2.722142e+01
   4.375555e+01  -3.527413e+01
  -7.000945e+00  -4.003161e+01
   4.920786e+00  -4.694050e+01
   1.863850e+01   2.325314e+00
   1.976343e+01   1.653316e+01
   1.256625e+01   4.216824e+00
   2.805053e+01   6.247247e+01
   1.750246e+01   3.733684e+01
   1.891409e+01  -2.957836e+01
  -4.653394e+01   2.917567e+01
  -1.715111e+01  -4.385541e+01
   3.162134e+01   7.966185e+00
  -2.246141e+01  -1.078960e+01
   1.842299e+01   2.572818e+01
  -1.492517e+01  -1.245327e+01
  -1.647616e+01   2.319642e+01
  -1.467417e+01  -2.252468e+01
  -4.655509e+01   1.929285e+01
   1.586431e+01   1.972964e+01
   1.629331e+00   4.246556e+00
  -4.849832e+01   2.844546e+01
   1.432391e+01  -6.253989e+01
   1.742381e+01   3.675836e+01
   4.748501e+01   3.154269e+01
  -1.305062e+01   3.931424e+01
   2.456847e+01   2.675574e+01
   7.363805e+01   6.186556e+00
  -4.412380e+01  -4.591387e+01
  -7.314512e+00   3.141421e+00
  -2.990355e+01   4.264508e+01
   1.000272e+01   1.232123e+01
  -4.391510e+01  -5.385010e+01
  -2.135408e+01  -5.433735e+01
  -7.320369e+00  -1.074299e+01
  -4.498142e+00   4.778880e+01
   2.687180e+01   2.530887e+01
  -2.394221e+01   6.641031e+00
  -7.166542e+01   7.670330e+00
   3.069063e+01   1.920043e+01
   9.887257e+00   3.040799e+01
  -5.032688e+00   2.179947e+01
  -4.052514e+01  -1.633166e+01
  -3.284764e+01   2.364422e+00
  -2.552138e+01  -5.134460e+00
   1.807491e+01  -1.262067e+01
  -3.356234e+01   7.760815e-01
  -2.702610e+01   8.207660e+00
  -9.554436e+00  -1.404819e+01
  -5.082510e+01   3.024471e+01
   1.221180e+01  -2.158552e+01
   1.484308e+01  -3.080656e+01
   3.559793e+01   3.650616e+01
   1.326880e+01   8.134091e+01
   3.283377e+00   2.768241e+01
   1.042802e+01  -6.509239e+01
  -2.025005e+01   2.114656e+01
   1.572707e+01   1.265333e+01
   4.499825e+01  -2.174760e+01
  -3.883603e+00  -4.773400e+01
  -1.885417e+01  -3.421909e+01
   4.325666e+01   1.763153e+01
   3.646422e+01  -5.766029e-01
  -3.733481e+01  -2.696436e+01
  -1.973125e+01  -2.119071e+01
  -9.279419e+00   4.257459e+00
  -1.882782e+01   1.907383e+01
  -4.898644e+01   2.887158e+01
   9.781575e-01   5.844392e+01
   3.916128e+00  -2.336714e+01
   4.481194e+01   6.268619e+00
   3.219574e+01   2.377277e+01
   4.733892e+00   2.878078e+01
  -2.996330e+01  -1.759615e+01
   5.971083e+01  -9.648066e+00
   1.790551e+01  -5.354219e+01
   4.818483e+01  -4.392228e+01
  -1.896932e+01   8.161817e-01
  -3.557518e+01   2.275513e+01
  -1.270667e+01  -5.329256e+01
  -2.142149e+01  -4.604197e+01
   1.610588e+00   1.954163e+01
  -1.890682e+01   1.877740e+01
  -1.323595e+01  -1.144714e+01
   1.012621e+01  -3.227726e+01
   4.017910e+01   3.719051e+01
   3.632918e+01  -1.631767e+01
   1.179951e+01  -3.949311e+01
  -6.618039e+00  -1.976880e+01
  -4.245719e+01  -4.206817e+01
  -2.768035e+01  -3.574585e+01
  -1.984463e+01   4.648030e+01
   9.057171e+01   2.410817e+01
   3.251222e+01  -1.696458e+01
  -6.084860e+01   2.266584e+01
   2.817287e+01  -2.015781e+01
  -4.838675e+01  -6.200908e+01
   2.827513e+01   4.098836e+01
  -6.225277e+01   5.656867e+01
  -1.823730e+01   4.675123e+01
  -2.586082e+01   1.551597e+01
  -1.092654e+01   8.075942e+00
  -1.215728e+01  -1.843435e+01
   3.737366e+00  -5.525709e+01
   1.076114e+02   2.449742e+01
  -3.321807e+01  -2.051847e+01
  -4.343694e+01  -1.163120e+01
  -5.117598e+01   2.532270e+01
   2.015236e+01   3.522643e+01
   3.273414e+00   4.577081e+01
   4.642960e+00  -4.064188e+01
  -1.762746e+01   2.699804e+01
  -1.264638e+01   2.682331e+01
  -2.331499e+01  -4.093149e+01
  -1.312592e+01  -1.986774e+01
   3.152883e+01  -2.665833e+01
  -6.654359e+01  -5.087081e+00
   6.916502e+01   1.442807e+01
  -2.016559e+01  -1.659205e+01
   4.291303e+01   1.953392e+01
  -3.985354e+01  -9.693056e+00
  -9.485156e+00  -2.785496e+01
  -1.954668e+01  -4.006998e+01
  -7.411680e+00  -1.013078e+01
   1.355175e+00  -9.130662e+00
  -2.952624e+01   2.064059e+01
   1.997803e+01   3.221876e+01
  -1.021432e+01   1.024775e+01
   8.810343e+00   1.746779e+01
   1.032111e+01   5.465759e+01
  -1.415653e+01  -1.587229e+01
  -3.164078e+00   6.215189e+01
  -1.862657e+01   2.673675e+01
  -3.063432e+00  -6.962395e+00
   7.410847e+00  -7.170947e+00
   2.876080e+01  -1.189689e+01
   2.276558e+00  -3.249294e+01
   2.718608e+01   2.386612e+01
   3.289045e+01   5.439729e+00
