
 $NMID
 id='ANONYMOUS ', fmtdat='(2E16.6)'
 volume=1.0
 tramp=1.0
 $END
  -4.651017e+03   2.028434e+01
  -2.618866e+03  -2.936070e+03
   9.677160e+02  -2.872771e+03
   2.340334e+03  -7.807278e+02
   9.623621e+02   8.891517e+02
  -8.370931e+02   6.405272e+02
  -9.859235e+02  -4.896162e+02
   1.262329e+02  -1.197325e+03
   8.902075e+02  -7.972788e+02
   9.958276e+02   2.127817e+02
   4.701683e+02   9.962722e+02
  -3.205595e+02   9.368898e+02
  -7.070046e+02   1.183230e+02
  -3.776474e+02  -8.006304e+02
   3.434129e+02  -8.109132e+02
   6.716169e+02   4.997980e+01
   2.970004e+02   7.582173e+02
  -3.254292e+02   6.310138e+02
  -6.092098e+02   5.364854e+01
  -3.932710e+02  -3.607512e+02
   5.889863e+01  -4.708153e+02
   3.429390e+02  -2.564305e+02
   2.478355e+02  -1.010540e+00
  -1.321495e+02   1.226433e+02
  -4.381860e+02  -4.580503e+01
  -1.848341e+02  -5.094543e+02
   4.809573e+02  -4.636723e+02
   9.340341e+02   7.946907e+01
   4.757943e+02   6.003290e+02
  -4.235975e+02   5.061359e+02
  -7.868878e+02  -6.034219e+01
  -3.621203e+02  -5.664158e+02
   2.721151e+02  -5.520226e+02
   5.454683e+02  -2.187176e+02
   4.336523e+02   2.204848e+02
   9.381859e+01   5.291747e+02
  -2.627488e+02   3.153774e+02
  -2.429528e+02  -2.605807e+02
   2.350130e+02  -4.966377e+02
   5.140789e+02  -8.468623e+00
   3.515592e+02   7.104250e+02
  -3.172153e+02   7.620464e+02
  -6.820044e+02   3.355833e+01
  -2.877348e+02  -6.132814e+02
   3.392319e+02  -3.394946e+02
   4.417853e+02   3.184716e+02
  -4.995920e+01   5.913581e+02
  -5.753615e+02   1.790804e+02
  -6.003562e+02  -4.336348e+02
  -1.073078e+02  -5.881672e+02
   4.360470e+02  -3.286297e+02
   7.152439e+02   7.468357e+01
   3.367766e+02   3.750280e+02
  -2.151239e+02   4.228869e+02
  -4.764766e+02  -2.465820e+01
  -2.388421e+02  -2.245340e+02
   1.528247e+02  -1.406249e+02
   1.293322e+02   2.311752e+02
  -2.137476e+02   2.066089e+02
  -3.693955e+02  -5.137840e+01
  -1.239036e+02  -3.054999e+02
   2.510146e+02  -2.453238e+02
   3.368081e+02  -4.224217e+01
   1.421335e+02   3.906409e+01
  -5.117646e+01   1.750112e+02
  -2.250862e+02   3.662146e+02
  -3.720594e+02   2.299829e+02
  -2.695081e+02  -1.602199e+02
  -5.399200e+01  -4.470816e+02
   1.192899e+02  -3.857011e+02
   1.457688e+02  -8.350084e+01
   1.923318e+01   7.107348e+01
   1.388382e+01  -7.740920e+01
   1.817360e+02  -1.818306e+02
   2.828424e+02   6.197344e+01
   1.467616e+02   3.117792e+02
  -1.200023e+01   2.437239e+02
  -2.866778e+02   2.638714e+01
  -1.914304e+02  -2.149849e+02
  -1.487506e+00  -2.939175e+02
   2.827532e+02  -1.243216e+02
   3.544236e+02   1.915121e+02
   1.462840e+02   3.368334e+02
  -1.086739e+02   3.037198e+02
  -2.329452e+02   1.142935e+02
  -1.569121e+02  -5.723757e+00
  -1.451535e+02   2.853677e+01
  -2.527331e+02   2.614389e+01
  -4.841139e+02  -6.592425e+01
  -2.622834e+02  -2.459730e+02
   2.501259e+01  -4.978616e+02
   3.565637e+02  -4.244785e+02
   4.984433e+02  -1.834878e+02
   3.670711e+02   8.664736e+01
   9.793035e+01   2.892452e+02
  -1.367070e+02   2.666681e+02
  -7.060454e+01   4.595039e+01
   7.923254e+01  -1.223408e+02
   1.685984e+02  -7.134821e+01
   6.946998e+01   1.998859e+02
  -1.769669e+02   2.011724e+02
  -2.111129e+02  -3.430889e+01
   2.854874e+01  -2.078093e+02
   1.659619e+02  -2.502784e+01
   1.798444e+02   2.566013e+02
   1.410452e+01   2.963553e+02
  -2.141071e+02   2.059853e+02
  -2.940197e+02  -8.479413e+01
  -2.496885e+02  -2.546716e+02
  -1.019446e+02  -1.781283e+02
   1.451280e+02  -1.311042e+02
   1.378170e+02   8.157887e+00
   7.334013e+01   5.657208e+01
  -8.297820e+01  -5.576510e+01
  -3.715717e+01  -1.846155e+02
   1.708367e+02  -9.652771e+01
   1.476417e+02   5.707852e+00
   1.042116e+02   7.441541e+01
  -4.353924e+01   2.650756e+01
  -7.827889e+01  -9.285513e+01
   1.258346e+02  -1.425818e+02
   2.744349e+02  -6.961798e+00
   2.322776e+02   1.315064e+02
   1.167420e+02   2.436732e+02
  -1.772047e+02   2.649337e+02
  -2.642740e+02   1.330314e+02
  -1.433744e+02  -6.261743e+01
   3.951325e+00  -1.318192e+02
   6.307202e+01  -3.179749e+01
   2.669752e+01   1.134302e+02
  -2.312525e+02   3.066052e+01
  -2.558485e+02  -1.042843e+02
  -5.168858e+01  -2.508308e+02
   8.736794e+01  -2.155060e+02
   1.545154e+02  -7.224514e+01
   6.541390e+01   3.594387e+01
  -2.627837e+00  -1.352035e+01
  -1.884787e+01  -4.159341e+01
   8.534741e+01  -1.104061e+02
   2.257255e+02  -3.089731e+01
   2.088727e+02   1.336397e+02
   6.545308e+01   1.954907e+02
  -1.698983e+02   1.619356e+02
  -2.099878e+02  -6.399613e+01
  -5.439440e+01  -1.125604e+02
   4.903273e+01  -1.055722e+02
   7.490870e+01  -3.101371e+01
  -5.048657e+01   5.947341e+01
  -1.393804e+01   1.872390e+01
   1.457425e+01   2.037602e+01
   2.820294e+01  -1.487969e-01
   6.373902e+01   5.360986e+01
   1.667038e+01   2.044243e+02
  -1.219741e+02   1.839033e+02
  -2.003321e+02   8.739200e+01
  -2.018964e+02  -1.194972e+02
  -1.500877e+01  -2.689342e+02
   7.772913e+01  -1.723460e+02
   1.191946e+02   1.703447e+01
   7.339776e+01   9.575383e+01
   6.469935e+01   1.943829e+01
   8.638264e+01   8.088192e+00
   5.586335e+01   4.252147e+01
   1.655120e+01   3.208739e+01
  -1.952265e+01   1.142630e+02
  -5.098869e+01   2.168809e+01
  -1.253060e+02  -2.874808e+01
  -1.195786e+01  -9.807955e+01
   1.215025e+02  -6.201978e+01
   2.139434e+02   1.037039e+01
   9.983688e+01   2.135241e+02
  -1.110628e+02   2.398198e+02
  -2.789859e+02   3.247399e+01
  -2.799841e+02  -4.386039e+01
  -6.948912e+01  -1.919315e+02
   6.654947e+00  -9.704772e+01
   9.944190e+01  -1.040705e+02
   1.238321e+02  -5.137571e+01
   5.359153e+01  -5.256865e+01
   8.245985e+01  -8.223059e+01
   1.367196e+02  -8.701015e-01
   1.078183e+02   1.326245e+02
   2.020528e+01   2.341050e+02
  -9.593835e+01   1.732117e+02
  -2.056012e+02   4.722637e+01
  -1.272301e+02  -8.584625e+01
   4.313481e+00  -2.053732e+02
   6.346348e+01  -1.034580e+02
   6.710349e+01   1.855626e+01
   5.896473e+01  -4.600445e+01
  -4.413593e+01   7.737961e+00
   7.552274e+01   5.880909e+01
  -1.196815e+01   3.024665e+01
   6.476480e+01   1.362646e+01
  -2.861078e+01  -2.247816e+01
  -2.220319e+02  -2.241536e+01
  -1.585731e+02  -6.292213e+01
  -5.740198e+01  -5.327852e+01
   1.139800e+02  -5.462860e+01
   1.579191e+02   5.639225e+00
   2.012173e+01   5.960240e+01
  -4.102506e+01   2.555930e+01
  -1.019647e+02   2.089098e+00
  -1.801178e+00  -5.480992e+01
   9.590770e+01  -6.563187e+01
   3.587752e+01   2.290673e+01
  -1.540961e+00   5.352348e+01
   6.028568e+01   1.956408e+01
   5.888967e+01  -5.262864e-01
   7.306549e+01   1.055937e+01
   3.396382e+01   2.759552e+01
  -9.562099e+00   1.983400e+02
  -1.025682e+02   1.361320e+02
  -2.221850e+02  -1.544515e+00
  -1.171704e+02  -6.260762e+01
  -5.697444e+01  -1.104433e+02
   1.174887e+02  -3.368554e+01
   4.695349e+01   9.294059e+01
  -3.776799e+01   1.307817e+01
  -1.379076e+02  -4.578300e+01
  -7.118910e+01  -1.638135e+02
   6.139181e+01  -9.912051e+01
   2.082390e+02  -3.968753e+01
   1.865538e+02   1.821399e+01
   5.614665e+01   1.076708e+02
  -1.073778e+02   1.059233e+02
  -7.267314e+01   1.816662e+00
   1.129518e+01  -1.001047e+01
   7.782555e+01   3.408289e+01
   4.027040e+01   8.503023e+01
  -1.023386e+02   1.928738e+02
  -1.743702e+02   1.251298e+02
  -8.151147e+01  -4.921987e+01
  -9.282667e+00  -1.560613e+02
   6.091180e+01  -1.002283e+02
   8.208044e+01  -2.719227e+01
   5.589703e+01   9.489840e+01
  -5.328685e+01   4.509978e+01
   3.694428e+00   4.673442e+00
  -8.117666e+01  -4.378014e+01
  -6.790895e+01  -1.625318e+01
   3.137973e-01   8.220095e+01
  -1.667473e+01  -6.533596e+01
  -4.622410e+01  -1.076745e+02
  -5.580247e+01  -9.560767e+01
   1.814832e+00  -5.982070e+01
   1.618745e+02   4.765855e+01
   1.704934e+02   4.752003e+01
   5.734810e+01   5.377675e+01
  -8.950479e+01   6.664270e+01
  -6.786147e+01  -6.849855e+01
   3.092024e+00  -5.086354e+00
   5.624068e+01  -2.284038e+01
   2.055594e+01   3.184540e+01
  -1.295404e+01   9.128732e+00
   1.811436e+01  -1.149956e+00
   1.118336e+02  -1.073354e+01
   9.309401e+01   4.947797e+01
   3.852680e+01   6.744639e+01
  -1.054709e+02   4.404020e+01
  -1.922209e+02   8.900438e+01
  -1.522204e+02  -1.358281e+02
  -1.763142e+01  -1.533857e+02
   7.184435e+01  -1.850327e+02
   6.497391e+01  -5.533476e+01
   6.958144e+00   2.649437e+01
   2.134494e+01   2.611775e+01
  -3.152586e+01  -2.738309e+01
  -1.787073e+01  -4.179118e+01
   8.210402e+00   3.238067e+01
   3.450898e+01   5.564770e+01
  -4.751155e+01   5.776524e+01
  -6.192222e+01  -4.835717e+01
  -3.428734e+01  -1.488054e+02
  -5.420841e+00  -1.715378e+02
   9.175962e+01  -1.532696e+01
   7.796942e+01   2.452323e+01
   3.746196e+01   7.493279e+01
  -8.308500e+01   2.358773e+01
  -1.470470e+02  -2.651970e+01
  -4.516487e+01  -2.180412e+01
   4.778280e+01  -8.849262e+01
   4.632076e+01  -3.234516e+01
  -5.084342e+01   5.769939e+01
  -5.742382e+01  -7.427509e+01
   9.273334e+00  -1.501529e+01
   8.808353e+01  -7.748756e+01
   1.266879e+02  -6.916328e+01
   2.873225e+01   6.567755e+00
  -6.415908e+01   5.366958e+01
  -1.220919e+01   5.107905e+01
  -3.629011e+01   1.367529e+01
   6.483280e+01  -2.513362e+01
  -4.207769e+01  -4.907024e+01
  -1.423075e+01   1.006909e+01
  -2.252157e+01   1.165696e+02
  -6.311461e+01   5.162156e+01
  -5.490059e+01  -9.574635e+00
  -6.533378e+01  -1.487082e+00
  -2.569225e+01   1.033713e+01
   3.688122e+01   3.845909e+01
   3.067087e+01   3.179334e+01
   4.454278e+01  -4.525544e+01
  -1.897515e+01  -2.334094e+01
   6.147243e+01   1.012820e+01
   1.270135e+01   6.994106e+01
  -2.897061e+01   9.350922e+01
  -3.840210e+01   1.183037e+01
  -6.360309e+01  -3.840792e+01
  -4.826191e+01  -1.332017e+01
   1.880009e+00  -6.035413e+01
   5.283027e+01   3.748125e+01
   1.306566e+00   2.286924e+00
  -2.385556e+01   3.237271e+01
  -2.847939e+01  -4.618110e-01
  -6.380340e+01   1.282659e+01
   2.398144e+01   9.631743e+01
   5.650062e+01   1.875846e+01
   1.080350e+01  -2.532722e+01
  -6.325682e+01  -4.179392e+01
