
 $NMID
 id='ANONYMOUS ', fmtdat='(2E16.6)'
 volume=1.0
 tramp=1.0
 $END
  -2.646092e+03  -8.068574e+01
  -1.694440e+03  -1.331196e+03
  -4.934664e+01  -1.660935e+03
   9.330816e+02  -1.093289e+03
   7.795777e+02  -2.357006e+02
   1.181842e+02   7.940568e+01
  -3.154890e+02  -7.005315e+01
  -6.122434e+01  -3.603076e+02
   2.777103e+02  -4.860824e+02
   5.264520e+02  -1.054041e+02
   4.010953e+02   4.002881e+02
   8.690909e+01   5.378142e+02
  -1.841995e+02   2.015617e+02
  -1.831771e+02  -3.101781e+02
   1.267562e+02  -4.244294e+02
   3.526614e+02  -6.316534e+01
   2.175049e+02   3.864943e+02
  -1.228106e+02   5.499507e+02
  -3.562466e+02   2.388166e+02
  -4.011301e+02  -1.035256e+02
  -1.348437e+02  -2.609178e+02
   1.167793e+02  -2.230597e+02
  -2.449681e+01  -5.901454e+01
  -2.050105e+02  -1.019264e+02
  -2.074455e+02  -2.261382e+02
   3.160924e+01  -2.729769e+02
   3.486539e+02  -1.099849e+02
   4.030314e+02   1.815812e+02
   6.618038e+01   2.848871e+02
  -2.823677e+02   1.111919e+02
  -4.100639e+02  -1.350805e+02
  -6.834235e+01  -2.850849e+02
   2.168727e+02  -2.568738e+02
   3.504195e+02  -5.759149e+01
   1.890303e+02   1.453008e+02
   9.396813e+01   2.950001e+02
  -2.641075e+01   9.778150e+01
   5.812422e+01  -1.379718e+02
   1.263808e+02  -7.115651e+01
   1.643394e+02   1.632239e+02
   4.367078e+01   4.237594e+02
  -2.309340e+02   3.739676e+02
  -2.522675e+02  -1.629164e+01
  -9.662478e+01  -1.755181e+02
   9.967170e+01  -8.123390e+01
   1.255629e+02   2.713706e+02
  -8.099019e+01   3.330758e+02
  -3.233014e+02   7.946030e+01
  -3.871508e+02  -3.245888e+02
  -1.024383e+02  -4.587247e+02
   2.870124e+02  -2.462931e+02
   4.624197e+02   5.847890e+01
   2.909431e+02   1.855756e+02
  -4.222873e+01   1.791067e+02
  -1.794331e+02   8.454927e+01
  -1.599093e+02  -1.816570e+01
  -2.233567e+01  -7.984491e+00
   2.686724e+01  -1.486252e+01
  -8.385922e+01   3.628144e+01
  -1.155631e+02  -3.273062e+01
  -4.435053e+01  -1.625004e+02
   1.093539e+02  -2.138310e+02
   3.083620e+02  -1.245102e+02
   2.449734e+02   7.856464e+01
  -1.040718e+01   3.114198e+02
  -2.475392e+02   3.643638e+02
  -3.160239e+02   1.497738e+02
  -2.106746e+02  -1.330173e+02
  -3.013755e+00  -3.453314e+02
   4.679588e+01  -2.752451e+02
  -5.887627e+01  -1.211367e+02
  -1.427467e+01  -1.072732e+02
   1.608437e+02  -8.713997e+01
   2.039459e+02  -3.487561e+00
   2.271037e+02   7.002323e+01
   9.189939e+01   1.855736e+02
  -7.921984e+01   1.760740e+02
  -1.478337e+02  -7.870491e+01
  -9.400080e+01  -1.799079e+02
   7.308807e+01  -2.603156e+02
   2.296426e+02  -6.532287e+01
   2.641969e+02   1.312708e+02
   1.411075e+02   2.092619e+02
   1.555629e+01   2.343495e+02
  -7.604624e+01   1.724313e+02
  -8.067989e+01   6.645006e+01
  -8.399254e+01   8.741116e+01
  -3.071052e+02   2.544495e+01
  -3.548267e+02  -1.261062e+02
  -2.685261e+02  -2.789008e+02
   3.122373e+01  -3.359050e+02
   3.477494e+02  -2.903840e+02
   4.276986e+02  -1.140325e+02
   2.495567e+02   1.518880e+02
  -2.008674e+01   1.852033e+02
  -7.477908e+01   1.825070e+02
   3.199364e+01   1.901778e+01
   4.488804e+01   7.817836e-01
   7.033221e+01   7.099759e+01
  -6.712091e-02   1.175485e+02
  -1.307473e+02   1.370527e+02
  -7.743416e+01  -6.521904e+01
  -1.894617e+00  -1.154124e+02
   1.250397e+02  -3.589071e+01
   1.729011e+02   2.197109e+02
  -5.494746e+01   3.249414e+02
  -1.967855e+02   2.235547e+02
  -3.535006e+02  -4.323201e+01
  -2.313187e+02  -2.588466e+02
  -5.029586e+01  -2.289341e+02
   1.038318e+02  -3.718453e+01
   1.484132e+02   2.704430e+01
   1.866264e+01   4.831537e+00
  -7.470571e+01   2.004132e+00
   5.833138e+01  -1.043343e+02
   1.504984e+02  -5.706898e+01
   1.571645e+02   2.235432e+01
   4.008810e+01   1.569317e+00
  -6.168632e+01  -8.335448e+01
  -1.545133e+01  -9.045783e+01
   1.223197e+02  -6.470165e+01
   2.952560e+02  -4.146372e+00
   1.729136e+02   1.564786e+02
   2.721804e+01   2.530632e+02
  -2.221941e+02   2.285504e+02
  -2.311997e+02   1.056203e+02
  -6.633194e+01  -3.209599e+01
   6.927479e+00   1.667822e+01
   3.202751e+01   3.031396e+01
  -4.030190e+01   8.788971e+01
  -1.243020e+02  -3.613820e+01
  -1.524705e+02  -1.152689e+02
  -4.344142e+01  -1.790987e+02
   6.442867e+01  -1.172465e+02
   6.222175e+01   2.593695e+01
   3.937325e+01   4.772705e+01
  -4.340433e+01  -4.086301e+01
  -5.755503e+01  -1.047535e+02
   7.522345e+01  -1.368338e+02
   1.969209e+02   7.196477e+01
   1.728383e+02   1.343322e+02
  -2.187208e+01   1.890715e+02
  -1.401872e+02   9.295565e+01
  -1.572622e+02   4.590197e+01
  -2.963540e+01  -1.178710e+02
   6.170380e+01  -8.524881e+01
   9.539936e+01  -4.514818e+01
   3.879003e+01   1.736829e+01
  -9.443488e+01   9.326634e+00
   2.192594e+01  -6.638365e+01
   4.511832e+01  -7.139893e+00
   8.910115e+01   6.125214e+01
  -1.487291e+01   1.628334e+02
  -1.398999e+02   1.507465e+02
  -1.794478e+02   5.423934e+01
  -1.315893e+02  -8.817705e+01
   9.643796e+00  -2.147398e+02
   1.198688e+02  -1.280155e+02
   9.770464e+01  -3.142249e+01
   8.589284e+01   5.648334e+01
   3.802391e+01   2.680331e+01
   4.758472e+01  -2.869248e+01
   8.256342e+01  -4.099690e+01
   4.110036e+01   7.243937e+01
  -4.592067e+01   8.591580e+01
  -8.201672e+01   1.039382e+02
  -1.233680e+02  -7.801463e+01
   2.333898e+01  -6.877189e+01
   1.627980e+02  -8.892917e+01
   1.277535e+02   1.245372e+02
   7.989401e+01   2.148257e+02
  -1.144932e+02   2.036045e+02
  -2.622527e+02   8.659794e+01
  -2.135608e+02  -1.368814e+02
  -8.941845e+01  -1.586063e+02
  -2.965763e+01  -1.338095e+02
   8.689514e+01  -9.608176e+01
   4.759124e+01  -6.783609e+01
   8.810347e+00  -1.012562e+02
   9.970996e+01  -4.476601e+01
   1.221685e+02   6.294472e+00
   7.091944e+01   1.553202e+02
  -1.481076e+01   2.315076e+02
  -1.033357e+02   1.545422e+02
  -8.810554e+01  -4.772115e+01
  -6.445026e+01  -6.547378e+01
  -5.949476e+01  -1.417510e+02
   6.613696e+01  -8.299363e+01
   4.788302e+01   2.238083e+01
  -2.688395e+01   4.302738e+01
  -6.077378e+01   4.008828e+01
   1.645980e+01   1.981760e+01
   6.543875e+01  -8.266386e+01
   3.957435e+00   8.051139e+01
  -8.724215e+01  -3.375974e+00
  -2.350767e+02  -2.685828e+01
  -1.424839e+02  -8.663120e+01
  -3.208478e+01  -1.225755e+02
   1.458869e+02  -5.509789e+01
   1.370823e+02   1.184333e+01
   5.000012e+01   4.068848e+01
  -8.429259e+01   8.787123e+01
  -5.997995e+01   3.505122e-01
  -4.333436e+01  -9.076517e+01
   3.139125e+01  -9.234050e+01
   1.382610e+01   4.162792e+00
   6.888396e+01   6.800702e+01
   7.856693e+01   9.398605e+00
   6.017516e+01  -2.782585e+01
   6.727805e+01   8.657740e+00
   7.852952e+01  -1.404793e+01
  -2.315432e+01   1.265394e+02
  -1.795958e+02   1.122857e+02
  -1.681228e+02  -1.740641e+01
  -1.630611e+02  -4.215680e+01
   7.801545e+01  -9.655317e+01
   1.195397e+02  -3.494382e+01
   7.078792e+01   4.425439e+01
  -7.597062e+01   2.122217e+01
  -9.257331e+01  -1.386103e+01
  -5.541302e+01  -8.228487e+01
   1.613334e+02  -6.801776e+01
   2.033660e+02  -4.174545e+01
   1.848550e+02   1.099913e+00
  -1.817761e+01   1.033779e+02
  -3.412034e+00   4.937224e+01
  -7.155082e+01   1.215658e+01
   4.367463e+01  -5.384864e+01
   6.477282e+01   3.242774e+01
   1.110217e+02   1.087856e+02
  -3.298269e+01   1.445882e+02
  -8.344424e+01   2.910669e+01
  -1.133677e+02  -2.188502e+01
  -4.412525e+01  -1.340847e+02
   1.362295e+02  -1.369722e+02
   5.646173e+01   3.644341e+01
  -1.758830e+01   5.335765e+01
  -3.974298e+01   9.984809e+01
  -6.636222e+01  -6.232588e+00
   4.172839e+00  -5.017554e+01
  -3.885312e+01   9.978989e+00
   1.309530e+01   4.620849e+01
  -1.930033e+01  -2.091857e+01
  -8.452467e+01  -1.042873e+02
  -6.271996e+01  -1.024083e+02
   2.693963e+01  -5.754586e+01
   1.282757e+02   1.416125e-02
   1.381694e+02   7.320175e+01
   4.533452e+01   3.714158e+01
  -1.086531e+02   4.761992e+01
  -1.077997e+02   6.263180e+00
   4.421989e+01  -1.445019e+01
   1.116919e+01   1.303709e+01
   1.066325e+01   2.109164e+00
  -1.094617e+01   3.639986e-01
   2.125515e+01  -2.770005e+01
   7.591245e+01   2.469872e+01
   8.025743e+01  -7.054760e-01
  -3.449293e+00   1.266324e+02
  -1.174730e+02   1.156734e+02
  -2.000654e+02   5.716265e+01
  -9.752260e+01   4.075972e+01
  -1.228388e+01  -1.480953e+02
   7.872897e+01  -1.422162e+02
   1.164371e+02  -8.925500e+01
   5.290044e+01  -4.409449e+01
   9.388643e+01   4.724627e+01
   2.401537e+01  -4.070293e+01
   1.408180e+01   3.361531e+01
   8.992546e+00   1.764585e+01
  -3.057083e-01   8.285397e+01
  -6.178958e+01   7.921287e+01
  -7.564444e+01   9.423378e+00
  -4.315004e+01  -7.344949e+01
  -3.613265e+01  -5.821538e+01
   5.706929e+01  -5.734413e+01
   1.380011e+02   9.959186e+01
  -3.858102e+00   6.242087e+01
  -5.774930e+01   9.828721e+01
  -6.697548e+01   4.419846e+01
  -8.993941e+00  -6.200938e+01
   6.712344e+00  -5.177355e+01
  -1.985261e+01  -1.045059e+02
   4.356817e+01  -2.266776e+01
  -4.772153e+01  -4.968715e+01
  -1.947591e+01  -7.868467e+01
   5.742110e+01  -6.484868e+01
   9.430967e+01   5.963359e+01
   7.601993e+01   2.668022e+01
  -5.282127e+01   5.065152e+01
  -2.946382e+01   4.941470e+01
  -4.825175e+01   7.337937e+00
   3.192884e+01  -3.981122e+01
  -2.818923e+01  -3.700788e+01
  -2.199553e+01   5.776190e+01
   4.962268e+01   1.097568e+01
  -1.104785e+01   1.744833e+01
  -1.439150e+01   1.656287e+00
  -3.987927e+01  -8.035570e+01
  -6.106909e+00  -3.418497e+01
   3.595970e+01   3.055435e+01
  -5.044751e+01   2.097780e+01
  -2.691611e+01  -2.588632e+01
  -6.344228e+00  -3.588576e+01
   7.961699e+01   1.943399e+00
   6.006334e+01  -1.229201e+01
   4.364094e+01  -9.047951e+00
  -3.987920e+01   2.387612e+01
   9.604336e+00  -2.164057e+01
   4.218324e+01  -6.158842e+01
   4.483101e+01  -2.697236e+01
   5.759967e+01  -2.295786e+01
   5.201100e+01   8.971805e+01
  -6.916174e+01   5.601133e+01
  -5.020536e+01  -5.509265e+01
   1.760939e+01  -1.270509e+01
  -7.636231e+00   1.006440e+01
  -1.555963e+01  -3.424878e+01
  -1.846500e+01   2.947548e+01
  -5.575671e+01   1.609930e+01
