
 $NMID
 id='ANONYMOUS ', fmtdat='(2E16.6)'
 volume=1.0
 tramp=1.0
 $END
  -3.127985e+03  -4.518402e+01
  -2.031318e+03  -1.525244e+03
   7.300345e+01  -1.956422e+03
   1.202363e+03  -1.135040e+03
   9.002880e+02  -1.186067e+02
   2.286565e+01   2.319387e+02
  -3.476090e+02  -1.207281e+02
  -1.279453e+01  -5.864483e+02
   4.831991e+02  -5.011353e+02
   6.742916e+02  -7.527835e+01
   4.342830e+02   5.028320e+02
  -6.143470e-01   5.518974e+02
  -3.052448e+02   1.143429e+02
  -2.592991e+02  -4.228727e+02
   1.131659e+02  -5.179870e+02
   3.579786e+02  -8.546017e+01
   3.586971e+02   4.855288e+02
  -1.205176e+02   6.029271e+02
  -4.630149e+02   2.251276e+02
  -4.221619e+02  -1.419142e+02
  -1.373564e+02  -3.058291e+02
   1.187248e+02  -2.194985e+02
   1.001759e+02  -9.553449e+01
  -1.734532e+02  -8.556710e+01
  -2.462720e+02  -2.034372e+02
  -7.719305e-01  -3.388264e+02
   4.178136e+02  -1.707562e+02
   5.997983e+02   1.459394e+02
   2.360053e+02   4.383261e+02
  -2.639023e+02   1.378747e+02
  -5.182795e+02  -1.437290e+02
  -1.590821e+02  -3.328981e+02
   2.753662e+02  -3.304175e+02
   4.170298e+02  -1.115634e+02
   3.250601e+02   1.926432e+02
   3.779013e+01   3.591640e+02
  -1.609979e+01   1.898422e+02
   6.916973e+01  -9.306342e+01
   1.450780e+02  -2.048546e+02
   2.016294e+02   1.260277e+02
   5.569292e+01   4.555883e+02
  -2.714982e+02   3.729846e+02
  -3.837731e+02  -1.474577e+01
  -9.092579e+01  -3.495706e+02
   2.046101e+02  -1.253813e+02
   1.781923e+02   2.969966e+02
  -8.980005e+01   3.312431e+02
  -4.225575e+02   3.805761e+01
  -4.812475e+02  -4.111788e+02
  -2.170985e+02  -4.439081e+02
   3.400113e+02  -2.057338e+02
   4.852229e+02   7.264027e+01
   3.378252e+02   1.914278e+02
  -6.416572e+01   1.808757e+02
  -2.738109e+02   9.862220e+01
  -1.777633e+02  -3.918184e+01
   2.156598e+00  -2.864980e+01
   8.330803e+00   3.273826e+01
  -7.848894e+01   5.870286e+01
  -1.836210e+02  -1.102884e-02
  -1.124259e+02  -1.593318e+02
   1.378403e+02  -2.647534e+02
   3.300365e+02  -7.426305e+01
   2.860327e+02   1.149904e+02
  -7.744937e+01   2.512536e+02
  -3.133819e+02   4.413515e+02
  -3.346975e+02   1.505526e+02
  -2.384450e+02  -2.074904e+02
  -8.892829e+01  -3.220812e+02
   6.626963e+00  -3.031861e+02
   5.490202e+01  -2.105731e+02
   2.075280e+01  -1.683766e+02
   1.796642e+02  -9.549720e+01
   2.912177e+02  -3.179897e+01
   2.407979e+02   9.314712e+01
   1.159064e+01   2.592864e+02
  -6.425197e+01   1.549561e+02
  -1.858400e+02  -1.372764e+01
  -1.463955e+02  -2.164935e+02
  -1.421833e+01  -2.410967e+02
   2.208233e+02  -7.268626e+01
   2.876729e+02   1.789697e+02
   2.090891e+02   3.088565e+02
  -6.803880e+01   2.456573e+02
  -1.240612e+02   1.780712e+02
  -1.734839e+02  -2.520219e+01
  -1.932652e+02   6.865927e+01
  -2.716238e+02   4.714566e+01
  -3.754725e+02  -4.670060e+01
  -2.863637e+02  -3.146804e+02
   2.047308e+01  -4.212102e+02
   3.762620e+02  -3.598786e+02
   4.694435e+02  -1.355077e+02
   1.895936e+02   4.414770e+01
   2.111853e+01   2.389079e+02
  -8.966638e+01   2.323682e+02
  -4.353491e+00   7.769975e+01
   6.521312e+01  -6.957136e+01
   1.286798e+02   8.149320e+01
  -2.043444e+01   1.492214e+02
  -1.686083e+02   1.246092e+02
  -1.387892e+02  -4.427373e+01
   1.155448e+01  -6.900952e+01
   1.677159e+02   3.204302e+01
   1.386653e+02   1.423922e+02
   3.626509e+00   3.447261e+02
  -2.474128e+02   1.866178e+02
  -3.315396e+02  -1.425737e+02
  -2.078892e+02  -2.808459e+02
  -6.143051e+01  -2.748745e+02
   1.273546e+02  -9.754780e+01
   1.364210e+02  -3.786272e+01
   5.949342e+01   2.412529e+01
   2.561248e+01  -8.775543e+01
   2.782662e+00  -1.244897e+02
   9.710742e+01  -8.144885e+01
   1.215433e+02   7.542797e+01
   2.499901e+01   7.482905e+01
  -4.381815e+01  -8.974734e+00
  -1.983808e+01  -2.921230e+01
   5.765479e+01  -6.681261e+00
   3.049147e+02   5.603381e+01
   2.564987e+02   1.836488e+02
   5.654069e+01   2.639659e+02
  -2.238632e+02   2.069078e+02
  -2.409915e+02   1.079800e+02
  -1.400254e+02  -7.082956e+01
   4.940208e+01  -9.757560e+01
   9.297867e+01  -4.144293e+00
  -8.847381e+01   1.283483e+02
  -1.308596e+02   1.028200e+01
  -1.958664e+02  -1.092820e+02
  -4.758232e+01  -1.679139e+02
   9.931002e+01  -1.713758e+02
   1.054620e+02   7.777097e+00
   2.955753e+01   4.098720e+01
  -2.517276e+01  -3.800379e+01
  -2.756655e+01  -1.470386e+02
   7.987192e+01  -7.432183e+01
   1.708924e+02  -3.252525e+01
   1.548853e+02   1.756742e+02
   5.824925e+00   2.398777e+02
  -1.537827e+02   1.724479e+02
  -1.243415e+02  -3.496736e+00
  -1.486588e+01  -1.349688e+02
   8.682660e+01  -7.112492e+01
   1.019017e+02  -9.295482e+00
  -3.178674e+01   7.145189e+01
  -9.134725e+01   5.101881e+01
   5.715781e+01  -2.686931e+01
   9.730052e+01  -4.332147e+01
   7.697978e+01   7.567845e+01
   3.980785e+01   8.244108e+01
  -1.872035e+02   1.027697e+02
  -2.389322e+02   1.670360e+01
  -1.252037e+02  -1.548387e+02
  -4.030261e+01  -2.739948e+02
   1.096330e+02  -9.985534e+01
   1.320352e+02   4.463693e+00
   6.954744e+01   2.398902e+01
   3.026456e+01   7.032711e+01
   8.143652e+01  -7.969760e+00
   8.805990e+01  -1.043545e+01
   4.052156e+01   5.456407e+01
  -3.074930e+01   8.826950e+01
  -1.487571e+02   8.934443e+01
  -1.065104e+02  -7.393910e+01
   2.914104e+01  -1.517672e+02
   1.637547e+02  -4.305652e+01
   2.289817e+02   5.751841e+01
   1.215029e+02   1.769274e+02
  -1.401983e+02   2.602031e+02
  -1.731440e+02   1.939856e+01
  -2.335372e+02  -8.721479e+01
  -7.180769e+01  -1.517669e+02
   4.074406e+01  -1.858127e+02
   6.545826e+01  -5.066678e+01
   1.002586e+02  -3.709703e+01
   3.791271e+01  -1.122169e+02
   1.236816e+02  -1.384413e+02
   1.312713e+02   2.117349e+01
   9.613255e+01   7.014668e+01
  -7.250599e+00   1.539059e+02
  -1.016411e+02   1.351683e+02
  -1.562761e+02   3.731139e+01
  -1.362984e+02  -1.362868e+02
  -4.085501e+01  -1.365074e+02
   2.366400e+01  -1.021972e+02
  -3.389784e+00  -1.697647e+01
   2.513011e+00   3.888580e+01
  -4.745066e+01   3.175832e+01
   2.464954e+00   3.633096e+01
   8.033364e+01  -6.283119e+01
   5.886609e+01   8.235381e+01
  -3.257355e+01   7.193596e+01
  -2.119861e+02  -7.036966e+00
  -1.411985e+02  -5.240782e+01
   2.450035e+00  -1.566028e+02
   1.096583e+02  -4.761222e+01
   1.357073e+02   2.322991e+01
   5.542654e+01   5.047486e+01
  -7.022551e+01   3.932045e+01
  -4.859449e+01  -1.727177e+01
  -1.646036e+01  -1.150969e+02
  -3.870503e+00  -5.356445e+01
   1.140074e+02   1.779551e+00
   5.707173e+00   6.047246e+01
   6.382249e+01   3.621787e+01
   4.748257e+01  -1.901181e+01
   2.006802e+01   9.383013e+01
   3.925448e+01   2.745501e+01
  -6.711982e+01   1.250804e+02
  -1.199021e+02   1.005479e+02
  -2.213155e+02   2.764273e+01
  -1.250988e+02  -6.699748e+01
  -3.524448e+01  -9.696890e+01
   9.777558e+01  -7.479992e+01
   7.422645e+01   2.991209e+00
  -7.970571e+01  -9.869970e+00
  -8.134291e+01   1.420300e+01
  -6.184182e+01  -1.640245e+02
   9.419038e+01  -9.430228e+01
   1.588333e+02  -3.308034e+01
   1.738058e+02   3.774087e+01
   2.694171e+01   1.127976e+02
  -8.164664e+01   7.562173e+01
  -5.385864e+01  -1.210509e+01
   6.591476e+01  -1.370205e+01
   3.608763e+01  -6.575740e+01
   6.760832e+01   8.721995e+01
  -8.861182e+01   1.839053e+02
  -1.471564e+02   5.318954e+01
  -1.135735e+02  -1.105402e+02
   1.048241e+01  -2.505175e+02
   9.758365e+01  -7.173904e+01
   1.055036e+02  -1.057988e+01
   7.278230e+01   9.581350e+01
  -5.033464e+00   1.406824e+02
  -1.022364e+02   8.420554e+00
  -1.240915e+02  -4.208836e+01
  -6.198402e+01  -2.597987e+01
   3.873997e+01   3.774461e+01
  -1.715120e+01  -2.847037e+01
  -7.751607e+01  -1.074337e+02
  -4.710455e+01  -7.305513e+01
   5.886204e+01  -8.764611e+01
   1.123175e+02   3.693483e+01
   9.163202e+01   6.293062e+01
   7.096802e+01  -2.641210e+00
  -1.348878e+01  -6.868435e+00
  -1.257027e+02   6.369046e+00
  -5.616242e+01   3.495661e+00
   3.984782e+01  -5.518413e+01
   3.545022e+01   5.174691e+00
  -5.297100e+01   2.368293e+01
  -5.604391e+01  -2.667685e+00
   7.451472e+01  -6.980135e+01
   1.433307e+02   4.190641e+01
   7.136211e+01   7.949168e+01
  -1.082028e+02   9.258076e+01
  -1.970157e+02   1.168034e+02
  -1.727762e+02  -8.025658e+01
  -1.984279e+01  -1.434328e+02
   1.387285e+02  -1.482170e+02
   8.042897e+01  -2.403412e+01
   7.877255e+01  -2.190795e+01
   1.547390e+01   2.838583e+01
   8.498364e+01   2.738559e+01
   1.561690e+01   6.701697e+01
   6.509056e+01   1.587551e+01
   3.152850e+01   1.013638e+02
  -9.046068e+01   1.155828e+02
  -3.105058e+01  -2.873904e+01
  -4.038160e+01  -7.280701e+01
  -4.024589e+01  -4.815301e+01
   5.278177e+01   1.103250e+01
   7.825857e+01   1.034915e+02
   4.622302e+01   5.087033e+01
  -4.865954e+01   4.198686e+01
  -1.272629e+02  -9.866873e+00
  -7.331969e+01  -3.332467e+01
   3.579503e+00  -7.507521e+01
   1.241608e+00   3.324878e+01
   1.353386e+01  -7.959939e+00
  -8.155983e+01  -6.890677e+00
  -3.117208e+01  -6.743533e+01
   5.698848e+01  -3.357839e+01
   1.281821e+02  -1.033235e+01
   6.729196e+01  -6.571134e+00
  -3.729721e+01   6.294626e+01
   3.455366e+01   5.757669e+01
  -7.397824e+01   3.269371e+01
   1.675265e+01  -7.404515e+01
   3.912440e+01  -9.664453e+01
   3.831437e+01  -3.626618e+00
   1.175925e+00  -4.715373e-01
   2.351070e+01   8.524442e+01
  -7.401175e+01  -4.073855e+01
  -4.289462e+01  -2.097370e+01
   3.841446e+01  -1.105464e+01
   2.060869e+01   2.604974e+01
   1.885890e+01   3.847472e+01
  -1.350027e+01   2.177336e+01
  -7.574660e-02  -2.881211e+01
   1.443324e+00  -5.142002e+01
   5.754811e+01   4.198401e+01
   5.562297e+00   6.331560e+01
  -4.634322e+01  -1.349359e+01
  -4.046238e+01  -7.757934e-01
  -3.423490e+01  -2.688603e+01
   6.891589e+01  -6.365661e+01
   9.117555e+01   4.489386e+01
   1.733273e+01   1.950674e+01
  -2.444936e+01   1.982058e+00
  -7.186015e+01   5.459770e+01
  -7.552421e+01   4.175388e+01
   5.623971e+01   2.968584e+00
   2.406077e+01  -2.851873e+01
  -4.669443e+01   2.694844e+01
  -7.667460e+01   5.051813e+01
