
 $NMID
 id='ANONYMOUS ', fmtdat='(2E16.6)'
 volume=1.0
 tramp=1.0
 $END
   1.451142e+03  -8.789592e+01
   1.032458e+03   5.907888e+02
   2.376565e+02   9.652557e+02
  -3.764195e+02   8.257089e+02
  -4.645549e+02   3.254074e+02
  -2.009248e+02  -6.273275e+01
   1.149299e+02   8.105817e+00
   8.821692e+01   2.188521e+02
  -1.528511e+02   2.482265e+02
  -2.766452e+02   1.405982e+02
  -2.776586e+02  -1.669308e+02
  -5.457298e+01  -2.593608e+02
   1.082773e+02  -1.236839e+02
   9.280307e+01   1.370096e+02
  -4.589085e+01   2.400966e+02
  -1.745464e+02   9.283514e+01
  -1.585588e+02  -1.823558e+02
   3.134053e+01  -3.250952e+02
   1.315954e+02  -1.891510e+02
   2.358025e+02   7.617349e+01
   9.433979e+01   1.242518e+02
  -3.623743e+01   2.105498e+02
   2.672791e+01   7.842533e+01
   4.241570e+01   1.050455e+02
   6.492299e+01   1.679232e+02
  -6.912317e+00   2.049678e+02
  -2.162951e+02  -2.318920e+01
  -2.619647e+02  -9.624734e+01
  -1.018471e+02  -9.713353e+01
   1.742365e+02  -5.210916e+01
   2.710410e+02   5.486287e+01
   8.280244e+01   2.163906e+02
  -1.367502e+02   1.208220e+02
  -1.972657e+02   5.140954e+01
  -1.305989e+02  -7.038705e+01
   7.894801e+00  -1.179744e+02
  -1.116532e+01  -9.523986e+01
  -4.898728e+01  -3.153397e+01
  -1.512310e+02   7.407368e+01
  -5.798181e+01  -1.072398e+02
   2.753455e+01  -1.723011e+02
   7.708932e+01  -1.956018e+02
   1.184272e+02   2.078765e+01
   4.073555e+01   1.063681e+02
  -1.725863e+01   5.162210e+00
  -4.944012e+01  -7.336838e+01
   6.751600e+01  -1.765596e+02
   2.117635e+02  -8.863447e+00
   2.181980e+02   1.848050e+02
   1.061888e+02   2.301576e+02
  -1.784065e+02   8.115482e+01
  -2.451737e+02   2.776501e+01
  -1.903323e+02  -6.954622e+01
  -1.521731e+00  -1.092645e+02
   1.625887e+02  -5.135518e+01
   1.010252e+02  -7.251844e+00
   8.151213e+01   2.875340e+01
  -6.424083e+01  -2.616719e+01
   2.563346e+01  -3.017649e+01
   1.004856e+02  -6.823355e+00
   3.929196e+01   1.613991e+01
  -3.470471e+01   9.223533e+01
  -2.108571e+02   7.780392e+01
  -1.645260e+02  -1.283280e+01
   6.214763e+01  -2.412789e+02
   1.790171e+02  -2.497822e+02
   1.753812e+02  -8.684843e+01
   6.248119e+01   8.842703e+01
  -2.110803e+00   1.373624e+02
   7.704058e+01   1.467470e+02
   2.704872e+00   1.699179e+02
  -1.306493e+01   1.017785e+02
  -5.054009e+01   1.124010e+02
  -1.240233e+02   1.394612e+00
  -1.037763e+02  -1.546789e+00
  -5.527167e+01  -1.138913e+02
   8.207419e+01  -7.869286e+01
   1.286732e+02   6.166805e+01
   8.662619e+01   1.498139e+02
  -3.257458e+01   8.304300e+01
  -1.512777e+02   1.078445e+01
  -1.270316e+02  -8.722636e+01
  -6.428699e+01  -1.639474e+02
   3.737514e+00  -1.333554e+02
   7.900322e+01  -4.707445e+01
   7.311216e+01  -3.818272e+01
   1.052499e+02  -5.519035e+01
   1.635505e+02   1.136113e+01
   2.538970e+02   7.288345e+01
   2.028917e+02   1.905028e+02
   1.886308e+01   2.689060e+02
  -2.202999e+02   2.440692e+02
  -2.735950e+02   6.485764e+01
  -9.164304e+01  -2.025149e+01
   3.409583e+01  -1.611065e+02
   8.321727e+01  -1.150772e+02
  -4.254811e+01  -1.423175e+01
  -2.592103e+01   8.570830e+00
  -1.667109e+01  -3.568344e+01
   6.083986e+01  -6.410417e+01
   2.951256e+01  -4.678565e+01
   4.778303e+00  -3.361862e+01
   1.573539e+00   2.906274e+01
  -6.786878e+01   8.306462e+00
  -9.410114e+01  -1.209623e+02
   4.170542e+01  -2.051302e+02
   1.683804e+02  -1.637572e+02
   2.373604e+02  -1.923266e+01
   2.113228e+02   1.292031e+02
  -5.832115e+01   1.691559e+02
  -9.714212e+01   3.019249e+01
  -9.976516e+01  -1.197497e+01
   1.488163e+01   3.374185e+00
   3.032486e+00   7.019167e+01
  -5.560415e+00   6.379894e+01
  -5.689351e+01   1.725507e+01
  -9.765645e+01   5.133652e+01
  -1.508194e+01  -1.270189e+01
   4.231295e+01   3.876694e+01
   1.190063e+01  -1.390407e+00
  -1.024686e+02   4.040348e+01
  -2.140387e+02   1.594263e+00
  -1.282985e+02  -1.394020e+02
   3.153671e+01  -2.384953e+02
   1.297731e+02  -1.459901e+02
   1.009645e+02  -2.014501e+01
   5.825421e+01   2.435153e+01
  -5.090611e+01  -2.295032e+00
   7.222171e+00   1.082362e+01
   4.066406e+01  -2.806045e+01
   7.990152e+01   3.001936e+01
   1.077052e+02   1.052402e+02
   2.280716e+01   9.234376e+01
  -7.665580e+01   7.878124e+01
  -1.724626e+01   2.345991e+01
  -3.076753e+01  -2.101012e+01
   1.623321e+01   2.528003e+01
   1.643145e+01   7.579196e+01
  -1.005351e+02   6.387324e+01
  -1.094929e+02  -1.095079e+01
  -5.151542e+01  -4.723340e+01
  -4.722102e+00  -1.080547e+02
   1.073415e+02  -7.451893e+01
   1.104852e+02  -8.243067e+01
   4.540776e+01  -5.998483e+01
  -4.929067e+01   4.449835e+01
   2.684861e+01  -1.422751e+01
   3.612189e+00  -3.109712e+01
   9.929245e+00   2.125756e+01
   8.418233e+00   2.399602e+01
  -5.095639e+01  -1.313019e+01
  -6.635238e+01  -1.238222e+01
   2.568412e+00  -2.581086e+01
   7.327229e+01  -4.787903e+01
   1.267941e+02  -5.616287e+01
   1.090235e+02   7.747067e+01
  -1.857085e+00   9.557333e+01
  -4.224155e+01   8.423517e+01
  -3.463372e+01   8.315091e+01
  -5.015860e-01   1.710485e+01
  -4.293757e+01  -3.420234e+01
  -5.198161e+01   3.868905e+01
  -4.551532e+01   1.624656e+01
  -5.641350e+01  -3.614308e+01
  -1.505693e+01  -3.258855e+01
   4.116245e+01  -4.308099e+01
   8.789751e+01   7.964309e+01
  -4.298033e+01   8.561626e+01
  -8.349367e+01   6.812674e+01
  -8.563554e+01  -3.118719e+01
  -5.712181e+01  -1.497045e+02
   1.337571e+02  -8.702783e+01
   1.694270e+02  -4.763804e+01
   1.213320e+02   5.278141e+01
   2.360727e+01   7.494107e+01
  -5.121782e+01   5.812372e+01
  -1.326157e+01  -1.599246e+00
  -4.090804e+01   6.513101e+01
   8.240413e+00   3.350548e+00
  -7.912925e+01  -2.743532e+01
  -6.085308e+01   4.342939e+01
  -7.099218e+01  -1.033508e+02
   1.636002e+00  -6.025842e+01
   2.786033e+01  -3.851115e+01
   1.379467e+02  -5.909699e+00
   1.115476e+02   6.631017e+01
   9.965346e+00   1.069121e+02
  -5.950389e+01   8.781077e+01
  -5.583427e+01   2.864648e+01
   1.796908e+01  -2.457093e+01
  -3.979748e+01  -4.481150e+01
  -5.258257e+01   2.236513e+01
  -1.177482e+02  -4.657253e+01
  -1.270476e+01  -6.450398e+01
  -3.032749e+00  -3.164498e+01
   8.422951e+01  -1.611728e+01
   1.034333e+02   5.074798e+01
  -2.892209e+01   4.121931e+01
  -7.836827e+01   7.090355e+01
  -6.245685e+01  -3.586329e+01
   4.121018e+01  -8.203941e+00
   3.277301e+00  -9.597776e+01
   6.643526e+01   3.240835e+01
   2.474200e+01   5.410787e+01
  -2.904432e+01   8.379306e+01
  -3.345938e+01  -8.166307e+01
  -1.644196e+01  -1.235666e+01
  -1.058981e+02   8.683593e+00
  -5.031311e+01   5.736416e+00
   2.191925e+01   4.552017e+01
   1.437734e+00  -2.551662e+01
   2.586656e+01  -4.976841e+01
   5.154229e+01  -8.929450e+01
   1.441023e+02  -2.882223e+01
   1.491524e+02   5.763202e+01
  -5.652481e+01   6.190756e+01
  -1.093076e+01   5.425106e+01
   2.778388e+01   3.349809e+01
   6.125631e+01  -5.795902e+01
   5.500372e+01   2.770361e+01
   6.541585e+01   6.392394e+01
  -1.972907e+01   5.474241e+01
  -9.374375e+01   5.277144e+01
  -9.305309e+01  -4.297086e+01
   1.712384e+01  -1.750680e+01
   4.362117e+01  -8.062056e+01
   1.657210e+01  -2.045506e+01
  -5.019621e+01   4.950684e+01
  -7.545533e+01   3.864841e+01
  -1.931214e+01  -5.976928e+01
   2.669104e+01  -6.311257e+01
   9.302198e+01  -8.236837e+00
   7.266422e+01   6.700736e+01
   3.971419e+01   1.337559e+02
  -2.999901e+01   8.722551e+01
  -4.448020e+01  -7.946028e+01
  -1.131853e+01  -7.380550e+01
   1.925663e+01  -1.085111e+02
   1.535898e+01   1.016128e+01
   2.507192e+01   9.702877e+01
   3.559702e+01  -3.136613e+01
   4.512174e+00  -4.966771e+01
  -3.814905e+01   1.084382e+01
   7.884048e+01   7.552255e+01
   3.069639e+01   1.199101e+02
  -2.721966e+01   4.771133e+01
  -1.273655e+02   6.611319e+00
  -7.094458e+01  -8.521339e+01
  -2.882682e+01  -2.182454e+01
   4.188003e+00   3.520370e+01
   3.300356e+01  -2.216192e+01
  -1.111446e+01  -4.841250e+01
  -3.152371e+01  -1.211659e+01
   3.729725e+01   5.881729e+01
  -5.132064e+01   1.687362e+01
  -3.101612e+01  -9.457503e+00
  -3.110969e+01   4.275786e+01
  -1.234425e+01  -3.513316e+01
  -3.412299e+01  -4.255854e+01
   3.902222e+01  -7.456347e+01
   1.046263e+02  -6.344175e+01
   8.982126e+01   3.156617e+01
   5.809080e+01   8.585876e+01
  -8.659976e+01   5.922131e+01
  -6.021963e+01   5.687250e+01
  -6.285840e+01   2.091735e+00
  -1.131399e+01   2.340870e+01
  -8.190484e+00  -6.565825e+00
   6.379829e+01  -1.171933e+01
  -4.208746e+01  -3.289172e+01
  -1.831572e+01  -9.523611e+01
   4.218768e+01  -6.157899e+01
   1.501479e+01   1.027675e+01
   7.033198e+01   9.421623e+01
   2.406689e+01   7.103042e+01
  -7.816388e+00   6.773955e+01
  -8.918964e+01  -4.804529e+01
  -4.950958e+01  -1.144077e+02
  -2.198877e+01  -8.629401e+00
   1.079342e+02  -2.052794e+01
  -2.865759e+00   4.452267e+01
  -5.173669e+01   6.454562e+01
  -3.103177e+01   9.731013e+00
   9.417863e+01  -2.771624e+01
   2.096373e-01   6.065496e+01
  -3.073648e+01  -1.520419e+01
  -5.386471e+01   5.595855e+01
  -6.346716e+01   2.582199e+01
  -2.854654e+01  -2.495370e+01
   2.684483e+01  -7.389762e+01
   6.415463e+01  -4.023755e+01
   3.682268e+00   2.414455e+01
   4.763586e+00   1.933374e+01
  -3.812439e+01   3.340837e+01
  -8.668985e+01   9.771894e+00
   2.434957e+01   2.885489e+00
  -4.077381e+01  -4.445159e+01
   2.046353e+01  -6.486219e+01
   5.389735e+01   1.042659e+02
   1.962940e+01   2.815298e+01
   9.400318e-01   9.391316e+00
  -1.059293e+01   6.222944e+01
  -1.129584e+01  -2.324808e-02
   5.355549e+01   3.031413e+01
   1.660665e+01   2.930055e+01
  -3.435179e+01   9.665383e+00
  -7.820188e+00  -1.578662e+01
   3.428970e+00   5.989210e+01
   8.586785e+01  -1.612634e+01
   5.612099e+00   1.626202e+01
  -1.466761e+01   1.066200e+02
  -6.647078e+01   4.508483e+01
   1.718154e+01  -4.081434e+01
   2.508937e+01  -5.544167e+00
   4.439490e+01  -1.771340e+01
   2.287419e+01   4.838531e+01
  -9.277437e+01  -2.087050e+01
  -3.140167e+01  -3.568240e+00
   6.051541e+01   1.641347e+01
  -1.946967e+01  -2.878203e+01
