
 $NMID
 id='ANONYMOUS ', fmtdat='(2E16.6)'
 volume=1.0
 tramp=1.0
 $END
   2.086842e+03  -6.820251e+01
   1.459793e+03   1.022308e+03
   1.394925e+02   1.358231e+03
  -7.787416e+02   9.206566e+02
  -6.701992e+02   2.581672e+02
  -9.669681e+01  -5.581290e+01
   1.572263e+02   7.602802e+00
   6.681380e+01   3.632546e+02
  -3.096406e+02   4.218663e+02
  -4.018829e+02   1.433537e+02
  -3.252828e+02  -3.145998e+02
  -2.910312e+01  -4.431770e+02
   1.353080e+02  -1.911002e+02
   2.044372e+02   2.715930e+02
  -7.976043e+01   3.931168e+02
  -3.070037e+02   3.336983e+01
  -2.097895e+02  -3.532327e+02
  -3.519729e+01  -4.608449e+02
   2.951611e+02  -2.047667e+02
   3.062731e+02   8.733673e+01
   1.183576e+02   2.402233e+02
  -9.119391e+01   1.350076e+02
  -4.580475e+01   1.001486e+02
   1.303683e+02   6.217486e+01
   1.533340e+02   2.149676e+02
  -6.694889e+00   1.904361e+02
  -3.617998e+02   5.402986e+01
  -3.761710e+02  -1.155492e+02
  -1.775180e+02  -2.769175e+02
   1.532259e+02  -1.089710e+00
   2.935185e+02   8.839872e+01
   9.198711e+01   2.335578e+02
  -1.913472e+02   2.355430e+02
  -2.818498e+02   6.403586e+01
  -2.312778e+02  -1.124739e+02
  -1.297989e+02  -1.785489e+02
   7.773925e+01  -1.136273e+02
  -6.423480e+01   3.678227e+01
  -1.363437e+02   1.114363e+02
  -1.454261e+02  -1.000855e+02
   3.905949e+01  -3.284966e+02
   1.466672e+02  -2.810311e+02
   2.146563e+02  -1.558291e+01
   6.288389e+01   2.096246e+02
  -6.906761e+01   1.001998e+02
  -1.136618e+02  -2.047958e+02
   9.254057e+01  -2.136749e+02
   3.028583e+02  -1.696342e+01
   3.714155e+02   2.235892e+02
   1.437856e+02   2.796311e+02
  -1.625835e+02   2.155201e+02
  -4.043097e+02  -6.274872e+01
  -1.633122e+02  -1.766648e+02
   2.379082e+01  -1.353320e+02
   2.344263e+02  -6.754801e+01
   1.944497e+02  -6.152728e+00
   2.135915e+01   4.795748e+00
   1.312032e+01  -3.036265e+01
   2.679957e+01  -5.448142e+01
   1.350082e+02   1.561862e+01
   8.685191e+01   1.111807e+02
  -1.640286e+02   1.654056e+02
  -2.682449e+02   1.101384e+02
  -2.239218e+02  -1.131893e+02
   1.442750e+01  -2.484610e+02
   2.187153e+02  -2.956051e+02
   2.629388e+02  -1.269885e+02
   1.631419e+02   6.683359e+01
   4.077621e+01   2.321068e+02
   1.351734e+01   2.007304e+02
  -2.180754e+01   1.275063e+02
  -3.984207e+01   1.005797e+02
  -1.131801e+02   8.761337e+01
  -1.464796e+02  -2.423134e+01
  -1.436949e+02  -1.422419e+02
  -4.303952e+01  -1.850301e+02
   5.537928e+01  -1.577133e+02
   9.972239e+01   9.551843e+01
   1.112619e+02   1.204329e+02
  -1.173739e+01   1.894182e+02
  -1.529259e+02   5.856304e+01
  -2.203443e+02  -1.423227e+02
  -1.042371e+02  -2.243018e+02
   1.002433e+01  -1.629340e+02
   1.363113e+02  -1.275033e+02
   1.040996e+02  -5.319752e+01
   1.414968e+02  -4.762481e+01
   1.606056e+02   2.734334e+01
   2.715542e+02   5.570027e+01
   2.145006e+02   2.136306e+02
  -5.493490e+01   3.152777e+02
  -2.446845e+02   2.851128e+02
  -3.379369e+02   1.343288e+02
  -1.690243e+02  -1.091086e+02
  -7.354313e-01  -1.790391e+02
   5.385449e+01  -1.214040e+02
   2.135249e+00  -5.308623e+01
  -1.117175e+02   1.431288e+01
  -7.352553e+01  -3.345641e+01
  -9.675462e+00  -1.167601e+02
   8.783500e+01  -4.782277e+01
   4.571426e+01   6.345573e+01
  -2.979836e+01   9.757024e+01
  -7.545946e+01  -6.479665e+01
  -7.831643e+01  -1.920489e+02
   5.633729e+01  -2.858238e+02
   1.350876e+02  -1.786356e+02
   2.556721e+02   8.554661e+00
   1.679761e+02   1.863917e+02
   8.187157e+01   1.634451e+02
  -7.632959e+01   9.032704e+01
  -1.144906e+02  -4.261209e+01
   1.242140e+01   1.221533e+01
   7.905417e+01   5.086918e+00
  -2.248036e+01   2.456485e+01
  -6.088843e+01   5.883501e+01
  -9.524613e+01  -7.053526e+00
  -1.870720e+01  -1.446226e+01
   1.044545e+02  -3.928854e+01
   4.296564e+01   1.020685e+02
  -8.534446e+01   6.971307e+01
  -2.239272e+02  -3.779910e+01
  -1.939357e+02  -1.244833e+02
  -1.683862e+01  -1.698735e+02
   1.565806e+02  -1.776417e+02
   1.635148e+02  -6.711422e+01
   8.276338e+01   3.191101e+01
  -3.491535e+01   3.586151e+00
  -5.834936e+01  -1.350722e+01
   6.134218e+00  -3.525129e+01
   1.472190e+02   2.992711e+01
   1.423771e+02   2.093536e+01
   8.697633e+01   8.912764e+01
  -7.547006e+01   1.259142e+02
  -4.253229e+01   2.441357e+00
  -8.157391e+00  -5.797087e+01
  -8.999856e+00  -2.836845e+01
  -3.934638e+01   3.641227e+01
  -4.234038e+01   1.079719e+02
  -1.270367e+02  -9.334267e+00
  -1.350198e+02  -1.126030e+02
  -3.912771e+01  -1.599707e+02
   8.829327e+01  -1.566907e+02
   1.444348e+02  -1.962842e+01
   3.748887e+01   6.650633e+01
  -6.912982e+01   6.193845e+01
  -6.227197e+01  -3.620921e+00
   3.723459e+00   4.409373e+01
   5.589576e+01  -5.995323e+00
  -4.088809e+01  -4.520322e+01
  -7.821372e+01   9.618440e+00
  -1.001751e+02  -4.407333e+01
  -2.540666e+01  -1.706657e+02
   9.936505e+01  -1.631146e+02
   1.607516e+02   3.515890e+01
   1.174032e+02   2.490053e+01
  -3.925109e+00   1.449946e+02
  -9.127161e+01   1.397316e+02
  -1.105107e+01   5.756870e+01
  -1.364728e+02  -5.177856e+01
  -3.299568e+01  -4.688090e+01
   1.353924e+01  -4.025820e+00
  -8.083954e+01  -6.798134e+00
  -9.111106e+01  -4.222228e+01
   6.150891e+00  -6.157323e+01
   1.381798e+02  -1.756137e+00
   4.365050e+01  -2.368809e+01
  -6.765680e+01   9.702240e+01
  -4.730484e+01   1.318760e+02
  -7.817927e+01  -7.665789e+01
  -9.920935e+01  -1.409374e+02
   4.671384e+01  -1.194670e+02
   2.291348e+02  -7.842501e+01
   1.520196e+02   4.212789e+01
   9.667029e+01   1.062377e+02
  -6.438301e+01   1.311066e+02
  -5.638451e+01   4.203970e+01
  -6.008419e+01   1.232060e+01
   5.396613e+01   8.857801e+01
  -9.616446e+01   1.133933e+02
  -5.746008e+01   4.332362e+01
  -3.066859e+01  -1.092192e+02
  -7.502788e+01  -1.790331e+02
   9.278145e+01  -1.115725e+02
   1.192248e+02  -2.310694e+01
   3.535309e+01   6.582286e+01
  -3.314825e+01   9.513339e+01
  -5.405283e+01   4.876678e+01
  -3.334085e+01  -4.657258e+01
  -7.906336e+00  -1.764151e+01
   2.268088e+01  -1.892666e+01
   7.032742e+00   1.438984e+01
  -5.715506e+01  -2.468770e+01
  -2.628401e+01  -3.711379e+01
   3.742225e+01   1.775733e+01
   1.538686e+02  -3.545649e+00
   1.229398e+02   7.354324e+01
  -4.861852e+01   2.089621e+01
  -8.970144e+01   5.818997e+01
  -1.381269e+02   7.427568e+01
  -5.383226e+01  -3.994670e+01
   7.056588e+01  -3.270998e+01
   4.417553e+01  -2.275760e+01
   8.896526e+00   3.579598e+01
  -5.755033e+01   7.159116e+01
  -6.391227e+01   4.164675e+00
  -4.166050e+01   1.320674e+01
  -6.258726e+01  -7.263953e+01
  -2.822443e+01   3.765076e-01
   3.250514e+01   1.344367e+01
  -3.386142e+01  -5.694979e+01
   4.797013e+01  -8.828058e+01
   1.014762e+02  -8.853118e+01
   1.641441e+02   2.984898e+01
   7.732857e+01   1.252740e+02
   3.080983e+01   1.302964e+02
  -1.144286e+02   3.816785e+00
  -4.097020e+01  -3.939289e+00
   3.313920e+01  -5.044472e+01
   1.173351e+02   8.087460e+01
   6.625696e+01   1.209682e+02
  -6.524461e+01   1.062333e+02
  -1.189099e+02   3.083570e+01
  -9.348754e+01  -4.196975e+01
  -2.080164e+01  -4.013774e+01
   2.491792e+01  -5.731647e+01
   1.626341e+01  -6.812583e+00
  -3.769369e+01   5.639935e+01
  -7.338861e+01  -1.190952e+00
   8.187868e+00  -7.872240e+01
   4.398099e+01  -1.390690e+02
   8.432548e+01  -8.143834e+01
   9.117535e+01   5.931042e+01
   7.154779e+01   1.540225e+02
  -2.999015e+01   7.345411e+01
  -5.153217e+01  -1.859030e+01
  -6.144176e+01  -5.812233e+01
   7.399548e-01  -2.942852e+01
   1.812022e+01   9.893274e+00
   3.864544e+01   2.403149e+01
  -1.969656e+01  -7.177372e+00
  -4.147587e+01  -1.588134e+01
   5.757449e+00  -7.858516e+00
   1.406049e+01   8.171395e+01
   1.022097e+01   1.235973e+02
  -6.065260e+01   7.226069e+01
  -1.127451e+02  -2.675822e+01
  -8.593768e+01  -2.302973e+01
  -6.382328e+01  -6.341466e+01
   3.832812e+01  -1.513013e+01
   1.114587e+02   9.705765e+00
   4.382667e+01   4.384172e+01
  -1.973386e-01   2.801052e+01
   4.874952e+01  -5.531467e+00
   5.752504e+00   7.045950e+01
   3.792375e+01  -7.725169e-02
  -5.120289e+01  -6.810435e+00
  -9.859011e+01   1.469384e+00
   1.645351e+01  -5.889685e+01
   7.339606e+01  -5.741253e+01
   1.781710e+02  -3.893958e+01
   1.086718e+02   5.913727e+01
   7.386338e+01   1.072202e+02
  -6.664774e+01   8.196219e+01
  -5.095848e+01   7.141398e+01
  -1.429932e+01  -3.599583e+01
  -6.705987e+01   2.077838e+01
  -1.485374e+01  -4.508311e+01
  -2.767594e+01  -6.301873e+01
  -4.664565e+00  -5.104960e+01
  -2.978700e+01  -8.590460e+01
  -3.057202e+01  -7.193730e+01
   2.818685e+01   1.003427e+01
   7.790436e+01   6.818751e+01
  -3.249457e+01   7.087312e+01
  -5.948006e+01  -3.698569e+01
  -6.890697e+01  -9.365167e+01
  -2.540145e+01  -2.417638e+01
   2.793630e+01   2.694470e+01
   4.030412e+01   4.695258e+01
   7.331490e+01   3.989309e+01
  -4.846536e+01   1.335177e+01
  -3.042404e+01  -5.055480e+00
   2.986495e+01  -4.291229e+01
   3.412476e+01  -4.037583e+01
  -1.807381e+01   2.888492e+01
  -5.027688e+01   3.254655e+01
  -1.022264e+02   1.764320e+01
  -3.499093e+01  -8.015889e+00
   3.830247e+01  -4.699230e+01
   5.372902e+01  -6.283771e+01
   5.522778e+01  -5.591232e+01
  -4.168002e+01   4.888632e+01
  -4.082411e+01   4.056901e+01
  -5.792798e+01   1.693542e+00
  -1.634274e+01  -7.538004e+01
  -4.833545e+01   9.154136e+00
   5.321555e+01  -1.152682e+01
   1.058377e+02   2.545562e+01
   2.447628e+01  -1.989553e+00
  -5.190150e+01  -6.246104e+00
  -4.737933e+01   4.286719e+01
  -2.139740e+01   3.167626e+01
   1.311178e+01   1.470392e+01
  -2.136790e+00  -4.625663e+01
  -6.488795e-01  -8.437629e+01
  -3.007236e+01  -2.051242e+01
  -1.361677e+01  -7.472135e+00
   4.378493e+01   5.495492e+01
   5.343352e+01   4.604804e+01
  -8.212634e+01   2.272694e+00
  -9.222412e+01  -1.337366e+01
  -1.423011e+01  -2.134154e+01
   2.270166e+01  -6.242172e+01
   4.800020e+01  -8.476999e+01
   3.544979e+01   1.854196e+01
  -4.352605e+01   2.531551e+01
  -3.541725e+01  -5.822022e+01
  -1.209001e+01  -2.508589e+01
   8.869782e+01   2.629898e+01
