
 $NMID
 id='ANONYMOUS ', fmtdat='(2E16.6)'
 volume=1.0
 tramp=1.0
 $END
  -1.210194e+02  -5.525181e+00
  -2.144447e+00  -1.073021e+02
   1.612042e+02  -4.828955e+01
   8.426703e+01   8.870928e+00
   2.032487e+01   6.066409e+01
  -4.315982e+01   1.009343e+02
  -1.449846e+01  -7.604819e+01
   4.354031e+01  -4.954764e+01
   1.140603e+01   2.695637e+00
  -5.670985e+01  -1.976192e+00
   7.108016e+00  -5.175014e+00
  -2.679906e+01   1.810299e+00
  -7.714699e+01  -4.634985e+01
   4.602376e+01  -7.408588e+00
   6.095500e+00   8.614766e+01
   2.158046e+01   1.620997e+01
  -9.228940e+00   3.887360e+01
  -3.625603e+01  -1.205155e+01
  -3.585642e+01   8.629571e+00
  -2.971020e+01   2.709668e+01
  -4.311139e+01  -1.990279e+01
   4.410340e+01  -4.371958e+00
   1.622000e+01   1.903407e+01
   1.387255e+01   1.992103e+01
   1.262977e+01  -1.820071e+01
  -8.817770e+00  -3.378736e+01
   4.908152e+01  -1.985658e+01
   5.604444e+00  -1.895510e+01
   3.088193e+01   3.709520e+00
  -6.511807e+01   2.802787e+01
   5.301400e+01   2.868373e+01
  -3.277348e+01  -3.983221e+01
  -3.742554e+01  -1.991816e+01
   3.401017e+01   1.919601e+00
  -6.611719e+00   5.329216e+01
  -3.978995e+01   1.715263e+01
  -1.928553e+00   9.673856e+00
  -1.890819e+01  -4.929569e+01
  -1.988975e+01   4.627190e+01
   2.537569e+01  -1.009212e+02
   6.547916e+01   1.154500e+01
   1.932412e+01   6.292170e+01
  -5.826855e+01  -3.018419e+01
  -4.176063e+00  -1.067238e+01
   9.403964e+01   2.501321e+01
  -2.157000e+00   4.489106e+01
  -1.160292e+01  -2.322000e+01
   8.953517e+00  -8.122950e+00
  -1.632621e+01  -3.845296e+01
  -1.010382e+01   2.867540e+01
   3.195827e+01   2.448030e+01
   5.511968e+01  -2.255100e+01
  -4.918864e+01   1.405979e+01
  -9.580506e+01   1.271584e+01
  -1.789786e+01   4.147123e+01
   2.534747e+00  -7.741848e+01
   1.078966e+01  -2.859540e+01
  -6.542680e+00  -2.015929e+01
  -1.992899e+01  -6.252472e+00
   3.797813e+00   5.260939e+01
   4.313911e+01   2.611861e+01
  -2.967296e+01  -2.735355e+01
   8.869148e+00  -1.050231e-01
   9.238511e+00   1.828843e+01
   5.601929e+00  -5.024261e+01
   6.503454e-01   1.322552e+01
  -6.951812e+01  -1.968687e+01
  -1.305714e+01   4.900925e+01
   4.413298e+00   1.634943e+01
  -5.432152e+01  -3.273774e+01
   5.659309e+01   3.943164e+01
  -2.456172e+01   1.113306e+01
  -2.136235e+01   5.291834e+00
  -9.785736e+00   9.781088e+01
   4.918931e+01  -3.073928e+00
  -6.286440e+01   7.268135e+00
  -5.256622e+00  -5.013136e+01
   2.528067e+01  -1.957348e+01
  -4.110272e+01   3.442979e+01
   7.866279e+01   1.460545e+01
  -1.169721e+01  -1.420639e+01
  -3.191455e+01  -2.394180e+01
   3.054264e+01   6.156632e+00
  -1.860872e+00  -5.717706e+01
  -5.702103e+00   1.300374e+01
   3.646177e+01  -5.740798e+01
   9.307097e+01  -1.949191e+01
   3.137847e+01  -8.498551e-01
  -1.669210e+01  -1.676128e+01
  -5.142968e+01  -5.069687e+01
   4.472456e+01   2.150508e+01
  -1.461220e+01  -3.628143e+01
  -4.215432e+00  -2.959803e+01
   1.843510e+01  -5.638451e+00
  -1.755766e+01   5.946283e+00
   9.554311e+00  -2.650031e+01
   1.546849e+01  -1.045031e+01
   1.274821e+01   6.502008e+00
  -2.010645e+01   1.512227e+01
  -5.825779e+00   2.698055e+01
   2.952640e+01  -5.425113e+01
  -1.948845e+01   3.537565e+01
  -1.753662e+01   4.429483e+01
  -2.962174e+01   6.456798e+01
   1.552701e+01   3.296714e+01
  -8.264009e+00   4.369196e-01
  -1.430677e+01   2.223241e+01
  -8.187794e+00   6.024355e+00
  -1.041234e+00  -6.284120e+01
  -5.477674e+01  -1.826287e+01
  -3.189640e+01  -4.687638e+01
  -2.805460e+01   2.659690e+01
   1.094705e+00  -4.163398e+01
  -2.875817e+01   1.982736e+01
   4.165625e+01  -8.534869e+00
   2.197123e+01   7.952374e+00
   1.877735e+01   4.464921e+01
   7.749738e+00  -1.672356e+01
  -3.360649e+01   3.478162e+00
  -5.728083e+00  -2.444729e+01
  -1.772248e+01  -1.580677e+01
   3.617518e+01   5.800697e+01
  -5.629148e+01  -2.002770e+01
   1.928467e+01  -8.952824e+00
  -1.774387e+01  -2.865193e+01
  -1.846091e+01  -1.686516e+01
   2.851938e+01   1.086198e+00
   3.815847e+01   1.133768e+01
   1.890975e+00  -4.893103e+01
  -9.836931e+00  -8.536092e+00
   4.047939e+01   1.715584e+01
   3.314235e+01  -1.466554e+01
   1.696964e+01   6.528641e+01
   2.158874e+01  -2.675829e+01
  -2.537973e+00  -3.879441e+01
   2.251742e+01   2.893545e+01
   2.760624e+00  -6.646338e+01
  -9.056085e+00   3.553033e+01
  -2.401464e+01  -2.768034e+01
  -6.537292e+00   2.115557e+01
  -4.113986e+01  -1.843048e+01
  -3.771034e+01  -3.179678e+01
   1.268881e+01  -2.147033e+01
   5.162070e+01  -2.042352e+01
   1.075282e+01   1.772691e+01
   3.355509e+01   6.723937e+01
   6.711164e+01   5.368219e+01
   6.684112e+01  -3.698286e+01
   7.911273e+01  -2.953696e+01
  -2.662089e+01  -2.063993e+01
   2.955663e+01  -4.150273e+01
   3.855061e+01   3.095740e+00
  -1.911468e+01   1.694412e+01
  -5.385000e+01   1.527408e+01
   9.882909e+00   2.039420e+01
  -2.801884e+01   5.042298e+01
   9.251720e-01   4.877845e+01
   1.039110e+01  -1.874282e+01
   5.868631e+01  -3.604826e+00
   5.460035e+01   4.757585e+01
  -2.094631e+01  -3.280569e+01
  -3.584748e+01  -1.935662e+01
   4.421798e+01   1.433556e+01
   3.826805e+01   6.690054e+01
  -2.388158e+01   2.512956e+00
  -2.105829e+01   2.447199e+00
  -4.281665e+01  -5.659972e-01
  -3.728971e+01  -1.612884e+01
   8.914325e+01   2.299079e+00
   2.950145e+01   1.154105e+00
   6.318240e+00  -1.264666e+00
  -1.669198e+01   2.263848e+01
   5.371624e+01  -3.164132e+01
   2.047766e+01  -4.109955e+00
   7.218037e+01   1.706391e+01
  -9.232739e+00  -4.372899e+00
  -5.684319e+01   1.688256e+01
   2.919213e+01  -3.263954e+01
   5.225539e+00   2.611836e+01
   2.387252e+01  -3.018890e+01
   1.760734e+01  -2.352383e-01
  -3.235484e+01  -2.693444e+01
  -1.717315e+01   1.439561e+00
  -9.710746e+00   9.205962e+00
  -3.482814e+01  -1.010688e+00
  -4.219554e+00   1.215903e+00
   1.107601e+01  -1.893155e+01
   1.890723e+01   3.694668e+01
   3.200685e+01   3.919932e+01
   2.991415e+01  -7.061651e+01
   1.488834e+01   4.130399e+01
  -3.201353e+01  -3.233289e+01
   8.994755e+00   1.938163e+01
   1.518000e+01  -6.369389e+01
   2.553931e+01  -3.133455e+01
  -3.721134e+01  -2.326853e+01
   1.427379e+01   2.553791e+01
   4.743354e+01   9.295942e+00
  -5.345455e+00   1.002598e+01
   5.992205e+01  -3.662429e+01
  -1.893033e+01  -5.306044e+01
  -6.280465e+01  -1.697543e+01
   3.919253e+01   3.050874e+01
  -9.061877e+00  -3.967570e+01
   1.403419e+01  -2.824616e+01
  -2.496624e+01  -7.014283e+01
  -1.206155e+02  -1.654847e+01
   1.881471e+01  -1.546340e+00
   6.591482e+00  -1.312082e+01
  -2.380817e+01   1.078973e+01
  -4.913566e+00   5.998113e+01
  -9.102901e+00   1.878207e+00
  -1.912640e+00   2.964044e+00
   8.446589e+00  -2.070610e+01
  -8.863213e-01  -2.211302e+01
  -7.231871e+01  -3.275933e+01
   2.787248e+01   4.172097e+01
  -4.519440e+00   2.431974e+00
   7.084471e+00  -6.599227e-01
   1.190573e+01   1.338688e+01
   8.031082e+00   1.127831e-02
   1.682821e+01   2.780251e+01
  -9.107453e+00  -2.871228e+01
  -1.797144e+01  -1.491427e+01
   3.682799e+01   1.896472e+00
   2.432549e+01  -1.661387e+01
  -4.002205e+01  -3.074838e+01
   3.672560e+01   4.631425e+00
  -9.843565e+00   6.176029e+01
   1.666850e+01  -2.760714e+01
  -3.105475e+01   3.228994e+01
  -4.525806e+01   7.864539e+00
  -1.051704e+01   1.515791e+00
  -1.646803e+01  -4.358635e+01
  -2.274871e+01  -3.509915e+00
  -1.790892e+01   5.665708e+01
   4.073549e+00  -3.246885e+01
  -3.839922e+01  -2.073823e+01
  -1.797305e+01  -4.320461e+01
  -2.560614e+01  -1.906602e+00
  -5.604386e+00  -2.592561e+01
  -2.469946e+01  -5.118152e+00
  -1.915976e+00  -1.398232e+01
   2.518503e+01   3.289342e+01
  -1.819644e+01   2.057053e+00
   1.075481e+00  -7.145542e+00
   1.443160e+01  -2.992863e+01
   4.114629e+00   3.875507e+01
   2.743128e+01  -2.070415e+01
  -1.554023e+01  -1.651703e+00
  -4.983884e+01  -9.238260e-01
  -1.421000e+01  -2.237431e+01
  -9.828300e+00  -8.401526e+00
  -1.228617e+00   1.954538e+01
   3.085392e+01   7.834837e+00
  -2.849879e+01  -4.752295e+01
  -2.793683e+01  -2.303846e+00
   5.185809e+01  -7.701459e+01
  -4.202583e+01  -8.895857e+00
  -3.972201e+00  -1.068291e+00
  -2.034409e+01   7.976854e+00
  -5.683033e+01  -5.096270e+01
  -3.472673e+00   3.434274e+01
   4.307592e+01   8.542925e+00
   1.690763e+01   2.498091e+01
  -3.543756e+00  -4.558469e+01
  -8.674372e+00   5.530787e+00
   2.680846e+01   2.453630e+01
   2.505291e+01  -3.017324e+00
  -2.799642e+01   3.415321e+01
   6.326544e+00   7.171515e+01
  -4.091861e+00  -6.253182e+01
   3.845083e+01  -5.262463e+01
   5.292780e+01   1.592841e+01
   2.503767e+01  -2.246315e+01
  -1.901913e+01  -4.660511e+01
  -1.912162e+01   4.271936e+00
  -2.827849e+01  -4.299477e+01
  -5.558561e+00   6.115282e+01
   5.910520e+01   7.680549e+00
  -1.315593e+01   3.780052e+01
   5.613466e+01  -5.806926e+00
  -3.825179e+01   3.985605e+00
  -2.605868e+01  -6.720531e+00
   9.392004e+00  -2.260156e+01
   5.681083e+00   3.360248e+01
  -3.598013e+01   4.961467e+01
  -1.697904e+01  -5.025445e+01
  -1.697786e+01  -1.371715e+01
   4.306704e+01   6.864699e-01
   3.416731e+01   7.556477e+00
  -2.953853e+01   2.372462e+01
   5.390193e+01  -9.351606e+00
   1.336908e+01   1.108810e+01
  -8.271524e+00   4.616903e+01
   1.491545e+01   1.715282e+00
   2.084820e+01  -3.045333e+01
   3.644023e+01  -1.332769e+01
  -1.403169e+01  -4.015744e+01
   1.175467e+01   1.300718e+01
  -2.529310e+00   4.943587e+01
  -4.658420e+01   5.307723e+01
  -2.225985e+01   1.810491e+01
  -1.544814e+01  -1.130334e+01
   6.745872e+00  -3.669849e+01
   4.218849e+01   5.100862e+00
   1.286256e+01  -2.455053e+01
  -1.263973e+01   3.328552e+00
   5.276620e-01   2.279285e+01
   8.750321e+00   4.479316e+00
  -1.290319e+01  -4.804276e+01
  -2.539163e+01   1.097040e+01
  -4.090079e+01   6.381592e+01
  -1.077153e+01  -5.772214e+01
   2.130831e+01   2.257054e+00
  -2.626597e+00  -9.309628e+00
   5.288665e+00  -7.240687e+01
  -3.396099e+01  -4.804266e+01
   4.300736e+01   3.074804e+01
  -2.962372e+01   1.618590e+01
