
 $NMID
 id='ANONYMOUS ', fmtdat='(2E16.6)'
 volume=1.0
 tramp=1.0
 $END
  -3.428790e+03   1.238153e+02
  -2.225261e+03  -1.860351e+03
   2.303752e+02  -2.204007e+03
   1.525977e+03  -1.056054e+03
   8.880927e+02   1.358153e+02
  -2.706564e+02   3.583612e+02
  -5.113201e+02  -2.718155e+02
  -4.644942e+01  -7.728728e+02
   5.765830e+02  -6.420103e+02
   6.676851e+02   2.921251e+01
   4.426903e+02   5.904513e+02
  -6.607959e+01   6.859560e+02
  -4.683436e+02   1.326409e+02
  -3.469879e+02  -5.252655e+02
   1.218023e+02  -6.329062e+02
   4.760616e+02  -3.603571e+01
   2.732450e+02   5.118643e+02
  -1.379641e+02   5.763581e+02
  -4.606898e+02   2.071748e+02
  -3.638514e+02  -2.073044e+02
  -9.740110e+01  -4.040150e+02
   1.616710e+02  -1.980859e+02
   1.259610e+02  -1.378185e+01
  -9.771859e+01  -2.147200e+01
  -2.983628e+02  -1.457522e+02
  -7.773738e+01  -3.420296e+02
   3.961390e+02  -2.761533e+02
   6.373553e+02   1.325705e+02
   3.242803e+02   3.315176e+02
  -3.183896e+02   3.146939e+02
  -5.126498e+02  -8.120466e+01
  -2.571065e+02  -3.941468e+02
   2.182604e+02  -4.303327e+02
   4.674544e+02  -1.993299e+02
   3.206096e+02   1.792907e+02
   6.106147e+01   3.442525e+02
  -8.139596e+01   2.072321e+02
  -7.018595e+01  -9.689860e+01
   1.092407e+02  -2.710549e+02
   3.073883e+02   8.799321e+01
   1.013754e+02   4.617976e+02
  -2.413900e+02   5.382783e+02
  -4.193618e+02  -1.712780e+00
  -1.675955e+02  -4.015241e+02
   2.054801e+02  -1.621464e+02
   2.703086e+02   2.916773e+02
  -5.286478e+01   4.006321e+02
  -4.532107e+02   1.169083e+02
  -5.228483e+02  -3.420547e+02
  -1.885874e+02  -4.852229e+02
   2.674848e+02  -2.206964e+02
   5.302430e+02   1.670788e+01
   2.827423e+02   2.443505e+02
  -2.029515e+01   1.919056e+02
  -3.272078e+02   1.122950e+02
  -1.912455e+02  -6.274197e+01
   1.552155e+01  -9.513435e+01
   9.275292e+01   1.086138e+02
  -9.648395e+01   1.154394e+02
  -2.267253e+02  -1.799049e+01
  -1.365792e+02  -1.731486e+02
   1.834605e+02  -1.667312e+02
   2.640695e+02  -1.504652e+02
   2.137736e+02   9.585422e+01
  -4.330092e+01   2.177602e+02
  -2.163299e+02   3.338242e+02
  -3.287364e+02   2.236985e+02
  -2.172070e+02  -1.737426e+02
  -3.673811e+01  -4.127756e+02
   5.850707e+01  -3.470171e+02
   5.217644e+01  -1.281847e+02
  -9.950007e+00  -2.204968e+01
   6.298922e+01  -9.741836e+01
   2.442050e+02  -8.357049e+01
   2.198466e+02   8.399402e+01
   8.562111e+01   2.288745e+02
  -6.024499e+01   1.537652e+02
  -2.276338e+02   1.997749e+01
  -1.966460e+02  -1.332877e+02
   3.062469e+00  -2.608087e+02
   2.637260e+02  -5.114029e+01
   2.941647e+02   1.435538e+02
   1.413405e+02   2.828094e+02
  -6.198039e+01   2.714289e+02
  -1.947398e+02   1.614038e+02
  -1.622584e+02   5.890221e+01
  -8.858673e+01   5.274489e+01
  -2.415447e+02   1.719213e+01
  -3.953278e+02  -2.966609e+01
  -2.878600e+02  -2.699258e+02
  -4.677313e+01  -4.356340e+02
   3.081107e+02  -3.921527e+02
   4.245692e+02  -1.541153e+02
   2.960300e+02   8.162238e+01
   3.943578e+01   2.830517e+02
  -1.018669e+02   1.868838e+02
  -5.937382e+01   6.097734e+01
   8.562381e+01  -5.272835e+01
   1.608086e+02   2.185719e+01
  -1.151720e+01   1.775395e+02
  -1.277328e+02   1.347047e+02
  -1.120256e+02  -4.773616e+01
   3.595538e+01  -1.431817e+02
   1.675947e+02  -2.529547e+01
   1.073562e+02   2.094314e+02
  -3.355674e+01   2.942894e+02
  -2.085435e+02   1.314827e+02
  -3.337872e+02  -4.542983e+01
  -2.132592e+02  -1.765516e+02
  -5.465259e+01  -2.292040e+02
   8.756333e+01  -1.303170e+02
   1.312812e+02  -5.885384e+01
   2.904192e+01  -9.486528e+00
  -4.595328e+01  -6.373148e+01
  -3.512125e+01  -9.958447e+01
   1.296675e+02  -9.657112e+01
   9.375973e+01   3.623237e+01
   5.924137e+01   3.241159e+01
  -5.123377e+01   4.001906e+01
  -2.241673e+01  -7.213306e+01
   1.422492e+02  -7.487689e+01
   2.810103e+02  -9.830693e-01
   2.678666e+02   1.543394e+02
   1.849042e+01   2.565810e+02
  -1.610807e+02   1.759302e+02
  -2.727583e+02   1.043328e+02
  -1.105884e+02  -1.187095e+02
   4.563975e+01  -1.120354e+02
   2.023764e+01  -2.782036e+01
  -6.067464e+01   1.265579e+02
  -1.950227e+02   2.099796e+01
  -1.343147e+02  -7.081319e+01
  -4.167875e+01  -2.074213e+02
   1.350029e+02  -1.498608e+02
   1.078427e+02  -6.768091e+01
   2.708847e+01  -5.238463e+00
   7.890916e+00   4.427050e+01
   9.385208e+00  -8.059073e+01
   4.509989e+01  -1.019858e+01
   1.559060e+02  -7.347986e+01
   1.472242e+02   5.619812e+01
   5.374402e+01   1.993641e+02
  -1.354792e+02   1.473332e+02
  -2.302761e+02   4.049920e+01
  -2.858224e+01  -9.294418e+01
   1.175399e+02  -4.269555e+01
   2.690833e+01   1.783307e+00
   2.540708e+00   1.332926e+01
  -5.957717e+01  -4.090645e+00
   1.383009e+01   5.695615e+01
   5.352929e+01   5.182631e+01
   9.127331e+01   5.546439e+01
  -9.892485e-01   1.252188e+02
  -4.021704e+01   1.116171e+02
  -2.700354e+02   1.431121e+01
  -2.273539e+02  -1.795339e+02
  -5.527995e+01  -2.261347e+02
   7.148722e+01  -1.619037e+02
   1.216367e+02  -2.405581e+01
   3.981403e+01  -2.320888e+01
   5.477253e+01   3.958088e+01
   8.784640e+01  -3.144295e+01
   6.019250e+01  -2.777793e+01
   1.030422e+01   6.275727e+01
  -6.827294e+01   7.385999e+01
  -1.222036e+02   1.273163e+02
  -3.980113e+01   1.419291e+01
   9.339126e+00  -8.602046e+01
   1.580368e+02  -9.362747e+01
   2.434924e+02   9.118413e+01
   1.004472e+02   1.778369e+02
  -8.067342e+01   2.189603e+02
  -2.394212e+02   6.231799e+01
  -2.435814e+02  -2.496551e+01
  -9.977280e+01  -8.378355e+01
   4.937680e+01  -1.790759e+02
   9.608727e+01  -8.210576e+01
   5.840786e+01  -5.250152e+01
   5.775147e+01  -9.633384e+01
   8.309480e+01  -1.114887e+02
   1.754314e+02   4.531822e+00
   1.555563e+02   1.683463e+02
  -1.198116e+00   2.028846e+02
  -1.362101e+02   1.674704e+02
  -1.378365e+02  -1.251971e+01
  -7.980639e+01  -9.596505e+01
  -8.898138e+00  -1.379019e+02
   7.175989e+01  -5.989049e+01
   1.006274e+02  -3.975845e+01
  -1.168709e+01  -5.668106e-01
   2.775716e+01   3.541364e+01
   1.854355e+01  -4.906182e+00
   1.152462e+02   8.565273e-01
   3.092045e+01   3.115902e+01
  -7.764936e+01   1.108262e+02
  -1.484222e+02  -4.630291e+01
  -1.194463e+02  -6.224641e+01
  -3.854982e+01  -6.434393e+01
   9.872255e+01  -4.373254e+01
   1.669310e+02   2.232600e+01
   2.978143e+01  -3.721562e+01
  -6.890230e+01   1.837731e+01
  -5.851731e+01  -2.657996e+01
   2.652359e+01  -1.174766e+02
   2.023144e+01   5.015486e+00
   1.286219e+02   1.537131e+01
   6.805699e+01   5.532860e+01
   4.385229e+01   5.796321e+01
   6.181454e+00   5.777250e+01
   1.062136e+02   4.116182e+01
   5.254618e+01   5.119052e+01
  -2.602267e+01   1.487365e+02
  -1.402053e+02   1.497979e+02
  -1.520641e+02   1.241251e+01
  -1.360229e+02  -9.967852e+01
  -1.747097e+01  -1.862404e+02
   4.889378e+01  -2.505837e+01
   1.398226e+01  -3.246100e+01
  -3.270160e+00   2.285387e+01
  -1.713924e+02   7.747340e+00
  -1.049702e+02  -1.166334e+02
   9.130305e+01  -7.362800e+01
   1.486152e+02  -9.264010e+01
   1.432885e+02   3.640176e+01
   5.177323e+01   1.348476e+02
  -6.868293e+01   4.718576e+01
   1.499271e+00  -2.144953e+01
  -1.348240e+01   7.276839e+00
   7.602176e+01   7.140588e+00
  -2.327545e+00   9.786975e+01
  -5.648794e+01   1.152745e+02
  -1.262145e+02   5.306361e+01
  -1.183663e+02  -6.235245e+01
  -5.218166e+01  -1.184085e+02
   9.810102e+01  -1.399537e+02
   7.900848e+01   3.103471e+01
   7.580487e+01   9.148388e+01
   2.499270e+01   5.419214e+01
  -3.675024e+01   1.306323e+01
  -5.115097e+01  -2.608376e+01
  -2.946485e+01  -3.102135e+01
  -1.476137e+01   3.512721e+01
  -4.741059e+01  -8.945677e+01
  -6.928210e+01  -6.399838e+01
  -8.702947e+00  -1.166384e+02
   1.110072e+02  -1.404819e+01
   7.122572e+01  -1.001786e+00
   1.393845e+02   7.743793e+01
   2.564491e+01   9.417211e+01
  -6.663023e+01  -5.033571e+00
  -8.608554e+01   2.938383e+01
  -2.003227e+01  -3.187494e+01
   2.321565e+01  -4.067333e+01
  -5.149859e+01   8.234369e+00
  -3.680459e+01   3.176926e+01
  -3.203169e+01   3.790788e+00
   5.070413e+01   1.286595e+01
   1.248679e+02  -1.662484e+01
   3.755654e+01  -9.247437e+00
  -1.406261e+02   1.328239e+02
  -1.694251e+02   6.893921e+01
  -1.576335e+02  -5.489091e+01
   2.134710e+00  -1.377365e+02
   9.178585e+01  -1.496013e+02
   8.839757e+01   4.108058e+00
   8.712087e+01   2.845988e+01
   2.023273e+01  -7.149388e+00
   3.289340e+01   4.230797e+01
   4.006122e+01   8.645114e+01
   2.584237e+01   1.308153e+01
   2.386810e+01   8.130618e+01
   1.005776e+01   5.019204e+01
  -9.957365e+01   1.204557e+01
  -4.733702e+01  -1.097311e+02
   1.079247e+01  -1.072486e+02
   7.766870e+01  -1.228161e+01
   1.046080e+02   7.634144e+01
   9.859653e+01  -1.765098e+00
  -5.067236e+01   9.727982e+01
  -8.128406e+01  -1.151065e+01
  -4.043201e+01  -4.258134e+01
  -4.571442e+00  -4.076840e+01
   1.064468e+02  -1.345092e+01
  -1.341910e+01   5.931858e+01
  -9.453502e+01   6.473554e+01
  -6.735041e+01  -3.498170e+01
   4.263130e+01  -6.303380e+01
   1.459619e+02  -1.359021e+01
   3.064580e+01  -2.557585e+00
  -8.911080e-01   3.550227e+01
  -5.947960e+01   3.895663e+01
  -3.513611e+01  -2.669234e+01
  -3.817908e+01  -4.444105e+01
   4.325503e+01   4.739868e+01
   8.725496e+01   5.141869e+00
   5.183544e+01   6.422373e+01
   1.238388e+01   2.681188e+01
  -2.429454e+01  -1.793948e+01
  -7.235022e+01  -2.976524e+01
   8.666362e+00  -6.073105e+01
  -2.390245e+01   4.645718e+01
   3.628529e+01  -4.492611e+01
   9.532921e+00  -1.498725e+01
   7.023978e+01  -9.653714e+01
  -1.493330e+01  -1.561275e+01
  -1.139828e+00   6.777253e+01
  -2.635303e+01   6.259154e+01
   5.056343e-01  -2.500294e+00
  -5.082244e+01  -4.388806e+01
  -1.703080e+01  -6.039370e+01
   2.888468e+01  -3.891359e+01
   5.390642e+01   9.505282e-01
   3.000132e+01   3.775530e+01
  -4.595119e+01   3.913633e+00
  -7.822624e+01   2.345252e+01
   1.127812e+00   2.986457e+01
   2.654576e+01   2.534525e+01
   3.735797e+01  -6.274217e+00
   1.045827e+01  -1.285999e+01
  -8.726900e+01   6.223557e+01
