
 $NMID
 id='ANONYMOUS ', fmtdat='(2E16.6)'
 volume=1.0
 tramp=1.0
 $END
  -2.784918e+03   1.091172e+02
  -2.079102e+03  -1.213843e+03
  -2.737764e+02  -1.831571e+03
   9.345834e+02  -1.301909e+03
   9.224845e+02  -3.883909e+02
   1.751492e+02   1.210848e+02
  -2.679113e+02  -3.149277e+00
  -1.262183e+02  -3.942620e+02
   2.832603e+02  -5.342177e+02
   5.094828e+02  -1.784559e+02
   4.519673e+02   3.857565e+02
   1.085107e+02   5.576369e+02
  -2.130425e+02   2.476629e+02
  -2.315642e+02  -2.452055e+02
   7.884999e+01  -4.274466e+02
   3.770079e+02  -1.578350e+02
   2.998320e+02   4.510752e+02
  -7.304615e+01   5.543664e+02
  -3.761280e+02   3.318592e+02
  -4.695972e+02  -9.703528e+01
  -1.843346e+02  -3.091341e+02
   1.130815e+02  -2.341879e+02
   1.609567e+01  -5.437097e+01
  -1.714972e+02  -1.067257e+02
  -1.537878e+02  -2.428266e+02
   4.354090e+01  -3.002826e+02
   3.988389e+02  -1.167610e+02
   4.240075e+02   1.334877e+02
   1.952157e+02   2.660612e+02
  -2.784797e+02   1.410278e+02
  -4.212563e+02  -1.975229e+02
  -1.194949e+02  -3.137537e+02
   2.409501e+02  -3.087789e+02
   3.489469e+02  -1.037094e+02
   3.346686e+02   1.187010e+02
   5.666580e+01   2.767786e+02
   7.170067e+01   1.242597e+02
   8.080411e+01  -3.657641e+01
   9.033151e+01  -6.795524e+01
   1.544261e+02   1.079023e+02
  -7.092416e+01   4.535504e+02
  -2.474797e+02   3.414513e+02
  -2.266762e+02   1.719307e+01
  -1.255657e+02  -2.171427e+02
   1.142446e+02  -1.641475e+02
   1.569364e+02   2.485946e+02
  -1.081315e+02   3.696427e+02
  -3.458950e+02   6.863715e+01
  -4.365339e+02  -3.699464e+02
  -1.357398e+02  -4.662001e+02
   2.828872e+02  -2.253021e+02
   4.703169e+02  -1.599859e+01
   3.471753e+02   1.609480e+02
  -9.080267e+01   1.466422e+02
  -2.503179e+02   7.863079e+01
  -1.708693e+02   5.938142e+01
  -3.801151e+01  -6.154933e+01
   1.613832e+00   3.518174e+01
  -4.498927e+01  -1.097349e+01
  -1.872217e+02  -3.758263e+01
  -1.348528e+02  -1.515243e+02
   1.174803e+02  -2.574889e+02
   3.431648e+02  -1.488209e+02
   2.597022e+02   1.127785e+02
  -2.332820e+01   2.420959e+02
  -2.990589e+02   3.400095e+02
  -3.313425e+02   1.669375e+02
  -1.278645e+02  -1.355092e+02
  -6.961067e+01  -2.916370e+02
  -5.598169e+01  -2.959407e+02
  -6.846420e+01  -1.665955e+02
   6.926915e+01  -1.129293e+02
   2.113603e+02  -1.122836e+02
   2.759132e+02  -2.806949e+01
   2.418234e+02   1.308069e+02
   4.970063e+01   2.322910e+02
  -9.852956e+01   1.504877e+02
  -1.578473e+02   1.307068e+01
  -7.168285e+01  -1.621180e+02
   8.199181e+01  -2.541982e+02
   1.764717e+02  -1.018721e+01
   2.957177e+02   9.563791e+01
   1.856834e+02   3.132198e+02
  -8.970090e+01   2.459096e+02
  -1.503585e+02   1.684414e+02
  -1.178729e+02   1.076556e+02
  -1.305203e+02   9.018098e+01
  -2.558276e+02   9.416254e+00
  -4.113040e+02  -1.117584e+02
  -3.152988e+02  -3.168795e+02
   1.474646e+01  -3.735226e+02
   3.579577e+02  -4.361660e+02
   4.361680e+02  -1.992398e+02
   2.603666e+02   1.352302e+02
   3.401867e+01   2.192069e+02
  -4.107404e+01   2.174119e+02
   2.344329e+01   6.347610e+01
   1.249315e+02  -2.766983e+01
   1.184917e+02   5.003835e+01
   4.100822e+01   9.374082e+01
  -1.194911e+02   1.102134e+02
  -3.191780e+00  -9.715225e+01
  -3.351467e+01  -8.667446e+01
   1.156150e+02   2.544132e+01
   1.344499e+02   1.594307e+02
  -2.635960e+01   3.022216e+02
  -1.956981e+02   1.664755e+02
  -4.179183e+02  -5.409930e+01
  -2.873242e+02  -2.044947e+02
  -8.208066e+01  -2.816229e+02
   1.065508e+02  -7.923353e+01
   1.200989e+02  -7.972247e+01
  -3.894667e+01   2.244835e+01
  -3.750618e+01  -4.240678e+01
   2.923622e+01  -6.452595e+01
   1.240782e+02  -6.343684e+01
   1.195769e+02   3.061474e+01
   4.867364e+01   7.399127e+01
  -6.264678e+01  -1.950026e+01
  -2.970936e+01  -1.002322e+02
   9.174031e+01  -9.907251e+01
   3.397792e+02   1.603290e+01
   2.642992e+02   2.072450e+02
   4.036480e+01   2.031319e+02
  -2.246869e+02   2.092829e+02
  -2.723746e+02   1.405341e+02
  -1.196802e+02  -4.054411e+01
  -6.901901e+00  -3.181033e+01
   5.654544e+01  -7.128745e+00
  -3.716386e+01   8.262875e+01
  -1.776487e+02  -2.151913e+01
  -1.644983e+02  -7.700539e+01
   1.699222e+00  -1.604834e+02
   8.803818e+01  -1.166098e+02
   1.586745e+02  -2.159532e+01
   2.518050e+01  -4.681421e+00
  -4.975976e+01   2.924585e+01
  -3.335816e+00  -1.083413e+02
   1.047594e+02  -1.233242e+02
   2.419380e+02  -3.512321e+01
   1.606340e+02   1.374131e+02
   4.706925e+01   1.768662e+02
  -1.485129e+02   1.251914e+02
  -1.486508e+02  -4.837528e+01
  -3.920125e+01  -1.496704e+02
   5.430555e+01  -7.671926e+01
   7.263933e+01  -1.813286e+01
  -4.872862e+00  -1.857142e+00
  -6.355826e+01   3.038612e+01
   5.713704e+01  -9.409146e+01
   1.208265e+02  -5.665619e+00
   1.595211e+02   8.656060e+01
   1.406011e+01   1.952318e+02
  -1.669685e+02   8.132762e+01
  -2.474322e+02   1.119531e+01
  -1.852530e+02  -1.937770e+02
  -7.921227e+01  -1.524656e+02
   6.513553e+01  -1.183977e+02
   1.876791e+02  -2.166381e+00
   8.816173e+01   2.646136e+01
   3.500784e+01   1.613367e+01
   8.455210e+01  -7.445153e+01
   1.501419e+02   2.526359e+01
   7.424120e+01   4.892815e+01
  -2.300475e+01   9.451639e+01
  -1.570010e+02   3.644729e+01
  -1.110669e+02  -6.845557e+01
   4.523189e+01  -1.326547e+02
   2.061295e+02  -6.694449e+01
   1.856208e+02   1.042906e+02
   7.760613e+01   2.330187e+02
  -8.196773e+01   2.454950e+02
  -3.047762e+02   4.414290e+01
  -2.515464e+02  -7.570701e+01
  -4.375904e+01  -1.592824e+02
   3.931179e+01  -1.319912e+02
   4.954403e+01  -9.461673e+01
   3.937605e+01  -4.220050e+01
   4.973547e+01  -7.202413e+01
   1.123262e+02  -5.041773e+01
   1.447431e+02   3.972682e+01
   9.389337e+01   1.370028e+02
   5.352546e+01   1.909163e+02
  -8.546847e+01   1.317689e+02
  -1.857633e+02   9.672888e+00
  -3.581356e+01  -1.358155e+02
  -6.247290e+01  -1.990185e+02
   7.431292e+01  -1.692180e+01
   1.196207e+01   3.975558e+01
  -1.818929e+01   9.191984e+01
  -4.270860e+01   9.124263e+01
  -1.018492e+01  -4.115975e+01
   6.673791e+01   2.199444e+01
   5.333769e+01   5.152875e+01
  -4.513946e+01   4.490023e+01
  -1.715642e+02   2.546339e+01
  -1.407969e+02  -4.106486e+01
   2.456794e+01  -5.884800e+01
   1.716468e+02  -1.118513e+02
   1.131923e+02   1.809086e+01
   1.247230e+01   5.154501e+01
  -1.441627e+02   4.407399e+01
  -5.143296e+01  -2.730445e+01
  -8.528205e+01  -6.083973e+01
   8.962148e+01  -6.958236e+01
   6.355588e+01  -1.708232e+01
   5.104152e+01   4.353440e+01
   2.910177e+01   7.535038e+01
   8.318620e+01  -1.050467e+01
   1.046938e+02  -1.723823e+01
   4.321042e+01   1.285981e+02
  -4.813245e+01   1.345906e+02
  -1.314769e+02   1.599334e+02
  -1.687108e+02   1.320810e+01
  -1.168880e+02  -7.031920e+01
   1.861879e+01  -1.359261e+02
   1.280934e+02  -4.136806e+01
   7.257127e+01  -2.056455e+01
  -8.957727e+01   5.645321e+01
  -1.192285e+02   2.086299e+01
  -6.117108e+01  -8.463736e+01
   1.516998e+01  -1.098361e+02
   1.812338e+02  -4.817362e+01
   1.210482e+02   5.066538e+01
   6.680509e+01   3.461417e+01
  -2.884459e+01   7.107845e+01
  -2.565005e+01  -1.220543e+01
  -1.459874e+01  -9.399889e+01
   8.320168e+01  -2.297565e+01
   8.302024e+01   1.219818e+02
  -6.354326e+01   1.666198e+02
  -2.126056e+02   1.088728e+02
  -1.022668e+02  -8.257400e+01
  -6.930246e+01  -2.069513e+02
   6.506848e+01  -1.108165e+02
   9.610781e+01  -2.087485e+01
   1.970749e-01   7.347888e+01
  -3.722157e+01   1.161651e+02
  -1.445360e+02  -1.250227e+00
   2.980482e+01  -1.241876e+01
  -8.725324e+00  -6.608358e+01
  -1.349530e+00  -2.256968e+01
  -1.535047e+01  -6.050935e+01
  -9.223502e+01  -4.016082e+01
  -1.651101e+01  -5.917507e+01
   7.549351e+01  -4.674803e+01
   1.108639e+02   6.083974e+00
   1.282006e+02   8.406291e+01
   1.325157e+01   7.678564e+00
  -4.686057e+01   1.054264e+01
  -1.148697e+02  -2.555183e+01
  -1.828505e+01  -4.745543e+01
   3.303672e+01  -3.374660e+01
  -2.567505e+01  -2.485511e+01
  -6.504015e+01   2.414291e+01
   7.831374e+00  -3.847045e+00
   9.245879e+01  -1.475885e+01
   7.427710e+01   4.130647e+01
   2.642470e+01   8.272347e+01
  -9.820519e+01   1.181020e+02
  -1.297351e+02   6.449085e+01
  -1.815137e+02  -6.389903e+01
  -2.636831e+01  -1.643242e+02
   4.935121e+01  -1.577006e+02
   6.566540e+01  -1.135514e+02
   2.674753e+01   1.222193e+01
   2.076749e+01   1.073106e+01
   3.235918e+01   3.163837e+01
  -7.902154e+00  -6.025855e+01
   6.773756e+01   4.364630e+01
   3.782515e+01   1.160286e+02
   2.804829e+01   8.953082e+01
  -8.660617e+01  -4.002284e+01
  -9.055144e+01  -1.394949e+02
  -4.937921e+01  -1.020066e+02
   8.373745e+01  -7.423514e+01
   9.429181e+01   1.040969e+02
   2.834568e+01   9.280825e+01
  -5.562860e+01   7.695684e+01
  -3.356484e+01  -3.354312e+01
  -6.956362e+00  -5.506517e+01
   1.828985e+01  -5.862296e+01
   6.513704e+01   5.407889e+01
  -3.189332e+01   1.813629e+01
  -5.216786e+01  -3.005783e+01
  -1.347426e+01   9.977405e+00
   5.385768e+01   6.890643e+00
   1.557381e+02  -4.206620e+01
   6.324549e+01   1.990870e+01
   4.542024e+01   4.638056e+01
  -1.108410e+02   9.064450e+01
  -1.095857e+02   4.415811e+01
  -5.362373e+01  -7.361892e+01
  -1.898241e+01  -2.109990e+01
   1.033759e+01  -1.084694e+01
   2.560249e+00   4.374099e+01
  -7.234514e+00   1.875111e+01
  -5.315362e+01   2.840987e+01
  -4.937254e+01  -1.599551e+01
  -4.375493e+01  -1.610954e+01
   1.424508e+01   4.162816e+01
   6.951156e+01  -1.822271e+01
   5.024629e+00  -4.798534e+01
  -2.258593e+01  -7.695408e+01
   1.388298e+01  -4.146874e+01
   7.988108e+01   5.960246e+01
  -4.899901e+01  -2.722499e+01
  -2.001214e+01   3.395882e+01
  -5.611007e+01   6.796466e+00
  -2.763916e+01  -5.646825e+01
   7.761195e+01  -2.823060e+01
   5.948138e+01  -9.889717e+00
   1.099794e+02   2.432834e+01
  -3.413680e+01   2.492701e+01
  -7.590797e+01   8.317574e+00
  -3.469792e+01   4.409728e+01
   2.628062e+01   9.759391e+00
   7.868642e+01  -3.851391e+01
  -4.361872e+01  -1.756766e+01
  -3.328449e+01   5.348174e+01
