
 $NMID
 id='ANONYMOUS ', fmtdat='(2E16.6)'
 volume=1.0
 tramp=1.0
 $END
   3.109151e+03   1.120677e+02
   2.101068e+03   1.436613e+03
   1.791700e+02   1.911311e+03
  -1.075537e+03   1.411655e+03
  -9.880537e+02   4.993705e+02
  -3.134878e+02  -8.393005e+01
   2.297486e+02   7.179858e+00
   9.200500e+01   3.972293e+02
  -3.316670e+02   5.307644e+02
  -5.825405e+02   1.397129e+02
  -4.538599e+02  -4.564753e+02
  -3.804560e+01  -6.352457e+02
   1.954256e+02  -1.880994e+02
   2.060645e+02   3.904365e+02
  -7.892931e+01   5.301420e+02
  -3.278982e+02   1.317508e+02
  -2.571024e+02  -4.917469e+02
   6.722892e+01  -6.751829e+02
   4.226581e+02  -2.879369e+02
   5.361168e+02   1.109063e+02
   2.157602e+02   3.801479e+02
  -1.407998e+02   2.457902e+02
  -7.022647e+01   6.661205e+01
   1.836932e+02   1.165082e+02
   2.237732e+02   3.730000e+02
  -9.027653e+01   3.545673e+02
  -4.538721e+02   6.617448e+01
  -5.666253e+02  -2.407727e+02
  -1.644982e+02  -3.010461e+02
   3.021995e+02  -1.653938e+02
   3.939175e+02   1.534611e+02
   1.494399e+02   3.662413e+02
  -2.486175e+02   3.303082e+02
  -4.683419e+02   1.069739e+02
  -3.230636e+02  -8.941056e+01
  -8.869783e+01  -2.252655e+02
   1.170894e+01  -2.053784e+02
  -1.060880e+02   6.446884e+01
  -1.747579e+02   9.353634e+01
  -1.419105e+02  -9.908334e+01
   4.485099e+01  -4.363505e+02
   2.774588e+02  -3.328108e+02
   2.959643e+02  -1.507665e+00
   9.045541e+01   2.664406e+02
  -1.231221e+02   1.531572e+02
  -1.763104e+02  -3.024995e+02
   1.602088e+02  -4.053702e+02
   4.361902e+02  -1.224422e+01
   5.190322e+02   3.837581e+02
   1.248400e+02   4.895979e+02
  -2.863475e+02   2.614062e+02
  -4.776880e+02  -1.435890e+02
  -2.898718e+02  -2.106449e+02
   1.708712e+00  -1.771766e+02
   2.306229e+02  -1.063026e+02
   1.948037e+02  -3.604380e+01
   8.277775e+01  -5.140030e+00
  -5.745281e+01   2.003724e+00
   1.098010e+02  -5.822881e+01
   2.527143e+02   3.105726e+01
   1.441670e+02   2.292717e+02
  -1.828420e+02   2.624770e+02
  -3.211624e+02   1.764298e+02
  -3.008785e+02  -4.842962e+01
   3.185765e+01  -3.447727e+02
   3.671766e+02  -3.724463e+02
   4.110733e+02  -1.354882e+02
   2.694686e+02   1.892539e+02
  -5.613701e+01   3.408539e+02
   9.211074e+00   3.090312e+02
   1.404630e+01   1.438293e+02
  -9.504481e+00   1.998840e+02
  -2.005857e+02   1.299378e+02
  -2.352560e+02   3.033497e+01
  -2.246911e+02  -2.096031e+02
  -4.832074e+01  -3.116432e+02
   1.497450e+02  -2.457640e+02
   1.770966e+02   8.609681e+01
   1.355803e+02   2.400459e+02
  -1.048116e+02   2.246873e+02
  -3.168628e+02   8.002836e+01
  -2.829543e+02  -1.486822e+02
  -1.701458e+02  -3.463289e+02
   5.033501e+01  -1.969071e+02
   1.266673e+02  -1.683981e+02
   1.617124e+02  -1.270836e+02
   2.048417e+02  -9.963096e+01
   3.241698e+02  -1.936374e+01
   4.760107e+02   8.965529e+01
   3.796244e+02   3.173653e+02
  -1.813333e+01   5.070425e+02
  -3.653694e+02   3.637447e+02
  -4.992617e+02   1.855334e+02
  -2.405642e+02  -8.070646e+01
  -4.430829e+01  -2.735686e+02
   6.960694e+01  -2.079642e+02
   2.370834e+01  -5.002302e+01
  -1.229044e+02   9.926793e+01
  -1.147941e+02  -6.214644e+01
  -4.986282e+01  -1.275166e+02
   1.225028e+02  -1.088289e+02
   1.087873e+02   9.088852e+01
  -4.305606e+01   9.127290e+01
  -1.715099e+02  -3.076799e+01
  -9.882226e+01  -2.324613e+02
   1.632419e+01  -3.382157e+02
   2.226660e+02  -2.089081e+02
   3.748494e+02   1.337763e+02
   2.898640e+02   3.118693e+02
   4.422664e+01   3.332237e+02
  -1.597372e+02   1.372804e+02
  -1.001381e+02  -6.532972e+01
   1.779142e+01   1.012218e+01
   3.268545e+01   2.791743e+01
  -1.564548e+01   1.201727e+02
  -9.843511e+01   8.751250e+01
  -1.852941e+02  -1.050976e+01
  -2.453904e+01  -9.633041e+01
   8.864658e+01  -4.462859e+01
  -4.634820e+00   1.171728e+02
  -1.950447e+02   7.808038e+01
  -3.256799e+02  -2.176817e+01
  -2.842694e+02  -2.253852e+02
  -6.749892e+01  -3.244777e+02
   3.091134e+02  -2.177555e+02
   2.517652e+02  -8.267446e+01
   1.161529e+02   7.083030e+01
  -3.087293e+01   6.367877e+01
  -8.151754e+01  -3.229682e+01
   1.126980e+02  -2.750976e+01
   2.391288e+02  -2.861756e+01
   2.035726e+02   1.233029e+02
   2.847839e+01   1.698466e+02
  -3.148989e+01   9.013346e+01
  -9.729337e+01   1.847337e+01
  -4.754914e+01  -4.138651e+01
   4.427505e+01   7.526247e+01
  -2.707035e+00   1.208318e+02
  -8.757080e+01   1.403316e+02
  -2.148603e+02  -3.447805e+00
  -1.665519e+02  -1.523178e+02
  -1.735518e-01  -2.361076e+02
   1.611456e+02  -1.286144e+02
   1.783222e+02   2.489148e+01
   1.824145e+01   1.203479e+02
  -3.202963e+01   4.909091e+01
  -6.406933e+01   2.771978e+01
  -4.364087e+01  -4.159260e+01
   2.985479e+01  -6.200585e+01
  -5.022431e+01   9.237485e+01
  -1.051113e+02  -3.841717e+01
  -9.078724e+01  -1.371483e+02
  -2.094871e+01  -1.318022e+02
   8.201578e+01  -2.070271e+02
   2.482269e+02   1.973280e+01
   1.488404e+02   1.876581e+02
   2.121149e+01   2.038653e+02
  -9.137951e+01   2.102549e+02
  -1.035521e+02   4.768950e+01
  -6.404063e+01  -3.472214e+01
  -8.293884e+01   4.567117e+01
  -4.952834e+01   3.899935e+01
  -6.840911e+01  -1.299107e+01
  -6.138468e+01  -6.793369e+01
   5.064271e+01  -1.546904e+02
   1.230090e+02  -8.815561e+01
   7.127635e+01   1.073444e+01
  -4.383887e+01   1.342268e+02
  -1.490014e+02   4.679133e+01
  -2.410965e+02  -4.774664e+01
  -1.269138e+02  -2.231845e+02
   1.369779e+02  -1.842650e+02
   2.531783e+02  -8.400430e+01
   2.085662e+02   1.350352e+02
   9.125618e+01   1.624535e+02
  -7.578115e+00   1.157449e+02
  -2.854544e+01   7.076408e+01
  -1.170190e+02   8.637457e+01
  -4.484743e+01   1.308137e+02
  -7.719881e+01   1.406219e+02
  -1.927570e+02  -2.249599e+01
  -9.985021e+01  -1.355457e+02
   1.289793e+01  -2.487068e+02
   7.468836e+01  -1.967472e+02
   2.156608e+02   3.324672e+01
   1.886673e+02   1.371328e+02
   8.130624e+01   1.610615e+02
  -5.988155e+01   1.201628e+02
  -9.979730e+01  -7.722319e+01
   3.043678e+00  -4.170371e+01
   2.394331e+01  -2.905508e+01
  -2.930685e+01  -6.191482e+01
  -8.696244e+01  -6.066060e+01
  -5.257203e+01  -3.261906e+01
   7.409496e+01  -2.760920e+01
   2.506941e+02   3.155641e+01
   1.759607e+02   6.244361e+01
  -3.407562e+01   1.692875e+02
  -9.483498e+01   6.625675e+01
  -1.975874e+02  -1.792873e+01
  -4.724436e+01  -1.037012e+02
   8.680465e+01  -6.167886e+01
   5.027149e+01   3.972223e+00
   1.613766e+01   6.050172e+01
  -5.556647e-01   9.003672e+01
  -1.324233e+02  -3.798072e+00
  -4.101560e+01  -5.803048e+01
  -4.474498e-01  -4.820745e+01
  -6.648405e+01  -1.777986e+01
  -7.050097e+01   2.040450e+01
  -8.742841e+01  -9.228399e+01
   2.488786e+01  -1.665838e+02
   1.339420e+02  -1.219646e+02
   2.365821e+02  -2.708312e+01
   1.658421e+02   1.214638e+02
   1.331667e+01   1.906003e+02
  -1.007072e+02   8.324213e+01
  -4.347949e+01  -2.808210e+01
   7.125486e+01  -5.733481e+01
   1.492575e+02   1.668603e+01
   6.343772e+01   1.858549e+02
  -2.798430e+01   1.172605e+02
  -2.264786e+02   2.620994e+01
  -1.718029e+02  -5.013113e+01
  -2.812873e+01  -5.951812e+01
   6.062015e+01  -2.618504e+01
   4.899901e+01   3.937533e+01
  -5.806745e+01   1.817111e+01
  -1.346164e+02  -1.291941e+01
  -4.837152e+01  -1.163691e+02
   5.092878e+01  -1.444171e+02
   1.545536e+02  -4.439655e+01
   1.072981e+02   1.250267e+02
   1.246037e+00   1.607635e+02
  -8.398088e+01   1.783748e+02
  -4.895889e+01  -2.708884e+00
  -4.028790e+00  -1.412622e+02
  -2.313567e+01  -6.562387e+01
   3.395010e+01   2.777372e+01
   3.505554e+01   2.587766e+01
   3.643863e+01  -1.825042e+00
   3.489877e+01  -4.717300e+01
  -8.960695e+00   4.256944e+01
   6.916005e+01   7.114961e+01
  -2.783815e+01   8.401466e+01
  -6.152947e+01  -5.102804e+01
  -1.738549e+02  -1.973373e+01
  -1.246903e+02  -7.150447e+01
   1.586008e+00  -3.855876e+01
   9.094889e+01  -8.700421e+01
   1.309040e+02  -1.979226e+01
   4.422330e+01   5.905808e+01
  -3.877782e+01   2.658713e+01
  -6.466773e+01   6.614846e+01
  -3.298190e+01   3.260910e+01
   3.052534e+00  -2.707950e+01
  -2.128474e+01   5.359192e+00
  -1.256674e+02  -3.374124e+00
  -4.082022e+01  -5.820634e+01
   1.205497e+02  -9.183974e+01
   1.429388e+02  -8.775413e+01
   1.112456e+02   2.723895e+01
   1.032832e+02   1.806274e+02
  -4.945727e+01   1.626202e+02
  -9.441978e+01   8.067041e+01
  -6.139097e+01  -5.215834e+01
  -4.518008e+01  -4.923529e+01
   2.992569e+01  -9.892071e+00
  -2.089270e+00  -4.719833e+01
  -6.040496e+01  -9.284582e+01
  -3.139252e+01  -1.212770e+02
   8.883180e+00  -4.461119e+01
   1.132790e+02   1.373589e+01
   1.189628e+02   8.479831e+01
   5.413776e+00   1.087191e+02
  -1.021389e+02   6.152537e+01
  -7.543156e+01  -5.310912e+01
  -6.709014e+01  -9.483797e+01
   7.635640e+01  -8.807064e+01
   1.017355e+02   2.292564e+01
   4.417598e+01   7.216107e+01
  -2.567069e+01   7.085074e+01
  -2.135497e+01   4.279143e+01
   3.242183e+01  -3.263875e+01
   6.316772e+01  -4.046034e+01
  -9.075107e+00   2.140734e+01
  -4.860962e+01   6.429359e+01
  -1.112234e+02  -1.331595e+01
  -6.929843e+01  -3.076667e+01
  -1.542973e+01  -1.684540e+02
   1.088192e+02  -1.249488e+02
   2.145432e+01  -6.316424e+01
  -4.293639e+01   1.788670e+01
  -3.543346e+01  -3.503083e+01
   2.380614e+01   1.294013e+01
  -1.671525e+01  -3.734529e+01
  -3.576440e+00  -3.998334e+01
  -4.135868e+00  -1.492201e+01
   6.461396e+01   3.988634e+01
   4.466617e+00  -2.596123e+01
   1.382902e+01   3.106276e+01
   2.815774e+01  -5.376497e+00
   1.667927e+01   1.332424e+01
   3.920656e+01   7.332525e+01
  -7.117556e+01   8.506033e+01
   7.934485e+01  -5.360432e+01
  -3.638397e+01  -1.150616e+02
   4.715271e+01  -5.456177e+01
   4.079420e+01   3.716952e+01
   3.209322e+01   8.419035e+01
  -8.568858e+01   7.514340e+01
  -1.154490e+02  -4.492433e+01
  -1.154582e+02  -5.758896e+01
   8.156902e+01  -2.730815e+01
   2.130585e+01  -7.748749e+01
   7.819053e+00   3.819717e+00
   3.915219e+01  -1.111993e+01
  -5.960923e+01  -1.050731e+01
  -3.873232e+01  -1.902332e+01
   4.813347e+01  -7.589456e+01
