
 $NMID
 id='ANONYMOUS ', fmtdat='(2E16.6)'
 volume=1.0
 tramp=1.0
 $END
   1.644583e+03   3.157027e+01
   8.966393e+02   1.008242e+03
  -3.627820e+02   1.015488e+03
  -8.291144e+02   3.517134e+02
  -2.831366e+02  -3.123728e+02
   2.746595e+02  -2.556413e+02
   3.282134e+02   2.280002e+02
   1.238706e+01   4.308474e+02
  -3.556576e+02   2.748778e+02
  -3.531989e+02  -1.481556e+01
  -1.649733e+02  -3.298228e+02
   1.437304e+02  -3.177606e+02
   2.315524e+02  -4.778967e+00
   9.817145e+01   2.516946e+02
  -5.007543e+01   2.352728e+02
  -2.364011e+02  -1.628800e+01
  -1.370502e+02  -2.113873e+02
   1.336785e+02  -2.058396e+02
   2.864414e+02  -2.202672e+01
   1.069209e+02   1.427012e+02
   2.342255e+00   2.105665e+02
  -8.485579e+01   1.079199e+02
  -4.422729e+01   5.239296e+01
   7.117144e+01  -2.818237e+01
   1.677250e+02   8.622209e+00
   7.716206e+01   1.156191e+02
  -1.540528e+02   2.052565e+02
  -2.696529e+02  -1.493580e+01
  -1.417827e+02  -1.851592e+02
   2.015550e+02  -1.631125e+02
   3.025271e+02  -2.824844e+01
   1.572375e+02   2.030895e+02
  -6.698531e+01   1.616298e+02
  -1.650268e+02   9.882998e+01
  -9.667625e+01  -1.029267e+02
  -2.061111e+01  -1.730601e+02
   8.185504e+01  -1.048939e+02
   6.286248e+01   1.478735e+02
  -6.375515e+01   1.681576e+02
  -1.665540e+02  -9.048154e+00
  -1.100394e+02  -2.620084e+02
   1.108121e+02  -2.131779e+02
   1.884625e+02   2.693361e+01
   1.017120e+02   2.483486e+02
  -8.082509e+01   7.225446e+01
  -1.951345e+02  -1.325644e+02
  -2.286763e+01  -2.166050e+02
   1.969140e+02  -3.726197e+01
   2.111948e+02   1.780798e+02
   8.195759e+01   2.327659e+02
  -1.370805e+02   1.512956e+02
  -2.115905e+02  -2.166474e+01
  -1.137580e+02  -1.478517e+02
   3.906290e+01  -1.486562e+02
   2.012619e+02  -3.484293e+01
   1.140848e+02   3.133983e+01
  -9.539235e+01   1.266555e+00
  -3.077146e+01  -1.035968e+02
   5.313141e+01  -1.038968e+02
   2.188683e+02   7.382541e+01
   7.311069e+01   6.568801e+01
  -9.103286e+01   8.158441e+01
  -1.881994e+02   3.798375e+00
  -1.108293e+02  -9.624686e+00
   6.155595e+01  -1.257887e+02
   7.809349e+01  -9.897157e+01
   1.546420e+02  -4.921066e+01
   8.239843e+01   5.707765e+01
   6.247236e+01   1.125823e+02
  -6.661086e+01   1.597055e+02
  -1.613975e+01   5.032195e+01
  -1.056386e+01   1.861260e+01
  -1.152415e+01   8.643462e+00
  -8.814065e+01   8.936520e+01
  -6.650346e+01  -5.590821e+01
  -3.669729e+01  -9.429704e+01
   2.839372e+01  -6.556170e+01
   6.433310e+01   9.023380e+00
   1.131170e+02   1.325781e+02
  -1.796412e+01   8.864025e+01
  -1.178151e+02   5.939197e+01
  -1.290363e+02  -2.278118e+01
  -2.073573e+01  -7.784263e+01
   1.752414e+00  -8.599546e+01
   1.371137e+02  -3.118082e+01
   4.683545e+01   7.942881e+00
  -5.848582e+00  -5.719459e+01
   6.523442e+01  -1.593849e+01
   1.363440e+02   4.666193e+01
   1.096728e+02   5.141518e+01
  -4.484049e+01   1.622405e+02
  -1.393011e+02   1.718066e+02
  -1.959708e+02   8.713744e+01
  -1.163392e+02  -2.002014e+01
  -1.183239e+01  -8.576793e+01
   6.673508e+01  -1.071340e+02
   9.251687e+01  -2.146540e+01
  -2.943431e+01   3.402028e+01
  -8.532184e+01   2.898601e+01
  -1.885481e+01  -1.243258e+02
   6.259099e+01  -3.720119e+01
   5.769737e+01   3.867030e+01
  -2.864245e+01   1.186873e+02
  -8.843215e+01   2.061428e+01
  -6.714588e+01  -8.215610e+01
   3.022295e+01  -2.069734e+02
   1.330230e+02  -9.392266e+01
   1.126503e+02   6.553446e+00
   9.333516e+01   1.079428e+02
  -9.578741e+00   1.100834e+02
  -4.366377e+01   3.435821e+01
  -8.187587e+01  -2.616407e+01
   1.784400e+01  -2.525195e+01
   4.099890e+01   6.657366e+01
   2.280477e+01   9.042417e+01
  -7.783386e+01   2.954716e+01
  -9.935271e+01   3.251659e+01
   3.634859e+01  -3.179498e+00
   4.284154e+01  -3.571820e+01
   3.533322e+01   4.282991e+01
  -5.819559e+01  -3.983457e-01
  -6.301011e+01   1.912120e+01
  -1.551409e+02  -6.397125e+01
   5.510334e-01  -8.749486e+01
   8.761530e+01  -1.288272e+02
   9.874626e+01  -7.172383e+01
  -9.625296e+00  -2.370811e+01
   8.091275e+00  -2.952936e+01
  -2.912272e+01   9.136645e+00
  -1.240425e+00   5.650011e+00
   7.178018e+01  -1.971303e+01
   3.285576e+01   1.124268e+01
   4.045038e+01   8.537063e+01
  -6.061223e+01   4.734769e+01
  -6.088134e+01  -5.026734e+00
  -1.240430e+01  -6.719037e+01
  -1.755672e+01  -7.034598e+00
  -5.560411e+01   3.976935e+01
  -3.700249e+01   2.001610e+01
  -1.197989e+02   2.385803e+01
  -1.307114e+02  -5.658767e+01
  -3.535286e+01  -5.666701e+01
   5.576229e+01  -7.668752e+01
   4.994847e+01  -3.783887e+00
  -2.752511e+01   2.623766e+01
  -2.010073e+01  -7.554837e+00
  -3.109646e+01  -4.507660e+01
  -4.627404e+00  -1.956593e+01
  -2.115585e+01   6.594251e+00
   1.748300e+01  -3.557862e+01
   3.095290e+01  -2.237350e+01
  -1.467933e+01  -2.619459e+01
   2.009878e+01  -1.004811e+02
   3.534333e+01  -6.166947e+01
   6.032726e+01   7.314043e+00
   1.170740e+02   8.297120e+01
   4.512690e+01   1.244911e+02
  -2.841612e+01   8.876189e+01
   7.274034e+00  -1.763598e+01
  -3.244048e+00  -2.433041e+00
  -5.410289e+01  -3.169151e+01
  -8.650895e+01  -1.395153e+01
  -2.089349e+01  -5.711161e+00
   4.491685e+01   1.189055e+01
   3.992174e+01   9.821841e+00
   1.891514e+01   1.761433e+01
   4.217705e+01   6.429279e+01
  -1.899731e+01   1.636765e+01
  -5.744389e+01  -5.872957e+00
  -1.201175e+02  -1.184950e+00
  -2.323634e+01  -7.332700e+01
   8.706234e+01  -9.380616e+01
   8.436619e+01  -5.669606e+01
   2.173022e+01   2.661085e+01
   6.799410e+01   2.307038e+01
   3.479883e+01   4.643106e+01
  -4.526456e+01  -3.154186e+01
  -5.372239e+01   6.041282e+01
   2.125697e+01   2.510409e+01
  -3.021403e+01   1.281345e+01
  -6.931124e+01  -2.624877e+01
  -4.030786e+01  -7.587938e+01
   8.396241e+00  -7.289976e+01
   2.319936e+01  -9.745401e+01
   1.138351e+02  -4.482731e+01
   6.580422e+01   5.822359e+01
  -1.292730e+01   5.316682e+01
  -1.110471e+02  -1.082179e+01
  -5.064881e+01   3.021740e+01
   3.583465e+01  -7.238552e+01
   4.938745e+01  -9.634333e+01
   5.140062e+00   1.013394e+01
  -2.991197e+01  -1.870596e+01
   4.513014e+01   4.573402e+01
   2.589528e+01  -7.206196e+01
   5.882465e+01   3.022854e+01
   8.549401e+01   1.173333e+01
  -1.731038e+01   8.902065e+01
  -7.152566e+01   6.268497e+01
  -5.700519e+01   2.815628e+01
   4.262637e+00   1.053280e+01
  -2.172837e+00  -1.503134e+01
  -1.205824e+01   3.909467e+01
  -3.255770e+01  -1.013577e+01
  -4.244363e+01  -1.853973e+01
  -1.371240e+01   4.125384e+01
  -6.525463e+00  -2.606029e+01
  -2.708341e+01   8.260490e-01
  -2.656637e+01  -9.016988e+01
   1.263787e+00   1.024065e+01
  -1.300486e+00   2.224207e+00
   2.788452e+01  -1.787235e+01
   1.437256e+02  -6.149427e+00
   1.084331e+02  -3.728307e+01
   8.187591e+00   1.420510e+01
  -2.497231e+01   2.873108e+01
  -4.698409e+01   4.359595e-01
  -1.016820e+02   7.271387e-01
   4.973714e+00  -2.817300e+01
   9.415711e+01  -7.598121e+01
   6.963842e+01   6.635313e+01
  -2.326750e+01   3.448348e+01
  -5.716678e+01   3.645920e+01
   6.609143e+00  -1.547681e+01
  -1.158116e+01  -6.952947e+01
   1.921934e+01  -9.570522e+01
   3.246809e+01  -4.644108e+01
  -2.606288e+01  -6.400405e+01
  -2.557791e+01  -5.911374e+01
  -2.068358e+01  -4.301649e+01
   7.584890e+01  -7.088923e+01
   5.479225e+01  -6.745801e+01
   8.467119e+01   5.815829e+01
  -1.898376e+01   6.087848e+00
  -5.685164e+01   4.682864e+01
  -2.529777e+01   3.008098e+01
   1.855223e+01  -5.525666e+01
  -1.110699e+01  -1.090311e+02
  -1.774150e+01   1.078855e+01
   5.353804e+01   6.497158e+00
   4.636734e+00   1.956801e+01
   2.674226e+01  -7.361810e+00
   4.613084e+01   5.320534e+01
  -1.737845e+01  -4.286080e+01
   2.284288e+01   3.902568e+01
   2.667684e+01  -6.879324e+00
  -7.761938e+01  -3.354322e+01
  -4.039993e+01  -2.082409e+01
   3.424902e-01  -3.794661e+00
   5.569097e+01  -3.268618e+01
   2.859570e+01  -1.815243e+01
   4.966103e+01  -3.045108e+01
   3.695963e+01  -1.441465e+01
  -4.527793e+01   6.981037e+00
   2.235345e+01   1.052061e+01
  -2.017728e+01   4.044514e+01
   2.360589e+00  -1.075097e+01
  -9.161369e+01  -5.777790e+01
   3.613140e+00   5.028787e+00
   4.957107e+01  -2.607168e+01
   9.314636e+01  -1.705166e+01
   3.068735e+01  -4.071901e+00
   4.725752e+01   4.724328e+01
  -3.488636e+01   2.445706e+01
  -4.931099e+01   2.257653e+01
   6.800557e+00  -2.291239e+01
   4.251316e+00   2.648341e+01
  -3.071934e+01   1.050974e+01
   2.331118e+01   2.345783e+01
   2.147418e+01  -1.070686e+02
  -2.295008e+01  -7.231341e+01
   3.858613e+01   3.879577e+01
   6.891691e+01   2.337310e+01
   9.418905e+01   5.756270e+01
  -4.373349e+01   4.110258e+01
  -2.321704e+01  -4.118755e+01
   2.944483e+01  -3.224658e+01
   1.283717e+01  -4.273646e+01
   8.440030e+00   3.453125e+01
  -4.905711e+00  -1.439390e+00
   1.000525e+01   3.630624e+01
  -3.069833e+00   2.882525e+01
  -6.305411e+01  -2.790221e+01
  -2.357768e+01   2.871025e+00
   1.483819e+01  -1.102255e+01
  -3.733015e+01  -8.442355e+01
  -1.056340e+01  -1.101002e+01
  -2.617024e+01   2.509480e+01
  -1.566716e+01  -3.835928e+01
  -7.491478e-01  -2.531795e+01
  -1.544995e+01  -6.981419e-01
   2.697308e+01   2.172561e+01
  -2.121249e+01   4.665938e+01
  -3.855635e+01   4.872541e+01
  -3.919949e+00   3.183107e+01
   1.376055e+01  -1.381685e+00
   3.188678e+01   5.163018e+01
  -1.459001e+01  -9.573888e+00
   7.900416e+01   3.295458e+01
  -2.297949e+01   1.936521e+01
  -1.104224e+01   3.999150e+01
   2.198353e+01   4.384834e+01
  -5.305436e+01   2.015862e+01
   8.604663e+00   2.244076e+01
  -6.568249e+01   7.901553e+00
  -2.718108e+01  -3.374394e+01
  -3.753513e+01  -1.445939e+01
   1.914451e+01   5.622556e+01
   3.053832e+01   4.392376e+01
  -3.989841e+00   3.428250e+01
  -2.521545e+00   1.559715e+01
  -6.026563e+01  -3.062769e+01
   1.978342e+01   6.988686e+00
  -3.140220e+00   2.320144e+01
   3.358999e+00  -4.369655e+00
   2.954964e+01  -1.030465e+01
   6.110116e+01  -1.843016e+01
  -4.030583e+01  -6.220380e+01
   4.737852e-01  -1.852990e+00
   2.693551e+01   3.692937e+01
