
 $NMID
 id='ANONYMOUS ', fmtdat='(2E16.6)'
 volume=1.0
 tramp=1.0
 $END
  -3.244879e+03  -6.548694e+01
  -2.165768e+03  -1.685826e+03
   6.852456e+01  -2.102663e+03
   1.329201e+03  -1.209709e+03
   9.535838e+02  -1.164233e+02
   1.258373e+01   2.633774e+02
  -4.457857e+02  -1.361859e+02
  -7.810018e+01  -5.865522e+02
   5.163372e+02  -6.097730e+02
   6.983034e+02  -4.880822e+01
   4.216847e+02   5.097056e+02
  -2.544175e+01   6.495973e+02
  -3.370008e+02   1.572878e+02
  -2.564036e+02  -4.099689e+02
   1.289601e+02  -5.635266e+02
   4.761818e+02  -5.097104e+01
   2.791363e+02   5.260296e+02
  -1.475667e+02   6.299352e+02
  -4.575886e+02   2.838108e+02
  -4.791074e+02  -2.246646e+02
  -7.963623e+01  -3.492456e+02
   1.335680e+02  -2.518900e+02
   1.290709e+02  -6.476981e+01
  -2.081582e+02  -5.667911e+01
  -2.626638e+02  -2.060817e+02
   4.651784e+01  -3.527737e+02
   4.746713e+02  -1.793730e+02
   6.083866e+02   1.450067e+02
   1.765669e+02   3.649957e+02
  -3.470389e+02   1.994854e+02
  -4.998501e+02  -1.478651e+02
  -1.824585e+02  -3.856191e+02
   2.930850e+02  -3.648213e+02
   4.787181e+02  -1.008129e+02
   2.570550e+02   1.606992e+02
   1.211129e+02   3.203455e+02
  -5.577499e+01   1.643838e+02
   4.772127e+01  -9.945776e+01
   1.665888e+02  -1.311607e+02
   2.296735e+02   7.810836e+01
   3.408001e+01   5.223631e+02
  -2.843136e+02   5.327514e+02
  -3.365155e+02  -1.911356e+01
  -9.795459e+01  -2.939394e+02
   1.721555e+02  -1.366880e+02
   1.858334e+02   2.655623e+02
  -1.041262e+02   3.576494e+02
  -4.362364e+02   3.867755e+01
  -5.108182e+02  -4.318305e+02
  -1.412928e+02  -4.644722e+02
   3.067676e+02  -2.770407e+02
   4.958909e+02   2.705959e+01
   3.621230e+02   2.526901e+02
  -3.881844e+01   2.616747e+02
  -2.604835e+02   6.153150e+01
  -2.697247e+02  -2.917857e+01
   1.069514e+01  -6.571973e+01
   6.322607e+01   8.180606e+01
  -8.196900e+01   3.223496e+01
  -2.117687e+02  -8.168961e+01
  -1.305994e+02  -1.838736e+02
   1.495677e+02  -2.227801e+02
   3.646563e+02  -7.333393e+01
   2.493679e+02   7.921166e+01
   5.674656e+00   3.437565e+02
  -2.689754e+02   3.832333e+02
  -3.579166e+02   1.693790e+02
  -2.555160e+02  -1.405545e+02
  -9.123248e+00  -3.774436e+02
   6.569857e+01  -3.385791e+02
   7.783018e+01  -2.083718e+02
   5.722234e+01  -1.312200e+02
   1.043022e+02  -1.000969e+02
   2.767517e+02  -2.848090e+01
   2.102493e+02   1.199507e+02
   7.315922e+01   2.927025e+02
  -8.225000e+01   1.788075e+02
  -2.283727e+02  -1.548564e+00
  -1.144579e+02  -1.996715e+02
   4.500953e+01  -2.630818e+02
   2.739525e+02  -9.662575e+01
   3.037665e+02   1.738413e+02
   1.370209e+02   3.450410e+02
  -7.602134e+01   2.539505e+02
  -1.795137e+02   1.788731e+02
  -1.065968e+02   3.125992e+01
  -1.806632e+02   6.784707e+01
  -2.697609e+02   2.569832e+01
  -3.951117e+02  -1.493013e+02
  -2.724507e+02  -2.865620e+02
   2.129493e+01  -4.296079e+02
   3.810593e+02  -3.439580e+02
   5.167558e+02  -1.831818e+02
   2.795316e+02   1.158708e+02
  -1.748170e+01   2.680843e+02
  -9.267904e+01   2.092869e+02
  -5.951012e+01   9.938857e+01
   1.192074e+02   1.791385e+01
   1.323267e+02  -5.391155e+00
   1.328652e+01   1.480650e+02
  -1.417310e+02   7.715023e+01
  -1.447466e+02  -4.438721e+01
   5.241230e+01  -1.156745e+02
   1.945347e+02   4.028719e+00
   1.691693e+02   2.152271e+02
  -5.105640e-01   2.824975e+02
  -2.547230e+02   2.132505e+02
  -3.384026e+02  -6.176876e+01
  -2.941906e+02  -2.461806e+02
  -3.118456e+01  -2.358285e+02
   1.202955e+02  -1.811126e+02
   2.390262e+02  -1.257933e+01
   7.092594e+01   1.653660e+01
  -3.712701e+01  -7.427246e+01
   4.046218e+00  -1.162641e+02
   1.376685e+02  -1.046676e+02
   1.582849e+02   1.150090e+02
   2.493426e+01   7.814690e+01
  -5.488766e+01  -1.957509e+01
  -1.788409e+01  -1.017472e+02
   9.310716e+01  -8.466156e+01
   2.908600e+02  -5.195080e+00
   2.477166e+02   1.819653e+02
  -3.816450e+00   2.156168e+02
  -2.084975e+02   2.650729e+02
  -2.691958e+02   8.718375e+01
  -1.651461e+02  -1.080792e+01
   1.397573e+00  -7.555015e+01
   4.907030e+01   1.976495e+01
  -7.322783e+01   8.347408e+01
  -1.959305e+02  -9.881455e+00
  -1.560767e+02  -7.488160e+01
  -1.854821e+01  -1.983302e+02
   9.316780e+01  -1.243470e+02
   1.986498e+02  -2.078350e+01
   6.588641e+01   3.982456e+01
  -2.742127e+01  -8.660258e+00
  -2.608635e+01  -1.413324e+02
   1.165399e+02  -1.507701e+02
   1.513567e+02  -2.849166e+01
   1.574671e+02   9.714913e+01
   3.553312e+01   1.965289e+02
  -1.605475e+02   8.687886e+01
  -1.845433e+02  -2.206536e+01
  -4.009237e+01  -8.785970e+01
   1.179959e+02  -1.521095e+02
   8.776256e+01  -4.217288e+01
   2.670113e+01   2.156367e+01
  -2.221542e+01   6.328071e+01
  -5.245397e+01   3.333257e+01
   5.672160e+01   3.548225e+01
   1.237718e+02   8.942561e+01
   2.680628e+01   1.111886e+02
  -1.439992e+02   1.698673e+02
  -2.552683e+02  -7.136276e+00
  -1.711636e+02  -1.790179e+02
   6.930656e+01  -2.231392e+02
   1.366006e+02  -1.091394e+02
   1.351656e+02  -9.483571e+01
   3.109380e+01   8.295196e+01
   5.766606e+01   6.741013e+00
   7.580366e+01   2.017052e+01
   7.078387e+01   2.810915e+01
   7.645226e+01   7.552222e+01
  -3.862268e+01   8.486589e+01
  -1.495617e+02  -1.279809e+01
  -1.297885e+02  -5.399618e+00
   2.161222e+01  -1.464975e+02
   1.241470e+02  -7.888314e+01
   2.517285e+02   8.280626e+01
   6.395832e+01   1.908255e+02
  -1.252295e+02   1.579463e+02
  -2.576963e+02   7.199514e+01
  -2.042440e+02  -4.509770e+01
  -1.223654e+02  -1.658345e+02
   6.138424e+01  -1.971157e+02
   6.290106e+01  -2.749117e+01
   4.339049e+01  -5.772577e+01
   9.296809e+01  -5.660375e+01
   9.736323e+01  -1.767764e+01
   1.420963e+02   2.090547e+01
   1.132999e+02   1.353708e+02
   3.074743e+01   2.342935e+02
  -5.447743e+01   1.274408e+02
  -2.029208e+02   8.744935e+00
  -1.082440e+02  -8.448605e+01
  -1.920309e+01  -1.916053e+02
   1.081610e+02  -7.425299e+01
   6.655290e+01  -6.210432e+00
  -2.843509e+00   3.953154e+01
  -1.890454e+01   2.870179e+01
   4.020747e+01   1.796850e+01
   1.084136e+02   2.578966e+01
   2.116266e+01   3.688677e+01
  -9.574440e+01   1.004580e+01
  -1.798442e+02  -4.070747e+01
  -1.008051e+02  -7.672451e+01
   2.790973e+01  -1.420112e+02
   1.310529e+02  -6.997884e+01
   1.370852e+02  -7.800897e+00
   8.361774e+01   5.378744e+01
  -6.969925e+01   2.603299e+01
  -1.225188e+02  -6.385345e+01
  -3.942082e+01  -7.147592e+01
   4.523072e+01  -7.559243e+01
   7.231302e+01   1.032453e+01
   4.757369e+01   9.894776e+01
   7.383289e+01   5.792442e+01
   5.375633e+01   4.756059e+01
   6.601896e+01  -2.860453e+00
   3.398267e+00   7.336084e+01
  -4.256683e+01   2.008071e+02
  -9.405242e+01   1.499467e+02
  -1.584467e+02   5.052772e+01
  -1.668152e+02  -8.377569e+01
   8.172870e+00  -1.105230e+02
   9.244756e+01  -5.177325e+01
   9.664968e+01  -4.678221e+01
  -2.788366e+01   2.828232e+01
  -1.368582e+02  -4.737948e+01
  -1.843709e+01  -7.483014e+01
   8.641378e+01  -1.177834e+02
   1.954672e+02  -7.602011e+01
   1.454547e+02   5.853203e+01
   4.076255e+01   1.345260e+02
  -5.847881e+01   8.179688e+01
  -9.687841e+01   7.074293e+00
   7.591279e+01  -4.923745e+01
   1.292695e+02   6.835390e+01
  -2.010240e+01   1.511797e+02
  -6.942489e+01   1.103857e+02
  -1.416466e+02   8.137546e+01
  -1.406531e+02  -7.369999e+01
   3.136750e+00  -2.186163e+02
   1.136552e+02  -1.660426e+02
   9.535153e+01  -1.260503e+01
   2.133996e+01   9.777106e+01
  -3.832256e+01   1.575440e+02
  -8.899926e+01   3.766112e+01
  -7.693305e+01   1.238670e+01
  -5.299069e+01  -2.161691e+01
  -4.885775e+01  -1.227643e+01
  -1.835713e+01  -2.188552e+01
  -9.735592e+01  -8.833042e+01
  -5.372492e+01  -1.015568e+02
   1.719090e+01  -2.645473e+01
   1.527471e+02   8.055158e+01
   4.159068e+01   6.215665e+01
   3.255394e+01  -1.547983e+01
  -8.547782e+01   5.124926e+01
  -2.563489e+01  -1.531088e+01
  -2.662920e+01  -5.967964e+00
   6.084320e+01  -2.668537e+01
   3.127848e+00  -5.291204e+01
  -1.294386e+01   3.435852e+01
  -1.729540e+01   3.450869e+01
   7.571447e+01  -3.101730e+01
   1.102454e+02   5.181891e+01
  -6.704351e-01   2.743777e+01
  -1.384789e+02   5.801081e+01
  -1.961854e+02   8.867930e+01
  -2.062072e+02  -9.015219e+01
  -1.544825e+01  -1.565445e+02
   1.119777e+02  -1.260200e+02
   1.838485e+02  -1.722437e+01
   8.906924e+01   5.698224e+00
   8.667371e+00   6.200924e+01
  -5.942703e+00  -5.139867e+00
   7.892506e+00   2.091497e+01
   4.980691e+00  -9.215540e+00
  -2.113168e+01   7.242458e+01
  -3.021328e+01  -2.631416e+00
  -1.174972e+02   1.727750e+01
  -5.805166e+01  -1.731372e+02
  -2.320002e+01  -4.860454e+01
   4.190624e+01  -5.550267e+01
   7.197318e+01   4.898958e+01
   4.397352e+01   1.130927e+02
  -1.069678e+02   8.578029e+01
  -3.147651e+01  -1.951328e+01
  -1.216650e+01  -7.521152e+01
   9.432891e+01  -4.286406e+01
   7.023898e+01  -5.515094e+01
  -5.929289e+01  -7.306699e+00
  -8.309768e+01  -6.235497e+00
  -1.252095e+01   1.093644e+01
   5.356620e+01  -8.181766e+01
   1.233794e+02  -2.192184e+01
   3.983267e+01   3.510314e+01
   2.471753e+01   9.469792e+01
  -4.431401e+01   5.023841e+01
  -9.393961e+01   4.295070e+01
   5.550531e+00  -5.661833e+01
   8.319269e+01   7.495204e-01
   7.173218e+01   6.346782e+01
   6.389021e+01   1.067010e+02
  -3.298795e+00   6.924687e+01
  -8.006153e+01   1.079962e+01
  -5.499993e+01  -5.181304e+01
   1.852433e+01   1.412736e+01
   1.143852e+01  -1.510426e+01
   2.675173e+01  -3.085660e+00
  -4.051715e+01  -2.066764e+01
   3.680632e+00  -4.545228e+00
   2.095165e+01  -2.647453e+01
   1.072311e+02   3.128983e+01
   4.941465e+01   2.886916e+01
  -1.549287e+01   2.880005e+01
  -6.728518e+01  -2.264542e+01
  -2.913909e+01  -3.676938e+01
   2.691590e+01  -5.215176e+01
   1.207579e+02   5.593114e+00
   7.699654e+01   2.845922e+01
  -2.086734e+00   7.175617e+01
  -8.227247e+01   8.521127e+01
   2.069198e+01  -1.550359e+01
   1.956544e+01   4.051776e+01
   9.466685e+01   1.655898e+01
  -5.970086e+01   3.649317e+01
  -9.230782e+01   3.718881e+01
