
 $NMID
 id='ANONYMOUS ', fmtdat='(2E16.6)'
 volume=1.0
 tramp=1.0
 $END
  -1.365192e+03  -7.394300e+01
  -9.083779e+02  -7.114883e+02
  -1.010403e+02  -8.620847e+02
   5.582338e+02  -6.094309e+02
   4.170501e+02  -1.953264e+02
   5.617154e+01   5.326235e+01
  -7.224467e+01  -7.372912e+01
  -4.278919e+01  -1.923108e+02
   2.010878e+02  -2.614877e+02
   3.065178e+02  -7.179044e+01
   1.762138e+02   2.566582e+02
   7.462836e+01   2.770275e+02
  -1.210106e+02   9.317090e+01
  -9.746072e+01  -2.152168e+02
   2.951188e+01  -2.053991e+02
   1.689840e+02  -7.080564e+01
   1.144645e+02   2.516733e+02
  -6.341478e+01   3.161456e+02
  -1.771728e+02   1.771567e+02
  -2.227904e+02  -5.510029e+01
  -5.912428e+01  -1.242256e+02
   1.018145e+01  -1.779921e+02
   3.684607e+01  -8.799455e+01
  -9.118952e+01  -1.033095e+02
  -9.816117e+01  -2.079243e+02
   4.424549e+01  -1.782214e+02
   1.778124e+02  -5.168445e+01
   2.326607e+02   8.887081e+01
   6.538428e+01   1.800325e+02
  -1.193425e+02  -4.585993e+00
  -2.425591e+02  -8.442187e+01
  -2.474621e+01  -1.663153e+02
   1.225988e+02  -1.041798e+02
   2.290724e+02  -3.104040e+01
   1.402569e+02   1.011838e+02
   2.427477e+01   8.931740e+01
  -1.954529e+01   1.211631e+02
   4.069853e+01  -1.240832e+01
   9.864773e+01  -5.808229e+01
   6.171569e+01   1.152302e+02
   2.446742e+00   1.811581e+02
  -5.903805e+01   1.862128e+02
  -9.710466e+01  -2.424319e+01
  -1.781409e+01  -1.527230e+02
   5.518962e+01  -8.786296e+01
   2.475452e+01   1.298096e+02
  -2.550732e+01   1.683631e+02
  -1.794358e+02   2.011483e+01
  -2.079324e+02  -1.521168e+02
  -5.595022e+00  -1.860002e+02
   1.435841e+02  -1.073305e+02
   1.672306e+02   4.949498e+00
   1.739853e+02   8.291437e+01
  -2.662460e+01   1.024035e+02
  -1.028889e+02   6.168038e+01
  -1.480962e+02   4.626566e-01
   5.510975e+00   2.912509e+01
   2.223413e+01  -5.420624e+00
  -3.004965e+01  -3.286667e+01
  -8.129151e+01  -7.618253e+01
  -6.086364e+01  -3.640492e+01
   1.200340e+02  -1.555858e+02
   1.292740e+02  -1.067893e+02
   1.860225e+02   9.130187e+01
  -2.085273e+01   1.356595e+02
  -1.246983e+02   2.145455e+02
  -1.750392e+02   2.520648e+01
  -8.557807e+01  -1.022190e+02
   5.213022e+00  -1.679060e+02
   3.889666e+01  -1.314525e+02
   5.425755e+01  -6.114993e+01
  -4.872572e+01  -1.565814e+01
   5.654936e+01  -2.070808e+01
   1.213331e+02  -1.167733e+01
   1.629013e+02   2.452556e+01
  -1.174559e+01   9.741543e+01
  -5.668867e+01   1.142777e+02
  -4.721696e+01  -5.141113e+01
  -7.282607e+01  -1.919890e+02
   6.359743e+01  -8.758813e+01
   1.609007e+02  -3.052065e-01
   1.146886e+02   9.361482e+01
   7.529445e+01   1.362535e+02
  -1.021295e+01   1.035605e+02
  -1.024456e+02   1.474195e+02
  -8.921733e+01   6.120203e+01
  -2.227649e+01   3.648809e+01
  -9.238367e+01   3.543614e+01
  -1.967320e+02  -6.820670e+01
  -1.477896e+02  -7.722789e+01
   8.297113e+01  -2.504218e+02
   1.699376e+02  -2.042449e+02
   1.844907e+02  -6.696571e+01
   1.284473e+02   5.992174e+01
  -2.225068e+00   1.493845e+02
  -5.469997e+01   2.398925e+01
   5.385165e+00  -1.368560e+01
   6.855512e+01   2.775815e+01
   1.008290e+02   3.480894e+01
  -7.426264e+01   1.385970e+02
  -7.548113e+01   6.412249e+01
  -5.824648e+01  -1.384742e+01
   7.251627e+01  -3.033195e+01
   1.194907e+02   5.115775e+01
   5.994754e+01   1.320978e+02
  -1.530633e+01   1.254712e+02
  -1.087738e+02   1.039292e+02
  -1.707786e+02  -3.517450e+01
  -8.120822e+01  -1.522453e+02
  -2.318052e+01  -1.484696e+02
   9.215661e+01  -1.430919e+02
   5.582633e+01  -3.547462e+01
  -2.998071e+01  -4.511395e+01
  -7.345933e+01  -1.066012e+02
   1.095262e+01  -1.293206e+01
   3.486913e+01  -3.686415e+01
   8.609376e+01   3.861310e+01
   8.517130e+01   1.358857e+01
  -2.538632e+01   2.717952e+01
   2.547053e+01   1.360831e+01
   3.030497e+01  -5.334421e+01
   1.170453e+02  -1.581692e+01
   9.941198e+01   1.079133e+02
  -1.915673e+01   9.974429e+01
  -1.002802e+02   9.790540e+01
  -7.885143e+01   7.147411e+01
   3.277837e+00   1.511147e+01
  -3.139985e+01  -4.603553e+01
   1.625452e+01   5.472735e+01
  -4.643390e+00   9.237126e+01
  -1.392180e+02   7.426161e+01
  -3.460595e+01  -6.775055e+01
  -1.510470e+01  -3.894497e+01
   4.190192e+01   5.314247e-01
   2.202372e+01   4.669642e+01
   4.069129e+01  -5.742313e+00
   6.191670e+00  -2.235321e+01
  -5.495186e+01  -3.069703e+01
   4.351854e+01  -1.628438e+01
   4.133566e+01   3.039136e+00
   6.478661e+01   6.336023e+01
  -3.259107e+01   1.208875e+02
  -7.106411e+01   2.222352e+01
  -1.283964e+02  -5.287827e+01
  -4.558245e+01   2.164707e+01
   1.634691e+01  -2.924348e+01
  -7.961880e-01  -4.151940e+01
  -7.722724e+00  -9.402896e+00
  -2.245107e+01   2.730790e+01
   5.393290e+01  -4.823507e+01
   6.366758e+01  -8.842950e+01
   8.464233e+01   1.289278e+01
   7.963359e+00   8.695036e+01
  -4.124702e+01   1.439683e+02
  -1.395220e+02   4.680285e+01
  -8.734517e+01  -1.104532e+02
  -4.953545e+01  -1.295924e+02
   5.820753e+01  -7.551233e+01
   9.356283e+01   5.855372e+00
  -3.631881e+01  -1.608371e+01
  -8.829470e+00   1.619534e+01
  -4.358961e+00  -1.373499e+01
   3.491469e+01  -8.418132e+00
   3.217542e+01   1.615088e+01
  -1.916618e+01   6.481865e+01
  -8.110378e+01  -2.875475e+01
   1.158121e-01  -2.139309e+01
  -3.104273e+01  -1.348738e+02
   1.197542e+02   1.431052e+01
   1.300067e+02   8.341541e+01
   7.446466e+00   8.958246e+01
  -8.714221e+01   9.365229e+01
  -1.223819e+02   2.279233e+01
  -1.050563e+02  -3.468578e+01
  -2.184924e+00  -4.161082e+01
  -1.061332e+01  -7.533949e+01
   3.369472e+01  -7.773121e+01
   1.500129e+01  -3.255315e+01
   4.855589e+01  -7.335701e+01
   3.752329e+01  -5.541758e+01
   7.984360e+01   6.918924e+01
   6.286412e+01   8.790091e+01
  -2.838556e+01   9.678392e+01
  -6.378677e+01   1.284728e+02
  -7.111933e+01  -2.557387e+01
  -5.665515e+01  -6.599993e+01
   4.610760e+01  -3.606664e+01
   5.869810e+01  -2.703203e+01
   9.216335e+01   5.215325e+01
  -5.945588e+01   5.025524e+01
   1.331262e+01  -4.066748e+00
   2.184631e+01  -2.077952e+01
  -1.898351e+01   7.092563e+01
   1.042383e+01   2.247160e+01
  -3.784197e+01   3.714442e+01
  -5.542256e+01  -8.701254e+00
  -5.211593e+01  -2.615349e+01
   2.419519e+01  -6.406283e+01
   1.499369e+02  -5.818384e+01
   8.880618e+01  -2.310637e+01
   2.012437e+01   1.812971e+01
  -2.410212e+01   2.121536e+01
  -2.437975e+01  -9.202560e+00
  -1.043169e+01  -2.909323e+01
  -1.683429e+01  -6.369494e+01
  -3.108915e+01  -3.880453e+01
   1.852812e+01  -5.897327e-01
  -4.181385e+01   4.976596e+01
  -2.961728e+01  -3.246922e+01
   4.090993e+01   7.589521e+00
   6.031818e+01   1.250744e+01
  -5.768003e+01   2.063938e+01
  -4.539950e+01   1.588237e+01
  -9.331986e+01   2.507341e+01
  -1.496478e+02  -1.048911e+02
   3.300488e+01  -6.946125e+01
   1.136731e+02  -3.348124e+01
   2.554222e+01  -4.923612e+01
  -4.261708e+01   2.740956e+01
  -1.306217e+02  -6.472388e+01
  -1.329652e+02  -4.060723e+01
   7.541147e+01   7.929555e+00
   1.197591e+02   2.879402e+01
   7.304359e+01   7.139313e+01
   5.416393e+01   5.040247e+01
   1.537273e+01   1.614947e+01
  -4.114345e+01  -2.651808e+00
   2.592752e+01   5.353283e+01
   6.553986e+01   3.326897e+01
   8.395407e+01   1.279219e+01
  -3.634481e+01  -3.457043e+00
  -1.311022e+02   8.495028e+01
  -1.147439e+02  -3.745551e+01
   5.740540e+00  -1.263740e+02
   4.297491e+01  -9.290801e+01
   4.674118e+01   4.041738e+01
  -2.226561e+01   3.774318e+01
  -2.956608e+01   5.759442e+01
  -1.293516e+00  -4.005036e+00
  -1.728612e+00  -4.004844e+01
  -4.198927e+01   1.364828e+01
   4.035848e+01   2.036696e+01
   5.022559e+00  -1.454958e+01
   5.560320e+01  -5.929502e+01
  -1.001806e+00  -4.956011e+01
   5.353017e+00  -6.089545e+01
   1.239072e+02   1.466573e+01
   8.358581e+01   6.357312e+01
  -1.227396e+01  -2.713339e+01
  -3.063389e+01   3.090298e+01
  -7.917844e+01   1.237898e+01
   2.804528e+00  -3.350577e+01
   1.864795e+01   2.172825e+01
   9.432026e+00  -4.020294e+00
   2.467544e+01  -2.758378e+01
   2.169087e+01   2.221513e+01
   3.276363e+01   6.195797e+00
   9.298737e+01  -3.129685e+01
   1.083192e+01   8.972056e+01
  -1.209331e+02   4.911477e+01
  -1.195874e+02   3.025530e+01
  -6.062975e+01   6.443850e+00
  -2.633584e+01  -3.254600e+01
   3.218877e+01  -7.818933e+01
   6.147588e+01  -5.986168e+01
   5.153671e+01   5.149277e+01
   3.802118e+01  -1.275704e+01
  -2.032802e+01   2.901824e+01
   2.830012e+01   2.575064e+01
   4.473124e+01   6.832434e+01
  -5.595603e+00   3.817358e+01
  -2.403119e+01  -3.729478e+00
  -2.844989e+01   4.076073e+01
  -7.969752e+00  -3.291032e+01
   3.809197e+00  -3.626447e+01
   4.644433e+01  -1.680486e+01
   7.190335e+01   2.595859e+01
   4.808703e+00   1.481631e+01
  -1.718021e+01   6.927143e+01
  -1.084177e+02   1.015093e+01
  -6.757016e+01  -3.419893e+01
  -4.195199e+01  -6.565142e+01
   8.632728e+00  -1.095771e+00
  -5.620624e-02  -4.936054e+00
  -5.587336e+01   2.670085e+01
  -6.403957e+00  -3.177365e+01
   2.553609e+01  -2.427212e+01
   4.736283e+01  -1.319968e+01
  -1.589168e+01   1.286354e+01
   3.372490e+01   1.323565e+02
  -3.964605e+01   6.735508e+01
  -1.371867e+01   1.307464e+01
  -5.090382e+01   7.463264e+00
   2.506497e+01  -5.326278e+01
   1.845961e+01  -2.478344e+01
  -2.374361e+01   6.324741e+01
  -2.183014e+01   1.160688e+01
   2.492539e+01  -2.315718e+01
  -3.106953e+01  -3.075997e+01
   3.603959e+01   6.504370e+01
   1.033529e+01  -6.687772e+01
   2.246117e+01  -8.979636e+00
  -2.091707e+01   2.101111e+01
   3.301675e+00  -7.803550e+01
   4.868242e+01  -2.421110e+01
  -3.013476e+00   3.009159e+01
   4.609187e+01   2.631641e+01
  -9.167470e+01   1.724738e+01
  -6.948125e+01  -3.414302e+01
  -4.427160e+01  -2.244996e+01
   6.939142e+00  -6.120812e+01
  -7.296375e+00   6.273570e+01
   4.427034e+01   4.254323e+01
  -2.972188e+01   1.443773e+01
   9.382498e+00   2.924635e+01
  -2.334066e+01   1.361990e+01
   4.254131e+01   3.629567e+00
  -1.591042e+01   5.462157e+00
   5.052177e+00  -4.037084e+01
  -2.678168e+01  -7.953515e+00
