
 $NMID
 id='ANONYMOUS ', fmtdat='(2E16.6)'
 volume=1.0
 tramp=1.0
 $END
   1.364218e+03  -5.817658e+01
   9.677297e+02   6.405088e+02
   2.049073e+02   9.258430e+02
  -4.168371e+02   6.849267e+02
  -4.124875e+02   2.641735e+02
  -1.572695e+02  -4.177292e+01
   9.289975e+01   6.872844e+00
   3.547853e+01   2.029668e+02
  -1.676462e+02   2.985136e+02
  -2.762474e+02   9.868441e+01
  -2.084042e+02  -1.361846e+02
  -3.206590e+01  -2.842065e+02
   6.137371e+01  -8.681620e+01
   6.858451e+01   1.504122e+02
   1.823680e+01   1.916004e+02
  -1.231097e+02   9.467143e+01
  -1.637539e+02  -2.117851e+02
   3.962426e+01  -3.172048e+02
   1.860384e+02  -1.395363e+02
   2.040688e+02   3.756760e+01
   8.010166e+01   1.659964e+02
  -5.076137e+01   1.304694e+02
  -1.542563e+01   7.179696e+01
   1.083520e+02   3.742082e+01
   1.622314e+02   2.115343e+02
  -7.293799e-01   1.625477e+02
  -2.593936e+02   7.978783e+01
  -2.474422e+02  -1.036506e+02
  -7.866543e+01  -1.601913e+02
   1.267589e+02  -9.592884e+01
   1.490394e+02   4.596782e+01
   9.432185e+01   2.020540e+02
  -1.857067e+02   1.760972e+02
  -2.168525e+02   6.788187e+01
  -1.738174e+02  -6.961407e+01
  -2.024861e+01  -1.100437e+02
  -3.100255e+01  -1.085665e+02
  -4.278024e+01   1.126271e+01
  -8.553601e+01   1.474928e+01
  -9.173699e+01  -5.569692e+01
  -5.387716e+01  -2.171185e+02
   6.512833e+01  -1.405993e+02
   1.010905e+02   9.070767e+00
   7.256900e+01   9.464447e+01
  -4.344233e+01   3.499031e+01
   1.550697e+00  -1.253718e+02
   7.259470e+01  -1.962946e+02
   1.536035e+02  -2.281109e+01
   2.250698e+02   1.648940e+02
   7.204383e+01   1.863982e+02
  -1.304987e+02   1.106788e+02
  -2.387024e+02  -5.307741e+00
  -1.356160e+02  -6.980501e+01
   2.881970e+01  -9.264175e+01
   1.555326e+02  -2.673026e+01
   1.237000e+02  -2.298600e+01
  -2.451577e+01  -4.450250e+01
  -2.557551e+01  -5.661121e+01
   1.257799e+01  -3.550822e+01
   6.669578e+01  -6.494249e+01
   2.313878e+01   6.516712e+01
  -6.977203e+01   1.075422e+02
  -2.033923e+02   1.121757e+02
  -1.728967e+02  -5.670417e+01
  -1.948513e+01  -2.234511e+02
   1.396062e+02  -1.948378e+02
   1.651416e+02  -3.610785e+01
   1.266450e+02   6.921928e+01
   9.153258e+01   8.446519e+01
   6.366172e+01   2.023564e+02
   6.089637e+01   7.677144e+01
  -4.138004e+00   3.740057e+01
  -5.882572e+01   5.106886e+01
  -1.752671e+02  -1.049514e+01
  -1.034493e+02  -7.815118e+01
  -4.357085e+01  -1.284901e+02
   8.095419e+00  -5.902591e+01
   1.250441e+02   4.150821e+01
   4.116220e+01   1.160135e+02
  -1.429870e+01   1.422804e+02
  -5.246706e+01   2.216531e+00
  -1.196352e+02  -1.082584e+02
  -4.217360e+01  -1.448450e+02
  -1.484084e+01  -8.614650e+01
   7.353720e+01  -1.142061e+02
   7.542378e+01  -4.371466e+01
   8.074495e+01  -1.689985e+01
   1.288825e+02  -1.264820e+01
   1.957504e+02   4.953973e+01
   1.695290e+02   1.478633e+02
  -3.644229e+01   1.830763e+02
  -1.596832e+02   2.215844e+02
  -2.216628e+02   1.083086e+02
  -1.561984e+02  -2.695764e+01
  -2.708191e+01  -1.351701e+02
  -1.502521e+01  -1.668710e+01
  -1.022902e+00   2.578792e+01
  -1.378922e+01   7.279776e+01
  -3.528609e+01   2.169543e+01
   5.008097e+01  -2.387300e+01
  -3.100505e+01  -1.018103e+01
   1.995895e+01  -1.987937e+01
  -5.948144e+01   6.473544e+01
  -2.166327e+01   2.908037e+01
  -5.391240e+01  -1.906238e+02
  -2.835369e+01  -8.410167e+01
   1.239162e+02  -1.000214e+02
   1.799012e+02   1.203815e+01
   1.751542e+02   1.275519e+02
   5.646203e+00   2.012099e+02
  -1.244718e+02   3.334449e+01
  -8.412942e+01   2.397072e+01
   8.073429e+00   2.634970e+01
  -8.045975e+01   4.043257e+01
  -9.113235e+00   7.709823e+00
  -2.361315e+01   5.535420e+01
  -5.335702e+01  -6.657930e+01
   3.259237e+01   2.429292e+01
   7.244224e+01   7.269294e+01
   1.041147e+00   6.100249e+01
  -7.340895e+01   2.797806e+01
  -2.147910e+02   2.749738e+01
  -1.925037e+02  -6.382232e+01
  -4.374904e+00  -1.152295e+02
   6.372401e+01  -1.328474e+02
   1.024992e+02  -5.332149e+01
   8.880714e+01  -1.228832e+01
  -2.152786e+01  -4.457343e+00
  -3.770506e+01   6.748509e+01
   4.388842e+01  -1.871924e+01
   1.354157e+02  -2.727429e+01
   8.639191e+01   4.354517e+01
  -3.147851e+01   1.182036e+02
  -2.487095e+01   6.345062e+01
  -3.539453e+01  -3.719036e+01
   1.462961e+01  -6.351147e+01
   4.077823e+01  -2.910419e+01
   7.971320e+01   5.965180e+01
  -1.206744e+02   5.248534e+01
  -1.251799e+02  -6.855513e-01
  -1.314309e+02  -4.446873e+01
   1.401561e+01  -1.567261e+02
   4.696703e+01  -6.419849e+01
   4.789742e+01   2.019035e+01
  -4.596955e+01   2.982239e+00
   5.684244e+00   3.901030e+01
  -6.784714e+01   2.650128e+01
   2.825256e+01  -6.432133e+01
   5.430885e+01  -4.830059e+00
  -2.785018e+01   7.602035e+01
  -1.938681e+01   7.041115e+01
  -4.658075e+01  -5.024734e+01
  -1.176454e+01  -1.280501e+02
   3.124551e+01  -7.982090e+01
   5.034276e+01   3.279823e+01
   9.409618e+01   7.837212e+01
  -1.861871e+01   1.219998e+02
  -3.729923e+01   1.047011e+02
  -6.642167e+01   6.955741e+00
  -9.833204e+00   2.367703e+01
  -3.575803e+01  -4.690664e+00
  -3.074986e+01   3.438803e+01
  -4.984285e+01   3.002932e+00
  -2.100482e+01  -5.432169e+01
   5.079401e+01  -8.426874e+01
   5.896187e+01   3.183810e+01
   3.627806e+01   9.297572e+00
   8.312933e+00   8.197278e+01
  -1.354856e+02  -2.179281e+01
  -1.630634e+02   3.068787e+01
  -6.675268e+01  -9.087356e+01
   2.429566e+01  -1.444159e+02
   1.569186e+02  -6.055677e+01
   1.059810e+02   1.497843e+01
   2.970188e+01   8.220326e+01
  -3.163492e+01   9.705870e+01
  -6.429501e+01   2.404249e+01
  -1.002704e+02   2.910652e+01
  -7.033971e+01  -4.124663e+01
  -9.919191e+01   7.819759e+01
  -7.853489e+01   3.928522e+01
  -5.321286e+01  -1.036924e+02
  -3.908127e+01  -1.863344e+02
   4.808376e+01  -6.431833e+01
   1.491244e+02  -8.344913e-01
  -2.460703e+01   6.442539e+01
  -1.372440e+01   9.603848e+01
  -3.327678e+01   1.704402e+01
  -7.283567e+01   7.820376e+00
   1.977772e+01  -4.857771e+01
  -5.049086e+01   3.106304e+00
  -1.257998e+01   5.812557e+00
  -2.706858e+01   1.690028e+01
  -4.561741e+01  -1.048821e+00
   9.213584e+01  -1.861248e+01
   1.246653e+02  -2.872568e+01
   7.284256e+01   3.866351e+01
   5.683937e+00   3.631212e+01
  -7.801493e+01   5.129197e+01
  -8.225004e+01   5.073977e+01
  -2.191393e+01   1.330960e+01
   5.631578e+01   1.271320e+01
   1.468571e+01   1.353813e+01
   5.670680e+01   7.257122e+01
  -8.564951e+00  -1.904609e+01
  -3.251318e+01  -9.812344e+00
  -7.654967e-01  -1.324601e+01
  -1.744678e+01  -1.438687e+01
  -8.203839e+01   1.275057e+01
  -2.447836e+01  -9.610249e+00
  -3.458032e+01  -7.596594e+00
   6.335209e+00  -4.207498e+01
   6.636333e+01  -1.094578e+02
   9.031265e+01   3.120539e+01
   6.771567e+01   2.891434e+01
  -2.436323e+01   3.424683e+01
  -3.074254e+01   7.002443e+01
  -4.725532e+01   4.476531e+01
  -3.322130e+01   9.123438e+00
   7.726688e+01  -9.689636e+00
   5.680570e+01   3.764404e+01
  -1.077950e+02   9.154916e+01
  -8.932181e+01  -2.758971e+01
  -1.127040e+02   1.326069e+01
  -4.595414e+01   2.202528e+00
  -1.485160e+01  -5.635884e+01
   2.745755e+01   2.174397e+01
  -2.619270e+01   1.288639e+01
  -2.887551e+00   1.224870e+01
   1.399844e+01  -2.557884e+01
  -5.508546e+00  -7.330084e+01
   5.253114e+01   4.073088e+01
   6.756381e+01   1.541005e+01
   4.448768e+01   1.125824e+02
  -9.105218e+01   8.970877e+01
  -4.710523e+01   1.870391e+01
   1.036846e+01  -4.345571e+01
   1.265854e+01  -3.129535e+01
  -1.412574e+01   1.419966e+00
  -1.210659e+01   4.173183e+01
  -2.684542e+01  -8.804925e-01
  -9.473637e+00   4.050397e+01
   9.754297e+01   2.304491e+01
   6.875940e+01   7.032194e+01
   3.441493e+01   9.476985e+01
  -8.842125e+01  -8.784065e-02
  -5.245350e+01  -4.110789e+00
  -1.011642e+02  -5.635789e+01
  -2.487593e-01  -4.428474e+01
   5.175037e+01  -1.876438e+00
   4.876341e+01  -9.891098e+01
   7.452298e+00   1.528704e+01
  -1.206519e+01   4.013854e+01
  -4.373443e+00   1.629498e+01
  -1.494396e+01  -3.485235e+01
  -3.865633e+01  -5.335831e+01
  -4.660710e+01  -1.697203e+01
  -5.894572e+01  -6.239079e+01
  -1.588425e+01  -8.060674e+01
   4.346263e+01  -7.975347e+01
   7.059910e+01  -6.779971e+01
   6.495982e+01   2.931328e+01
   5.091915e+01   1.219793e+02
  -2.777700e+01   8.650708e+01
  -7.053318e+01   4.451209e+01
  -1.197270e+01  -1.501559e+00
  -1.697226e+01  -2.537413e+01
   3.006287e+00  -2.202635e+00
  -2.912799e+01  -2.270617e+01
   1.865461e+01  -1.921725e+01
  -3.257459e+01  -3.669309e+01
   9.631144e+00  -9.046025e+01
   2.434465e+01  -1.675545e+00
   6.361270e+01   1.021290e+02
  -1.549856e+01   1.950953e+01
  -6.793976e+01   5.570715e+01
  -2.362718e+00   1.057511e+01
   6.479762e+00  -4.365821e+01
   6.373345e+01  -2.370976e+00
   1.651902e+01  -2.284920e+00
   4.392100e+01   6.339261e+01
   8.570305e+00   5.335573e+00
  -4.730196e+01   3.980893e+01
   1.716546e+01  -2.778852e+01
   2.665740e+01  -4.413684e+01
   1.922366e+01   1.447630e+01
  -5.676033e+01   3.070915e+01
  -3.471286e+01   6.769420e+00
   1.911557e+01  -1.562331e+01
   1.496134e+01   3.618562e+00
   2.183810e+00  -1.585062e+01
   3.745053e+01   2.717014e+01
   3.291761e+01  -9.096356e-01
  -6.647875e+01  -1.093422e+01
  -3.630892e+01   4.037999e+00
   4.743132e+01  -1.371260e+01
   2.807135e+01  -2.038843e+01
   7.416796e+00  -4.898454e+01
   5.836300e+01   4.448997e+01
  -2.167955e+00  -1.733990e+01
  -1.501964e+01  -2.830203e+01
   5.788050e+01  -1.917560e+01
  -2.214755e+01   3.397545e+01
  -3.023076e+01   3.879492e+01
  -3.245589e+01   3.238335e+01
  -1.065587e+01  -1.432264e+01
  -1.162466e+02  -1.946088e+01
   5.959075e+01  -1.414538e-01
   7.559131e+01   3.487277e+01
   8.947400e+01   6.617792e+01
   5.425747e+00   3.446845e+01
  -4.565013e+01  -1.331272e+00
  -1.261106e+01  -3.648806e+01
  -8.592671e+00  -3.516718e+01
   1.898913e+01  -5.480490e+01
  -1.949539e+01   1.176362e+01
  -1.868600e+01  -9.678424e+00
  -1.929005e+01   3.139080e+01
  -3.124379e+01  -7.369225e+00
   1.224226e+02  -7.649949e+00
