
 $NMID
 id='ANONYMOUS ', fmtdat='(2E16.6)'
 volume=1.0
 tramp=1.0
 $END
  -6.312769e+02  -1.524481e+02
  -3.424143e+02  -3.628335e+02
   1.448891e+01  -3.441806e+02
   2.204761e+02  -2.794374e+02
   2.070501e+02  -1.979418e+00
  -6.787135e+00   6.003540e+00
  -2.723782e+00  -7.073402e+01
  -2.729012e+01  -8.322898e+01
   8.617268e+01  -1.098340e+02
   1.674367e+02  -3.298303e+01
   3.247537e+01   7.288439e+01
  -8.051697e+00   7.450516e+01
  -3.084896e+01   1.031670e+02
  -1.434856e+02  -7.067193e+01
   2.157240e+01  -1.090056e+02
   6.120258e+01   4.459160e+01
   9.767857e+01   8.224144e+01
  -5.372482e+01   1.408812e+02
  -1.113496e+02   4.806548e+01
  -1.235317e+02  -4.457661e+01
  -7.926978e+00  -8.038157e+01
   1.178724e+01  -4.890406e+01
  -5.142267e+01  -2.679627e+01
   2.076724e+01  -4.741367e+01
  -6.269338e+01  -6.346341e+01
   1.936271e+01  -8.912240e+01
   1.065959e+02   1.140992e+01
   7.814828e+01   1.044076e+02
  -2.448550e+01   7.520740e+01
  -3.131804e+01  -9.722308e+00
  -2.095685e+01  -3.532587e+01
  -3.079839e+01  -1.128855e+02
   3.811802e+01  -7.377966e+01
   7.809531e+01   7.814885e+01
   7.749420e+01   1.721322e+01
  -3.176643e+01   3.211214e+01
   2.834233e+01  -5.672868e+00
   1.691648e+00   3.771245e-01
   5.238710e+01  -3.426747e+01
  -3.256849e+01   1.031775e+02
  -5.073627e+01   1.406977e+02
  -7.496237e+01   1.144908e+02
  -1.203344e+01   4.278086e+01
   1.687488e+01  -3.804612e+01
   1.804627e+01   1.557541e+01
   1.851382e+01   9.736903e+01
  -6.172240e+01   5.690076e+01
  -1.154203e+02  -7.237385e+01
  -5.709988e+01  -6.105819e+01
  -3.454749e+01  -9.519952e+01
   5.116129e+01  -1.204191e+01
   9.085274e+01   8.296563e+01
   8.637374e+01  -9.438081e+00
  -1.996291e+01   4.348628e+01
  -5.217166e+01  -1.002745e+01
  -6.911675e+01   2.502340e+01
  -4.380635e+01   5.707507e+01
  -7.298583e+00   4.141741e+01
   2.554488e+01  -1.362680e+01
  -2.086281e+01  -3.645899e+01
   3.662090e+01  -7.220974e+01
  -1.002724e+01  -4.452645e+01
   5.789087e+01  -7.154661e+01
   4.645656e+01  -1.210082e+01
  -4.418209e+01   1.160797e+02
  -8.280616e+01   6.541289e+01
  -1.152997e+02  -1.888572e+01
  -4.931326e+01  -2.835576e+01
   6.261660e+01  -7.595945e+01
   9.852569e+01   8.195851e-01
   2.116553e+01   2.139967e+00
   5.198075e+01  -3.968642e+01
   3.073106e+01   2.886775e+01
   1.503072e+01  -4.968546e+01
   5.756655e+01   3.223287e+01
   3.122702e+01  -1.083440e+01
  -1.170649e+01   2.879906e+01
  -8.189069e+01  -1.660780e+01
  -5.966945e+01  -2.724532e+01
  -3.364183e+01  -9.593910e+01
   3.375827e+01   1.884568e+01
   1.023002e+02   2.901661e+01
   3.648680e+01   5.948097e+01
  -7.763718e+01   4.921486e+01
   2.931888e+00  -2.176123e+01
  -3.897229e+01  -8.147459e+00
  -1.040765e+01   3.095345e+01
  -8.228027e+01   1.578346e+01
  -6.531176e+01  -6.120906e+01
   8.676819e+00  -1.090407e+02
   7.517464e+01  -9.217776e+01
   9.404706e+01  -5.520687e+01
   1.626379e+02  -4.952216e+01
   6.721487e+01  -1.175786e+01
   3.729299e+01   1.603035e+01
  -9.178924e+01   2.902468e+01
  -1.145135e+00   2.392207e+01
   3.373385e+01  -2.348962e+01
   4.914507e+01  -1.138656e+00
  -1.149850e+01   4.154342e-01
  -2.721873e+01   1.047496e+01
   1.550114e+01  -2.469238e+01
  -1.827065e+01   2.551799e+00
   7.933271e+01  -1.709951e+01
  -3.368417e+01   4.598891e+01
  -5.860683e+01   6.781358e+01
  -6.077522e+01   9.393538e+01
  -1.157740e+02  -4.868773e+01
  -3.951038e+01  -8.026842e+01
   1.087901e+00  -7.071799e+01
   2.527140e+01  -4.475059e+01
   3.975122e+01   8.144929e+00
  -1.195766e+01   2.591413e+01
   1.469529e+01  -4.360327e+01
  -5.475126e+00  -8.343387e+01
   1.005389e+00  -1.950806e+01
   3.411737e+01   4.132814e+01
  -7.350094e+00  -2.613522e+01
   3.302131e+00  -3.398829e+01
   3.949287e+00  -7.295429e+01
   9.164684e+01   6.713069e+00
   3.713468e+01  -3.510236e+01
   2.688780e+01   1.116335e+02
  -3.273692e+01   3.040020e+01
  -6.698340e+01   2.819429e+01
  -7.430225e+01  -5.085777e+01
  -7.105007e+00   1.657851e+01
   4.672944e+00  -6.044762e+01
   4.759202e+01  -9.244750e+00
   1.476656e+01  -3.072752e+01
  -2.861919e+01   1.827747e+01
  -2.206466e+01   3.364805e+01
  -1.175534e+01  -1.511438e+01
   4.658826e+01  -3.668539e+01
   5.883646e+01  -2.354939e+01
   6.196607e+01  -5.736021e+01
  -7.518981e+01  -3.227663e+01
  -4.270306e+00  -8.001273e+00
   4.329042e+01  -6.339301e+01
   3.330100e+01   5.101283e+00
   6.900846e+01   5.175972e+01
  -4.732763e+00   4.996798e+01
  -3.349761e+01   9.304379e+01
  -5.981732e+01   1.906147e+01
  -1.020004e+01   4.507611e+01
  -7.827255e+01  -2.910721e+01
   6.885590e+01  -6.487338e+00
   3.267445e+00   3.137077e+01
   6.060871e+00   6.906315e+01
  -3.814711e+01  -3.749287e+01
   2.722351e+01   5.882438e+01
   7.329754e+00  -3.956954e+00
  -5.534340e+01   1.105593e+02
  -1.678382e+01   1.058362e+02
  -5.636475e+01  -4.298586e+01
   1.164446e+01  -5.855383e+01
   5.014647e+01  -8.169391e+01
   7.603223e+01  -5.554726e+01
   6.104782e+01   5.290613e+01
   1.642713e+01   1.189922e+01
   7.015446e+00   3.013081e+01
   2.877191e+01  -7.380230e+00
   1.704806e+01  -8.925408e+00
   2.290970e+01   1.009213e+01
   6.239571e+00  -3.592113e+01
  -5.957180e+01  -1.354036e+01
  -9.886723e+00  -2.294727e+01
   2.236547e+01  -4.695913e+01
   1.136381e+02  -1.156333e+01
   6.853387e+01   5.126266e+01
   2.350269e+01   8.500502e+01
  -5.087714e+01   5.409405e+01
  -1.195636e+02   1.400928e+01
  -6.262077e+01  -1.137852e+01
  -1.183574e+01  -7.481238e+01
   8.142918e+01   1.934413e+01
  -1.756925e+01  -2.958397e+01
  -2.528217e+01  -3.866715e+01
  -5.796242e+01   1.874066e+01
   2.793705e+01   6.226100e+01
   4.553370e+01   5.628024e+01
   4.737997e+01   4.063259e+01
   1.850257e+01   8.473812e+01
  -3.290964e+01   7.180323e+01
  -7.723264e+01  -2.857270e+01
  -9.521268e+01  -4.638833e+01
  -2.771700e+00  -5.053247e+01
  -9.540808e+00   3.038352e+01
  -3.873643e+00   1.387580e+01
  -8.610012e-01   5.840584e+01
  -3.811501e+01  -4.978280e+01
   2.320165e+01  -7.842069e-01
   1.048760e+01   1.478822e+01
   2.006179e+01   4.894794e+00
  -5.194826e+01   5.985297e+00
  -5.754463e+01  -1.649310e+01
  -3.725259e+01   1.443514e+01
   3.664994e+01  -7.777028e+01
   3.316912e+01  -3.791669e+01
   4.076791e+01   5.937919e+00
  -4.344754e+01   5.148603e+01
  -5.024430e+01  -5.117578e+01
   5.533181e+01   2.955992e+01
  -2.403913e+01  -2.689426e+01
   1.411982e+01  -2.967111e+01
   1.974943e+00  -1.254800e+01
   5.347386e+01   1.078819e+01
   5.152340e+01   1.622519e+01
   6.002814e+00   3.549199e+01
   5.097943e+01   5.038765e+00
  -3.296513e+01   1.798597e+01
   2.569190e+01   6.583366e+01
  -2.120784e+01   8.150520e+01
  -3.534307e+01   1.149232e+01
  -7.341444e+01  -2.378453e+01
  -3.127931e+01  -3.226640e+01
   1.730286e+00   5.752565e+01
  -2.617822e+01  -4.613433e+01
   1.354006e+01  -2.966533e+01
   3.251342e+01   5.590470e+01
   4.647141e+00  -2.905576e+01
   3.589843e+01  -6.219627e+01
   1.934983e+01  -2.392242e+01
   3.166371e+01   2.167234e+01
   1.390281e+01  -2.394725e+00
  -8.675993e-02  -4.944133e+00
  -4.935102e+00  -4.338859e+00
  -2.428972e+01  -3.248818e+01
   4.817325e+01   4.291841e+01
  -3.826412e+01   3.368249e+01
  -4.813744e+01  -5.625746e+00
   8.702884e+00   3.446183e+01
  -1.835362e+01  -5.223621e+01
  -4.886376e-01  -4.625977e+01
   7.441703e+01  -2.713719e+01
   1.762947e+01   1.929080e+01
  -7.981428e+01   3.301635e+01
   5.243369e+01  -2.024570e+01
  -1.696966e+01   9.282556e+00
  -5.472487e+00  -7.704423e+00
   3.688927e+00   4.251037e+01
  -2.313990e+01   1.223016e+01
   4.603830e+01  -1.198343e+01
  -4.751440e+01  -8.975542e+01
   9.024311e+01  -9.215970e+01
  -4.172379e+01   2.451627e+01
  -1.257594e+01   1.455953e+01
   2.565946e+01   3.930581e+01
  -9.131451e+00   2.763065e+01
  -1.976522e+01  -3.769835e+01
  -9.206139e+00  -2.981691e+01
   4.969740e+01   1.458404e+01
  -3.333507e+01   1.395207e+01
  -1.375347e+01   3.015023e+01
   2.145339e+00  -4.063090e+01
   3.974888e+01  -6.265639e-01
  -4.778794e-02  -3.940434e+00
   5.379152e+01  -5.769901e+01
  -3.403106e+01  -1.363474e+01
   4.534939e+00   1.102759e+01
  -1.136757e+02  -9.889427e+01
  -2.672708e+01   5.346814e+00
  -4.932489e+00  -1.060929e+01
   1.473251e+01   3.200660e+01
   5.813087e+01  -1.524099e+01
  -1.264973e+01   3.052665e+01
  -3.607478e+01  -2.433965e+01
   3.895355e+00  -3.874889e+01
   1.281672e+01  -5.469714e+01
   4.236571e+01   4.241737e+01
  -3.878870e+01  -2.857276e+01
  -8.519271e+01   2.794876e+01
  -3.031489e+01   5.990312e+01
  -4.590063e+01  -1.138997e+01
  -2.071542e+00  -3.490544e+01
   3.051026e+01  -1.331307e+01
  -2.121012e+00   2.407547e+01
  -1.721701e+01   2.929924e+01
  -9.323391e+00  -8.062759e+00
   2.299624e+01  -3.058922e+01
  -3.858350e+01  -9.891236e+00
  -1.836818e+01  -7.255707e+01
  -8.552963e+00   1.256653e+01
  -1.740180e+01   2.621463e+01
  -1.309152e+01  -1.494463e+01
   4.083707e+01  -8.861974e+01
  -2.520788e+00  -1.847872e+01
   4.347767e+01   1.805245e+00
   4.519606e+01  -3.828111e+01
  -3.765451e+00   5.352164e+01
  -2.537942e+01  -7.209905e+00
  -2.153003e+01  -1.187240e+01
  -3.832848e+01   1.875068e+00
  -1.234158e+01   2.979150e+01
   2.319838e+00  -4.699012e+01
  -8.455351e+00  -3.283352e+01
  -2.503137e+01  -1.738224e+01
  -5.599906e+00   3.652558e+00
  -3.284523e+01  -1.047786e+01
   4.918918e+01   7.431412e+00
   5.414330e+00  -5.168482e+01
   4.792239e+01   5.683053e+01
   1.324054e+01  -2.399507e+00
  -1.648784e+01   2.037149e+00
  -2.244125e+01   5.831996e-01
  -5.097068e+01   4.091812e+01
  -5.281827e+01   2.911335e+01
   4.563093e+01  -2.144720e+01
  -9.253225e+00  -1.738042e+00
   3.513464e+01  -1.756761e+01
   2.258957e+01   6.546226e+00
   7.838459e+00  -8.021825e+00
   6.566699e+01  -4.122435e+01
  -9.424302e-01   1.980345e+01
  -4.953279e+01   5.251830e+01
  -1.676376e+01  -4.883061e+01
  -6.265813e+01   2.309741e+01
  -3.733473e+01  -7.772019e+00
  -9.472883e+00   7.165452e+01
  -8.970289e+01   3.287096e+01
