
 $NMID
 id='ANONYMOUS ', fmtdat='(2E16.6)'
 volume=1.0
 tramp=1.0
 $END
   3.571512e+02  -4.711401e+01
   2.827217e+02   2.258089e+02
   1.756274e+01   2.546405e+02
  -1.004330e+02   1.215596e+02
  -5.392280e+01   5.470319e+01
   3.772450e+01  -1.483029e+01
   8.329170e+01  -5.369963e+01
   1.777831e+01   8.772089e+01
  -4.486633e+01   1.153649e+02
  -4.929618e+01   1.437181e+01
  -5.768131e+01  -9.954424e+01
   1.761252e+00  -1.286557e+02
   3.305579e+01  -5.116771e+01
   5.566054e+01   4.065928e+01
   1.129366e+01   3.878390e+01
  -4.582300e+00  -2.164416e+01
  -1.887754e+01  -5.064642e+01
  -5.402297e+01  -1.438465e+02
   4.495210e+01  -1.100317e+02
   6.689823e+01   8.119073e+01
  -3.877913e+01   4.618641e+01
  -3.102009e+01   3.766138e+01
  -2.797708e+01  -1.223766e+01
   2.770161e+01   2.792900e+01
   4.136963e+01   2.467625e+01
  -7.161596e+01   7.404441e+01
   1.488245e+01   8.856424e+01
  -6.910466e+01  -3.718951e+01
  -1.862422e+01  -5.494762e+01
   7.904055e+01  -6.461812e+01
   5.915720e+01  -6.525502e+01
   9.852847e+01   4.713675e+01
   2.465958e+01   2.524087e+01
  -7.363494e+01  -9.827313e+00
  -3.095811e+01  -7.201666e+01
   7.626048e+00  -2.692472e+01
  -7.799483e+00  -1.618718e+01
   4.136689e+01   6.581964e+01
  -3.328594e+01   8.374220e+01
   1.911469e+01   2.945484e+01
  -5.972259e+01  -7.160307e+01
   3.388311e+01  -3.641874e+01
   6.781824e+01   1.481500e+01
   7.302306e+01   9.437993e+01
   4.504727e+01   5.888813e+01
  -5.176075e+01  -3.687021e+01
   5.244285e+01  -5.300583e+01
   9.783090e+01  -6.778890e+01
   1.035828e+02   1.131528e+00
   4.340610e+01   3.013140e+01
   1.523462e+01  -2.848230e+01
  -6.026172e+01   4.080704e+01
  -3.808508e+01  -4.557569e+01
   2.091974e+01   7.685573e+00
   7.481287e+01  -3.342266e+01
   1.223833e+01  -4.941305e+01
   2.036486e+01  -2.805375e+01
  -3.280695e-01  -4.428481e+01
   7.691919e+01   2.481491e+01
  -1.346196e+01  -1.825472e+01
   6.238642e+01   4.175374e+01
   3.809829e+00   4.989782e+01
  -1.739128e+01   4.868760e+01
  -1.405697e+00  -1.308359e+01
  -2.563234e-01  -1.658944e+01
   5.885564e+01  -7.761076e+01
   5.995581e+01  -6.393611e+01
   1.132087e+01  -6.516051e+01
  -1.370517e+01  -1.995184e+01
   5.341037e+01   9.251271e+01
  -6.735097e+01  -1.155509e+01
  -3.636087e+01  -1.274119e+00
  -1.750663e+01  -3.190460e+01
  -4.097235e+01  -1.430675e-01
  -1.921945e+01  -4.742073e+01
   1.174268e+01  -3.341119e+01
  -4.169516e+01  -4.760547e+01
   8.046917e+01   5.100830e+01
  -1.184293e+01   4.951335e+01
   9.080684e-01   8.719313e+00
  -4.355042e+00   4.396397e+01
  -4.009615e+01  -3.226681e+01
  -5.530599e+01  -4.443869e+01
  -3.864186e+01   3.802832e-01
   4.981544e+01   4.182038e+01
  -1.134531e+01  -3.115376e+01
   3.784248e-01   1.055839e+01
   5.101915e+01   3.108816e+01
   4.550986e+01  -2.816858e+01
   6.029396e+01   2.456671e+01
   1.239950e+01   4.785426e+01
   2.739909e+00   1.759863e+01
  -1.141735e+02   7.877934e+01
  -1.493751e+00   3.174192e+01
  -5.590303e+01   1.089862e+01
   4.019657e+01   9.675604e+00
   3.191850e+01   5.707625e+01
  -3.109381e+01  -4.596040e-01
  -6.529052e+01   3.201723e+01
  -4.869207e+00   3.229335e+01
  -1.432851e+01  -3.381801e+01
  -1.018227e+01   1.676760e+01
   3.637750e+01   7.464548e+00
  -9.387280e+00   5.041978e+01
  -5.328275e+01  -2.314861e-01
  -7.617450e+00  -3.343356e+01
  -3.586246e+00  -5.588413e+01
   9.256229e-01   6.400968e+01
   4.058409e+01  -3.651588e-01
  -6.845561e+00   7.695715e+00
   4.006443e+01   8.000283e+01
  -1.828228e+01  -3.853356e+01
   1.281429e+01   6.338041e+01
  -5.059242e-01   1.512378e+01
  -2.772108e-01  -1.650019e+01
  -3.165729e+01  -1.353965e+01
  -2.406918e+01  -5.460733e+01
   1.375473e+01   6.190418e+01
   1.089991e+01  -3.345645e+01
   1.806363e+01  -1.156442e+01
  -4.780770e+01  -1.873603e+01
  -2.488583e+01  -3.935478e+01
  -3.969266e+01  -4.751412e+01
   3.349432e+01  -3.739013e+01
   4.429055e+01  -5.774055e+01
   3.955078e+01  -6.090900e+00
   4.539770e+01  -1.805013e+00
  -7.222054e+00   5.963983e+01
   4.257956e+01   1.885301e+01
   2.375747e+01  -4.152116e+01
   3.901666e+01  -3.431090e+01
  -1.324235e+01  -6.713888e+01
   4.751731e+01   3.053048e+01
   2.790134e+01   2.829496e+01
   4.500589e+01  -1.078891e+00
   2.015239e+01   4.343345e+01
  -5.381564e+01  -1.768422e+01
  -2.738916e+01   5.110781e+01
  -4.684509e+01   5.084014e+01
  -2.247755e+01  -8.373672e+00
  -2.813045e+01  -5.434909e+01
  -4.200349e+01   3.460121e+01
   5.547475e+01   8.317525e-01
   4.484481e-01   3.526371e+00
   4.363247e+01  -1.903311e+01
  -7.391762e+00   1.594528e+01
   1.926437e+01  -2.052571e+01
  -2.036788e+00   2.979301e+01
   1.725376e+01  -3.686862e+01
   8.086709e+00   4.145612e+00
  -2.040761e+01   2.990381e+01
  -4.050511e+01  -3.703548e+01
  -3.357131e+01  -1.015464e+01
   6.806878e+00  -3.515796e+01
   9.457451e+01   3.278929e+01
  -1.985734e+01  -3.218284e+01
   8.890669e+00   1.888778e+01
  -5.084914e+01   3.950216e+01
   4.256452e+01   1.634533e+01
  -5.822228e+01   2.342346e+00
  -1.911068e+00  -3.892530e+01
   2.508599e+00  -3.301322e+01
   2.727199e+01   1.625043e+01
   4.680982e+01   2.820103e+01
  -1.331730e+00   1.637850e+01
  -2.649462e+01   1.013522e+01
  -1.295771e+01   2.526882e+01
   3.012513e+01   2.101590e+01
   7.300722e+00   5.026732e+01
   2.193895e+00   1.249221e+01
  -8.402192e-01  -6.604465e+01
  -1.664891e+01  -6.021101e+01
   5.157066e+01   3.344890e+01
   3.737003e+01  -6.172995e+01
   3.577589e+01   6.900511e+01
  -4.172696e+01   5.943924e+01
   3.734252e+01  -8.169556e+00
  -1.958300e+01  -3.556277e+01
  -4.681998e-02  -1.865796e+00
  -2.530016e+00  -1.329961e+01
   7.950803e+00   4.594516e+01
  -8.504210e+01  -2.618977e+00
   3.092650e+01  -7.579936e+01
  -5.671005e+01  -6.361395e+01
  -1.744088e+00   1.947160e+01
   1.953348e+01   3.867795e+00
   1.109430e+01   3.322481e+01
  -3.070551e+01  -4.885523e+00
   3.753465e+01   3.447713e+01
  -4.231924e+01  -3.171885e+01
  -2.920908e+01   3.544364e+01
  -4.342196e+01  -1.132507e+01
   5.156324e+01   6.501983e+01
   7.468579e+01   1.801711e+01
   3.150286e+00  -1.755012e+01
   6.288962e+01  -3.928671e+01
   4.940836e+01   2.332695e+01
  -2.624588e+01   2.349225e+00
  -5.891236e+01   1.850421e+01
  -9.560601e+00  -2.287329e+01
   1.640769e+01  -1.891443e+01
   5.991965e+00  -4.692100e+01
   4.484054e+00  -4.179409e+00
   3.780818e+01   1.099892e+01
  -4.224178e+00   1.449112e+01
  -1.010767e+01  -1.993487e+01
   1.911226e+00  -2.782996e+01
  -2.376657e+01   1.227124e+01
   3.631117e+01   5.212897e+00
  -9.036420e-01   9.341460e-02
  -3.158559e+01   3.436810e+01
   3.653105e+01  -2.805605e+01
   3.278451e+01  -6.896658e+01
   2.347086e+01   1.254582e+01
  -1.542961e+01  -1.055636e+01
  -2.440463e+01   2.875084e+01
  -6.599710e+01   1.199019e+01
   1.512345e+01   2.024266e+01
  -1.237780e+01   3.328344e+01
   2.313223e+01  -6.943662e+00
  -3.206521e+01  -3.280393e+01
   1.641880e+00   1.887714e+01
  -3.050106e+01   7.444606e+01
  -2.353659e+01  -5.489635e+01
  -1.425811e+01   1.014781e+01
  -4.194487e+01  -1.314949e+01
   3.159295e+01   1.412474e+01
   1.318224e+01  -2.942214e+01
   1.338144e+01   3.704541e+01
  -5.395001e+00   3.118986e+01
   6.526581e+01   5.488560e+00
   1.299018e+01   3.295284e+01
   4.614303e+01   8.420388e+00
   4.642729e+01   4.298941e+01
  -3.284385e+01   2.405883e+01
  -4.802690e+01  -9.442148e+00
   1.132190e+01  -3.378589e+01
  -1.541451e+01  -5.786536e+00
   5.041745e+01   4.555244e+01
   2.065588e+01  -2.980325e+01
   2.043440e+01  -2.825088e+01
  -1.828002e+01  -1.978895e+01
   7.619856e+00  -4.039050e+01
  -1.273375e+01   2.949807e+01
   2.527681e+01   5.839499e+01
   1.178155e+01  -1.840417e+01
  -2.293243e+01   3.807989e+01
  -4.216013e+00   3.030068e+01
  -8.375515e+00  -4.102761e+01
  -3.500913e+00   1.608983e+00
   4.010561e+01  -1.995542e+01
   4.507582e+01  -2.750287e+01
  -9.562509e+00   1.169548e+01
  -4.553665e+01   8.556833e+00
   5.412836e+01  -4.759620e+01
  -4.472211e+01   5.683705e+00
  -3.281139e+01   6.333667e+00
  -2.199429e+01  -1.370030e+01
  -5.690390e+01  -2.082205e+01
  -2.854609e+01  -7.539114e+01
   8.711217e+00  -9.450872e+00
  -5.576849e+00   7.316408e+01
  -3.616041e+01  -6.179164e+01
  -1.910095e+01   2.242903e+01
   8.293502e+00   5.597310e+01
  -2.729805e+01   2.784384e+01
  -2.265652e+01   2.857047e+01
  -3.200752e+01   9.133396e+01
   2.334341e+01  -2.386038e+01
  -1.440240e+01   8.071563e+00
  -1.432550e+01  -1.668722e+00
   2.234384e+01   4.458692e+01
  -9.562526e+00  -1.001187e+01
   1.922660e+01  -1.560615e+01
  -3.746970e+01  -3.031584e+00
  -3.010775e+01  -1.809033e+01
  -7.571036e+00  -1.169158e+01
  -1.960509e+01  -7.437545e+00
  -8.618725e+00  -4.171025e+00
   5.156766e+01   2.366009e+01
  -1.242342e+01   4.269139e+01
  -7.042439e+01  -3.148453e+01
   1.529536e+01  -1.598810e+01
   7.414946e+00   6.930020e+00
  -2.781645e+01  -3.492148e+01
  -8.642671e+00   2.154237e+01
   2.289480e+01   4.723589e+01
   3.904555e+01  -2.512413e+01
  -1.385954e+01  -1.629336e+01
   1.214318e+01  -1.328952e+01
   9.218995e+00  -1.742595e+01
   7.784379e+00   2.474085e+01
  -1.098808e+01  -4.654201e+00
   2.673617e+01  -7.575626e+00
  -2.754530e+01   1.967218e+01
  -3.825856e+00  -5.571490e+00
   9.891125e+00  -4.824221e+01
  -1.936685e+01  -5.631861e+01
  -5.064156e+00  -3.596901e+01
  -3.419095e+01   2.459481e+01
  -1.253195e+01   1.544154e+01
   2.248448e+01   9.612446e+00
   3.383597e+01  -1.000855e+01
  -2.720842e+01   2.143230e+01
  -1.013105e+01  -1.418168e+00
  -2.801073e+00  -1.022089e+02
  -5.534919e+01   2.612996e+01
   6.586907e+00  -3.657192e+01
  -1.477388e+01  -1.249946e+01
   4.476177e+01   3.166566e+01
  -4.196627e+01   1.643441e+01
  -1.811356e+01  -3.492891e+01
  -6.042421e+01   4.195549e+00
  -1.452751e+01   1.199168e+01
  -3.911131e+01  -5.089070e+01
   1.389813e+01  -3.094305e+01
  -5.983648e+00   2.166790e+01
   3.011643e+01   3.638485e+00
   3.908557e+01  -6.126520e+01
  -3.227543e+01   1.204739e+01
