
 $NMID
 id='ANONYMOUS ', fmtdat='(2E16.6)'
 volume=1.0
 tramp=1.0
 $END
  -3.720122e+03   4.185002e+01
  -2.117404e+03  -2.264119e+03
   6.395407e+02  -2.301097e+03
   1.759145e+03  -6.717834e+02
   7.638567e+02   5.887287e+02
  -5.400200e+02   4.666252e+02
  -7.389953e+02  -3.402026e+02
   1.795526e+01  -8.845727e+02
   7.476232e+02  -6.337701e+02
   8.023460e+02   1.043945e+02
   3.550280e+02   7.682910e+02
  -2.841164e+02   7.787217e+02
  -5.126611e+02   8.394710e+01
  -3.155559e+02  -6.370269e+02
   2.333399e+02  -5.800678e+02
   5.667903e+02  -1.500465e+01
   1.832617e+02   6.137379e+02
  -3.150632e+02   5.159513e+02
  -5.295240e+02   6.539419e+01
  -3.065013e+02  -3.215276e+02
   1.467890e+01  -3.808552e+02
   1.615177e+02  -2.002876e+02
   1.987570e+02  -3.599981e+00
  -1.692734e+02   6.597291e+01
  -3.794872e+02  -7.198136e+01
  -1.295832e+02  -3.990613e+02
   4.040664e+02  -3.650681e+02
   7.715587e+02   1.134264e+02
   3.229517e+02   4.543590e+02
  -3.289955e+02   5.239547e+02
  -6.729439e+02  -5.001896e+00
  -2.736499e+02  -3.990518e+02
   2.187103e+02  -4.283554e+02
   4.940826e+02  -1.952385e+02
   3.775571e+02   2.048887e+02
   5.328971e+01   4.262114e+02
  -1.990950e+02   2.650658e+02
  -1.007997e+02  -1.444726e+02
   1.738517e+02  -4.055263e+02
   4.434269e+02   1.832113e+01
   2.692633e+02   5.640595e+02
  -3.325502e+02   5.567931e+02
  -5.742875e+02   1.435868e+01
  -1.991229e+02  -5.212176e+02
   2.413222e+02  -2.041457e+02
   3.279886e+02   2.434834e+02
  -4.008974e+01   4.404700e+02
  -5.195222e+02   9.628829e+01
  -5.002085e+02  -3.833337e+02
  -1.297181e+02  -5.322577e+02
   3.850781e+02  -2.721977e+02
   5.684826e+02   6.369070e+01
   2.630607e+02   3.722829e+02
  -1.550419e+02   2.856873e+02
  -4.048986e+02   2.363464e+01
  -1.930309e+02  -1.480447e+02
   1.958574e+02  -1.664459e+02
   1.364292e+02   1.833684e+02
  -1.809654e+02   2.065507e+02
  -2.964691e+02  -1.227526e+02
  -1.140307e+02  -2.800954e+02
   1.438548e+02  -2.142747e+02
   2.448624e+02  -7.161085e+00
   1.939682e+02   1.254070e+02
  -9.441915e+00   1.859333e+02
  -1.998485e+02   2.473833e+02
  -2.585232e+02   1.661422e+02
  -2.870411e+02  -1.492909e+02
  -9.000217e+01  -3.429015e+02
   9.631579e+01  -3.623949e+02
   1.234442e+02  -4.977386e+01
   3.042696e+00  -1.303987e+00
   8.459468e+01  -9.254238e+01
   1.758753e+02  -1.303465e+02
   2.919891e+02   1.839282e+01
   1.964636e+02   1.985868e+02
  -1.802614e+01   2.308856e+02
  -1.335030e+02  -1.789890e+01
  -1.372792e+02  -2.075802e+02
  -4.352354e+01  -3.168458e+02
   2.304332e+02  -3.772638e+01
   3.582600e+02   1.540966e+02
   2.133656e+02   2.604362e+02
  -1.070032e+02   2.702216e+02
  -2.328175e+02   1.167746e+02
  -1.365256e+02  -9.804665e+00
  -7.500377e+01  -6.432552e+00
  -2.036970e+02   1.000348e+02
  -3.313718e+02  -8.878538e+01
  -2.416108e+02  -2.354830e+02
  -3.422808e+01  -3.880003e+02
   3.585076e+02  -4.192346e+02
   4.382025e+02  -1.651369e+02
   2.975032e+02   9.058041e+01
   2.130254e+01   2.081238e+02
  -1.138899e+02   1.811054e+02
  -8.778043e+01   2.489192e+01
   6.897051e+01  -1.093167e+02
   2.191169e+02  -4.474729e+01
  -1.345019e+00   1.695762e+02
  -1.327710e+02   1.145456e+02
  -1.578174e+02  -1.740711e+01
  -2.558681e+01  -1.888870e+02
   1.202522e+02   5.579986e+01
   1.366673e+02   2.006464e+02
  -4.734847e+01   2.412857e+02
  -1.228049e+02   2.302497e+02
  -3.023872e+02  -2.775327e+01
  -2.420032e+02  -2.201735e+02
  -1.108242e+02  -2.127561e+02
   8.354934e+01  -6.539075e+01
   1.915163e+02   2.406470e+01
   1.784634e+01   3.448542e+01
  -7.431502e+01  -5.441826e+01
  -5.231192e+01  -1.526544e+02
   9.599770e+01  -7.684804e+01
   1.183759e+02   4.574439e+01
   2.247575e+01   7.022855e+01
  -1.234417e+02   4.608178e+01
  -2.614122e+01  -6.506003e+01
   1.158618e+02  -2.793721e+01
   2.123466e+02   4.612857e+01
   2.367030e+02   1.167142e+02
   8.592125e+01   2.106165e+02
  -1.732634e+02   2.642013e+02
  -2.279085e+02   1.013189e+02
  -2.411946e+02  -3.480238e+01
   3.029066e+01  -1.231244e+02
   1.151928e+02   9.773962e+00
   1.232070e+01   1.139155e+02
  -1.627821e+02   7.002426e+01
  -2.054093e+02  -4.683304e+01
  -4.972063e+01  -1.774422e+02
   4.091693e+01  -1.540580e+02
   1.153586e+02  -1.109644e+00
   7.086304e+01  -1.577853e+00
  -2.567594e+01  -4.191374e+01
  -1.496028e+01  -4.999495e+01
   9.312426e+01  -1.331278e+02
   2.109113e+02   7.247854e+00
   1.869600e+02   1.361837e+02
  -8.509008e-01   2.260012e+02
  -1.454095e+02   1.670366e+02
  -1.496138e+02   9.205680e+00
  -5.046932e+01  -1.232805e+02
   1.044819e+02  -1.202171e+02
   6.608226e+01  -1.196879e+01
   5.759248e+01   4.916552e+01
  -2.924854e+01   2.446764e+01
   2.866028e+01   2.044039e+00
   3.909375e+01   2.535754e+01
   1.412983e+01   9.311994e+01
   2.687056e+01   1.288919e+02
  -1.129889e+02   8.271275e+01
  -2.021666e+02   3.655857e+01
  -1.812863e+02  -1.611099e+02
  -6.829968e+01  -1.822488e+02
   3.807901e+01  -1.841980e+02
   1.096879e+02  -4.351287e+01
   2.182594e+01   1.713590e+01
   2.837701e+01   5.292470e+00
   8.907125e+01  -4.483783e+01
   8.734507e+01   3.673244e+01
  -5.790237e+01   8.813864e+01
  -5.407913e+01   1.200572e+02
  -1.109176e+02   3.299228e+01
  -4.273073e+01  -2.652625e+01
  -3.094984e+01  -5.765663e+01
   6.233161e+01  -6.102550e+01
   1.692420e+02   6.232754e+01
   7.504974e+01   1.267860e+02
  -4.022856e+01   2.418687e+02
  -3.086601e+02   1.034313e+02
  -1.981957e+02  -5.706457e+01
  -1.305204e+02  -1.541519e+02
   2.670220e+01  -1.485694e+02
   1.093081e+02  -1.137917e+02
   8.135769e+01  -2.647193e+01
   1.051969e+01  -5.510221e+01
   8.386573e+01  -8.371610e+01
   1.040958e+02  -4.911983e+01
   9.344641e+01   9.275073e+01
  -1.774552e+01   1.711037e+02
  -8.505170e+01   1.334330e+02
  -1.105606e+02   7.866508e+01
  -1.368295e+02  -8.427779e+01
  -3.314804e+01  -1.130960e+02
  -3.767140e+01  -1.282699e+02
   8.478993e+01   5.131114e+01
  -2.105527e+01   5.205512e+01
  -1.326686e+01   8.548197e+00
   9.365723e+01   3.266581e+01
   5.913191e+01  -3.866393e+00
   2.444749e+01  -1.214135e+01
  -3.972981e+01   9.999380e+00
  -1.356384e+02   8.557556e+01
  -2.114115e+02  -2.769962e+01
  -2.637839e+01  -7.132755e+01
   5.481648e+01  -7.303898e+01
   1.029880e+02  -9.322993e+00
   6.079491e+01   2.350769e+01
  -1.552725e+01   5.723004e+01
  -6.182549e+01  -6.033408e+01
  -8.443209e+01  -2.057051e+01
   7.385395e+01  -4.274010e+01
   1.064433e+02  -2.719492e+00
   1.848614e+01   2.987603e+01
   1.072457e+01   5.854833e+00
   3.229432e+01  -3.322782e+01
   5.906732e+01  -1.736492e+00
   4.093833e+01   7.176876e+01
   3.165344e+01   6.009874e+01
  -1.238281e+02   9.840205e+01
  -1.334280e+02   7.097459e+01
  -1.322521e+02  -8.654743e+01
  -5.305191e+01  -7.739834e+01
  -8.849626e+00  -3.148221e+01
   6.053608e+01  -3.374922e+01
  -5.264895e+01   1.446737e+01
  -1.722401e+02   1.352071e+00
  -3.622457e+01  -7.705262e+01
   6.798135e+01  -1.011118e+02
   2.209756e+02  -4.695092e+01
   2.014934e+02   6.394391e+01
  -1.535454e+01   1.288686e+02
  -2.823464e+01   7.919406e+01
  -3.507374e+01   6.389136e+00
   7.668527e+01  -4.750904e+01
   8.867427e+01   1.590412e+01
   1.037775e+00   5.128342e+01
  -6.338133e+01   1.112343e+02
  -2.071830e+02   2.851719e+01
  -1.096711e+02  -4.475138e+01
   1.085495e+01  -1.838467e+02
   7.623475e+01  -1.117210e+02
   1.343199e+02  -1.803259e+01
   7.748563e+01   1.323553e+02
  -2.546310e+01   4.301704e+01
  -5.419552e+00   3.689010e+01
  -2.918080e+01  -2.488478e+01
  -9.758269e+00   8.000626e+00
  -2.399912e+01   4.502867e+01
   1.861132e+01  -7.975438e+00
  -1.708569e-02  -1.429116e+01
  -4.926129e+01  -6.828293e+01
   6.635907e+01  -5.046786e+01
   1.148089e+02   1.669465e+01
   1.150658e+02   5.193841e+01
  -3.001283e+01   6.058764e+01
  -9.273811e+01  -2.564558e+01
  -1.102604e+02   6.088734e+01
   2.590568e+01  -8.592334e+00
   2.695629e+01  -3.847376e+01
   8.853330e+00  -2.905389e+01
  -4.051408e+01  -6.193895e+00
   1.796815e+01   9.880729e+00
   4.109991e+00   2.095215e+01
   8.560554e+01   1.366133e+01
   8.872125e+00   8.917662e+01
  -1.051907e+02   1.287174e+02
  -1.805668e+02   2.960200e+01
  -1.018878e+02  -1.296889e+02
  -5.693976e+00  -1.719944e+02
   7.684901e+01  -1.347687e+02
   1.135602e+02  -8.280715e+01
   1.113504e+02   1.025687e+01
  -9.534131e+00   3.403396e+01
   9.193819e+00   2.779345e+01
  -2.985617e+01  -3.651648e+01
   2.763628e+01   6.147431e+01
  -9.651403e+00   9.196093e+01
  -2.917170e+01   6.225715e+01
  -5.387954e+01  -1.946717e+01
  -5.701768e+00  -1.098319e+02
   4.510857e+01  -4.204143e+01
   8.501643e+01  -8.596075e+00
   9.297233e+01   1.092538e+02
  -7.934286e+00   1.097002e+02
  -8.602524e+01   4.598829e+01
  -1.004250e+02  -2.471092e+01
  -2.980565e+01  -5.086998e+01
   4.327031e+01  -4.385712e+01
   2.778963e+01  -5.223105e+01
  -3.921663e+01  -5.961074e+00
  -7.570175e+01  -5.581689e+00
   2.763400e+01  -7.887916e+01
   4.811708e+01  -6.418267e+01
   7.083347e+01  -8.942408e+01
   6.977720e+01  -2.386186e+01
   4.244336e+00   1.029551e+02
   4.111232e+01   9.779817e+01
  -2.155864e+01   3.037645e+01
   1.908551e+01  -4.963778e+01
  -2.398179e+01  -5.818185e+01
   6.185005e+01   2.563478e+01
  -9.216916e+00   4.647625e+01
   4.970913e-01   5.621109e+01
   3.278187e+00  -8.199592e-01
   2.979065e+01  -1.222621e+01
  -6.786527e+01   1.657617e+01
   4.460258e+01   2.711278e+01
  -9.179038e+00   4.136491e+00
   2.448665e+01   5.239836e+00
   7.923308e+01   1.498650e+01
  -3.067912e+00   4.856273e+01
  -7.184183e+00   4.146579e+01
   3.902928e+01   6.802665e+01
  -4.950311e+01   1.814236e+01
  -2.295570e+01  -3.523144e+01
  -2.051430e+01  -4.239937e+01
   9.073718e+01  -8.122267e+01
   2.477250e+01  -2.781507e+01
   6.425437e+01   3.653196e+01
  -4.180909e+01   7.748800e+01
  -7.690597e+01   3.530091e+01
   5.763902e+00   6.198683e+01
  -2.226216e+01   4.474186e+01
   5.233090e+01   2.367488e+01
   9.020381e+00   3.518220e+01
  -5.200814e+01  -1.016799e+00
