
 $NMID
 id='ANONYMOUS ', fmtdat='(2E16.6)'
 volume=1.0
 tramp=1.0
 $END
  -2.226949e+03  -3.473340e+01
  -1.611598e+03  -1.008359e+03
  -2.358406e+02  -1.433146e+03
   7.066867e+02  -1.096274e+03
   7.429849e+02  -3.989084e+02
   2.338089e+02   7.096635e+01
  -2.023667e+02  -1.635243e+00
  -9.898202e+01  -2.903288e+02
   2.348649e+02  -3.930401e+02
   4.698308e+02  -1.373324e+02
   3.039925e+02   3.610614e+02
   1.193489e+02   4.436963e+02
  -6.163011e+01   1.403487e+02
  -1.404660e+02  -2.424784e+02
   8.062032e+01  -3.354104e+02
   2.591224e+02  -1.045445e+02
   2.855652e+02   3.250844e+02
  -4.183707e+01   4.612710e+02
  -3.384531e+02   2.772955e+02
  -3.544938e+02  -1.167456e+02
  -2.181038e+02  -2.862090e+02
   5.233143e+01  -1.948293e+02
   1.319072e+01  -7.949733e+01
  -1.173132e+02  -1.359069e+02
  -2.212391e+02  -2.564668e+02
   2.614249e+01  -2.471638e+02
   3.848170e+02  -3.432789e+01
   4.599715e+02   2.257417e+02
   8.848442e+01   2.132713e+02
  -2.117483e+02   1.134076e+02
  -3.054860e+02  -1.238786e+02
  -1.083863e+02  -2.486325e+02
   1.932174e+02  -2.505671e+02
   3.416087e+02  -6.902982e+01
   2.695447e+02   1.177305e+02
   7.948945e+01   1.518914e+02
   1.851699e+01   1.078029e+02
   9.745268e+01  -2.415867e+01
   1.205468e+02  -2.780329e+01
   1.080805e+02   1.343033e+02
  -8.087247e+01   3.539477e+02
  -1.814531e+02   2.311814e+02
  -1.919526e+02  -6.602751e+01
  -2.547529e+01  -1.086555e+02
   6.945704e+01  -3.952629e+01
   1.212434e+02   2.403531e+02
  -9.083830e+01   2.927283e+02
  -2.956439e+02   5.922115e+01
  -3.758846e+02  -3.130509e+02
  -1.519090e+02  -3.506484e+02
   2.491176e+02  -2.256063e+02
   3.349169e+02   4.799377e+01
   2.677156e+02   1.566432e+02
  -1.748142e+01   1.365178e+02
  -1.339234e+02   1.193363e+02
  -1.632626e+02  -1.521816e+01
  -7.332255e+01  -2.046211e+01
   2.252600e+01   6.405002e+01
  -1.589198e+01  -6.409853e+00
  -1.316493e+02  -9.168366e+01
  -1.441101e+02  -1.060995e+02
   1.231724e+02  -1.516118e+02
   2.983216e+02  -9.803706e+01
   2.246096e+02   7.260972e+01
  -2.347027e+01   2.235141e+02
  -2.740473e+02   3.143399e+02
  -2.926772e+02   1.406539e+02
  -1.671298e+02  -1.507280e+02
  -3.990915e+01  -2.566004e+02
  -1.173105e+01  -2.079032e+02
   1.154496e+01  -1.122342e+02
   6.891721e+01  -8.952776e+01
   7.128930e+01  -6.715056e+01
   2.308557e+02  -4.336862e+01
   2.002787e+02   1.860248e+02
   2.442129e+01   2.315452e+02
  -1.775711e+01   1.272668e+02
  -1.852072e+02   5.438484e-01
  -4.511929e+01  -2.141852e+02
   1.480359e+01  -1.271919e+02
   2.086111e+02   1.417314e+01
   1.992035e+02   1.592523e+02
   9.588059e+01   2.351674e+02
  -1.206631e+00   2.009751e+02
  -1.457165e+02   1.572433e+02
  -1.051205e+02   5.641970e+01
  -1.270601e+02   1.550290e+02
  -1.931895e+02   5.167468e+01
  -3.843068e+02  -1.017224e+02
  -2.877117e+02  -1.779257e+02
  -5.568660e+01  -2.870748e+02
   2.934373e+02  -3.327651e+02
   4.193888e+02  -9.719068e+01
   2.106574e+02   4.079668e+01
  -1.930379e+01   1.503468e+02
  -7.437003e+01   8.408867e+01
   5.284986e+01   7.253433e+01
   8.372930e+01  -1.372828e+01
   1.241296e+02   3.890119e+01
   6.504021e+00   6.001830e+01
  -6.531312e+01   5.251694e+01
  -6.865839e+01  -7.507825e+01
   1.800825e+01  -1.093241e+02
   1.126170e+02   1.712480e+01
   1.197114e+02   2.061648e+02
  -5.168230e+01   2.561217e+02
  -1.361789e+02   1.529596e+02
  -3.146076e+02   3.584363e+00
  -1.769541e+02  -2.410425e+02
  -1.105236e+01  -2.631728e+02
   7.561289e+01  -1.123160e+02
   1.169243e+02   3.217613e+01
   3.292017e+01  -2.684709e+01
  -2.255027e+01  -7.427965e+01
  -6.105769e+01  -7.546669e+01
   9.114883e+01  -1.770552e+01
   9.008944e+01   3.801965e+01
   2.365271e+00   6.979521e+00
  -9.273732e+01  -8.088474e+01
  -4.842785e+01  -8.495140e+01
   1.200492e+02  -9.450230e+01
   2.491990e+02   4.510009e+01
   2.483467e+02   1.040207e+02
   1.215378e+01   2.425913e+02
  -1.307842e+02   1.980784e+02
  -1.955958e+02   4.547656e+01
  -1.004114e+02  -2.894326e+01
   1.057696e+02  -8.455207e+01
   2.086057e+01   1.639245e+01
   9.382147e+00   5.268850e+01
  -1.267920e+02   5.471305e+01
  -2.016038e+02  -1.165261e+02
  -2.085080e-01  -9.655956e+01
   7.433554e+01  -1.356250e+02
   1.558448e+02   5.304692e+01
   1.423333e+01   4.352967e+01
  -3.159022e+01  -6.259912e+01
   4.735490e+00  -1.489146e+02
   9.601510e+01  -9.414857e+01
   1.397993e+02  -3.694529e+01
   1.123355e+02   1.600864e+02
  -3.122413e+01   1.532980e+02
  -1.305313e+02   9.539493e+01
  -1.637738e+02   3.050218e+01
  -3.955823e+01  -1.409460e+02
  -5.405862e+00  -8.915988e+01
   3.526194e+01   1.336443e+01
  -5.258490e+01   7.409279e+01
  -5.731322e+01  -6.511312e+01
  -3.907227e+01  -1.473899e+01
   7.871553e+01   5.159419e+01
   1.238459e+02   8.743268e+01
  -2.127723e+00   1.174931e+02
  -1.378343e+02   1.928943e+02
  -1.936338e+02  -2.226700e+01
  -1.764234e+02  -1.336331e+02
   1.324857e+01  -2.270395e+02
   1.552556e+01  -1.259101e+02
   6.661426e+01   3.211048e+01
   7.564291e+01   4.342085e+01
   8.037768e+01   2.774784e+01
   5.455165e+01   1.908149e+01
   5.108798e+01   5.272106e+01
   4.972706e+00   4.434506e+01
   2.249536e+01   3.026212e+01
  -1.368830e+02   1.376417e+02
  -9.974201e+01  -5.611298e+01
   2.089400e+01  -1.125063e+02
   1.160638e+02  -9.052486e+01
   2.014496e+02   1.441576e+01
   6.755674e+01   1.449789e+02
  -9.825986e+01   1.576768e+02
  -2.284239e+02   6.906704e+01
  -1.702896e+02  -1.060261e+02
  -8.299702e+01  -1.669955e+02
   1.187471e+01  -1.724947e+02
   8.594170e+01  -6.403893e+01
   7.003969e+01  -4.436988e+01
   5.064392e+01  -8.213737e+01
   6.897163e+01  -6.510514e+01
   1.027276e+02   7.691954e-01
   7.878436e+01   9.241548e+01
   2.150656e+01   1.586659e+02
  -1.076600e+02   1.351881e+02
  -1.590037e+02  -2.598345e+01
  -1.149775e+02  -2.273522e+01
  -1.389655e+01  -1.312714e+02
   5.637628e+01   3.796068e+01
   4.728758e+01  -5.051018e+00
   3.051531e+01   1.376181e+00
   1.922790e+01   7.742254e+01
   4.456266e+01   1.592130e+01
   6.103820e+01   6.767589e+01
   4.928768e+01   9.424488e+00
  -3.515895e+01   1.557834e+00
  -1.503810e+02  -6.392256e+01
  -9.247538e+01  -6.963623e+01
  -2.343025e+01  -3.833478e+01
   1.157227e+02  -7.786347e+01
   1.331320e+02   5.807362e+01
   6.253755e+01   1.056699e+02
  -9.554051e+01   8.485001e+01
  -4.169004e+01  -7.196746e+00
  -1.630170e+01  -8.024551e+01
   1.291380e+01  -2.567246e+01
   5.601292e+01   2.964813e+01
   6.418000e+01   5.234543e+01
   1.401899e+01   2.550607e+01
   4.030376e+01   5.019615e+01
   5.188929e+01   5.632879e+01
   2.017761e+01   1.177485e+02
  -2.641408e+01   9.801462e+01
  -1.218893e+02   1.014706e+02
  -1.537711e+02   2.561736e+01
  -7.806250e+01  -1.121731e+02
   2.082579e+01  -8.490439e+01
   8.966908e+01  -7.855667e+01
   3.724188e+01   4.501139e+01
  -4.030205e+01   2.724773e+01
  -1.102262e+02  -3.611604e+01
  -1.826428e+01  -1.147940e+02
   5.532960e+01  -8.883500e+01
   8.972911e+01  -2.287751e+01
   8.011143e+01   1.304073e+02
   3.372990e+01   5.551224e+01
  -9.594635e+00   4.860014e+01
  -5.954936e+01  -7.577214e+01
   5.994408e+01   4.431494e+00
   3.303355e+01   4.488726e+01
   4.157958e+01   5.920221e+01
  -1.851746e+01   1.561108e+02
  -1.287201e+02   1.046287e+02
  -1.076521e+02  -1.815968e+01
  -1.981255e+00  -1.575508e+02
   8.049661e+01  -1.460446e+02
   6.737709e+01   5.896187e+00
   5.192211e+01   8.223863e+01
  -4.413007e+01   5.986773e+01
   1.547464e+01  -2.819871e+01
  -7.318389e+01  -6.426815e+01
  -9.087237e+00  -7.612526e-01
  -1.447863e+01   1.330096e+01
  -6.535202e+01  -4.361467e+01
  -2.923429e+01  -9.242018e+01
  -3.316855e+01  -1.052290e+02
   3.413273e+01  -1.172945e+01
   1.108387e+02  -2.675782e+00
   1.304279e+02   5.499204e+01
   3.370627e+01   1.112796e+02
  -9.272200e+01  -8.545101e+00
  -9.290143e+01   5.464972e+00
  -1.388209e+01  -1.783456e+01
   7.239647e+01  -3.874082e+01
   6.518391e+01   1.563600e+01
  -4.527119e+01   3.000412e+01
   2.138676e+01   4.169532e+01
   5.309590e+01   3.680420e+01
   1.164765e+02   5.260033e+01
   2.635239e+01   5.235738e+01
  -1.161277e+02   1.336351e+02
  -2.245810e+02   4.077201e+01
  -1.362663e+02  -3.413982e+01
  -6.378910e+01  -1.451527e+02
   9.108658e+01  -1.456986e+02
   9.363429e+01  -7.204157e+01
   8.543146e+01  -8.001732e+00
   1.444743e+01   1.343419e+01
  -5.536638e+01   4.296720e+01
  -3.286604e+01  -8.270287e+01
   2.630372e+01   3.760580e+01
   4.643908e+01   1.060663e+02
  -1.610342e+01   1.599837e+00
  -8.180471e+01  -2.455887e+01
  -7.045822e+01  -9.109863e+01
   8.185582e+00  -8.910064e+01
   3.087863e+01  -2.854903e+01
   3.848397e+01  -9.036651e-01
   4.583458e+01   9.633999e+01
  -6.578677e+01   5.814479e+01
  -1.314060e+02  -2.634555e+01
   3.115559e+01  -9.571624e+01
   3.683884e+00  -6.180812e+01
   3.818103e+01  -4.289492e+01
   1.483370e+01  -3.475930e+01
  -5.405622e+01   7.425964e+00
   2.442706e+00  -2.778996e+01
   2.475862e+01  -5.699668e+01
   1.093467e+02  -7.164776e+01
   5.179653e+01   2.373994e+01
   3.030192e+01   6.129277e+01
  -1.571993e+01   7.041011e+01
  -8.796928e+01  -4.927314e+01
  -2.833144e+01  -7.525352e+01
  -1.748025e+01  -9.977356e+01
   4.034545e+01   1.564769e+01
   7.333253e+01   5.753168e+01
   1.109960e+01   4.780945e+01
  -1.295729e+02  -1.222297e+01
  -6.915563e+01  -3.201819e+01
  -5.498211e+01  -2.244702e+01
   8.828909e+00  -2.731344e+01
  -3.810469e+01   7.887034e+01
  -1.010300e+01  -3.598198e+01
  -1.247576e+01  -5.356023e+01
   1.114436e+02   3.853411e+00
   6.704482e+01  -9.480032e+01
   6.107750e+01   7.912499e+01
  -6.023406e+01   5.776448e+01
  -1.559293e+01  -2.585063e+01
  -1.021501e+01  -3.911104e+01
   8.147402e+01  -4.708897e+01
   5.753169e+01   3.230258e+01
   4.833909e+00   6.331500e+01
   2.339143e+01   5.890102e+01
  -2.137924e+01   5.167190e+01
  -4.145154e+01   2.476451e+01
   2.915073e+01   6.596234e+00
   3.660787e+01   3.508681e+00
  -1.128314e+01  -1.005806e+01
  -9.973233e+01   7.459747e+00
