
 $NMID
 id='ANONYMOUS ', fmtdat='(2E16.6)'
 volume=1.0
 tramp=1.0
 $END
  -3.864188e+03   4.437577e+01
  -2.352669e+03  -2.093712e+03
   2.511197e+02  -2.402337e+03
   1.645686e+03  -1.149697e+03
   1.024006e+03   1.422330e+02
  -2.183739e+02   3.414873e+02
  -6.171232e+02  -2.343235e+02
   1.837164e+01  -7.528884e+02
   6.009640e+02  -6.934416e+02
   7.575831e+02   2.632049e+01
   4.378697e+02   6.635683e+02
  -9.659234e+01   8.361960e+02
  -4.399726e+02   2.059190e+02
  -3.036269e+02  -5.450671e+02
   1.800365e+02  -6.421171e+02
   4.715502e+02  -3.214752e+01
   2.990722e+02   5.824601e+02
  -1.480664e+02   6.237547e+02
  -5.629536e+02   1.947590e+02
  -4.269786e+02  -2.508668e+02
  -1.025707e+02  -4.126835e+02
   2.067317e+02  -2.545937e+02
   1.464177e+02  -1.358604e+02
  -1.402423e+02  -1.674651e+00
  -3.704283e+02  -2.312038e+02
  -5.802441e+01  -4.242775e+02
   4.676529e+02  -2.911660e+02
   7.236693e+02   1.923636e+02
   3.576168e+02   4.799140e+02
  -3.676819e+02   3.293506e+02
  -5.989704e+02  -8.707404e+01
  -3.244823e+02  -4.286227e+02
   2.838588e+02  -4.518389e+02
   4.963327e+02  -1.450134e+02
   4.027741e+02   1.672705e+02
   4.737015e+01   4.399708e+02
  -9.895046e+01   2.527177e+02
  -3.767049e+01  -1.318391e+02
   1.300379e+02  -2.312097e+02
   3.727288e+02   8.951883e+01
   1.497473e+02   5.604031e+02
  -3.865578e+02   5.955490e+02
  -4.919599e+02   2.482979e+01
  -2.036817e+02  -4.203790e+02
   2.441547e+02  -2.033547e+02
   2.965997e+02   2.950812e+02
  -1.072241e+02   5.055046e+02
  -4.923812e+02   1.184912e+02
  -5.709893e+02  -3.377085e+02
  -1.961513e+02  -5.412763e+02
   3.117459e+02  -2.935653e+02
   5.731059e+02   2.300145e+01
   3.659830e+02   3.027322e+02
  -1.042930e+02   3.104454e+02
  -3.410209e+02   7.647911e+01
  -2.784673e+02  -1.080287e+02
   5.330854e+01  -1.175599e+01
   9.264498e+01   1.841833e+02
  -1.187685e+02   1.149238e+02
  -2.391445e+02  -2.023558e+01
  -1.453404e+02  -2.376395e+02
   2.208623e+02  -2.521418e+02
   3.135767e+02  -7.447936e+01
   2.900642e+02  -2.009263e+00
  -4.549423e+01   2.837708e+02
  -2.667308e+02   3.532243e+02
  -4.030456e+02   2.299984e+02
  -2.819983e+02  -1.477003e+02
  -8.398124e+01  -3.461305e+02
   7.828009e+01  -3.026422e+02
   6.897646e+01  -1.376668e+02
  -2.870750e+01  -1.008205e+02
   8.167991e+01  -7.697961e+01
   2.194036e+02  -3.385433e+01
   2.986986e+02   7.929726e+01
   1.038805e+02   3.074613e+02
  -7.782834e+01   2.282762e+02
  -2.433641e+02  -3.065898e+01
  -8.627091e+01  -2.319840e+02
   2.529222e+01  -2.336299e+02
   3.289198e+02  -1.130270e+02
   3.540742e+02   1.874277e+02
   1.552613e+02   2.920706e+02
   1.496186e+01   2.713047e+02
  -1.637557e+02   1.474937e+02
  -1.601305e+02   7.898005e+01
  -1.269502e+02   9.014687e+01
  -2.933103e+02   2.655581e+01
  -4.139109e+02  -6.263557e+01
  -3.606720e+02  -2.521713e+02
   1.913508e+01  -4.699397e+02
   3.804702e+02  -4.027273e+02
   4.733662e+02  -1.893345e+02
   3.226655e+02   9.620661e+01
   2.784833e+01   2.187489e+02
  -1.115108e+02   2.404200e+02
  -3.157534e+01   6.654078e+01
   1.075928e+02  -1.211584e+02
   1.810646e+02   5.713796e+01
   2.968642e+01   1.502256e+02
  -1.584811e+02   1.088035e+02
  -1.282582e+02  -6.591370e+01
   2.318575e+00  -1.355843e+02
   1.966471e+02   7.011451e+00
   1.436208e+02   2.297259e+02
  -6.978877e+01   3.491897e+02
  -2.237811e+02   1.940307e+02
  -2.874724e+02  -6.126898e+01
  -2.844580e+02  -2.448667e+02
  -9.828115e+01  -2.655394e+02
   1.098488e+02  -1.438108e+02
   1.495510e+02  -6.732020e+01
   7.337422e+01   6.011278e+00
  -1.074037e+02  -3.137749e+01
  -9.486740e+01  -4.334694e+01
   1.714934e+02  -1.161330e+02
   1.779977e+02   5.454397e+01
   7.095087e+01   9.192451e+01
  -9.565098e+01  -4.843512e+01
  -3.020950e+01  -1.093496e+02
   1.182906e+02  -1.284179e+02
   3.009323e+02   6.285970e+01
   2.529324e+02   1.736442e+02
  -3.620075e+01   2.307061e+02
  -1.835871e+02   2.789874e+02
  -2.475492e+02   7.950144e+01
  -1.282769e+02  -6.830403e+01
   8.725133e+01  -8.223299e+01
   1.264751e+02  -7.268197e+00
  -6.773880e+01   8.499117e+01
  -2.637773e+02   5.601794e+01
  -2.255434e+02  -7.838389e+01
  -7.539856e+01  -1.697514e+02
   6.600326e+01  -1.213920e+02
   1.276791e+02  -1.452692e+01
   6.289349e+01   1.328983e+01
  -4.910415e+01   1.794794e+01
  -5.726776e+01  -1.232168e+02
   1.015883e+02  -1.262510e+02
   2.408255e+02  -5.021733e+01
   2.389848e+02   1.202023e+02
  -2.355494e+01   2.051599e+02
  -1.429422e+02   1.473217e+02
  -2.175294e+02  -3.949545e+01
  -2.437452e+01  -1.128777e+02
   1.380428e+02  -1.301112e+02
   6.591287e+01  -6.349329e+01
  -1.796650e+00   2.073670e+01
  -4.983751e+01   1.002007e+00
   8.354248e+00  -4.613178e+01
   6.747717e+01   1.833924e+00
   2.421394e+01   1.219325e+02
   3.153867e+01   1.816501e+02
  -1.258989e+02   1.995429e+02
  -2.826367e+02   2.117837e+01
  -1.960975e+02  -1.515648e+02
  -8.510697e+01  -2.217390e+02
   1.286004e+02  -1.905281e+02
   1.398345e+02  -5.241822e+01
   7.762928e+01   1.542234e+01
   5.293547e+01   3.282614e+01
   7.667661e+01  -2.784615e+01
   1.180010e+02   8.651217e+00
   1.860105e+01   3.630641e+01
  -9.302912e+00   1.091573e+02
  -1.587378e+02   5.478516e+01
  -1.053711e+02  -2.646690e+01
   5.041569e+01  -1.198596e+02
   1.443413e+02  -3.111173e+01
   2.298053e+02   1.010655e+01
   5.874093e+01   2.139516e+02
  -1.107446e+02   1.646867e+02
  -2.327113e+02   7.735472e+01
  -2.523313e+02  -8.362796e+01
  -1.194671e+02  -1.808597e+02
   8.475617e+01  -1.314405e+02
   8.065797e+01  -9.995930e+01
   9.588812e+01  -4.783367e+01
   5.185308e+01  -3.537766e+01
   1.083854e+02  -9.445406e+01
   1.441726e+02  -1.779135e+01
   1.403127e+02   1.623943e+02
   8.970587e+01   2.311217e+02
  -6.050476e+01   1.540576e+02
  -1.867018e+02   2.614909e+01
  -9.583360e+01  -1.020311e+02
  -4.144080e+00  -1.114153e+02
   7.649476e+01  -1.311682e+02
   1.617679e-01  -1.726908e+01
   2.727753e+01   1.141574e+01
  -5.100255e+01   1.856874e+01
   2.283448e+01   1.031598e+01
   7.375952e+01   3.109497e+01
   4.605421e+01   5.816060e+01
  -3.491142e+01   4.986992e+01
  -1.494862e+02   7.301972e+01
  -9.329067e+01  -6.131001e+01
   7.299856e+00  -1.168849e+02
   1.430002e+02  -4.091998e+01
   1.402248e+02  -2.815863e+01
   3.243748e+01   7.102230e+01
  -9.010992e+01   6.322114e+01
  -7.068248e+01  -7.993725e+01
  -8.950223e+00  -6.532740e+01
   5.026666e+01  -6.820575e+01
   3.153721e+01  -5.325150e+00
   6.587382e+01  -9.066118e+00
   8.494946e+01   6.087078e+01
   7.965259e+01  -4.485567e+01
   4.101371e+01  -9.162214e+00
   6.618580e+01   4.936503e+01
  -6.710690e+01   1.361211e+02
  -1.423755e+02   1.023793e+02
  -1.687291e+02   6.701951e+01
  -1.302682e+02  -1.158290e+02
   2.412453e+01  -7.242832e+01
   7.258126e+01  -3.877334e+01
   4.105118e+01  -1.697861e+01
  -7.567523e+01  -3.820865e+01
  -1.096333e+02  -4.827459e+01
  -4.955737e+01  -1.549125e+02
   3.227024e+01  -9.914394e+01
   1.298142e+02  -3.801297e+01
   1.976931e+02   7.425367e+01
   1.715070e+00   5.368284e+00
  -3.523957e+01   1.019869e+02
  -6.493504e+01  -4.576793e+01
   2.436430e+01  -3.217027e+01
   1.007368e+02   1.968486e+01
   7.863971e+01   1.009811e+02
  -5.124296e+01   1.648713e+02
  -1.849691e+02   3.125966e+01
  -1.427994e+02  -5.855009e+01
  -8.188763e+00  -1.675531e+02
   3.708507e+01  -1.254271e+02
   5.955128e+01   8.704660e+01
   6.207008e+01   1.117219e+02
  -1.646618e+01   6.310995e+01
  -1.878948e+01   5.722010e+01
   4.766663e+00  -5.236612e+01
  -8.517736e+00  -4.838075e+01
  -5.635997e+01  -4.317584e+01
  -4.963344e+01  -4.455059e+01
  -1.053401e+02  -1.382853e+02
   3.789088e+00  -1.333144e+02
   1.477289e+01  -2.869675e+01
   1.765869e+02   1.812299e+01
   1.324227e+02   1.387989e+02
   4.230868e+01   2.588707e+01
  -8.052272e+01   4.415579e+01
  -6.994141e+01   6.391033e+01
  -3.192938e+01   4.794043e+01
   4.920678e+01  -4.532308e+01
   7.327489e+00  -8.249913e+00
  -4.148451e+01   1.611508e+01
   2.060577e+01   2.514399e+01
   2.225419e+01  -3.853415e+01
   1.332553e+02  -1.299592e+01
  -6.818045e+00   8.876905e+01
  -1.328506e+02   6.901190e+01
  -1.663214e+02   7.957313e+01
  -1.040449e+02  -1.120966e+02
  -2.896672e+01  -1.360322e+02
   1.187524e+02  -1.497975e+02
   8.413735e+01  -6.891750e+01
   7.069316e+01   4.737402e+01
   1.553900e+01  -1.860956e+00
   2.541861e+01  -1.095777e+00
   5.649661e+01   2.741908e+01
  -2.030089e+00   1.013646e+02
  -2.142398e+01   1.113886e+02
  -4.946952e+01   8.045954e+01
  -1.099372e+02  -3.360521e+01
  -5.218006e+01  -1.250450e+02
  -2.569045e+01  -4.233396e+01
   1.040757e+02  -3.796776e+01
   1.053568e+02   2.725727e+01
   8.202207e+01   1.181480e+02
  -3.763080e+01   9.269941e+01
  -1.048633e+02  -5.817650e+01
  -8.175520e+01  -4.560929e+01
   5.028557e+00  -1.053540e+02
   5.754690e+01  -5.065224e+01
   1.495339e+01   3.360512e+00
  -4.327438e+01  -3.902624e+01
  -2.961641e+01  -5.195849e+01
   6.967173e+01  -7.896153e+01
   8.284614e+01  -8.046762e+01
   5.888014e+01   3.212011e+01
  -6.184814e+01   1.305927e+02
  -7.306430e+00   1.078708e+02
   2.947164e+00   5.350886e+00
  -2.304070e+01  -2.496733e+01
   7.734901e+01  -1.987020e+01
   7.312459e+01   2.428526e+00
   2.872661e+01   3.787185e+01
  -5.968587e+00   5.092940e+01
  -4.910856e+01  -3.705362e+01
  -2.590370e+01  -5.561375e+01
   6.196502e+00   2.449598e+01
  -4.527996e+01   1.088042e+01
   4.590312e+01   3.743486e+01
  -1.185556e+01  -7.703552e+00
   2.096866e+00  -9.631686e+01
   3.448864e+01  -7.633984e+01
  -9.626107e+00   2.504727e+01
   3.455467e+01   8.507381e+01
  -5.127740e+01   6.745866e+01
  -2.239646e+01  -1.330181e+01
  -3.408153e-01  -5.528899e+01
   6.911158e+01  -5.103151e+01
   6.090809e+01  -4.096241e+01
   5.498754e+01   3.765247e+01
  -9.669841e+00   5.998435e+01
  -5.396869e+01  -1.267619e+01
  -5.710237e+01   3.478187e+01
   4.546475e+01  -5.592091e+01
   2.947655e+01   1.348380e+01
  -4.813287e+01   8.269898e+01
  -1.047473e+02   1.826196e+01
