
 $NMID
 id='ANONYMOUS ', fmtdat='(2E16.6)'
 volume=1.0
 tramp=1.0
 $END
  -2.098103e+03  -2.819670e+00
  -1.482657e+03  -9.219708e+02
  -2.559538e+02  -1.352473e+03
   6.406086e+02  -1.072902e+03
   7.733982e+02  -4.797112e+02
   3.244566e+02   3.708814e+01
  -9.472030e+01   4.890280e+01
  -1.568624e+01  -2.358187e+02
   2.351988e+02  -3.922784e+02
   3.816599e+02  -1.463841e+02
   2.809094e+02   2.441551e+02
   1.168487e+02   4.375749e+02
  -1.027123e+02   1.201172e+02
  -1.289412e+02  -2.277621e+02
   7.200878e+01  -3.428435e+02
   2.265016e+02  -1.144008e+02
   2.266601e+02   2.798854e+02
  -2.958145e+01   5.444070e+02
  -3.223312e+02   2.961530e+02
  -3.308134e+02  -5.975469e+01
  -1.245634e+02  -2.294407e+02
   7.579800e+01  -1.416913e+02
   6.409197e+01  -9.624724e+01
  -1.598820e+02  -1.036451e+02
  -1.805046e+02  -2.653684e+02
   7.378299e+01  -2.928836e+02
   3.712198e+02  -4.987901e+00
   4.144345e+02   2.023707e+02
   1.402356e+02   1.858724e+02
  -2.159071e+02   8.288318e+01
  -2.950789e+02  -1.355018e+02
  -7.573754e+01  -2.413633e+02
   2.577986e+02  -2.122034e+02
   2.876192e+02  -5.921225e+01
   1.135577e+02   4.053148e+01
   8.551711e+01   1.845897e+02
   7.001946e+01   3.982437e+01
   1.014179e+02  -3.725260e+00
   1.372341e+02  -6.605276e+01
   4.860465e+01   1.352082e+02
  -7.126239e+01   2.932987e+02
  -2.137194e+02   2.594985e+02
  -1.237377e+02  -1.510756e+01
  -4.784528e+00  -1.639172e+02
   8.501926e+01  -2.753403e+01
  -5.355781e+00   1.983111e+02
  -8.027678e+01   1.675543e+02
  -3.246490e+02   1.725145e+01
  -3.430945e+02  -2.855917e+02
  -9.460449e+01  -3.535356e+02
   2.221592e+02  -2.397774e+02
   3.117490e+02   2.647303e+01
   2.133230e+02   1.005460e+02
  -9.184839e+00   1.377502e+02
  -1.741830e+02   4.008624e+01
  -2.016170e+02   6.408425e+01
  -9.456515e+01   3.270987e+00
  -1.556508e+01  -3.401971e+01
  -3.758568e+01   4.653434e+01
  -1.261311e+02  -3.004819e+01
  -1.047923e+02  -7.575635e+01
   1.473256e+02  -1.721996e+02
   2.732504e+02  -1.412954e+02
   1.958610e+02  -2.034339e+00
  -3.193348e+01   2.966291e+02
  -1.670411e+02   3.115967e+02
  -2.757865e+02   5.059375e+01
  -1.688318e+02  -1.339762e+02
  -8.885667e+01  -2.612854e+02
   2.033452e+01  -1.676040e+02
  -1.462819e-01  -1.996156e+02
   1.422828e+01  -1.485675e+02
   1.632512e+02  -1.243292e+02
   2.147678e+02  -2.162498e+00
   1.397465e+02   1.362943e+02
   5.348469e+01   2.089369e+02
  -1.024029e+02   1.182628e+02
  -1.488342e+02  -3.721598e+01
  -6.743124e+01  -2.103385e+02
   5.135412e+01  -2.271522e+02
   2.037311e+02  -4.508532e+01
   2.048889e+02   1.440345e+02
   1.207422e+02   1.391185e+02
  -3.260359e+01   1.936608e+02
  -1.050379e+02   1.336867e+02
  -1.449748e+02   3.977165e+01
  -1.787815e+02   9.936035e+01
  -2.686527e+02   3.956886e+01
  -2.968698e+02  -1.006625e+02
  -2.855749e+02  -2.251461e+02
   5.128307e+01  -3.724448e+02
   2.913409e+02  -2.902485e+02
   3.178289e+02  -1.179668e+02
   1.842451e+02   6.343290e+01
   5.375368e+01   1.609004e+02
  -5.827167e+01   1.779526e+02
  -2.774423e+00   3.574401e+01
   7.666411e+01   6.902254e+00
   9.042475e+01   2.794295e+01
  -2.519709e+01   6.602109e+01
  -2.680894e+01   1.024722e+02
  -6.656644e+01  -1.369351e+01
   7.006443e+01  -1.007126e+02
   1.689391e+02   4.279592e+00
   1.096185e+02   1.985230e+02
  -3.319211e+01   2.056134e+02
  -1.720047e+02   1.771996e+02
  -2.611437e+02  -7.677602e+01
  -2.239257e+02  -2.463875e+02
  -1.628526e+01  -2.656634e+02
   1.619235e+02  -4.296729e+01
   9.583230e+01   6.156116e+01
  -2.626593e+01   1.565141e+01
   4.257760e+01  -2.800975e+01
  -4.058588e+01  -1.121343e+02
   1.117660e+02  -6.316004e+01
   7.663328e+01  -5.103970e+01
   3.190874e+01  -4.666226e+00
  -2.053831e+01  -7.602320e+01
  -1.823909e+01  -9.570328e+01
   1.274984e+02  -6.036533e+01
   1.841780e+02   4.112556e+01
   1.691371e+02   1.999452e+02
   3.876749e+01   1.706435e+02
  -1.425663e+02   1.223925e+02
  -2.378694e+02   7.470236e+01
  -9.804027e+01  -1.203892e+01
   6.135400e+01  -5.177174e+01
   6.329136e+01   1.017841e+01
  -2.905098e+01   4.041181e+01
  -1.738509e+02  -6.039540e+00
  -1.407774e+02  -6.789415e+01
  -1.626305e+02  -8.257321e+01
  -1.523808e+01  -8.802089e+01
   1.168587e+02  -3.160668e+01
   5.538447e+01   6.957484e+01
  -8.834618e+01  -3.404556e+01
  -4.112741e+01  -8.423756e+01
   1.078220e+02  -7.163002e+01
   1.922056e+02   1.369094e+01
   1.157221e+02   1.080666e+02
   4.548350e+01   1.614067e+02
  -1.086567e+02   7.771094e+01
  -1.316816e+02   2.696617e+01
   5.984770e+00  -3.784844e+01
   7.108230e+01  -7.501142e+01
   9.850930e+01  -7.356358e+01
  -1.830364e+01   8.130561e+00
  -5.806463e+01   2.875273e+00
  -4.503285e+01  -3.519481e+01
   1.119178e+02   1.754177e+01
   5.465147e+01   6.986121e+01
   4.784243e+01   1.133216e+02
  -1.468428e+02   1.023932e+02
  -1.711081e+02   5.748409e+01
  -1.608864e+02  -1.220508e+02
  -4.010259e+01  -1.578234e+02
   1.189218e+02  -1.211497e+02
   9.765122e+01  -5.833326e+01
   4.920291e+01   7.039388e+01
  -1.183141e+01  -4.645563e+00
  -1.326251e+00  -2.746091e+01
   3.227110e+01  -1.870725e+01
   3.802271e+01   4.298214e+01
  -3.027379e+01   2.770395e+01
  -1.426406e+02   4.476011e+01
  -7.174831e+01  -4.225696e+01
   3.242724e+01  -1.469398e+02
   1.242518e+02  -1.081401e+02
   1.176476e+02   3.604751e+00
   6.897476e+01   1.833394e+02
  -1.134370e+02   2.334639e+02
  -2.514309e+02   3.978770e+01
  -1.749984e+02  -6.250969e+01
  -3.122328e+01  -1.234690e+02
   3.754025e+01  -3.384989e+01
   1.077543e+02  -1.727913e+00
   4.730217e+01  -9.464050e+01
   2.501301e+01  -5.265794e+01
   7.768499e+01  -5.419530e+01
   9.534711e+01   1.202217e+01
   6.246758e+01   7.306501e+01
  -3.390339e+01   2.254274e+02
  -8.384961e+01   1.075228e+02
  -1.414506e+02   2.907006e+01
  -1.313409e+02  -1.001533e+02
  -3.252527e+01  -1.315980e+02
   1.303950e+02  -3.330234e+01
   4.638930e+01   2.852334e+01
  -5.280797e+01   4.548179e+01
   8.316590e+00   4.414115e+01
  -1.568515e+01  -5.670912e+00
   6.788843e+01   5.524187e+00
   5.642962e+01   9.426467e+01
  -9.442404e+01   4.891006e+01
  -1.454119e+02  -3.165465e+01
  -1.155834e+02  -1.150124e+02
  -9.503017e+00  -6.985817e+01
   1.274852e+02  -9.462171e+01
   6.676665e+01  -4.211786e+01
   3.968770e+01  -1.182702e+01
   2.243973e+01   2.120192e+01
  -6.980675e+01  -5.855779e+00
  -3.878672e+01  -2.295455e+01
   8.561656e+01  -1.020645e+02
   8.938911e+01  -6.058179e+01
   9.820787e+01   4.673017e+01
   3.684696e+00   2.417304e+01
   3.846364e+01  -1.726423e+01
   1.918547e+01   3.282995e+00
  -6.260082e+00   3.702654e+01
  -7.337534e+00   1.521570e+02
  -1.364388e+02   8.371320e+01
  -1.406148e+02   6.146795e+01
  -1.199978e+02  -6.726603e+01
   4.850203e+00  -1.146866e+02
   9.953808e+01  -7.346869e+01
   1.009261e+02  -1.960909e+01
  -7.560338e+01  -2.639780e+00
  -1.385533e+02  -2.841288e+01
  -8.296160e+01  -9.037007e+01
   8.535658e+01  -3.602512e+01
   1.385894e+02  -6.839813e+01
   1.153348e+02   6.501567e+01
   7.469234e+01   5.459851e+01
  -8.353920e+01   2.967405e+01
  -1.971379e+01   2.355604e+01
   2.097466e+01   3.977987e+00
   8.122952e+01   3.483946e+01
   5.634734e+01   6.799580e+01
  -5.701922e+01   1.796181e+02
  -1.458540e+02  -7.015855e+00
  -7.301924e+01  -6.284151e+01
   1.754926e+01  -1.012591e+02
   1.662266e+01  -1.126970e+02
   2.246433e+01   6.885738e+01
   5.063270e+01   9.805839e+01
  -1.027167e+01   5.636546e+01
  -9.119810e+01   1.010962e+01
  -7.405492e+01  -1.470453e+01
   7.594429e+00  -5.821758e+01
   3.730038e+00   7.449415e+01
  -3.158763e+01  -6.668307e+01
  -2.939080e+01  -7.476228e+01
   3.730765e+01  -6.638114e+01
   9.757763e+01  -6.080567e+01
   1.006958e+02   3.868474e+01
   6.402854e+01   6.296736e+01
  -1.275156e+01   5.462887e+01
  -6.143674e+01   7.041973e+01
  -9.016652e+01   8.321173e+00
  -3.069851e+01  -1.947446e+01
   4.936685e+01  -4.034055e+01
   5.679598e+00  -9.955508e+01
  -3.663742e+01   1.129299e+01
  -5.022179e+01  -4.663134e+01
   1.694603e+01   1.478744e+01
   6.602121e+01   5.282033e+00
   3.931930e+01   6.653148e+01
  -6.454407e+01   7.229471e+01
  -1.071537e+02   3.927950e+00
  -1.449964e+02  -1.662149e+01
   4.563095e+00  -1.505414e+02
   3.502540e+01  -1.650566e+02
   1.060859e+02  -1.520731e+01
   4.146351e+01   4.612604e+01
   4.281228e+01   1.671383e+01
   4.860325e+01  -5.110177e+01
  -1.233834e+01  -5.735245e+00
   5.721189e+01   1.798319e+01
  -4.275150e+01   8.642747e+01
  -3.158427e+01   5.904559e+01
  -6.302454e+00   2.413384e+01
  -7.174509e+01  -7.363335e+01
   1.547295e+01  -1.291587e+02
   7.696878e+01  -4.893590e-01
   3.681583e+01   2.520130e+01
   1.883092e+01   1.640580e+02
  -5.258293e+01   1.068913e+02
  -8.572319e+01  -4.935759e+01
  -1.034011e+01  -3.635496e+01
  -3.518167e+01  -6.635356e+01
   3.839910e+01   5.514378e+01
  -3.300266e+01   6.535185e+00
  -4.844756e+01   2.673372e+01
   4.198252e+01  -3.763277e+01
   5.464714e+00  -3.227722e+01
   1.046731e+02  -2.659340e+01
   5.451341e+01  -2.960581e-01
   1.230606e+00   9.880567e+01
  -3.656191e+01   6.151162e+01
  -5.543871e+01  -1.110441e+01
  -1.985859e+01  -3.427881e+01
   5.833873e+00  -9.534245e+01
   2.753809e+01  -3.571567e+01
   4.474998e+01   9.806106e+01
  -2.090629e+01   5.814073e+01
  -7.462912e+01   7.184271e+01
  -8.088615e+01   1.544564e-01
   1.134485e+01   1.468978e+01
   1.743151e+01  -4.272720e+01
  -3.335838e+01  -3.467557e+01
  -4.640661e+00  -1.488553e+01
  -1.105643e+00  -6.545975e+01
  -2.250397e+01   7.439784e+00
   5.714738e+00   8.634918e+01
  -4.537478e+01   4.350545e+01
  -9.818070e+01   3.946980e+01
  -3.627864e+01   3.480499e+00
   7.443990e+00  -7.134251e+01
  -6.062862e+01  -1.615128e+00
   5.383783e+01  -2.253257e+01
   5.726963e+01   6.878230e+01
  -3.020470e+01   8.348746e+00
  -7.327319e+01  -1.258043e+01
   1.378359e+01   8.259339e+00
  -1.748325e+01  -5.011239e+00
   2.565599e+01   1.467203e+01
   2.899044e+01   2.980170e+01
  -1.093390e+02   4.712954e+01
