
 $NMID
 id='ANONYMOUS ', fmtdat='(2E16.6)'
 volume=1.0
 tramp=1.0
 $END
  -5.499925e+02   5.716467e+01
  -3.031723e+02  -3.120890e+02
   7.081744e+01  -3.547177e+02
   3.018853e+02  -1.867110e+02
   1.270632e+02   1.410630e+02
  -9.016765e+01   1.270331e+02
  -7.954143e+01  -2.525599e+01
   2.051032e+01  -1.008931e+02
   1.170715e+02  -9.033598e+01
   1.207625e+02   8.626681e+00
   4.098092e+01   7.868661e+01
  -9.507440e+00   1.171280e+02
  -1.118191e+02   1.414280e+01
  -1.855054e+01  -8.616145e+01
   1.516132e+01  -8.578363e+01
   7.308488e+01   5.093513e+01
   4.437901e+01   1.277488e+01
  -3.401805e+01   4.316119e+01
  -5.990142e+01  -2.535111e+01
  -6.678448e+01   2.725358e+01
   8.699697e+00  -4.510973e+01
   6.971044e+01  -5.230049e+01
   9.863077e+00  -3.095705e+00
  -4.560322e+00   1.697429e+01
  -2.608048e+01   2.137524e+01
   3.705837e+00  -1.286469e+02
   3.689212e+01  -1.255484e+02
   1.305132e+02  -8.306513e+00
   2.007782e+01   5.117303e+01
  -2.005928e+01   8.221023e+01
  -1.344208e+02   4.630268e+01
  -3.869339e+01  -4.646595e+01
   1.899687e+01  -1.175722e+02
   6.975443e+01   2.952853e+01
   3.598664e+01   9.999618e-01
  -3.200961e+01   3.401786e+01
  -8.738951e+01   6.598838e+01
   2.213721e+01  -3.301689e+01
  -4.836439e+01  -8.442850e+01
  -3.064408e+00  -4.313139e+01
   1.091676e+02   5.437823e+01
  -4.990557e+01   5.812992e+00
  -7.585321e+01   2.952383e+01
  -2.979349e+01  -6.402108e+01
   1.179101e+01  -7.725593e+00
   5.904723e+01   1.173115e+01
   4.325240e+01   4.170007e+01
  -7.931373e+01  -2.291106e+00
  -1.031363e+02  -3.705527e+01
  -1.960548e+01  -6.203034e+01
   2.945371e+01  -5.882906e+01
   1.147592e+02   3.895691e+01
   3.177935e+01   7.404139e+01
  -2.184003e+01   8.172138e+01
  -1.523602e+01  -1.968206e+01
  -3.202011e+01  -4.883924e+01
   1.335864e+01  -2.090576e+01
   4.862928e+01  -5.319061e+00
   2.285713e+01   5.932979e-01
  -3.981209e+01   1.586488e+01
  -3.571044e+01   3.718239e-01
   2.044450e+01   1.032596e+00
   1.679255e+01   9.318789e+00
   4.513604e+01   2.219757e+01
  -2.270152e+01   7.205454e+00
  -1.666975e+01   1.419675e+01
   1.938635e+01   1.725329e+01
  -7.062250e+00  -1.468261e+01
   2.799492e-02  -4.354238e+01
   1.603162e+01  -5.530170e+01
   2.603463e+01   9.420356e-01
  -1.756416e+01  -6.392138e+00
   5.532163e+01  -2.961338e+01
   4.531312e+01   7.557790e+00
  -2.109519e+01  -6.012211e+01
   2.157574e+01   1.350410e+01
  -1.288417e+01   3.409904e+01
  -1.328485e+01  -7.058771e-01
  -2.844202e+01  -8.085139e+01
  -3.525258e+01  -3.880054e+01
  -6.582329e+00   1.835043e+01
  -5.223364e-01   2.867041e+01
  -1.787783e+01  -5.164143e+00
   1.541742e+00   1.843239e+01
   1.660903e+01   1.762908e+01
  -5.380518e+01  -1.652793e+01
  -2.433683e+01  -7.551580e+00
  -5.630847e+01   4.650608e+01
  -7.669267e+01   3.245129e+01
  -6.723480e+01  -3.801807e+01
   8.302696e+00  -7.970433e+01
   5.985635e+01  -1.057792e+01
   4.149583e+01  -5.529137e+01
   7.334931e+01   7.787258e+00
   1.873683e+01   4.818163e+01
  -1.612500e+01  -5.681536e+00
  -3.856007e+01  -1.451528e+01
   3.245731e+01  -7.083172e+01
   8.982393e+01  -1.280678e+01
  -4.336480e+01   5.248326e+01
   3.285318e+01   4.391109e+01
  -3.133560e+01  -2.946386e+01
   3.933128e+01   8.113850e+00
   2.099269e+01  -4.756535e+00
   3.784424e+01  -3.730316e+01
   2.912349e+01   1.317034e+00
  -2.879594e+01   3.572719e+01
  -2.152343e+01   4.913871e+01
  -4.498220e+01   3.745785e+00
  -1.826161e+01   2.258253e+01
  -4.546209e+01   1.299575e+01
   4.279897e+01  -4.762494e+01
  -4.851802e+00  -1.174394e+01
  -3.307629e+01  -4.166251e+01
   3.361959e+01  -4.969224e+00
  -5.921636e+01   1.150499e+01
   7.270928e+01  -3.150427e+01
  -3.027320e+01   1.460013e+01
   2.310369e+01  -2.861752e+01
   3.597570e+01  -1.108749e+00
  -6.204176e+00  -2.323724e+01
   2.779697e+01  -4.990573e+01
   3.788188e+00  -7.260742e+01
   2.394185e+01   8.612554e+01
  -3.589875e+01   5.323885e+01
  -2.110352e+01   1.062915e+01
  -1.996671e+01   5.181704e+01
  -1.057328e+00  -4.999065e+01
   8.032022e+00   3.762503e+01
  -5.617793e+00   3.502498e+01
  -5.111248e+01   9.682674e+01
  -5.589029e+01  -1.836705e+01
   3.526623e+01  -8.731222e+01
   2.218207e+01  -2.710039e+01
   1.908052e+01   2.646722e+01
   1.110268e+01   1.257962e+01
   3.410562e+01  -5.993788e+01
   1.815755e+01   2.272403e+01
   2.970278e+01  -3.328554e+01
   4.339882e+00   1.603925e+01
  -3.256658e+01  -5.068051e+01
  -9.975743e+00   6.524592e+01
  -9.528626e+00   3.996060e+01
  -2.277853e+01   5.080851e+01
  -1.733540e+01  -4.868174e+01
  -2.126437e+01   4.027153e+00
  -2.018869e+01  -4.000785e+01
  -7.109873e+00  -4.104135e+01
  -2.495811e+01   1.687091e+01
  -4.147405e+01  -1.603689e+01
  -2.082519e+01  -1.258990e+01
  -1.214845e+00  -1.809175e+01
   1.813303e+01  -3.795948e+01
  -5.152955e+01   2.976902e+01
  -5.864703e+01   2.093640e+01
  -1.486704e+01   2.550532e+01
  -4.981036e+00  -4.428217e+01
  -5.827634e+01   1.966128e+01
   3.189002e+01   4.382031e+01
  -4.804180e+00   1.205560e+01
   3.503833e+01   1.154598e+01
  -1.568791e+01  -1.374590e+01
   2.140301e+01  -2.744053e+01
   5.524633e+01   2.577757e+00
  -2.063913e-01   3.445927e+01
  -2.001392e+01  -3.185316e+01
   2.129043e+01  -4.440312e+00
   4.106973e-01  -1.117648e+01
   6.607752e+00  -5.239587e+01
   1.318160e+01  -4.969326e+01
  -2.768337e+01  -4.582562e+00
  -5.228413e+01   7.496380e+01
  -6.317826e+01  -1.204751e+01
   3.561606e+01  -2.472357e+01
   5.744532e+00   8.018571e+01
   2.009787e+01  -3.211872e+01
   1.419299e+01  -3.824982e+01
   2.965017e+01  -2.019483e+01
   2.445741e+01  -9.295538e+00
  -1.535958e+00   1.353671e+01
   2.238888e+01  -2.773018e+00
  -1.109706e+01   1.310428e+01
  -3.738363e+01   6.993063e+01
   1.852627e+01   2.490084e+01
  -3.550073e+01   3.545310e+00
   4.374027e+01  -2.844518e+00
   1.840760e+01  -2.452336e+01
  -1.371899e+01  -2.809688e+01
  -5.451072e+00   4.281765e+01
   4.121222e+00   7.751083e+00
   1.205995e+01   4.478240e+01
  -2.096044e+01  -7.840259e+00
   2.814925e+01   8.379269e+00
  -2.559218e+01   8.227585e+00
   1.045822e+01  -4.198586e-01
  -2.122612e+01   3.560477e+01
   3.133726e+00  -4.379116e+01
   4.275439e+00  -1.030818e+01
   5.982444e+01   1.961093e+01
   2.043839e+01  -3.751380e+01
   4.007470e+01   3.499477e+01
  -3.658705e+01   4.933228e+01
  -2.858355e+01   2.104419e+01
  -3.799687e+01   7.714516e+00
   1.685275e+01  -1.416990e+01
  -4.361495e+00  -6.691761e+00
   9.091742e+00   2.949403e+01
   8.188831e-01  -3.616634e+01
   6.162775e+01   1.846147e+01
   4.805619e+01  -9.415827e+00
  -3.668580e+01  -1.538368e+00
  -1.551672e+01   1.613968e+01
  -5.127563e+01   9.846068e+00
  -1.355666e+01  -1.626383e+01
  -5.531177e+00  -2.417744e+01
  -1.395764e+01  -2.601123e+01
   5.033881e+01  -3.262176e+00
  -3.027862e+01  -6.209574e+01
   4.829045e+01  -3.627492e+01
   8.381844e+00   2.768859e+01
  -3.452671e+01  -2.145593e+01
  -5.451046e+01   9.728466e+00
   2.118592e+01   4.204759e+01
  -2.599571e+01   5.335161e+01
  -3.412874e+01  -1.087473e+01
  -5.580296e+00   1.118240e+01
   2.216365e+01   1.675524e+01
  -7.510027e+01  -1.372596e+01
   1.798404e+01  -2.328244e+01
   5.605527e+00  -3.700706e+01
  -5.469905e+01   2.486114e+01
  -2.443624e+01  -4.358106e+01
  -2.217453e+01  -4.021277e+01
  -1.954590e+01  -3.329735e+01
   1.768437e+01   3.222385e+00
  -5.573648e+01   1.890496e+01
   7.355179e+01  -1.855090e+01
   5.072561e+01   7.607019e-01
   4.146068e+00  -1.869428e+01
  -2.143544e+01  -3.931131e+01
   2.250285e+01  -1.626222e+01
   1.480687e+01   2.969267e+01
   6.636867e+00  -3.319955e+01
  -4.854254e+00   4.014124e+01
  -5.594427e+01  -3.014240e+01
  -2.502682e+01   2.010954e+01
  -3.890479e+01   2.551191e+01
  -2.722228e+01   6.908300e+01
  -2.650523e+00  -4.469802e+01
   2.848962e+01   4.378937e+01
  -3.043384e+01   3.117714e+01
  -6.012415e+01   4.698701e+01
   1.049129e+01  -2.711414e+01
  -1.740462e+01   5.787339e+00
   3.175051e+01  -3.434773e+01
  -7.355375e+00  -2.289976e+00
   7.521858e-01  -1.962715e+01
   7.626658e+01  -1.341005e+01
   3.909078e+01   1.079210e+01
   1.344238e+01   1.709325e+01
  -1.904805e+01  -5.036501e+01
  -5.091671e+01  -4.595636e+00
   6.834710e+00  -6.657545e-01
   8.624030e+00  -1.549649e+01
   3.933588e+01   5.922717e+00
  -2.675357e+01   6.964098e+00
  -4.129387e+01  -3.092335e+01
  -1.480054e+01   9.001113e-01
  -4.399830e+00  -3.215643e+01
  -1.700240e+01   4.849529e+01
  -2.971374e+01   1.440996e+01
  -1.882960e+01   6.217020e+01
  -3.231815e+01  -3.259038e+01
  -2.959848e+01   4.531706e+01
   1.223228e+01  -3.331836e+01
  -9.692394e+00  -3.516959e+01
   1.359890e+01   2.924140e+01
   6.507154e+01   9.722780e+00
   1.829749e+01  -1.922564e+01
  -1.775056e+01  -2.683367e+00
  -5.534585e+01   1.734010e+01
  -6.588203e+00  -2.010635e+01
  -2.553139e+01  -1.660887e+01
   2.178291e+01   4.931579e+01
   7.462490e+00  -9.155128e+00
  -2.711524e+01  -2.056570e+00
  -2.484949e+01  -5.724168e+01
  -1.061352e+01  -4.754071e+01
   2.564991e+01  -2.791607e+00
   6.832740e+01  -2.435611e+01
  -4.156693e+01  -3.073762e+01
   1.775528e+01   2.151116e+01
   2.637349e+01  -4.443397e+01
  -3.454750e+01   1.025934e+02
  -8.320321e+00  -1.988481e+01
   3.324542e+00  -5.574270e+01
  -2.485570e+01   2.733944e+01
   1.463899e+01  -2.662628e+01
  -3.112011e+01   3.746566e+01
   9.583865e+00  -2.640801e+00
  -6.935313e+01  -2.771794e+01
  -3.934283e+01  -4.373115e+01
   1.168447e+01   3.620633e+01
   4.835096e+01  -1.875328e+01
  -9.705189e-01   4.905059e+01
  -2.277627e+00  -5.045902e+01
  -5.126430e+01   6.976766e+00
  -6.988259e+00  -2.392302e+01
  -6.035006e+01  -2.872577e+01
   1.986263e+01  -3.781136e+01
   1.928272e+01  -7.039697e+00
  -5.334878e+01  -5.492138e+01
   3.678605e+01  -8.617014e-01
   2.747482e+01   2.283162e+01
   5.653578e+01   1.878323e+00
   3.037005e+01   4.491092e+01
   1.148075e+01   5.400118e+01
   4.716557e+01   1.225538e+01
  -5.166366e+00  -6.789145e-01
  -2.515390e+01  -1.007061e+01
