
 $NMID
 id='ANONYMOUS ', fmtdat='(2E16.6)'
 volume=1.0
 tramp=1.0
 $END
  -2.764065e+03  -2.922746e+01
  -1.803542e+03  -1.447378e+03
  -2.855342e+01  -1.815865e+03
   1.107890e+03  -1.026249e+03
   8.058210e+02  -1.338591e+02
  -3.413133e+01   2.496716e+02
  -3.164146e+02  -1.153950e+02
  -6.905464e+01  -5.230115e+02
   4.417352e+02  -5.296719e+02
   5.884109e+02  -6.985629e+01
   3.479606e+02   4.148303e+02
   2.450545e+01   5.077487e+02
  -2.779562e+02   1.500727e+02
  -2.460761e+02  -3.584533e+02
   3.230854e+01  -4.233294e+02
   3.139677e+02  -8.125417e+01
   2.678309e+02   4.118834e+02
  -1.129788e+02   5.730503e+02
  -3.697737e+02   2.434542e+02
  -4.048999e+02  -1.635538e+02
  -1.265630e+02  -3.790296e+02
   1.440678e+02  -2.203327e+02
   7.066584e+00  -7.001004e+01
  -9.896016e+01  -7.564545e+01
  -1.991199e+02  -2.242537e+02
  -7.278997e+00  -2.466786e+02
   4.091383e+02  -8.761921e+01
   5.258365e+02   1.526711e+02
   2.150434e+02   3.165014e+02
  -3.007037e+02   1.730814e+02
  -4.586551e+02  -9.516234e+01
  -2.100133e+02  -2.938222e+02
   1.865686e+02  -3.557701e+02
   3.726857e+02  -6.444131e+01
   2.954897e+02   1.514296e+02
   5.101058e+01   2.717840e+02
  -2.068630e+00   2.093043e+02
  -4.290952e+00  -7.173828e+01
   1.224899e+02  -1.122797e+02
   1.789906e+02   5.961650e+01
  -6.008146e+00   4.051441e+02
  -1.936254e+02   3.857883e+02
  -2.605306e+02   5.787222e+01
  -7.079064e+01  -2.973693e+02
   1.399812e+02  -1.213570e+02
   1.304608e+02   2.149641e+02
  -7.556462e+01   3.591036e+02
  -3.487465e+02   6.227892e+00
  -3.632554e+02  -2.695424e+02
  -7.761626e+01  -4.327157e+02
   2.617381e+02  -2.194071e+02
   4.417696e+02   4.977366e+01
   3.356518e+02   1.595690e+02
  -3.469690e+01   1.759365e+02
  -2.560885e+02   5.846869e+01
  -2.394267e+02  -2.374455e+01
  -1.891493e+00  -6.536297e+01
   4.503180e+01   6.480871e+01
  -3.630254e+01   1.676740e+01
  -1.803901e+02  -3.143522e+01
  -1.249914e+02  -1.565151e+02
   9.663136e+01  -1.435172e+02
   2.847648e+02  -7.497217e+01
   2.208445e+02   1.027402e+02
  -7.461467e+01   2.362315e+02
  -2.266121e+02   3.291505e+02
  -2.941468e+02   1.533134e+02
  -1.390452e+02  -1.156498e+02
  -2.417583e+01  -3.214193e+02
  -8.469401e+00  -2.603635e+02
   1.708601e+01  -1.034765e+02
   4.856148e+01  -1.199126e+02
   1.088558e+02  -6.425168e+01
   2.378053e+02  -4.786636e+01
   2.409441e+02   1.379069e+02
   1.147635e+02   2.468053e+02
  -1.796008e+01   1.736502e+02
  -1.675329e+02  -6.451628e+00
  -1.297687e+02  -1.810910e+02
   8.177382e+01  -2.313236e+02
   2.464316e+02  -6.206177e+01
   2.481885e+02   1.442818e+02
   1.054812e+02   2.396031e+02
   3.038138e+01   1.976867e+02
  -1.418429e+02   1.473579e+02
  -1.635086e+02   1.086622e+02
  -1.398309e+02   6.332958e+01
  -1.793268e+02   4.215543e+01
  -3.381069e+02  -9.142925e+01
  -3.036672e+02  -2.620602e+02
   2.549370e+01  -3.853398e+02
   3.078477e+02  -3.487130e+02
   4.165247e+02  -1.881801e+02
   2.596747e+02   1.413785e+01
  -1.148076e+01   2.145482e+02
  -7.377836e+01   1.752675e+02
   3.096611e+01   2.541927e+01
   7.512409e+01  -3.595554e+01
   1.054428e+02   5.198175e+01
   2.860840e+01   8.822499e+01
  -1.264426e+02   5.134515e+01
  -9.920913e+01  -7.986573e+01
  -1.575538e+01  -1.110486e+02
   9.437136e+01  -2.648332e+01
   1.179503e+02   1.601128e+02
  -2.899666e+01   2.911960e+02
  -1.932986e+02   1.665076e+02
  -3.420035e+02  -1.148197e+01
  -2.816756e+02  -2.750107e+02
  -3.867756e+01  -2.128948e+02
   1.348045e+02  -7.993014e+01
   9.360399e+01  -5.539501e+00
   5.190740e+01  -1.322514e+01
  -4.897327e+01  -1.610153e+01
   3.286345e+01  -1.434583e+02
   1.077788e+02  -5.874900e+01
   1.208955e+02   6.375568e+01
   4.560164e+01   7.068794e+00
  -1.548360e+02   6.286947e-01
  -3.594001e+01   2.366738e+01
   1.471996e+02  -5.506756e+01
   2.502274e+02   6.165272e+01
   1.821563e+02   1.615022e+02
   1.674959e+01   2.213394e+02
  -1.871100e+02   2.063391e+02
  -2.117296e+02   9.616765e+01
  -1.589913e+02  -2.663564e+01
   3.522854e+01  -6.782210e+01
   8.809905e+01  -2.763132e+00
  -3.430152e+01   8.389336e+01
  -1.299475e+02   6.077372e+01
  -1.513924e+02  -5.865469e+01
  -6.865927e+01  -1.781458e+02
   2.915703e+01  -1.042879e+02
   9.794927e+01  -4.043521e+01
  -3.166968e+00  -1.113897e-01
  -2.761843e+01  -1.160835e+00
  -3.970101e+01  -7.639415e+01
   6.571246e+01  -1.367717e+02
   1.870945e+02  -5.014894e+01
   1.544211e+02   1.024154e+02
  -3.683935e+01   1.785424e+02
  -1.294925e+02   9.683061e+01
  -1.292266e+02   3.035434e+01
  -6.488948e+01  -1.217596e+02
   1.394834e+01  -8.715935e+01
   1.101631e+02  -3.551882e+01
   1.574302e+00   2.294810e+01
  -2.788267e+01  -4.976891e+01
  -1.375292e+01   2.252083e+01
   1.153158e+02  -1.786219e+01
   1.001632e+02   1.206514e+02
  -6.980036e+00   1.437502e+02
  -7.754559e+01   1.447886e+02
  -2.428036e+02  -3.367701e+01
  -1.703056e+02  -1.474730e+02
   2.761097e+00  -1.465915e+02
   8.219366e+01  -2.012598e+02
   1.070901e+02  -5.459342e+01
   3.577605e+01  -1.010714e+01
   2.910915e+01   9.348917e-01
   6.880140e+01   4.423325e+01
   1.061904e+02  -1.709453e+01
   5.516045e+01   3.209989e+01
  -1.037183e+01   5.722640e+01
  -1.168010e+02   5.106538e+01
  -4.151422e+01  -6.044013e+01
   3.032453e+01  -1.302753e+02
   1.670530e+02  -5.321895e+01
   1.642573e+02   8.288613e+01
   4.077093e+01   1.498150e+02
  -8.285539e+01   2.107429e+02
  -1.713468e+02   2.479194e+01
  -2.274162e+02  -5.668899e+01
  -7.123423e+01  -1.410754e+02
   7.793219e+01  -8.224404e+01
  -5.305549e+00  -1.079648e+02
   6.474412e+01  -1.005857e+02
  -2.576678e+00  -1.025716e+02
   9.154297e+01  -5.956710e+01
   1.080159e+02  -3.042104e+01
   1.043946e+02   1.088944e+02
   4.254851e+01   1.594892e+02
  -8.446964e+01   1.517275e+02
  -1.301171e+02   9.315432e+00
  -1.069239e+02  -9.339835e+01
   3.143974e+01  -6.267808e+01
   7.959881e+00  -7.077079e+01
   2.343585e+01   1.112549e+01
   3.775306e+01   4.088489e+01
  -3.074747e+01   7.259715e+01
   2.449484e+01   3.042613e+01
   6.862609e+01  -3.561298e+01
   9.099835e+01   4.973996e+01
  -9.590878e+01  -4.757816e+01
  -1.409005e+02   4.360195e+01
  -1.265822e+02  -1.297028e+01
   3.928411e+01  -3.312005e+01
   1.666178e+02  -4.779735e+01
   1.381164e+02  -2.547089e+01
   1.529416e+01   3.645218e+01
  -4.024999e+01   9.070750e+01
  -7.440923e+01  -7.418521e+01
  -2.478481e+01  -9.661943e+01
   3.869605e+01  -6.709816e+01
   7.564741e+01   9.799326e+00
  -4.239680e+00   9.753863e+01
  -3.854609e+01   5.081726e+01
   2.977521e+01   1.700148e+01
   1.074229e+02  -4.351322e+01
   2.536590e+01   1.710043e+01
  -2.796211e+01   1.578641e+02
  -1.367412e+02   1.295473e+02
  -1.569332e+02   3.040470e+01
  -1.523994e+02  -8.071294e+01
  -1.595892e+01  -1.390692e+02
   5.716846e+01  -8.806169e+01
   8.047682e+01   4.486361e+00
  -1.597838e+01   2.391923e+01
  -1.336554e+02  -3.550466e+01
  -6.888117e+01  -9.030054e+01
   9.475877e+01  -9.449853e+01
   1.597076e+02  -2.631473e+01
   6.385759e+01  -1.284795e+01
   1.377630e+00   6.477289e+01
  -1.583496e+01   5.457671e+01
  -3.493529e+01   1.473301e+01
   8.141755e+01  -9.369137e+01
   1.143852e+02   5.714034e+01
   7.887565e+01   1.328276e+02
  -7.667622e+01   1.630874e+02
  -1.251013e+02   7.176114e+01
  -1.065819e+02  -7.899912e+01
  -3.677302e+01  -1.738293e+02
  -1.115126e+01  -1.503723e+02
   8.210694e+01   2.892585e+01
   4.023392e+01   1.431593e+02
  -2.302884e+01   8.831182e+01
  -5.574419e+01  -2.454245e+01
   1.487204e+01  -3.782370e+01
   3.225153e+01   3.947634e-01
   7.251687e+01   4.038501e+01
   1.626570e+01   3.187783e+01
  -7.200662e-01  -1.644216e+02
  -6.442183e+01  -1.006478e+02
   3.089893e+01  -5.050214e+01
   1.195943e+02   3.383671e+01
   1.142239e+02   4.188653e+01
   1.636107e+01   7.577150e+01
  -5.618504e+01  -5.257802e-01
  -3.991043e+00   7.402756e+01
  -2.075731e+01  -4.748218e+01
   3.419704e+01  -3.114061e+01
  -2.650782e-01  -3.340355e+01
   8.040207e+01   3.734067e+01
   1.427443e+01  -4.114883e+01
   4.097265e+01  -6.479403e+00
   7.813918e+01   4.218253e+01
   1.353006e+01   7.209770e+01
  -1.149167e+02   6.151279e+01
  -1.911776e+02   4.336840e+01
  -1.052800e+02  -5.920110e+01
  -3.091984e+01  -1.497643e+02
   7.330361e+01  -1.266783e+02
   8.110660e+01  -9.770328e+01
   1.079387e+02   4.332369e+00
  -5.917880e+01   1.196349e+01
  -4.757631e+00  -3.116722e+00
   2.488899e+01   3.352363e+01
   1.178160e+01   2.017462e+01
  -4.392680e+00   7.485695e+01
  -1.738019e+01   9.664689e+01
  -7.336291e+01   4.386209e+01
  -4.477151e+01  -8.682847e+01
   1.422538e+01  -1.013322e+02
   8.225451e+01  -9.612237e+01
   1.419609e+02   1.029751e+02
   5.457909e+01   2.384342e+01
  -7.316008e+01   3.361900e+01
  -4.822892e+01  -1.841193e+01
  -2.089854e+01  -5.004744e+01
   4.774633e+01  -4.920009e+01
   7.778078e+01  -1.794819e+01
   1.775419e+01   1.215268e+01
  -7.403991e+01   2.190588e+01
  -3.824336e+01   8.605961e+00
   9.975098e+01  -5.371981e+01
   1.411610e+02   4.998764e+00
   6.224110e+01   1.478347e+01
   4.660480e+00   2.319149e+01
   1.474801e+01   6.182988e+01
  -5.825143e+01  -5.714649e+00
  -1.124020e+01   3.059877e+01
   5.561071e+01  -4.800568e+01
   2.405401e+01   6.273696e+01
   1.505892e+01   4.254277e+01
   1.793235e+01   1.594727e+01
  -2.434476e+01  -2.862653e+01
  -1.828319e+01  -1.391392e+01
   1.375192e+01   3.032291e+01
   4.138750e+01   4.689187e+01
   2.868259e-01   2.238535e+01
   3.203885e+01  -1.448504e+01
   3.326748e+00  -5.721804e+01
   4.216208e+01  -4.170438e+01
   6.420032e+01   2.775805e+01
   3.816400e+01   8.675149e+01
  -4.204272e+01   2.430162e+01
  -7.349299e+01  -2.456725e+01
  -5.876568e+01  -1.202226e+01
   8.334784e+01  -9.282412e+00
   1.048516e+02  -2.762385e+01
   6.954929e+01   2.213450e+01
   1.711291e+01   8.618975e+00
  -3.806892e+01   4.405657e+01
  -2.122034e+01   6.583894e+01
   3.617826e+01  -3.696289e+01
   3.864579e+01  -3.585513e+01
   3.585562e+01   1.749005e+01
  -1.085489e+01   1.252246e+02
