
 $NMID
 id='ANONYMOUS ', fmtdat='(2E16.6)'
 volume=1.0
 tramp=1.0
 $END
   3.336027e+03   6.618588e+01
   2.138932e+03   1.834018e+03
  -2.412687e+02   2.121258e+03
  -1.444801e+03   1.038835e+03
  -8.667601e+02  -3.801042e+01
   1.769544e+02  -1.999195e+02
   4.893096e+02   1.828426e+02
   6.044486e+01   6.841821e+02
  -5.260546e+02   6.443252e+02
  -6.577539e+02  -6.065936e+01
  -3.671281e+02  -6.802742e+02
   2.904272e+01  -6.488413e+02
   3.228865e+02  -1.826111e+02
   2.744731e+02   4.869531e+02
  -1.317955e+02   5.911220e+02
  -4.439229e+02   6.374814e+01
  -2.777067e+02  -5.470552e+02
   1.772887e+02  -6.303334e+02
   4.187480e+02  -1.426379e+02
   3.801477e+02   2.071158e+02
   7.970068e+01   3.753679e+02
  -1.388419e+02   1.983004e+02
  -3.675970e+01   5.324307e+01
   1.552233e+02   6.652378e+01
   3.249643e+02   1.652974e+02
   1.357129e+01   3.267979e+02
  -4.516033e+02   1.839151e+02
  -6.108029e+02  -1.479281e+02
  -2.670459e+02  -3.906886e+02
   3.287514e+02  -2.609180e+02
   4.864873e+02   7.171263e+01
   2.640782e+02   3.794048e+02
  -2.364763e+02   3.319534e+02
  -4.624463e+02   1.244030e+02
  -3.031005e+02  -1.776552e+02
  -6.727893e+01  -3.672125e+02
   7.255955e+01  -1.734704e+02
   2.848008e+01   1.254134e+02
  -1.923902e+02   1.937808e+02
  -2.968884e+02  -5.294230e+01
  -1.421652e+02  -4.354531e+02
   2.439798e+02  -5.726172e+02
   4.673778e+02   6.559669e-01
   1.206143e+02   3.722079e+02
  -2.039652e+02   1.853361e+02
  -2.335453e+02  -3.136646e+02
   9.070154e+01  -4.615587e+02
   4.468540e+02  -1.138873e+02
   4.723842e+02   3.969019e+02
   1.847337e+02   5.131166e+02
  -2.894829e+02   2.473389e+02
  -5.219533e+02  -7.837288e+01
  -2.956156e+02  -2.688954e+02
   6.958865e+01  -2.407108e+02
   2.996495e+02  -9.117072e+01
   1.878334e+02   1.021908e+02
  -5.216914e+01   6.390833e+01
  -7.626491e+01  -1.041586e+02
   1.334211e+02  -9.120611e+01
   3.269036e+02   9.456116e+01
   1.562163e+02   1.595142e+02
  -1.667300e+02   3.106463e+02
  -3.100343e+02   6.278094e+01
  -2.166466e+02  -4.097773e+01
   3.612202e+01  -2.815620e+02
   3.102036e+02  -3.053020e+02
   3.708186e+02  -1.701862e+02
   1.764499e+02   1.860572e+02
   4.418144e+01   3.935647e+02
  -3.144897e+01   3.599037e+02
  -3.012469e+01   1.155859e+02
   9.489122e+00   8.055849e+01
  -1.324360e+02   1.135430e+02
  -1.832798e+02   6.646261e+01
  -2.153983e+02  -1.272783e+02
  -7.914335e+01  -2.829845e+02
   1.420231e+02  -2.632445e+02
   1.808322e+02  -1.615316e+01
   9.800692e+01   2.396667e+02
  -8.427875e+01   2.407672e+02
  -2.486735e+02   5.284689e+01
  -2.724367e+02  -1.008863e+02
  -2.083529e+02  -3.000203e+02
   8.481150e+01  -2.934502e+02
   2.204234e+02  -1.379739e+02
   7.790577e+01  -6.196240e+01
   9.493846e+01  -1.111848e+02
   2.723286e+02  -1.699468e+01
   4.060261e+02   5.205305e+01
   2.309958e+02   3.231550e+02
  -5.288784e+01   4.493791e+02
  -3.239511e+02   3.891449e+02
  -4.516813e+02   1.566939e+02
  -2.591452e+02  -1.236557e+02
  -3.905382e+01  -2.470494e+02
   8.165663e+01  -2.001439e+02
   1.091627e+01  -1.127669e+00
  -7.985984e+01   1.575649e+01
  -1.510754e+02  -5.843063e+01
  -1.715383e+01  -1.828994e+02
   1.015939e+02  -1.355445e+02
   1.176531e+02   6.348998e+01
   4.203140e+01   1.234786e+02
  -1.379362e+02   7.614786e+01
  -2.047959e+02  -2.685221e+02
  -2.547735e+01  -3.675744e+02
   2.347154e+02  -2.280882e+02
   3.209560e+02   8.280255e+01
   2.238720e+02   2.574936e+02
   1.130467e+02   2.531482e+02
  -1.517524e+02   1.281660e+02
  -1.899607e+02  -1.612135e+01
  -5.852287e+01  -7.459570e+01
   6.375246e+01   3.839881e+01
   4.113959e+01   1.200986e+02
  -7.046432e+01   3.886692e+01
  -1.594657e+02  -4.710648e+01
  -6.494969e+01  -1.266218e+01
   7.581045e+01   2.908733e+01
   4.097070e+01   7.829101e+01
  -1.497277e+02   5.448362e+01
  -2.923391e+02   1.479407e+01
  -2.879711e+02  -1.337377e+02
  -8.400894e+00  -1.989729e+02
   2.113300e+02  -2.155470e+02
   2.951187e+02  -9.889334e+01
   1.494210e+02   4.991492e+01
  -1.360019e+01   5.098648e+01
  -4.032512e+01   7.083814e+00
   6.963341e+01  -3.085184e+01
   2.022207e+02   1.258780e+00
   1.681193e+02   5.495989e+01
   6.621222e+01   1.390357e+02
  -9.246275e+01   1.703937e+02
  -1.562724e+02   8.029916e+00
  -7.598493e+01  -5.996998e+01
   7.441826e+01  -8.243493e+00
   2.524355e+01   8.221357e+01
  -1.070789e+02   9.616892e+01
  -1.702837e+02  -2.187684e+01
  -1.623755e+02  -1.529917e+02
  -6.154113e+01  -2.322124e+02
   1.248537e+02  -1.560743e+02
   1.595545e+02  -5.196644e+01
   6.801813e+01   8.590009e+01
  -5.227718e+01   1.287932e+01
  -1.074191e+02   3.494042e+01
  -4.081434e+00  -5.000587e+01
   4.416118e+01  -5.342069e+01
  -4.119115e+01   4.413714e+01
  -1.019814e+02  -3.142913e+01
  -1.105910e+02  -7.534246e+01
  -2.456790e+01  -2.027303e+02
   1.132053e+02  -1.262105e+02
   2.480895e+02  -2.189300e+01
   1.630326e+02   1.467687e+02
   6.382196e+01   2.229536e+02
  -1.346233e+02   1.799691e+02
  -1.217474e+02   4.784778e+01
  -4.379061e+01  -1.801721e+01
  -6.306353e+01  -3.132476e+00
  -6.651874e+01   3.465964e+01
  -9.227852e+01   3.176054e+01
  -1.193337e+02  -2.397728e+01
   1.092253e+02  -1.122142e+02
   5.949842e+01  -8.705750e+01
   1.055950e+02   4.961720e+01
  -3.491055e+01   1.415665e+02
  -1.046121e+02   4.879145e+01
  -1.845365e+02  -6.488252e+01
  -7.639726e+01  -2.366373e+02
   1.080035e+02  -1.645313e+02
   2.864981e+02  -6.673544e+01
   2.712070e+02   5.565659e+01
   7.522779e+01   1.490222e+02
  -2.608158e+01   1.589240e+02
  -1.220380e+02   2.789863e+01
  -6.635872e+01   5.829372e+01
  -3.278968e+01   6.292338e+01
  -3.409262e+01   9.685528e+01
  -8.283035e+01   1.181043e+01
  -1.148392e+02  -1.628730e+02
  -8.125391e+01  -2.330347e+02
   9.113412e+01  -1.318736e+02
   1.483857e+02  -7.351753e-01
   1.533736e+02   1.305767e+02
  -2.654465e+01   1.294732e+02
  -2.255056e+01   5.604985e+01
  -5.014896e+01   3.623605e+01
  -5.537483e+01  -7.806042e+01
   1.935700e+01  -4.576949e+01
  -4.791025e+01  -3.184061e+00
  -8.128614e+01  -3.341105e+01
  -6.514523e+01  -2.703707e+01
   1.078073e+02   2.202740e+01
   1.468922e+02   8.149742e-01
   9.852972e+01   3.013195e+01
   9.746294e+01   7.656831e+01
  -7.780482e+01   4.893428e+01
  -1.416494e+02   3.707055e+00
  -5.269685e+01   1.036983e+01
   1.725242e+01  -5.915686e+01
   4.266743e+01   3.399076e+01
   4.892638e+01   6.522862e+01
  -1.042706e+02   1.041140e+02
  -4.902748e+01  -1.009549e+01
  -3.868893e+01  -4.557751e+01
  -3.958863e+01  -2.855820e+01
  -6.709482e+01   5.958821e+01
  -4.423470e+01  -1.144549e+01
  -1.020652e+02  -7.568994e+01
   2.792684e-01  -1.227832e+02
   1.448377e+02  -1.977767e+02
   1.870783e+02  -1.816525e+01
   1.463647e+02   5.421196e+01
  -1.127885e+00   1.609317e+02
  -5.388672e+01   8.198187e+01
  -1.308520e+01  -4.777703e+01
   1.092244e+00  -4.981380e+01
   1.153513e+02   2.403665e+01
   9.257907e+01   1.179000e+02
  -8.726955e+01   4.754146e+01
  -1.367630e+02   6.251537e+01
  -1.307976e+02  -7.205181e+01
  -1.031630e+02  -4.826306e+01
   6.664798e+01  -9.763099e+01
   4.664694e+01  -2.227850e+01
   9.648552e+00   5.088224e+01
  -8.835534e+01  -3.968046e+01
  -5.598323e+01  -1.224660e+02
   8.765552e+01  -1.601688e+02
   1.087842e+02   6.097091e+00
   9.035613e+01   8.191276e+01
   2.439708e+01   1.091370e+02
  -1.204494e+02   1.447205e+02
  -1.172220e+02  -3.490959e+01
  -3.303069e+01  -8.873619e+01
   1.308251e+01  -1.020566e+02
   6.184938e+01  -4.406351e+01
  -1.050987e+00  -8.884655e-02
  -2.156612e+01  -5.167085e+00
  -4.720022e+00  -5.559201e+01
   2.664035e+01   1.516297e+00
   5.244297e+01   7.319604e+01
  -9.613954e+00   4.240954e+01
  -8.809904e+01   4.794059e+01
  -1.142567e+02  -3.178852e+01
  -9.319696e+01  -8.087360e+01
  -2.821462e+01  -5.978660e+01
   1.040115e+01  -7.672500e+01
   8.406839e+01  -2.745328e+00
   8.204107e+00  -3.020271e+00
  -5.899434e+01  -3.511735e+01
  -3.169111e+00   3.163761e+01
   7.021094e+00   1.084602e+01
   3.249476e+00  -5.874847e+00
  -3.689216e+01  -1.064553e+01
  -4.101034e+01  -1.582497e+01
  -6.098550e+00  -1.079668e+01
   9.221086e+01  -2.061208e+02
   2.371669e+02  -6.301814e+01
   1.504717e+02   7.976639e+01
  -5.999144e+00   1.959307e+02
  -3.335249e+01   1.463956e+02
  -1.039849e+02   6.403645e+01
  -1.104590e+02  -6.478143e+00
  -6.735489e+00  -1.412010e+02
  -1.858206e+01  -2.704830e+01
  -1.904876e+01   6.391207e+00
  -4.863196e+01  -5.293164e+01
   1.279486e+01  -8.532882e+01
   5.706897e+01  -1.810321e+02
   4.889892e+01  -9.277450e+00
   1.258304e+02  -3.529346e+00
   6.211828e+01   8.521753e+01
  -7.634224e+01   1.824023e+01
  -9.168890e+01  -5.140108e+01
  -4.820479e+01  -1.544268e+02
  -5.548383e+00  -3.256899e+01
   9.822040e+01   7.053016e+01
   1.022847e+02   7.149881e+01
  -5.455078e+01   7.354255e+01
  -5.165373e+01   2.036460e+01
   5.122354e+01  -2.540961e+01
   5.998599e+01  -2.724609e+01
   2.862437e+01   6.984138e+01
  -1.179711e+02   7.295976e+01
  -1.693765e+02   8.465770e+01
  -6.944600e+01   3.114515e-01
   1.122837e+01  -1.096981e+02
   5.094669e+01  -7.036840e+01
   6.904281e+01  -8.201689e+00
   6.012638e+01   5.200594e+01
  -6.677579e+01   9.438389e+01
  -9.217786e+00  -2.426993e-01
  -4.670867e+01  -4.434057e+01
   3.045574e+01   1.299308e+01
   2.491375e+01   2.366743e+01
   8.686882e+01   7.878079e+01
   8.792634e+01   2.522259e+01
  -5.181339e+01   7.464068e+00
  -3.877890e+01  -7.718782e+01
   4.784943e+01   5.573534e+01
   2.074020e+01   4.907526e+01
  -6.259821e+01   1.309368e+01
  -6.492115e+01  -1.548823e+01
  -1.033063e+01  -1.968756e+01
   3.098170e+01  -6.140533e+00
   9.582112e+01   1.006138e+01
   8.258328e+00   3.940351e+01
  -9.230396e+01   2.547288e+01
  -6.766056e+01   3.644366e+01
  -3.301409e+01  -5.858378e+01
   1.751034e+01  -6.775480e+01
   3.399963e+01  -3.380302e+01
  -3.946917e+01   3.488346e+01
   1.578460e+01   2.074012e+01
  -4.967329e+01   1.372938e+00
   3.581074e+01  -3.216923e+01
   6.284327e+01  -8.571162e+00
