
 $NMID
 id='ANONYMOUS ', fmtdat='(2E16.6)'
 volume=1.0
 tramp=1.0
 $END
  -3.392282e+03   4.856910e+01
  -2.216227e+03  -1.805072e+03
   1.297505e+02  -2.194250e+03
   1.432899e+03  -1.182595e+03
   9.464199e+02  -2.777968e+01
  -1.024022e+02   3.350480e+02
  -5.055123e+02  -9.440442e+01
  -7.232628e+01  -6.942255e+02
   5.607205e+02  -6.101525e+02
   7.791451e+02  -4.581420e+01
   4.665606e+02   5.534817e+02
  -4.605862e+01   6.466704e+02
  -3.747737e+02   2.322999e+02
  -2.451927e+02  -4.635411e+02
   1.330298e+02  -6.219154e+02
   3.804725e+02  -5.851070e+01
   3.045724e+02   5.388480e+02
  -2.082383e+02   6.874333e+02
  -5.356239e+02   2.585569e+02
  -4.052710e+02  -2.720684e+02
  -6.889502e+01  -3.689053e+02
   1.798937e+02  -2.761810e+02
   9.788023e+01  -8.993069e+01
  -1.833034e+02  -6.760572e+01
  -2.798523e+02  -2.534053e+02
  -5.812338e+01  -3.189187e+02
   4.165983e+02  -2.186336e+02
   6.069704e+02   9.135558e+01
   2.329092e+02   3.104329e+02
  -3.560106e+02   2.558895e+02
  -5.588705e+02  -1.294391e+02
  -2.495400e+02  -3.830109e+02
   2.535790e+02  -3.934918e+02
   4.500798e+02  -1.176411e+02
   3.230749e+02   1.671071e+02
   1.347481e+02   3.390887e+02
  -9.189365e+01   1.792530e+02
  -7.771170e+01  -1.688292e+02
   1.756911e+02  -1.911876e+02
   2.704169e+02   1.545711e+02
   7.930095e+01   5.292375e+02
  -2.409314e+02   5.091547e+02
  -3.735690e+02  -2.459276e+01
  -1.201250e+02  -3.980194e+02
   1.820080e+02  -1.551312e+02
   2.453756e+02   2.685505e+02
  -6.465697e+01   3.741037e+02
  -4.626990e+02   4.362958e+01
  -5.082331e+02  -4.081358e+02
  -1.015885e+02  -5.260826e+02
   3.071284e+02  -2.637142e+02
   5.845395e+02   8.777707e+01
   3.263185e+02   2.426527e+02
  -6.597988e+01   3.163375e+02
  -2.793338e+02   8.179584e+01
  -2.598649e+02  -6.964697e+01
   1.133281e+01  -3.546973e+01
   1.285870e+02   7.447169e+01
  -7.923905e+01   6.147170e+01
  -2.416767e+02  -2.425965e+01
  -1.205034e+02  -2.510302e+02
   1.818333e+02  -2.252103e+02
   3.284221e+02  -1.197973e+02
   2.270435e+02   9.644917e+01
  -2.382672e+01   2.819260e+02
  -2.531147e+02   3.458285e+02
  -3.421653e+02   1.541030e+02
  -2.550565e+02  -1.625086e+02
  -9.914063e+01  -3.846254e+02
   9.142135e+00  -2.927951e+02
   4.483498e+01  -2.272512e+02
   2.612192e+01  -1.556627e+01
   1.242866e+02  -9.129148e+01
   1.976062e+02  -9.288392e+01
   2.097330e+02   7.098562e+01
   7.526624e+01   2.420312e+02
  -7.689514e+01   1.285256e+02
  -2.130424e+02  -1.845384e+01
  -1.214007e+02  -2.072127e+02
   2.957561e+01  -2.097402e+02
   2.462534e+02  -6.809739e+01
   3.515164e+02   1.421044e+02
   1.550276e+02   2.927603e+02
  -1.228988e+02   2.790626e+02
  -1.735435e+02   1.121190e+02
  -1.920806e+02   3.630403e+01
  -1.575081e+02   7.858072e+01
  -2.620837e+02  -6.202097e-01
  -4.055942e+02  -1.018973e+02
  -3.334069e+02  -3.094526e+02
   1.138028e+02  -4.400827e+02
   3.792217e+02  -3.510077e+02
   4.591217e+02  -1.449778e+02
   2.613286e+02   4.745782e+01
   6.204124e+01   2.756990e+02
  -1.015428e+02   8.733738e+01
  -1.048103e+02   4.773793e+01
   1.045791e+02  -5.050978e+01
   8.505866e+01   3.577821e+01
   4.209058e+01   6.996624e+01
  -9.104902e+01   7.839231e+01
  -1.036355e+02  -8.747950e+01
   3.126923e+01  -9.080809e+01
   1.852891e+02  -7.143584e+00
   1.420014e+02   2.464110e+02
  -3.952156e+00   3.056186e+02
  -1.870557e+02   2.719322e+02
  -3.725500e+02  -7.856579e+01
  -2.957890e+02  -3.039090e+02
   5.426767e+00  -3.130236e+02
   6.596197e+01  -1.521558e+02
   1.131175e+02   1.026318e-01
   2.847937e+01   3.479867e+01
  -1.501016e+01  -7.580266e+01
   1.582317e+00  -1.128764e+02
   8.377881e+01  -6.161116e+01
   1.659989e+02   5.883633e+01
   4.193173e+01   1.460361e+02
  -8.507380e+01   2.913318e+01
  -6.608371e+01  -1.118116e+02
   1.208560e+02  -4.312691e+01
   3.386635e+02  -7.619601e+00
   2.128407e+02   1.530175e+02
   2.927169e+01   2.812435e+02
  -1.877234e+02   2.341684e+02
  -2.854338e+02   1.485492e+02
  -1.077477e+02  -4.413600e+01
   6.935248e+00  -1.250968e+01
   1.033760e+02   4.115955e+01
  -9.594738e+01   8.028807e+01
  -1.539557e+02   4.381368e+01
  -1.393913e+02  -3.081357e+01
  -5.369302e+01  -2.187171e+02
   8.330835e+01  -1.232327e+02
   1.484687e+02  -1.590404e+01
   1.591225e+01   1.045313e+01
  -1.400534e+01  -4.002015e+01
  -6.529837e+01  -6.178954e+01
   5.418708e+01  -1.266108e+02
   1.900661e+02  -1.445424e+01
   1.803530e+02   9.344144e+01
   5.806828e+01   1.979706e+02
  -1.634531e+02   1.287253e+02
  -1.898223e+02  -1.391080e+01
  -4.747934e+00  -1.312708e+02
   3.096391e+01  -7.819524e+01
   3.072990e+01  -1.210200e+01
  -1.520877e+01   8.108194e+01
  -1.392816e+01   5.875852e+00
  -3.508878e+01  -2.903556e+01
   1.305245e+02   1.406973e+01
   1.418717e+02   1.078619e+02
  -3.020610e+01   2.048401e+02
  -1.277679e+02   1.050371e+02
  -2.359024e+02  -2.265904e+00
  -1.800510e+02  -1.341990e+02
  -2.302552e+01  -2.936442e+02
   1.053908e+02  -1.777426e+02
   1.401053e+02  -2.640934e+01
   9.083070e+01   2.396315e+01
   1.146373e+01   8.933264e+01
   4.593237e+01  -3.171560e+01
   7.814159e+01   9.952220e+00
   8.933886e+01   6.050262e+01
  -4.877866e+01   1.011268e+02
  -8.267431e+01   1.413962e+02
  -1.494187e+02  -6.427131e+01
   4.617135e+01  -1.443352e+02
   1.299130e+02  -1.153643e+02
   2.077868e+02   2.333669e+01
   1.236315e+02   1.941658e+02
  -1.610185e+02   2.218619e+02
  -2.241487e+02   8.893940e+01
  -1.957851e+02  -9.137210e+01
  -9.569050e+01  -1.840733e+02
   3.441788e+01  -4.068950e+01
   7.800650e+01  -1.291123e+02
   7.156223e+01  -5.081522e+01
   1.131626e+02  -1.313051e+02
   5.392071e+01  -1.032445e+02
   9.065890e+01   2.451184e+01
   1.534161e+02   1.365801e+02
   3.491926e+01   2.132104e+02
  -9.412282e+01   1.293299e+02
  -1.603379e+02   7.034443e+01
  -1.597544e+02  -1.820422e+02
  -2.253515e+01  -1.448947e+02
   7.524652e+01  -6.014654e+01
   8.561538e+01   2.280839e+01
  -2.108986e+01   9.827996e+00
  -2.170734e+01  -5.853464e+00
   5.429956e+01  -4.152741e-01
   4.688660e+01  -1.136578e+01
  -2.334388e+01   1.427469e+02
  -9.881322e+01   4.847428e+01
  -1.817753e+02  -3.899559e+01
  -6.388270e+01  -8.421785e+01
  -2.104524e+01  -2.600632e+01
   1.732408e+02  -3.602022e+01
   1.431018e+02  -1.501791e+01
   8.907655e+01   5.438425e+01
  -7.641919e+01   2.799031e+01
  -1.043906e+02  -4.568432e+00
  -6.523078e+01  -7.975670e+01
   8.518845e+01  -5.579277e+01
   6.825846e+01   8.752226e+00
   5.761902e+01   1.738591e+01
   6.859249e+01   2.374278e+01
   1.763802e+01   5.570170e+01
   9.906918e+01  -3.391875e+00
   8.369386e+01   4.730000e+01
  -3.829662e+01   1.410718e+02
  -1.307844e+02   2.194612e+02
  -2.276731e+02   1.013742e+01
  -1.549986e+02  -1.025575e+02
   2.248222e+01  -1.592082e+02
   5.247408e+01  -2.297655e+01
   5.172398e+01   4.749296e+00
  -2.845671e+01   3.114632e+01
  -1.130832e+02  -8.528187e+00
  -8.813094e+01  -1.029499e+02
   7.482937e+01  -1.175550e+02
   1.981570e+02  -2.817664e+01
   1.386932e+02   7.056427e+01
   3.470571e+01   1.344494e+01
  -1.461127e+01   4.340601e+00
  -3.888136e+01  -2.397160e+01
   5.903666e+01  -2.239972e+01
   8.594454e+01   2.045098e+01
   3.725587e+01   1.058269e+02
  -3.246657e+01   9.753820e+01
  -1.367827e+02   5.394294e+01
  -1.143503e+02  -7.217297e+01
  -1.511340e+01  -1.922093e+02
   7.323582e+01  -4.727690e+01
   1.013607e+02  -1.406517e+01
   3.473118e+01   1.154769e+02
  -2.313982e+01   1.511418e+02
  -1.747265e+01  -5.022164e+00
  -2.688804e+01   5.460204e+00
  -1.359592e+01  -6.098343e+00
   1.353246e+01   2.373552e+01
   1.115403e+01  -4.225740e+01
  -5.938407e+01  -5.033302e+01
   7.368029e+00  -1.628557e+02
   1.178498e+02   9.662201e+00
   1.134802e+02   3.689902e+01
   1.341343e+02   1.147449e+02
   7.116448e+00   6.441671e+01
  -5.261490e+01   2.727204e+01
  -5.835483e+01  -1.209614e+01
  -4.677767e+01   1.108206e+01
   8.049998e+01   1.345650e+01
   1.076939e+02  -2.154705e+01
  -5.110105e+01  -2.009043e+01
  -3.430689e+01   1.721797e+01
   8.815903e+01  -2.177398e+01
   1.106631e+02   6.479809e+01
   2.860149e+01   6.996532e+01
  -1.006974e+02   1.414840e+02
  -2.086231e+02   6.966629e+01
  -1.899249e+02  -5.060222e+01
  -2.396405e+01  -2.057427e+02
   7.155608e+01  -1.368089e+02
   1.336903e+02  -4.878481e+01
   1.310449e+02   4.960498e+01
   6.091075e+01   5.215430e+01
   2.535504e+01   5.922770e+01
   2.223609e+01  -4.613157e+01
  -1.578659e+01   9.324502e+01
  -5.868463e-01   7.739011e+01
   1.125811e+01   4.214486e+01
  -8.800353e+01  -9.023162e+00
  -7.254731e+01  -7.055007e+01
  -5.836802e+01  -1.281395e+02
   2.118559e+01  -6.870560e+01
   1.225603e+02   4.149221e+01
   4.082944e+01   8.642445e+01
  -3.979717e+01   6.268169e+01
  -8.484559e+01   8.115816e+00
  -4.928304e+01  -4.605094e+00
   5.983873e+01  -6.073312e+01
   4.781907e+00  -4.874202e+01
  -1.464000e+01   2.709380e+01
  -9.429215e+01  -8.200673e+01
  -2.435582e+01  -1.348780e+01
   9.510746e+01  -8.916765e+01
   1.167047e+02  -6.851726e+01
   8.469548e+01  -3.533650e+01
   4.027646e+01   8.942708e+01
  -4.852070e+01   6.344547e+01
   9.246044e+00   8.982961e-01
   1.458507e+00  -4.969380e+01
   3.721643e+01  -2.913056e+01
   1.004024e+02  -4.116449e+01
   3.331157e+01   8.852291e+01
  -3.001656e+01   3.045216e+01
  -1.814498e+01  -2.350772e+01
  -4.033924e+01  -7.843881e+01
  -2.532220e+01  -4.286595e+01
   8.434227e+00   7.402753e+00
  -4.047473e+01   8.526516e+00
   1.811760e+01  -6.007756e+01
  -3.612293e+01  -5.603462e+01
   3.133039e+01  -2.036223e+01
   7.047293e+01   5.065721e+01
  -6.822933e+00   3.969813e+01
  -1.538684e+01   1.072205e+01
  -8.475528e+01  -2.176213e+01
   3.634279e+01  -4.471920e+01
   1.330661e+02  -5.087849e+00
   6.981856e+01  -2.812432e+01
   4.393401e+01   3.292830e+01
  -4.566542e+01   5.755752e+01
  -1.992640e+01  -6.230306e+00
  -4.804295e+01  -4.538042e+01
   2.662416e+01  -6.392037e-01
   7.013036e+01   7.149256e+00
  -3.902301e+01   4.010023e+00
  -9.451724e+01   1.873889e+00
