
 $NMID
 id='ANONYMOUS ', fmtdat='(2E16.6)'
 volume=1.0
 tramp=1.0
 $END
   2.220091e+03   2.243907e+01
   1.479015e+03   1.131965e+03
   5.874471e+01   1.344460e+03
  -7.965630e+02   9.020509e+02
  -6.441680e+02   2.995759e+02
  -9.671599e+01  -9.555832e+01
   2.117412e+02   3.671315e+01
  -2.146354e+00   2.736855e+02
  -2.516374e+02   3.915802e+02
  -3.616473e+02   5.321494e+01
  -2.710261e+02  -3.048336e+02
  -6.996465e+01  -4.605349e+02
   1.801430e+02  -1.549869e+02
   1.443252e+02   2.616569e+02
  -7.719632e+01   3.989837e+02
  -2.688129e+02   4.755148e+01
  -2.614446e+02  -3.496572e+02
  -5.841423e+00  -4.448613e+02
   3.240998e+02  -2.449754e+02
   3.691743e+02   1.053273e+02
   9.272316e+01   1.816051e+02
  -8.705339e+01   1.444682e+02
   5.048887e+01   9.185910e+01
   1.303196e+02   1.192283e+02
   1.614913e+02   2.873729e+02
  -3.967685e+00   3.250366e+02
  -3.821760e+02   1.194184e+02
  -4.701252e+02  -1.176956e+02
  -1.344614e+02  -2.399653e+02
   2.283476e+02  -1.026338e+02
   2.992078e+02   1.888307e+02
   1.123703e+02   2.760251e+02
  -1.712004e+02   2.796166e+02
  -2.830979e+02   4.670409e+01
  -2.055112e+02  -1.083228e+02
  -9.646281e+01  -2.448182e+02
  -6.208070e+00  -8.727841e+01
  -5.111353e+01   4.773863e+01
  -1.094122e+02   9.204938e+01
  -1.759681e+02  -8.122692e+01
  -4.679725e+01  -3.437896e+02
   1.932218e+02  -3.232117e+02
   2.615767e+02  -2.696739e+01
   6.654472e+01   2.153860e+02
  -1.620815e+02   6.668196e+01
  -4.565934e+01  -1.718738e+02
   1.009290e+02  -2.587599e+02
   2.925372e+02   3.967525e+00
   3.718359e+02   2.977058e+02
   1.144929e+02   3.540535e+02
  -1.430760e+02   1.826717e+02
  -3.586238e+02  -4.468899e+01
  -2.400508e+02  -9.531250e+01
  -3.013305e+01  -1.152226e+02
   2.059602e+02  -1.106586e+02
   1.321019e+02   2.549089e+01
  -1.057403e+01   1.632454e+01
  -8.424556e+01  -5.295456e+01
   7.407894e+01   1.329213e+01
   1.894884e+02   2.284241e+01
   7.120364e+01   1.321091e+02
  -7.325528e+01   1.819496e+02
  -2.222714e+02   1.217379e+02
  -2.659016e+02  -9.855313e+01
  -2.329577e+01  -1.243667e+02
   2.815485e+02  -2.809641e+02
   3.289966e+02  -1.031215e+02
   1.415862e+02   1.084764e+02
   4.151541e+01   3.050221e+02
  -2.438775e+01   2.242532e+02
  -1.834718e+01   1.007467e+02
  -5.454901e+01   1.000407e+02
  -1.359218e+02   7.292057e+01
  -1.907230e+02   6.783719e+01
  -1.907385e+02  -1.400760e+02
  -1.162419e+02  -1.382914e+02
   6.489378e+01  -5.113429e+01
   1.019658e+02  -5.224758e+01
   1.134382e+02   1.353464e+02
  -5.621844e+01   1.592484e+02
  -1.847802e+02   4.604824e+01
  -1.813404e+02  -1.727460e+02
  -9.356983e+01  -1.899029e+02
   3.912249e+01  -2.228109e+02
   1.052714e+02  -1.355307e+02
   1.460562e+02  -1.226351e+02
   1.203193e+02  -9.764390e+01
   2.284572e+02  -5.896015e+01
   3.413476e+02   7.001560e+01
   1.863221e+02   2.375634e+02
  -2.526260e+01   3.098721e+02
  -3.394187e+02   2.632636e+02
  -3.353392e+02   8.796729e+01
  -1.987510e+02  -1.089183e+02
   2.903641e+01  -1.487204e+02
   9.910615e+01  -1.924312e+02
  -7.451276e+00  -8.403974e+01
  -1.985995e+00   1.764510e+01
  -6.931515e+01  -5.580585e+01
  -1.274817e+01  -1.349380e+02
   7.136575e+01  -7.725419e+01
   6.212937e+01   5.014527e+00
  -6.019945e+01   1.337023e+02
  -5.510760e+01   4.121662e+01
  -1.242449e+02  -1.854158e+02
   2.729114e+01  -2.004951e+02
   1.553614e+02  -2.040014e+02
   2.239734e+02   1.321052e+01
   1.814898e+02   1.988555e+02
   4.804136e+01   2.784457e+02
  -9.508337e+01   1.584462e+02
  -6.555907e+01   1.421345e+01
  -2.503644e+01  -9.037327e+00
   3.785469e+01   8.493717e+00
   1.762566e+01   7.305108e+01
  -1.039557e+02   4.907999e+01
  -6.413377e+01  -3.595162e+01
  -1.090537e+02  -6.348205e+01
   1.069515e+02  -1.278708e+01
  -7.672127e+00   1.004005e+02
  -5.982053e+01   1.042172e+01
  -1.771000e+02   3.457339e+01
  -1.526694e+02  -1.700773e+02
  -3.090352e+01  -1.603457e+02
   1.045186e+02  -1.792352e+02
   2.125209e+02  -1.073271e+02
   1.521130e+02   1.574256e+00
  -2.353846e+01   1.217840e+01
  -7.155811e+01  -4.197545e+01
   2.330852e+01  -5.957731e+01
   1.283704e+02  -7.735134e+00
   1.398466e+02   1.053623e+02
   4.479810e+01   1.233522e+02
  -8.045930e+01   4.466260e+01
  -8.302681e+01   4.364185e-01
  -3.646585e+01  -5.672749e+01
  -4.252542e+01   2.976009e+01
   6.108039e+01   9.562654e+01
  -1.201291e+02   6.298837e+01
  -1.381226e+02   3.587771e+01
  -1.380337e+02  -1.052958e+02
  -3.657932e+01  -1.673298e+02
   1.369935e+02  -9.707872e+01
   8.361619e+01   1.466844e+01
   5.872781e+01   3.007326e+01
  -2.692197e+01   8.041633e+01
  -8.176975e+01  -3.117772e+00
   6.567521e+01  -9.253347e+01
  -5.140548e+01   1.150880e+01
   2.951963e+01   1.828665e+01
  -8.865854e+01  -9.111919e+00
  -7.300122e+01  -5.858648e+01
   1.670372e+01  -1.504405e+02
   9.937009e+01  -6.751767e+01
   1.339815e+02   2.001927e+01
   1.628637e+02   1.112065e+02
   8.168093e+01   1.757750e+02
  -6.431253e+01   1.669801e+02
  -1.150204e+02   6.910724e+01
  -7.298969e+01  -3.971200e+01
  -3.213413e+01  -5.459737e+01
  -9.737684e+01   2.012166e+00
  -6.436139e+01  -2.903682e+01
  -3.591711e+01  -6.125620e+01
   5.210213e+01  -5.022108e+01
   9.176763e+01  -6.778079e+01
   1.015079e+02   3.240398e+01
   5.972699e+01   9.554772e+01
  -1.539750e+02   8.321838e+01
  -1.326147e+02  -2.633603e+01
  -9.831611e+01  -1.457111e+02
   1.185554e+02  -1.816664e+02
   1.922025e+02  -1.363251e+01
   1.959577e+02   4.188190e+01
   6.999466e+01   1.269113e+02
  -1.857892e+01   1.174441e+02
  -1.532831e+01   2.767232e+01
  -7.631655e+01   6.842665e+00
  -5.703003e+01   7.890599e+01
  -5.471637e+01   2.535238e+01
  -1.147570e+02   6.423273e+01
  -6.823915e+01  -9.264163e+01
  -1.104573e+01  -1.149600e+02
   5.938462e+01  -9.974598e+01
   1.585286e+02   1.350739e+01
   1.375185e+02   1.295339e+02
  -1.774234e+01   8.552010e+01
  -4.116137e+01  -2.995294e+00
  -6.524964e+01  -1.114535e+01
  -4.848520e+01  -6.273544e+01
   7.804582e+00   2.156932e+01
   3.600223e+01   8.224221e+00
  -7.766409e+01  -2.988979e+01
  -1.060228e+02   8.304655e+00
   2.712590e+01  -4.577965e+00
   1.585924e+02  -5.535580e+01
   1.117451e+02   2.787302e+01
  -1.526817e+01   9.069546e+01
  -8.569255e+01   6.665061e+01
  -1.521655e+02   1.801070e+00
   1.655791e+01  -3.365735e+01
   8.368784e+01  -3.636046e+01
   6.753239e+01  -3.735072e+01
   1.019237e+00   6.083986e+01
  -5.654059e+01   3.024582e+01
  -1.213158e+02   1.057840e+01
   2.882938e+01  -4.818065e+01
  -6.591930e+01  -7.918093e+01
  -4.709132e+01  -3.459403e+01
  -6.481995e+01   2.302680e+01
  -2.601077e+01  -5.602961e+01
   3.111661e+01  -1.463216e+02
   8.733219e+01  -1.643893e+02
   1.475266e+02  -4.050572e+01
   3.354636e+01   6.257994e+01
  -1.318175e+01   8.392192e+01
  -5.950201e+01   1.043134e+02
  -2.211690e+01  -3.203378e+00
   3.180703e+01   1.393670e+01
   1.097861e+02  -4.176866e+01
   4.871628e+01   4.412705e+01
  -2.703593e+01   4.996413e+01
  -1.975831e+02   2.827542e+01
  -1.216662e+02   3.312261e+01
  -3.977192e+01  -7.711794e+01
   6.059744e+01  -7.797771e+01
   8.373355e+01   3.706798e+00
  -4.377283e+01  -2.084468e+01
   5.069587e+00  -9.604330e+00
   1.788289e+01  -5.552848e+01
   9.781587e+00  -1.601755e+02
   1.497297e+02  -7.273693e+01
   1.088050e+02   5.502942e+01
   6.231653e+01   1.156012e+02
  -6.819279e+01   9.318990e+01
  -7.268630e+01  -1.636605e+01
  -5.371922e+01  -8.145988e+01
  -4.505149e+01  -3.117502e+01
   1.560987e+01  -2.406496e+01
   4.192510e+01   6.300724e+01
  -1.610480e+00  -4.850546e+01
   2.351862e+01   1.182825e+01
   1.040282e+02   3.969725e+01
   4.605967e+01   9.614822e+01
   8.291696e+01   1.644161e+01
  -6.937997e+01   2.174967e+01
  -5.489210e+01  -3.167644e+01
  -1.583423e+02   2.211103e+00
   1.393288e+01  -4.260624e+01
   1.017565e+02  -5.293242e+01
   7.733303e+01   2.022840e+01
  -9.354559e+00   5.364261e+01
  -2.314706e+00   3.649131e+00
  -5.157430e+01  -1.749442e+01
  -1.693632e+01  -4.227877e+01
   1.239819e+01   6.987302e+00
  -6.490265e+01   1.113963e+01
  -2.364019e+01   1.628284e+01
  -9.692121e+01  -5.718167e+01
   9.827595e+01  -1.118497e+02
   1.222379e+02  -2.996737e+01
   1.289799e+02   2.384916e+01
   6.859768e+01   6.148418e+01
  -1.670632e+01   1.404083e+02
  -9.896218e+01   4.281441e+01
  -1.071287e+02  -3.391875e+00
  -2.873879e+01  -1.028293e+02
  -5.920010e+01   7.263850e+00
  -5.717006e+01   1.063044e+01
  -2.984107e+01   4.021647e+01
  -9.357227e+00  -7.410931e+01
   6.493484e+00  -9.569163e+01
   6.853647e+01   2.930341e+00
   5.067254e+01   5.736704e+01
   1.578021e+01   6.091276e+01
  -7.251907e+01   1.105834e+02
  -8.761398e+01  -7.816251e+01
   3.623102e+00  -7.256981e+01
   5.335613e+01  -4.300989e+01
   7.872160e+01   1.372335e+01
   1.012776e+02   7.257238e+00
  -5.724650e+01   3.860022e+01
  -5.418970e+01   1.969700e+01
   2.036988e+01   2.267834e+00
   8.412445e+00  -2.105155e+01
   6.201796e+01   2.893892e+01
  -3.627066e+01   5.767842e+01
  -7.437130e+01   1.882170e+01
  -5.180361e+01   4.932571e+01
  -3.057195e+01  -6.351429e+01
   4.485230e+01  -9.621392e+01
  -3.624578e+00  -3.854993e+01
   2.629229e+01   5.257545e+01
  -5.650063e+01   2.632222e+01
  -3.946035e+01  -2.349012e+01
  -7.006804e+01   7.385761e+00
   1.152564e+01  -9.887546e+01
   2.774832e+01   5.439843e+00
   5.570408e+01   4.275275e+00
  -1.704133e+01  -8.726752e+00
  -5.107132e+01   9.660444e+00
  -3.924726e+01  -1.361422e+01
  -4.900741e+01  -5.844679e+01
  -7.918103e-01   3.014695e+01
  -3.281477e+01   1.768525e+01
  -3.995402e+01   2.482151e+01
  -5.815311e+01  -3.008713e+00
   6.715608e+01  -5.619556e+00
  -5.377048e+00  -9.136202e+00
   8.651803e+01   1.099571e+02
  -2.666278e+01   2.885031e+01
  -6.439633e+01  -2.890595e+01
  -4.616172e+01  -6.709953e+01
  -1.582799e+01   2.766969e+01
  -2.283391e+01   1.193482e+00
   6.253189e+01   3.134087e+01
   2.447277e+01   1.135584e+01
  -3.413284e+01  -4.208766e+01
  -4.069968e+00  -1.481966e+01
   8.424927e+01  -4.381138e+01
