
 $NMID
 id='ANONYMOUS ', fmtdat='(2E16.6)'
 volume=1.0
 tramp=1.0
 $END
   2.585853e+03   1.311657e+02
   1.771836e+03   1.277022e+03
   2.349704e+02   1.688640e+03
  -9.196538e+02   1.185225e+03
  -8.593381e+02   4.563202e+02
  -2.672166e+02  -6.136717e+01
   1.381828e+02   1.288899e+01
   1.862953e+01   3.935821e+02
  -3.137015e+02   4.449942e+02
  -5.231863e+02   1.094533e+02
  -3.552509e+02  -3.542732e+02
  -6.328023e+01  -5.405534e+02
   2.382281e+02  -2.213584e+02
   1.471266e+02   2.853559e+02
  -5.577821e+01   4.496806e+02
  -2.785118e+02   1.246634e+02
  -2.336531e+02  -4.022042e+02
   9.205164e+01  -5.986806e+02
   4.029695e+02  -3.331966e+02
   4.030058e+02   5.194425e+01
   1.772638e+02   2.664201e+02
  -1.125699e+02   2.054253e+02
  -3.669231e+01   3.663080e+01
   2.277350e+02   1.494340e+02
   1.917302e+02   2.683628e+02
  -7.972517e+01   2.891857e+02
  -4.714679e+02   5.813003e+01
  -4.578480e+02  -1.956348e+02
  -1.280399e+02  -2.809019e+02
   2.798996e+02  -6.424715e+01
   3.342383e+02   1.851366e+02
   1.450814e+02   2.838922e+02
  -2.610056e+02   2.473666e+02
  -3.115847e+02   1.251085e+02
  -2.903196e+02  -9.486837e+01
  -6.162029e+01  -2.440778e+02
  -4.965832e+01  -1.120420e+02
  -4.674329e+01   2.714222e+01
  -2.294154e+02   8.480882e+01
  -1.973204e+02  -1.865598e+02
   3.996855e+01  -3.496506e+02
   2.242273e+02  -3.192637e+02
   2.531508e+02  -3.990110e+01
   8.744923e+01   2.272536e+02
  -5.340246e+01   6.645597e+01
  -8.731902e+01  -2.875119e+02
   1.098571e+02  -2.445769e+02
   3.433033e+02   5.197983e+01
   4.171685e+02   3.674641e+02
   1.763419e+02   3.738675e+02
  -2.394689e+02   1.697013e+02
  -3.956998e+02  -9.352035e+01
  -3.190664e+02  -2.097575e+02
   6.639367e+00  -1.227665e+02
   1.882817e+02  -1.108434e+02
   1.271232e+02  -2.245140e+01
   3.054812e+01  -3.824219e+01
   2.196848e+01  -1.824050e+01
   9.443430e+01  -1.941569e+01
   1.571733e+02   5.108569e+01
   9.446469e+01   1.620538e+02
  -1.222853e+02   1.466253e+02
  -2.956110e+02   1.611048e+02
  -1.803198e+02  -5.958909e+01
   1.039863e+01  -3.281236e+02
   3.249129e+02  -3.450177e+02
   3.826164e+02  -9.127735e+01
   2.188995e+02   1.958043e+02
   2.587040e+01   3.025010e+02
  -3.288052e+01   2.429895e+02
  -1.032490e+01   1.937934e+02
  -5.357753e+00   7.688292e+01
  -1.676837e+02   1.285871e+02
  -2.561777e+02  -1.618473e+01
  -1.808439e+02  -1.674137e+02
  -5.883181e+01  -2.406122e+02
   1.223046e+02  -2.403046e+02
   1.652089e+02   9.928926e+01
   5.247168e+01   1.538013e+02
  -4.798182e+01   2.059315e+02
  -2.635795e+02  -7.382157e+00
  -2.234174e+02  -1.105331e+02
  -1.824985e+02  -2.415717e+02
   6.368062e+01  -2.111270e+02
   1.480558e+02  -1.460187e+02
   1.012098e+02  -8.500327e+01
   1.542208e+02  -8.222738e+01
   2.843373e+02   1.328032e+01
   3.849040e+02   6.246428e+01
   2.882308e+02   2.839415e+02
  -1.761335e+01   4.041285e+02
  -3.258987e+02   3.025108e+02
  -4.736813e+02   1.385270e+02
  -3.156234e+02  -8.878065e+01
  -2.588543e+01  -1.942967e+02
   1.036524e+02  -1.878131e+02
  -5.540586e+00  -1.401701e+01
  -5.629645e+01   4.749360e-01
  -6.684466e+01  -1.050458e+02
  -1.705157e+01  -1.110323e+02
   1.154900e+02  -6.663496e+01
   9.253027e+01   6.088530e+01
  -3.939550e+01   6.709200e+01
  -1.716124e+02   2.042223e+01
  -1.151552e+02  -1.782788e+02
   4.415965e+01  -3.181794e+02
   1.807871e+02  -1.984944e+02
   3.165002e+02   1.836421e+01
   2.693886e+02   2.736810e+02
   1.430407e+01   3.142760e+02
  -1.445892e+02   9.700297e+01
  -1.006617e+02   1.389296e+01
  -2.269614e+00  -5.719312e+01
   3.250925e+01   9.162058e+01
  -2.844310e+01   1.137189e+02
  -1.259279e+02   6.326502e+01
  -1.990927e+02  -6.688822e+01
  -3.802136e+01  -7.178652e+01
   8.103913e+01   5.817309e+01
   8.634590e+00   1.376415e+02
  -1.490623e+02   6.478881e+01
  -3.016830e+02  -6.563227e+01
  -2.117938e+02  -2.089054e+02
  -5.629160e+01  -2.210395e+02
   1.830046e+02  -2.244366e+02
   2.985511e+02  -8.522635e+01
   9.275359e+01   6.757860e+01
  -7.673686e+01   1.056579e+02
  -5.352337e+01   4.869189e+01
   1.024324e+02  -5.289851e+01
   1.260828e+02   7.827714e+01
   1.841045e+02   1.414826e+02
   5.979220e+01   1.651851e+02
  -4.005833e+01   1.594229e+02
  -1.131405e+02  -4.487108e+01
  -8.023561e+00  -3.469072e+01
   6.671792e+01   5.778575e+01
   1.121237e+01   1.017522e+02
  -1.062114e+02   1.097421e+02
  -2.513813e+02  -2.111248e+01
  -2.087447e+02  -1.398878e+02
  -5.015404e+01  -1.442548e+02
   1.143932e+02  -1.205430e+02
   1.234982e+02   9.253157e+00
   5.003475e+01   6.258767e+01
  -5.094714e+01   7.294246e+01
  -6.890448e+01   8.977661e+01
  -1.209605e+01  -9.323487e+01
   3.046491e+01   2.221776e+01
  -7.967767e+00   5.705208e+00
  -1.168011e+02   5.065951e+01
  -6.395629e+01  -8.101671e+01
  -8.415629e-01  -1.360943e+02
   6.930270e+01  -1.464806e+02
   2.245052e+02  -5.867826e+01
   1.607262e+02   1.431173e+02
   1.053359e+01   1.445520e+02
  -7.119949e+01   1.514915e+02
  -1.344063e+02   7.518255e+01
  -8.098483e+01  -3.921322e+01
  -5.555621e+01  -2.515260e+01
  -5.764394e+01  -2.569201e+01
  -9.494609e+01  -1.173646e+01
  -8.117489e+01  -8.903369e+01
   1.003821e+02  -9.902020e+01
   7.823301e+01  -6.101282e+01
   1.756489e+02   1.044269e+02
   4.220824e+00   1.338540e+02
  -1.739699e+02   9.433878e+01
  -1.853395e+02  -9.032591e+01
  -5.259955e+01  -2.060404e+02
   1.666945e+02  -2.712080e+02
   2.808245e+02  -1.890851e+01
   2.729905e+02   1.164813e+02
   1.148723e+02   1.519482e+02
  -4.416075e+01   1.578099e+02
  -1.067798e+02   7.841767e+01
  -1.249998e+02   1.005448e+02
  -7.006632e+01   1.358876e+02
  -1.147383e+02   5.616187e+01
  -1.361606e+02  -6.063838e+00
  -1.047777e+02  -1.566324e+02
  -6.014875e+01  -2.658507e+02
   1.056497e+02  -2.016147e+02
   1.795460e+02   2.079212e+01
   1.634033e+02   1.164233e+02
   3.163531e+01   1.487621e+02
  -7.135837e+01   7.003754e+01
  -3.002961e+01  -1.012693e+01
   1.190095e+01  -4.254479e+01
  -4.777046e+01  -3.779201e+01
  -1.170773e+01   1.799463e+01
  -6.124336e+01  -1.479544e+00
  -5.025737e+01  -2.117350e+01
   7.109508e+01  -4.826811e+01
   1.774260e+02   1.070345e+01
   1.209207e+02   3.749337e+01
  -4.012661e+01   5.501996e+01
  -2.015267e+02   1.332120e+02
  -1.744884e+02   3.597504e+01
  -4.821391e+01  -6.292436e+01
   4.276831e+01  -3.548638e+01
   7.297722e+01  -1.699867e+01
  -1.089448e+01   5.696293e+01
   1.508085e+01   1.038753e+02
   7.176086e+01   3.056161e+01
  -3.539247e+01  -4.963386e+01
  -2.604679e+01  -1.414566e+01
  -4.770702e+01  -5.491409e+01
  -7.626233e+01   6.162823e+01
  -6.862197e+01  -6.870299e+01
   4.470922e+00  -1.669727e+02
   1.149929e+02  -1.449777e+02
   1.532024e+02  -1.032373e+01
   1.504093e+02   8.701886e+01
  -1.423966e+01   1.268305e+02
  -8.206854e+01   8.316593e+01
  -8.278613e+01   1.369530e+00
   4.741430e+01  -3.165544e+01
   5.496082e+01   3.679876e+01
   1.046254e+02   4.517566e+01
  -8.812479e+01   1.132696e+02
  -2.019904e+02   1.416313e+01
  -8.603535e+01  -4.880671e+01
  -2.683740e+01  -9.177947e+01
   5.760148e+01  -3.913757e+01
   2.783849e+01  -4.617986e+01
  -3.254669e+01   4.166414e+01
  -6.489858e+01  -1.384337e+01
  -1.395534e+01  -1.174196e+02
   3.217709e+01  -1.826907e+02
   1.742424e+02  -1.664738e+01
   8.629242e+01   1.377418e+02
  -8.554264e+00   1.420441e+02
  -1.060097e+02   1.772812e+02
  -1.055862e+02  -4.937317e+01
  -1.623676e+01  -1.523455e+02
   4.206302e+01  -1.154022e+02
   2.364026e+01  -1.420421e+01
   4.531195e+00   1.375237e+01
  -4.248830e+01   3.180395e+01
   6.324473e+01  -1.525938e+01
   1.592855e+01   5.613662e+01
   2.467526e+01   1.095198e+02
   2.325383e+01   1.494905e+02
  -3.737745e+01   2.493112e+01
  -1.180861e+02  -8.687553e-01
  -8.953764e+01  -1.046751e+02
   4.225584e+00  -7.164499e+01
   4.891496e+01  -3.096944e+01
   6.233472e+01  -6.975347e+00
  -7.655974e+00  -3.839741e+01
   2.263580e+01   2.710800e+01
  -3.274306e+01  -3.295576e+01
   3.396341e+01  -1.319364e+01
  -2.484378e+00   6.295944e+00
  -9.740345e+01   7.702105e+00
  -7.800736e+01  -4.686572e+00
  -2.959744e+00  -2.501968e+01
   1.220017e+02  -1.003450e+02
   1.563659e+02  -5.648056e+01
   1.298016e+02   5.382990e+01
   4.981638e+01   1.371649e+02
   1.871535e+01   1.618027e+02
  -9.253484e+01   4.743460e+01
  -3.957966e+01  -7.197258e+00
  -1.429151e+01  -2.840720e+01
   2.489269e+00  -3.459658e+00
  -2.967834e+01   1.820466e+01
  -2.949909e+01  -3.587598e+01
  -2.308216e+01  -1.158510e+02
  -1.095302e+01  -8.902820e+01
   3.732039e+01  -6.704503e+00
   7.919287e+01   7.954467e+01
  -2.660218e+01   7.577069e+01
  -4.102899e+00   5.327265e+01
  -1.078044e+02  -3.129963e+01
  -4.851570e+01  -8.280613e+01
   1.029082e+01  -1.578777e+02
   7.782098e+01   3.620054e+01
   5.934508e+01   4.167055e+01
  -7.761103e+01   8.922423e+00
  -8.517068e+01   4.676578e+01
  -7.898496e+01  -5.790239e+01
   5.407714e+01  -1.055595e+01
  -1.684072e+01  -1.032115e+01
  -3.593293e+01   8.815566e+01
  -1.300452e+02   2.036899e+01
  -4.323791e+01   3.322605e+01
   4.836481e+01  -7.449163e+01
   1.059893e+01  -6.583792e+01
   5.439006e+01  -1.439121e+01
   2.192082e+01   4.641531e+01
  -2.499516e+01   5.720506e+01
  -2.912031e+01   7.593371e+01
   2.054126e+01  -5.703445e+01
  -1.692468e+01  -2.963330e+01
   7.395626e+01  -4.255258e+01
   6.384446e+01   2.086066e+01
   4.712262e+01   1.038588e+01
  -1.796342e+01  -1.077188e+01
   1.225108e+01  -4.617403e+00
   1.441814e+00  -1.842754e+01
  -3.745342e+01   5.484192e+01
   2.721466e+01   7.445077e+01
  -4.196718e+01  -3.206007e+01
  -5.065404e+01  -6.051111e+01
   9.184442e+01  -7.685860e+00
   2.683169e+01   6.666796e+01
   3.038879e+01   7.529868e+01
  -1.980559e+01   2.062782e+01
  -5.236821e+01   9.913757e-01
  -8.287890e+01  -1.385358e+01
   2.998572e+01  -6.423330e+01
   2.421073e+01  -5.075803e+01
  -5.869952e+01  -1.856598e+01
  -7.675066e+01   4.355735e+01
  -8.950608e+01  -1.064271e+01
   2.562105e+01  -4.662275e+01
   6.057195e+01  -2.035292e+01
