
 $NMID
 id='ANONYMOUS ', fmtdat='(2E16.6)'
 volume=1.0
 tramp=1.0
 $END
  -1.891022e+03  -8.413492e-01
  -1.373091e+03  -8.406372e+02
  -1.641871e+02  -1.199052e+03
   6.723317e+02  -9.727573e+02
   6.198134e+02  -3.490034e+02
   1.999871e+02   2.352620e+01
  -1.076662e+02  -1.553906e+01
  -6.132829e+01  -2.896216e+02
   2.129675e+02  -3.778994e+02
   3.951046e+02  -8.029965e+01
   2.586382e+02   2.592170e+02
   1.105603e+02   3.857713e+02
  -1.837849e+02   1.412944e+02
  -1.648807e+02  -2.109051e+02
   3.366422e+01  -3.100898e+02
   2.888850e+02  -1.063610e+02
   2.045670e+02   3.435228e+02
  -1.005035e+02   4.178536e+02
  -3.134631e+02   2.526505e+02
  -3.549621e+02  -5.009213e+01
  -9.203335e+01  -2.751888e+02
   4.125523e+01  -1.905864e+02
  -1.830095e+00  -5.734717e+01
  -1.609163e+02  -1.452512e+02
  -1.420520e+02  -2.299585e+02
   1.011751e+02  -1.969282e+02
   3.043397e+02  -1.273968e+02
   3.596429e+02   1.198798e+02
   1.413803e+02   2.147882e+02
  -2.188395e+02   7.470772e+01
  -2.532568e+02  -9.103362e+01
  -9.798173e+01  -2.735943e+02
   1.952349e+02  -2.004661e+02
   2.682416e+02  -8.563049e+01
   1.785504e+02   7.132205e+01
   2.405921e+01   1.990688e+02
   3.789383e+01   1.063221e+02
   5.731983e+01  -5.801441e+01
   1.200372e+02  -3.206119e+01
   5.757252e+01   1.012159e+02
  -4.658454e+01   3.320582e+02
  -1.873612e+02   2.956295e+02
  -2.001964e+02  -2.575442e+01
  -8.131220e+01  -1.601118e+02
   1.170908e+01  -1.158987e+02
  -2.214814e+01   1.934771e+02
  -8.172802e+01   2.111386e+02
  -2.619395e+02  -4.556767e+00
  -2.748956e+02  -2.158763e+02
  -1.021338e+02  -3.246752e+02
   1.739731e+02  -1.432146e+02
   3.272195e+02   5.606609e+01
   2.491365e+02   1.403323e+02
   5.461894e+01   8.677943e+01
  -1.908167e+02   9.766336e+01
  -1.538869e+02  -2.626899e+01
  -6.641298e+00  -2.056577e+00
  -1.792625e+01   2.381185e+01
  -1.062877e+02   2.071683e+00
  -1.054236e+02   6.473673e+00
  -9.543523e+01  -8.721155e+01
   1.056598e+02  -1.053395e+02
   1.939358e+02  -8.181152e+01
   2.069839e+02   8.960241e+01
  -5.120832e+01   2.462408e+02
  -2.487091e+02   2.633762e+02
  -1.622050e+02   1.037604e+02
  -1.068553e+02  -1.426584e+02
  -2.133703e+01  -1.816793e+02
  -6.130271e+01  -1.720685e+02
  -9.264283e+00  -1.393407e+02
   1.398083e+01  -1.365496e+02
   9.603699e+01  -8.765077e+01
   1.821213e+02  -4.812833e+01
   9.384487e+01   8.972805e+01
   7.735872e+01   1.872983e+02
  -8.017958e+01   9.038566e+01
  -3.152491e+01  -3.492027e+01
  -6.663012e+01  -1.837235e+02
   5.648717e+01  -1.138127e+02
   1.783291e+02  -3.529295e+01
   1.645034e+02   1.247497e+02
   4.865074e+01   2.003196e+02
  -4.509172e+01   1.204818e+02
  -1.284610e+02   7.269756e+01
  -1.438351e+02   6.529869e+01
  -1.161974e+02   5.946486e+01
  -1.913169e+02   4.130966e+01
  -2.893764e+02  -1.280391e+02
  -2.008156e+02  -2.360009e+02
   4.997255e+01  -2.786450e+02
   3.009937e+02  -2.299107e+02
   3.858532e+02  -1.946790e+02
   1.645032e+02   8.004861e+01
   3.193940e+01   1.436154e+02
  -8.814821e+01   9.883099e+01
   4.160679e+01   8.915286e+00
   1.588200e+02   2.373159e+01
   7.167239e+01   3.512812e+01
  -4.799598e+01   1.086748e+02
  -7.664251e+01   8.717300e+01
  -7.198519e+01  -9.217389e+00
   3.910239e+01  -1.011318e+02
   1.281334e+02  -3.886193e+00
   1.599972e+02   1.740163e+02
   2.874335e+01   2.091054e+02
  -2.191466e+02   1.413893e+02
  -2.505357e+02  -1.163563e+02
  -1.734772e+02  -2.058061e+02
   1.267729e+01  -2.036464e+02
   7.787576e+01  -1.058296e+02
   4.942829e+01   2.647307e+00
   4.291174e+01   3.073443e+00
  -1.576323e+01  -8.421061e+01
   4.347026e+01  -5.391535e+01
   1.023646e+02  -6.012600e+00
   1.135952e+02  -2.087966e+01
   6.520133e+00   4.439032e+01
  -2.406809e+01  -2.941428e+01
   1.739083e+01  -7.696220e+01
   1.311389e+02  -3.967490e+01
   2.267869e+02   6.268707e+01
   1.415712e+02   1.719021e+02
   1.440855e+00   2.005058e+02
  -1.299635e+02   1.515289e+02
  -2.099525e+02   3.159868e+01
  -9.103273e+01  -4.672316e+01
   5.512135e+01  -6.859425e+01
   4.951004e+01   2.439872e+01
  -7.630953e+01   4.296802e+01
  -1.297349e+02   1.836131e+01
  -1.428317e+02  -9.604103e+01
  -5.561506e+01  -6.891800e+01
   1.100453e+02  -2.784696e+01
   1.399986e+02  -3.963837e+01
  -4.075510e+01   3.854462e+01
  -1.687755e+01  -5.654382e+00
  -8.545703e+01  -1.015100e+02
   6.046848e+01  -5.712408e+01
   1.259922e+02  -4.787345e+01
   1.174754e+02   1.182735e+02
  -4.949562e+01   9.023562e+01
  -1.504816e+02   1.043801e+02
  -9.755630e+01   4.795538e+01
   1.989726e+01  -8.471920e+01
  -1.998940e+00  -7.044756e+01
   3.047201e+01  -2.627619e+01
  -2.560607e+01  -4.976389e+01
  -2.137563e+01   1.286700e+01
  -1.381338e+01  -4.022761e+01
   1.941298e+01   1.218434e+01
   1.198322e+02   9.169826e+01
  -8.505370e+01   1.569846e+02
  -7.085680e+01   9.425066e+01
  -1.579984e+02  -2.931767e+01
  -1.741888e+02  -1.400608e+02
  -2.369279e+01  -1.280646e+02
   7.926906e+01  -1.347752e+02
   8.369618e+01  -7.180758e+01
   7.391519e+01   4.821404e+01
  -4.257181e+01   3.092406e+01
   2.614831e+01  -2.270135e+01
   4.346703e+01  -2.966703e+01
   5.391167e+01   6.435505e+01
   1.035080e+01   1.072470e+02
  -5.491627e+01   4.889081e+01
  -1.030149e+02  -4.990572e+01
  -1.307813e+01  -1.031624e+02
   1.440873e+02  -1.019887e+02
   1.404148e+02   8.094425e+01
   1.091776e+01   1.676806e+02
  -1.255353e+02   1.744084e+02
  -2.152266e+02   1.264759e+02
  -1.480881e+02  -8.822123e+01
  -6.212199e+01  -1.296402e+02
   1.970084e+01  -9.765829e+01
   7.601157e+01   3.127720e+01
  -2.530029e+01  -1.400235e+01
   2.281825e+01  -6.664409e+01
   6.119969e+01  -5.503002e+01
   7.881788e+01  -1.146132e+01
   7.480297e+01   7.165171e+01
  -4.822458e+01   1.547583e+02
  -6.831905e+01   5.960873e+01
  -1.193702e+02   5.167285e+01
  -9.417955e+01  -8.941988e+01
  -6.347054e+00  -1.005146e+02
   5.331614e+01  -4.552144e+01
   3.861106e+01   4.892245e+01
   2.554637e+01   1.742446e+01
   1.519661e+01   7.315649e+01
  -1.034795e+01   8.383925e+00
  -2.742399e+01   4.317792e+01
   5.385042e+01   9.547727e+01
   1.416704e+01   3.607224e+01
  -8.591972e+01  -2.425721e+01
  -9.803958e+01  -8.357858e+01
   1.280244e+01  -4.543515e+01
   1.412517e+02  -7.145479e+01
   7.369646e+01   1.047936e+01
   4.005166e+01   5.939558e+00
  -6.261294e+01   6.203363e+01
  -9.355989e+01  -3.575080e+00
  -1.408467e+01  -6.613016e+00
   5.494860e+01  -4.114339e+01
   1.596901e+01   6.075583e+01
   7.796407e+01   6.053652e+01
   7.399458e+01  -1.335392e+00
   1.496337e+01   1.745497e+01
   4.603609e+01  -6.235083e+00
   5.009175e+01   8.062621e+01
   3.771068e+01   1.933716e+02
  -9.999735e+01   1.134052e+02
  -9.248154e+01  -1.241428e+01
  -7.424133e+01  -9.371780e+01
   1.353055e+01  -1.215370e+02
   1.292390e+02  -7.370854e+00
   1.233571e+01   3.277019e+01
  -1.775445e+01   7.568864e+01
  -8.457283e+01   4.412956e+01
  -5.074613e+01  -1.158106e+02
   1.823839e+01  -3.111062e+01
   7.793066e+01  -3.611251e+01
   8.843284e+01  -2.630317e+01
  -2.793108e+01   4.008467e+01
   1.425972e+01   6.026772e+00
  -1.428962e+01  -6.151165e+01
   5.257983e+01  -3.102859e+01
   2.704374e+01   3.741826e+01
   2.209042e+01   9.063101e+01
  -9.875398e+01   9.236010e+01
  -1.223541e+02   7.939989e+01
  -4.174919e+01  -1.674941e+01
   1.098867e+01  -9.260464e+01
   6.778086e+01  -7.764082e+01
   5.615010e+01  -1.143390e+01
   7.515450e+01   1.653510e+02
   2.502296e+01   7.301007e+01
   1.296123e+01   4.795614e+01
  -3.207599e+01  -2.316287e+01
   2.908267e+00  -6.095355e+01
   6.059712e+00  -8.655461e+00
  -4.997195e+01  -5.054849e+01
  -3.752277e+01  -7.916423e+01
   6.470106e+00  -9.223712e+01
  -1.665680e+00  -3.741643e+01
   1.095281e+02   7.990859e+01
   1.956265e+01   8.705080e+01
  -1.261100e+01   8.336653e+01
  -8.062391e+01   3.363597e+01
  -5.394750e+01  -5.280792e+00
  -4.874143e+00  -2.824459e+01
   3.626925e+01  -6.033734e+01
  -2.272908e+01   1.244758e+01
  -2.913530e+01   3.225534e+01
  -3.828469e+00   1.547779e+01
   1.504921e+00  -5.368983e+01
   9.936389e+01   5.517890e+01
   3.425346e+01   7.803713e+01
  -1.224019e+02   7.335236e+01
  -1.967690e+02   5.056906e+01
  -8.628021e+01  -3.635092e+01
  -2.717312e+01  -6.645940e+01
   3.991958e+01  -1.403775e+02
   7.065496e+01  -6.202650e-01
   1.262406e+02   1.729674e+01
   2.140388e+01  -2.208840e+01
   4.305352e+01   1.151834e+02
   6.804536e+00   4.505517e+01
   8.308312e+01   5.320191e+01
   7.174854e+00   1.125610e+01
  -2.375107e+01   3.841741e+01
  -6.838422e+01  -1.220233e+01
  -2.158196e+01  -8.253735e+01
  -2.725131e+01  -3.729050e+01
   4.130141e+01   2.192609e+01
   8.369483e+01   3.481100e+01
   3.993873e+01   2.981805e+01
  -8.029249e+01   3.534305e+01
  -6.405635e+01  -1.821364e+01
  -1.359049e+01  -3.922017e+01
  -5.078885e+01  -7.257814e+01
   3.588135e+01   2.279327e+01
  -1.462182e+01   2.665781e+01
  -6.340605e+01  -5.205885e+01
   2.294877e+01  -2.481035e+01
   5.152433e+01  -1.232390e+01
   6.477907e+01   2.813326e+01
   8.558744e+01  -3.027985e+01
  -1.318723e+02   4.651136e+01
  -4.953652e+01   9.422972e+01
  -8.528226e+01   3.716447e+01
  -4.085714e+01  -9.768254e+01
   1.366356e+01  -5.180709e+01
   6.826494e+01  -1.837478e+01
   1.907155e+01   8.141574e+01
   1.138003e+01   8.730781e+01
  -2.347491e+00   7.414916e+01
  -1.937269e+01   3.919941e+01
   1.678312e+01   1.394564e+00
   2.027682e+01   3.363087e+01
   1.502018e+01   4.291707e+00
  -5.531892e+01  -9.670019e+00
   3.998559e+01   3.139117e+01
  -2.774373e+01  -3.370069e+01
   2.396488e+01   2.031531e+01
   2.533972e+01  -2.024995e+00
  -5.815958e+01   2.106021e+01
  -5.794368e+01   1.257661e+01
  -7.494063e+00  -4.981872e+00
   6.298379e+01  -3.572231e+00
   7.478730e+01   1.958064e+01
   6.233875e+01   3.162105e+01
  -2.183317e+01   4.306437e+01
  -9.239284e+01   5.971483e+01
   1.641093e+01  -5.231871e+01
  -4.678179e+01  -2.769788e+01
   9.406605e+00   6.151867e+01
  -1.414612e+00   8.391522e+00
  -4.703955e+01   8.912639e-01
