
 $NMID
 id='ANONYMOUS ', fmtdat='(2E16.6)'
 volume=1.0
 tramp=1.0
 $END
  -2.554599e+07  -2.075550e+06
  -1.404790e+07  -1.710629e+07
   4.822011e+06  -1.701621e+07
   1.305627e+07  -5.576955e+06
   7.182808e+06   3.827875e+06
  -1.865930e+06   4.099645e+06
  -4.396230e+06  -9.448120e+05
  -8.707657e+05  -4.528377e+06
   3.164071e+06  -3.971556e+06
   4.438299e+06  -5.274164e+05
   2.934665e+06   3.060745e+06
   5.728709e+04   3.914331e+06
  -1.904072e+06   1.101994e+06
  -9.915188e+05  -2.539111e+06
   1.943604e+06  -2.804833e+06
   3.509598e+06   9.060084e+05
   1.627573e+06   4.783259e+06
  -2.151634e+06   5.197569e+06
  -4.794613e+06   2.304782e+06
  -4.828029e+06  -1.319597e+06
  -2.741150e+06  -3.638558e+06
  -3.239531e+03  -3.963703e+06
   1.560077e+06  -2.650938e+06
   9.696202e+05  -1.138717e+06
  -4.102735e+05  -9.821760e+05
   1.950048e+04  -1.877245e+06
   2.577863e+06  -1.800713e+06
   4.375796e+06   1.045037e+05
   3.043591e+06   2.111726e+06
  -5.041071e+04   2.305304e+06
  -1.759778e+06   1.048084e+06
  -1.126299e+06  -6.106345e+04
   2.789011e+05  -3.941087e+05
   1.022089e+06  -1.535767e+05
   9.424859e+05   7.020295e+05
   1.920941e+05   1.791633e+06
  -9.476294e+05   1.687272e+06
  -1.475688e+06  -1.533013e+05
  -6.593090e+05  -1.713739e+06
   4.252993e+05  -8.620657e+05
   8.206293e+04   1.109653e+06
  -1.188337e+06   9.472874e+05
  -9.862246e+05  -1.537752e+06
   1.336449e+06  -2.686674e+06
   3.199426e+06  -1.972901e+05
   2.068008e+06   3.334240e+06
  -1.185845e+06   3.796794e+06
  -3.454173e+06   8.236496e+05
  -2.975424e+06  -2.265831e+06
  -6.060225e+05  -2.789550e+06
   1.669369e+06  -1.091236e+06
   2.311886e+06   8.870434e+05
   9.582838e+05   1.665440e+06
  -1.178954e+06   9.013776e+05
  -2.013928e+06  -5.882732e+05
  -7.788006e+05  -1.305398e+06
   8.292653e+05  -5.568258e+05
   7.451720e+05   5.282329e+05
  -6.382845e+05   3.597289e+05
  -1.053325e+06  -8.973580e+05
   4.197363e+05  -1.541822e+06
   2.177120e+06  -6.866627e+05
   2.350772e+06   8.176036e+05
   8.993201e+05   1.889121e+06
  -1.004162e+06   2.316656e+06
  -2.432160e+06   2.011809e+06
  -2.861936e+06   5.718570e+05
  -1.964292e+06  -1.589925e+06
  -2.080644e+05  -2.824439e+06
   1.018281e+06  -2.085075e+06
   8.444448e+05  -4.775586e+05
   5.698106e+04   1.297712e+05
   6.442158e+03  -4.442014e+05
   7.781619e+05  -7.620920e+05
   1.280395e+06  -2.133389e+04
   8.554932e+05   9.357895e+05
  -5.529742e+04   9.687369e+05
  -7.030877e+05   4.231144e+04
  -6.842459e+05  -9.922004e+05
   9.959680e+04  -1.326137e+06
   1.309374e+06  -6.547310e+05
   1.985528e+06   6.939468e+05
   1.329787e+06   1.819284e+06
  -1.676608e+05   1.920135e+06
  -1.134100e+06   1.153688e+06
  -1.058317e+06   4.334277e+05
  -8.571798e+05   2.385260e+05
  -1.349173e+06   1.066567e+05
  -1.940568e+06  -5.050131e+05
  -1.476823e+06  -1.380316e+06
   9.175642e+04  -1.873391e+06
   1.592294e+06  -1.650484e+06
   1.965286e+06  -8.138481e+05
   1.190855e+06   2.812190e+05
   5.102965e+04   1.022213e+06
  -5.643689e+05   8.408179e+05
  -2.554955e+05  -3.453502e+04
   5.393054e+05  -5.560241e+05
   8.814431e+05  -1.121412e+05
   3.774399e+05   5.819717e+05
  -2.731866e+05   4.869767e+05
  -1.758368e+05  -1.926167e+05
   5.149981e+05  -2.695218e+05
   7.926158e+05   6.674587e+05
   1.493824e+05   1.612886e+06
  -8.647037e+05   1.477763e+06
  -1.468530e+06   3.691350e+05
  -1.435458e+06  -7.869339e+05
  -9.173181e+05  -1.331072e+06
  -1.063532e+05  -1.193411e+06
   6.141633e+05  -6.180671e+05
   7.230308e+05  -4.765759e+04
   2.221007e+05   3.900902e+04
  -1.346541e+05  -3.552978e+05
   2.404282e+05  -5.965107e+05
   8.934779e+05  -1.919741e+05
   8.934014e+05   4.841256e+05
   1.193997e+05   6.620281e+05
  -5.555971e+05   2.142855e+05
  -3.830167e+05  -2.406559e+05
   4.079285e+05  -1.972691e+05
   9.721674e+05   2.355982e+05
   7.306029e+05   6.810976e+05
  -1.919710e+05   8.781826e+05
  -1.109340e+06   6.593608e+05
  -1.269676e+06   1.873871e+04
  -5.064983e+05  -6.238626e+05
   4.767068e+05  -6.531757e+05
   7.221943e+05  -2.865140e+04
   5.378099e+04   5.024381e+05
  -7.190443e+05   2.796336e+05
  -7.518310e+05  -4.230731e+05
  -8.583766e+04  -7.648479e+05
   5.378511e+05  -3.972610e+05
   5.580723e+05   1.963188e+05
   7.682654e+04   3.669539e+05
  -3.681068e+05  -6.434352e+03
  -2.975195e+05  -5.084222e+05
   3.139033e+05  -6.284163e+05
   9.341914e+05  -1.746067e+05
   8.891492e+05   5.531060e+05
   9.717995e+04   9.602138e+05
  -7.197567e+05   6.939474e+05
  -7.947623e+05   2.813809e+04
  -1.931729e+05  -4.157238e+05
   3.315529e+05  -3.391744e+05
   2.878572e+05  -1.167332e+04
  -6.989957e+04   1.530994e+05
  -2.257718e+05   7.043818e+04
  -4.324136e+04  -3.157149e+04
   2.053358e+05   6.136081e+04
   2.062511e+05   3.322548e+05
  -1.442350e+05   5.330657e+05
  -6.646729e+05   3.537252e+05
  -9.319196e+05  -2.677054e+05
  -5.944279e+05  -9.400104e+05
   1.888368e+05  -1.092176e+06
   7.863031e+05  -5.772510e+05
   7.584005e+05   1.240882e+05
   3.493702e+05   4.344974e+05
   1.187245e+05   2.968749e+05
   2.154411e+05   1.113261e+05
   2.802228e+05   1.693705e+05
   1.318723e+04   3.558030e+05
  -4.346319e+05   3.751909e+05
  -6.689204e+05   8.934949e+04
  -4.447608e+05  -3.659590e+05
   1.715536e+05  -6.477295e+05
   8.221545e+05  -4.186092e+05
   1.001531e+06   3.051914e+05
   4.329988e+05   9.985795e+05
  -5.538911e+05   1.038031e+06
  -1.199129e+06   3.690513e+05
  -1.040874e+06  -3.941721e+05
  -3.756134e+05  -6.440838e+05
   1.331693e+05  -4.142726e+05
   1.900014e+05  -2.111106e+05
   5.404161e+04  -3.416869e+05
   9.155942e+04  -5.972501e+05
   3.551294e+05  -5.655580e+05
   6.036467e+05  -9.805128e+04
   5.700657e+05   5.405351e+05
   1.840071e+05   8.821375e+05
  -3.351662e+05   6.308571e+05
  -5.838714e+05  -5.003607e+04
  -3.195120e+05  -6.168425e+05
   2.346412e+05  -6.203836e+05
   5.489762e+05  -1.345427e+05
   3.425491e+05   3.565479e+05
  -1.029897e+05   4.889611e+05
  -2.810214e+05   3.336935e+05
  -5.708005e+04   1.823811e+05
   1.865058e+05   1.670690e+05
   1.423727e+04   1.759230e+05
  -5.330556e+05   5.150734e+04
  -9.300506e+05  -2.298121e+05
  -6.969839e+05  -5.344348e+05
   7.608338e+04  -6.547191e+05
   7.716267e+05  -4.611379e+05
   8.453078e+05  -5.426334e+04
   3.580929e+05   2.626501e+05
  -1.430637e+05   2.522450e+05
  -2.356096e+05  -6.810924e+03
  -2.578093e+02  -1.974468e+05
   2.086377e+05  -1.031222e+05
   2.076718e+05   1.730714e+05
   9.527036e+04   3.371593e+05
   3.203934e+04   2.217832e+05
   6.477112e+04  -3.394292e+04
   1.324219e+05  -1.180828e+05
   1.154792e+05   1.163485e+05
  -9.689437e+04   4.418385e+05
  -4.483561e+05   4.535543e+05
  -6.341733e+05   3.385893e+04
  -3.624705e+05  -4.475658e+05
   2.307432e+05  -5.097738e+05
   5.898929e+05  -1.143278e+05
   3.146825e+05   2.850547e+05
  -3.447859e+05   2.678089e+05
  -7.154555e+05  -1.054831e+05
  -4.159651e+05  -4.304716e+05
   2.630946e+05  -4.252070e+05
   6.961207e+05  -1.523354e+05
   5.463208e+05   1.370105e+05
   3.836615e+04   2.365226e+05
  -3.059188e+05   9.479500e+04
  -1.666035e+05  -1.506525e+05
   2.814918e+05  -2.215883e+05
   5.375610e+05   7.216710e+04
   2.728632e+05   5.590038e+05
  -3.186218e+05   7.597646e+05
  -7.026767e+05   3.588609e+05
  -5.466724e+05  -3.850587e+05
  -3.140753e+04  -8.208112e+05
   3.817314e+05  -5.580148e+05
   4.123258e+05   1.191050e+05
   1.472608e+05   5.578326e+05
  -1.424605e+05   4.271932e+05
  -2.610082e+05   1.423401e+04
  -1.923475e+05  -1.859354e+05
  -6.242514e+04  -6.503633e+04
  -2.809558e+04   3.899510e+04
  -1.272149e+05  -1.507391e+05
  -2.019692e+05  -4.604451e+05
  -3.990148e+04  -4.946924e+05
   3.496505e+05  -1.516426e+05
   6.535277e+05   2.626412e+05
   5.443008e+05   4.244647e+05
   5.847861e+04   3.262648e+05
  -3.947930e+05   1.634238e+05
  -4.508283e+05   4.607151e+04
  -1.689829e+05  -4.259749e+04
   7.073700e+04  -9.913195e+04
   3.296891e+04  -8.576282e+04
  -1.070440e+05  -4.455159e+04
  -2.314562e+04  -6.221659e+04
   2.976918e+05  -9.156092e+04
   4.788223e+05   3.624394e+04
   1.916852e+05   3.339390e+05
  -4.118401e+05   5.183260e+05
  -8.090523e+05   2.977114e+05
  -6.456647e+05  -2.372911e+05
  -8.532415e+04  -6.488396e+05
   3.980608e+05  -6.066188e+05
   4.974644e+05  -2.203539e+05
   2.906960e+05   1.197520e+05
   5.501242e+04   1.686949e+05
  -2.426096e+04   3.684097e+04
   4.062193e+04   4.009631e+03
   1.189227e+05   1.805995e+05
   8.177211e+04   3.762337e+05
  -1.009951e+05   3.074544e+05
  -3.056604e+05  -6.733398e+04
  -3.166936e+05  -4.494380e+05
  -3.545515e+04  -4.776555e+05
   3.448641e+05  -1.038172e+05
   4.562083e+05   3.490812e+05
   1.344978e+05   5.098424e+05
  -3.452424e+05   2.977604e+05
  -5.155104e+05  -6.509828e+04
  -2.305503e+05  -3.058530e+05
   1.540848e+05  -3.129292e+05
   1.957668e+05  -1.579916e+05
  -1.010849e+05  -5.573617e+03
  -2.947893e+05   5.295812e+02
  -6.154329e+04  -1.479937e+05
   3.975286e+05  -2.829577e+05
   6.010544e+05  -1.975012e+05
   3.538719e+05   1.154935e+05
  -6.990315e+04   3.991272e+05
  -2.896999e+05   3.780220e+05
  -2.128289e+05   6.870469e+04
  -1.742174e+04  -2.159915e+05
   1.206789e+05  -1.988425e+05
   1.569815e+05   6.626832e+04
   1.007171e+05   2.710291e+05
  -3.485913e+04   2.044620e+05
  -1.783465e+05  -2.695467e+04
  -2.120424e+05  -1.508684e+05
  -1.071954e+05  -5.853424e+04
   1.608029e+04   7.935655e+04
   3.458811e+04   4.115898e+04
  -1.212031e+04  -1.560951e+05
   1.725689e+04  -2.653191e+05
   1.470504e+05  -1.128483e+05
   2.155724e+05   1.742621e+05
   7.408721e+04   3.009358e+05
  -1.902120e+05   1.384894e+05
  -3.044172e+05  -1.397748e+05
  -1.061696e+05  -2.651789e+05
   2.463056e+05  -1.537341e+05
   4.089702e+05   5.527370e+04
   2.117058e+05   1.864791e+05
  -1.467627e+05   1.836548e+05
  -3.031493e+05   9.681397e+04
  -1.248801e+05   2.118352e+03
   1.476498e+05  -3.281198e+04
   1.806059e+05   2.626885e+04
  -7.303623e+04   1.211852e+05
  -3.290571e+05   1.054029e+05
