
 $NMID
 id='ANONYMOUS ', fmtdat='(2E16.6)'
 volume=1.0
 tramp=1.0
 $END
  -3.851888e+07   3.152240e+06
  -2.615318e+07  -2.002595e+07
   1.162754e+06  -2.603033e+07
   1.742493e+07  -1.377308e+07
   1.277018e+07   1.698376e+06
  -6.578051e+05   6.842203e+06
  -7.286891e+06   1.209992e+06
  -3.874285e+06  -6.451188e+06
   2.962578e+06  -8.297755e+06
   6.797652e+06  -3.092336e+06
   5.645329e+06   4.157458e+06
   1.074804e+06   6.638632e+06
  -2.937827e+06   2.013880e+06
  -2.468601e+06  -4.670054e+06
   2.174558e+06  -5.923398e+06
   5.894557e+06  -9.162454e+04
   4.237161e+06   6.996110e+06
  -1.659299e+06   8.864232e+06
  -6.765014e+06   4.796103e+06
  -7.540775e+06  -1.095123e+06
  -4.473350e+06  -4.831403e+06
  -6.284648e+05  -5.273040e+06
   9.738350e+05  -3.694573e+06
  -3.059946e+05  -2.409716e+06
  -1.769002e+06  -2.908988e+06
   9.257455e+04  -4.146850e+06
   4.939066e+06  -3.478605e+06
   7.922536e+06  -1.566108e+05
   5.338527e+06   3.206287e+06
  -3.919049e+05   3.686611e+06
  -3.511764e+06   1.471373e+06
  -1.806757e+06  -8.789274e+05
   1.637909e+06  -1.472901e+06
   3.083043e+06  -1.736638e+05
   1.977373e+06   2.117360e+06
  -4.243681e+04   3.680543e+06
  -1.532583e+06   2.650874e+06
  -1.740873e+06  -5.561017e+05
  -6.422773e+05  -2.455254e+06
   4.497569e+05  -5.117316e+05
  -1.751092e+05   2.696178e+06
  -2.026639e+06   2.261340e+06
  -2.234605e+06  -2.001265e+06
   6.802361e+05  -4.542963e+06
   4.061377e+06  -1.422063e+06
   3.846240e+06   4.159196e+06
  -4.700998e+05   5.903506e+06
  -5.062878e+06   2.162629e+06
  -5.843557e+06  -2.870465e+06
  -2.291527e+06  -4.695538e+06
   2.510718e+06  -2.755488e+06
   4.686268e+06   5.003317e+05
   2.680958e+06   2.476473e+06
  -1.368695e+06   2.009448e+06
  -3.468467e+06  -1.388281e+05
  -1.833009e+06  -1.734738e+06
   1.100465e+06  -1.152693e+06
   1.653271e+06   6.408467e+05
  -4.900739e+05   1.173709e+06
  -2.063904e+06  -3.332409e+05
  -6.180976e+05  -2.026271e+06
   2.448284e+06  -1.897957e+06
   3.856559e+06   5.088446e+04
   2.180385e+06   2.473896e+06
  -1.242953e+06   4.113380e+06
  -4.125683e+06   3.943804e+06
  -4.923129e+06   1.370623e+06
  -3.425885e+06  -2.504519e+06
  -8.358486e+05  -4.900710e+06
   9.609897e+05  -4.113565e+06
   1.083447e+06  -1.685492e+06
   5.450530e+05  -4.717422e+05
   8.596247e+05  -9.742457e+05
   2.019446e+06  -1.114805e+06
   2.578572e+06   4.211322e+05
   1.571890e+06   2.236562e+06
  -3.870430e+05   2.179584e+06
  -1.852387e+06   9.350147e+04
  -1.742445e+06  -2.157587e+06
   5.091369e+04  -2.736386e+06
   2.444510e+06  -1.286001e+06
   3.593195e+06   1.125722e+06
   2.441706e+06   2.894649e+06
   4.723290e+04   3.039722e+06
  -1.450478e+06   1.991134e+06
  -1.413184e+06   1.065024e+06
  -1.356190e+06   9.072792e+05
  -2.552100e+06   7.817671e+05
  -3.926377e+06  -3.221561e+05
  -3.308793e+06  -2.257497e+06
  -3.435588e+05  -3.767798e+06
   2.839100e+06  -3.700412e+06
   3.864759e+06  -1.926071e+06
   2.374315e+06   5.530244e+05
   3.258592e+04   2.113334e+06
  -1.156383e+06   1.670258e+06
  -4.817751e+05  -1.114634e+05
   1.031786e+06  -1.193672e+06
   1.662789e+06  -4.137290e+05
   7.601912e+05   1.010921e+06
  -5.287438e+05   1.051339e+06
  -5.937507e+05  -3.210813e+05
   6.905293e+05  -9.906405e+05
   1.804814e+06   4.553633e+05
   1.341321e+06   2.773623e+06
  -5.720608e+05   3.542479e+06
  -2.617123e+06   1.910841e+06
  -3.491144e+06  -7.669262e+05
  -2.670459e+06  -2.570349e+06
  -6.542403e+05  -2.631311e+06
   1.177033e+06  -1.434077e+06
   1.510720e+06  -2.082510e+05
   4.607843e+05   2.322232e+04
  -3.733482e+05  -6.769220e+05
   2.509597e+05  -1.194459e+06
   1.606373e+06  -6.214232e+05
   1.870660e+06   6.038825e+05
   4.936486e+05   1.205119e+06
  -1.031475e+06   6.267253e+05
  -9.541558e+05  -3.764546e+05
   7.014734e+05  -7.030486e+05
   2.207133e+06  -5.954609e+03
   1.954348e+06   1.199385e+06
  -1.951088e+04   2.037866e+06
  -2.115608e+06   1.784980e+06
  -2.605299e+06   4.189617e+05
  -1.179468e+06  -1.060270e+06
   7.340544e+05  -1.338442e+06
   1.320109e+06  -2.279314e+05
   1.743249e+05   9.261254e+05
  -1.351650e+06   7.302366e+05
  -1.649618e+06  -5.938404e+05
  -4.980521e+05  -1.518937e+06
   8.909308e+05  -1.077183e+06
   1.229574e+06   1.014219e+05
   3.684285e+05   6.804925e+05
  -6.752710e+05   1.141796e+05
  -7.054330e+05  -9.264360e+05
   5.007616e+05  -1.328069e+06
   1.852587e+06  -5.516518e+05
   1.917796e+06   9.079313e+05
   4.478028e+05   1.896557e+06
  -1.226870e+06   1.594769e+06
  -1.584856e+06   3.166011e+05
  -5.541161e+05  -7.674876e+05
   5.560106e+05  -8.104375e+05
   6.509106e+05  -8.844420e+04
  -4.906507e+04   4.595113e+05
  -5.492366e+05   3.276804e+05
  -2.997499e+05  -1.005092e+05
   3.383832e+05  -1.154752e+05
   5.785790e+05   4.779837e+05
  -4.484856e+04   1.100893e+06
  -1.216611e+06   9.256502e+05
  -1.960991e+06  -2.754652e+05
  -1.447018e+06  -1.741058e+06
   1.009175e+05  -2.296779e+06
   1.470779e+06  -1.475349e+06
   1.677511e+06  -1.505951e+04
   9.646426e+05   8.910222e+05
   3.505838e+05   7.945216e+05
   3.443926e+05   2.969622e+05
   4.811213e+05   2.101211e+05
   1.074948e+05   6.282880e+05
  -7.412021e+05   9.068097e+05
  -1.369666e+06   4.329974e+05
  -1.103528e+06  -6.586301e+05
   1.177247e+05  -1.485062e+06
   1.581761e+06  -1.154339e+06
   2.170456e+06   3.355070e+05
   1.216982e+06   1.901038e+06
  -7.460743e+05   2.260171e+06
  -2.269389e+06   1.151676e+06
  -2.286855e+06  -4.151593e+05
  -1.097813e+06  -1.218710e+06
   8.366232e+04  -1.023274e+06
   4.375628e+05  -6.007845e+05
   1.970321e+05  -6.820580e+05
   1.102514e+05  -1.124669e+06
   5.393809e+05  -1.164211e+06
   1.145794e+06  -3.339653e+05
   1.274699e+06   9.629910e+05
   5.888671e+05   1.756622e+06
  -5.359868e+05   1.372227e+06
  -1.216954e+06   7.239507e+04
  -8.480029e+05  -1.123327e+06
   2.294101e+05  -1.323212e+06
   9.913997e+05  -5.273088e+05
   7.906007e+05   4.789777e+05
   3.309587e+04   9.433217e+05
  -3.493838e+05   7.826190e+05
  -1.682964e+04   4.465450e+05
   3.952733e+05   3.207312e+05
   5.674691e+04   3.661610e+05
  -1.026052e+06   2.654088e+05
  -1.889846e+06  -1.924940e+05
  -1.562059e+06  -8.599895e+05
  -1.049844e+05  -1.295880e+06
   1.350373e+06  -1.119079e+06
   1.677276e+06  -3.955867e+05
   8.384055e+05   3.306981e+05
  -1.767843e+05   5.013126e+05
  -4.547891e+05   9.627276e+04
  -2.144354e+04  -3.312380e+05
   4.343215e+05  -2.399965e+05
   4.534397e+05   3.013616e+05
   1.932591e+05   6.811700e+05
   4.160707e+04   4.439101e+05
   1.374021e+05  -1.436511e+05
   3.106375e+05  -3.428476e+05
   2.826571e+05   1.989511e+05
  -1.286398e+05   9.520012e+05
  -7.932043e+05   1.024178e+06
  -1.180999e+06   1.819051e+05
  -7.531459e+05  -8.166448e+05
   3.354589e+05  -1.018886e+06
   1.110682e+06  -3.046681e+05
   6.987305e+05   5.289419e+05
  -6.149100e+05   6.540405e+05
  -1.530854e+06   1.312513e+04
  -1.077110e+06  -7.591686e+05
   3.498650e+05  -1.015161e+06
   1.417697e+06  -6.103972e+05
   1.236556e+06   8.211777e+04
   1.824957e+05   4.984219e+05
  -5.949246e+05   3.149106e+05
  -3.536989e+05  -2.364866e+05
   5.573894e+05  -4.789320e+05
   1.104484e+06   7.757233e+04
   6.156719e+05   1.103649e+06
  -5.554612e+05   1.593344e+06
  -1.391669e+06   8.446830e+05
  -1.208434e+06  -6.894250e+05
  -2.513328e+05  -1.698193e+06
   6.535647e+05  -1.287866e+06
   8.990578e+05   9.008844e+04
   4.995095e+05   1.109453e+06
  -1.180537e+05   9.632451e+05
  -5.148736e+05   1.273852e+05
  -4.947535e+05  -3.526038e+05
  -2.023415e+05  -1.429483e+05
  -2.715412e+04   1.078025e+05
  -2.177379e+05  -2.306193e+05
  -4.990121e+05  -8.783039e+05
  -2.749043e+05  -1.029479e+06
   6.018832e+05  -4.193823e+05
   1.423224e+06   3.841087e+05
   1.294157e+06   7.471428e+05
   2.102735e+05   6.441175e+05
  -8.323756e+05   4.204585e+05
  -9.421048e+05   2.256904e+05
  -3.114188e+05  -6.288554e+03
   1.445878e+05  -2.126808e+05
  -1.985543e+04  -2.262204e+05
  -3.022395e+05  -1.136511e+05
  -3.262637e+04  -1.244384e+05
   6.685705e+05  -2.215463e+05
   9.807911e+05  -1.410424e+04
   3.616339e+05   6.192064e+05
  -7.945828e+05   1.107014e+06
  -1.537943e+06   7.453213e+05
  -1.282998e+06  -3.746400e+05
  -2.912441e+05  -1.323363e+06
   6.576629e+05  -1.312612e+06
   9.652264e+05  -5.140429e+05
   6.307301e+05   2.230180e+05
   1.189130e+05   3.296412e+05
  -1.016941e+05   3.111441e+04
   6.501608e+04  -5.357481e+04
   3.217152e+05   3.246705e+05
   2.826121e+05   7.563691e+05
  -1.521621e+05   6.364072e+05
  -6.521561e+05  -1.214277e+05
  -7.010475e+05  -8.970061e+05
  -9.827847e+04  -9.567838e+05
   7.219170e+05  -2.150828e+05
   9.829534e+05   6.789766e+05
   3.408000e+05   1.008306e+06
  -6.498525e+05   6.323809e+05
  -1.034608e+06  -3.826284e+04
  -5.038702e+05  -5.247507e+05
   2.366871e+05  -6.115516e+05
   3.074685e+05  -3.571909e+05
  -2.700672e+05  -2.028492e+04
  -6.205093e+05   5.334820e+04
  -1.374607e+05  -2.755887e+05
   7.544903e+05  -6.763658e+05
   1.139494e+06  -5.902708e+05
   6.918787e+05   1.030363e+05
  -5.981971e+04   8.077826e+05
  -4.532414e+05   8.174499e+05
  -3.531359e+05   1.466836e+05
  -4.584685e+04  -4.625267e+05
   2.134462e+05  -3.978081e+05
   3.344441e+05   1.597200e+05
   2.554932e+05   5.355620e+05
  -3.817758e+04   3.726352e+05
  -3.666233e+05  -4.219419e+04
  -4.508105e+05  -2.216928e+05
  -2.351977e+05  -6.084336e+04
   2.509143e+04   1.112204e+05
   8.767424e+04  -1.695333e+04
   2.573711e+04  -3.471934e+05
   8.700842e+04  -4.732887e+05
   3.041458e+05  -1.533473e+05
   3.953346e+05   3.734276e+05
   1.116780e+05   6.007906e+05
  -3.876135e+05   2.924829e+05
  -6.110104e+05  -2.574594e+05
  -2.413778e+05  -5.420086e+05
   4.542323e+05  -3.601271e+05
   8.129372e+05   5.028251e+04
   4.556849e+05   3.376281e+05
  -2.581965e+05   3.634850e+05
  -5.803161e+05   2.097263e+05
  -2.087801e+05   2.546095e+04
   3.556589e+05  -4.487699e+04
   3.948188e+05   8.401944e+04
  -1.807843e+05   2.978748e+05
  -7.388587e+05   2.741868e+05
