
 $NMID
 id='ANONYMOUS ', fmtdat='(2E16.6)'
 volume=1.0
 tramp=1.0
 $END
   1.671875e+07  -5.665306e+05
   1.161999e+07   7.364643e+06
   5.171959e+05   1.064365e+07
  -7.038126e+06   7.512743e+06
  -6.260488e+06   1.056648e+06
  -5.767274e+05  -3.089142e+06
   3.465353e+06  -1.768873e+06
   2.815852e+06   2.654058e+06
  -6.113625e+05   4.851400e+06
  -3.159619e+06   2.293416e+06
  -2.854502e+06  -2.138875e+06
  -4.449977e+05  -3.613794e+06
   1.648146e+06  -7.769204e+05
   1.415855e+06   3.011274e+06
  -9.018987e+05   3.617355e+06
  -2.882325e+06   4.672553e+05
  -2.273628e+06  -3.288857e+06
   6.102967e+05  -4.295499e+06
   3.179912e+06  -2.119253e+06
   3.302845e+06   9.014306e+05
   1.414867e+06   2.312240e+06
  -2.008359e+05   1.791233e+06
   4.122366e+04   9.630378e+05
   1.399021e+06   1.315109e+06
   1.652702e+06   2.539925e+06
  -4.408323e+05   3.009056e+06
  -3.523066e+06   1.705382e+06
  -4.705102e+06  -6.067730e+05
  -2.583838e+06  -2.163517e+06
   9.755149e+05  -1.890040e+06
   2.593220e+06  -2.389603e+05
   9.730676e+05   1.321476e+06
  -1.795002e+06   1.445173e+06
  -2.751978e+06  -9.008757e+04
  -1.293236e+06  -2.047273e+06
   6.513277e+05  -2.592623e+06
   1.193987e+06  -1.092299e+06
   3.898096e+05   9.235119e+05
  -4.191563e+05   1.211040e+06
  -3.173779e+05  -5.417220e+05
   5.149454e+05  -2.141079e+06
   1.290991e+06  -1.470319e+06
   1.261177e+06   8.328418e+05
   2.005150e+05   2.073239e+06
  -1.185757e+06   7.655283e+05
  -1.507544e+06  -1.622996e+06
   1.057393e+04  -2.471523e+06
   2.330089e+06  -9.227297e+05
   3.234778e+06   1.468625e+06
   1.576394e+06   2.604861e+06
  -1.322479e+06   1.797530e+06
  -2.881924e+06   1.296949e+04
  -1.868764e+06  -1.243960e+06
   4.494038e+05  -1.158259e+06
   1.758031e+06  -1.165698e+05
   1.067172e+06   7.381083e+05
  -4.873723e+05   5.842825e+05
  -1.067141e+06  -3.002904e+05
  -1.371204e+05  -8.794497e+05
   1.051229e+06  -4.881452e+05
   9.407050e+05   4.799480e+05
  -5.218123e+05   1.004862e+06
  -1.744739e+06   4.252942e+05
  -1.208662e+06  -9.755716e+05
   8.554639e+05  -2.148343e+06
   2.696626e+06  -2.026925e+06
   2.872472e+06  -4.146344e+05
   1.590981e+06   1.679351e+06
   1.935810e+05   2.803030e+06
  -3.861873e+05   2.416332e+06
  -3.801711e+05   1.366845e+06
  -5.538893e+05   7.976952e+05
  -1.190227e+06   7.672367e+05
  -1.821631e+06   3.637909e+05
  -1.769144e+06  -8.282322e+05
  -8.020066e+05  -1.902388e+06
   6.052666e+05  -1.617046e+06
   1.523292e+06   3.493528e+04
   1.213387e+06   1.652741e+06
  -1.983456e+05   1.845074e+06
  -1.652156e+06   5.662203e+05
  -1.995765e+06  -1.014211e+06
  -1.063805e+06  -1.745497e+06
   1.787320e+05  -1.456553e+06
   7.095149e+05  -8.326287e+05
   5.701579e+05  -5.638433e+05
   6.910787e+05  -6.736991e+05
   1.582788e+06  -5.957068e+05
   2.486234e+06   1.679996e+05
   2.109764e+06   1.455339e+06
   1.865923e+05   2.461974e+06
  -1.972845e+06   2.368432e+06
  -2.673106e+06   1.071175e+06
  -1.520847e+06  -6.014702e+05
   2.209974e+05  -1.467340e+06
   9.576746e+05  -9.963408e+05
   3.002563e+05   1.529178e+05
  -7.614725e+05   7.353338e+05
  -1.051773e+06   2.123017e+05
  -3.822372e+05  -6.517392e+05
   4.310123e+05  -6.952131e+05
   5.048307e+05   1.865996e+05
  -2.611475e+05   8.137961e+05
  -1.133684e+06   1.116465e+05
  -1.190598e+06  -1.507387e+06
  -1.005294e+05  -2.463491e+06
   1.520785e+06  -1.692131e+06
   2.494538e+06   2.409602e+05
   2.032334e+06   1.772289e+06
   4.943538e+05   1.893283e+06
  -8.608146e+05   9.527115e+05
  -1.048740e+06   7.005594e+04
  -3.057702e+05  -2.434986e+04
   2.406350e+05   4.475994e+05
  -1.406224e+05   7.293318e+05
  -9.746030e+05   3.707502e+05
  -1.173050e+06  -3.431498e+05
  -3.493628e+05  -7.302354e+05
   6.615644e+05  -4.257016e+05
   6.970114e+05   2.438932e+05
  -4.083874e+05   5.699560e+05
  -1.548414e+06   1.306756e+05
  -1.462343e+06  -8.024326e+05
  -6.363617e+04  -1.466506e+06
   1.438733e+06  -1.252179e+06
   1.750626e+06  -2.705451e+05
   7.514174e+05   6.763066e+05
  -4.784993e+05   7.992184e+05
  -7.933702e+05   1.055055e+05
  -5.214135e+04  -5.722837e+05
   8.873886e+05  -4.436013e+05
   1.085971e+06   3.746266e+05
   3.845397e+05   9.957859e+05
  -5.326862e+05   7.741157e+05
  -8.278263e+05   1.509265e+04
  -3.046157e+05  -4.163932e+05
   3.975380e+05  -7.753636e+04
   4.287104e+05   6.093948e+05
  -3.738065e+05   8.544796e+05
  -1.241871e+06   3.052764e+05
  -1.237767e+06  -6.470739e+05
  -2.634947e+05  -1.247258e+06
   8.056950e+05  -1.031616e+06
   1.038262e+06  -2.160117e+05
   3.879864e+05   4.958114e+05
  -3.588792e+05   5.487750e+05
  -4.780706e+05   4.990626e+04
  -7.445524e+03  -3.799794e+05
   4.249908e+05  -2.983850e+05
   3.301198e+05   8.093316e+04
  -1.477641e+05   1.786293e+05
  -4.070679e+05  -2.293850e+05
  -1.836331e+04  -7.059847e+05
   7.930141e+05  -6.104672e+05
   1.292205e+06   1.996338e+05
   9.259612e+05   1.170989e+06
  -1.033324e+05   1.541040e+06
  -1.005791e+06   1.019647e+06
  -1.173344e+06   3.689959e+04
  -7.260130e+05  -6.569330e+05
  -2.624318e+05  -6.720792e+05
  -1.583977e+05  -2.963991e+05
  -2.248223e+05  -1.224985e+05
  -4.289968e+04  -3.622375e+05
   4.769198e+05  -6.041880e+05
   9.300597e+05  -3.153871e+05
   7.898910e+05   4.658254e+05
  -5.204488e+04   1.056012e+06
  -1.073043e+06   7.975341e+05
  -1.467453e+06  -2.386043e+05
  -8.231894e+05  -1.263908e+06
   4.623410e+05  -1.480209e+06
   1.470587e+06  -7.763741e+05
   1.543303e+06   2.331756e+05
   8.156506e+05   8.149134e+05
  -7.154531e+03   7.631158e+05
  -3.557724e+05   4.800987e+05
  -2.569845e+05   4.506128e+05
  -1.540806e+05   6.811329e+05
  -3.629420e+05   7.110200e+05
  -7.330717e+05   1.827390e+05
  -8.157655e+05  -6.710219e+05
  -3.535855e+05  -1.184634e+06
   3.901753e+05  -9.057387e+05
   8.174937e+05  -4.393736e+04
   5.635165e+05   7.255438e+05
  -1.193263e+05   8.664151e+05
  -5.983617e+05   3.950094e+05
  -5.014856e+05  -2.312459e+05
  -7.154953e+04  -5.654829e+05
   1.556043e+05  -5.194508e+05
  -2.085195e+04  -3.297967e+05
  -2.425896e+05  -2.417730e+05
  -2.092971e+04  -2.539541e+05
   6.554665e+05  -1.680045e+05
   1.209256e+06   1.455468e+05
   1.021652e+06   5.677707e+05
   9.930288e+04   8.173926e+05
  -8.544171e+05   6.977662e+05
  -1.096178e+06   2.736936e+05
  -5.665356e+05  -1.587549e+05
   1.001144e+05  -2.937368e+05
   2.819869e+05  -8.455281e+04
  -1.847695e+04   1.791781e+05
  -3.191620e+05   1.408280e+05
  -2.878680e+05  -2.117951e+05
  -6.265909e+04  -4.783540e+05
   3.150418e+04  -3.050472e+05
  -9.713137e+04   1.312922e+05
  -2.507704e+05   2.731285e+05
  -1.939935e+05  -1.305907e+05
   1.289920e+05  -6.528138e+05
   5.453711e+05  -6.566129e+05
   7.287895e+05  -5.669643e+04
   4.221192e+05   5.662391e+05
  -2.475870e+05   6.211102e+05
  -7.138008e+05   1.253085e+05
  -4.487419e+05  -3.848010e+05
   4.070103e+05  -4.350194e+05
   1.043912e+06  -1.437903e+04
   7.778829e+05   5.049967e+05
  -1.935652e+05   7.129911e+05
  -9.661341e+05   4.621223e+05
  -8.715571e+05  -3.125931e+04
  -1.431375e+05  -3.470804e+05
   3.941601e+05  -2.261405e+05
   2.125483e+05   1.483927e+05
  -4.100593e+05   2.843828e+05
  -7.348325e+05  -1.159629e+05
  -3.403115e+05  -7.765036e+05
   4.666286e+05  -1.038177e+06
   9.818414e+05  -5.003385e+05
   7.942448e+05   5.098362e+05
   1.256090e+05   1.159000e+06
  -4.645671e+05   8.812345e+05
  -6.097502e+05  -4.327704e+04
  -3.494769e+05  -7.479682e+05
   4.981481e+04  -6.678242e+05
   3.328608e+05  -9.399586e+04
   3.604199e+05   2.522238e+05
   1.721843e+05   1.091429e+05
   4.872078e+03  -8.267964e+04
   8.489321e+04   1.379768e+05
   2.960410e+05   5.915670e+05
   2.106342e+05   7.031130e+05
  -3.601160e+05   2.738483e+05
  -9.576761e+05  -2.891188e+05
  -8.989189e+05  -5.262703e+05
  -1.323791e+05  -4.281060e+05
   6.077215e+05  -2.636267e+05
   6.518690e+05  -1.473715e+05
   1.751873e+05  -9.108375e+03
  -1.173243e+05   1.371436e+05
   5.521960e+04   1.714734e+05
   2.507108e+05   1.053017e+05
   2.599963e+02   8.882352e+04
  -5.078822e+05   1.181545e+05
  -6.540019e+05  -3.089750e+04
  -1.551488e+05  -4.232681e+05
   6.109534e+05  -6.971824e+05
   1.022614e+06  -4.208684e+05
   7.937395e+05   3.187781e+05
   1.412243e+05   9.061424e+05
  -4.655365e+05   8.456086e+05
  -6.635102e+05   2.855673e+05
  -4.262705e+05  -1.931018e+05
  -4.987055e+04  -2.253217e+05
   1.129827e+05   6.524431e+03
  -2.670510e+04   6.514930e+04
  -2.279019e+05  -2.100639e+05
  -1.881024e+05  -5.130218e+05
   1.303403e+05  -4.132758e+05
   4.461837e+05   1.310386e+05
   4.193183e+05   6.557101e+05
  -1.398701e+04   6.442897e+05
  -5.227780e+05   8.108422e+04
  -6.282038e+05  -5.274893e+05
  -1.682893e+05  -6.867118e+05
   4.652610e+05  -3.715321e+05
   6.712180e+05   7.178551e+04
   2.932390e+05   3.379758e+05
  -1.775437e+05   3.610802e+05
  -1.800467e+05   2.170521e+05
   2.232802e+05   3.384785e+04
   4.292283e+05  -1.153064e+04
   6.886624e+04   1.822559e+05
  -5.254241e+05   4.371062e+05
  -7.432979e+05   3.901529e+05
  -4.166649e+05  -6.089482e+04
   6.943207e+04  -5.238096e+05
   2.937380e+05  -5.142898e+05
   2.027766e+05  -5.384994e+04
  -3.644219e+03   3.307546e+05
  -1.652626e+05   2.384851e+05
  -2.252511e+05  -1.540634e+05
  -1.491184e+05  -3.689807e+05
   5.036345e+04  -2.156973e+05
   2.444921e+05   5.610470e+04
   2.799618e+05   1.378058e+05
   1.532405e+05   2.481949e+04
   8.214238e+03  -4.791124e+04
  -5.291193e+04   6.909155e+04
  -7.756191e+04   2.610068e+05
  -1.506814e+05   2.807161e+05
  -2.389732e+05   2.733924e+04
  -2.079124e+05  -3.122621e+05
   1.006375e+04  -4.187621e+05
   2.901299e+05  -1.669855e+05
   3.787408e+05   2.196471e+05
   1.265838e+05   3.881837e+05
  -3.053376e+05   2.201890e+05
  -5.227032e+05  -7.899004e+04
  -2.835170e+05  -2.430669e+05
   1.875889e+05  -2.071282e+05
   3.891058e+05  -8.620851e+04
   1.118876e+05  -1.358938e+03
  -2.842984e+05  -7.752616e+03
  -2.824607e+05  -1.097598e+05
   1.623248e+05  -2.224197e+05
   5.602429e+05  -1.636966e+05
