
 $NMID
 id='ANONYMOUS ', fmtdat='(2E16.6)'
 volume=1.0
 tramp=1.0
 $END
  -3.696023e+06  -7.563196e+05
  -2.199344e+06  -2.135085e+06
   3.669391e+05  -2.333257e+06
   1.900920e+06  -1.374753e+06
   1.469754e+06  -6.085117e+03
   1.508379e+04   7.143933e+05
  -8.678510e+05   2.745731e+05
  -5.412012e+05  -7.200945e+05
   3.485910e+05  -1.097940e+06
   8.219324e+05  -3.913172e+05
   5.377217e+05   6.299528e+05
  -8.691852e+04   8.508989e+05
  -4.176542e+05   8.133750e+04
  -1.719924e+05  -7.819299e+05
   3.817788e+05  -8.007422e+05
   6.740808e+05   2.198556e+04
   3.552552e+05   8.505856e+05
  -3.452261e+05   9.361782e+05
  -8.168200e+05   3.079498e+05
  -6.803899e+05  -3.842156e+05
  -1.681114e+05  -5.871626e+05
   1.552763e+05  -3.564797e+05
   1.300161e+04  -1.833679e+05
  -3.041993e+05  -3.778128e+05
  -2.749797e+05  -7.086719e+05
   2.729647e+05  -6.977328e+05
   9.291962e+05  -2.015186e+05
   1.062774e+06   4.085337e+05
   4.681231e+05   6.438136e+05
  -3.506331e+05   3.759779e+05
  -6.324933e+05  -1.029682e+05
  -1.523143e+05  -3.869017e+05
   5.242006e+05  -2.630005e+05
   6.698698e+05   1.716395e+05
   1.992086e+05   5.721174e+05
  -3.076509e+05   5.837006e+05
  -3.424953e+05   1.753970e+05
  -1.806877e+04  -2.542565e+05
   1.883222e+05  -2.488874e+05
   4.563464e+04   1.736983e+05
  -2.463742e+05   4.911629e+05
  -3.798496e+05   2.811217e+05
  -2.496715e+05  -2.450947e+05
   3.594256e+04  -4.718443e+05
   2.704640e+05  -1.178350e+05
   2.415529e+05   4.225916e+05
  -1.171044e+05   5.383815e+05
  -5.648320e+05   8.395107e+04
  -6.704784e+05  -4.992022e+05
  -2.421603e+05  -6.818056e+05
   3.943467e+05  -3.571899e+05
   6.764005e+05   1.336079e+05
   3.825772e+05   3.773854e+05
  -1.500277e+05   2.457168e+05
  -4.043950e+05  -5.482587e+04
  -2.106197e+05  -2.150735e+05
   1.368509e+05  -1.073165e+05
   2.362882e+05   1.216763e+05
   2.173799e+03   2.191928e+05
  -2.649861e+05   8.544156e+04
  -2.171821e+05  -1.346289e+05
   1.387721e+05  -2.052151e+05
   4.097111e+05  -2.802048e+04
   2.300297e+05   2.709775e+05
  -3.127903e+05   4.462501e+05
  -7.405283e+05   3.226447e+05
  -6.879394e+05  -6.470863e+04
  -2.682251e+05  -4.786212e+05
   1.089791e+05  -6.582698e+05
   2.064903e+05  -5.428488e+05
   1.495288e+05  -3.136193e+05
   1.797666e+05  -1.765447e+05
   3.425574e+05  -1.231845e+05
   4.655943e+05   2.149067e+04
   3.769465e+05   3.059131e+05
   8.267326e+04   5.050578e+05
  -2.386589e+05   3.561612e+05
  -3.680959e+05  -9.099333e+04
  -2.031727e+05  -4.613103e+05
   1.475962e+05  -4.270809e+05
   4.206335e+05  -3.935484e+04
   4.070689e+05   3.507855e+05
   1.444973e+05   4.610542e+05
  -1.226159e+05   3.170530e+05
  -2.014119e+05   1.456526e+05
  -1.518321e+05   1.007900e+05
  -1.919499e+05   1.270060e+05
  -4.024868e+05   6.227937e+04
  -5.768605e+05  -1.662853e+05
  -4.222720e+05  -4.520200e+05
   8.407077e+04  -5.916077e+05
   5.923879e+05  -4.563995e+05
   6.915368e+05  -1.089554e+05
   3.266748e+05   2.283867e+05
  -1.362110e+05   3.375875e+05
  -2.839054e+05   1.823318e+05
  -6.201439e+04  -5.420776e+04
   2.207109e+05  -1.325830e+05
   2.579151e+05   6.065861e+03
   5.274530e+04   1.729586e+05
  -1.403699e+05   1.417165e+05
  -1.132207e+05  -6.982727e+04
   9.803556e+04  -1.845983e+05
   2.732479e+05   1.878070e+04
   2.148949e+05   4.085108e+05
  -8.782638e+04   5.935722e+05
  -4.415881e+05   3.368305e+05
  -5.851593e+05  -1.772352e+05
  -3.985426e+05  -5.273338e+05
  -2.113209e+04  -4.789999e+05
   2.556188e+05  -1.812887e+05
   2.533071e+05   3.967970e+04
   7.113764e+04   2.172051e+04
  -3.354111e+04  -1.183934e+05
   7.010292e+04  -1.633741e+05
   2.468507e+05  -3.619171e+04
   2.577590e+05   1.398164e+05
   4.563752e+04   1.885212e+05
  -1.779809e+05   6.663097e+04
  -1.543067e+05  -9.400636e+04
   1.249766e+05  -1.174322e+05
   3.768652e+05   4.524839e+04
   3.104090e+05   2.663682e+05
  -5.849398e+04   3.546589e+05
  -4.067886e+05   2.245108e+05
  -4.292835e+05  -2.646768e+04
  -1.420789e+05  -1.978400e+05
   1.540142e+05  -1.615879e+05
   1.903687e+05   1.725141e+04
  -1.930755e+04   1.365737e+05
  -2.326693e+05   5.780595e+04
  -2.375346e+05  -1.441534e+05
  -4.139189e+04  -2.552957e+05
   1.642922e+05  -1.577181e+05
   1.971967e+05   3.660595e+04
   5.238687e+04   1.132106e+05
  -9.670864e+04  -2.334525e+03
  -6.873500e+04  -1.665862e+05
   1.342374e+05  -1.823249e+05
   3.104760e+05  -6.170241e+03
   2.586788e+05   2.186339e+05
  -3.016833e+03   3.086343e+05
  -2.436899e+05   2.019350e+05
  -2.564883e+05  -2.101180e+03
  -6.683661e+04  -1.368540e+05
   1.130277e+05  -1.115904e+05
   1.170655e+05   1.340260e+04
  -1.706960e+04   9.289936e+04
  -1.184587e+05   5.103793e+04
  -7.819747e+04  -3.722662e+04
   4.225181e+04  -3.829047e+04
   8.581240e+04   7.268551e+04
  -3.042935e+04   1.677789e+05
  -2.190643e+05   1.037854e+05
  -2.956938e+05  -1.145179e+05
  -1.579302e+05  -3.257253e+05
   1.051135e+05  -3.602653e+05
   2.918573e+05  -1.909295e+05
   2.818486e+05   5.096665e+04
   1.407847e+05   1.952085e+05
   2.825643e+04   1.773095e+05
   1.992523e+04   8.135452e+04
   4.416256e+04   3.993293e+04
  -9.135861e+03   8.642680e+04
  -1.437165e+05   1.189403e+05
  -2.376422e+05   2.778578e+04
  -1.651985e+05  -1.522187e+05
   6.607769e+04  -2.500664e+05
   2.963942e+05  -1.347411e+05
   3.363941e+05   1.328268e+05
   1.303149e+05   3.421660e+05
  -1.849576e+05   3.263652e+05
  -3.874639e+05   1.085105e+05
  -3.545063e+05  -1.336064e+05
  -1.538934e+05  -2.355160e+05
   3.974824e+04  -1.831655e+05
   1.112877e+05  -9.782302e+04
   8.805895e+04  -9.318651e+04
   7.399298e+04  -1.512212e+05
   1.226714e+05  -1.478101e+05
   1.821896e+05  -4.324684e+03
   1.576638e+05   2.020241e+05
   2.143975e+04   2.994499e+05
  -1.402607e+05   1.942207e+05
  -1.962514e+05  -3.198043e+04
  -9.612332e+04  -2.004219e+05
   7.195805e+04  -1.988492e+05
   1.604447e+05  -6.421202e+04
   1.063892e+05   7.799213e+04
  -1.058715e+04   1.359596e+05
  -6.138351e+04   1.152155e+05
  -1.116165e+04   8.027383e+04
   4.444013e+04   7.063143e+04
  -8.601972e+03   6.160976e+04
  -1.632586e+05   5.874306e+03
  -2.777684e+05  -9.731663e+04
  -2.123858e+05  -1.871842e+05
   1.773822e+04  -1.976168e+05
   2.371697e+05  -1.199641e+05
   2.733523e+05  -8.639619e+03
   1.264446e+05   6.504684e+04
  -3.827558e+04   6.331987e+04
  -7.064840e+04   6.177959e+03
   1.443230e+04  -4.024169e+04
   8.371868e+04  -1.637659e+04
   5.691087e+04   6.529876e+04
  -1.177370e+04   1.172385e+05
  -2.497685e+04   7.084475e+04
   3.004941e+04  -2.723296e+04
   7.504072e+04  -5.309808e+04
   3.956420e+04   4.101879e+04
  -6.557452e+04   1.487538e+05
  -1.637632e+05   1.268267e+05
  -1.739983e+05  -2.599820e+04
  -6.849049e+04  -1.566021e+05
   9.137990e+04  -1.327663e+05
   1.748049e+05   9.344403e+03
   8.601132e+04   1.152962e+05
  -1.188311e+05   8.215499e+04
  -2.489832e+05  -5.026370e+04
  -1.602336e+05  -1.599387e+05
   8.152676e+04  -1.602760e+05
   2.536705e+05  -6.137768e+04
   2.065240e+05   5.177203e+04
   1.664131e+04   9.016784e+04
  -1.050914e+05   3.373370e+04
  -4.203330e+04  -4.587133e+04
   1.130287e+05  -4.515093e+04
   1.681014e+05   6.735553e+04
   3.846035e+04   2.027688e+05
  -1.670031e+05   2.211932e+05
  -2.600761e+05   6.604248e+04
  -1.615987e+05  -1.632909e+05
   3.126373e+04  -2.820013e+05
   1.565015e+05  -1.856199e+05
   1.427057e+05   4.124449e+04
   4.474475e+04   1.956935e+05
  -4.551161e+04   1.566090e+05
  -8.353217e+04   5.376273e+03
  -7.331572e+04  -7.900265e+04
  -3.624339e+04  -3.526383e+04
  -5.038688e+03   1.967979e+04
  -1.125802e+04  -3.653620e+04
  -3.856204e+04  -1.556503e+05
  -1.441963e+04  -1.781064e+05
   9.829545e+04  -4.624505e+04
   2.123509e+05   1.189446e+05
   1.870128e+05   1.720546e+05
   9.094060e+03   1.083055e+05
  -1.592163e+05   3.058983e+04
  -1.628751e+05   1.183117e+03
  -4.109506e+04  -6.422681e+03
   3.548226e+04  -2.627248e+04
  -5.469987e+03  -4.418864e+04
  -5.542292e+04  -3.889661e+04
   5.177456e+03  -2.124910e+04
   1.283239e+05  -8.334417e+02
   1.534232e+05   4.227858e+04
   1.240330e+04   1.085282e+05
  -1.831484e+05   1.324336e+05
  -2.639741e+05   4.480723e+04
  -1.698407e+05  -1.184424e+05
   1.484945e+04  -2.227633e+05
   1.547751e+05  -1.756049e+05
   1.725886e+05  -3.177104e+04
   9.122096e+04   6.913005e+04
  -6.906080e+02   5.614195e+04
  -2.774603e+04  -8.259539e+03
   9.266275e+03  -1.496824e+04
   4.360694e+04   6.142643e+04
   1.807548e+04   1.316269e+05
  -5.309041e+04   9.087453e+04
  -9.927352e+04  -5.562031e+04
  -6.404935e+04  -1.787289e+05
   3.891380e+04  -1.520751e+05
   1.292319e+05   9.657931e+03
   1.208035e+05   1.596244e+05
   2.728168e+03   1.718313e+05
  -1.303402e+05   6.257814e+04
  -1.548454e+05  -5.298033e+04
  -5.086963e+04  -9.487352e+04
   6.125032e+04  -7.507467e+04
   5.315466e+04  -4.158948e+04
  -5.242206e+04  -2.019267e+04
  -1.028011e+05  -2.013516e+04
  -6.273680e+03  -4.668857e+04
   1.477707e+05  -7.608817e+04
   1.958940e+05  -5.408657e+04
   9.436469e+04   3.562338e+04
  -4.432519e+04   1.201292e+05
  -9.588124e+04   1.059129e+05
  -4.983163e+04   1.091192e+03
   1.896167e+04  -7.883313e+04
   5.211353e+04  -4.721106e+04
   4.544847e+04   4.954146e+04
   1.568281e+04   9.549934e+04
  -2.373841e+04   4.754813e+04
  -5.502504e+04  -2.673765e+04
  -5.868486e+04  -4.679071e+04
  -3.498160e+04  -1.331944e+04
  -5.106380e+03   1.012857e+04
   1.605421e+04  -1.535087e+04
   3.367971e+04  -5.863766e+04
   5.285403e+04  -5.759807e+04
   5.898935e+04   8.099516e+03
   3.144649e+04   8.651251e+04
  -2.649015e+04   9.915575e+04
  -7.828842e+04   2.375587e+04
  -7.756010e+04  -7.297526e+04
  -8.937898e+03  -9.930874e+04
   8.380712e+04  -3.587667e+04
   1.192275e+05   4.699739e+04
   5.405788e+04   7.275490e+04
  -5.555495e+04   3.837103e+04
  -9.666819e+04  -1.209129e+03
  -2.576628e+04  -5.844890e+03
   6.831346e+04   1.771030e+04
   6.176134e+04   4.220604e+04
  -5.123544e+04   4.497112e+04
  -1.432250e+05   9.218328e+03
