
 $NMID
 id='ANONYMOUS ', fmtdat='(2E16.6)'
 volume=1.0
 tramp=1.0
 $END
   2.076966e+07   2.179101e+06
   1.294812e+07   1.072244e+07
  -9.800528e+05   1.292418e+07
  -9.509618e+06   8.276185e+06
  -7.723645e+06   7.574532e+05
  -4.589281e+05  -3.648985e+06
   4.273632e+06  -1.789624e+06
   3.105665e+06   3.447303e+06
  -1.225153e+06   5.826789e+06
  -4.071517e+06   2.462695e+06
  -3.250990e+06  -2.969805e+06
  -1.492017e+05  -4.519097e+06
   2.088635e+06  -7.433002e+05
   1.359300e+06   3.927129e+06
  -1.554073e+06   4.382421e+06
  -3.609263e+06   2.130047e+05
  -2.398553e+06  -4.406634e+06
   1.330764e+06  -5.325911e+06
   4.305478e+06  -2.253775e+06
   4.056470e+06   1.624684e+06
   1.399549e+06   3.163368e+06
  -6.157537e+05   2.181923e+06
  -7.593409e+04   1.072796e+06
   1.765373e+06   1.772659e+06
   1.918623e+06   3.513294e+06
  -9.600656e+05   3.859787e+06
  -4.784125e+06   1.693256e+06
  -5.897864e+06  -1.451869e+06
  -2.907242e+06  -3.080276e+06
   1.555937e+06  -2.194213e+06
   3.335490e+06   1.119010e+05
   1.062881e+06   1.878782e+06
  -2.491178e+06   1.707553e+06
  -3.589885e+06  -3.906496e+05
  -1.529076e+06  -2.798892e+06
   1.084834e+06  -3.307855e+06
   1.672356e+06  -1.269149e+06
   3.702349e+05   1.265988e+06
  -7.727298e+05   1.488611e+06
  -4.138497e+05  -8.133764e+05
   9.206169e+05  -2.740625e+06
   1.832234e+06  -1.740036e+06
   1.452490e+06   1.149611e+06
  -2.276184e+04   2.498006e+06
  -1.481469e+06   6.704318e+05
  -1.501748e+06  -2.252352e+06
   4.561475e+05  -2.998959e+06
   3.060109e+06  -7.438082e+05
   3.853432e+06   2.307617e+06
   1.664159e+06   3.472044e+06
  -1.846913e+06   2.093996e+06
  -3.609485e+06  -3.011951e+05
  -2.241216e+06  -1.705254e+06
   6.112139e+05  -1.313816e+06
   2.131967e+06   6.911628e+04
   1.225698e+06   9.666406e+05
  -6.465168e+05   6.057883e+05
  -1.293500e+06  -4.684620e+05
  -1.462171e+05  -1.059236e+06
   1.267962e+06  -5.454190e+05
   1.094278e+06   5.471668e+05
  -7.125492e+05   1.077753e+06
  -2.174676e+06   3.228590e+05
  -1.366538e+06  -1.352393e+06
   1.395923e+06  -2.648045e+06
   3.753490e+06  -2.280813e+06
   3.760119e+06  -1.422859e+05
   1.806973e+06   2.393979e+06
  -1.181244e+05   3.598482e+06
  -7.370851e+05   3.007223e+06
  -5.619522e+05   1.744449e+06
  -7.868209e+05   1.077161e+06
  -1.702057e+06   9.281784e+05
  -2.482456e+06   2.299419e+05
  -2.211986e+06  -1.343196e+06
  -7.933283e+05  -2.575921e+06
   9.780419e+05  -2.006469e+06
   1.944874e+06   2.227977e+05
   1.353682e+06   2.252059e+06
  -4.780929e+05   2.326902e+06
  -2.188131e+06   5.017461e+05
  -2.423591e+06  -1.576269e+06
  -1.117315e+06  -2.383261e+06
   4.436453e+05  -1.826044e+06
   1.025227e+06  -9.490667e+05
   7.910051e+05  -6.397915e+05
   9.563670e+05  -7.801899e+05
   2.099784e+06  -5.654381e+05
   3.173387e+06   5.290661e+05
   2.533545e+06   2.126954e+06
  -6.709125e+04   3.180732e+06
  -2.840165e+06   2.803768e+06
  -3.577822e+06   1.051930e+06
  -1.873620e+06  -9.653762e+05
   4.765396e+05  -1.864158e+06
   1.342089e+06  -1.159734e+06
   3.391914e+05   2.287252e+05
  -1.069590e+06   8.271060e+05
  -1.338855e+06   1.264892e+05
  -3.838421e+05  -8.653157e+05
   6.148975e+05  -8.103575e+05
   5.909702e+05   2.927760e+05
  -4.155571e+05   9.742314e+05
  -1.412313e+06  -1.608861e+02
  -1.331221e+06  -2.028334e+06
   1.139707e+05  -3.124495e+06
   2.097050e+06  -1.999385e+06
   3.171314e+06   5.559360e+05
   2.432312e+06   2.482922e+06
   4.293283e+05   2.492235e+06
  -1.220484e+06   1.137151e+06
  -1.355606e+06  -2.239277e+04
  -3.896700e+05  -5.885835e+04
   2.409533e+05   6.003198e+05
  -2.821531e+05   8.933236e+05
  -1.277444e+06   3.281757e+05
  -1.419237e+06  -5.795765e+05
  -3.323720e+05  -9.389560e+05
   8.872036e+05  -4.249102e+05
   8.334318e+05   4.083883e+05
  -6.125211e+05   6.711610e+05
  -2.008320e+06  -2.795068e+04
  -1.783214e+06  -1.205729e+06
   9.072477e+04  -1.887252e+06
   1.991939e+06  -1.433753e+06
   2.268588e+06  -1.425890e+05
   8.712149e+05   9.403290e+05
  -7.062316e+05   9.437768e+05
  -1.007223e+06   3.040636e+04
   2.175229e+04  -7.248490e+05
   1.185883e+06  -4.413881e+05
   1.327208e+06   6.089945e+05
   3.683159e+05   1.297164e+06
  -7.534103e+05   9.049753e+05
  -1.028279e+06  -7.819510e+04
  -3.157161e+05  -5.421067e+05
   5.209136e+05  -1.220046e+04
   4.543632e+05   8.632631e+05
  -6.159745e+05   1.056828e+06
  -1.653101e+06   2.262366e+05
  -1.511347e+06  -9.951219e+05
  -1.809362e+05  -1.630656e+06
   1.151310e+06  -1.217812e+06
   1.337959e+06  -1.596437e+05
   4.256813e+05   6.553866e+05
  -5.178484e+05   6.354718e+05
  -5.984028e+05   1.354809e+03
   5.433635e+04  -4.782006e+05
   5.902075e+05  -3.202636e+05
   4.129681e+05   1.504314e+05
  -2.204942e+05   2.125748e+05
  -5.039077e+05  -3.509646e+05
   6.450969e+04  -9.214699e+05
   1.105820e+06  -6.938751e+05
   1.646569e+06   4.202834e+05
   1.051208e+06   1.627069e+06
  -3.126277e+05   1.970906e+06
  -1.401271e+06   1.192025e+06
  -1.505829e+06  -7.787352e+04
  -8.705173e+05  -9.075114e+05
  -2.869693e+05  -8.829560e+05
  -1.910739e+05  -4.085392e+05
  -2.835453e+05  -2.045661e+05
  -1.394519e+04  -4.915749e+05
   6.913986e+05  -7.379220e+05
   1.254140e+06  -3.054539e+05
   9.854247e+05   6.970870e+05
  -1.853773e+05   1.367007e+06
  -1.488848e+06   9.074095e+05
  -1.870164e+06  -4.860486e+05
  -8.992847e+05  -1.728548e+06
   7.865795e+05  -1.839497e+06
   1.983359e+06  -8.084077e+05
   1.941939e+06   4.838306e+05
   9.433986e+05   1.128450e+06
  -9.210048e+04   9.675504e+05
  -5.017004e+05   5.812224e+05
  -3.796323e+05   5.662816e+05
  -2.836840e+05   8.689399e+05
  -5.581079e+05   8.710676e+05
  -9.692939e+05   1.427196e+05
  -9.705841e+05  -9.642666e+05
  -3.116863e+05  -1.567666e+06
   6.110215e+05  -1.116793e+06
   1.051806e+06   4.655844e+04
   6.279940e+05   1.003830e+06
  -2.643830e+05   1.092585e+06
  -8.141748e+05   4.190569e+05
  -6.045495e+05  -3.710823e+05
  -7.796738e+03  -7.332673e+05
   2.729339e+05  -6.342298e+05
   9.587199e+03  -4.148066e+05
  -2.964823e+05  -3.412576e+05
  -4.220142e+03  -3.363754e+05
   8.727488e+05  -1.373395e+05
   1.553823e+06   3.421334e+05
   1.245690e+06   8.619070e+05
   9.905743e+03   1.062367e+06
  -1.199273e+06   7.863287e+05
  -1.437913e+06   2.115762e+05
  -6.928171e+05  -2.782238e+05
   1.733227e+05  -3.683423e+05
   3.735276e+05  -7.010521e+04
  -4.172515e+04   2.426430e+05
  -4.226604e+05   1.585050e+05
  -3.523471e+05  -3.031286e+05
  -4.193138e+04  -6.318036e+05
   6.621043e+04  -3.969543e+05
  -1.355407e+05   1.584922e+05
  -3.500496e+05   3.234593e+05
  -2.415590e+05  -2.010728e+05
   2.374654e+05  -8.426830e+05
   7.952058e+05  -7.889654e+05
   9.740066e+05   2.275458e+04
   4.907892e+05   7.969611e+05
  -4.040732e+05   7.837484e+05
  -9.540431e+05   8.262622e+04
  -5.417095e+05  -5.464174e+05
   5.742065e+05  -5.125817e+05
   1.341271e+06   9.895102e+04
   9.357045e+05   7.315348e+05
  -3.307355e+05   8.854935e+05
  -1.286282e+06   4.772615e+05
  -1.107915e+06  -1.404535e+05
  -1.416741e+05  -4.575650e+05
   5.308368e+05  -2.371224e+05
   2.529972e+05   2.246102e+05
  -5.664707e+05   3.260756e+05
  -9.430712e+05  -2.327169e+05
  -3.601661e+05  -1.047833e+06
   7.146375e+05  -1.300108e+06
   1.324670e+06  -5.466936e+05
   9.721684e+05   7.427217e+05
   3.655869e+04   1.508910e+06
  -6.938435e+05   1.080681e+06
  -7.752202e+05  -1.302041e+05
  -3.571483e+05  -1.001621e+06
   1.484873e+05  -8.430455e+05
   4.422878e+05  -7.412507e+04
   4.304534e+05   3.620884e+05
   2.023460e+05   1.528616e+05
   1.482111e+04  -1.002072e+05
   9.800578e+04   2.033831e+05
   3.142878e+05   8.018264e+05
   1.833365e+05   9.184720e+05
  -5.033502e+05   2.998224e+05
  -1.200440e+06  -4.792495e+05
  -1.092289e+06  -7.727957e+05
  -1.206901e+05  -5.699213e+05
   8.075849e+05  -2.808101e+05
   8.533212e+05  -1.162877e+05
   2.301875e+05   1.804993e+04
  -1.628905e+05   1.660031e+05
   4.989919e+04   2.154086e+05
   3.080705e+05   1.539623e+05
  -7.662698e+03   1.207354e+05
  -6.652585e+05   1.076766e+05
  -8.456361e+05  -1.144351e+05
  -1.641673e+05  -5.793564e+05
   8.642391e+05  -8.448131e+05
   1.381281e+06  -4.295276e+05
   1.007488e+06   5.061547e+05
   8.660488e+04   1.189853e+06
  -7.043116e+05   1.043308e+06
  -8.993579e+05   3.000814e+05
  -5.336291e+05  -2.944085e+05
  -4.086036e+04  -3.030426e+05
   1.437808e+05   8.585089e+03
  -3.964873e+04   7.234809e+04
  -2.635748e+05  -2.976498e+05
  -1.785305e+05  -6.816896e+05
   2.173140e+05  -5.209333e+05
   5.647340e+05   2.146176e+05
   4.768138e+05   8.938364e+05
  -8.171560e+04   8.399588e+05
  -6.862055e+05   5.963966e+04
  -7.632827e+05  -7.459961e+05
  -1.469662e+05  -9.128725e+05
   6.482910e+05  -4.374073e+05
   8.683198e+05   1.701584e+05
   3.407044e+05   4.832619e+05
  -2.808133e+05   4.557339e+05
  -2.687014e+05   2.537543e+05
   2.798499e+05   5.573922e+04
   5.570161e+05   2.934285e+04
   7.102701e+04   2.481412e+05
  -7.271680e+05   5.051170e+05
  -1.006142e+06   4.082735e+05
  -5.343999e+05  -1.388925e+05
   1.501471e+05  -6.729811e+05
   4.475792e+05  -6.295216e+05
   2.827588e+05  -4.638309e+04
  -3.330333e+04   4.281171e+05
  -2.429759e+05   2.970548e+05
  -2.810347e+05  -2.159709e+05
  -1.535130e+05  -4.950057e+05
   9.318144e+04  -2.824307e+05
   3.128600e+05   9.677546e+04
   3.443460e+05   2.169015e+05
   1.915851e+05   5.355210e+04
   1.790599e+04  -7.065644e+04
  -6.531334e+04   7.092073e+04
  -1.145628e+05   3.331115e+05
  -2.180213e+05   3.678029e+05
  -3.190318e+05   2.742062e+04
  -2.526226e+05  -4.263257e+05
   4.434829e+04  -5.515361e+05
   3.936191e+05  -1.915909e+05
   4.761555e+05   3.258686e+05
   1.275030e+05   5.176171e+05
  -4.236391e+05   2.504945e+05
  -6.756818e+05  -1.612277e+05
  -3.421125e+05  -3.479578e+05
   2.706110e+05  -2.524339e+05
   5.203735e+05  -7.363279e+04
   1.516735e+05   1.349990e+04
  -3.628585e+05  -2.906085e+04
  -3.561788e+05  -1.614378e+05
   2.232943e+05  -2.694910e+05
   7.311374e+05  -1.594226e+05
