
 $NMID
 id='ANONYMOUS ', fmtdat='(2E16.6)'
 volume=1.0
 tramp=1.0
 $END
  -5.607131e+07   2.796614e+05
  -3.376424e+07  -3.483959e+07
   7.473448e+06  -3.806202e+07
   2.749686e+07  -1.441040e+07
   1.629950e+07   7.211801e+06
  -3.402476e+06   9.274057e+06
  -9.733100e+06  -1.380942e+06
  -2.615510e+06  -9.732720e+06
   6.242183e+06  -9.113929e+06
   9.561174e+06  -1.867881e+06
   6.918632e+06   6.097159e+06
   8.464692e+05   8.445202e+06
  -3.907393e+06   2.762495e+06
  -2.589021e+06  -5.249817e+06
   3.728932e+06  -6.363185e+06
   7.786473e+06   1.373745e+06
   4.384576e+06   1.010267e+07
  -3.744417e+06   1.168166e+07
  -1.000113e+07   5.905135e+06
  -1.076381e+07  -1.939834e+06
  -6.702784e+06  -7.400307e+06
  -7.921229e+05  -8.690754e+06
   2.957108e+06  -6.137707e+06
   2.038981e+06  -2.639692e+06
  -9.754951e+05  -1.934722e+06
  -3.404388e+05  -3.965959e+06
   5.142163e+06  -4.374024e+06
   9.421176e+06  -6.454406e+05
   6.993068e+06   3.961063e+06
   3.997628e+05   5.000115e+06
  -3.527509e+06   2.646736e+06
  -2.441775e+06   1.735220e+05
   4.245930e+05  -8.196851e+05
   2.049218e+06  -5.337839e+05
   2.132402e+06   1.239081e+06
   8.116276e+05   3.761640e+06
  -1.697837e+06   3.856833e+06
  -3.280585e+06   1.259228e+04
  -1.827107e+06  -3.595215e+06
   7.509898e+05  -2.038211e+06
   4.253380e+05   2.298827e+06
  -2.374617e+06   2.230771e+06
  -2.403453e+06  -3.175516e+06
   2.470252e+06  -6.095893e+06
   7.000432e+06  -1.008498e+06
   5.142501e+06   6.905290e+06
  -1.903792e+06   8.507009e+06
  -7.364049e+06   2.434771e+06
  -6.830103e+06  -4.370021e+06
  -1.771951e+06  -5.912446e+06
   3.416231e+06  -2.622436e+06
   5.115330e+06   1.535514e+06
   2.321212e+06   3.439498e+06
  -2.420516e+06   2.153301e+06
  -4.473347e+06  -9.304804e+05
  -1.910290e+06  -2.704968e+06
   1.704410e+06  -1.358166e+06
   1.684961e+06   1.013404e+06
  -1.364055e+06   8.647788e+05
  -2.448945e+06  -1.829563e+06
   6.993695e+05  -3.484670e+06
   4.677661e+06  -1.882837e+06
   5.270723e+06   1.395890e+06
   2.282321e+06   3.964032e+06
  -1.729549e+06   5.195886e+06
  -4.836254e+06   4.797112e+06
  -6.054688e+06   1.790693e+06
  -4.561917e+06  -3.041036e+06
  -9.898007e+05  -6.046534e+06
   1.841274e+06  -4.667047e+06
   1.765563e+06  -1.130282e+06
   1.176562e+05   3.368495e+05
  -1.527917e+05  -9.288494e+05
   1.454917e+06  -1.812977e+06
   2.715201e+06  -3.480393e+05
   2.020369e+06   1.783979e+06
   1.012253e+05   2.048764e+06
  -1.448381e+06   2.263688e+05
  -1.622844e+06  -1.963174e+06
  -4.310228e+04  -2.838913e+06
   2.670989e+06  -1.665319e+06
   4.407840e+06   1.092627e+06
   3.232157e+06   3.668688e+06
   9.624347e+03   4.201420e+06
  -2.250628e+06   2.727572e+06
  -2.232227e+06   1.129895e+06
  -1.815249e+06   6.481868e+05
  -2.872601e+06   4.521453e+05
  -4.240888e+06  -7.435340e+05
  -3.400752e+06  -2.689483e+06
  -1.377898e+05  -4.013709e+06
   3.091913e+06  -3.807734e+06
   4.029858e+06  -2.107220e+06
   2.594273e+06   3.573465e+05
   3.221330e+05   2.159572e+06
  -1.028165e+06   1.906170e+06
  -5.531740e+05  -1.750041e+04
   1.040918e+06  -1.287158e+06
   1.866102e+06  -4.021194e+05
   9.237056e+05   1.176728e+06
  -4.855113e+05   1.085747e+06
  -3.925015e+05  -3.837333e+05
   1.079039e+06  -6.422715e+05
   1.815789e+06   1.343267e+06
   5.576139e+05   3.459632e+06
  -1.653887e+06   3.285119e+06
  -3.097039e+06   9.826503e+05
  -3.171527e+06  -1.465215e+06
  -2.149795e+06  -2.667351e+06
  -4.261314e+05  -2.503592e+06
   1.189382e+06  -1.424082e+06
   1.525707e+06  -2.375759e+05
   4.801192e+05   4.305010e+04
  -3.500683e+05  -7.338208e+05
   4.116943e+05  -1.322353e+06
   1.883529e+06  -5.714332e+05
   1.998444e+06   8.836842e+05
   3.672057e+05   1.399978e+06
  -1.149814e+06   5.524061e+05
  -8.490874e+05  -4.468464e+05
   8.432453e+05  -4.768450e+05
   2.101053e+06   3.506584e+05
   1.652083e+06   1.323213e+06
  -2.669430e+05   1.888696e+06
  -2.243983e+06   1.589112e+06
  -2.699323e+06   2.627887e+05
  -1.192957e+06  -1.244849e+06
   9.027879e+05  -1.488079e+06
   1.545829e+06  -1.940333e+05
   2.116685e+05   1.067255e+06
  -1.484717e+06   7.274760e+05
  -1.677406e+06  -7.729852e+05
  -3.088390e+05  -1.616799e+06
   1.085304e+06  -9.321830e+05
   1.222059e+06   3.326927e+05
   2.193150e+05   7.737363e+05
  -7.927824e+05   5.047498e+04
  -7.284938e+05  -1.032117e+06
   5.531064e+05  -1.397725e+06
   1.958317e+06  -5.439943e+05
   1.996336e+06   1.016855e+06
   3.797212e+05   2.030818e+06
  -1.413748e+06   1.608445e+06
  -1.690731e+06   1.980141e+05
  -4.814551e+05  -8.541595e+05
   6.487319e+05  -7.791933e+05
   6.047415e+05  -7.638028e+04
  -1.280917e+05   3.277182e+05
  -4.602417e+05   1.777604e+05
  -7.872618e+04  -5.793555e+04
   4.595586e+05   1.094433e+05
   4.943984e+05   6.847194e+05
  -2.211490e+05   1.164798e+06
  -1.356701e+06   8.704591e+05
  -2.033971e+06  -4.052594e+05
  -1.435840e+06  -1.897027e+06
   2.064313e+05  -2.357952e+06
   1.570608e+06  -1.361617e+06
   1.629282e+06   1.359493e+05
   8.079521e+05   8.556694e+05
   3.002789e+05   5.911806e+05
   4.884225e+05   1.851908e+05
   6.403430e+05   3.142287e+05
   9.442305e+04   7.637305e+05
  -8.628608e+05   8.751244e+05
  -1.406900e+06   3.031276e+05
  -1.003348e+06  -6.981987e+05
   2.563724e+05  -1.400201e+06
   1.675618e+06  -1.031070e+06
   2.183652e+06   4.731936e+05
   1.094922e+06   2.052037e+06
  -1.003677e+06   2.311713e+06
  -2.496012e+06   9.942756e+05
  -2.283389e+06  -6.642862e+05
  -9.004358e+05  -1.306238e+06
   2.185399e+05  -8.941106e+05
   3.587915e+05  -4.712347e+05
   3.732857e+04  -7.376105e+05
   7.901410e+04  -1.297962e+06
   6.571437e+05  -1.276103e+06
   1.273100e+06  -3.200515e+05
   1.313520e+06   1.047648e+06
   5.515392e+05   1.844914e+06
  -5.990659e+05   1.403558e+06
  -1.251547e+06  -4.048533e+03
  -7.885769e+05  -1.261543e+06
   3.963501e+05  -1.364789e+06
   1.155020e+06  -3.762633e+05
   7.957663e+05   7.123661e+05
  -1.410574e+05   1.068771e+06
  -5.515174e+05   7.603374e+05
  -9.443992e+04   3.938929e+05
   4.294014e+05   3.192662e+05
   6.343794e+04   3.708054e+05
  -1.130598e+06   2.040859e+05
  -2.028505e+06  -3.246338e+05
  -1.580795e+06  -1.017525e+06
   5.192687e+04  -1.414672e+06
   1.569689e+06  -1.124016e+06
   1.794339e+06  -2.617434e+05
   8.076524e+05   5.058869e+05
  -2.632036e+05   5.681570e+05
  -5.061677e+05   2.371086e+04
  -3.980430e+04  -4.265003e+05
   4.221391e+05  -2.587907e+05
   4.746432e+05   3.308330e+05
   2.712811e+05   6.979570e+05
   1.154870e+05   4.654154e+05
   1.313235e+05  -7.846488e+04
   2.552421e+05  -2.681179e+05
   2.654673e+05   2.279958e+05
  -1.231024e+05   9.553728e+05
  -8.734538e+05   1.048103e+06
  -1.353267e+06   1.922194e+05
  -8.617097e+05  -8.868123e+05
   3.989785e+05  -1.134493e+06
   1.240296e+06  -3.577563e+05
   7.224720e+05   5.476143e+05
  -6.881246e+05   6.307995e+05
  -1.539078e+06  -1.006810e+05
  -9.525671e+05  -8.446418e+05
   4.920128e+05  -9.465190e+05
   1.453319e+06  -4.379893e+05
   1.180884e+06   1.999747e+05
   1.198827e+05   4.950327e+05
  -6.354803e+05   2.529925e+05
  -3.845512e+05  -2.931143e+05
   5.553188e+05  -5.261012e+05
   1.157761e+06   5.062782e+04
   6.888420e+05   1.137118e+06
  -5.321629e+05   1.677305e+06
  -1.426253e+06   8.960225e+05
  -1.233246e+06  -7.175525e+05
  -2.161631e+05  -1.739010e+06
   7.116273e+05  -1.251953e+06
   8.976291e+05   1.841838e+05
   4.086544e+05   1.161379e+06
  -2.331068e+05   9.311868e+05
  -5.550032e+05   7.458366e+04
  -4.377320e+05  -3.600724e+05
  -1.389226e+05  -1.257058e+05
  -5.496756e+04   8.643746e+04
  -3.060113e+05  -3.010512e+05
  -5.158613e+05  -9.446178e+05
  -1.673690e+05  -1.044424e+06
   7.242531e+05  -3.849513e+05
   1.436607e+06   4.406446e+05
   1.228256e+06   8.051688e+05
   1.826361e+05   6.849552e+05
  -8.047977e+05   4.193289e+05
  -9.488454e+05   1.772260e+05
  -3.720893e+05  -6.310548e+04
   1.303498e+05  -2.241469e+05
   6.135219e+04  -1.855425e+05
  -2.286373e+05  -7.204704e+04
  -6.324593e+04  -1.275985e+05
   6.091221e+05  -2.511380e+05
   1.026182e+06  -1.218030e+04
   4.789710e+05   6.762113e+05
  -7.750180e+05   1.181725e+06
  -1.671675e+06   7.863402e+05
  -1.425523e+06  -3.827082e+05
  -3.025859e+05  -1.363680e+06
   7.380856e+05  -1.365848e+06
   1.018209e+06  -5.644034e+05
   6.392007e+05   1.979544e+05
   1.508543e+05   3.488795e+05
  -3.868288e+04   8.655765e+04
   8.968188e+04   5.665641e+03
   2.829158e+05   3.648862e+05
   2.398822e+05   7.858822e+05
  -1.572769e+05   6.740762e+05
  -6.611084e+05  -8.287475e+04
  -7.598685e+05  -8.936743e+05
  -1.703488e+05  -1.010210e+06
   7.103902e+05  -2.902473e+05
   1.036486e+06   6.531241e+05
   3.839518e+05   1.060359e+06
  -6.787346e+05   7.016841e+05
  -1.112051e+06  -4.198802e+04
  -5.506548e+05  -6.128968e+05
   2.706702e+05  -7.001538e+05
   3.929837e+05  -3.737924e+05
  -2.100316e+05   8.620457e+03
  -6.255610e+05   5.601396e+04
  -1.602101e+05  -3.046766e+05
   7.941419e+05  -6.740716e+05
   1.248205e+06  -5.261261e+05
   7.803946e+05   1.852956e+05
  -7.495160e+04   8.644633e+05
  -5.522789e+05   8.602381e+05
  -4.459900e+05   1.898880e+05
  -7.969987e+04  -4.537596e+05
   2.189991e+05  -4.484334e+05
   3.455426e+05   1.069069e+05
   2.648814e+05   5.579895e+05
  -3.491835e+04   4.462882e+05
  -3.845451e+05  -2.225482e+04
  -4.809960e+05  -2.857622e+05
  -2.390986e+05  -1.082397e+05
   5.174670e+04   1.699693e+05
   8.176301e+04   8.995778e+04
  -6.171810e+04  -3.260202e+05
  -2.297190e+04  -5.730294e+05
   2.881872e+05  -2.767801e+05
   4.975221e+05   3.243493e+05
   2.224910e+05   6.253221e+05
  -3.763824e+05   3.321791e+05
  -6.768804e+05  -2.376352e+05
  -2.773390e+05  -5.424030e+05
   4.974322e+05  -3.733257e+05
   8.835004e+05   3.976996e+04
   4.863993e+05   3.576447e+05
  -2.782761e+05   4.218715e+05
  -6.284332e+05   2.668643e+05
  -2.695514e+05   2.860872e+04
   3.019143e+05  -1.010136e+05
   3.864297e+05   1.671722e+04
  -1.284393e+05   2.673778e+05
  -6.727477e+05   2.845889e+05
