
 $NMID
 id='ANONYMOUS ', fmtdat='(2E16.6)'
 volume=1.0
 tramp=1.0
 $END
  -5.058433e+07  -1.153321e+06
  -2.975009e+07  -3.143698e+07
   7.077820e+06  -3.377470e+07
   2.468286e+07  -1.306251e+07
   1.468999e+07   5.979860e+06
  -2.865836e+06   8.259917e+06
  -8.759092e+06  -8.780328e+05
  -2.636733e+06  -8.655147e+06
   5.401845e+06  -8.559481e+06
   8.652174e+06  -1.921127e+06
   6.314645e+06   5.728566e+06
   6.564782e+05   7.932572e+06
  -3.736653e+06   2.403310e+06
  -2.461800e+06  -5.165612e+06
   3.371532e+06  -6.100542e+06
   7.087698e+06   1.175425e+06
   3.965141e+06   9.251842e+06
  -3.506244e+06   1.063250e+07
  -9.218744e+06   5.168884e+06
  -9.708583e+06  -2.127193e+06
  -5.693491e+06  -6.928980e+06
  -3.051272e+05  -7.672998e+06
   2.638063e+06  -5.159558e+06
   1.324007e+06  -2.342319e+06
  -1.330670e+06  -2.226584e+06
  -1.669359e+05  -4.127937e+06
   5.284157e+06  -4.045722e+06
   9.094633e+06  -2.257551e+05
   6.402454e+06   4.005114e+06
  -5.327474e+04   4.702907e+06
  -3.716434e+06   2.238223e+06
  -2.364028e+06  -2.736771e+05
   7.882555e+05  -1.166824e+06
   2.470454e+06  -4.955865e+05
   2.181015e+06   1.595673e+06
   4.796664e+05   3.879686e+06
  -1.830133e+06   3.463223e+06
  -2.858295e+06  -3.713118e+05
  -1.293445e+06  -3.394969e+06
   8.339215e+05  -1.508049e+06
   2.380944e+05   2.529347e+06
  -2.312915e+06   2.208346e+06
  -2.224445e+06  -2.864818e+06
   2.122486e+06  -5.443577e+06
   6.067537e+06  -7.875666e+05
   4.416181e+06   6.255652e+06
  -1.803089e+06   7.572405e+06
  -6.738161e+06   2.058302e+06
  -6.385898e+06  -4.100241e+06
  -1.780517e+06  -5.549321e+06
   3.173103e+06  -2.572298e+06
   4.917791e+06   1.308746e+06
   2.338813e+06   3.150936e+06
  -2.134907e+06   2.000125e+06
  -4.102327e+06  -8.269279e+05
  -1.781756e+06  -2.441694e+06
   1.558235e+06  -1.226082e+06
   1.647870e+06   9.236057e+05
  -1.064934e+06   8.782744e+05
  -2.180992e+06  -1.413115e+06
   4.471682e+05  -2.896951e+06
   4.004536e+06  -1.636429e+06
   4.712021e+06   1.161035e+06
   2.083623e+06   3.549156e+06
  -1.757808e+06   4.829946e+06
  -4.803386e+06   4.443771e+06
  -5.815842e+06   1.487059e+06
  -4.148014e+06  -3.067556e+06
  -7.647327e+05  -5.766405e+06
   1.677892e+06  -4.433382e+06
   1.516533e+06  -1.246401e+06
   1.812277e+05   2.513347e+04
   1.968293e+05  -1.058527e+06
   1.757694e+06  -1.637557e+06
   2.785338e+06  -4.437615e+04
   1.917929e+06   2.030565e+06
  -7.521082e+04   2.169922e+06
  -1.620685e+06   2.064401e+05
  -1.680499e+06  -2.063451e+06
   3.275154e+04  -2.852025e+06
   2.687605e+06  -1.504131e+06
   4.180701e+06   1.252520e+06
   2.886655e+06   3.572635e+06
  -1.429345e+05   3.860206e+06
  -2.115133e+06   2.408333e+06
  -2.004592e+06   1.015529e+06
  -1.666457e+06   6.777291e+05
  -2.775838e+06   5.035181e+05
  -4.141124e+06  -6.933899e+05
  -3.340384e+06  -2.629858e+06
  -1.362987e+05  -3.965983e+06
   3.105172e+06  -3.760224e+06
   4.071978e+06  -2.008868e+06
   2.569440e+06   4.817929e+05
   1.972147e+05   2.205386e+06
  -1.131778e+06   1.851970e+06
  -5.451113e+05  -6.313278e+04
   1.076637e+06  -1.258939e+06
   1.825568e+06  -3.687895e+05
   8.498940e+05   1.163312e+06
  -5.228853e+05   1.086825e+06
  -4.548405e+05  -3.524334e+05
   9.351080e+05  -7.174572e+05
   1.732444e+06   1.083303e+06
   7.215796e+05   3.203010e+06
  -1.323239e+06   3.290251e+06
  -2.896452e+06   1.226351e+06
  -3.236737e+06  -1.254857e+06
  -2.314061e+06  -2.645402e+06
  -4.915275e+05  -2.563720e+06
   1.217750e+06  -1.431232e+06
   1.547104e+06  -2.109530e+05
   4.776366e+05   4.453924e+04
  -3.480167e+05  -7.263056e+05
   3.914284e+05  -1.275677e+06
   1.816660e+06  -5.457099e+05
   1.943368e+06   8.373386e+05
   3.787623e+05   1.344232e+06
  -1.124263e+06   5.590135e+05
  -8.833795e+05  -4.290193e+05
   7.903807e+05  -5.355651e+05
   2.126190e+06   2.498159e+05
   1.748677e+06   1.289611e+06
  -1.949669e+05   1.937278e+06
  -2.230862e+06   1.637105e+06
  -2.691703e+06   2.773303e+05
  -1.171197e+06  -1.214642e+06
   8.903796e+05  -1.429623e+06
   1.488867e+06  -1.672042e+05
   1.748711e+05   1.039748e+06
  -1.468047e+06   7.068804e+05
  -1.663413e+06  -7.456888e+05
  -3.479688e+05  -1.590303e+06
   1.030766e+06  -9.614965e+05
   1.213954e+06   2.726859e+05
   2.541250e+05   7.401196e+05
  -7.578078e+05   5.107831e+04
  -7.071319e+05  -1.021604e+06
   5.671340e+05  -1.380994e+06
   1.954991e+06  -5.193878e+05
   1.973529e+06   1.025880e+06
   3.699551e+05   2.010619e+06
  -1.390279e+06   1.589920e+06
  -1.668246e+06   2.101333e+05
  -4.936965e+05  -8.346352e+05
   6.322292e+05  -7.830522e+05
   6.280217e+05  -7.871918e+04
  -9.426406e+04   3.672935e+05
  -4.841488e+05   2.339217e+05
  -1.581531e+05  -5.252353e+04
   4.014172e+05   5.217391e+04
   5.010825e+05   6.217861e+05
  -1.849259e+05   1.139035e+06
  -1.332939e+06   8.706616e+05
  -2.019147e+06  -3.988339e+05
  -1.420603e+06  -1.886349e+06
   2.081290e+05  -2.356310e+06
   1.563288e+06  -1.389784e+06
   1.651224e+06   1.014758e+05
   8.653967e+05   8.735139e+05
   3.345800e+05   6.668830e+05
   4.551266e+05   2.459123e+05
   5.809755e+05   3.068938e+05
   7.745584e+04   7.282746e+05
  -8.410176e+05   8.754641e+05
  -1.404598e+06   3.304990e+05
  -1.038812e+06  -6.968276e+05
   2.215572e+05  -1.431452e+06
   1.667179e+06  -1.057258e+06
   2.189594e+06   4.609245e+05
   1.111196e+06   2.029996e+06
  -9.632658e+05   2.287844e+06
  -2.449542e+06   1.008304e+06
  -2.282772e+06  -6.161876e+05
  -9.550581e+05  -1.285600e+06
   1.738120e+05  -9.340171e+05
   3.832757e+05  -5.250536e+05
   1.064718e+05  -7.442040e+05
   1.236020e+05  -1.258981e+06
   6.527040e+05  -1.235842e+06
   1.249729e+06  -3.010212e+05
   1.297068e+06   1.052991e+06
   5.404956e+05   1.843024e+06
  -6.059647e+05   1.398425e+06
  -1.249124e+06   3.137609e+03
  -7.903362e+05  -1.235517e+06
   3.658592e+05  -1.347833e+06
   1.104812e+06  -4.022611e+05
   7.729862e+05   6.531630e+05
  -1.094231e+05   1.021775e+06
  -4.975618e+05   7.513969e+05
  -6.893113e+04   4.081912e+05
   4.200528e+05   3.327576e+05
   5.710714e+04   3.758140e+05
  -1.107043e+06   2.035567e+05
  -1.992171e+06  -3.227533e+05
  -1.567936e+06  -9.990945e+05
   2.854991e+04  -1.377396e+06
   1.530906e+06  -1.096717e+06
   1.768887e+06  -2.772418e+05
   8.054285e+05   4.601337e+05
  -2.510694e+05   5.414766e+05
  -4.887522e+05   3.736820e+04
  -1.953961e+04  -4.024524e+05
   4.370130e+05  -2.521907e+05
   4.670706e+05   3.331772e+05
   2.385209e+05   7.128881e+05
   8.430102e+04   4.732402e+05
   1.296721e+05  -1.006742e+05
   2.733738e+05  -2.994677e+05
   2.693036e+05   2.229505e+05
  -1.386463e+05   9.664741e+05
  -8.734292e+05   1.035699e+06
  -1.316844e+06   1.576634e+05
  -8.189606e+05  -8.964846e+05
   4.082245e+05  -1.099671e+06
   1.222997e+06  -3.167364e+05
   7.158408e+05   5.598623e+05
  -6.780145e+05   6.316858e+05
  -1.544745e+06  -8.290297e+04
  -9.890341e+05  -8.263273e+05
   4.551816e+05  -9.625946e+05
   1.449196e+06  -4.812299e+05
   1.201666e+06   1.715443e+05
   1.370614e+05   4.981270e+05
  -6.272656e+05   2.656307e+05
  -3.700895e+05  -2.856788e+05
   5.746924e+05  -5.107494e+05
   1.157564e+06   7.979909e+04
   6.563557e+05   1.156924e+06
  -5.759408e+05   1.667650e+06
  -1.449931e+06   8.702136e+05
  -1.230215e+06  -7.351581e+05
  -2.059715e+05  -1.748015e+06
   7.132116e+05  -1.266803e+06
   8.987388e+05   1.655649e+05
   4.257297e+05   1.155522e+06
  -2.054505e+05   9.403947e+05
  -5.446368e+05   8.269778e+04
  -4.578696e+05  -3.620746e+05
  -1.624401e+05  -1.285950e+05
  -4.518967e+04   9.139490e+04
  -2.696193e+05  -2.938523e+05
  -4.991380e+05  -9.429502e+05
  -1.919289e+05  -1.044834e+06
   6.939139e+05  -3.808564e+05
   1.440686e+06   4.461881e+05
   1.251786e+06   8.047501e+05
   1.821299e+05   6.799479e+05
  -8.300590e+05   4.184957e+05
  -9.568069e+05   1.839101e+05
  -3.502085e+05  -5.530602e+04
   1.407650e+05  -2.231709e+05
   3.285626e+04  -1.929904e+05
  -2.599377e+05  -8.254935e+04
  -5.184874e+04  -1.321227e+05
   6.435597e+05  -2.431239e+05
   1.024763e+06   3.962587e+03
   4.319281e+05   6.836672e+05
  -8.139330e+05   1.165151e+06
  -1.662815e+06   7.496309e+05
  -1.391333e+06  -4.166576e+05
  -2.823861e+05  -1.373439e+06
   7.427907e+05  -1.349522e+06
   1.026059e+06  -5.374448e+05
   6.451602e+05   2.177424e+05
   1.359299e+05   3.521604e+05
  -6.713336e+04   7.480340e+04
   7.657571e+04  -1.074817e+04
   2.914578e+05   3.558093e+05
   2.451272e+05   7.852276e+05
  -1.696120e+05   6.680695e+05
  -6.699156e+05  -1.059533e+05
  -7.398387e+05  -9.220266e+05
  -1.307551e+05  -1.015148e+06
   7.349774e+05  -2.613570e+05
   1.027211e+06   6.886257e+05
   3.565918e+05   1.066163e+06
  -6.936304e+05   6.767350e+05
  -1.100149e+06  -6.248687e+04
  -5.261039e+05  -6.027904e+05
   2.802176e+05  -6.730575e+05
   3.756035e+05  -3.599367e+05
  -2.362163e+05   2.460048e+03
  -6.333465e+05   4.781743e+04
  -1.481203e+05  -3.032126e+05
   7.994586e+05  -6.704860e+05
   1.228377e+06  -5.290536e+05
   7.506286e+05   1.782639e+05
  -8.694863e+04   8.546521e+05
  -5.409699e+05   8.409249e+05
  -4.272895e+05   1.631958e+05
  -6.474569e+04  -4.672682e+05
   2.305911e+05  -4.342370e+05
   3.505054e+05   1.315066e+05
   2.563421e+05   5.621526e+05
  -4.925245e+04   4.273685e+05
  -3.854472e+05  -3.573374e+04
  -4.674807e+05  -2.768060e+05
  -2.349961e+05  -9.695461e+04
   3.549873e+04   1.557063e+05
   7.309288e+04   5.541732e+04
  -3.116329e+04  -3.471183e+05
   3.080309e+04  -5.583869e+05
   3.131998e+05  -2.369309e+05
   4.707432e+05   3.615940e+05
   1.780482e+05   6.393277e+05
  -3.932994e+05   3.198685e+05
  -6.629546e+05  -2.623468e+05
  -2.623689e+05  -5.566221e+05
   4.954392e+05  -3.636270e+05
   8.722538e+05   6.159737e+04
   4.763200e+05   3.646930e+05
  -2.862053e+05   4.025013e+05
  -6.296504e+05   2.387838e+05
  -2.533325e+05   1.861837e+04
   3.310252e+05  -8.512941e+04
   4.010533e+05   4.352124e+04
  -1.480645e+05   2.850112e+05
  -7.087431e+05   2.834458e+05
