
 $NMID
 id='ANONYMOUS ', fmtdat='(2E16.6)'
 volume=1.0
 tramp=1.0
 $END
  -2.582407e+07   7.258840e+05
  -1.725597e+07  -1.260532e+07
   3.608159e+05  -1.668662e+07
   1.128788e+07  -1.021917e+07
   8.994870e+06  -2.974343e+05
   1.997523e+05   4.598656e+06
  -5.082900e+06   1.805700e+06
  -3.475793e+06  -4.175478e+06
   1.443610e+06  -6.564338e+06
   4.717242e+06  -2.805876e+06
   4.070431e+06   3.153960e+06
   6.167951e+05   5.105425e+06
  -2.345352e+06   1.216374e+06
  -1.941384e+06  -4.034491e+06
   1.447310e+06  -4.857402e+06
   4.195210e+06  -3.664741e+05
   3.114064e+06   4.931286e+06
  -1.121587e+06   6.269304e+06
  -4.797144e+06   3.128043e+06
  -5.055985e+06  -1.237892e+06
  -2.437242e+06  -3.524040e+06
   1.345567e+05  -3.109582e+06
   3.431998e+05  -1.832069e+06
  -1.322130e+06  -1.754247e+06
  -2.023391e+06  -3.049768e+06
   4.023557e+05  -3.883696e+06
   4.584934e+06  -2.515486e+06
   6.482027e+06   5.521118e+05
   3.798883e+06   2.918303e+06
  -1.043224e+06   2.778488e+06
  -3.373415e+06   6.340579e+05
  -1.432172e+06  -1.457177e+06
   2.037674e+06  -1.759557e+06
   3.341587e+06  -1.567347e+04
   1.746638e+06   2.424214e+06
  -5.957281e+05   3.383554e+06
  -1.545145e+06   1.717423e+06
  -8.637662e+05  -1.045867e+06
   2.365608e+05  -1.831932e+06
   4.746836e+05   3.436751e+05
  -4.874241e+05   2.700681e+06
  -1.722521e+06   1.942803e+06
  -1.711638e+06  -1.323828e+06
   8.234655e+04  -3.080090e+06
   2.208955e+06  -9.725697e+05
   2.342071e+06   2.693662e+06
  -2.437133e+05   3.843069e+06
  -3.537711e+06   1.356408e+06
  -4.499126e+06  -2.164703e+06
  -2.013466e+06  -3.640464e+06
   1.892721e+06  -2.351143e+06
   3.865028e+06   1.504454e+05
   2.383198e+06   1.801956e+06
  -8.101281e+05   1.560371e+06
  -2.529680e+06   1.627708e+04
  -1.427599e+06  -1.162921e+06
   7.654601e+05  -8.257613e+05
   1.405966e+06   4.559477e+05
  -1.419072e+04   1.083372e+06
  -1.468354e+06   3.159798e+05
  -9.488292e+05  -9.629719e+05
   1.170576e+06  -1.351256e+06
   2.602383e+06  -3.066153e+05
   1.640409e+06   1.579472e+06
  -1.151997e+06   3.068159e+06
  -3.603094e+06   2.906856e+06
  -3.976993e+06   7.227457e+05
  -2.376997e+06  -2.251234e+06
  -3.677904e+05  -3.900094e+06
   6.408244e+05  -3.287015e+06
   6.224050e+05  -1.662727e+06
   6.062577e+05  -8.569655e+05
   1.293320e+06  -1.006868e+06
   2.224906e+06  -6.758275e+05
   2.347956e+06   8.562995e+05
   1.186003e+06   2.351130e+06
  -6.444920e+05   2.084633e+06
  -1.893832e+06   1.187769e+04
  -1.587975e+06  -2.084996e+06
   1.952873e+05  -2.429969e+06
   2.185856e+06  -8.643375e+05
   2.806595e+06   1.254254e+06
   1.615855e+06   2.409959e+06
  -1.895195e+05   2.162953e+06
  -1.072245e+06   1.278780e+06
  -9.104149e+05   7.741916e+05
  -9.897145e+05   8.422642e+05
  -2.123983e+06   7.456718e+05
  -3.318852e+06  -2.467460e+05
  -2.808984e+06  -1.938667e+06
  -2.597882e+05  -3.260417e+06
   2.565768e+06  -3.161029e+06
   3.488457e+06  -1.502295e+06
   2.041741e+06   7.016220e+05
  -1.871908e+05   1.923556e+06
  -1.193244e+06   1.368972e+06
  -4.102775e+05  -1.745561e+05
   9.782421e+05  -9.983588e+05
   1.414752e+06  -2.979651e+05
   5.510076e+05   8.787763e+05
  -5.407683e+05   9.214536e+05
  -6.201202e+05  -2.532722e+05
   4.180303e+05  -9.958907e+05
   1.494665e+06   2.958690e+04
   1.418874e+06   2.103034e+06
  -6.286354e+04   3.162124e+06
  -2.062849e+06   2.034501e+06
  -3.187661e+06  -4.172027e+05
  -2.568020e+06  -2.287152e+06
  -6.349761e+05  -2.426269e+06
   1.099074e+06  -1.257732e+06
   1.364991e+06  -1.215886e+05
   4.020361e+05   2.923763e+04
  -3.201872e+05  -5.922575e+05
   2.019016e+05  -9.873116e+05
   1.327492e+06  -4.985688e+05
   1.570867e+06   4.851311e+05
   4.437752e+05   9.941626e+05
  -8.853567e+05   5.565616e+05
  -8.953418e+05  -3.219058e+05
   5.531426e+05  -7.079661e+05
   1.996579e+06  -1.280900e+05
   1.858676e+06   1.042134e+06
   6.008079e+04   1.879090e+06
  -1.875895e+06   1.622737e+06
  -2.296445e+06   3.585961e+05
  -9.985048e+05  -9.063174e+05
   6.427928e+05  -1.088531e+06
   1.083694e+06  -1.493716e+05
   9.082265e+04   7.782744e+05
  -1.177842e+06   6.005023e+05
  -1.433033e+06  -5.044312e+05
  -4.807776e+05  -1.314814e+06
   7.254246e+05  -9.903154e+05
   1.081885e+06   1.685080e+04
   3.730009e+05   5.633609e+05
  -5.479564e+05   1.011037e+05
  -5.849034e+05  -8.073994e+05
   4.741538e+05  -1.141838e+06
   1.634067e+06  -4.307920e+05
   1.648077e+06   8.352053e+05
   3.597140e+05   1.649717e+06
  -1.067623e+06   1.367880e+06
  -1.372531e+06   2.778810e+05
  -4.993672e+05  -6.604165e+05
   4.794827e+05  -7.182517e+05
   6.137239e+05  -7.027697e+04
  -8.659425e+02   4.702663e+05
  -5.302527e+05   3.663930e+05
  -3.837822e+05  -9.136813e+04
   2.173961e+05  -1.898929e+05
   5.206093e+05   3.339719e+05
   4.832672e+03   9.351572e+05
  -1.048159e+06   8.052132e+05
  -1.705807e+06  -2.547949e+05
  -1.234704e+06  -1.536251e+06
   1.203299e+05  -2.023201e+06
   1.309869e+06  -1.326035e+06
   1.517061e+06  -3.993983e+04
   9.215839e+05   8.323777e+05
   3.396341e+05   8.218779e+05
   2.426413e+05   3.517590e+05
   3.342106e+05   1.718649e+05
   6.632853e+04   4.987335e+05
  -6.308822e+05   7.924102e+05
  -1.210650e+06   4.068272e+05
  -1.016859e+06  -5.942484e+05
   7.285867e+04  -1.357562e+06
   1.398318e+06  -1.039421e+06
   1.921001e+06   3.040004e+05
   1.078562e+06   1.661867e+06
  -6.226875e+05   1.956129e+06
  -1.950378e+06   1.015594e+06
  -2.018959e+06  -3.237408e+05
  -1.037639e+06  -1.066217e+06
   2.511785e+04  -9.673073e+05
   4.366387e+05  -6.016899e+05
   2.860325e+05  -6.006391e+05
   1.731424e+05  -9.277306e+05
   4.793418e+05  -9.615280e+05
   9.785456e+05  -2.551640e+05
   1.088234e+06   8.718061e+05
   4.819753e+05   1.554008e+06
  -5.000185e+05   1.196589e+06
  -1.073169e+06   6.008186e+04
  -7.411659e+05  -9.636306e+05
   1.712607e+05  -1.144103e+06
   8.104319e+05  -4.987840e+05
   6.659048e+05   3.410151e+05
   7.116162e+04   7.671666e+05
  -2.362301e+05   6.807775e+05
   1.532331e+04   4.189828e+05
   3.282676e+05   3.062643e+05
   3.526304e+04   3.295003e+05
  -8.726393e+05   2.238014e+05
  -1.610595e+06  -1.847288e+05
  -1.351513e+06  -7.486216e+05
  -1.174361e+05  -1.093132e+06
   1.143906e+06  -9.361487e+05
   1.450050e+06  -3.548368e+05
   7.394003e+05   2.339766e+05
  -1.402758e+05   4.018985e+05
  -3.781287e+05   1.021190e+05
   1.259982e+04  -2.528115e+05
   4.074513e+05  -1.931102e+05
   3.838855e+05   2.743051e+05
   1.101994e+05   6.206292e+05
  -1.689182e+04   3.994276e+05
   1.232038e+05  -1.580922e+05
   3.091062e+05  -3.434967e+05
   2.531808e+05   1.702917e+05
  -1.491203e+05   8.514807e+05
  -7.093080e+05   8.757314e+05
  -9.841743e+05   1.007054e+05
  -5.892780e+05  -7.375180e+05
   3.169802e+05  -8.413868e+05
   9.515565e+05  -1.960862e+05
   5.978295e+05   4.928026e+05
  -5.358580e+05   5.717765e+05
  -1.361586e+06   1.772758e+04
  -9.976178e+05  -6.610688e+05
   2.686939e+05  -9.201652e+05
   1.258431e+06  -5.859037e+05
   1.125242e+06   4.825543e+04
   1.800797e+05   4.492719e+05
  -5.187994e+05   2.908766e+05
  -2.892143e+05  -1.998724e+05
   5.243439e+05  -3.903266e+05
   9.693406e+05   1.255275e+05
   4.781094e+05   1.006459e+06
  -5.744058e+05   1.378023e+06
  -1.270324e+06   6.853173e+05
  -1.050147e+06  -6.497339e+05
  -1.834247e+05  -1.513433e+06
   5.974949e+05  -1.149972e+06
   7.965494e+05   6.293050e+04
   4.535610e+05   9.788901e+05
  -7.575206e+04   8.667661e+05
  -4.415057e+05   1.202245e+05
  -4.623450e+05  -3.231481e+05
  -2.119390e+05  -1.366239e+05
  -1.165848e+04   1.037211e+05
  -1.360021e+05  -1.898626e+05
  -4.046413e+05  -7.764934e+05
  -2.663276e+05  -9.166472e+05
   4.904633e+05  -3.611041e+05
   1.256344e+06   3.659610e+05
   1.167813e+06   6.785600e+05
   1.774446e+05   5.631562e+05
  -7.774013e+05   3.551984e+05
  -8.470111e+05   1.961197e+05
  -2.429782e+05   5.641622e+03
   1.460254e+05  -1.827733e+05
  -5.598707e+04  -2.151989e+05
  -3.107258e+05  -1.242302e+05
  -9.902513e+03  -1.150495e+05
   6.428849e+05  -1.700016e+05
   8.611609e+05   2.357499e+04
   2.397849e+05   5.548568e+05
  -7.709514e+05   9.361122e+05
  -1.347581e+06   5.846618e+05
  -1.070770e+06  -3.923367e+05
  -2.085493e+05  -1.182752e+06
   6.010038e+05  -1.124722e+06
   8.654554e+05  -4.001494e+05
   5.597849e+05   2.348805e+05
   7.830561e+04   2.948961e+05
  -1.308366e+05   4.316707e+03
   4.084262e+04  -7.310474e+04
   2.941741e+05   2.780948e+05
   2.482279e+05   6.709458e+05
  -1.597493e+05   5.491922e+05
  -5.839541e+05  -1.510726e+05
  -5.732554e+05  -8.399632e+05
  -1.450173e+04  -8.470554e+05
   6.723210e+05  -1.335533e+05
   8.394218e+05   6.634333e+05
   2.460554e+05   8.984460e+05
  -5.997578e+05   5.100633e+05
  -8.913547e+05  -7.548542e+04
  -4.029827e+05  -4.501829e+05
   2.263072e+05  -4.946508e+05
   2.474927e+05  -2.936282e+05
  -2.761660e+05  -3.484136e+04
  -5.584157e+05   2.583657e+04
  -9.986674e+04  -2.407155e+05
   6.817354e+05  -5.811496e+05
   9.837120e+05  -5.140289e+05
   5.656554e+05   8.451277e+04
  -7.951571e+04   6.955138e+05
  -3.902670e+05   6.883727e+05
  -2.811271e+05   8.783682e+04
  -1.003469e+04  -4.265695e+05
   2.084407e+05  -3.251473e+05
   2.966123e+05   1.828225e+05
   2.052449e+05   4.806621e+05
  -5.691931e+04   2.976919e+05
  -3.222850e+05  -6.223687e+04
  -3.761674e+05  -1.858161e+05
  -2.023220e+05  -3.911672e+04
  -1.332943e+03   7.454623e+04
   6.996892e+04  -6.702022e+04
   7.621292e+04  -3.329715e+05
   1.611820e+05  -3.861904e+05
   3.016581e+05  -6.772758e+04
   2.981168e+05   3.862420e+05
   2.208851e+04   5.455828e+05
  -3.691098e+05   2.320702e+05
  -5.111070e+05  -2.696890e+05
  -1.815530e+05  -5.002005e+05
   4.007426e+05  -2.978408e+05
   6.964268e+05   8.551040e+04
   3.816720e+05   3.126698e+05
  -2.413504e+05   2.872530e+05
  -5.122844e+05   1.353807e+05
  -1.586247e+05   7.217259e+03
   3.558009e+05  -6.805470e+03
   3.652218e+05   1.217326e+05
  -1.955453e+05   2.841028e+05
  -7.093818e+05   2.253235e+05
