
 $NMID
 id='ANONYMOUS ', fmtdat='(2E16.6)'
 volume=1.0
 tramp=1.0
 $END
   2.962891e+07   2.359813e+06
   1.668502e+07   1.938478e+07
  -5.158183e+06   1.976365e+07
  -1.521918e+07   7.090695e+06
  -8.799992e+06  -4.066272e+06
   1.977062e+06  -5.113790e+06
   5.487866e+06   6.091065e+05
   1.523779e+06   5.409501e+06
  -3.562915e+06   5.250854e+06
  -5.404270e+06   9.603870e+05
  -3.593684e+06  -3.807067e+06
   4.386030e+04  -4.931806e+06
   2.478504e+06  -1.262843e+06
   1.328047e+06   3.361607e+06
  -2.278945e+06   3.670018e+06
  -4.220260e+06  -9.240083e+05
  -1.986965e+06  -5.652174e+06
   2.544599e+06  -6.101259e+06
   5.647848e+06  -2.548114e+06
   5.527245e+06   1.744615e+06
   2.948999e+06   4.270167e+06
  -1.375050e+05   4.419900e+06
  -1.676400e+06   2.918689e+06
  -8.399327e+05   1.454799e+06
   6.209544e+05   1.513915e+06
  -1.799741e+05   2.488653e+06
  -3.382166e+06   2.118408e+06
  -5.479439e+06  -3.417117e+05
  -3.678060e+06  -2.748921e+06
   2.883136e+05  -2.864189e+06
   2.418387e+06  -1.155924e+06
   1.385797e+06   3.435965e+05
  -6.886606e+05   6.584027e+05
  -1.595581e+06   2.443520e+04
  -1.077241e+06  -1.236454e+06
   1.461232e+05  -2.359686e+06
   1.330057e+06  -1.858651e+06
   1.580949e+06   4.373037e+05
   5.571428e+05   2.039416e+06
  -4.700966e+05   7.780355e+05
   9.122480e+04  -1.545360e+06
   1.523980e+06  -1.197481e+06
   1.262451e+06   1.836734e+06
  -1.358131e+06   3.240988e+06
  -3.550758e+06   3.770880e+05
  -2.448605e+06  -3.756005e+06
   1.207146e+06  -4.393654e+06
   4.006420e+06  -1.000931e+06
   3.674413e+06   2.675707e+06
   8.655273e+05   3.436186e+06
  -2.071938e+06   1.475215e+06
  -3.000635e+06  -1.006875e+06
  -1.317063e+06  -2.115665e+06
   1.411078e+06  -1.255410e+06
   2.518653e+06   6.292756e+05
   1.030911e+06   1.623167e+06
  -9.997470e+05   7.521956e+05
  -1.012673e+06  -6.724678e+05
   6.738884e+05  -6.331219e+05
   1.384367e+06   8.506948e+05
  -1.913215e+05   1.785247e+06
  -2.359234e+06   9.460840e+05
  -2.789210e+06  -8.189764e+05
  -1.128203e+06  -2.178844e+06
   1.289171e+06  -2.720468e+06
   3.097184e+06  -2.297842e+06
   3.494750e+06  -5.342250e+05
   2.244715e+06   2.024457e+06
   1.216480e+05   3.478610e+06
  -1.263730e+06   2.621459e+06
  -1.056837e+06   7.092082e+05
  -2.174232e+05  -7.976273e+04
  -2.243582e+05   5.116933e+05
  -1.114583e+06   8.090315e+05
  -1.626803e+06  -1.623482e+05
  -9.999109e+05  -1.368766e+06
   2.265691e+05  -1.338191e+06
   1.061505e+06  -1.089113e+04
   9.278235e+05   1.407612e+06
  -2.021210e+05   1.757970e+06
  -1.712914e+06   7.430633e+05
  -2.403690e+06  -9.941623e+05
  -1.492962e+06  -2.264042e+06
   2.823407e+05  -2.244527e+06
   1.339191e+06  -1.292192e+06
   1.210214e+06  -5.022393e+05
   1.025806e+06  -3.392021e+05
   1.695564e+06  -1.782202e+05
   2.447058e+06   6.264692e+05
   1.864116e+06   1.770269e+06
  -1.326949e+05   2.408776e+06
  -2.084912e+06   2.084668e+06
  -2.583328e+06   9.486359e+05
  -1.527170e+06  -4.650768e+05
   3.152154e+04  -1.347142e+06
   8.343663e+05  -1.047850e+06
   3.605595e+05   7.798183e+04
  -7.248236e+05   7.244461e+05
  -1.159495e+06   1.490089e+05
  -4.709889e+05  -7.617091e+05
   4.103971e+05  -6.770735e+05
   3.245887e+05   2.316215e+05
  -5.795279e+05   4.701903e+05
  -1.050792e+06  -6.466360e+05
  -3.560404e+05  -1.982506e+06
   9.471955e+05  -2.031900e+06
   1.868062e+06  -6.729898e+05
   1.953504e+06   9.611185e+05
   1.273892e+06   1.810846e+06
   1.364196e+05   1.618644e+06
  -8.406071e+05   7.784624e+05
  -9.642968e+05   1.057014e+04
  -2.910129e+05  -6.721221e+04
   1.886392e+05   4.592614e+05
  -2.766462e+05   7.692709e+05
  -1.128763e+06   2.681090e+05
  -1.179767e+06  -5.920274e+05
  -2.104372e+05  -8.659140e+05
   7.112808e+05  -3.371196e+05
   5.612635e+05   2.826861e+05
  -4.704711e+05   3.080232e+05
  -1.284427e+06  -2.370149e+05
  -1.018391e+06  -8.846103e+05
   2.168737e+05  -1.193295e+06
   1.460839e+06  -8.853296e+05
   1.671588e+06  -1.306439e+04
   6.599799e+05   8.170276e+05
  -6.151170e+05   8.349633e+05
  -9.250902e+05   3.112380e+04
  -6.752237e+04  -6.463423e+05
   9.300374e+05  -3.692679e+05
   9.960958e+05   5.375714e+05
   1.499565e+05   1.016476e+06
  -6.900251e+05   5.781799e+05
  -7.718005e+05  -2.071347e+05
  -1.674895e+05  -4.851012e+05
   4.373632e+05  -3.902142e+04
   3.829263e+05   6.131752e+05
  -3.889799e+05   7.834046e+05
  -1.184684e+06   2.070410e+05
  -1.128766e+06  -7.223097e+05
  -1.160093e+05  -1.240102e+06
   9.374348e+05  -8.980297e+05
   1.052137e+06  -3.404078e+04
   2.837457e+05   5.628910e+05
  -4.277342e+05   4.787169e+05
  -4.198554e+05   2.543386e+04
   4.348910e+04  -2.387580e+05
   3.034950e+05  -1.416387e+05
   1.166764e+05   3.487481e+04
  -2.154031e+05  -3.942597e+04
  -2.601480e+05  -3.831055e+05
   1.677682e+05  -6.595484e+05
   8.396662e+05  -4.412110e+05
   1.184506e+06   3.519753e+05
   7.420215e+05   1.213840e+06
  -2.740612e+05   1.418603e+06
  -1.050905e+06   7.639491e+05
  -1.021170e+06  -1.676915e+05
  -4.791555e+05  -6.279540e+05
  -1.358531e+05  -4.774321e+05
  -2.159631e+05  -1.906536e+05
  -2.981463e+05  -1.932086e+05
   9.983075e+03  -4.100342e+05
   5.562826e+05  -4.578502e+05
   8.523084e+05  -1.031777e+05
   5.663974e+05   4.922643e+05
  -2.274876e+05   8.514252e+05
  -1.061764e+06   5.329779e+05
  -1.289212e+06  -4.072684e+05
  -5.687250e+05  -1.285131e+06
   6.860600e+05  -1.333390e+06
   1.531136e+06  -4.915812e+05
   1.372181e+06   4.915641e+05
   5.378274e+05   8.540858e+05
  -1.562139e+05   5.914352e+05
  -2.940768e+05   3.076216e+05
  -1.428695e+05   4.231292e+05
  -1.604481e+05   7.272323e+05
  -4.587034e+05   6.976926e+05
  -7.615161e+05   1.080619e+05
  -7.163396e+05  -7.138027e+05
  -2.161284e+05  -1.147980e+06
   4.518053e+05  -8.129443e+05
   7.629584e+05   6.185030e+04
   4.198740e+05   7.822049e+05
  -2.806078e+05   8.005045e+05
  -6.785954e+05   2.123029e+05
  -4.383876e+05  -4.017047e+05
   9.318584e+04  -5.990744e+05
   3.111602e+05  -4.426906e+05
   5.890506e+04  -2.659384e+05
  -2.140889e+05  -2.341930e+05
   2.544984e+03  -2.264911e+05
   6.652305e+05  -5.546370e+04
   1.155941e+06   3.053809e+05
   8.869681e+05   6.821831e+05
  -6.458555e+04   8.187449e+05
  -9.574401e+05   5.738709e+05
  -1.086966e+06   8.250418e+04
  -4.829879e+05  -2.994958e+05
   1.686283e+05  -2.998979e+05
   2.919641e+05  -4.567592e+03
  -2.674489e+04   2.202242e+05
  -2.965250e+05   1.061258e+05
  -2.533407e+05  -2.381678e+05
  -6.446325e+04  -4.453344e+05
   3.814612e+03  -2.864245e+05
  -9.259641e+04   6.044082e+04
  -1.986090e+05   1.730199e+05
  -1.380927e+05  -1.405101e+05
   1.626806e+05  -5.600455e+05
   5.759806e+05  -5.550687e+05
   7.550602e+05  -8.409053e+03
   4.037441e+05   5.766023e+05
  -3.054586e+05   6.098535e+05
  -7.301069e+05   9.137190e+04
  -3.860041e+05  -3.929813e+05
   4.490541e+05  -3.423204e+05
   9.429877e+05   1.460804e+05
   5.731459e+05   5.702472e+05
  -3.253601e+05   5.765529e+05
  -9.247188e+05   2.251965e+05
  -7.410343e+05  -1.703866e+05
  -6.184607e+04  -3.200085e+05
   3.967807e+05  -1.377482e+05
   2.040748e+05   1.809498e+05
  -3.816137e+05   2.563221e+05
  -6.831927e+05  -1.363735e+05
  -2.959113e+05  -7.411300e+05
   4.823121e+05  -9.504997e+05
   9.436655e+05  -4.057704e+05
   6.896605e+05   5.398945e+05
  -1.605254e+03   1.077392e+06
  -5.230395e+05   7.310956e+05
  -5.418074e+05  -1.453151e+05
  -1.994788e+05  -7.283935e+05
   1.637506e+05  -5.743333e+05
   3.267947e+05  -2.848193e+04
   2.682027e+05   2.549218e+05
   1.086596e+05   9.813180e+04
   2.989276e+04  -6.248049e+04
   1.230084e+05   1.722109e+05
   2.343769e+05   5.957192e+05
   7.007098e+04   6.605771e+05
  -4.220056e+05   1.995413e+05
  -8.479458e+05  -3.694808e+05
  -7.249685e+05  -5.794597e+05
  -6.671912e+04  -4.186168e+05
   5.493813e+05  -1.865422e+05
   6.002857e+05  -5.104888e+04
   1.952027e+05   4.110186e+04
  -1.089320e+05   1.232795e+05
  -1.820699e+04   1.339516e+05
   1.683216e+05   8.462364e+04
   1.411999e+04   7.676715e+04
  -4.242155e+05   8.456039e+04
  -6.118173e+05  -7.601670e+04
  -1.813380e+05  -4.254267e+05
   5.891154e+05  -6.267224e+05
   1.034127e+06  -3.261363e+05
   7.760548e+05   3.522644e+05
   6.291558e+04   8.484399e+05
  -5.310643e+05   7.540268e+05
  -6.457222e+05   2.366185e+05
  -3.705671e+05  -1.866251e+05
  -4.942616e+04  -2.142467e+05
   5.906440e+04  -1.950989e+04
  -4.426914e+04   1.910505e+04
  -1.644322e+05  -2.294194e+05
  -1.064242e+05  -4.918300e+05
   1.478760e+05  -3.867358e+05
   3.963113e+05   1.236065e+05
   3.662079e+05   6.172622e+05
  -1.532202e+04   6.121581e+05
  -4.692754e+05   8.035373e+04
  -5.573699e+05  -5.064769e+05
  -1.245936e+05  -6.617792e+05
   4.636274e+05  -3.398234e+05
   6.433842e+05   1.174557e+05
   2.666303e+05   3.774478e+05
  -2.046392e+05   3.639022e+05
  -2.279424e+05   1.938062e+05
   1.607957e+05   3.330233e+04
   3.876025e+05   2.224379e+04
   6.080953e+04   1.865060e+05
  -5.304719e+05   3.511050e+05
  -7.659380e+05   2.545882e+05
  -4.254194e+05  -1.378046e+05
   1.121077e+05  -5.013735e+05
   3.650542e+05  -4.662019e+05
   2.428847e+05  -5.907856e+04
  -9.045536e+03   2.910211e+05
  -1.700804e+05   2.314777e+05
  -1.961031e+05  -1.238406e+05
  -1.108534e+05  -3.564756e+05
   5.949454e+04  -2.351062e+05
   2.267230e+05   5.668239e+04
   2.606376e+05   1.850376e+05
   1.383956e+05   6.416190e+04
  -6.504172e+03  -7.808856e+04
  -5.019012e+04  -8.202448e+03
  -3.569315e+04   2.149160e+05
  -8.864347e+04   3.017356e+05
  -2.067294e+05   8.202697e+04
  -2.254076e+05  -2.661261e+05
  -2.661032e+04  -3.896220e+05
   2.661246e+05  -1.512244e+05
   3.626261e+05   2.138507e+05
   1.053682e+05   3.573187e+05
  -3.171407e+05   1.818842e+05
  -5.062493e+05  -1.039882e+05
  -2.552468e+05  -2.522028e+05
   1.965406e+05  -2.086074e+05
   3.867550e+05  -8.344340e+04
   1.391647e+05   6.368231e+03
  -2.219889e+05   7.128397e+03
  -2.412723e+05  -7.882898e+04
   1.304010e+05  -1.693628e+05
   4.757256e+05  -1.104741e+05
