
 $NMID
 id='ANONYMOUS ', fmtdat='(2E16.6)'
 volume=1.0
 tramp=1.0
 $END
   3.089635e+07   2.066827e+06
   1.901134e+07   1.687684e+07
  -2.314689e+06   1.971700e+07
  -1.440882e+07   1.092270e+07
  -1.061661e+07  -5.009901e+05
   1.825787e+05  -5.407132e+06
   6.098596e+06  -1.667630e+06
   3.694311e+06   5.209253e+06
  -2.276028e+06   7.605493e+06
  -5.822762e+06   2.876629e+06
  -4.557838e+06  -4.150642e+06
  -2.764876e+05  -6.165337e+06
   2.920946e+06  -1.250478e+06
   1.966212e+06   4.976838e+06
  -2.154147e+06   5.631388e+06
  -5.005068e+06   1.008832e+04
  -3.198530e+06  -6.198531e+06
   2.001628e+06  -7.372907e+06
   6.097441e+06  -3.237379e+06
   5.958249e+06   2.048103e+06
   2.534229e+06   4.539814e+06
  -5.602035e+05   3.734348e+06
  -6.566859e+05   2.098970e+06
   1.437941e+06   2.147519e+06
   2.202917e+06   3.825422e+06
  -8.202712e+05   4.646360e+06
  -5.754089e+06   2.606395e+06
  -7.738875e+06  -1.273750e+06
  -4.278139e+06  -3.866454e+06
   1.517265e+06  -3.252327e+06
   4.117674e+06  -4.704036e+05
   1.621990e+06   1.886494e+06
  -2.570732e+06   1.983502e+06
  -4.036813e+06  -2.249753e+05
  -1.948937e+06  -3.078222e+06
   9.888543e+05  -4.070719e+06
   2.051410e+06  -1.946276e+06
   9.826301e+05   1.377717e+06
  -4.788583e+05   2.217934e+06
  -6.002897e+05  -4.721377e+05
   8.038630e+05  -3.228059e+06
   2.240708e+06  -2.174969e+06
   1.902124e+06   1.730531e+06
  -4.163678e+05   3.602182e+06
  -2.703484e+06   8.540816e+05
  -2.451025e+06  -3.474804e+06
   7.378928e+05  -4.515058e+06
   4.369284e+06  -1.218721e+06
   5.143853e+06   3.027548e+06
   2.055667e+06   4.521385e+06
  -2.456643e+06   2.627414e+06
  -4.582126e+06  -5.180016e+05
  -2.689834e+06  -2.340779e+06
   1.078098e+06  -1.762071e+06
   2.992144e+06   2.184714e+05
   1.591119e+06   1.498895e+06
  -9.769624e+05   8.972750e+05
  -1.636031e+06  -6.554532e+05
   7.698734e+04  -1.257859e+06
   1.718759e+06  -2.549505e+05
   1.007122e+06   1.159416e+06
  -1.508599e+06   1.422971e+06
  -3.096726e+06   9.361463e+04
  -1.776739e+06  -2.040889e+06
   1.700540e+06  -3.577352e+06
   4.629981e+06  -3.162792e+06
   4.867892e+06  -4.793367e+05
   2.644340e+06   2.960254e+06
   6.802800e+04   4.727705e+06
  -1.062879e+06   3.869076e+06
  -8.668838e+05   1.937663e+06
  -7.857236e+05   1.012257e+06
  -1.658552e+06   1.137300e+06
  -2.765174e+06   6.273007e+05
  -2.771115e+06  -1.245844e+06
  -1.236691e+06  -2.939961e+06
   9.414554e+05  -2.461976e+06
   2.271870e+06   1.287302e+05
   1.734810e+06   2.626677e+06
  -4.409971e+05   2.901122e+06
  -2.709877e+06   8.430070e+05
  -3.266583e+06  -1.779145e+06
  -1.708051e+06  -3.068637e+06
   4.589652e+05  -2.586088e+06
   1.432959e+06  -1.417020e+06
   1.170605e+06  -8.221883e+05
   1.256169e+06  -9.081273e+05
   2.605378e+06  -6.950767e+05
   3.952076e+06   6.027466e+05
   3.192341e+06   2.580238e+06
   1.848304e+04   3.931323e+06
  -3.365272e+06   3.564224e+06
  -4.330360e+06   1.498544e+06
  -2.398306e+06  -1.022640e+06
   3.915238e+05  -2.302777e+06
   1.553136e+06  -1.550651e+06
   4.759190e+05   2.387138e+05
  -1.258997e+06   1.109139e+06
  -1.713873e+06   2.322159e+05
  -5.799214e+05  -1.100509e+06
   7.166210e+05  -1.059170e+06
   7.099518e+05   3.420641e+05
  -5.691906e+05   1.134099e+06
  -1.745544e+06  -1.693926e+05
  -1.492411e+06  -2.615307e+06
   3.321865e+05  -3.747648e+06
   2.614323e+06  -2.248073e+06
   3.772438e+06   7.609785e+05
   2.892018e+06   2.947909e+06
   5.603567e+05   2.962622e+06
  -1.431083e+06   1.419748e+06
  -1.653736e+06   3.247104e+04
  -4.818162e+05  -6.822714e+04
   3.284596e+05   7.349101e+05
  -3.322418e+05   1.155289e+06
  -1.628630e+06   4.705854e+05
  -1.826021e+06  -7.162318e+05
  -4.401000e+05  -1.214456e+06
   1.097936e+06  -5.791973e+05
   1.032629e+06   4.568699e+05
  -7.219537e+05   7.867233e+05
  -2.393147e+06  -2.310975e+04
  -2.133506e+06  -1.402458e+06
   8.622328e+04  -2.250145e+06
   2.385106e+06  -1.780913e+06
   2.782564e+06  -2.318403e+05
   1.115912e+06   1.170210e+06
  -8.668808e+05   1.243351e+06
  -1.308654e+06   8.075397e+04
  -3.654413e+04  -9.377531e+05
   1.461665e+06  -6.115086e+05
   1.666689e+06   7.271863e+05
   4.623519e+05   1.606831e+06
  -9.429647e+05   1.116333e+06
  -1.280602e+06  -1.084959e+05
  -3.934931e+05  -6.920995e+05
   6.584063e+05  -5.900064e+04
   6.179507e+05   1.024813e+06
  -6.798517e+05   1.324000e+06
  -2.002627e+06   3.647671e+05
  -1.901679e+06  -1.152512e+06
  -2.834366e+05  -2.009462e+06
   1.398897e+06  -1.543793e+06
   1.665718e+06  -2.166262e+05
   5.413791e+05   8.249573e+05
  -6.300271e+05   8.128891e+05
  -7.351623e+05   3.642245e+04
   4.049208e+04  -5.529911e+05
   6.609841e+05  -3.901876e+05
   4.488447e+05   1.356065e+05
  -2.741613e+05   1.995024e+05
  -5.884883e+05  -4.500586e+05
   8.310926e+04  -1.120838e+06
   1.332782e+06  -8.696177e+05
   2.024240e+06   4.614034e+05
   1.343587e+06   1.956440e+06
  -3.213341e+05   2.418722e+06
  -1.681695e+06   1.478211e+06
  -1.820920e+06  -7.782154e+04
  -1.043066e+06  -1.070046e+06
  -3.538704e+05  -1.014174e+06
  -2.716868e+05  -4.533676e+05
  -3.839261e+05  -2.495128e+05
  -2.811206e+04  -6.123641e+05
   8.321409e+05  -8.962488e+05
   1.492815e+06  -3.797196e+05
   1.173001e+06   8.045639e+05
  -2.047407e+05   1.623677e+06
  -1.771824e+06   1.122834e+06
  -2.279042e+06  -5.363043e+05
  -1.142491e+06  -2.086712e+06
   9.241379e+05  -2.282859e+06
   2.425350e+06  -1.038468e+06
   2.385065e+06   5.631314e+05
   1.149974e+06   1.358466e+06
  -1.062162e+05   1.151322e+06
  -5.682479e+05   6.901599e+05
  -3.967740e+05   7.089160e+05
  -2.965349e+05   1.105705e+06
  -6.659044e+05   1.110419e+06
  -1.199316e+06   2.156846e+05
  -1.229766e+06  -1.144797e+06
  -4.410986e+05  -1.908531e+06
   7.054907e+05  -1.392272e+06
   1.289898e+06   2.282355e+04
   7.985180e+05   1.220269e+06
  -3.085938e+05   1.351137e+06
  -1.009621e+06   5.173930e+05
  -7.564881e+05  -4.718552e+05
  -8.544965e+03  -9.196524e+05
   3.444734e+05  -7.839654e+05
   1.382334e+04  -4.986350e+05
  -3.718052e+05  -4.003972e+05
  -1.443951e+04  -4.026094e+05
   1.069537e+06  -1.870897e+05
   1.918561e+06   3.733008e+05
   1.551975e+06   1.021046e+06
   3.542547e+04   1.315396e+06
  -1.460907e+06   1.012967e+06
  -1.766579e+06   2.939554e+05
  -8.558911e+05  -3.445837e+05
   2.097720e+05  -4.675523e+05
   4.605206e+05  -8.574634e+04
  -4.199244e+04   3.092953e+05
  -5.085681e+05   2.026689e+05
  -4.396021e+05  -3.643533e+05
  -8.265896e+04  -7.642121e+05
   5.307467e+04  -4.857085e+05
  -1.581736e+05   1.797893e+05
  -3.963912e+05   3.883372e+05
  -2.880534e+05  -2.303421e+05
   2.545102e+05  -1.016348e+06
   9.353886e+05  -9.879369e+05
   1.200037e+06  -2.219897e+04
   6.441194e+05   9.494454e+05
  -4.640844e+05   9.845974e+05
  -1.170769e+06   1.475713e+05
  -6.787346e+05  -6.461443e+05
   6.933069e+05  -6.386048e+05
   1.634096e+06   9.536178e+04
   1.137689e+06   8.732188e+05
  -3.992242e+05   1.074749e+06
  -1.553362e+06   5.935627e+05
  -1.340965e+06  -1.517339e+05
  -1.777929e+05  -5.512120e+05
   6.445483e+05  -3.013749e+05
   3.264053e+05   2.685500e+05
  -6.682410e+05   4.260610e+05
  -1.159420e+06  -2.368008e+05
  -4.901408e+05  -1.258561e+06
   8.127379e+05  -1.615590e+06
   1.592070e+06  -7.186573e+05
   1.209792e+06   8.724387e+05
   9.113048e+04   1.836944e+06
  -8.145486e+05   1.330086e+06
  -9.468413e+05  -1.451846e+05
  -4.571276e+05  -1.211425e+06
   1.653754e+05  -1.026663e+06
   5.388231e+05  -1.018099e+05
   5.267870e+05   4.240343e+05
   2.425261e+05   1.764776e+05
   2.114556e+04  -1.211283e+05
   1.441885e+05   2.491704e+05
   4.173047e+05   9.715674e+05
   2.402668e+05   1.116982e+06
  -6.210353e+05   3.828781e+05
  -1.478372e+06  -5.478217e+05
  -1.343613e+06  -9.109846e+05
  -1.625785e+05  -6.927060e+05
   9.654614e+05  -3.657044e+05
   1.033050e+06  -1.635463e+05
   2.905470e+05   2.021966e+04
  -1.909075e+05   2.095688e+05
   5.109108e+04   2.566757e+05
   3.647149e+05   1.693426e+05
   1.744981e+03   1.423649e+05
  -7.897922e+05   1.562110e+05
  -1.035989e+06  -1.047045e+05
  -2.408736e+05  -6.995619e+05
   1.011959e+06  -1.066709e+06
   1.678948e+06  -5.820445e+05
   1.260801e+06   5.738578e+05
   1.495593e+05   1.444508e+06
  -8.253097e+05   1.299561e+06
  -1.082224e+06   4.059948e+05
  -6.564819e+05  -3.306071e+05
  -6.802843e+04  -3.650326e+05
   1.609822e+05  -6.466990e+02
  -5.133941e+04   8.085053e+04
  -3.262561e+05  -3.577968e+05
  -2.384185e+05  -8.257258e+05
   2.415662e+05  -6.476930e+05
   6.931952e+05   2.307861e+05
   6.216132e+05   1.063659e+06
  -5.526342e+04   1.028311e+06
  -8.263230e+05   1.080796e+05
  -9.594890e+05  -8.723948e+05
  -2.185744e+05  -1.107879e+06
   7.717588e+05  -5.641281e+05
   1.069450e+06   1.722189e+05
   4.413430e+05   5.828114e+05
  -3.229994e+05   5.763631e+05
  -3.265993e+05   3.254489e+05
   3.309362e+05   5.860669e+04
   6.756151e+05   1.597940e+04
   9.860189e+04   3.013238e+05
  -8.704390e+05   6.398026e+05
  -1.225397e+06   5.262061e+05
  -6.701270e+05  -1.585478e+05
   1.586145e+05  -8.314263e+05
   5.339048e+05  -7.897681e+05
   3.525949e+05  -7.597913e+04
  -2.156595e+04   5.174086e+05
  -2.827743e+05   3.755357e+05
  -3.470339e+05  -2.442911e+05
  -2.055990e+05  -5.976315e+05
   9.942695e+04  -3.563633e+05
   3.850801e+05   1.026147e+05
   4.331048e+05   2.594047e+05
   2.367612e+05   6.562712e+04
   1.209955e+04  -9.358775e+04
  -8.074552e+04   7.221329e+04
  -1.151264e+05   4.012664e+05
  -2.311793e+05   4.638939e+05
  -3.787207e+05   6.167999e+04
  -3.341954e+05  -4.969832e+05
   1.747469e+04  -6.690855e+05
   4.670584e+05  -2.509826e+05
   5.969392e+05   3.725312e+05
   1.778997e+05   6.208720e+05
  -5.101484e+05   3.221002e+05
  -8.347054e+05  -1.667653e+05
  -4.328343e+05  -4.115238e+05
   3.199122e+05  -3.258462e+05
   6.342303e+05  -1.182951e+05
   1.938745e+05   9.085201e+03
  -4.316743e+05  -1.535025e+04
  -4.348395e+05  -1.739650e+05
   2.548525e+05  -3.290434e+05
   8.717669e+05  -2.181678e+05
