
 $NMID
 id='ANONYMOUS ', fmtdat='(2E16.6)'
 volume=1.0
 tramp=1.0
 $END
   4.656185e+07   1.623351e+05
   2.846631e+07   2.768419e+07
  -5.162973e+06   3.113052e+07
  -2.236554e+07   1.338377e+07
  -1.420234e+07  -4.437584e+06
   2.071836e+06  -7.828787e+06
   8.365808e+06   8.302039e+04
   3.156689e+06   7.974785e+06
  -4.612154e+06   8.645074e+06
  -8.124416e+06   2.377920e+06
  -6.099656e+06  -5.314072e+06
  -7.094934e+05  -7.610955e+06
   3.534862e+06  -2.220881e+06
   2.434570e+06   5.171107e+06
  -3.056729e+06   6.169977e+06
  -6.752083e+06  -7.561471e+05
  -4.047522e+06  -8.588168e+06
   2.967683e+06  -1.009677e+07
   8.477886e+06  -4.984191e+06
   8.966010e+06   1.907809e+06
   5.164703e+06   6.278820e+06
   3.204531e+05   6.791769e+06
  -2.026086e+06   4.591053e+06
  -6.340325e+05   2.452610e+06
   1.528141e+06   2.681191e+06
  -5.641105e+04   4.287727e+06
  -5.399273e+06   3.789994e+06
  -8.856812e+06  -6.950527e+03
  -6.028269e+06  -3.901911e+06
   3.210414e+05  -4.370182e+06
   3.794525e+06  -1.856053e+06
   2.161504e+06   6.292560e+05
  -1.265552e+06   1.326743e+06
  -2.867520e+06   2.862488e+05
  -2.114505e+06  -1.959905e+06
  -1.497192e+05  -3.928428e+06
   1.824809e+06  -3.152161e+06
   2.404643e+06   5.287471e+05
   9.525615e+05   3.081262e+06
  -6.989706e+05   1.060863e+06
   2.022328e+04  -2.702807e+06
   2.312720e+06  -2.261866e+06
   2.252622e+06   2.601711e+06
  -1.615686e+06   5.169907e+06
  -5.336219e+06   1.005971e+06
  -4.174250e+06  -5.558956e+06
   1.379903e+06  -7.006894e+06
   6.216824e+06  -2.042139e+06
   6.269802e+06   3.798214e+06
   1.970631e+06   5.385499e+06
  -3.030707e+06   2.686971e+06
  -4.963122e+06  -1.078950e+06
  -2.523978e+06  -2.998377e+06
   1.886593e+06  -2.036058e+06
   3.931111e+06   6.120688e+05
   1.822275e+06   2.229066e+06
  -1.419753e+06   1.202968e+06
  -1.691904e+06  -8.593679e+05
   8.481618e+05  -1.036611e+06
   2.183856e+06   9.883741e+05
  -1.201854e+03   2.580767e+06
  -3.433582e+06   1.747631e+06
  -4.453154e+06  -7.642486e+05
  -2.135085e+06  -3.205674e+06
   1.679152e+06  -4.620098e+06
   4.749949e+06  -4.252880e+06
   5.626637e+06  -1.353803e+06
   3.878775e+06   2.996010e+06
   6.979424e+05   5.573322e+06
  -1.492987e+06   4.407980e+06
  -1.397290e+06   1.476011e+06
  -3.728789e+05   2.075245e+05
  -5.534926e+05   1.041171e+06
  -1.982566e+06   1.393885e+06
  -2.779702e+06  -2.476040e+05
  -1.765281e+06  -2.247317e+06
   2.839164e+05  -2.246973e+06
   1.796078e+06  -1.153859e+05
   1.719545e+06   2.226732e+06
  -1.113665e+05   2.898112e+06
  -2.700402e+06   1.389532e+06
  -4.016750e+06  -1.330682e+06
  -2.696227e+06  -3.436145e+06
   1.383553e+05  -3.599183e+06
   1.920757e+06  -2.249863e+06
   1.814572e+06  -1.036048e+06
   1.595788e+06  -7.780350e+05
   2.784213e+06  -5.924358e+05
   4.175430e+06   6.365651e+05
   3.387189e+06   2.625857e+06
   1.474194e+05   4.019984e+06
  -3.180416e+06   3.795074e+06
  -4.167469e+06   1.944036e+06
  -2.554603e+06  -5.946003e+05
  -7.082186e+04  -2.243022e+06
   1.227841e+06  -1.802365e+06
   5.315386e+05   1.013070e+05
  -1.123881e+06   1.246761e+06
  -1.821913e+06   3.616082e+05
  -8.105089e+05  -1.150570e+06
   5.706930e+05  -1.095940e+06
   5.307154e+05   3.630177e+05
  -8.712505e+05   8.572913e+05
  -1.813076e+06  -8.598590e+05
  -9.778872e+05  -3.136722e+06
   1.089127e+06  -3.511705e+06
   2.905776e+06  -1.538175e+06
   3.455388e+06   1.145732e+06
   2.508521e+06   2.767495e+06
   5.246564e+05   2.704740e+06
  -1.277680e+06   1.455380e+06
  -1.590894e+06   1.797709e+05
  -4.860716e+05  -4.721960e+04
   3.557626e+05   7.374926e+05
  -3.673332e+05   1.274624e+06
  -1.794415e+06   5.607184e+05
  -1.961104e+06  -8.004520e+05
  -4.175538e+05  -1.335840e+06
   1.134344e+06  -5.857871e+05
   9.399300e+05   4.417543e+05
  -7.916047e+05   6.184010e+05
  -2.240740e+06  -1.879211e+05
  -1.882213e+06  -1.338809e+06
   1.657458e+05  -2.054696e+06
   2.298394e+06  -1.715527e+06
   2.756407e+06  -2.915085e+05
   1.190214e+06   1.212317e+06
  -8.802098e+05   1.417354e+06
  -1.465475e+06   1.687972e+05
  -1.569605e+05  -1.026181e+06
   1.482274e+06  -7.093852e+05
   1.700931e+06   7.394183e+05
   3.958144e+05   1.623946e+06
  -1.025177e+06   1.029552e+06
  -1.261328e+06  -2.289966e+05
  -3.017590e+05  -7.455640e+05
   7.470821e+05  -6.594434e+04
   7.078827e+05   1.029859e+06
  -5.889710e+05   1.392245e+06
  -1.989534e+06   5.070444e+05
  -1.994497e+06  -1.053651e+06
  -3.734489e+05  -2.038358e+06
   1.400326e+06  -1.618251e+06
   1.694925e+06  -2.300014e+05
   5.216251e+05   8.450333e+05
  -6.375512e+05   8.102975e+05
  -6.639245e+05   7.056641e+04
   8.618795e+04  -4.238180e+05
   5.407228e+05  -2.750941e+05
   2.309284e+05   8.395561e+04
  -3.866013e+05   1.873690e+04
  -5.439883e+05  -5.878978e+05
   1.509463e+05  -1.159508e+06
   1.347148e+06  -8.979835e+05
   2.056293e+06   4.022522e+05
   1.440758e+06   1.919672e+06
  -2.206423e+05   2.409548e+06
  -1.610553e+06   1.445020e+06
  -1.723449e+06  -8.930675e+04
  -9.237664e+05  -9.366324e+05
  -3.364804e+05  -7.620365e+05
  -4.109334e+05  -2.895451e+05
  -5.472278e+05  -2.838866e+05
  -7.835650e+04  -7.085344e+05
   8.451716e+05  -9.034815e+05
   1.448627e+06  -3.583550e+05
   1.091759e+06   7.303743e+05
  -2.151459e+05   1.505994e+06
  -1.713930e+06   1.103238e+06
  -2.250540e+06  -4.703802e+05
  -1.154996e+06  -2.069982e+06
   9.484774e+05  -2.336954e+06
   2.477762e+06  -1.057104e+06
   2.355569e+06   5.968475e+05
   1.028795e+06   1.325314e+06
  -1.604168e+05   1.008597e+06
  -4.377696e+05   5.709665e+05
  -1.720495e+05   7.371272e+05
  -1.507414e+05   1.236472e+06
  -6.506395e+05   1.231428e+06
  -1.252435e+06   2.987033e+05
  -1.308712e+06  -1.079128e+06
  -5.395476e+05  -1.882027e+06
   6.280059e+05  -1.422618e+06
   1.279946e+06  -6.677844e+03
   8.183345e+05   1.246093e+06
  -3.455099e+05   1.377805e+06
  -1.101380e+06   4.522423e+05
  -7.960434e+05  -6.113176e+05
   6.801328e+04  -1.020015e+06
   4.623792e+05  -7.837557e+05
   5.657807e+04  -4.407782e+05
  -4.153135e+05  -3.490916e+05
  -4.989189e+04  -3.862934e+05
   1.113853e+06  -2.149782e+05
   2.008815e+06   3.187597e+05
   1.599512e+06   1.006280e+06
   2.642917e+03   1.388939e+06
  -1.526028e+06   1.112304e+06
  -1.797110e+06   3.027475e+05
  -8.412644e+05  -4.340511e+05
   2.368090e+05  -5.364731e+05
   4.917595e+05  -5.587637e+04
   1.226081e+04   3.829957e+05
  -4.577079e+05   2.448219e+05
  -4.697567e+05  -3.411215e+05
  -2.080825e+05  -7.287484e+05
  -5.532634e+04  -4.777194e+05
  -1.412703e+05   1.220345e+05
  -3.095369e+05   3.242701e+05
  -2.804811e+05  -2.263354e+05
   1.625215e+05  -9.915065e+05
   8.916556e+05  -1.047404e+06
   1.302928e+06  -1.445182e+05
   7.957338e+05   9.096210e+05
  -4.136850e+05   1.091341e+06
  -1.220549e+06   2.938010e+05
  -7.202871e+05  -5.826175e+05
   6.878363e+05  -6.498233e+05
   1.593623e+06   7.691626e+04
   1.048662e+06   8.492759e+05
  -4.448426e+05   1.013597e+06
  -1.500315e+06   5.265303e+05
  -1.259502e+06  -1.642627e+05
  -1.519464e+05  -5.204228e+05
   6.415551e+05  -2.843150e+05
   3.691791e+05   2.810116e+05
  -5.993954e+05   4.999250e+05
  -1.171977e+06  -1.094381e+05
  -6.326984e+05  -1.188789e+06
   6.270167e+05  -1.678399e+06
   1.495519e+06  -8.546574e+05
   1.247044e+06   7.696563e+05
   1.932820e+05   1.793211e+06
  -7.416119e+05   1.306562e+06
  -9.286227e+05  -1.569465e+05
  -4.493839e+05  -1.186696e+06
   1.938233e+05  -9.819191e+05
   5.526365e+05  -9.444293e+04
   4.837469e+05   3.824374e+05
   1.844330e+05   1.447949e+05
   4.049352e+04  -1.018502e+05
   2.477609e+05   2.797196e+05
   4.949376e+05   9.581188e+05
   2.138786e+05   1.081259e+06
  -6.842500e+05   3.976589e+05
  -1.474596e+06  -4.674098e+05
  -1.299091e+06  -8.373865e+05
  -1.862369e+05  -6.921739e+05
   8.718120e+05  -4.143020e+05
   9.896413e+05  -1.876419e+05
   3.433790e+05   4.155181e+04
  -1.530934e+05   2.226967e+05
  -1.353000e+04   2.161225e+05
   2.875891e+05   1.076911e+05
   4.118927e+04   1.342387e+05
  -6.849521e+05   2.253145e+05
  -1.040867e+06  -1.995303e+04
  -3.974589e+05  -6.869195e+05
   8.620996e+05  -1.159581e+06
   1.681037e+06  -7.356296e+05
   1.379644e+06   4.441975e+05
   2.638889e+05   1.406243e+06
  -7.611570e+05   1.363641e+06
  -1.046806e+06   5.211934e+05
  -6.562415e+05  -2.439698e+05
  -1.242015e+05  -3.571684e+05
   8.770434e+04  -5.413393e+04
  -7.456584e+04   3.027323e+04
  -3.084810e+05  -3.611952e+05
  -2.533757e+05  -8.063294e+05
   1.833209e+05  -6.730481e+05
   6.828780e+05   1.336189e+05
   7.255709e+05   9.611598e+05
   9.550699e+04   1.026537e+06
  -7.612515e+05   2.304520e+05
  -1.026335e+06  -7.337311e+05
  -3.364546e+05  -1.085456e+06
   7.136905e+05  -6.633436e+05
   1.107156e+06   7.917925e+04
   5.206481e+05   5.994343e+05
  -2.850144e+05   6.613227e+05
  -3.649365e+05   3.633549e+05
   2.611135e+05   1.476087e+04
   6.514724e+05  -3.684581e+04
   1.412406e+05   3.043347e+05
  -8.232881e+05   6.787504e+05
  -1.243704e+06   5.491392e+05
  -7.459978e+05  -1.658078e+05
   9.730177e+04  -8.612228e+05
   5.383444e+05  -8.480223e+05
   4.105663e+05  -1.515652e+05
   4.647983e+04   4.833673e+05
  -2.408661e+05   4.268990e+05
  -3.518839e+05  -1.584617e+05
  -2.518095e+05  -5.760120e+05
   5.545353e+04  -4.152370e+05
   3.893794e+05   4.941520e+04
   4.703286e+05   2.713310e+05
   2.417607e+05   8.867780e+04
  -2.846643e+04  -1.404528e+05
  -8.243861e+04  -2.416735e+04
  -3.954452e+03   3.598509e+05
  -7.193086e+04   5.358245e+05
  -3.249606e+05   1.972819e+05
  -4.421489e+05  -3.911502e+05
  -1.369968e+05  -6.474104e+05
   4.123992e+05  -3.086090e+05
   6.554650e+05   2.851742e+05
   2.482191e+05   5.760061e+05
  -5.023501e+05   3.635463e+05
  -8.738258e+05  -7.901533e+04
  -4.750345e+05  -3.762610e+05
   2.923910e+05  -3.915072e+05
   6.340830e+05  -2.185081e+05
   2.414239e+05  -1.699311e+04
  -3.566645e+05   6.016625e+04
  -4.110509e+05  -7.460793e+04
   1.765761e+05  -2.976072e+05
   7.561226e+05  -2.714671e+05
