
 $NMID
 id='ANONYMOUS ', fmtdat='(2E16.6)'
 volume=1.0
 tramp=1.0
 $END
  -2.429255e+07   1.309681e+06
  -1.687046e+07  -1.108167e+07
  -4.836760e+05  -1.571220e+07
   1.034521e+07  -1.041266e+07
   8.814428e+06  -9.261170e+05
   5.439074e+05   4.429612e+06
  -4.900045e+06   2.128065e+06
  -3.684212e+06  -3.882899e+06
   1.097336e+06  -6.576864e+06
   4.486298e+06  -3.002236e+06
   4.012693e+06   2.946512e+06
   6.930280e+05   4.960818e+06
  -2.238239e+06   1.179259e+06
  -1.950313e+06  -3.986085e+06
   1.292329e+06  -4.867084e+06
   4.061992e+06  -5.475180e+05
   3.177157e+06   4.659508e+06
  -8.775037e+05   6.082437e+06
  -4.502229e+06   3.106537e+06
  -4.798497e+06  -1.105638e+06
  -2.284564e+06  -3.258372e+06
   8.769813e+04  -2.792122e+06
   1.005552e+05  -1.643620e+06
  -1.569977e+06  -1.798242e+06
  -2.092428e+06  -3.192926e+06
   4.600327e+05  -3.919104e+06
   4.579890e+06  -2.437395e+06
   6.359772e+06   5.801485e+05
   3.670181e+06   2.822345e+06
  -1.095031e+06   2.638897e+06
  -3.357221e+06   5.179489e+05
  -1.350730e+06  -1.555319e+06
   2.184705e+06  -1.809339e+06
   3.462804e+06   4.170142e+04
   1.735219e+06   2.530176e+06
  -6.761277e+05   3.391892e+06
  -1.517589e+06   1.621883e+06
  -7.110134e+05  -1.074118e+06
   3.319389e+05  -1.704775e+06
   4.185046e+05   4.943763e+05
  -5.612616e+05   2.747386e+06
  -1.705129e+06   1.965494e+06
  -1.730235e+06  -1.209374e+06
  -1.235702e+05  -2.972957e+06
   1.935485e+06  -1.069830e+06
   2.269560e+06   2.413352e+06
  -6.411176e+04   3.629323e+06
  -3.328068e+06   1.371948e+06
  -4.452193e+06  -2.018506e+06
  -2.097003e+06  -3.555560e+06
   1.815120e+06  -2.396089e+06
   3.865449e+06   4.001579e+04
   2.460170e+06   1.721662e+06
  -6.951484e+05   1.574737e+06
  -2.455019e+06   1.192274e+05
  -1.453006e+06  -1.064098e+06
   6.984630e+05  -8.190855e+05
   1.419221e+06   4.167084e+05
   7.412044e+04   1.133950e+06
  -1.463058e+06   4.788305e+05
  -1.115011e+06  -8.396111e+05
   9.547442e+05  -1.397934e+06
   2.505460e+06  -4.678837e+05
   1.668802e+06   1.442352e+06
  -1.098715e+06   2.995244e+06
  -3.552365e+06   2.856807e+06
  -3.890708e+06   7.030057e+05
  -2.290940e+06  -2.197435e+06
  -3.761077e+05  -3.813309e+06
   5.458607e+05  -3.275507e+06
   5.703994e+05  -1.750602e+06
   6.755623e+05  -9.423419e+05
   1.413123e+06  -9.975914e+05
   2.286706e+06  -5.916055e+05
   2.332466e+06   9.425772e+05
   1.136952e+06   2.402891e+06
  -6.989128e+05   2.098916e+06
  -1.939857e+06  -9.400093e+03
  -1.603966e+06  -2.118122e+06
   2.036957e+05  -2.432192e+06
   2.169795e+06  -8.354408e+05
   2.744239e+06   1.253010e+06
   1.563447e+06   2.338157e+06
  -1.667714e+05   2.066192e+06
  -9.904274e+05   1.231322e+06
  -8.388690e+05   7.892878e+05
  -9.593584e+05   8.812958e+05
  -2.115455e+06   7.848546e+05
  -3.320044e+06  -2.081235e+05
  -2.826372e+06  -1.913331e+06
  -2.815464e+05  -3.263076e+06
   2.562988e+06  -3.173371e+06
   3.495807e+06  -1.494448e+06
   2.028661e+06   7.217623e+05
  -2.180399e+05   1.924985e+06
  -1.207659e+06   1.352840e+06
  -4.012969e+05  -1.801701e+05
   9.809366e+05  -9.924274e+05
   1.400001e+06  -3.050405e+05
   5.407182e+05   8.618750e+05
  -5.430504e+05   9.213042e+05
  -6.401538e+05  -2.502299e+05
   3.884027e+05  -1.039060e+06
   1.515406e+06  -5.392339e+04
   1.514954e+06   2.065489e+06
   3.736906e+04   3.228509e+06
  -2.048693e+06   2.147204e+06
  -3.256972e+06  -3.597489e+05
  -2.639900e+06  -2.305871e+06
  -6.574091e+05  -2.461647e+06
   1.108203e+06  -1.268245e+06
   1.373423e+06  -1.203930e+05
   4.041507e+05   2.648174e+04
  -3.237144e+05  -5.901570e+05
   1.861052e+05  -9.811746e+05
   1.307719e+06  -5.091853e+05
   1.570013e+06   4.573037e+05
   4.617180e+05   9.788299e+05
  -8.772706e+05   5.649129e+05
  -9.072021e+05  -3.192665e+05
   5.508026e+05  -7.326752e+05
   2.026985e+06  -1.556851e+05
   1.900468e+06   1.046173e+06
   7.877113e+04   1.910452e+06
  -1.881581e+06   1.652749e+06
  -2.305921e+06   3.768182e+05
  -1.007221e+06  -8.928852e+05
   6.267601e+05  -1.082618e+06
   1.067493e+06  -1.583236e+05
   8.943792e+04   7.661832e+05
  -1.171443e+06   6.045785e+05
  -1.441009e+06  -4.899373e+05
  -5.038343e+05  -1.315369e+06
   7.115987e+05  -1.012712e+06
   1.090558e+06  -6.349125e+03
   3.900758e+05   5.564816e+05
  -5.390328e+05   1.047904e+05
  -5.829341e+05  -8.046547e+05
   4.764452e+05  -1.141390e+06
   1.636996e+06  -4.312573e+05
   1.652072e+06   8.324698e+05
   3.690228e+05   1.649291e+06
  -1.056924e+06   1.378228e+06
  -1.372929e+06   2.942533e+05
  -5.114736e+05  -6.544839e+05
   4.722088e+05  -7.251043e+05
   6.192885e+05  -7.153740e+04
   1.778208e+03   4.842049e+05
  -5.454369e+05   3.778611e+05
  -4.046613e+05  -1.017030e+05
   2.140745e+05  -2.133225e+05
   5.362815e+05   3.213683e+05
   1.991143e+04   9.406152e+05
  -1.046469e+06   8.170351e+05
  -1.713654e+06  -2.466889e+05
  -1.245167e+06  -1.535343e+06
   1.118313e+05  -2.034239e+06
   1.311955e+06  -1.347688e+06
   1.535578e+06  -5.383811e+04
   9.445122e+05   8.440921e+05
   3.459819e+05   8.485386e+05
   2.304076e+05   3.644599e+05
   3.234182e+05   1.636518e+05
   6.885182e+04   4.928255e+05
  -6.278941e+05   8.043629e+05
  -1.222187e+06   4.205549e+05
  -1.035907e+06  -6.005658e+05
   6.434815e+04  -1.380017e+06
   1.405574e+06  -1.058406e+06
   1.936693e+06   2.966474e+05
   1.097279e+06   1.663079e+06
  -6.053696e+05   1.967443e+06
  -1.946228e+06   1.038213e+06
  -2.036464e+06  -3.040067e+05
  -1.064072e+06  -1.068129e+06
   1.465384e+04  -9.877701e+05
   4.491851e+05  -6.173693e+05
   3.028828e+05  -5.984540e+05
   1.758206e+05  -9.184769e+05
   4.712053e+05  -9.594709e+05
   9.743797e+05  -2.590022e+05
   1.093002e+06   8.709211e+05
   4.887081e+05   1.558021e+06
  -4.982109e+05   1.202563e+06
  -1.078058e+06   6.691384e+04
  -7.522048e+05  -9.592180e+05
   1.577128e+05  -1.150088e+06
   8.030438e+05  -5.168347e+05
   6.719989e+05   3.231958e+05
   8.768765e+04   7.631051e+05
  -2.205686e+05   6.888662e+05
   2.232753e+04   4.271991e+05
   3.285602e+05   3.094208e+05
   3.494275e+04   3.327694e+05
  -8.717936e+05   2.314165e+05
  -1.612711e+06  -1.752235e+05
  -1.360865e+06  -7.414794e+05
  -1.316687e+05  -1.091492e+06
   1.133875e+06  -9.431803e+05
   1.451235e+06  -3.698237e+05
   7.482752e+05   2.203281e+05
  -1.336793e+05   3.997835e+05
  -3.773842e+05   1.095020e+05
   1.339574e+04  -2.474955e+05
   4.119524e+05  -1.943184e+05
   3.861681e+05   2.736458e+05
   1.050147e+05   6.244929e+05
  -2.311185e+04   4.005410e+05
   1.256799e+05  -1.654455e+05
   3.178103e+05  -3.518456e+05
   2.569824e+05   1.713059e+05
  -1.522828e+05   8.595249e+05
  -7.099102e+05   8.804046e+05
  -9.779535e+05   9.956060e+04
  -5.844870e+05  -7.379776e+05
   3.143474e+05  -8.384379e+05
   9.484483e+05  -1.934265e+05
   6.011341e+05   4.952447e+05
  -5.339560e+05   5.791875e+05
  -1.372953e+06   2.816155e+04
  -1.017425e+06  -6.598423e+05
   2.588737e+05  -9.348454e+05
   1.266641e+06  -6.059436e+05
   1.139776e+06   3.891564e+04
   1.868985e+05   4.534127e+05
  -5.193504e+05   2.983535e+05
  -2.883740e+05  -1.964778e+05
   5.289253e+05  -3.888126e+05
   9.722251e+05   1.291849e+05
   4.755371e+05   1.011569e+06
  -5.806925e+05   1.382075e+06
  -1.277525e+06   6.871024e+05
  -1.057143e+06  -6.522207e+05
  -1.885849e+05  -1.522637e+06
   5.974206e+05  -1.162923e+06
   8.035237e+05   5.549332e+04
   4.649255e+05   9.827997e+05
  -6.704658e+04   8.764655e+05
  -4.418902e+05   1.251891e+05
  -4.706654e+05  -3.254847e+05
  -2.186392e+05  -1.392193e+05
  -9.129684e+03   1.064233e+05
  -1.294923e+05  -1.853300e+05
  -4.065638e+05  -7.768731e+05
  -2.778920e+05  -9.225570e+05
   4.838771e+05  -3.671099e+05
   1.265627e+06   3.637428e+05
   1.183304e+06   6.790825e+05
   1.813834e+05   5.646434e+05
  -7.862305e+05   3.585682e+05
  -8.535501e+05   2.019664e+05
  -2.400424e+05   1.053589e+04
   1.480519e+05  -1.833516e+05
  -6.361640e+04  -2.207402e+05
  -3.193174e+05  -1.292529e+05
  -6.882624e+03  -1.158987e+05
   6.534296e+05  -1.686853e+05
   8.642451e+05   2.374335e+04
   2.318123e+05   5.544728e+05
  -7.786182e+05   9.375016e+05
  -1.347163e+06   5.863635e+05
  -1.067779e+06  -3.946020e+05
  -2.095630e+05  -1.189236e+06
   5.993214e+05  -1.129709e+06
   8.683647e+05  -3.990024e+05
   5.635191e+05   2.393086e+05
   7.585535e+04   2.957461e+05
  -1.373477e+05  -5.405924e+02
   3.921635e+04  -7.872299e+04
   2.997674e+05   2.771211e+05
   2.535941e+05   6.737870e+05
  -1.605834e+05   5.500570e+05
  -5.875784e+05  -1.557159e+05
  -5.727911e+05  -8.467711e+05
  -8.802821e+03  -8.491789e+05
   6.785508e+05  -1.284759e+05
   8.419451e+05   6.707351e+05
   2.447156e+05   9.014369e+05
  -6.022441e+05   5.086169e+05
  -8.922715e+05  -7.578704e+04
  -4.022390e+05  -4.466058e+05
   2.255565e+05  -4.911786e+05
   2.423408e+05  -2.942943e+05
  -2.837434e+05  -3.727255e+04
  -5.628135e+05   2.585794e+04
  -9.889582e+04  -2.403583e+05
   6.838435e+05  -5.862864e+05
   9.824929e+05  -5.239005e+05
   5.629324e+05   7.804992e+04
  -7.860728e+04   6.964426e+05
  -3.849707e+05   6.906143e+05
  -2.757342e+05   8.504178e+04
  -7.433163e+03  -4.309075e+05
   2.097088e+05  -3.237216e+05
   2.982734e+05   1.887079e+05
   2.062714e+05   4.827489e+05
  -5.758920e+04   2.939949e+05
  -3.233880e+05  -6.431089e+04
  -3.767530e+05  -1.817910e+05
  -2.037516e+05  -3.536446e+04
  -3.639620e+03   7.018813e+04
   7.104035e+04  -7.658684e+04
   8.411526e+04  -3.374486e+05
   1.715781e+05  -3.809987e+05
   3.054042e+05  -5.806335e+04
   2.921202e+05   3.934034e+05
   1.312926e+04   5.480430e+05
  -3.731084e+05   2.307677e+05
  -5.099171e+05  -2.735436e+05
  -1.800774e+05  -5.043607e+05
   4.004604e+05  -2.992693e+05
   6.962600e+05   8.700961e+04
   3.822713e+05   3.134575e+05
  -2.414923e+05   2.847153e+05
  -5.122834e+05   1.319049e+05
  -1.548686e+05   7.248302e+03
   3.630072e+05  -2.165322e+03
   3.688138e+05   1.281555e+05
  -2.014036e+05   2.888941e+05
  -7.205864e+05   2.264616e+05
