
 $NMID
 id='ANONYMOUS ', fmtdat='(2E16.6)'
 volume=1.0
 tramp=1.0
 $END
   3.791896e+07   2.907282e+05
   2.363067e+07   2.175365e+07
  -3.446687e+06   2.516845e+07
  -1.802376e+07   1.189052e+07
  -1.213649e+07  -2.660939e+06
   1.204779e+06  -6.529644e+06
   7.085927e+06  -6.016130e+05
   3.223001e+06   6.506243e+06
  -3.467211e+06   7.785916e+06
  -6.802556e+06   2.464127e+06
  -5.187583e+06  -4.507736e+06
  -5.492678e+05  -6.583113e+06
   3.055326e+06  -1.748444e+06
   2.109671e+06   4.747322e+06
  -2.526135e+06   5.599994e+06
  -5.717965e+06  -3.827584e+05
  -3.557012e+06  -7.151940e+06
   2.342965e+06  -8.498527e+06
   7.017950e+06  -4.115436e+06
   7.305590e+06   1.729014e+06
   3.956560e+06   5.160248e+06
   9.528228e+04   5.238672e+06
  -1.329167e+06   3.461269e+06
   1.371372e+05   2.252799e+06
   1.617039e+06   2.922304e+06
  -3.341066e+05   4.096947e+06
  -5.121522e+06   3.107119e+06
  -7.829442e+06  -4.164830e+05
  -5.012119e+06  -3.574485e+06
   6.835491e+05  -3.647922e+06
   3.609005e+06  -1.233933e+06
   1.784713e+06   1.009002e+06
  -1.660189e+06   1.418486e+06
  -3.062761e+06   4.372641e+04
  -1.868954e+06  -2.212385e+06
   2.688792e+05  -3.669790e+06
   1.740821e+06  -2.507212e+06
   1.715093e+06   7.420007e+05
   4.171934e+05   2.524289e+06
  -5.634898e+05   4.596081e+05
   3.129617e+05  -2.675469e+06
   2.130409e+06  -2.079467e+06
   2.007248e+06   2.115020e+06
  -1.039064e+06   4.321103e+06
  -4.058728e+06   9.764839e+05
  -3.366703e+06  -4.403296e+06
   9.786538e+05  -5.693382e+06
   5.128910e+06  -1.681061e+06
   5.482623e+06   3.239661e+06
   1.894064e+06   4.728144e+06
  -2.629531e+06   2.503270e+06
  -4.517098e+06  -8.037928e+05
  -2.430104e+06  -2.578490e+06
   1.475381e+06  -1.831547e+06
   3.356081e+06   4.064569e+05
   1.641545e+06   1.821971e+06
  -1.163374e+06   1.031150e+06
  -1.565208e+06  -7.322907e+05
   5.345567e+05  -1.072223e+06
   1.920971e+06   4.766792e+05
   3.977840e+05   1.952630e+06
  -2.524282e+06   1.584911e+06
  -3.712076e+06  -3.702691e+05
  -1.905552e+06  -2.573970e+06
   1.539201e+06  -3.942546e+06
   4.351134e+06  -3.585800e+06
   4.952296e+06  -9.804897e+05
   3.186048e+06   2.740479e+06
   4.557949e+05   4.881551e+06
  -1.229398e+06   3.936670e+06
  -1.137135e+06   1.552308e+06
  -5.186060e+05   4.558171e+05
  -9.025887e+05   9.643219e+05
  -2.094414e+06   1.005394e+06
  -2.554489e+06  -5.793950e+05
  -1.436057e+06  -2.320631e+06
   5.046030e+05  -2.147783e+06
   1.833723e+06  -3.303857e+03
   1.592997e+06   2.219896e+06
  -2.224394e+05   2.693121e+06
  -2.504589e+06   1.102722e+06
  -3.467882e+06  -1.374368e+06
  -2.180136e+06  -3.043721e+06
   2.077747e+05  -2.992000e+06
   1.593138e+06  -1.823634e+06
   1.460542e+06  -9.129189e+05
   1.374947e+06  -7.817563e+05
   2.538587e+06  -5.928917e+05
   3.817063e+06   5.767225e+05
   3.090480e+06   2.428780e+06
   9.248391e+04   3.714275e+06
  -3.025246e+06   3.450182e+06
  -3.929351e+06   1.648317e+06
  -2.312769e+06  -7.011067e+05
   9.926911e+04  -2.096946e+06
   1.252310e+06  -1.580203e+06
   4.722875e+05   1.421131e+05
  -1.092385e+06   1.109964e+06
  -1.659099e+06   2.939146e+05
  -6.764954e+05  -1.049565e+06
   5.848028e+05  -1.004205e+06
   5.594719e+05   3.392828e+05
  -7.189000e+05   9.077128e+05
  -1.693464e+06  -5.601244e+05
  -1.107700e+06  -2.764023e+06
   7.648977e+05  -3.384445e+06
   2.636269e+06  -1.689636e+06
   3.345309e+06   9.497429e+05
   2.463183e+06   2.660505e+06
   4.897697e+05   2.614153e+06
  -1.244898e+06   1.337813e+06
  -1.500386e+06   1.119662e+05
  -4.508185e+05  -5.201026e+04
   3.221906e+05   6.868058e+05
  -3.273168e+05   1.149320e+06
  -1.614330e+06   4.964254e+05
  -1.785754e+06  -7.152197e+05
  -4.005111e+05  -1.206863e+06
   1.047188e+06  -5.456727e+05
   9.098827e+05   4.218371e+05
  -7.198976e+05   6.386779e+05
  -2.149173e+06  -1.241301e+05
  -1.840284e+06  -1.281382e+06
   1.354940e+05  -1.987677e+06
   2.178072e+06  -1.617958e+06
   2.578475e+06  -2.472496e+05
   1.084493e+06   1.115343e+06
  -8.121590e+05   1.261505e+06
  -1.310050e+06   1.305867e+05
  -1.067484e+05  -9.231550e+05
   1.373269e+06  -6.274676e+05
   1.575052e+06   6.862522e+05
   3.912461e+05   1.512544e+06
  -9.328560e+05   9.930766e+05
  -1.188628e+06  -1.741192e+05
  -3.150741e+05  -6.819666e+05
   6.665801e+05  -6.317214e+04
   6.297566e+05   9.556804e+05
  -5.785009e+05   1.271679e+06
  -1.855219e+06   4.221934e+05
  -1.823790e+06  -1.015150e+06
  -3.163256e+05  -1.888450e+06
   1.304808e+06  -1.482303e+06
   1.570923e+06  -2.086116e+05
   4.931764e+05   7.836823e+05
  -5.938360e+05   7.571742e+05
  -6.440680e+05   5.037250e+04
   6.885410e+04  -4.430974e+05
   5.508169e+05  -2.929844e+05
   2.901995e+05   1.040835e+05
  -3.271387e+05   8.479610e+04
  -5.272584e+05  -5.014263e+05
   1.160578e+05  -1.069765e+06
   1.250447e+06  -8.272102e+05
   1.904030e+06   3.957946e+05
   1.307073e+06   1.800527e+06
  -2.434608e+05   2.246515e+06
  -1.529837e+06   1.355084e+06
  -1.641730e+06  -8.486032e+04
  -8.966419e+05  -9.257702e+05
  -3.088826e+05  -7.996682e+05
  -3.277408e+05  -3.219346e+05
  -4.542874e+05  -2.463243e+05
  -5.879794e+04  -6.244887e+05
   7.833756e+05  -8.393382e+05
   1.366461e+06  -3.391579e+05
   1.042630e+06   7.100594e+05
  -2.022130e+05   1.445201e+06
  -1.619518e+06   1.032386e+06
  -2.105877e+06  -4.641237e+05
  -1.071026e+06  -1.936917e+06
   8.756417e+05  -2.161416e+06
   2.293054e+06  -9.797747e+05
   2.208500e+06   5.481590e+05
   9.996034e+05   1.253642e+06
  -1.371273e+05   9.927679e+05
  -4.590415e+05   5.687351e+05
  -2.385617e+05   6.686817e+05
  -1.876039e+05   1.101701e+06
  -6.086103e+05   1.105139e+06
  -1.146676e+06   2.506572e+05
  -1.189718e+06  -1.027512e+06
  -4.663481e+05  -1.761444e+06
   6.129319e+05  -1.312976e+06
   1.196506e+06   5.413133e+03
   7.566623e+05   1.153182e+06
  -3.093541e+05   1.277153e+06
  -9.982436e+05   4.476028e+05
  -7.338667e+05  -5.202698e+05
   3.326138e+04  -9.193104e+05
   3.905105e+05  -7.357225e+05
   4.061493e+04  -4.332163e+05
  -3.694995e+05  -3.419263e+05
  -3.312349e+04  -3.642765e+05
   1.022081e+06  -1.916892e+05
   1.839311e+06   3.139515e+05
   1.474045e+06   9.428849e+05
   1.622602e+04   1.271327e+06
  -1.397333e+06   1.004446e+06
  -1.665697e+06   2.791592e+05
  -7.933683e+05  -3.748382e+05
   2.089188e+05  -4.770912e+05
   4.488795e+05  -6.351895e+04
  -5.018253e+03   3.287716e+05
  -4.431518e+05   2.106455e+05
  -4.260449e+05  -3.255236e+05
  -1.477776e+05  -6.869406e+05
  -1.273422e+04  -4.439166e+05
  -1.399791e+05   1.331712e+05
  -3.218061e+05   3.213562e+05
  -2.639073e+05  -2.123743e+05
   1.852212e+05  -9.291379e+05
   8.447762e+05  -9.537898e+05
   1.173926e+06  -9.566754e+04
   6.867288e+05   8.564240e+05
  -3.997253e+05   9.780227e+05
  -1.114908e+06   2.238427e+05
  -6.540068e+05  -5.645294e+05
   6.435276e+05  -6.012667e+05
   1.499647e+06   8.126297e+04
   1.007582e+06   8.049765e+05
  -4.022001e+05   9.682451e+05
  -1.421116e+06   5.112465e+05
  -1.203782e+06  -1.530887e+05
  -1.491446e+05  -4.974502e+05
   6.005184e+05  -2.706994e+05
   3.298605e+05   2.562385e+05
  -5.804831e+05   4.372101e+05
  -1.083444e+06  -1.470510e+05
  -5.363077e+05  -1.127868e+06
   6.488099e+05  -1.535152e+06
   1.423830e+06  -7.440379e+05
   1.145041e+06   7.535005e+05
   1.410336e+05   1.683765e+06
  -7.193612e+05   1.223257e+06
  -8.729358e+05  -1.436667e+05
  -4.200666e+05  -1.116212e+06
   1.732446e+05  -9.328275e+05
   5.109769e+05  -9.107214e+04
   4.644429e+05   3.734581e+05
   1.911568e+05   1.488389e+05
   3.194962e+04  -1.025796e+05
   1.958384e+05   2.459291e+05
   4.331224e+05   8.955925e+05
   2.064331e+05   1.022570e+06
  -6.157420e+05   3.679509e+05
  -1.373031e+06  -4.656029e+05
  -1.223630e+06  -8.098564e+05
  -1.648631e+05  -6.448548e+05
   8.443393e+05  -3.646278e+05
   9.374599e+05  -1.639753e+05
   3.025365e+05   2.922247e+04
  -1.558226e+05   2.013635e+05
   8.136593e+03   2.185324e+05
   2.927487e+05   1.255091e+05
   2.426773e+04   1.263584e+05
  -6.729289e+05   1.809525e+05
  -9.656007e+05  -4.888846e+04
  -3.146409e+05  -6.387824e+05
   8.538038e+05  -1.041940e+06
   1.561288e+06  -6.309814e+05
   1.239146e+06   4.558870e+05
   2.032424e+05   1.320417e+06
  -7.306902e+05   1.246107e+06
  -9.842372e+05   4.434591e+05
  -6.083903e+05  -2.583985e+05
  -9.563536e+04  -3.335895e+05
   1.053030e+05  -2.852756e+04
  -6.353698e+04   4.698714e+04
  -2.939469e+05  -3.366561e+05
  -2.297999e+05  -7.585621e+05
   1.908840e+05  -6.164198e+05
   6.364898e+05   1.596998e+05
   6.352328e+05   9.287894e+05
   3.516519e+04   9.518621e+05
  -7.279771e+05   1.685240e+05
  -9.273310e+05  -7.311536e+05
  -2.705694e+05  -1.015559e+06
   6.823469e+05  -5.807999e+05
   1.015388e+06   1.057273e+05
   4.580973e+05   5.501868e+05
  -2.759363e+05   5.851747e+05
  -3.255243e+05   3.271141e+05
   2.661670e+05   3.247575e+04
   6.138683e+05  -1.429168e+04
   1.166260e+05   2.810440e+05
  -7.833877e+05   6.167949e+05
  -1.153107e+06   5.040443e+05
  -6.693295e+05  -1.494140e+05
   1.117326e+05  -7.901577e+05
   4.987128e+05  -7.702979e+05
   3.593757e+05  -1.169531e+05
   1.756051e+04   4.599402e+05
  -2.374984e+05   3.781115e+05
  -3.226788e+05  -1.780750e+05
  -2.172640e+05  -5.430850e+05
   6.497345e+04  -3.646570e+05
   3.593882e+05   6.493603e+04
   4.259377e+05   2.476601e+05
   2.246558e+05   7.457480e+04
  -1.421190e+04  -1.127962e+05
  -8.043511e+04   1.140265e+04
  -4.487897e+04   3.454758e+05
  -1.204843e+05   4.675793e+05
  -3.163688e+05   1.336976e+05
  -3.695628e+05  -3.978186e+05
  -7.198252e+04  -6.049633e+05
   4.016471e+05  -2.649132e+05
   5.868133e+05   2.946910e+05
   2.044498e+05   5.502057e+05
  -4.697747e+05   3.238261e+05
  -7.974860e+05  -1.035242e+05
  -4.264711e+05  -3.619215e+05
   2.799149e+05  -3.406955e+05
   5.874070e+05  -1.680416e+05
   2.073279e+05  -8.479486e+03
  -3.559741e+05   2.605888e+04
  -3.875135e+05  -1.059521e+05
   1.938714e+05  -2.852246e+05
   7.439737e+05  -2.289261e+05
