
 $NMID
 id='ANONYMOUS ', fmtdat='(2E16.6)'
 volume=1.0
 tramp=1.0
 $END
   1.232784e+07  -8.802622e+05
   6.903321e+06   9.213604e+06
  -3.203100e+06   9.137799e+06
  -6.990244e+06   1.327302e+06
  -2.838953e+06  -4.085472e+06
   2.020942e+06  -2.651194e+06
   2.339028e+06   1.256884e+06
  -2.445893e+05   2.578206e+06
  -2.080549e+06   1.232437e+06
  -2.200644e+06  -4.725813e+05
  -1.328709e+06  -1.497533e+06
   4.144988e+04  -1.693615e+06
   1.109361e+06  -8.293370e+05
   7.507737e+05   4.299916e+05
  -6.912950e+05   5.389556e+05
  -1.325431e+06  -7.784767e+05
  -2.667200e+05  -1.923564e+06
   1.280037e+06  -1.695194e+06
   2.048631e+06  -6.296800e+05
   2.115294e+06   4.813083e+05
   1.675568e+06   1.645947e+06
   3.149893e+05   2.493263e+06
  -1.517618e+06   1.897723e+06
  -2.081713e+06  -4.843355e+04
  -7.198992e+05  -1.294527e+06
   7.525037e+05  -4.638258e+05
   4.372095e+05   1.057526e+06
  -1.033688e+06   1.103098e+06
  -1.692775e+06  -3.017203e+05
  -1.013302e+06  -1.461120e+06
   2.361441e+04  -1.566095e+06
   7.728015e+05  -1.103081e+06
   1.214137e+06  -4.180140e+05
   1.039055e+06   4.175960e+05
   1.226101e+05   7.481772e+05
  -5.064410e+05   4.159222e+04
   1.684103e+05  -7.723684e+05
   1.287947e+06  -3.235567e+05
   1.131829e+06   9.521708e+05
  -1.467955e+05   1.308372e+06
  -6.889520e+05   4.814170e+05
   9.677370e+03   1.035056e+05
   2.485969e+05   8.851301e+05
  -9.733324e+05   1.302135e+06
  -2.120686e+06   7.909963e+04
  -1.428201e+06  -1.624913e+06
   4.113165e+05  -1.865177e+06
   1.343397e+06  -6.290966e+05
   7.703821e+05   4.911103e+05
  -1.775609e+05   5.858848e+05
  -5.413464e+05   5.588831e+04
  -3.142352e+05  -5.133174e+05
   2.671783e+05  -8.178591e+05
   9.135798e+05  -5.149341e+05
   9.955310e+05   3.689846e+05
   2.398728e+05   9.402151e+05
  -4.707647e+05   4.724513e+05
  -1.407637e+05  -2.821139e+05
   6.723538e+05  -1.519838e+04
   5.035096e+05   1.045739e+06
  -7.384085e+05   1.320585e+06
  -1.527349e+06   2.587336e+05
  -1.007286e+06  -8.672625e+05
  -1.195518e+05  -9.611233e+05
   1.089820e+05  -5.429914e+05
   6.852275e+04  -4.744222e+05
   4.586963e+05  -4.663566e+05
   8.018514e+05   8.360330e+04
   2.855078e+05   6.660456e+05
  -6.099524e+05   3.382237e+05
  -6.361903e+05  -6.258594e+05
   3.358502e+05  -9.726344e+05
   1.115900e+06  -2.421957e+05
   8.742365e+05   7.074358e+05
   5.005996e+04   9.830733e+05
  -5.291197e+05   6.030337e+05
  -5.959841e+05   5.448578e+04
  -3.120186e+05  -3.256106e+05
   9.217128e+04  -3.358391e+05
   2.756195e+05   6.182080e+04
  -3.439307e+04   4.589336e+05
  -5.552470e+05   2.922520e+05
  -6.232967e+05  -3.568805e+05
  -8.159239e+04  -7.484042e+05
   4.654083e+05  -4.732196e+05
   4.948130e+05   3.975055e+04
   1.893407e+05   2.338733e+05
  -2.284927e+04   1.315925e+05
  -6.630038e+04   3.019085e+04
  -4.164501e+04  -2.387735e+04
   9.358603e+04  -7.445444e+04
   2.858746e+05   1.761712e+04
   2.244678e+05   2.680260e+05
  -1.645591e+05   3.374776e+05
  -4.175479e+05   3.786253e+04
  -1.761002e+05  -2.473118e+05
   1.970552e+05  -1.115577e+05
   1.529360e+05   1.985598e+05
  -1.818833e+05   1.795576e+05
  -2.681491e+05  -1.048275e+05
  -6.486426e+04  -1.977729e+05
   7.601388e+02  -8.190578e+04
  -1.102983e+05  -1.533874e+05
   3.686920e+04  -3.891274e+05
   4.774051e+05  -2.693098e+05
   6.085113e+05   3.005478e+05
   1.200575e+05   6.690775e+05
  -4.423124e+05   3.733575e+05
  -4.535796e+05  -1.651938e+05
  -7.327097e+04  -3.009893e+05
   1.305659e+05  -6.992042e+04
   4.825048e+04   5.476040e+04
  -2.352661e+03  -2.692169e+04
   6.911820e+04  -2.740474e+04
   4.558836e+04   1.135999e+05
  -1.125270e+05   1.417800e+05
  -1.868121e+05  -2.178741e+04
  -1.055186e+05  -1.627775e+05
  -2.410259e+04  -1.705931e+05
   1.852036e+04  -1.612319e+05
   1.472120e+05  -1.603310e+05
   3.103306e+05  -3.383722e+04
   2.655553e+05   1.849979e+05
   3.492474e+03   2.477502e+05
  -1.607090e+05   9.233530e+04
  -6.155910e+04  -2.135271e+04
   6.460220e+04   7.134406e+04
  -1.842567e+04   1.753456e+05
  -1.760138e+05   7.683387e+04
  -1.615276e+05  -1.050947e+05
  -1.674575e+04  -1.344146e+05
   4.393985e+04  -2.759994e+04
  -1.267027e+04   3.226839e+04
  -5.617551e+04   2.984318e+03
  -5.119437e+04  -3.097381e+04
  -5.423347e+04  -6.688625e+04
  -3.098801e+04  -1.436735e+05
   8.652435e+04  -1.749808e+05
   2.072888e+05  -5.466799e+04
   1.714650e+05   1.198016e+05
   1.417449e+04   1.504398e+05
  -6.862099e+04   3.815561e+04
  -1.232375e+04  -3.098247e+04
   5.610416e+04   1.760393e+04
   5.141319e+04   7.721510e+04
   2.074487e+04   8.632692e+04
  -1.717191e+04   1.012791e+05
  -1.119658e+05   1.128819e+05
  -2.112543e+05   1.860077e+04
  -1.607191e+05  -1.513097e+05
   3.792687e+04  -1.962417e+05
   1.606720e+05  -4.255330e+04
   6.765657e+04   1.111673e+05
  -9.251103e+04   7.660497e+04
  -1.150655e+05  -6.369331e+04
  -2.073789e+04  -1.247437e+05
   4.733839e+04  -9.482417e+04
   6.936289e+04  -6.958922e+04
   1.085146e+05  -4.040041e+04
   1.301060e+05   4.975071e+04
   6.295561e+04   1.288992e+05
  -2.367364e+04   8.887401e+04
  -9.450831e+03   3.306790e+03
   4.669808e+04   3.439602e+04
  -2.131765e+04   1.415161e+05
  -1.854394e+05   1.120067e+05
  -2.159086e+05  -8.927525e+04
  -2.701751e+04  -2.265065e+05
   1.731065e+05  -1.307772e+05
   1.735782e+05   6.350508e+04
   3.079982e+04   1.367701e+05
  -7.179640e+04   7.721459e+04
  -8.882477e+04   1.382436e+04
  -9.018875e+04  -1.536360e+04
  -8.035257e+04  -6.129434e+04
  -9.007509e+03  -1.077697e+05
   8.815586e+04  -8.502242e+04
   1.139394e+05  -1.023849e+04
   6.224492e+04   2.835816e+04
   1.998659e+04   1.885274e+04
   1.982790e+04   3.196947e+04
   6.255443e+03   7.965386e+04
  -4.362728e+04   8.678605e+04
  -7.383361e+04   2.253174e+04
  -4.851136e+04  -4.575623e+04
  -6.442079e+03  -6.005948e+04
   1.286533e+04  -4.338585e+04
   2.051827e+04  -3.131630e+04
   2.820748e+04  -1.366177e+04
   1.957909e+04   1.734424e+04
   6.944078e+02   3.305302e+04
   8.387822e+03   2.358592e+04
   3.550536e+04   2.296652e+04
   1.899295e+04   3.995983e+04
  -5.544620e+04   2.812223e+04
  -1.052435e+05  -3.055005e+04
  -6.167713e+04  -7.529297e+04
   2.890295e+04  -5.378303e+04
   7.395404e+04  -3.301275e+03
   5.606307e+04   1.431953e+04
   2.276504e+04   6.577052e+03
  -1.465336e+03   1.258024e+04
  -2.227469e+04   1.954772e+04
  -2.641489e+04  -4.199823e+03
  -2.034095e+01  -2.949677e+04
   2.368116e+04  -7.711561e+03
   7.062710e+03   3.053106e+04
  -1.634259e+04   1.308854e+04
   1.432332e+04  -4.290410e+04
   7.450120e+04  -3.897534e+04
   7.022398e+04   4.758072e+04
  -2.026706e+04   1.115636e+05
  -1.023096e+05   6.768047e+04
  -9.205761e+04  -3.025543e+04
  -1.796409e+04  -7.442921e+04
   4.120152e+04  -4.355526e+04
   5.480277e+04   4.659723e+03
   3.229490e+04   3.094910e+04
  -2.112019e+04   3.448129e+04
  -8.065952e+04   1.019818e+04
  -8.291262e+04  -4.072512e+04
  -1.923497e+03  -7.451451e+04
   8.565188e+04  -4.692794e+04
   8.344676e+04   1.297369e+04
   7.689006e+03   3.211004e+04
  -3.435223e+04  -2.677679e+03
   5.751034e+03  -2.827036e+04
   6.075238e+04  -5.636476e+02
   5.313055e+04   4.974991e+04
  -7.748979e+03   7.225259e+04
  -6.055554e+04   5.643642e+04
  -7.163375e+04   1.561266e+04
  -4.596049e+04  -3.928391e+04
   1.041489e+03  -8.054001e+04
   4.479294e+04  -6.395518e+04
   5.170769e+04   1.070122e+04
   1.393992e+04   7.255285e+04
  -3.130895e+04   5.773549e+04
  -4.334449e+04  -6.851528e+03
  -2.432027e+04  -4.194169e+04
  -3.732694e+03  -2.288139e+04
   4.152709e+03  -1.409009e+02
   4.373975e+03  -1.556086e+04
   2.112177e+03  -4.601520e+04
   5.015253e+03  -4.514936e+04
   2.625427e+04  -6.555556e+03
   5.765338e+04   3.604883e+04
   5.925346e+04   5.200054e+04
   1.002274e+04   3.889942e+04
  -4.735558e+04   1.541827e+04
  -5.370694e+04   1.648542e+03
  -1.592851e+04   1.587788e+03
   4.424927e+03   8.624514e+02
  -1.498770e+04  -1.251019e+04
  -2.659645e+04  -2.777958e+04
   7.650414e+03  -2.384539e+04
   5.327537e+04   7.456823e+02
   5.120944e+04   2.599710e+04
  -2.806879e+03   3.673011e+04
  -5.994533e+04   3.160890e+04
  -7.842788e+04   8.042774e+03
  -5.206542e+04  -3.467072e+04
   2.709679e+03  -7.156312e+04
   5.549683e+04  -6.315310e+04
   6.979098e+04  -8.910576e+03
   3.589379e+04   3.711825e+04
  -8.122416e+03   3.050430e+04
  -1.679074e+04  -3.780993e+03
   5.159623e+03  -7.573627e+03
   1.386675e+04   2.716045e+04
  -8.432575e+03   4.857353e+04
  -3.214451e+04   1.910528e+04
  -2.795123e+04  -3.514433e+04
  -2.949541e+03  -6.082705e+04
   2.096000e+04  -3.791326e+04
   3.425116e+04   1.019047e+04
   3.066532e+04   4.759875e+04
   1.065909e+03   5.148796e+04
  -4.099469e+04   2.138543e+04
  -5.347764e+04  -1.972244e+04
  -1.616231e+04  -4.036813e+04
   3.024990e+04  -2.939303e+04
   2.944862e+04  -6.136436e+03
  -1.381970e+04   4.113346e+03
  -3.770965e+04  -3.179897e+03
  -6.204559e+03  -1.527658e+04
   4.523250e+04  -2.027809e+04
   5.952612e+04  -1.222645e+04
   2.715005e+04   9.442466e+03
  -1.371832e+04   3.206430e+04
  -2.873272e+04   3.241471e+04
  -1.704432e+04   4.436245e+03
   2.751116e+03  -2.347971e+04
   1.533681e+04  -1.863720e+04
   1.543534e+04   1.219572e+04
   5.607786e+03   3.005121e+04
  -6.672242e+03   1.539269e+04
  -1.428780e+04  -9.201138e+03
  -1.519821e+04  -1.438731e+04
  -1.101335e+04  -2.039223e+03
  -3.451708e+03   4.844956e+03
   5.193038e+03  -3.731708e+03
   1.149198e+04  -1.563538e+04
   1.407055e+04  -1.493595e+04
   1.381632e+04   1.767943e+03
   8.521439e+03   2.293228e+04
  -6.002961e+03   2.904879e+04
  -2.400795e+04   9.167751e+03
  -2.691339e+04  -2.222827e+04
  -3.717850e+03  -3.384678e+04
   2.864552e+04  -1.298526e+04
   3.828336e+04   1.643830e+04
   1.478086e+04   2.333748e+04
  -1.689214e+04   8.326594e+03
  -2.442110e+04  -2.634921e+03
  -4.183832e+03   3.157150e+03
   1.657939e+04   1.295704e+04
   1.108416e+04   1.362770e+04
  -1.785930e+04   7.231819e+03
  -3.998319e+04  -2.786819e+03
