
 $NMID
 id='ANONYMOUS ', fmtdat='(2E16.6)'
 volume=1.0
 tramp=1.0
 $END
  -4.719114e+07  -1.834255e+06
  -2.770504e+07  -2.905243e+07
   6.419481e+06  -3.125503e+07
   2.300931e+07  -1.267372e+07
   1.406202e+07   4.976143e+06
  -2.383468e+06   7.778874e+06
  -8.360524e+06  -3.819698e+05
  -2.877325e+06  -8.097889e+06
   4.891689e+06  -8.510112e+06
   8.230341e+06  -2.115134e+06
   6.002902e+06   5.561428e+06
   5.027062e+05   7.719649e+06
  -3.659607e+06   2.152175e+06
  -2.350419e+06  -5.278527e+06
   3.234281e+06  -6.114737e+06
   6.768333e+06   9.904471e+05
   3.800159e+06   8.801309e+06
  -3.335037e+06   1.009808e+07
  -8.755584e+06   4.758427e+06
  -9.041223e+06  -2.245805e+06
  -5.027268e+06  -6.581203e+06
  -4.715115e+04  -6.932694e+06
   2.275199e+06  -4.547804e+06
   7.292551e+05  -2.354961e+06
  -1.537470e+06  -2.678567e+06
   1.094062e+05  -4.350754e+06
   5.564635e+06  -3.747969e+06
   8.998329e+06   2.151889e+05
   6.018385e+06   4.133397e+06
  -4.463654e+05   4.471193e+06
  -3.922127e+06   1.833255e+06
  -2.236848e+06  -6.846579e+05
   1.247273e+06  -1.370567e+06
   2.903524e+06  -3.015299e+05
   2.152991e+06   2.007568e+06
   9.960265e+04   4.016783e+06
  -1.957124e+06   3.168458e+06
  -2.475534e+06  -6.399201e+05
  -8.759401e+05  -3.206604e+06
   8.047628e+05  -1.070633e+06
  -3.371329e+04   2.754594e+06
  -2.377372e+06   2.231047e+06
  -2.178820e+06  -2.692200e+06
   1.822200e+06  -5.133587e+06
   5.435431e+06  -7.769818e+05
   4.012399e+06   5.793802e+06
  -1.660684e+06   7.028878e+06
  -6.366086e+06   1.853159e+06
  -6.215835e+06  -4.012280e+06
  -1.835969e+06  -5.467330e+06
   3.113114e+06  -2.619289e+06
   4.952942e+06   1.207530e+06
   2.449039e+06   3.067199e+06
  -1.962286e+06   1.976631e+06
  -3.938790e+06  -7.440834e+05
  -1.758742e+06  -2.300439e+06
   1.473457e+06  -1.165712e+06
   1.677729e+06   9.025990e+05
  -8.718890e+05   9.846430e+05
  -2.121787e+06  -1.077042e+06
   1.371257e+05  -2.564860e+06
   3.533083e+06  -1.598809e+06
   4.443455e+06   9.360533e+05
   2.033465e+06   3.302897e+06
  -1.832832e+06   4.635749e+06
  -4.922524e+06   4.200843e+06
  -5.747399e+06   1.228685e+06
  -3.863810e+06  -3.155213e+06
  -5.618875e+05  -5.669664e+06
   1.620607e+06  -4.395708e+06
   1.418549e+06  -1.426582e+06
   3.328117e+05  -2.126585e+05
   5.576191e+05  -1.093538e+06
   2.051742e+06  -1.416364e+06
   2.845746e+06   2.890573e+05
   1.777976e+06   2.314046e+06
  -3.079618e+05   2.288173e+06
  -1.816517e+06   1.104616e+05
  -1.709830e+06  -2.268061e+06
   1.621276e+05  -2.933007e+06
   2.773496e+06  -1.356020e+06
   4.052891e+06   1.448886e+06
   2.644229e+06   3.567611e+06
  -2.559037e+05   3.652186e+06
  -2.026968e+06   2.215119e+06
  -1.867054e+06   9.782227e+05
  -1.619660e+06   7.335873e+05
  -2.811809e+06   5.327332e+05
  -4.193443e+06  -7.326416e+05
  -3.360991e+06  -2.719272e+06
  -6.916575e+04  -4.058393e+06
   3.284061e+06  -3.773460e+06
   4.254154e+06  -1.892889e+06
   2.585333e+06   6.492282e+05
   3.827334e+04   2.282922e+06
  -1.278915e+06   1.812112e+06
  -5.411300e+05  -1.126624e+05
   1.160283e+06  -1.242827e+06
   1.849221e+06  -3.260213e+05
   7.949911e+05   1.186226e+06
  -5.947827e+05   1.100876e+06
  -5.236669e+05  -3.661128e+05
   8.829447e+05  -8.268556e+05
   1.773796e+06   9.131747e+05
   8.908301e+05   3.157227e+06
  -1.161212e+06   3.472694e+06
  -2.922094e+06   1.468791e+06
  -3.433420e+06  -1.208097e+06
  -2.477680e+06  -2.811944e+06
  -4.898437e+05  -2.728072e+06
   1.314040e+06  -1.449720e+06
   1.612233e+06  -1.562253e+05
   4.897968e+05   5.665768e+04
  -3.444038e+05  -7.506193e+05
   4.006116e+05  -1.276009e+06
   1.824088e+06  -5.231568e+05
   1.956735e+06   8.509835e+05
   3.886946e+05   1.353004e+06
  -1.153596e+06   5.663608e+05
  -9.371261e+05  -4.573097e+05
   8.010453e+05  -6.012264e+05
   2.241737e+06   2.264119e+05
   1.869419e+06   1.369865e+06
  -1.968879e+05   2.058771e+06
  -2.342187e+06   1.687271e+06
  -2.783710e+06   2.434774e+05
  -1.174397e+06  -1.247557e+06
   9.221877e+05  -1.412123e+06
   1.485405e+06  -1.354188e+05
   1.357369e+05   1.043471e+06
  -1.511100e+06   6.863797e+05
  -1.698362e+06  -7.785630e+05
  -3.660937e+05  -1.639234e+06
   1.048068e+06  -1.011750e+06
   1.258925e+06   2.548627e+05
   2.857462e+05   7.519640e+05
  -7.546636e+05   4.741634e+04
  -6.937214e+05  -1.055089e+06
   6.220185e+05  -1.395994e+06
   2.020066e+06  -4.750693e+05
   1.994523e+06   1.102367e+06
   3.370268e+05   2.064538e+06
  -1.444521e+06   1.603811e+06
  -1.712083e+06   1.983099e+05
  -5.080788e+05  -8.597313e+05
   6.569731e+05  -8.032857e+05
   6.704061e+05  -6.286046e+04
  -8.875411e+04   4.205626e+05
  -5.418525e+05   2.711282e+05
  -2.303659e+05  -7.684692e+04
   3.819011e+05  -2.919310e+03
   5.286860e+05   6.021379e+05
  -1.772261e+05   1.161699e+06
  -1.375368e+06   8.780680e+05
  -2.066341e+06  -4.451583e+05
  -1.417369e+06  -1.964976e+06
   2.661010e+05  -2.427187e+06
   1.646374e+06  -1.427752e+06
   1.731795e+06   1.176467e+05
   9.179300e+05   9.525962e+05
   3.375151e+05   7.694446e+05
   4.188465e+05   3.045828e+05
   5.459880e+05   3.055055e+05
   6.088451e+04   7.190839e+05
  -8.690384e+05   8.930969e+05
  -1.463969e+06   3.350597e+05
  -1.088196e+06  -7.512351e+05
   2.394666e+05  -1.510249e+06
   1.745132e+06  -1.080860e+06
   2.260191e+06   5.142066e+05
   1.124517e+06   2.106624e+06
  -1.002684e+06   2.334336e+06
  -2.516577e+06   1.014701e+06
  -2.358230e+06  -6.445913e+05
  -1.010809e+06  -1.347074e+06
   1.738704e+05  -1.007651e+06
   4.435672e+05  -5.718511e+05
   1.856753e+05  -7.512281e+05
   1.801920e+05  -1.251661e+06
   6.847080e+05  -1.230027e+06
   1.271850e+06  -2.752725e+05
   1.301745e+06   1.114715e+06
   5.102202e+05   1.910055e+06
  -6.598836e+05   1.424957e+06
  -1.290225e+06  -1.667338e+04
  -7.991094e+05  -1.271597e+06
   3.760101e+05  -1.379085e+06
   1.115313e+06  -4.286035e+05
   7.829720e+05   6.347083e+05
  -9.431036e+04   1.023021e+06
  -4.820737e+05   7.740049e+05
  -6.280412e+04   4.396509e+05
   4.149049e+05   3.611092e+05
   4.420142e+04   3.916622e+05
  -1.127797e+06   1.932307e+05
  -2.020755e+06  -3.633830e+05
  -1.592753e+06  -1.046010e+06
   2.820081e+04  -1.397702e+06
   1.563871e+06  -1.088725e+06
   1.816062e+06  -2.691609e+05
   8.337681e+05   4.534363e+05
  -2.527310e+05   5.351631e+05
  -4.950647e+05   4.480072e+04
  -1.842631e+03  -3.898994e+05
   4.671576e+05  -2.412088e+05
   4.682463e+05   3.537294e+05
   1.993078e+05   7.440523e+05
   4.855987e+04   4.877906e+05
   1.413022e+05  -1.203022e+05
   3.132520e+05  -3.242918e+05
   2.781339e+05   2.329408e+05
  -1.800862e+05   9.998903e+05
  -9.204390e+05   1.040679e+06
  -1.322626e+06   1.167032e+05
  -7.880566e+05  -9.386844e+05
   4.424027e+05  -1.095130e+06
   1.243132e+06  -2.718995e+05
   7.181752e+05   6.017236e+05
  -7.054860e+05   6.416938e+05
  -1.603627e+06  -1.053357e+05
  -1.039810e+06  -8.700135e+05
   4.645708e+05  -1.008867e+06
   1.516368e+06  -5.035294e+05
   1.263246e+06   1.851808e+05
   1.443850e+05   5.250763e+05
  -6.503743e+05   2.739740e+05
  -3.662343e+05  -2.924108e+05
   6.160556e+05  -4.966194e+05
   1.184939e+06   1.314397e+05
   6.201255e+05   1.215713e+06
  -6.640903e+05   1.688894e+06
  -1.528088e+06   8.391884e+05
  -1.247075e+06  -7.992720e+05
  -1.642725e+05  -1.814167e+06
   7.693188e+05  -1.305064e+06
   9.311373e+05   1.748978e+05
   4.310815e+05   1.202651e+06
  -2.118467e+05   9.827749e+05
  -5.580050e+05   8.366992e+04
  -4.814033e+05  -3.913805e+05
  -1.838244e+05  -1.457005e+05
  -4.191297e+04   1.004798e+05
  -2.438949e+05  -2.923687e+05
  -4.818989e+05  -9.781047e+05
  -1.963629e+05  -1.090810e+06
   6.981696e+05  -3.841546e+05
   1.480136e+06   4.973574e+05
   1.295456e+06   8.644489e+05
   1.746824e+05   7.017724e+05
  -8.870496e+05   4.063033e+05
  -1.000727e+06   1.727672e+05
  -3.445307e+05  -5.153743e+04
   1.585476e+05  -2.235576e+05
   1.642187e+04  -2.133286e+05
  -2.897522e+05  -1.089110e+05
  -3.984917e+04  -1.379590e+05
   6.962505e+05  -2.204163e+05
   1.052263e+06   3.901643e+04
   3.899435e+05   7.074970e+05
  -8.930405e+05   1.160523e+06
  -1.714924e+06   7.106935e+05
  -1.389335e+06  -4.781638e+05
  -2.425734e+05  -1.426604e+06
   7.949617e+05  -1.362862e+06
   1.069678e+06  -5.083061e+05
   6.607553e+05   2.569599e+05
   1.194154e+05   3.649041e+05
  -9.122572e+04   5.751868e+04
   7.324348e+04  -2.710191e+04
   3.032736e+05   3.686373e+05
   2.409976e+05   8.172001e+05
  -1.979443e+05   6.776405e+05
  -6.900974e+05  -1.456381e+05
  -7.192231e+05  -9.857518e+05
  -7.881683e+04  -1.043525e+06
   7.765810e+05  -2.227681e+05
   1.027856e+06   7.600034e+05
   3.209466e+05   1.105397e+06
  -7.358038e+05   6.588268e+05
  -1.118809e+06  -1.015777e+05
  -5.129756e+05  -6.179946e+05
   3.036628e+05  -6.636394e+05
   3.769277e+05  -3.573110e+05
  -2.640696e+05  -1.543644e+04
  -6.591909e+05   2.671711e+04
  -1.368409e+05  -3.114784e+05
   8.433179e+05  -6.708338e+05
   1.264186e+06  -5.285637e+05
   7.486230e+05   1.853516e+05
  -1.151202e+05   8.690190e+05
  -5.614023e+05   8.441663e+05
  -4.211779e+05   1.426882e+05
  -4.038243e+04  -4.908000e+05
   2.528645e+05  -4.282287e+05
   3.560114e+05   1.653331e+05
   2.443813e+05   5.869720e+05
  -6.632470e+04   4.202297e+05
  -3.940522e+05  -5.666007e+04
  -4.682614e+05  -2.843210e+05
  -2.405601e+05  -9.447728e+04
   2.400255e+04   1.447979e+05
   7.734441e+04   2.732212e+04
   7.051012e+03  -3.676972e+05
   8.432062e+04  -5.477601e+05
   3.375557e+05  -1.972436e+05
   4.449713e+05   4.066414e+05
   1.289203e+05   6.625428e+05
  -4.234824e+05   3.066350e+05
  -6.600810e+05  -3.015874e+05
  -2.423502e+05  -5.878852e+05
   5.148669e+05  -3.574680e+05
   8.836141e+05   9.710821e+04
   4.736248e+05   3.896848e+05
  -3.050211e+05   3.910262e+05
  -6.480185e+05   2.093417e+05
  -2.454866e+05   1.030973e+04
   3.632965e+05  -5.890371e+04
   4.175062e+05   8.026639e+04
  -1.806561e+05   3.000909e+05
  -7.677645e+05   2.659482e+05
