
 $NMID
 id='ANONYMOUS ', fmtdat='(2E16.6)'
 volume=1.0
 tramp=1.0
 $END
   5.157275e+07   1.903255e+06
   2.992147e+07   3.251150e+07
  -7.699850e+06   3.437674e+07
  -2.540193e+07   1.297348e+07
  -1.493206e+07  -6.334515e+06
   3.049399e+06  -8.402018e+06
   8.946848e+06   1.033256e+06
   2.563314e+06   8.891092e+06
  -5.661954e+06   8.662671e+06
  -8.872569e+06   1.826907e+06
  -6.351093e+06  -5.942299e+06
  -5.405169e+05  -8.098968e+06
   3.843791e+06  -2.390762e+06
   2.416433e+06   5.308507e+06
  -3.548297e+06   6.171711e+06
  -7.220759e+06  -1.309559e+06
  -3.904730e+06  -9.503106e+06
   3.739743e+06  -1.079632e+07
   9.478878e+06  -5.134727e+06
   9.864935e+06   2.309290e+06
   5.706004e+06   7.139751e+06
   2.120074e+05   7.824902e+06
  -2.755335e+06   5.237113e+06
  -1.395137e+06   2.393815e+06
   1.296819e+06   2.302490e+06
   8.889354e+04   4.200825e+06
  -5.447322e+06   4.023504e+06
  -9.263234e+06   7.707567e+04
  -6.457803e+06  -4.180721e+06
   1.248015e+05  -4.780543e+06
   3.811962e+06  -2.210681e+06
   2.388901e+06   3.132511e+05
  -8.322913e+05   1.154625e+06
  -2.518382e+06   4.429806e+05
  -2.177885e+06  -1.663238e+06
  -4.161516e+05  -3.948311e+06
   1.913883e+06  -3.496311e+06
   2.898705e+06   4.104003e+05
   1.270462e+06   3.468070e+06
  -8.571236e+05   1.527222e+06
  -1.892601e+05  -2.571257e+06
   2.399241e+06  -2.209408e+06
   2.227432e+06   2.960712e+06
  -2.247895e+06   5.532194e+06
  -6.206647e+06   7.266229e+05
  -4.419404e+06  -6.443203e+06
   1.947581e+06  -7.703396e+06
   6.902916e+06  -2.000183e+06
   6.448428e+06   4.287747e+06
   1.722909e+06   5.695991e+06
  -3.285165e+06   2.571409e+06
  -4.999217e+06  -1.423708e+06
  -2.334150e+06  -3.261555e+06
   2.213389e+06  -2.011462e+06
   4.175802e+06   9.086200e+05
   1.781558e+06   2.522352e+06
  -1.609176e+06   1.227934e+06
  -1.665966e+06  -9.729118e+05
   1.107916e+06  -8.861014e+05
   2.216479e+06   1.478833e+06
  -4.929357e+05   2.963965e+06
  -4.114735e+06   1.621576e+06
  -4.798741e+06  -1.255745e+06
  -2.075218e+06  -3.656343e+06
   1.868729e+06  -4.894155e+06
   4.966712e+06  -4.444887e+06
   5.947942e+06  -1.419422e+06
   4.175318e+06   3.188878e+06
   6.842951e+05   5.887656e+06
  -1.788346e+06   4.496516e+06
  -1.577975e+06   1.248573e+06
  -1.946862e+05  -3.713244e+04
  -2.192327e+05   1.059627e+06
  -1.810446e+06   1.627419e+06
  -2.826949e+06  -4.840970e+03
  -1.908711e+06  -2.097774e+06
   1.193970e+05  -2.201447e+06
   1.652072e+06  -1.735031e+05
   1.668838e+06   2.135416e+06
  -8.673419e+04   2.903039e+06
  -2.761338e+06   1.484109e+06
  -4.234888e+06  -1.344531e+06
  -2.883651e+06  -3.684438e+06
   2.034649e+05  -3.931481e+06
   2.191583e+06  -2.424835e+06
   2.061760e+06  -1.007409e+06
   1.714821e+06  -6.641706e+05
   2.842080e+06  -4.633320e+05
   4.210799e+06   7.822127e+05
   3.357704e+06   2.742249e+06
   6.555731e+04   4.045262e+06
  -3.233828e+06   3.773666e+06
  -4.183586e+06   1.970199e+06
  -2.605300e+06  -5.367333e+05
  -1.595971e+05  -2.245925e+06
   1.184875e+06  -1.862984e+06
   5.528941e+05   7.370097e+04
  -1.119516e+06   1.261876e+06
  -1.867139e+06   3.433100e+05
  -8.459145e+05  -1.199296e+06
   5.530937e+05  -1.096393e+06
   4.571545e+05   3.707582e+05
  -9.719540e+05   7.177534e+05
  -1.756439e+06  -1.138130e+06
  -6.815376e+05  -3.288628e+06
   1.416931e+06  -3.340561e+06
   2.987822e+06  -1.198245e+06
   3.281613e+06   1.346400e+06
   2.306087e+06   2.746530e+06
   4.489035e+05   2.623530e+06
  -1.267966e+06   1.434287e+06
  -1.579346e+06   1.852313e+05
  -4.859029e+05  -5.437305e+04
   3.412795e+05   7.469012e+05
  -4.216897e+05   1.294351e+06
  -1.862072e+06   5.247353e+05
  -1.967538e+06  -8.890242e+05
  -3.624650e+05  -1.378741e+06
   1.157202e+06  -5.494079e+05
   8.924298e+05   4.555747e+05
  -8.186693e+05   5.319375e+05
  -2.165520e+06  -2.974608e+05
  -1.757363e+06  -1.351624e+06
   2.384595e+05  -1.972574e+06
   2.306656e+06  -1.625841e+06
   2.749207e+06  -2.315958e+05
   1.172093e+06   1.259896e+06
  -9.326220e+05   1.441639e+06
  -1.520603e+06   1.447395e+05
  -1.601935e+05  -1.062159e+06
   1.509136e+06  -6.936217e+05
   1.682466e+06   7.914894e+05
   3.247927e+05   1.629385e+06
  -1.070884e+06   9.619825e+05
  -1.234565e+06  -3.016923e+05
  -2.456966e+05  -7.611470e+05
   7.739584e+05  -3.916640e+04
   7.022062e+05   1.053860e+06
  -6.031624e+05   1.396478e+06
  -2.001338e+06   4.929087e+05
  -1.991930e+06  -1.081872e+06
  -3.398571e+05  -2.056122e+06
   1.446790e+06  -1.595209e+06
   1.705074e+06  -1.830895e+05
   4.878523e+05   8.609075e+05
  -6.596913e+05   7.867089e+05
  -6.413508e+05   6.738763e+04
   1.050097e+05  -3.732390e+05
   4.995477e+05  -2.274734e+05
   1.591021e+05   5.956070e+04
  -4.111675e+05  -5.953505e+04
  -5.011064e+05  -6.444241e+05
   2.096552e+05  -1.159063e+06
   1.375291e+06  -8.629463e+05
   2.050692e+06   4.442458e+05
   1.412693e+06   1.948945e+06
  -2.567196e+05   2.397408e+06
  -1.620795e+06   1.386517e+06
  -1.681834e+06  -1.361989e+05
  -8.636639e+05  -9.085735e+05
  -3.247809e+05  -6.860237e+05
  -4.573651e+05  -2.569187e+05
  -5.875273e+05  -3.215738e+05
  -6.676758e+04  -7.435329e+05
   8.740226e+05  -8.770147e+05
   1.438694e+06  -3.098186e+05
   1.044841e+06   7.311423e+05
  -2.546861e+05   1.455350e+06
  -1.720170e+06   1.045747e+06
  -2.223076e+06  -5.116476e+05
  -1.094575e+06  -2.090885e+06
   1.024805e+06  -2.315341e+06
   2.516863e+06  -9.827246e+05
   2.316652e+06   6.720672e+05
   9.488342e+05   1.330791e+06
  -1.971422e+05   9.496550e+05
  -4.022239e+05   5.259773e+05
  -1.217148e+05   7.536444e+05
  -1.476059e+05   1.279663e+06
  -6.871675e+05   1.247960e+06
  -1.279016e+06   2.843036e+05
  -1.301996e+06  -1.097014e+06
  -5.161560e+05  -1.888158e+06
   6.437713e+05  -1.413534e+06
   1.273432e+06   2.050110e+04
   7.830313e+05   1.274648e+06
  -3.982678e+05   1.368159e+06
  -1.135430e+06   3.905344e+05
  -7.780703e+05  -6.804070e+05
   1.295845e+05  -1.041258e+06
   5.218685e+05  -7.585992e+05
   7.898298e+04  -4.154624e+05
  -4.213738e+05  -3.464856e+05
  -5.097127e+04  -3.837215e+05
   1.132414e+06  -1.873727e+05
   2.024796e+06   3.652968e+05
   1.579922e+06   1.047726e+06
  -5.411503e+04   1.404749e+06
  -1.580559e+06   1.090654e+06
  -1.809037e+06   2.497368e+05
  -8.139554e+05  -4.848879e+05
   2.652954e+05  -5.479800e+05
   4.996189e+05  -2.926639e+04
   1.352961e+04   4.100907e+05
  -4.496560e+05   2.482033e+05
  -4.696878e+05  -3.480895e+05
  -2.294841e+05  -7.295039e+05
  -7.713026e+04  -4.825402e+05
  -1.349410e+05   9.982228e+04
  -2.851770e+05   2.988009e+05
  -2.703415e+05  -2.324897e+05
   1.597761e+05  -9.814807e+05
   9.092309e+05  -1.039152e+06
   1.344225e+06  -1.377429e+05
   8.179444e+05   9.272977e+05
  -4.353525e+05   1.113162e+06
  -1.251050e+06   3.009432e+05
  -7.185238e+05  -5.836887e+05
   7.031699e+05  -6.312721e+05
   1.573307e+06   1.143243e+05
   9.923763e+05   8.626193e+05
  -4.833856e+05   9.735299e+05
  -1.487797e+06   4.623869e+05
  -1.222166e+06  -1.988949e+05
  -1.298328e+05  -5.108795e+05
   6.449428e+05  -2.589431e+05
   3.723007e+05   2.977127e+05
  -5.944402e+05   5.091235e+05
  -1.177054e+06  -1.027828e+05
  -6.467223e+05  -1.189900e+06
   6.175036e+05  -1.687053e+06
   1.492773e+06  -8.588256e+05
   1.239142e+06   7.721632e+05
   1.765448e+05   1.784803e+06
  -7.514459e+05   1.277189e+06
  -9.134986e+05  -1.861233e+05
  -4.119138e+05  -1.186460e+06
   2.280131e+05  -9.554337e+05
   5.571035e+05  -7.424515e+04
   4.593628e+05   3.784367e+05
   1.626261e+05   1.350173e+05
   4.815130e+04  -9.259366e+04
   2.700842e+05   3.032634e+05
   4.911408e+05   9.698288e+05
   1.753641e+05   1.069439e+06
  -7.147475e+05   3.762474e+05
  -1.459494e+06  -4.821314e+05
  -1.260092e+06  -8.448283e+05
  -1.729183e+05  -6.964588e+05
   8.534286e+05  -4.097581e+05
   9.787272e+05  -1.688528e+05
   3.565152e+05   6.226719e+04
  -1.474951e+05   2.243738e+05
  -3.791340e+04   1.970585e+05
   2.624237e+05   9.011135e+04
   5.035561e+04   1.350991e+05
  -6.595953e+05   2.343393e+05
  -1.043676e+06  -2.314954e+04
  -4.276915e+05  -7.029534e+05
   8.503212e+05  -1.170728e+06
   1.707532e+06  -7.333688e+05
   1.409244e+06   4.491190e+05
   2.616709e+05   1.404101e+06
  -7.818634e+05   1.361315e+06
  -1.054671e+06   5.283947e+05
  -6.524920e+05  -2.340447e+05
  -1.319753e+05  -3.608248e+05
   6.890459e+04  -7.402961e+04
  -7.910295e+04   9.754128e+03
  -2.905085e+05  -3.686223e+05
  -2.348756e+05  -8.051174e+05
   1.850864e+05  -6.772545e+05
   6.796748e+05   1.206526e+05
   7.357130e+05   9.524506e+05
   1.144425e+05   1.035407e+06
  -7.524584e+05   2.519064e+05
  -1.032538e+06  -7.203470e+05
  -3.433962e+05  -1.092141e+06
   7.185026e+05  -6.763304e+05
   1.119382e+06   8.374343e+04
   5.255348e+05   6.234812e+05
  -2.971040e+05   6.806766e+05
  -3.893420e+05   3.606220e+05
   2.401073e+05   2.922128e+03
   6.459087e+05  -3.654222e+04
   1.454516e+05   3.113624e+05
  -8.272426e+05   6.679914e+05
  -1.262347e+06   5.166087e+05
  -7.623631e+05  -1.948504e+05
   1.042460e+05  -8.690347e+05
   5.666879e+05  -8.475047e+05
   4.377979e+05  -1.593817e+05
   5.682270e+04   4.766201e+05
  -2.424867e+05   4.379336e+05
  -3.536553e+05  -1.404713e+05
  -2.505526e+05  -5.773600e+05
   5.732039e+04  -4.343445e+05
   3.915947e+05   4.354844e+04
   4.717456e+05   2.905800e+05
   2.381631e+05   1.032886e+05
  -3.405456e+04  -1.589444e+05
  -7.494929e+04  -5.807822e+04
   2.483126e+04   3.527982e+05
  -4.053877e+04   5.665877e+05
  -3.217032e+05   2.351701e+05
  -4.718415e+05  -3.757798e+05
  -1.694856e+05  -6.529440e+05
   4.061267e+05  -3.180515e+05
   6.698997e+05   2.789877e+05
   2.565068e+05   5.714183e+05
  -5.114573e+05   3.614185e+05
  -8.870839e+05  -7.852189e+04
  -4.783965e+05  -3.801913e+05
   2.984216e+05  -4.047710e+05
   6.450955e+05  -2.318092e+05
   2.583966e+05  -1.496639e+04
  -3.378790e+05   7.958329e+04
  -4.066052e+05  -5.211314e+04
   1.566877e+05  -2.865963e+05
   7.270544e+05  -2.740139e+05
