
 $NMID
 id='ANONYMOUS ', fmtdat='(2E16.6)'
 volume=1.0
 tramp=1.0
 $END
  -5.060472e+07  -6.375173e+05
  -3.030754e+07  -3.108225e+07
   6.567602e+06  -3.396515e+07
   2.468818e+07  -1.352749e+07
   1.501006e+07   5.763507e+06
  -2.726236e+06   8.399047e+06
  -8.927269e+06  -7.201438e+05
  -2.835455e+06  -8.740243e+06
   5.387452e+06  -8.791261e+06
   8.753015e+06  -2.070773e+06
   6.386691e+06   5.729880e+06
   6.746041e+05   7.988853e+06
  -3.732710e+06   2.406175e+06
  -2.452878e+06  -5.250967e+06
   3.407367e+06  -6.228674e+06
   7.178280e+06   1.097639e+06
   4.083882e+06   9.283078e+06
  -3.426878e+06   1.073359e+07
  -9.196591e+06   5.261692e+06
  -9.709683e+06  -2.053660e+06
  -5.723072e+06  -6.839694e+06
  -4.076691e+05  -7.600210e+06
   2.487480e+06  -5.197531e+06
   1.234455e+06  -2.504787e+06
  -1.297110e+06  -2.394073e+06
  -6.684984e+04  -4.181059e+06
   5.365757e+06  -3.991667e+06
   9.132617e+06  -1.568394e+05
   6.402270e+06   4.020765e+06
  -8.647302e+04   4.653224e+06
  -3.735132e+06   2.150496e+06
  -2.292555e+06  -3.336145e+05
   9.334633e+05  -1.129660e+06
   2.554734e+06  -3.741722e+05
   2.123822e+06   1.697332e+06
   3.817447e+05   3.890410e+06
  -1.826024e+06   3.433950e+06
  -2.774052e+06  -3.526201e+05
  -1.269665e+06  -3.328013e+06
   7.521804e+05  -1.453031e+06
   1.405471e+05   2.557947e+06
  -2.369218e+06   2.233434e+06
  -2.285256e+06  -2.870221e+06
   2.038406e+06  -5.532768e+06
   6.041802e+06  -9.250978e+05
   4.500965e+06   6.187103e+06
  -1.697241e+06   7.618243e+06
  -6.734247e+06   2.124320e+06
  -6.471962e+06  -4.119066e+06
  -1.833131e+06  -5.636329e+06
   3.224869e+06  -2.633270e+06
   5.024622e+06   1.321463e+06
   2.412861e+06   3.210731e+06
  -2.133303e+06   2.062351e+06
  -4.154060e+06  -7.937066e+05
  -1.833450e+06  -2.450925e+06
   1.555851e+06  -1.250829e+06
   1.684108e+06   9.422187e+05
  -1.067794e+06   9.526737e+05
  -2.273837e+06  -1.360341e+06
   3.274946e+05  -2.943924e+06
   3.971491e+06  -1.750745e+06
   4.782126e+06   1.084017e+06
   2.156107e+06   3.550040e+06
  -1.764049e+06   4.853464e+06
  -4.857067e+06   4.440141e+06
  -5.844178e+06   1.470842e+06
  -4.139511e+06  -3.078387e+06
  -7.533327e+05  -5.799581e+06
   1.689717e+06  -4.508452e+06
   1.560478e+06  -1.320440e+06
   2.626726e+05   1.128817e+04
   2.778097e+05  -1.007503e+06
   1.798550e+06  -1.559130e+06
   2.773259e+06   3.411284e+04
   1.861627e+06   2.091105e+06
  -1.479437e+05   2.179943e+06
  -1.665512e+06   1.492590e+05
  -1.669558e+06  -2.144244e+06
   7.747014e+04  -2.887311e+06
   2.718426e+06  -1.479914e+06
   4.182003e+06   1.287647e+06
   2.884642e+06   3.581437e+06
  -1.269691e+05   3.858748e+06
  -2.093920e+06   2.426447e+06
  -2.003241e+06   1.051711e+06
  -1.696381e+06   7.080509e+05
  -2.834234e+06   5.079515e+05
  -4.209751e+06  -7.260306e+05
  -3.378046e+06  -2.696547e+06
  -1.034205e+05  -4.034464e+06
   3.195726e+06  -3.784439e+06
   4.150843e+06  -1.978094e+06
   2.579190e+06   5.274550e+05
   1.517913e+05   2.223500e+06
  -1.172019e+06   1.842862e+06
  -5.430042e+05  -7.353518e+04
   1.108063e+06  -1.258220e+06
   1.851424e+06  -3.601482e+05
   8.474174e+05   1.176071e+06
  -5.493382e+05   1.091992e+06
  -4.727453e+05  -3.755467e+05
   9.634267e+05  -7.607321e+05
   1.803313e+06   1.077527e+06
   7.734068e+05   3.281747e+06
  -1.353578e+06   3.411808e+06
  -2.999669e+06   1.285922e+06
  -3.336137e+06  -1.309371e+06
  -2.346767e+06  -2.756379e+06
  -4.631584e+05  -2.637247e+06
   1.261078e+06  -1.437090e+06
   1.573642e+06  -1.889839e+05
   4.851675e+05   5.054604e+04
  -3.474501e+05  -7.423833e+05
   4.005654e+05  -1.294390e+06
   1.843442e+06  -5.473773e+05
   1.974237e+06   8.579044e+05
   3.840566e+05   1.370355e+06
  -1.150338e+06   5.628003e+05
  -9.022401e+05  -4.533022e+05
   8.191514e+05  -5.544242e+05
   2.187845e+06   2.746597e+05
   1.783018e+06   1.352411e+06
  -2.250752e+05   1.991838e+06
  -2.300323e+06   1.648724e+06
  -2.746477e+06   2.541263e+05
  -1.183077e+06  -1.242389e+06
   9.085342e+05  -1.442222e+06
   1.505989e+06  -1.632941e+05
   1.685756e+05   1.049488e+06
  -1.496600e+06   7.044279e+05
  -1.689926e+06  -7.727134e+05
  -3.457952e+05  -1.629776e+06
   1.062143e+06  -9.826055e+05
   1.246076e+06   2.839391e+05
   2.614727e+05   7.613921e+05
  -7.688633e+05   5.151991e+04
  -7.085110e+05  -1.042328e+06
   5.909399e+05  -1.394588e+06
   1.990479e+06  -5.044074e+05
   1.993039e+06   1.063121e+06
   3.569144e+05   2.047181e+06
  -1.427481e+06   1.606149e+06
  -1.701604e+06   2.008195e+05
  -4.986694e+05  -8.565841e+05
   6.521941e+05  -7.942131e+05
   6.433872e+05  -6.761869e+04
  -1.059314e+05   3.848497e+05
  -5.111244e+05   2.327903e+05
  -1.697951e+05  -7.314971e+04
   4.153953e+05   3.846967e+04
   5.181736e+05   6.340002e+05
  -1.918644e+05   1.163285e+06
  -1.364860e+06   8.764631e+05
  -2.051124e+06  -4.254872e+05
  -1.425332e+06  -1.932518e+06
   2.392255e+05  -2.396090e+06
   1.613748e+06  -1.401293e+06
   1.690242e+06   1.242601e+05
   8.724876e+05   9.146790e+05
   3.186422e+05   6.985348e+05
   4.429720e+05   2.540547e+05
   5.836097e+05   3.046188e+05
   7.690118e+04   7.347519e+05
  -8.642783e+05   8.865729e+05
  -1.439939e+06   3.234385e+05
  -1.053365e+06  -7.295909e+05
   2.459735e+05  -1.466017e+06
   1.714909e+06  -1.061615e+06
   2.227382e+06   4.949278e+05
   1.114500e+06   2.081361e+06
  -9.977708e+05   2.325168e+06
  -2.504358e+06   1.010285e+06
  -2.328188e+06  -6.490288e+05
  -9.677319e+05  -1.330758e+06
   1.926398e+05  -9.634203e+05
   4.113771e+05  -5.298561e+05
   1.256387e+05  -7.410269e+05
   1.360017e+05  -1.266054e+06
   6.691714e+05  -1.247610e+06
   1.269138e+06  -2.954113e+05
   1.305419e+06   1.083965e+06
   5.281209e+05   1.880047e+06
  -6.328079e+05   1.414635e+06
  -1.273304e+06  -1.008242e+04
  -7.965349e+05  -1.264950e+06
   3.811874e+05  -1.373434e+06
   1.130544e+06  -4.110301e+05
   7.908998e+05   6.627070e+05
  -1.091505e+05   1.041657e+06
  -5.077923e+05   7.709325e+05
  -7.571211e+04   4.222159e+05
   4.196566e+05   3.428651e+05
   5.193670e+04   3.822901e+05
  -1.126953e+06   1.997665e+05
  -2.021268e+06  -3.431592e+05
  -1.587739e+06  -1.030638e+06
   3.403188e+04  -1.403760e+06
   1.561176e+06  -1.105063e+06
   1.805295e+06  -2.691360e+05
   8.251603e+05   4.727341e+05
  -2.544766e+05   5.484880e+05
  -4.994651e+05   3.779552e+04
  -1.873105e+04  -4.027611e+05
   4.478543e+05  -2.474598e+05
   4.703006e+05   3.431590e+05
   2.276694e+05   7.224478e+05
   7.528890e+04   4.763154e+05
   1.382009e+05  -1.036138e+05
   2.909653e+05  -3.006831e+05
   2.731458e+05   2.304456e+05
  -1.565771e+05   9.798272e+05
  -8.984002e+05   1.043053e+06
  -1.330760e+06   1.502060e+05
  -8.167498e+05  -9.132685e+05
   4.212483e+05  -1.109149e+06
   1.237513e+06  -3.080709e+05
   7.187330e+05   5.780753e+05
  -6.968766e+05   6.376631e+05
  -1.576519e+06  -1.019869e+05
  -1.005298e+06  -8.595287e+05
   4.746976e+05  -9.849652e+05
   1.490792e+06  -4.783874e+05
   1.230225e+06   1.906525e+05
   1.347559e+05   5.131008e+05
  -6.438845e+05   2.663463e+05
  -3.737628e+05  -2.910457e+05
   5.894553e+05  -5.072322e+05
   1.170803e+06   9.767336e+04
   6.468205e+05   1.179999e+06
  -6.080754e+05   1.679952e+06
  -1.482779e+06   8.608800e+05
  -1.239504e+06  -7.639644e+05
  -1.861251e+05  -1.780662e+06
   7.445891e+05  -1.282588e+06
   9.175786e+05   1.774259e+05
   4.230774e+05   1.184855e+06
  -2.194821e+05   9.624837e+05
  -5.563238e+05   8.111405e+04
  -4.635444e+05  -3.789007e+05
  -1.656210e+05  -1.386287e+05
  -4.725285e+04   9.532098e+04
  -2.690667e+05  -2.930764e+05
  -4.958731e+05  -9.618155e+05
  -1.856087e+05  -1.071846e+06
   7.069124e+05  -3.863535e+05
   1.460733e+06   4.726433e+05
   1.267589e+06   8.394458e+05
   1.786118e+05   6.937723e+05
  -8.523826e+05   4.103803e+05
  -9.786885e+05   1.748861e+05
  -3.555085e+05  -5.447863e+04
   1.467721e+05  -2.230361e+05
   3.456004e+04  -2.035328e+05
  -2.644250e+05  -9.546757e+04
  -4.904513e+04  -1.329082e+05
   6.596977e+05  -2.311434e+05
   1.039391e+06   1.730552e+04
   4.252449e+05   6.908571e+05
  -8.424000e+05   1.165984e+06
  -1.692244e+06   7.421421e+05
  -1.400267e+06  -4.359213e+05
  -2.671197e+05  -1.397914e+06
   7.686729e+05  -1.362562e+06
   1.045425e+06  -5.306380e+05
   6.503005e+05   2.326236e+05
   1.320107e+05   3.569720e+05
  -6.936469e+04   6.752041e+04
   8.059684e+04  -1.479202e+04
   2.955935e+05   3.667399e+05
   2.411068e+05   8.035070e+05
  -1.803398e+05   6.747278e+05
  -6.763402e+05  -1.201062e+05
  -7.338233e+05  -9.456051e+05
  -1.160745e+05  -1.026334e+06
   7.471120e+05  -2.488072e+05
   1.028541e+06   7.145716e+05
   3.464561e+05   1.083854e+06
  -7.097901e+05   6.748758e+05
  -1.113362e+06  -7.576548e+04
  -5.284832e+05  -6.130815e+05
   2.877737e+05  -6.770026e+05
   3.816016e+05  -3.647571e+05
  -2.417474e+05  -7.028712e+03
  -6.442612e+05   3.862932e+04
  -1.463740e+05  -3.074574e+05
   8.215012e+05  -6.717015e+05
   1.255515e+06  -5.292485e+05
   7.607794e+05   1.825793e+05
  -9.743900e+04   8.653352e+05
  -5.549321e+05   8.505432e+05
  -4.287831e+05   1.628254e+05
  -5.576894e+04  -4.743723e+05
   2.376992e+05  -4.352547e+05
   3.500656e+05   1.416581e+05
   2.525796e+05   5.737685e+05
  -5.216596e+04   4.292590e+05
  -3.889593e+05  -4.247178e+04
  -4.734520e+05  -2.832127e+05
  -2.403512e+05  -9.934928e+04
   3.601336e+04   1.536858e+05
   8.098268e+04   5.172456e+04
  -1.961464e+04  -3.487730e+05
   3.993813e+04  -5.540649e+05
   3.148638e+05  -2.276443e+05
   4.636007e+05   3.711781e+05
   1.659958e+05   6.440192e+05
  -4.030094e+05   3.158569e+05
  -6.647055e+05  -2.741040e+05
  -2.557710e+05  -5.677237e+05
   5.061965e+05  -3.639160e+05
   8.810994e+05   7.249122e+04
   4.780248e+05   3.752318e+05
  -2.923728e+05   4.026309e+05
  -6.374141e+05   2.326101e+05
  -2.541509e+05   1.877175e+04
   3.372801e+05  -7.436814e+04
   4.030370e+05   5.516118e+04
  -1.602169e+05   2.856574e+05
  -7.283216e+05   2.717574e+05
