
 $NMID
 id='ANONYMOUS ', fmtdat='(2E16.6)'
 volume=1.0
 tramp=1.0
 $END
  -4.216809e+07  -5.055998e+05
  -2.572175e+07  -2.501860e+07
   4.657447e+06  -2.809495e+07
   2.027682e+07  -1.226748e+07
   1.299410e+07   3.821154e+06
  -1.782237e+06   7.117600e+06
  -7.651417e+06   7.300492e+04
  -3.001940e+06  -7.240415e+06
   4.140365e+06  -8.020022e+06
   7.424385e+06  -2.259833e+06
   5.556428e+06   4.905490e+06
   5.866809e+05   7.013590e+06
  -3.270079e+06   1.971079e+06
  -2.213938e+06  -4.859751e+06
   2.814758e+06  -5.740958e+06
   6.173401e+06   6.574848e+05
   3.688254e+06   7.849446e+06
  -2.729883e+06   9.206112e+06
  -7.744448e+06   4.475130e+06
  -8.109748e+06  -1.840378e+06
  -4.560544e+06  -5.737280e+06
  -1.919094e+05  -6.066446e+06
   1.771807e+06  -4.057224e+06
   3.911947e+05  -2.286939e+06
  -1.485832e+06  -2.656856e+06
   1.602178e+05  -4.067863e+06
   5.132989e+06  -3.409955e+06
   8.210874e+06   1.829063e+05
   5.468269e+06   3.692596e+06
  -4.463706e+05   3.986862e+06
  -3.608156e+06   1.577224e+06
  -1.965848e+06  -7.337033e+05
   1.341116e+06  -1.301352e+06
   2.819769e+06  -1.904955e+05
   1.952229e+06   1.973042e+06
  -3.670127e+03   3.704166e+06
  -1.750943e+06   2.826860e+06
  -2.103986e+06  -5.912869e+05
  -7.341678e+05  -2.805050e+06
   6.425171e+05  -8.342768e+05
  -1.207746e+05   2.593456e+06
  -2.181431e+06   2.106957e+06
  -2.074558e+06  -2.368382e+06
   1.413317e+06  -4.701828e+06
   4.751357e+06  -9.198407e+05
   3.732163e+06   5.025307e+06
  -1.252806e+06   6.331133e+06
  -5.663449e+06   1.814076e+06
  -5.767696e+06  -3.521828e+06
  -1.839293e+06  -4.990491e+06
   2.808069e+06  -2.509634e+06
   4.629862e+06   9.829233e+05
   2.379783e+06   2.769640e+06
  -1.702238e+06   1.882868e+06
  -3.601729e+06  -5.514190e+05
  -1.682765e+06  -2.031409e+06
   1.295581e+06  -1.095542e+06
   1.583212e+06   7.975128e+05
  -7.258234e+05   1.000223e+06
  -2.010758e+06  -8.094914e+05
  -1.001623e+05  -2.288373e+06
   3.037708e+06  -1.605724e+06
   4.050907e+06   6.450850e+05
   1.961993e+06   2.904611e+06
  -1.601304e+06   4.228713e+06
  -4.474039e+06   3.861481e+06
  -5.217211e+06   1.155516e+06
  -3.503924e+06  -2.829324e+06
  -5.643989e+05  -5.156269e+06
   1.382106e+06  -4.086474e+06
   1.271425e+06  -1.432681e+06
   4.007221e+05  -2.739027e+05
   6.429308e+05  -9.789234e+05
   1.950555e+06  -1.215054e+06
   2.607182e+06   3.535074e+05
   1.588247e+06   2.194754e+06
  -3.512562e+05   2.131584e+06
  -1.740071e+06   6.896759e+04
  -1.604564e+06  -2.148565e+06
   1.565249e+05  -2.725487e+06
   2.547124e+06  -1.234763e+06
   3.690948e+06   1.317445e+06
   2.416566e+06   3.203858e+06
  -1.773532e+05   3.277812e+06
  -1.763234e+06   2.022344e+06
  -1.644260e+06   9.467791e+05
  -1.471499e+06   7.393365e+05
  -2.605893e+06   5.540084e+05
  -3.903140e+06  -6.175821e+05
  -3.152910e+06  -2.484611e+06
  -1.029045e+05  -3.774473e+06
   3.032888e+06  -3.528404e+06
   3.947661e+06  -1.757824e+06
   2.381725e+06   6.185071e+05
   4.657465e+03   2.114818e+06
  -1.198897e+06   1.660451e+06
  -4.932127e+05  -1.129192e+05
   1.078548e+06  -1.151935e+06
   1.705267e+06  -3.168990e+05
   7.324206e+05   1.081187e+06
  -5.592624e+05   1.023572e+06
  -5.170565e+05  -3.442031e+05
   7.954556e+05  -8.338463e+05
   1.700196e+06   7.463452e+05
   9.605846e+05   2.907112e+06
  -9.676704e+05   3.329724e+06
  -2.718581e+06   1.507957e+06
  -3.281723e+06  -1.060242e+06
  -2.383962e+06  -2.641199e+06
  -4.801129e+05  -2.576211e+06
   1.226763e+06  -1.357500e+06
   1.503944e+06  -1.438764e+05
   4.565536e+05   4.954334e+04
  -3.279421e+05  -6.959151e+05
   3.485212e+05  -1.185724e+06
   1.674516e+06  -5.093843e+05
   1.828188e+06   7.551959e+05
   3.886423e+05   1.247857e+06
  -1.067737e+06   5.449151e+05
  -8.924930e+05  -4.235786e+05
   7.422498e+05  -5.962827e+05
   2.125401e+06   1.730366e+05
   1.790211e+06   1.279386e+06
  -1.607299e+05   1.954359e+06
  -2.182897e+06   1.607934e+06
  -2.598592e+06   2.519601e+05
  -1.105771e+06  -1.143260e+06
   8.342452e+05  -1.310987e+06
   1.363501e+06  -1.421728e+05
   1.298382e+05   9.569770e+05
  -1.396668e+06   6.492436e+05
  -1.593519e+06  -7.043879e+05
  -3.702941e+05  -1.529885e+06
   9.632722e+05  -9.731256e+05
   1.189299e+06   2.104632e+05
   2.899577e+05   6.991087e+05
  -6.944840e+05   5.826051e+04
  -6.515246e+05  -9.720435e+05
   5.709634e+05  -1.299480e+06
   1.875790e+06  -4.511678e+05
   1.860923e+06   1.012745e+06
   3.306173e+05   1.917140e+06
  -1.326802e+06   1.507367e+06
  -1.593684e+06   2.053043e+05
  -4.883010e+05  -7.968833e+05
   6.043172e+05  -7.596590e+05
   6.329970e+05  -5.836816e+04
  -7.944703e+04   4.127971e+05
  -5.241004e+05   2.674804e+05
  -2.397474e+05  -8.727112e+04
   3.531844e+05  -3.549989e+04
   5.143259e+05   5.419389e+05
  -1.410349e+05   1.086750e+06
  -1.271141e+06   8.347083e+05
  -1.929302e+06  -3.961572e+05
  -1.334679e+06  -1.818120e+06
   2.321922e+05  -2.266877e+06
   1.532093e+06  -1.353793e+06
   1.632030e+06   9.361588e+04
   8.754150e+05   9.020221e+05
   3.119018e+05   7.459309e+05
   3.689692e+05   2.909354e+05
   4.964307e+05   2.651503e+05
   6.523740e+04   6.564676e+05
  -7.989443e+05   8.447032e+05
  -1.369973e+06   3.310579e+05
  -1.031225e+06  -7.018030e+05
   2.107491e+05  -1.428534e+06
   1.625471e+06  -1.030313e+06
   2.118032e+06   4.625750e+05
   1.074048e+06   1.956603e+06
  -9.029510e+05   2.188906e+06
  -2.332611e+06   9.794506e+05
  -2.217296e+06  -5.719623e+05
  -9.733590e+05  -1.257965e+06
   1.522230e+05  -9.640340e+05
   4.300987e+05  -5.464349e+05
   1.896829e+05  -6.879624e+05
   1.633092e+05  -1.147920e+06
   6.200916e+05  -1.142458e+06
   1.174285e+06  -2.656891e+05
   1.216825e+06   1.029502e+06
   4.865249e+05   1.776596e+06
  -6.072074e+05   1.331695e+06
  -1.205727e+06  -4.176111e+03
  -7.613953e+05  -1.174687e+06
   3.289118e+05  -1.292465e+06
   1.030148e+06  -4.271697e+05
   7.428717e+05   5.647733e+05
  -6.078457e+04   9.497629e+05
  -4.271529e+05   7.362284e+05
  -5.178963e+04   4.211261e+05
   3.837652e+05   3.359263e+05
   4.084947e+04   3.651786e+05
  -1.044580e+06   1.934560e+05
  -1.878853e+06  -3.163102e+05
  -1.494727e+06  -9.573460e+05
   1.150133e+03  -1.299956e+06
   1.434911e+06  -1.028449e+06
   1.690065e+06  -2.740897e+05
   7.918273e+05   4.040145e+05
  -2.224336e+05   4.965272e+05
  -4.601070e+05   5.325970e+04
  -4.214688e+03  -3.521151e+05
   4.372117e+05  -2.227327e+05
   4.367008e+05   3.259770e+05
   1.779747e+05   6.896731e+05
   3.772604e+04   4.498193e+05
   1.359193e+05  -1.200025e+05
   3.029094e+05  -3.095605e+05
   2.634773e+05   2.148921e+05
  -1.684560e+05   9.339761e+05
  -8.491262e+05   9.741683e+05
  -1.215061e+06   1.167648e+05
  -7.273800e+05  -8.634416e+05
   3.998797e+05  -1.013071e+06
   1.143814e+06  -2.545285e+05
   6.696113e+05   5.588500e+05
  -6.516097e+05   6.064491e+05
  -1.503657e+06  -8.384080e+04
  -9.914279e+05  -8.086914e+05
   4.201843e+05  -9.583850e+05
   1.421410e+06  -4.936949e+05
   1.193367e+06   1.611663e+05
   1.425349e+05   4.942419e+05
  -6.060140e+05   2.658034e+05
  -3.415485e+05  -2.648841e+05
   5.736378e+05  -4.587276e+05
   1.100038e+06   1.230496e+05
   5.729946e+05   1.128656e+06
  -6.189188e+05   1.567828e+06
  -1.421546e+06   7.805332e+05
  -1.164452e+06  -7.421617e+05
  -1.604087e+05  -1.692660e+06
   7.134653e+05  -1.227404e+06
   8.752367e+05   1.519021e+05
   4.168850e+05   1.122246e+06
  -1.853500e+05   9.282381e+05
  -5.193077e+05   8.675243e+04
  -4.574025e+05  -3.675358e+05
  -1.787168e+05  -1.412790e+05
  -3.684878e+04   9.787953e+04
  -2.209106e+05  -2.604469e+05
  -4.520558e+05  -9.053855e+05
  -1.976428e+05  -1.023092e+06
   6.394726e+05  -3.694713e+05
   1.384987e+06   4.569593e+05
   1.222079e+06   8.038587e+05
   1.688488e+05   6.523775e+05
  -8.324629e+05   3.789175e+05
  -9.369734e+05   1.680262e+05
  -3.175377e+05  -3.826795e+04
   1.493098e+05  -2.069825e+05
   7.498443e+03  -2.082708e+05
  -2.777384e+05  -1.102616e+05
  -3.378860e+04  -1.270532e+05
   6.564856e+05  -1.998526e+05
   9.783158e+05   3.363365e+04
   3.534305e+05   6.486705e+05
  -8.331426e+05   1.075266e+06
  -1.584798e+06   6.665482e+05
  -1.282171e+06  -4.386070e+05
  -2.278605e+05  -1.328116e+06
   7.303659e+05  -1.271796e+06
   9.909125e+05  -4.720753e+05
   6.155335e+05   2.425479e+05
   1.088727e+05   3.371858e+05
  -9.013824e+04   4.406812e+04
   6.836222e+04  -3.369156e+04
   2.902693e+05   3.415272e+05
   2.321930e+05   7.623637e+05
  -1.823287e+05   6.292799e+05
  -6.422315e+05  -1.400751e+05
  -6.654828e+05  -9.187850e+05
  -6.797829e+04  -9.655629e+05
   7.236334e+05  -1.989203e+05
   9.534362e+05   7.106195e+05
   2.977508e+05   1.024867e+06
  -6.807587e+05   6.091978e+05
  -1.036763e+06  -9.033610e+04
  -4.784142e+05  -5.646173e+05
   2.752076e+05  -6.114649e+05
   3.411034e+05  -3.363333e+05
  -2.526872e+05  -2.075833e+04
  -6.154629e+05   2.513187e+04
  -1.266980e+05  -2.865135e+05
   7.834494e+05  -6.296174e+05
   1.171626e+06  -5.075792e+05
   6.932326e+05   1.587976e+05
  -1.027329e+05   8.063344e+05
  -5.105025e+05   7.890024e+05
  -3.803840e+05   1.328399e+05
  -3.341413e+04  -4.582049e+05
   2.330996e+05  -3.945697e+05
   3.289561e+05   1.602572e+05
   2.286189e+05   5.454663e+05
  -5.866540e+04   3.838304e+05
  -3.652654e+05  -5.435725e+04
  -4.373249e+05  -2.564397e+05
  -2.267462e+05  -8.233912e+04
   2.213942e+04   1.269769e+05
   7.822199e+04   1.292153e+04
   1.802348e+04  -3.420372e+05
   8.703474e+04  -4.947305e+05
   3.114135e+05  -1.688595e+05
   4.014177e+05   3.809302e+05
   1.085922e+05   6.109718e+05
  -3.951927e+05   2.814675e+05
  -6.082595e+05  -2.808798e+05
  -2.224500e+05  -5.476776e+05
   4.753287e+05  -3.348588e+05
   8.170414e+05   8.829619e+04
   4.401695e+05   3.602119e+05
  -2.797464e+05   3.595971e+05
  -5.971443e+05   1.913846e+05
  -2.220132e+05   1.228791e+04
   3.433536e+05  -4.583097e+04
   3.880759e+05   8.340433e+04
  -1.765616e+05   2.817378e+05
  -7.250954e+05   2.444277e+05
