
 $NMID
 id='ANONYMOUS ', fmtdat='(2E16.6)'
 volume=1.0
 tramp=1.0
 $END
  -3.968649e+07   1.613391e+06
  -2.614202e+07  -2.114441e+07
   1.887727e+06  -2.646470e+07
   1.818780e+07  -1.389909e+07
   1.317454e+07   1.692933e+06
  -6.827516e+05   6.991189e+06
  -7.552387e+06   1.318239e+06
  -4.036970e+06  -6.678151e+06
   3.115352e+06  -8.714027e+06
   7.107678e+06  -3.188899e+06
   5.762536e+06   4.542061e+06
   8.866439e+05   7.044734e+06
  -3.184963e+06   1.947495e+06
  -2.486511e+06  -5.131167e+06
   2.400177e+06  -6.277734e+06
   6.126232e+06  -6.014041e+03
   4.223325e+06   7.389201e+06
  -1.977399e+06   9.161143e+06
  -7.183846e+06   4.703641e+06
  -7.728614e+06  -1.507242e+06
  -4.286860e+06  -5.198162e+06
  -3.112408e+05  -5.319733e+06
   1.029135e+06  -3.569833e+06
  -5.798714e+05  -2.515134e+06
  -1.994576e+06  -3.366295e+06
   3.126811e+05  -4.594047e+06
   5.561928e+06  -3.490393e+06
   8.500135e+06   2.656568e+05
   5.458534e+06   3.680212e+06
  -7.425494e+05   3.869512e+06
  -3.955352e+06   1.307985e+06
  -1.902737e+06  -1.214216e+06
   1.998468e+06  -1.705805e+06
   3.557503e+06  -7.214196e+04
   2.113539e+06   2.531284e+06
  -3.066129e+05   4.066352e+06
  -1.810339e+06   2.671682e+06
  -1.692226e+06  -8.261889e+05
  -3.879596e+05  -2.604992e+06
   5.401724e+05  -3.074502e+05
  -3.618337e+05   3.038156e+06
  -2.256685e+06   2.394991e+06
  -2.297794e+06  -2.113615e+06
   7.281444e+05  -4.646497e+06
   4.060694e+06  -1.329641e+06
   3.744291e+06   4.367947e+06
  -6.524557e+05   6.012283e+06
  -5.314129e+06   2.034485e+06
  -6.089493e+06  -3.197050e+06
  -2.357619e+06  -5.036139e+06
   2.717590e+06  -2.906042e+06
   5.010760e+06   5.920343e+05
   2.858557e+06   2.656431e+06
  -1.425299e+06   2.080470e+06
  -3.613273e+06  -2.119874e+05
  -1.890107e+06  -1.829265e+06
   1.169420e+06  -1.162923e+06
   1.767018e+06   7.098855e+05
  -4.376080e+05   1.270772e+06
  -2.123104e+06  -2.415075e+05
  -7.252078e+05  -1.968198e+06
   2.431205e+06  -1.886899e+06
   3.960640e+06   6.915164e+04
   2.216116e+06   2.583430e+06
  -1.497364e+06   4.289452e+06
  -4.612273e+06   4.019347e+06
  -5.309979e+06   1.207329e+06
  -3.476596e+06  -2.851320e+06
  -6.601290e+05  -5.249084e+06
   1.102841e+06  -4.356869e+06
   1.124368e+06  -1.861113e+06
   6.409431e+05  -6.391005e+05
   1.128023e+06  -1.092385e+06
   2.374673e+06  -1.070788e+06
   2.829590e+06   6.787711e+05
   1.596090e+06   2.599302e+06
  -5.706512e+05   2.417318e+06
  -2.099297e+06   3.252039e+04
  -1.856729e+06  -2.453944e+06
   1.759509e+05  -2.988771e+06
   2.714034e+06  -1.253851e+06
   3.783824e+06   1.411687e+06
   2.421239e+06   3.191461e+06
  -1.094617e+05   3.167112e+06
  -1.584028e+06   1.987610e+06
  -1.475082e+06   1.069607e+06
  -1.443933e+06   9.617685e+05
  -2.768555e+06   7.951433e+05
  -4.232294e+06  -4.542830e+05
  -3.513863e+06  -2.542766e+06
  -2.544014e+05  -4.102248e+06
   3.222906e+06  -3.927414e+06
   4.297505e+06  -1.935548e+06
   2.561024e+06   7.336670e+05
  -8.766958e+04   2.326320e+06
  -1.359401e+06   1.761028e+06
  -5.167187e+05  -1.564859e+05
   1.179447e+06  -1.255847e+06
   1.807863e+06  -3.836934e+05
   7.640453e+05   1.119747e+06
  -6.255834e+05   1.129106e+06
  -6.635774e+05  -3.559442e+05
   7.223030e+05  -1.091815e+06
   1.919224e+06   4.402161e+05
   1.449721e+06   2.957369e+06
  -5.900110e+05   3.852100e+06
  -2.829763e+06   2.111777e+06
  -3.817110e+06  -8.544480e+05
  -2.906778e+06  -2.881078e+06
  -6.592228e+05  -2.919983e+06
   1.342888e+06  -1.531420e+06
   1.664578e+06  -1.680436e+05
   5.011144e+05   4.014727e+04
  -3.843919e+05  -7.471730e+05
   3.031526e+05  -1.274143e+06
   1.742460e+06  -6.151633e+05
   1.996631e+06   6.974729e+05
   5.048060e+05   1.304596e+06
  -1.133811e+06   6.522047e+05
  -1.042839e+06  -4.343972e+05
   7.666865e+05  -7.705811e+05
   2.421577e+06   2.064270e+04
   2.137526e+06   1.357832e+06
  -5.518311e+04   2.245518e+06
  -2.360459e+06   1.901903e+06
  -2.853132e+06   3.811064e+05
  -1.243872e+06  -1.180305e+06
   8.373246e+05  -1.410817e+06
   1.421581e+06  -1.953379e+05
   1.440818e+05   1.002964e+06
  -1.490522e+06   7.440856e+05
  -1.774629e+06  -6.883622e+05
  -5.124341e+05  -1.661134e+06
   9.819271e+05  -1.159551e+06
   1.334067e+06   1.233286e+05
   3.948198e+05   7.385752e+05
  -7.253169e+05   1.017126e+05
  -7.299287e+05  -1.030227e+06
   5.965340e+05  -1.426210e+06
   2.038895e+06  -5.314616e+05
   2.054129e+06   1.056489e+06
   4.239743e+05   2.075148e+06
  -1.378945e+06   1.693253e+06
  -1.729110e+06   3.011195e+05
  -5.853568e+05  -8.454168e+05
   6.249323e+05  -8.673839e+05
   7.222675e+05  -7.633939e+04
  -5.485565e+04   5.170161e+05
  -6.214385e+05   3.636873e+05
  -3.585750e+05  -1.182403e+05
   3.488658e+05  -1.409808e+05
   6.204119e+05   5.131870e+05
  -6.810282e+04   1.190021e+06
  -1.347750e+06   9.721750e+05
  -2.125727e+06  -3.606058e+05
  -1.517506e+06  -1.942151e+06
   1.837290e+05  -2.503120e+06
   1.648743e+06  -1.576053e+06
   1.841174e+06   2.135523e+04
   1.050321e+06   1.010546e+06
   3.730368e+05   9.112873e+05
   3.523535e+05   3.617101e+05
   4.930607e+05   2.418248e+05
   9.041099e+04   6.746315e+05
  -8.287479e+05   9.675656e+05
  -1.509259e+06   4.415162e+05
  -1.200382e+06  -7.541605e+05
   1.606047e+05  -1.632133e+06
   1.760660e+06  -1.221658e+06
   2.361757e+06   4.302484e+05
   1.274780e+06   2.104550e+06
  -8.691135e+05   2.432840e+06
  -2.493538e+06   1.190806e+06
  -2.482473e+06  -5.048478e+05
  -1.183223e+06  -1.355920e+06
   1.043747e+05  -1.131572e+06
   5.074035e+05  -6.654041e+05
   2.668337e+05  -7.411676e+05
   1.753575e+05  -1.207113e+06
   6.236882e+05  -1.236062e+06
   1.251079e+06  -3.197920e+05
   1.353543e+06   1.094019e+06
   5.819819e+05   1.935257e+06
  -6.316979e+05   1.478351e+06
  -1.329389e+06   4.319456e+04
  -8.904134e+05  -1.241926e+06
   2.793599e+05  -1.429572e+06
   1.077128e+06  -5.550739e+05
   8.377852e+05   5.225384e+05
   1.962217e+04   1.010401e+06
  -3.831230e+05   8.390497e+05
  -2.142327e+04   4.928171e+05
   4.177020e+05   3.685544e+05
   4.784260e+04   4.040003e+05
  -1.118633e+06   2.570543e+05
  -2.041662e+06  -2.695901e+05
  -1.672215e+06  -9.807098e+05
  -8.295454e+04  -1.401732e+06
   1.493178e+06  -1.166560e+06
   1.832179e+06  -3.850156e+05
   9.032963e+05   3.679252e+05
  -2.038010e+05   5.301772e+05
  -4.920694e+05   9.652272e+04
  -4.453256e+03  -3.522702e+05
   4.879280e+05  -2.459191e+05
   4.824257e+05   3.441332e+05
   1.757403e+05   7.563212e+05
   1.812516e+04   4.893728e+05
   1.538414e+05  -1.622221e+05
   3.580172e+05  -3.779249e+05
   3.043012e+05   2.245596e+05
  -1.773570e+05   1.040694e+06
  -8.990769e+05   1.087714e+06
  -1.280108e+06   1.457791e+05
  -7.780725e+05  -9.200678e+05
   4.028445e+05  -1.086880e+06
   1.215112e+06  -2.798068e+05
   7.433711e+05   6.047752e+05
  -6.875404e+05   6.949425e+05
  -1.673940e+06  -2.630115e+04
  -1.167479e+06  -8.547924e+05
   3.981067e+05  -1.103979e+06
   1.564995e+06  -6.400240e+05
   1.356059e+06   1.165946e+05
   1.907668e+05   5.510914e+05
  -6.557757e+05   3.300773e+05
  -3.721556e+05  -2.663943e+05
   6.322102e+05  -4.985634e+05
   1.203295e+06   1.323629e+05
   6.232579e+05   1.232993e+06
  -6.755496e+05   1.717868e+06
  -1.556114e+06   8.672325e+05
  -1.296198e+06  -7.982434e+05
  -2.164437e+05  -1.865640e+06
   7.547729e+05  -1.391580e+06
   9.789815e+05   1.189075e+05
   5.172963e+05   1.224421e+06
  -1.477658e+05   1.051465e+06
  -5.617579e+05   1.259463e+05
  -5.374384e+05  -4.014465e+05
  -2.262443e+05  -1.635711e+05
  -2.877363e+04   1.188001e+05
  -2.147608e+05  -2.559182e+05
  -5.096620e+05  -9.739449e+05
  -2.778694e+05  -1.132334e+06
   6.573866e+05  -4.366793e+05
   1.543170e+06   4.666593e+05
   1.399090e+06   8.562016e+05
   2.089345e+05   7.077608e+05
  -9.327081e+05   4.325589e+05
  -1.038942e+06   2.194414e+05
  -3.304386e+05  -1.358139e+04
   1.689007e+05  -2.271992e+05
  -2.682546e+04  -2.505364e+05
  -3.397579e+05  -1.380293e+05
  -2.673740e+04  -1.390507e+05
   7.516874e+05  -2.175009e+05
   1.070632e+06   2.268794e+04
   3.551546e+05   6.909820e+05
  -9.191259e+05   1.176471e+06
  -1.698970e+06   7.491844e+05
  -1.374467e+06  -4.643036e+05
  -2.675291e+05  -1.458206e+06
   7.617551e+05  -1.405223e+06
   1.073689e+06  -5.191114e+05
   6.841803e+05   2.719806e+05
   1.129196e+05   3.652409e+05
  -1.242687e+05   2.595228e+04
   6.699456e+04  -6.330518e+04
   3.444313e+05   3.607648e+05
   2.865965e+05   8.343260e+05
  -1.916807e+05   6.872988e+05
  -7.119080e+05  -1.631130e+05
  -7.284138e+05  -1.013611e+06
  -6.014639e+04  -1.049879e+06
   8.054879e+05  -1.998152e+05
   1.047824e+06   7.874417e+05
   3.285281e+05   1.114179e+06
  -7.359895e+05   6.592923e+05
  -1.123364e+06  -8.340793e+04
  -5.228597e+05  -5.848292e+05
   2.821800e+05  -6.486803e+05
   3.397990e+05  -3.740197e+05
  -3.053680e+05  -3.296803e+04
  -6.825099e+05   3.517666e+04
  -1.362194e+05  -3.047045e+05
   8.473179e+05  -7.129364e+05
   1.254121e+06  -6.092957e+05
   7.392895e+05   1.316381e+05
  -9.604682e+04   8.757885e+05
  -5.160149e+05   8.696939e+05
  -3.824612e+05   1.374716e+05
  -2.919929e+04  -5.122337e+05
   2.506613e+05  -4.216140e+05
   3.623814e+05   1.953292e+05
   2.583559e+05   5.945794e+05
  -5.972911e+04   3.976673e+05
  -3.993493e+05  -6.338940e+04
  -4.792460e+05  -2.525842e+05
  -2.529909e+05  -6.908781e+04
   1.681352e+04   1.162982e+05
   9.225755e+04  -3.031804e+04
   5.189012e+04  -3.873921e+05
   1.329107e+05  -5.081284e+05
   3.478036e+05  -1.410794e+05
   4.086830e+05   4.361791e+05
   8.415228e+04   6.657092e+05
  -4.396945e+05   3.019438e+05
  -6.531742e+05  -3.110316e+05
  -2.400897e+05  -6.055264e+05
   5.065337e+05  -3.746095e+05
   8.812532e+05   9.003480e+04
   4.825016e+05   3.860807e+05
  -2.968877e+05   3.804173e+05
  -6.408290e+05   1.986430e+05
  -2.218945e+05   1.686258e+04
   4.020982e+05  -3.117117e+04
   4.346965e+05   1.154561e+05
  -2.149613e+05   3.270289e+05
  -8.304796e+05   2.756975e+05
