
 $NMID
 id='ANONYMOUS ', fmtdat='(2E16.6)'
 volume=1.0
 tramp=1.0
 $END
   3.006646e+07   4.444888e+05
   1.937773e+07   1.556922e+07
  -1.315918e+06   1.939651e+07
  -1.363658e+07   1.126785e+07
  -1.044295e+07  -1.565135e+05
  -1.327464e+04  -5.373161e+06
   5.953893e+06  -1.856675e+06
   3.822110e+06   4.990629e+06
  -1.965229e+06   7.521602e+06
  -5.597659e+06   3.024197e+06
  -4.604827e+06  -3.853417e+06
  -5.054447e+05  -5.977687e+06
   2.790748e+06  -1.348033e+06
   2.100272e+06   4.729005e+06
  -1.884668e+06   5.539439e+06
  -4.875252e+06   2.064183e+05
  -3.354831e+06  -5.884673e+06
   1.646861e+06  -7.223143e+06
   5.766451e+06  -3.385249e+06
   5.845918e+06   1.710269e+06
   2.677261e+06   4.253657e+06
  -3.200507e+05   3.654099e+06
  -5.373777e+05   2.136358e+06
   1.391634e+06   2.076410e+06
   2.181624e+06   3.581499e+06
  -6.214507e+05   4.453554e+06
  -5.393320e+06   2.720346e+06
  -7.480918e+06  -8.972585e+05
  -4.305117e+06  -3.537958e+06
   1.282929e+06  -3.201896e+06
   3.910713e+06  -6.402697e+05
   1.615808e+06   1.708624e+06
  -2.389754e+06   1.943467e+06
  -3.843333e+06  -1.094738e+05
  -1.928671e+06  -2.878440e+06
   8.222824e+05  -3.916161e+06
   1.888332e+06  -1.948788e+06
   1.005567e+06   1.250452e+06
  -3.272772e+05   2.138920e+06
  -5.490219e+05  -3.923399e+05
   6.626778e+05  -3.091782e+06
   2.080164e+06  -2.160425e+06
   1.923192e+06   1.621695e+06
  -2.555422e+05   3.557042e+06
  -2.626194e+06   9.994540e+05
  -2.583554e+06  -3.247429e+06
   4.851594e+05  -4.435774e+06
   4.168171e+06  -1.394628e+06
   5.091673e+06   2.714006e+06
   2.147933e+06   4.297674e+06
  -2.292373e+06   2.631429e+06
  -4.454461e+06  -3.495790e+05
  -2.677086e+06  -2.202376e+06
   1.003408e+06  -1.784735e+06
   2.936236e+06   9.056647e+04
   1.615349e+06   1.420653e+06
  -9.164006e+05   9.326637e+05
  -1.610989e+06  -5.862053e+05
   5.894750e+04  -1.246551e+06
   1.705450e+06  -2.883273e+05
   1.038218e+06   1.157905e+06
  -1.434415e+06   1.490077e+06
  -3.030280e+06   2.073188e+05
  -1.813191e+06  -1.920804e+06
   1.491949e+06  -3.502571e+06
   4.316774e+06  -3.199270e+06
   4.647412e+06  -6.514726e+05
   2.659285e+06   2.725102e+06
   2.501304e+05   4.545115e+06
  -9.032652e+05   3.779671e+06
  -8.113545e+05   1.885226e+06
  -7.411113e+05   9.477534e+05
  -1.523049e+06   1.099347e+06
  -2.581287e+06   6.916054e+05
  -2.670969e+06  -1.072944e+06
  -1.283345e+06  -2.751980e+06
   8.118036e+05  -2.381660e+06
   2.176198e+06   4.981465e+04
   1.750207e+06   2.460348e+06
  -3.196744e+05   2.799762e+06
  -2.564149e+06   9.146201e+05
  -3.201573e+06  -1.573425e+06
  -1.768742e+06  -2.876323e+06
   3.268796e+05  -2.511967e+06
   1.320580e+06  -1.433166e+06
   1.105551e+06  -8.422096e+05
   1.185407e+06  -9.153250e+05
   2.480710e+06  -7.554250e+05
   3.813238e+06   4.430124e+05
   3.150595e+06   2.368175e+06
   1.532056e+05   3.770837e+06
  -3.099880e+06   3.529453e+06
  -4.093353e+06   1.584414e+06
  -2.333904e+06  -8.899879e+05
   2.888958e+05  -2.212990e+06
   1.432966e+06  -1.542055e+06
   4.725912e+05   2.083052e+05
  -1.163860e+06   1.113417e+06
  -1.645576e+06   2.923099e+05
  -6.071284e+05  -1.037096e+06
   6.526585e+05  -1.050372e+06
   7.004421e+05   3.048254e+05
  -5.167490e+05   1.118234e+06
  -1.703052e+06  -1.072543e+05
  -1.524487e+06  -2.485954e+06
   2.196472e+05  -3.630166e+06
   2.463744e+06  -2.237682e+06
   3.649505e+06   6.305321e+05
   2.857369e+06   2.748583e+06
   6.253251e+05   2.821988e+06
  -1.325315e+06   1.403181e+06
  -1.584558e+06   8.332263e+04
  -4.654610e+05  -5.188027e+04
   3.442133e+05   6.933147e+05
  -2.731647e+05   1.127454e+06
  -1.550610e+06   5.190085e+05
  -1.791768e+06  -6.224691e+05
  -4.758701e+05  -1.161193e+06
   1.033669e+06  -6.058948e+05
   1.011884e+06   3.978406e+05
  -6.624471e+05   7.772575e+05
  -2.293189e+06   5.449494e+04
  -2.087549e+06  -1.276994e+06
   1.264769e+04  -2.160442e+06
   2.230438e+06  -1.786008e+06
   2.664969e+06  -3.143238e+05
   1.116363e+06   1.089867e+06
  -7.877131e+05   1.232000e+06
  -1.260443e+06   1.290200e+05
  -7.633994e+04  -9.011231e+05
   1.381047e+06  -6.434934e+05
   1.630211e+06   6.408969e+05
   5.003278e+05   1.534525e+06
  -8.739680e+05   1.111241e+06
  -1.243630e+06  -6.042189e+04
  -4.099695e+05  -6.581410e+05
   6.260670e+05  -9.039107e+04
   6.311111e+05   9.509946e+05
  -5.975891e+05   1.287529e+06
  -1.899515e+06   4.200807e+05
  -1.861100e+06  -1.036272e+06
  -3.421131e+05  -1.918001e+06
   1.291603e+06  -1.531979e+06
   1.598225e+06  -2.634963e+05
   5.533693e+05   7.806555e+05
  -5.773389e+05   8.091264e+05
  -7.081339e+05   6.308498e+04
   1.611740e+04  -5.309712e+05
   6.164510e+05  -3.953709e+05
   4.304662e+05   1.143691e+05
  -2.574382e+05   1.970018e+05
  -5.764305e+05  -4.140566e+05
   4.431748e+04  -1.075227e+06
   1.246614e+06  -8.754058e+05
   1.952837e+06   3.737939e+05
   1.352189e+06   1.828186e+06
  -2.293400e+05   2.329232e+06
  -1.568051e+06   1.472626e+06
  -1.751346e+06  -1.987356e+04
  -1.030424e+06  -9.999375e+05
  -3.627302e+05  -9.642979e+05
  -2.685956e+05  -4.222463e+05
  -3.743761e+05  -2.211823e+05
  -4.554663e+04  -5.818703e+05
   7.695448e+05  -8.810248e+05
   1.414281e+06  -4.063701e+05
   1.141417e+06   7.349591e+05
  -1.488450e+05   1.558569e+06
  -1.659287e+06   1.129158e+06
  -2.198372e+06  -4.396493e+05
  -1.165494e+06  -1.961395e+06
   8.065735e+05  -2.221365e+06
   2.291501e+06  -1.079842e+06
   2.309939e+06   4.616912e+05
   1.149144e+06   1.269936e+06
  -6.747043e+04   1.110481e+06
  -5.259926e+05   6.769620e+05
  -3.568824e+05   6.867612e+05
  -2.449567e+05   1.067196e+06
  -5.993384e+05   1.087757e+06
  -1.141441e+06   2.485370e+05
  -1.216465e+06  -1.055218e+06
  -4.867326e+05  -1.813998e+06
   6.292942e+05  -1.358323e+06
   1.238143e+06  -2.258868e+04
   8.085693e+05   1.142431e+06
  -2.493838e+05   1.307909e+06
  -9.522592e+05   5.341205e+05
  -7.448376e+05  -4.244402e+05
  -4.282598e+04  -8.828594e+05
   3.019518e+05  -7.672498e+05
  -2.261186e+03  -4.818539e+05
  -3.658622e+05  -3.718737e+05
  -2.431914e+04  -3.838856e+05
   1.017329e+06  -2.140456e+05
   1.847334e+06   2.927933e+05
   1.521281e+06   9.252804e+05
   8.275362e+04   1.259741e+06
  -1.362378e+06   1.021820e+06
  -1.685328e+06   3.430611e+05
  -8.367150e+05  -3.004433e+05
   1.833849e+05  -4.547817e+05
   4.388696e+05  -9.832559e+04
  -3.134412e+04   2.950124e+05
  -4.831102e+05   2.072457e+05
  -4.320520e+05  -3.364173e+05
  -9.950180e+04  -7.280917e+05
   3.745422e+04  -4.652974e+05
  -1.477028e+05   1.766947e+05
  -3.683854e+05   3.834480e+05
  -2.801923e+05  -2.096065e+05
   2.137868e+05  -9.772051e+05
   8.604332e+05  -9.738982e+05
   1.141165e+06  -6.220296e+04
   6.441513e+05   8.841793e+05
  -4.096924e+05   9.551744e+05
  -1.112299e+06   1.780569e+05
  -6.692933e+05  -5.980394e+05
   6.445265e+05  -6.347955e+05
   1.571197e+06   4.011510e+04
   1.120361e+06   8.034960e+05
  -3.492393e+05   1.045935e+06
  -1.473301e+06   6.200076e+05
  -1.292878e+06  -1.028836e+05
  -1.887022e+05  -5.241740e+05
   6.085724e+05  -3.119600e+05
   3.223663e+05   2.440398e+05
  -6.248419e+05   4.276690e+05
  -1.115800e+06  -1.897800e+05
  -5.073538e+05  -1.188005e+06
   7.284478e+05  -1.570441e+06
   1.502500e+06  -7.362572e+05
   1.185930e+06   7.989696e+05
   1.441755e+05   1.757777e+06
  -7.398486e+05   1.301316e+06
  -9.134978e+05  -1.078750e+05
  -4.785493e+05  -1.146876e+06
   1.235948e+05  -9.918129e+05
   5.120662e+05  -1.168223e+05
   5.193953e+05   3.904294e+05
   2.397789e+05   1.629642e+05
   1.656046e+04  -1.184635e+05
   1.449952e+05   2.299429e+05
   4.311077e+05   9.161740e+05
   2.683161e+05   1.065816e+06
  -5.808208e+05   3.900197e+05
  -1.434755e+06  -4.784181e+05
  -1.318450e+06  -8.323517e+05
  -1.779641e+05  -6.580167e+05
   9.153306e+05  -3.786152e+05
   9.858126e+05  -1.894356e+05
   2.782484e+05   7.732989e+03
  -1.772187e+05   2.065509e+05
   5.747111e+04   2.477120e+05
   3.553100e+05   1.532901e+05
   5.366097e+03   1.344351e+05
  -7.525365e+05   1.712301e+05
  -9.943416e+05  -6.723270e+04
  -2.499403e+05  -6.585340e+05
   9.363912e+05  -1.050630e+06
   1.586625e+06  -6.105262e+05
   1.221388e+06   5.086757e+05
   1.872662e+05   1.378226e+06
  -7.476557e+05   1.269871e+06
  -1.021096e+06   4.212807e+05
  -6.377079e+05  -2.966854e+05
  -7.606604e+04  -3.455684e+05
   1.544552e+05  -2.347192e+03
  -4.718900e+04   8.124111e+04
  -3.255112e+05  -3.321573e+05
  -2.562552e+05  -7.836260e+05
   2.099135e+05  -6.274565e+05
   6.702404e+05   2.001178e+05
   6.269508e+05   9.990048e+05
  -2.240983e+04   9.844497e+05
  -7.877004e+05   1.263655e+05
  -9.440458e+05  -8.068838e+05
  -2.426670e+05  -1.052713e+06
   7.201631e+05  -5.622457e+05
   1.027415e+06   1.307943e+05
   4.409570e+05   5.407312e+05
  -2.884378e+05   5.596258e+05
  -2.992566e+05   3.235117e+05
   3.203898e+05   4.911847e+04
   6.474023e+05  -4.834877e+03
   1.032316e+05   2.843643e+05
  -8.137709e+05   6.405888e+05
  -1.156635e+06   5.459889e+05
  -6.462345e+05  -1.272851e+05
   1.251900e+05  -8.005108e+05
   4.838887e+05  -7.739048e+05
   3.316695e+05  -8.388888e+04
  -6.539382e+03   4.961275e+05
  -2.584617e+05   3.667071e+05
  -3.383517e+05  -2.252962e+05
  -2.152068e+05  -5.656315e+05
   8.305247e+04  -3.421066e+05
   3.713157e+05   8.689145e+04
   4.235862e+05   2.328639e+05
   2.298293e+05   5.432556e+04
   8.183059e+03  -8.749263e+04
  -7.777403e+04   7.493226e+04
  -1.013844e+05   3.869029e+05
  -2.089352e+05   4.461632e+05
  -3.591346e+05   6.626711e+04
  -3.310569e+05  -4.657329e+05
  -3.460912e+02  -6.386406e+05
   4.395536e+05  -2.529961e+05
   5.806266e+05   3.382341e+05
   1.880028e+05   5.886650e+05
  -4.774016e+05   3.244850e+05
  -8.024503e+05  -1.333109e+05
  -4.268333e+05  -3.799803e+05
   2.948447e+05  -3.207799e+05
   6.018353e+05  -1.319473e+05
   1.843813e+05   1.905318e+03
  -4.148621e+05  -4.157708e+03
  -4.212676e+05  -1.558445e+05
   2.364942e+05  -3.232430e+05
   8.310213e+05  -2.339416e+05
