
 $NMID
 id='ANONYMOUS ', fmtdat='(2E16.6)'
 volume=1.0
 tramp=1.0
 $END
   4.353507e+07  -1.784451e+06
   2.834575e+07   2.379145e+07
  -2.636955e+06   2.916530e+07
  -2.013686e+07   1.454742e+07
  -1.408929e+07  -2.541319e+06
   1.096750e+06  -7.585345e+06
   8.130680e+06  -9.813390e+05
   3.984174e+06   7.347660e+06
  -3.648307e+06   9.071429e+06
  -7.697696e+06   3.127881e+06
  -6.161986e+06  -4.889267e+06
  -9.607246e+05  -7.481304e+06
   3.389158e+06  -2.164091e+06
   2.625723e+06   5.288096e+06
  -2.634568e+06   6.502456e+06
  -6.579455e+06  -1.672380e+05
  -4.436109e+06  -8.015145e+06
   2.248530e+06  -9.856596e+06
   7.815963e+06  -5.094120e+06
   8.462965e+06   1.560879e+06
   4.849321e+06   5.677160e+06
   4.407628e+05   6.025978e+06
  -1.348437e+06   4.102006e+06
   1.879435e+05   2.599778e+06
   1.917551e+06   3.210198e+06
  -1.722542e+05   4.630732e+06
  -5.628447e+06   3.790576e+06
  -8.910261e+06  -4.992305e+04
  -5.907274e+06  -3.793652e+06
   5.468414e+05  -4.184009e+06
   3.998665e+06  -1.604557e+06
   2.063268e+06   1.007970e+06
  -1.784740e+06   1.632031e+06
  -3.415914e+06   1.817963e+05
  -2.198490e+06  -2.377702e+06
   1.024916e+05  -4.139823e+06
   1.825907e+06  -2.957174e+06
   2.009657e+06   7.041859e+05
   6.559651e+05   2.844711e+06
  -5.895399e+05   6.048870e+05
   2.162169e+05  -3.011322e+06
   2.321073e+06  -2.458035e+06
   2.401010e+06   2.332482e+06
  -9.945327e+05   5.029566e+06
  -4.651293e+06   1.351873e+06
  -4.124153e+06  -4.880786e+06
   8.220556e+05  -6.605170e+06
   5.789066e+06  -2.207866e+06
   6.420407e+06   3.429090e+06
   2.376065e+06   5.307867e+06
  -2.888815e+06   2.970286e+06
  -5.183046e+06  -7.208717e+05
  -2.876465e+06  -2.841662e+06
   1.617339e+06  -2.169164e+06
   3.866636e+06   3.061994e+05
   1.964688e+06   2.015214e+06
  -1.284453e+06   1.241958e+06
  -1.813267e+06  -7.672405e+05
   5.927589e+05  -1.248245e+06
   2.243317e+06   4.910957e+05
   5.310016e+05   2.271220e+06
  -2.854644e+06   1.964075e+06
  -4.292162e+06  -2.551192e+05
  -2.313857e+06  -2.866550e+06
   1.542466e+06  -4.575276e+06
   4.749423e+06  -4.303004e+06
   5.577372e+06  -1.383563e+06
   3.780812e+06   2.937019e+06
   7.773164e+05   5.529762e+06
  -1.221016e+06   4.545276e+06
  -1.247537e+06   1.803060e+06
  -5.669877e+05   5.005673e+05
  -9.392167e+05   1.107813e+06
  -2.283852e+06   1.247682e+06
  -2.902210e+06  -5.039506e+05
  -1.737731e+06  -2.530073e+06
   4.565610e+05  -2.436439e+06
   2.057167e+06  -8.478940e+04
   1.897091e+06   2.431449e+06
  -1.194155e+05   3.056326e+06
  -2.778069e+06   1.382560e+06
  -4.010845e+06  -1.369250e+06
  -2.652074e+06  -3.343802e+06
   6.726233e+04  -3.430428e+06
   1.722896e+06  -2.179343e+06
   1.632261e+06  -1.122077e+06
   1.537767e+06  -9.509558e+05
   2.859381e+06  -7.875949e+05
   4.361736e+06   4.766760e+05
   3.621120e+06   2.610339e+06
   2.797045e+05   4.206840e+06
  -3.261122e+06   4.052801e+06
  -4.364094e+06   2.058914e+06
  -2.650195e+06  -6.719789e+05
   2.382436e+03  -2.370047e+06
   1.331853e+06  -1.849593e+06
   5.413680e+05   1.347927e+05
  -1.181153e+06   1.310302e+06
  -1.869818e+06   4.144198e+05
  -8.234982e+05  -1.157208e+06
   6.131274e+05  -1.163074e+06
   6.445627e+05   3.649947e+05
  -7.915201e+05   1.058959e+06
  -1.963566e+06  -5.817431e+05
  -1.373383e+06  -3.113288e+06
   7.471608e+05  -3.878754e+06
   2.937820e+06  -2.014838e+06
   3.830953e+06   9.460580e+05
   2.893936e+06   2.905920e+06
   6.665735e+05   2.932347e+06
  -1.343976e+06   1.570501e+06
  -1.690006e+06   1.983143e+05
  -5.128034e+05  -3.793581e+04
   3.975977e+05   7.639573e+05
  -3.180508e+05   1.323540e+06
  -1.812560e+06   6.426869e+05
  -2.064126e+06  -7.312346e+05
  -5.099736e+05  -1.356374e+06
   1.165042e+06  -6.676596e+05
   1.048218e+06   4.390800e+05
  -7.928826e+05   7.532776e+05
  -2.440340e+06  -5.169167e+04
  -2.134236e+06  -1.372166e+06
   7.048679e+04  -2.254300e+06
   2.394217e+06  -1.928612e+06
   2.909603e+06  -3.981719e+05
   1.283062e+06   1.215820e+06
  -8.610718e+05   1.473496e+06
  -1.483457e+06   2.132336e+05
  -1.688175e+05  -1.043085e+06
   1.527693e+06  -7.776265e+05
   1.818423e+06   7.069224e+05
   5.094773e+05   1.699664e+06
  -1.018398e+06   1.166689e+06
  -1.358010e+06  -1.491522e+05
  -3.858172e+05  -7.640249e+05
   7.568080e+05  -1.049631e+05
   7.618395e+05   1.053016e+06
  -5.925991e+05   1.469072e+06
  -2.080370e+06   5.683533e+05
  -2.114954e+06  -1.062325e+06
  -4.479876e+05  -2.125694e+06
   1.410815e+06  -1.742029e+06
   1.772284e+06  -3.079533e+05
   5.937896e+05   8.681734e+05
  -6.401495e+05   8.856677e+05
  -7.253555e+05   8.542465e+04
   6.211909e+04  -5.028062e+05
   6.095985e+05  -3.512008e+05
   3.254257e+05   1.075474e+05
  -3.743677e+05   1.074602e+05
  -6.218368e+05  -5.496490e+05
   8.405495e+04  -1.220437e+06
   1.379311e+06  -9.959734e+05
   2.176102e+06   3.590571e+05
   1.566122e+06   1.978028e+06
  -1.708612e+05   2.554876e+06
  -1.671194e+06   1.602323e+06
  -1.861414e+06  -2.474642e+04
  -1.050355e+06  -1.006783e+06
  -3.793572e+05  -8.835958e+05
  -3.870776e+05  -3.406146e+05
  -5.327970e+05  -2.555361e+05
  -9.931382e+04  -7.068301e+05
   8.494651e+05  -9.872029e+05
   1.531607e+06  -4.451429e+05
   1.209206e+06   7.558659e+05
  -1.661931e+05   1.642923e+06
  -1.786689e+06   1.241989e+06
  -2.405559e+06  -4.284400e+05
  -1.302329e+06  -2.146217e+06
   8.940559e+05  -2.492754e+06
   2.556583e+06  -1.216705e+06
   2.528287e+06   5.233742e+05
   1.184794e+06   1.377761e+06
  -1.158535e+05   1.127886e+06
  -4.927310e+05   6.581186e+05
  -2.314043e+05   7.644136e+05
  -1.544830e+05   1.258512e+06
  -6.364824e+05   1.284289e+06
  -1.288473e+06   3.403603e+05
  -1.396552e+06  -1.106660e+06
  -6.114203e+05  -1.972465e+06
   6.319271e+05  -1.515541e+06
   1.355817e+06  -4.893442e+04
   9.115812e+05   1.273492e+06
  -2.934420e+05   1.463797e+06
  -1.116306e+06   5.527318e+05
  -8.604843e+05  -5.603920e+05
  -3.862592e+03  -1.049163e+06
   4.134829e+05  -8.548595e+05
   2.949715e+04  -4.920307e+05
  -4.344518e+05  -3.676963e+05
  -5.497310e+04  -4.096855e+05
   1.150528e+06  -2.658552e+05
   2.100961e+06   2.678869e+05
   1.715237e+06   1.000146e+06
   7.699443e+04   1.444157e+06
  -1.538280e+06   1.207456e+06
  -1.876668e+06   3.930476e+05
  -9.183021e+05  -3.925978e+05
   2.143126e+05  -5.534121e+05
   5.077531e+05  -9.215783e+04
   1.299480e+04   3.737893e+05
  -4.897689e+05   2.587082e+05
  -4.979331e+05  -3.480827e+05
  -2.020199e+05  -7.672898e+05
  -3.809065e+04  -4.995008e+05
  -1.533560e+05   1.547928e+05
  -3.486457e+05   3.746364e+05
  -3.085544e+05  -2.282920e+05
   1.647682e+05  -1.058142e+06
   9.108555e+05  -1.120796e+06
   1.326753e+06  -1.691843e+05
   8.217708e+05   9.341072e+05
  -4.040084e+05   1.129294e+06
  -1.251471e+06   3.108295e+05
  -7.666819e+05  -6.069057e+05
   7.017116e+05  -7.109252e+05
   1.701628e+06   2.456412e+04
   1.174864e+06   8.681959e+05
  -4.151466e+05   1.114746e+06
  -1.587591e+06   6.402702e+05
  -1.369042e+06  -1.214334e+05
  -1.899392e+05  -5.567691e+05
   6.689483e+05  -3.335124e+05
   3.875686e+05   2.748748e+05
  -6.338237e+05   5.229065e+05
  -1.232074e+06  -1.126591e+05
  -6.623479e+05  -1.248040e+06
   6.577199e+05  -1.766950e+06
   1.573310e+06  -9.101248e+05
   1.330666e+06   7.976899e+05
   2.385859e+05   1.898010e+06
  -7.580412e+05   1.416522e+06
  -9.957719e+05  -1.240971e+05
  -5.260198e+05  -1.245637e+06
   1.561503e+05  -1.064693e+06
   5.758317e+05  -1.267234e+05
   5.409587e+05   4.019603e+05
   2.206849e+05   1.605732e+05
   3.283045e+04  -1.175733e+05
   2.376700e+05   2.681713e+05
   5.340123e+05   9.931368e+05
   2.784891e+05   1.149445e+06
  -6.831931e+05   4.473162e+05
  -1.575338e+06  -4.628747e+05
  -1.420339e+06  -8.612011e+05
  -2.169981e+05  -7.228111e+05
   9.359955e+05  -4.507693e+05
   1.053111e+06  -2.281112e+05
   3.466807e+05   1.866905e+04
  -1.659205e+05   2.347387e+05
   1.573646e+04   2.476336e+05
   3.332915e+05   1.288515e+05
   3.454735e+04   1.407761e+05
  -7.490733e+05   2.353126e+05
  -1.094797e+06  -8.444005e+03
  -3.908265e+05  -7.051692e+05
   9.129141e+05  -1.219108e+06
   1.737208e+06  -7.915677e+05
   1.425998e+06   4.528000e+05
   2.932811e+05   1.483162e+06
  -7.676949e+05   1.446309e+06
  -1.091208e+06   5.505651e+05
  -6.991398e+05  -2.622050e+05
  -1.254212e+05  -3.720382e+05
   1.140503e+05  -3.703351e+04
  -7.206320e+04   5.504070e+04
  -3.480515e+05  -3.688853e+05
  -2.950331e+05  -8.485101e+05
   1.857177e+05  -7.068946e+05
   7.259214e+05   1.490271e+05
   7.631764e+05   1.017777e+06
   8.821894e+04   1.073366e+06
  -8.120641e+05   2.265324e+05
  -1.082970e+06  -7.801730e+05
  -3.562968e+05  -1.134983e+06
   7.424104e+05  -6.912467e+05
   1.154651e+06   6.944133e+04
   5.475929e+05   6.012849e+05
  -2.825146e+05   6.778860e+05
  -3.544867e+05   3.880999e+05
   2.995059e+05   2.517647e+04
   6.929274e+05  -4.527792e+04
   1.465294e+05   3.122066e+05
  -8.574013e+05   7.348497e+05
  -1.284377e+06   6.250547e+05
  -7.683938e+05  -1.371867e+05
   8.788660e+04  -9.001942e+05
   5.289546e+05  -8.980222e+05
   4.019961e+05  -1.531184e+05
   4.219961e+04   5.175357e+05
  -2.491768e+05   4.400407e+05
  -3.716675e+05  -1.841071e+05
  -2.719665e+05  -6.037735e+05
   5.395354e+04  -4.171713e+05
   4.090681e+05   5.535177e+04
   4.957331e+05   2.608385e+05
   2.588552e+05   7.501156e+04
  -2.394832e+04  -1.277497e+05
  -9.338217e+04   1.327856e+04
  -3.248468e+04   3.892041e+05
  -1.078775e+05   5.336514e+05
  -3.469916e+05   1.691259e+05
  -4.378282e+05  -4.275831e+05
  -1.138190e+05  -6.775336e+05
   4.398017e+05  -3.190435e+05
   6.782368e+05   3.027699e+05
   2.579822e+05   6.109478e+05
  -5.164247e+05   3.896705e+05
  -9.077233e+05  -7.701689e+04
  -5.004049e+05  -3.885582e+05
   2.991257e+05  -4.004674e+05
   6.555560e+05  -2.206066e+05
   2.355589e+05  -2.119365e+04
  -3.977535e+05   4.624934e+04
  -4.405812e+05  -9.978260e+04
   2.050234e+05  -3.289341e+05
   8.275807e+05  -2.919486e+05
