
 $NMID
 id='ANONYMOUS ', fmtdat='(2E16.6)'
 volume=1.0
 tramp=1.0
 $END
  -1.984407e+07  -4.817370e+05
  -1.295059e+07  -9.839809e+06
   4.897190e+05  -1.262842e+07
   8.846907e+06  -7.950836e+06
   7.149212e+06  -4.676027e+05
   2.756167e+05   3.574111e+06
  -4.043348e+06   1.586819e+06
  -2.865649e+06  -3.271843e+06
   1.121059e+06  -5.353008e+06
   3.771585e+06  -2.282947e+06
   3.145424e+06   2.637105e+06
   3.155157e+05   4.145221e+06
  -1.933458e+06   8.384791e+05
  -1.451801e+06  -3.431160e+06
   1.259051e+06  -3.979701e+06
   3.331017e+06  -2.701151e+05
   2.362958e+06   3.965092e+06
  -1.031334e+06   4.920984e+06
  -3.861094e+06   2.271949e+06
  -3.860295e+06  -1.227837e+06
  -1.616970e+06  -2.841746e+06
   3.261873e+05  -2.240937e+06
   1.775781e+05  -1.223887e+06
  -1.321765e+06  -1.487905e+06
  -1.695481e+06  -2.787243e+06
   5.619551e+05  -3.311094e+06
   3.995277e+06  -1.825266e+06
   5.309987e+06   8.315300e+05
   2.892940e+06   2.573253e+06
  -1.112495e+06   2.165358e+06
  -2.899139e+06   2.540964e+05
  -1.092001e+06  -1.430111e+06
   1.937782e+06  -1.503197e+06
   2.970366e+06   1.549105e+05
   1.385591e+06   2.245048e+06
  -7.463653e+05   2.863755e+06
  -1.389021e+06   1.257015e+06
  -5.229316e+05  -1.014189e+06
   4.360434e+05  -1.430027e+06
   3.794213e+05   4.991130e+05
  -5.955405e+05   2.331605e+06
  -1.509023e+06   1.574978e+06
  -1.359297e+06  -1.059506e+06
   1.777287e+04  -2.393377e+06
   1.561557e+06  -7.248911e+05
   1.665439e+06   2.086635e+06
  -2.558376e+05   2.916574e+06
  -2.797650e+06   9.213952e+05
  -3.582063e+06  -1.877000e+06
  -1.592025e+06  -3.027959e+06
   1.596843e+06  -1.916285e+06
   3.207102e+06   1.772934e+05
   1.980048e+06   1.510095e+06
  -6.221579e+05   1.255155e+06
  -2.012546e+06  -1.343980e+04
  -1.142279e+06  -9.287413e+05
   6.109138e+05  -6.319542e+05
   1.165154e+06   3.999030e+05
   5.659025e+04   9.379582e+05
  -1.185393e+06   3.796739e+05
  -8.963152e+05  -6.556141e+05
   7.871779e+05  -1.056165e+06
   2.034932e+06  -2.824461e+05
   1.288048e+06   1.240161e+06
  -1.077749e+06   2.426055e+06
  -3.126569e+06   2.205132e+06
  -3.290358e+06   3.720142e+05
  -1.781440e+06  -1.975687e+06
  -1.080398e+05  -3.200674e+06
   5.893466e+05  -2.689381e+06
   5.108035e+05  -1.447108e+06
   5.943438e+05  -8.110176e+05
   1.268243e+06  -8.220884e+05
   2.000949e+06  -3.998759e+05
   1.953168e+06   9.258548e+05
   8.597036e+05   2.108706e+06
  -6.904957e+05   1.764962e+06
  -1.655888e+06  -7.923395e+04
  -1.275838e+06  -1.857725e+06
   2.817188e+05  -2.044265e+06
   1.873121e+06  -5.918968e+05
   2.236454e+06   1.205268e+06
   1.164464e+06   2.042514e+06
  -2.704065e+05   1.695351e+06
  -8.880058e+05   9.419237e+05
  -7.154986e+05   5.977406e+05
  -8.213413e+05   6.950538e+05
  -1.795223e+06   5.724784e+05
  -2.766802e+06  -3.131142e+05
  -2.285413e+06  -1.722813e+06
  -9.773057e+04  -2.749859e+06
   2.292598e+06  -2.557075e+06
   3.014862e+06  -1.101336e+06
   1.681569e+06   7.098940e+05
  -2.770710e+05   1.624876e+06
  -1.089730e+06   1.087542e+06
  -3.321375e+05  -1.749416e+05
   8.730639e+05  -7.926406e+05
   1.187044e+06  -1.910974e+05
   4.080886e+05   7.506907e+05
  -5.000192e+05   7.550981e+05
  -5.343134e+05  -2.284970e+05
   3.451622e+05  -8.580086e+05
   1.247537e+06  -1.179178e+04
   1.192773e+06   1.754119e+06
  -5.764403e+04   2.694776e+06
  -1.768314e+06   1.739904e+06
  -2.718661e+06  -4.049448e+05
  -2.145251e+06  -2.034761e+06
  -4.636696e+05  -2.101355e+06
   9.881231e+05  -1.023581e+06
   1.164908e+06  -4.207443e+04
   3.385926e+05   3.944465e+04
  -2.469638e+05  -5.089454e+05
   1.977779e+05  -8.098124e+05
   1.113803e+06  -3.658399e+05
   1.290877e+06   4.474056e+05
   3.453972e+05   8.341408e+05
  -7.574143e+05   4.378449e+05
  -7.531911e+05  -3.014133e+05
   4.824643e+05  -5.976356e+05
   1.707723e+06  -6.212601e+04
   1.565719e+06   9.476210e+05
  -9.761763e+00   1.611698e+06
  -1.646125e+06   1.317510e+06
  -1.953093e+06   2.225701e+05
  -8.050314e+05  -7.902716e+05
   5.745140e+05  -8.757811e+05
   8.985998e+05  -8.124006e+04
   3.652265e+04   6.469815e+05
  -1.009574e+06   4.559055e+05
  -1.187881e+06  -4.692222e+05
  -3.725807e+05  -1.120984e+06
   6.311871e+05  -8.224111e+05
   9.122770e+05   3.240835e+04
   3.073650e+05   4.773059e+05
  -4.529441e+05   6.342571e+04
  -4.532584e+05  -7.010344e+05
   4.511842e+05  -9.389108e+05
   1.396004e+06  -2.911622e+05
   1.352482e+06   7.716043e+05
   2.391402e+05   1.400466e+06
  -9.443343e+05   1.111165e+06
  -1.163104e+06   1.905284e+05
  -4.033148e+05  -5.682518e+05
   4.247934e+05  -5.896511e+05
   5.268468e+05  -3.638019e+04
  -1.128152e+04   4.103402e+05
  -4.737821e+05   3.044169e+05
  -3.464973e+05  -9.610014e+04
   1.770681e+05  -1.742364e+05
   4.342323e+05   2.835950e+05
  -1.921912e+04   7.859513e+05
  -9.108715e+05   6.420887e+05
  -1.428613e+06  -2.788354e+05
  -9.806943e+05  -1.342686e+06
   1.789211e+05  -1.706209e+06
   1.156517e+06  -1.082312e+06
   1.294365e+06   1.233798e+04
   7.683449e+05   7.476366e+05
   2.656214e+05   7.359376e+05
   1.783428e+05   3.266363e+05
   2.566712e+05   1.541971e+05
   3.267315e+04   4.137330e+05
  -5.585476e+05   6.489628e+05
  -1.043205e+06   3.064753e+05
  -8.510135e+05  -5.455156e+05
   1.045848e+05  -1.159833e+06
   1.223206e+06  -8.347563e+05
   1.616534e+06   3.278931e+05
   8.544824e+05   1.440255e+06
  -5.870822e+05   1.623598e+06
  -1.672806e+06   7.910451e+05
  -1.696789e+06  -3.338354e+05
  -8.565594e+05  -9.360178e+05
   4.454561e+04  -8.324899e+05
   4.030367e+05  -5.095737e+05
   2.885147e+05  -4.964450e+05
   1.947756e+05  -7.630221e+05
   4.383741e+05  -7.816601e+05
   8.284481e+05  -1.731658e+05
   8.812635e+05   7.797877e+05
   3.446890e+05   1.331235e+06
  -4.702863e+05   9.905399e+05
  -9.086897e+05   1.229954e+04
  -5.912513e+05  -8.343840e+05
   1.774766e+05  -9.563585e+05
   6.882992e+05  -4.013809e+05
   5.445931e+05   2.933130e+05
   4.307785e+04   6.369215e+05
  -2.074468e+05   5.652825e+05
   5.473998e+03   3.604091e+05
   2.631523e+05   2.763736e+05
   1.504886e+04   2.824506e+05
  -7.397062e+05   1.567121e+05
  -1.344082e+06  -2.166420e+05
  -1.110771e+06  -6.785750e+05
  -6.598642e+04  -9.168348e+05
   9.895009e+05  -7.398011e+05
   1.231454e+06  -2.510957e+05
   6.167402e+05   2.103592e+05
  -1.292487e+05   3.262412e+05
  -3.186544e+05   7.706316e+04
   2.596531e+04  -2.057507e+05
   3.570348e+05  -1.464514e+05
   3.125630e+05   2.470488e+05
   5.897015e+04   5.339025e+05
  -3.976485e+04   3.391464e+05
   1.108191e+05  -1.368212e+05
   2.822024e+05  -2.882260e+05
   2.091873e+05   1.538036e+05
  -1.651318e+05   7.191714e+05
  -6.345172e+05   7.093081e+05
  -8.241225e+05   3.590646e+04
  -4.558147e+05  -6.492474e+05
   3.028876e+05  -6.880528e+05
   8.062509e+05  -1.165243e+05
   4.849726e+05   4.436362e+05
  -4.717351e+05   4.643765e+05
  -1.155471e+06  -3.056123e+04
  -8.319897e+05  -5.922487e+05
   2.504754e+05  -7.751497e+05
   1.086970e+06  -4.625900e+05
   9.578724e+05   7.479690e+04
   1.408997e+05   3.883518e+05
  -4.472237e+05   2.305072e+05
  -2.319109e+05  -1.772261e+05
   4.647070e+05  -3.043085e+05
   8.143433e+05   1.530122e+05
   3.549060e+05   8.754987e+05
  -5.524323e+05   1.140031e+06
  -1.108045e+06   5.229692e+05
  -8.628501e+05  -5.950904e+05
  -9.459136e+04  -1.290421e+06
   5.499844e+05  -9.554099e+05
   6.723829e+05   7.745994e+04
   3.521143e+05   8.439531e+05
  -8.841963e+04   7.337251e+05
  -3.748975e+05   8.731805e+04
  -3.852114e+05  -2.921895e+05
  -1.814971e+05  -1.249414e+05
  -1.043344e+04   8.912744e+04
  -9.578430e+04  -1.627993e+05
  -3.072948e+05  -6.712362e+05
  -1.987564e+05  -7.858485e+05
   4.184047e+05  -2.860113e+05
   1.050318e+06   3.589915e+05
   9.701979e+05   6.186431e+05
   1.286815e+05   4.818019e+05
  -6.796622e+05   2.705513e+05
  -7.269112e+05   1.358623e+05
  -1.988270e+05  -1.569333e+03
   1.336218e+05  -1.486516e+05
  -4.871003e+04  -1.873411e+05
  -2.681685e+05  -1.212344e+05
   2.569625e+02  -9.916504e+04
   5.618147e+05  -1.160254e+05
   7.268368e+05   5.816232e+04
   1.660764e+05   4.802523e+05
  -7.002526e+05   7.566107e+05
  -1.158774e+06   4.316182e+05
  -8.794076e+05  -3.832237e+05
  -1.247851e+05  -1.011669e+06
   5.527812e+05  -9.233857e+05
   7.498686e+05  -2.964033e+05
   4.661973e+05   2.269580e+05
   4.971832e+04   2.533731e+05
  -1.201656e+05  -5.785594e+03
   3.334269e+04  -6.590021e+04
   2.411440e+05   2.437135e+05
   1.859657e+05   5.767927e+05
  -1.600027e+05   4.560108e+05
  -4.905216e+05  -1.578983e+05
  -4.458305e+05  -7.412286e+05
   3.290162e+04  -7.180033e+05
   5.813855e+05  -7.765222e+04
   6.814750e+05   6.045772e+05
   1.650652e+05   7.710279e+05
  -5.314126e+05   4.004139e+05
  -7.471272e+05  -1.044168e+05
  -3.157328e+05  -3.926709e+05
   2.132857e+05  -4.007363e+05
   2.146568e+05  -2.343771e+05
  -2.410773e+05  -4.216338e+04
  -4.760667e+05  -2.208270e+03
  -7.145223e+04  -2.069074e+05
   6.004953e+05  -4.645831e+05
   8.452330e+05  -3.988462e+05
   4.657080e+05   9.014219e+04
  -9.735623e+04   5.819990e+05
  -3.522891e+05   5.614669e+05
  -2.347599e+05   5.515854e+04
   1.274443e+04  -3.656019e+05
   1.923854e+05  -2.624399e+05
   2.454054e+05   1.741023e+05
   1.525636e+05   4.157557e+05
  -6.390401e+04   2.433079e+05
  -2.703784e+05  -6.929124e+04
  -3.068753e+05  -1.682758e+05
  -1.685652e+05  -3.696475e+04
  -9.165949e+03   5.807351e+04
   5.936792e+04  -6.554541e+04
   8.744939e+04  -2.853001e+05
   1.684423e+05  -3.150579e+05
   2.654294e+05  -3.247647e+04
   2.282987e+05   3.499219e+05
  -1.678234e+04   4.664666e+05
  -3.265465e+05   1.780936e+05
  -4.173375e+05  -2.555711e+05
  -1.294586e+05  -4.346519e+05
   3.496540e+05  -2.336181e+05
   5.819809e+05   1.058468e+05
   3.076188e+05   2.811782e+05
  -2.173588e+05   2.273585e+05
  -4.384605e+05   8.593663e+04
  -1.290516e+05  -2.815159e+03
   3.104531e+05   1.339885e+04
   3.087147e+05   1.257338e+05
  -1.828393e+05   2.383636e+05
  -6.204381e+05   1.628690e+05
