
 $NMID
 id='ANONYMOUS ', fmtdat='(2E16.6)'
 volume=1.0
 tramp=1.0
 $END
  -5.606968e+07   2.167559e+06
  -3.476279e+07  -3.376525e+07
   6.330423e+06  -3.823995e+07
   2.692138e+07  -1.516494e+07
   1.634670e+07   6.731184e+06
  -3.139924e+06   9.307470e+06
  -9.659947e+06  -1.116079e+06
  -2.850806e+06  -9.564606e+06
   5.888774e+06  -9.183030e+06
   9.409028e+06  -2.135530e+06
   7.111701e+06   5.814294e+06
   1.177687e+06   8.365721e+06
  -3.796806e+06   2.921898e+06
  -2.808888e+06  -5.072971e+06
   3.443451e+06  -6.410886e+06
   7.773202e+06   1.120590e+06
   4.702853e+06   9.902755e+06
  -3.332881e+06   1.175821e+07
  -9.781200e+06   6.243133e+06
  -1.084728e+07  -1.556584e+06
  -6.988203e+06  -7.199002e+06
  -1.069943e+06  -8.722829e+06
   2.828872e+06  -6.235960e+06
   2.010706e+06  -2.595763e+06
  -1.074904e+06  -1.756846e+06
  -5.828633e+05  -3.904304e+06
   4.893271e+06  -4.626310e+06
   9.360864e+06  -1.088103e+06
   7.156103e+06   3.660083e+06
   6.354693e+05   5.022624e+06
  -3.398986e+06   2.862900e+06
  -2.490133e+06   3.264240e+05
   2.707309e+05  -8.608548e+05
   1.953206e+06  -7.134075e+05
   2.225911e+06   1.065969e+06
   1.046266e+06   3.715583e+06
  -1.541102e+06   3.951409e+06
  -3.350013e+06   1.365258e+05
  -1.997890e+06  -3.573587e+06
   7.312044e+05  -2.117794e+06
   5.982614e+05   2.253717e+06
  -2.238215e+06   2.305755e+06
  -2.484689e+06  -3.074926e+06
   2.291831e+06  -6.128929e+06
   6.986414e+06  -1.185865e+06
   5.361009e+06   6.753522e+06
  -1.642061e+06   8.553165e+06
  -7.270374e+06   2.684422e+06
  -6.939350e+06  -4.077585e+06
  -1.968719e+06  -5.771278e+06
   3.268839e+06  -2.711288e+06
   5.091165e+06   1.319260e+06
   2.400226e+06   3.298562e+06
  -2.335659e+06   2.202488e+06
  -4.471103e+06  -7.754637e+05
  -1.979483e+06  -2.620982e+06
   1.651360e+06  -1.408337e+06
   1.696445e+06   9.303514e+05
  -1.329307e+06   8.601340e+05
  -2.451016e+06  -1.775853e+06
   6.554872e+05  -3.480529e+06
   4.632418e+06  -1.983801e+06
   5.274922e+06   1.244810e+06
   2.386641e+06   3.872871e+06
  -1.511771e+06   5.248170e+06
  -4.595310e+06   4.997288e+06
  -5.957670e+06   2.052117e+06
  -4.693992e+06  -2.844210e+06
  -1.246810e+06  -5.978688e+06
   1.642795e+06  -4.681620e+06
   1.686664e+06  -1.140999e+06
   6.598899e+04   3.467938e+05
  -2.591450e+05  -9.605018e+05
   1.343532e+06  -1.934897e+06
   2.707228e+06  -5.243198e+05
   2.137083e+06   1.648891e+06
   2.445638e+05   2.033161e+06
  -1.399866e+06   3.306739e+05
  -1.709038e+06  -1.829956e+06
  -1.949846e+05  -2.806457e+06
   2.576272e+06  -1.793818e+06
   4.450514e+06   8.825421e+05
   3.384809e+06   3.528588e+06
   1.697461e+05   4.203316e+06
  -2.156638e+06   2.806737e+06
  -2.188706e+06   1.192523e+06
  -1.765735e+06   6.969087e+05
  -2.806807e+06   5.641456e+05
  -4.214410e+06  -5.455394e+05
  -3.478044e+06  -2.497023e+06
  -3.267587e+05  -3.950984e+06
   2.862656e+06  -3.911446e+06
   3.877682e+06  -2.294855e+06
   2.599115e+06   2.136629e+05
   4.473282e+05   2.129565e+06
  -9.163919e+05   1.954295e+06
  -5.551005e+05   1.398876e+04
   9.622358e+05  -1.329198e+06
   1.828045e+06  -4.849363e+05
   9.736821e+05   1.128122e+06
  -4.193020e+05   1.100362e+06
  -3.925344e+05  -3.494597e+05
   1.031479e+06  -6.500365e+05
   1.813561e+06   1.276580e+06
   6.542496e+05   3.375050e+06
  -1.499435e+06   3.252944e+06
  -2.975321e+06   1.057009e+06
  -3.148660e+06  -1.294754e+06
  -2.228184e+06  -2.490002e+06
  -5.490730e+05  -2.425003e+06
   1.095789e+06  -1.466471e+06
   1.493421e+06  -3.171980e+05
   4.755418e+05   1.869265e+04
  -3.800066e+05  -7.062738e+05
   3.506541e+05  -1.323633e+06
   1.838267e+06  -6.464326e+05
   2.008765e+06   7.859766e+05
   4.193939e+05   1.363715e+06
  -1.105907e+06   5.954124e+05
  -8.508946e+05  -3.929268e+05
   8.011415e+05  -4.947746e+05
   2.064209e+06   2.468302e+05
   1.675768e+06   1.205657e+06
  -1.671461e+05   1.853929e+06
  -2.122577e+06   1.668981e+06
  -2.642959e+06   3.904432e+05
  -1.233389e+06  -1.173650e+06
   8.272622e+05  -1.514239e+06
   1.523742e+06  -2.601759e+05
   2.603339e+05   1.050293e+06
  -1.431397e+06   7.893350e+05
  -1.686454e+06  -6.830788e+05
  -3.754524e+05  -1.571820e+06
   1.022255e+06  -9.582660e+05
   1.209030e+06   2.746072e+05
   2.442073e+05   7.475988e+05
  -7.816802e+05   8.212311e+04
  -7.688345e+05  -9.853960e+05
   4.769098e+05  -1.408367e+06
   1.906467e+06  -6.351794e+05
   2.020725e+06   9.052813e+05
   4.723413e+05   1.984907e+06
  -1.317979e+06   1.651858e+06
  -1.655040e+06   2.738108e+05
  -5.116408e+05  -8.166034e+05
   6.008230e+05  -7.958902e+05
   5.884975e+05  -1.096865e+05
  -1.059477e+05   3.180489e+05
  -4.308827e+05   1.963120e+05
  -7.059991e+04  -3.843240e+04
   4.534048e+05   1.024055e+05
   5.081430e+05   6.553279e+05
  -1.687193e+05   1.153954e+06
  -1.295271e+06   9.201871e+05
  -2.023545e+06  -3.013157e+05
  -1.508097e+06  -1.800661e+06
   8.578833e+04  -2.332805e+06
   1.473998e+06  -1.414745e+06
   1.602159e+06   5.201530e+04
   8.356779e+05   7.891709e+05
   3.363167e+05   5.523150e+05
   5.057055e+05   1.579503e+05
   6.513049e+05   2.899602e+05
   1.259976e+05   7.546989e+05
  -8.085192e+05   9.006535e+05
  -1.365493e+06   3.651936e+05
  -1.018870e+06  -6.309713e+05
   1.804405e+05  -1.381624e+06
   1.594652e+06  -1.094403e+06
   2.170973e+06   3.573573e+05
   1.174425e+06   1.965385e+06
  -8.821775e+05   2.321165e+06
  -2.410646e+06   1.092972e+06
  -2.272347e+06  -5.455860e+05
  -9.418896e+05  -1.232948e+06
   1.676900e+05  -8.782981e+05
   3.166739e+05  -4.808721e+05
  -8.833043e+03  -7.409926e+05
   1.579528e+04  -1.295042e+06
   5.917781e+05  -1.292931e+06
   1.243958e+06  -3.761785e+05
   1.348553e+06   9.687769e+05
   6.359593e+05   1.791597e+06
  -5.201578e+05   1.413895e+06
  -1.231464e+06   5.715963e+04
  -8.341495e+05  -1.205452e+06
   3.288716e+05  -1.359610e+06
   1.119010e+06  -4.154637e+05
   8.100556e+05   6.727391e+05
  -9.825664e+04   1.058441e+06
  -5.128292e+05   7.666364e+05
  -7.330959e+04   3.860261e+05
   4.424948e+05   2.933827e+05
   8.264356e+04   3.627501e+05
  -1.105925e+06   2.528151e+05
  -2.017429e+06  -2.258949e+05
  -1.605218e+06  -9.277338e+05
  -9.511115e+03  -1.395141e+06
   1.499283e+06  -1.180501e+06
   1.753621e+06  -3.405773e+05
   8.118106e+05   4.632973e+05
  -2.374173e+05   5.731690e+05
  -4.965163e+05   4.369139e+04
  -5.800063e+04  -4.246840e+05
   4.024787e+05  -2.796312e+05
   4.852584e+05   3.033285e+05
   3.085190e+05   6.786263e+05
   1.419061e+05   4.578332e+05
   1.212697e+05  -8.109650e+04
   2.299076e+05  -2.768571e+05
   2.713972e+05   2.112059e+05
  -6.977777e+04   9.488875e+05
  -8.104162e+05   1.077018e+06
  -1.333877e+06   2.533175e+05
  -8.993668e+05  -8.377120e+05
   3.421782e+05  -1.142734e+06
   1.213536e+06  -4.152571e+05
   7.419399e+05   5.032013e+05
  -6.471025e+05   6.534628e+05
  -1.516574e+06  -2.317368e+04
  -9.726418e+05  -7.791123e+05
   4.381696e+05  -9.476948e+05
   1.401309e+06  -4.982923e+05
   1.165019e+06   1.370609e+05
   1.414774e+05   4.777947e+05
  -6.115692e+05   2.778187e+05
  -3.933894e+05  -2.731189e+05
   5.215304e+05  -5.512350e+05
   1.148381e+06  -1.101843e+04
   7.424994e+05   1.089651e+06
  -4.374857e+05   1.687963e+06
  -1.362308e+06   9.610255e+05
  -1.254072e+06  -6.437515e+05
  -3.025342e+05  -1.702765e+06
   6.352372e+05  -1.267082e+06
   8.893637e+05   1.384282e+05
   4.573232e+05   1.120591e+06
  -1.843500e+05   9.221547e+05
  -5.423712e+05   9.816519e+04
  -4.471918e+05  -3.285845e+05
  -1.410451e+05  -1.119102e+05
  -4.989509e+04   8.539374e+04
  -3.189174e+05  -2.891561e+05
  -5.566153e+05  -9.079504e+05
  -2.143177e+05  -1.015251e+06
   6.981295e+05  -4.096813e+05
   1.437343e+06   3.608417e+05
   1.247058e+06   7.270388e+05
   2.130920e+05   6.660761e+05
  -7.690254e+05   4.581712e+05
  -9.233674e+05   2.226946e+05
  -3.704366e+05  -4.875099e+04
   1.162131e+05  -2.293951e+05
   5.279571e+04  -1.793621e+05
  -2.273794e+05  -5.225574e+04
  -7.075408e+04  -1.242625e+05
   5.851395e+05  -2.853443e+05
   1.013266e+06  -6.465338e+04
   5.120162e+05   6.504694e+05
  -7.032579e+05   1.211858e+06
  -1.615179e+06   8.600256e+05
  -1.433339e+06  -3.087862e+05
  -3.701389e+05  -1.330734e+06
   6.614326e+05  -1.384577e+06
   9.790175e+05  -6.110733e+05
   6.425730e+05   1.597408e+05
   1.682119e+05   3.386264e+05
  -3.298601e+04   9.405114e+04
   8.680439e+04   5.486667e+03
   2.940720e+05   3.445343e+05
   2.747007e+05   7.609698e+05
  -1.210928e+05   6.747091e+05
  -6.587276e+05  -4.438609e+04
  -8.006301e+05  -8.429804e+05
  -2.234611e+05  -9.935650e+05
   6.880763e+05  -3.292755e+05
   1.061289e+06   5.893989e+05
   4.351427e+05   1.029811e+06
  -6.366838e+05   7.305247e+05
  -1.102552e+06   1.401240e+04
  -5.735208e+05  -5.820517e+05
   2.359393e+05  -7.078302e+05
   3.729903e+05  -3.857653e+05
  -2.047631e+05   2.481975e+04
  -6.140131e+05   8.879427e+04
  -1.740074e+05  -2.945948e+05
   7.485378e+05  -7.048580e+05
   1.204531e+06  -5.761459e+05
   7.796234e+05   1.501761e+05
  -3.129854e+04   8.584679e+05
  -5.059970e+05   8.745712e+05
  -4.370421e+05   2.084818e+05
  -1.054277e+05  -4.443450e+05
   1.948278e+05  -4.563733e+05
   3.499255e+05   8.436742e+04
   2.904382e+05   5.375057e+05
  -1.428416e+04   4.461314e+05
  -3.823519e+05  -1.075785e+03
  -4.876353e+05  -2.610551e+05
  -2.390837e+05  -9.670556e+04
   5.839947e+04   1.695631e+05
   7.914301e+04   9.000132e+04
  -8.454941e+04  -3.216850e+05
  -5.421572e+04  -5.753605e+05
   2.751042e+05  -2.962426e+05
   5.164037e+05   2.957850e+05
   2.579289e+05   6.119283e+05
  -3.546557e+05   3.505810e+05
  -6.848252e+05  -2.002929e+05
  -3.046115e+05  -5.217055e+05
   4.733679e+05  -3.931208e+05
   8.775601e+05  -5.077938e+03
   4.993213e+05   3.291461e+05
  -2.559371e+05   4.330077e+05
  -6.109411e+05   2.974693e+05
  -2.677669e+05   3.952741e+04
   2.922039e+05  -1.220130e+05
   3.850508e+05  -8.644311e+03
  -1.075113e+05   2.716401e+05
  -6.445738e+05   3.210366e+05
