
 $NMID
 id='ANONYMOUS ', fmtdat='(2E16.6)'
 volume=1.0
 tramp=1.0
 $END
  -4.067807e+07  -1.419780e+06
  -2.412989e+07  -2.389034e+07
   4.682062e+06  -2.645173e+07
   1.913733e+07  -1.190342e+07
   1.227794e+07   3.067359e+06
  -1.496592e+06   6.654770e+06
  -7.190644e+06   4.549546e+05
  -3.141043e+06  -6.705298e+06
   3.593318e+06  -7.938709e+06
   7.033812e+06  -2.438223e+06
   5.471712e+06   4.830562e+06
   6.002945e+05   7.007357e+06
  -3.325969e+06   1.879512e+06
  -2.384485e+06  -4.987305e+06
   2.552042e+06  -5.839633e+06
   5.942562e+06   5.011690e+05
   3.635499e+06   7.588641e+06
  -2.618011e+06   8.934893e+06
  -7.576981e+06   4.248293e+06
  -7.859672e+06  -2.032849e+06
  -4.149220e+06  -5.767671e+06
   1.870933e+05  -5.750512e+06
   1.735108e+06  -3.533470e+06
  -1.089043e+05  -2.006054e+06
  -1.990372e+06  -2.840211e+06
   9.447400e+04  -4.431219e+06
   5.440282e+06  -3.570680e+06
   8.490084e+06   2.713014e+05
   5.455869e+06   3.855421e+06
  -7.261620e+05   4.102424e+06
  -3.968930e+06   1.542861e+06
  -2.150756e+06  -1.037819e+06
   1.524699e+06  -1.758101e+06
   3.256901e+06  -3.903714e+05
   2.246680e+06   2.231362e+06
  -7.013533e+04   4.047804e+06
  -1.924038e+06   2.778934e+06
  -2.023635e+06  -9.263614e+05
  -4.389604e+05  -2.909951e+06
   8.419978e+05  -5.426658e+05
  -1.010902e+05   2.935966e+06
  -2.167122e+06   2.257788e+06
  -2.050644e+06  -2.230108e+06
   1.231448e+06  -4.423976e+06
   4.339630e+06  -7.375952e+05
   3.411149e+06   4.857644e+06
  -1.250541e+06   5.991831e+06
  -5.521468e+06   1.681165e+06
  -5.789933e+06  -3.399372e+06
  -2.025096e+06  -4.899128e+06
   2.689169e+06  -2.633513e+06
   4.686826e+06   7.482721e+05
   2.529805e+06   2.601422e+06
  -1.554137e+06   1.848292e+06
  -3.502522e+06  -4.707788e+05
  -1.673687e+06  -1.912721e+06
   1.250315e+06  -1.061972e+06
   1.636930e+06   7.235236e+05
  -5.094890e+05   1.004570e+06
  -1.835857e+06  -5.498014e+05
  -2.116696e+05  -1.910541e+06
   2.710201e+06  -1.443127e+06
   3.807772e+06   5.043431e+05
   1.913412e+06   2.726057e+06
  -1.632954e+06   4.237282e+06
  -4.608963e+06   3.954623e+06
  -5.331549e+06   1.129073e+06
  -3.489852e+06  -2.959606e+06
  -5.505712e+05  -5.239594e+06
   1.239723e+06  -4.121204e+06
   1.067636e+06  -1.563122e+06
   3.683427e+05  -5.407820e+05
   8.494743e+05  -1.237384e+06
   2.261403e+06  -1.304314e+06
   2.877444e+06   4.697824e+05
   1.738947e+06   2.443912e+06
  -3.832818e+05   2.379870e+06
  -1.949730e+06   1.675321e+05
  -1.828900e+06  -2.248617e+06
   1.134574e+05  -2.890978e+06
   2.677362e+06  -1.278262e+06
   3.796818e+06   1.415509e+06
   2.380533e+06   3.287739e+06
  -2.608801e+05   3.237144e+06
  -1.757690e+06   1.921804e+06
  -1.553569e+06   9.126959e+05
  -1.399343e+06   8.125092e+05
  -2.627191e+06   6.907978e+05
  -4.029096e+06  -4.891432e+05
  -3.338862e+06  -2.456974e+06
  -2.368616e+05  -3.917706e+06
   3.066309e+06  -3.782062e+06
   4.125717e+06  -1.931850e+06
   2.533780e+06   6.545483e+05
   7.039084e+03   2.281839e+06
  -1.282502e+06   1.772357e+06
  -5.270633e+05  -1.363105e+05
   1.121086e+06  -1.237043e+06
   1.755721e+06  -3.600058e+05
   7.508790e+05   1.116410e+06
  -5.759969e+05   1.103051e+06
  -5.915343e+05  -3.046115e+05
   6.813715e+05  -9.202049e+05
   1.683600e+06   5.552113e+05
   1.165536e+06   2.784129e+06
  -6.521234e+05   3.441401e+06
  -2.584355e+06   1.803099e+06
  -3.468399e+06  -8.193651e+05
  -2.707870e+06  -2.617661e+06
  -6.628129e+05  -2.706452e+06
   1.251773e+06  -1.481044e+06
   1.591904e+06  -1.937521e+05
   4.783197e+05   3.648238e+04
  -3.664225e+05  -7.127782e+05
   3.192309e+05  -1.217779e+06
   1.695752e+06  -5.604131e+05
   1.892809e+06   7.057523e+05
   4.462218e+05   1.251745e+06
  -1.080674e+06   6.090876e+05
  -9.722476e+05  -3.902110e+05
   7.024878e+05  -6.827490e+05
   2.226201e+06   2.159498e+04
   1.985005e+06   1.223774e+06
  -3.049989e+04   2.070147e+06
  -2.204882e+06   1.798082e+06
  -2.703884e+06   3.698745e+05
  -1.177394e+06  -1.140917e+06
   8.322489e+05  -1.359840e+06
   1.389992e+06  -1.651293e+05
   1.378231e+05   9.888010e+05
  -1.433547e+06   7.136842e+05
  -1.679253e+06  -6.631594e+05
  -4.655752e+05  -1.560486e+06
   9.274201e+05  -1.061967e+06
   1.233053e+06   1.366082e+05
   3.451970e+05   6.901482e+05
  -7.024066e+05   7.913667e+04
  -7.031777e+05  -9.928904e+05
   5.630420e+05  -1.376601e+06
   1.953130e+06  -5.263758e+05
   1.974916e+06   1.003165e+06
   4.064760e+05   1.984745e+06
  -1.321852e+06   1.609808e+06
  -1.642608e+06   2.769255e+05
  -5.440354e+05  -8.003488e+05
   5.932419e+05  -8.170602e+05
   6.777458e+05  -9.154894e+04
  -3.352614e+04   4.564902e+05
  -5.424167e+05   3.472945e+05
  -3.107495e+05  -5.803251e+04
   3.119345e+05  -7.734253e+04
   5.483232e+05   5.007864e+05
  -8.652608e+04   1.116201e+06
  -1.282791e+06   9.173905e+05
  -2.024554e+06  -3.407259e+05
  -1.454066e+06  -1.850612e+06
   1.591615e+05  -2.382934e+06
   1.541629e+06  -1.493993e+06
   1.719667e+06   6.450188e+03
   9.957991e+05   9.093973e+05
   3.982244e+05   8.138720e+05
   3.895319e+05   3.418194e+05
   4.865821e+05   2.683488e+05
   7.298026e+04   6.638700e+05
  -7.882485e+05   9.100454e+05
  -1.413346e+06   4.188788e+05
  -1.132190e+06  -6.847019e+05
   1.328482e+05  -1.517689e+06
   1.650613e+06  -1.158383e+06
   2.237933e+06   3.934990e+05
   1.205748e+06   1.989809e+06
  -8.407070e+05   2.300959e+06
  -2.370732e+06   1.112682e+06
  -2.332119e+06  -4.818003e+05
  -1.100562e+06  -1.252930e+06
   8.134817e+04  -1.032710e+06
   4.335053e+05  -6.330718e+05
   2.198809e+05  -7.501406e+05
   1.691788e+05  -1.192474e+06
   6.136272e+05  -1.190700e+06
   1.208627e+06  -3.033696e+05
   1.303617e+06   1.040623e+06
   5.686367e+05   1.844618e+06
  -5.922162e+05   1.416428e+06
  -1.260241e+06   4.555342e+04
  -8.370431e+05  -1.183346e+06
   2.785035e+05  -1.347064e+06
   1.021355e+06  -4.923415e+05
   7.689555e+05   5.274783e+05
  -1.707924e+04   9.563988e+05
  -3.839182e+05   7.679650e+05
  -1.698168e+04   4.468674e+05
   4.114925e+05   3.488057e+05
   5.368725e+04   3.858074e+05
  -1.070257e+06   2.363109e+05
  -1.954352e+06  -2.673506e+05
  -1.588879e+06  -9.365128e+05
  -5.534393e+04  -1.330381e+06
   1.444008e+06  -1.103248e+06
   1.738687e+06  -3.555333e+05
   8.320618e+05   3.618840e+05
  -2.121797e+05   5.068277e+05
  -4.642795e+05   7.864653e+04
   2.271528e+03  -3.563363e+05
   4.612417e+05  -2.485699e+05
   4.647556e+05   3.282815e+05
   1.931525e+05   7.339378e+05
   3.646887e+04   4.828583e+05
   1.309335e+05  -1.461470e+05
   3.105757e+05  -3.627531e+05
   2.861527e+05   2.100283e+05
  -1.485100e+05   9.964186e+05
  -8.553187e+05   1.044667e+06
  -1.251561e+06   1.358175e+05
  -7.673798e+05  -8.940954e+05
   3.953590e+05  -1.054403e+06
   1.186346e+06  -2.770799e+05
   7.208919e+05   5.701665e+05
  -6.521992e+05   6.580069e+05
  -1.577764e+06  -1.695064e+04
  -1.090340e+06  -7.875843e+05
   3.738415e+05  -1.022028e+06
   1.456721e+06  -6.004831e+05
   1.263976e+06   9.845888e+04
   1.808796e+05   5.103721e+05
  -6.161444e+05   3.082931e+05
  -3.560534e+05  -2.630624e+05
   6.010206e+05  -4.964761e+05
   1.164262e+06   1.077487e+05
   6.250970e+05   1.182584e+06
  -6.221201e+05   1.669713e+06
  -1.482443e+06   8.590178e+05
  -1.249936e+06  -7.464473e+05
  -2.271285e+05  -1.775757e+06
   6.983607e+05  -1.323586e+06
   9.189239e+05   1.125580e+05
   4.899440e+05   1.151654e+06
  -1.373215e+05   9.794550e+05
  -5.316466e+05   1.139494e+05
  -5.078981e+05  -3.642647e+05
  -2.098798e+05  -1.377136e+05
  -2.691646e+04   1.049767e+05
  -2.140958e+05  -2.682715e+05
  -4.956980e+05  -9.343504e+05
  -2.629817e+05  -1.058764e+06
   6.357090e+05  -4.010545e+05
   1.472361e+06   4.292254e+05
   1.327054e+06   7.898335e+05
   2.001197e+05   6.735521e+05
  -8.755384e+05   4.339597e+05
  -9.791478e+05   2.181608e+05
  -3.168497e+05  -2.780499e+04
   1.562026e+05  -2.242112e+05
  -2.180246e+04  -2.166713e+05
  -3.197951e+05  -1.047335e+05
  -3.351080e+04  -1.378296e+05
   7.062399e+05  -2.370577e+05
   1.029184e+06   9.795782e+03
   3.636766e+05   6.827567e+05
  -8.634123e+05   1.155752e+06
  -1.637621e+06   7.304042e+05
  -1.343965e+06  -4.429031e+05
  -2.772476e+05  -1.394344e+06
   7.240532e+05  -1.349773e+06
   1.032188e+06  -5.152729e+05
   6.631441e+05   2.431330e+05
   1.173049e+05   3.551067e+05
  -1.155471e+05   4.827791e+04
   5.717763e+04  -4.626998e+04
   3.209239e+05   3.383737e+05
   2.757153e+05   7.883017e+05
  -1.773840e+05   6.650584e+05
  -6.900253e+05  -1.365256e+05
  -7.247724e+05  -9.621791e+05
  -8.111171e+04  -1.021994e+06
   7.747747e+05  -2.213837e+05
   1.027721e+06   7.354891e+05
   3.329500e+05   1.072982e+06
  -7.064753e+05   6.500826e+05
  -1.086148e+06  -7.251459e+04
  -5.030703e+05  -5.721844e+05
   2.782790e+05  -6.344382e+05
   3.358429e+05  -3.515200e+05
  -2.851949e+05  -1.020824e+04
  -6.511906e+05   4.585097e+04
  -1.347752e+05  -2.971732e+05
   8.014941e+05  -6.880101e+05
   1.193591e+06  -5.733855e+05
   7.096600e+05   1.423346e+05
  -8.789629e+04   8.445888e+05
  -5.016152e+05   8.296196e+05
  -3.867111e+05   1.304005e+05
  -4.512595e+04  -4.917590e+05
   2.407242e+05  -4.150086e+05
   3.600321e+05   1.714416e+05
   2.551868e+05   5.677167e+05
  -6.149534e+04   3.944942e+05
  -3.885810e+05  -5.236736e+04
  -4.562184e+05  -2.490781e+05
  -2.350420e+05  -7.073741e+04
   1.320816e+04   1.261146e+05
   6.806994e+04  -1.154923e+04
   2.229514e+04  -3.811290e+05
   1.136636e+05  -5.241950e+05
   3.469189e+05  -1.667260e+05
   4.250850e+05   4.163870e+05
   1.091139e+05   6.563903e+05
  -4.181206e+05   3.052713e+05
  -6.440212e+05  -2.918238e+05
  -2.467505e+05  -5.788610e+05
   4.861715e+05  -3.615609e+05
   8.566487e+05   7.952467e+04
   4.693967e+05   3.680583e+05
  -2.896850e+05   3.756270e+05
  -6.259223e+05   2.036596e+05
  -2.230789e+05   1.034831e+04
   3.822527e+05  -5.681743e+04
   4.263816e+05   8.803609e+04
  -1.838867e+05   3.189177e+05
  -7.758918e+05   2.913166e+05
