
 $NMID
 id='ANONYMOUS ', fmtdat='(2E16.6)'
 volume=1.0
 tramp=1.0
 $END
  -4.673994e+07  -6.408186e+05
  -2.816631e+07  -2.832118e+07
   5.724896e+06  -3.124954e+07
   2.266747e+07  -1.292603e+07
   1.406807e+07   4.872214e+06
  -2.308946e+06   7.798311e+06
  -8.345856e+06  -3.662532e+05
  -2.904425e+06  -8.057760e+06
   4.826694e+06  -8.438615e+06
   8.146664e+06  -2.149646e+06
   5.993914e+06   5.364061e+06
   6.164481e+05   7.542648e+06
  -3.527659e+06   2.190464e+06
  -2.336318e+06  -5.091085e+06
   3.144079e+06  -6.012510e+06
   6.717399e+06   8.985718e+05
   3.897598e+06   8.626871e+06
  -3.108853e+06   1.002743e+07
  -8.526730e+06   4.891299e+06
  -8.966691e+06  -1.964997e+06
  -5.175077e+06  -6.337187e+06
  -2.943687e+05  -6.888323e+06
   2.160440e+06  -4.658456e+06
   8.323634e+05  -2.396681e+06
  -1.399445e+06  -2.524319e+06
   4.065078e+04  -4.145482e+06
   5.280269e+06  -3.726649e+06
   8.727090e+06   1.677658e+04
   5.968799e+06   3.890847e+06
  -2.752001e+05   4.352758e+06
  -3.699345e+06   1.875407e+06
  -2.147542e+06  -5.350896e+05
   1.132944e+06  -1.220026e+06
   2.691134e+06  -2.900990e+05
   2.047608e+06   1.830994e+06
   1.961113e+05   3.808859e+06
  -1.796636e+06   3.148517e+06
  -2.457837e+06  -4.744909e+05
  -1.009271e+06  -3.092473e+06
   7.078811e+05  -1.160545e+06
   1.649797e+04   2.586221e+06
  -2.286130e+06   2.179823e+06
  -2.184819e+06  -2.641774e+06
   1.755331e+06  -5.150488e+06
   5.446592e+06  -9.156557e+05
   4.141077e+06   5.661432e+06
  -1.499446e+06   7.029358e+06
  -6.248850e+06   1.977253e+06
  -6.155482e+06  -3.852842e+06
  -1.838323e+06  -5.346312e+06
   3.038861e+06  -2.577727e+06
   4.849506e+06   1.169078e+06
   2.395906e+06   3.009217e+06
  -1.942006e+06   1.974438e+06
  -3.901344e+06  -6.904495e+05
  -1.757279e+06  -2.261034e+06
   1.442564e+06  -1.176023e+06
   1.637860e+06   8.793085e+05
  -9.121718e+05   9.745956e+05
  -2.151102e+06  -1.107295e+06
   1.334611e+05  -2.639734e+06
   3.541366e+06  -1.680783e+06
   4.443401e+06   8.827228e+05
   2.065461e+06   3.253054e+06
  -1.692090e+06   4.568479e+06
  -4.688311e+06   4.176327e+06
  -5.563122e+06   1.322773e+06
  -3.847009e+06  -2.971614e+06
  -6.603277e+05  -5.509506e+06
   1.550712e+06  -4.314993e+06
   1.422450e+06  -1.372554e+06
   3.214247e+05  -1.261271e+05
   4.507334e+05  -1.003988e+06
   1.882018e+06  -1.404902e+06
   2.708781e+06   1.879978e+05
   1.737804e+06   2.152002e+06
  -2.490686e+05   2.166249e+06
  -1.709447e+06   1.094528e+05
  -1.643199e+06  -2.156649e+06
   1.189189e+05  -2.820273e+06
   2.648191e+06  -1.364937e+06
   3.960299e+06   1.309736e+06
   2.666654e+06   3.413935e+06
  -1.547326e+05   3.591740e+06
  -1.942717e+06   2.238203e+06
  -1.835876e+06   1.003240e+06
  -1.592723e+06   7.252171e+05
  -2.734307e+06   5.323513e+05
  -4.077279e+06  -6.756669e+05
  -3.281249e+06  -2.603674e+06
  -1.030419e+05  -3.924234e+06
   3.129055e+06  -3.675728e+06
   4.068493e+06  -1.878694e+06
   2.493728e+06   5.756448e+05
   8.022925e+04   2.180880e+06
  -1.191271e+06   1.759918e+06
  -5.209140e+05  -9.603552e+04
   1.100686e+06  -1.211725e+06
   1.789581e+06  -3.370297e+05
   7.929044e+05   1.137256e+06
  -5.599181e+05   1.061391e+06
  -4.966402e+05  -3.648859e+05
   8.882038e+05  -7.991174e+05
   1.761269e+06   9.233549e+05
   8.646257e+05   3.112599e+06
  -1.174076e+06   3.381546e+06
  -2.873441e+06   1.395513e+06
  -3.318549e+06  -1.193069e+06
  -2.371147e+06  -2.708789e+06
  -4.731462e+05  -2.616441e+06
   1.248149e+06  -1.403563e+06
   1.544775e+06  -1.671133e+05
   4.722733e+05   5.049178e+04
  -3.391608e+05  -7.239719e+05
   3.788352e+05  -1.247829e+06
   1.770947e+06  -5.295233e+05
   1.910939e+06   8.151833e+05
   3.846272e+05   1.318933e+06
  -1.118507e+06   5.557784e+05
  -9.028833e+05  -4.432966e+05
   7.852786e+05  -5.794105e+05
   2.167064e+06   2.251157e+05
   1.794107e+06   1.322006e+06
  -1.946880e+05   1.981549e+06
  -2.252480e+06   1.634920e+06
  -2.684873e+06   2.526917e+05
  -1.148310e+06  -1.200273e+06
   8.782331e+05  -1.383414e+06
   1.443293e+06  -1.512924e+05
   1.488509e+05   1.010365e+06
  -1.455766e+06   6.797306e+05
  -1.649560e+06  -7.444639e+05
  -3.568469e+05  -1.588373e+06
   1.020509e+06  -9.803269e+05
   1.223739e+06   2.522234e+05
   2.744335e+05   7.366309e+05
  -7.388990e+05   5.576772e+04
  -6.862736e+05  -1.013679e+06
   5.827819e+05  -1.356403e+06
   1.943499e+06  -4.822582e+05
   1.937545e+06   1.042779e+06
   3.450937e+05   1.992428e+06
  -1.385033e+06   1.563536e+06
  -1.655283e+06   2.016710e+05
  -4.933069e+05  -8.324298e+05
   6.338947e+05  -7.801215e+05
   6.419089e+05  -6.145232e+04
  -9.388068e+04   4.021581e+05
  -5.206440e+05   2.519706e+05
  -2.058345e+05  -8.036329e+04
   3.860334e+05   1.274837e+03
   5.188918e+05   5.902526e+05
  -1.664591e+05   1.130417e+06
  -1.323721e+06   8.605939e+05
  -2.000210e+06  -4.118722e+05
  -1.387438e+06  -1.883934e+06
   2.367268e+05  -2.341918e+06
   1.580329e+06  -1.382466e+06
   1.667377e+06   1.105174e+05
   8.752677e+05   9.112771e+05
   3.151274e+05   7.225017e+05
   4.086626e+05   2.712800e+05
   5.445513e+05   2.853012e+05
   7.320223e+04   6.985869e+05
  -8.338935e+05   8.697927e+05
  -1.410040e+06   3.302313e+05
  -1.046782e+06  -7.165473e+05
   2.282927e+05  -1.452698e+06
   1.676757e+06  -1.051682e+06
   2.182866e+06   4.799106e+05
   1.099766e+06   2.029105e+06
  -9.556404e+05   2.269061e+06
  -2.431269e+06   9.994455e+05
  -2.283360e+06  -6.149840e+05
  -9.732437e+05  -1.301338e+06
   1.746850e+05  -9.672608e+05
   4.219897e+05  -5.390866e+05
   1.564141e+05  -7.173000e+05
   1.490927e+05  -1.213194e+06
   6.476802e+05  -1.201419e+06
   1.227952e+06  -2.824108e+05
   1.267438e+06   1.061441e+06
   5.099657e+05   1.836968e+06
  -6.229572e+05   1.379730e+06
  -1.245835e+06  -7.539970e+03
  -7.829744e+05  -1.226486e+06
   3.574862e+05  -1.339943e+06
   1.087212e+06  -4.207795e+05
   7.718499e+05   6.179643e+05
  -8.566851e+04   1.002073e+06
  -4.712056e+05   7.581821e+05
  -6.527496e+04   4.233810e+05
   4.035756e+05   3.396853e+05
   4.719217e+04   3.746428e+05
  -1.090831e+06   1.983326e+05
  -1.960015e+06  -3.297639e+05
  -1.549297e+06  -9.986257e+05
   1.765773e+04  -1.360124e+06
   1.505854e+06  -1.073461e+06
   1.756839e+06  -2.724555e+05
   8.129704e+05   4.421134e+05
  -2.393406e+05   5.258762e+05
  -4.825095e+05   4.574617e+04
  -1.280959e+04  -3.788596e+05
   4.431981e+05  -2.355995e+05
   4.552093e+05   3.355264e+05
   2.045366e+05   7.075356e+05
   5.757610e+04   4.641667e+05
   1.376003e+05  -1.116979e+05
   2.979710e+05  -3.059079e+05
   2.702749e+05   2.228501e+05
  -1.615614e+05   9.604257e+05
  -8.767123e+05   1.014601e+06
  -1.279434e+06   1.370623e+05
  -7.773522e+05  -8.908431e+05
   4.110164e+05  -1.067082e+06
   1.195477e+06  -2.846032e+05
   6.971186e+05   5.701253e+05
  -6.772967e+05   6.247698e+05
  -1.546538e+06  -9.382278e+04
  -1.001801e+06  -8.385442e+05
   4.505020e+05  -9.757928e+05
   1.463075e+06  -4.870137e+05
   1.216999e+06   1.777221e+05
   1.386788e+05   5.061148e+05
  -6.285075e+05   2.670430e+05
  -3.601890e+05  -2.794431e+05
   5.832412e+05  -4.857011e+05
   1.140218e+06   1.096743e+05
   6.135407e+05   1.158148e+06
  -6.143827e+05   1.630446e+06
  -1.456954e+06   8.246265e+05
  -1.206744e+06  -7.555365e+05
  -1.742543e+05  -1.743433e+06
   7.322349e+05  -1.259890e+06
   9.007171e+05   1.658483e+05
   4.216771e+05   1.159181e+06
  -2.042992e+05   9.501836e+05
  -5.409278e+05   8.462958e+04
  -4.620627e+05  -3.752173e+05
  -1.722072e+05  -1.411833e+05
  -4.281364e+04   9.695963e+04
  -2.476706e+05  -2.774699e+05
  -4.767159e+05  -9.375247e+05
  -1.914454e+05  -1.052753e+06
   6.772392e+05  -3.804302e+05
   1.428781e+06   4.667159e+05
   1.249458e+06   8.256545e+05
   1.748194e+05   6.760289e+05
  -8.449721e+05   3.958432e+05
  -9.618306e+05   1.719300e+05
  -3.389298e+05  -4.621971e+04
   1.484114e+05  -2.155964e+05
   2.232831e+04  -2.069674e+05
  -2.711793e+05  -1.035153e+05
  -4.223941e+04  -1.302464e+05
   6.595091e+05  -2.162149e+05
   1.013155e+06   2.479455e+04
   3.927050e+05   6.713370e+05
  -8.396347e+05   1.125290e+06
  -1.645101e+06   7.090864e+05
  -1.347490e+06  -4.369308e+05
  -2.492760e+05  -1.368029e+06
   7.519075e+05  -1.323641e+06
   1.021642e+06  -5.047634e+05
   6.353068e+05   2.378514e+05
   1.217093e+05   3.482665e+05
  -7.879320e+04   5.593549e+04
   7.563660e+04  -2.412119e+04
   2.943086e+05   3.561968e+05
   2.377080e+05   7.867531e+05
  -1.816542e+05   6.550606e+05
  -6.616132e+05  -1.300389e+05
  -7.029116e+05  -9.349687e+05
  -9.368254e+04  -9.992667e+05
   7.370548e+05  -2.252556e+05
   9.947986e+05   7.141725e+05
   3.244556e+05   1.058017e+06
  -6.970278e+05   6.454775e+05
  -1.079759e+06  -8.214546e+04
  -5.070697e+05  -5.911406e+05
   2.815317e+05  -6.480621e+05
   3.633436e+05  -3.532832e+05
  -2.469719e+05  -1.436719e+04
  -6.320629e+05   3.231888e+04
  -1.376696e+05  -2.979393e+05
   8.056717e+05  -6.535625e+05
   1.219680e+06  -5.211497e+05
   7.314243e+05   1.709158e+05
  -9.984381e+04   8.395381e+05
  -5.348929e+05   8.243689e+05
  -4.062868e+05   1.500048e+05
  -4.504578e+04  -4.673838e+05
   2.355222e+05  -4.169753e+05
   3.401590e+05   1.507576e+05
   2.419311e+05   5.616481e+05
  -5.460361e+04   4.086541e+05
  -3.784054e+05  -4.816268e+04
  -4.581098e+05  -2.710054e+05
  -2.349637e+05  -9.152190e+04
   3.019763e+04   1.411056e+05
   8.114097e+04   3.351553e+04
  -1.396598e+03  -3.453925e+05
   6.140990e+04  -5.258552e+05
   3.125526e+05  -1.999221e+05
   4.344293e+05   3.756241e+05
   1.392303e+05   6.285550e+05
  -3.998417e+05   3.000434e+05
  -6.391876e+05  -2.773179e+05
  -2.404766e+05  -5.591954e+05
   4.926638e+05  -3.514237e+05
   8.526904e+05   7.954549e+04
   4.613449e+05   3.688021e+05
  -2.865607e+05   3.833103e+05
  -6.192378e+05   2.138840e+05
  -2.393664e+05   1.632859e+04
   3.404587e+05  -6.016652e+04
   3.960799e+05   6.906525e+04
  -1.689314e+05   2.838409e+05
  -7.285825e+05   2.583573e+05
