
 $NMID
 id='ANONYMOUS ', fmtdat='(2E16.6)'
 volume=1.0
 tramp=1.0
 $END
   4.882972e+07   1.536288e+06
   2.838839e+07   3.076423e+07
  -7.259460e+06   3.259775e+07
  -2.400452e+07   1.222927e+07
  -1.405580e+07  -6.079925e+06
   2.926572e+06  -7.935474e+06
   8.419150e+06   1.045338e+06
   2.358258e+06   8.393816e+06
  -5.358072e+06   8.097266e+06
  -8.352097e+06   1.684308e+06
  -6.005027e+06  -5.562437e+06
  -5.591581e+05  -7.599853e+06
   3.598650e+06  -2.293565e+06
   2.297874e+06   4.921945e+06
  -3.316386e+06   5.762336e+06
  -6.801322e+06  -1.242515e+06
  -3.698393e+06  -8.947672e+06
   3.499049e+06  -1.018980e+07
   8.929315e+06  -4.896346e+06
   9.350632e+06   2.110956e+06
   5.476923e+06   6.727645e+06
   2.608597e+05   7.457539e+06
  -2.641657e+06   5.012748e+06
  -1.416208e+06   2.220940e+06
   1.185206e+06   2.044379e+06
   1.600204e+05   3.878076e+06
  -5.015647e+06   3.839951e+06
  -8.669954e+06   1.931507e+05
  -6.120410e+06  -3.859422e+06
   2.365414e+04  -4.516544e+06
   3.514499e+06  -2.163991e+06
   2.265269e+06   2.015216e+05
  -6.721174e+05   1.048282e+06
  -2.262013e+06   4.724177e+05
  -2.052731e+06  -1.458888e+06
  -4.840914e+05  -3.661738e+06
   1.753577e+06  -3.331974e+06
   2.790959e+06   3.259368e+05
   1.279243e+06   3.279259e+06
  -8.105748e+05   1.517574e+06
  -2.471740e+05  -2.357207e+06
   2.216268e+06  -2.065830e+06
   2.093156e+06   2.790678e+06
  -2.147272e+06   5.224890e+06
  -5.918015e+06   6.863314e+05
  -4.217096e+06  -6.099872e+06
   1.832487e+06  -7.301224e+06
   6.513658e+06  -1.923139e+06
   6.062475e+06   3.999317e+06
   1.613130e+06   5.322473e+06
  -3.066532e+06   2.398499e+06
  -4.657975e+06  -1.330836e+06
  -2.163503e+06  -3.048734e+06
   2.093787e+06  -1.884477e+06
   3.929855e+06   8.541064e+05
   1.671836e+06   2.376244e+06
  -1.515616e+06   1.161333e+06
  -1.550493e+06  -9.052977e+05
   1.067832e+06  -8.035647e+05
   2.076708e+06   1.442858e+06
  -5.218226e+05   2.827768e+06
  -3.931068e+06   1.523254e+06
  -4.530625e+06  -1.207775e+06
  -1.952784e+06  -3.455492e+06
   1.715133e+06  -4.613441e+06
   4.598217e+06  -4.216257e+06
   5.563177e+06  -1.396485e+06
   3.966492e+06   2.948421e+06
   6.984402e+05   5.514005e+06
  -1.665233e+06   4.206602e+06
  -1.483549e+06   1.130328e+06
  -1.446406e+05  -7.968762e+04
  -1.251262e+05   9.903512e+05
  -1.627190e+06   1.576992e+06
  -2.632045e+06   7.588008e+04
  -1.823248e+06  -1.894425e+06
   5.260528e+04  -2.034606e+06
   1.501832e+06  -1.920863e+05
   1.562612e+06   1.942724e+06
  -4.207995e+04   2.694183e+06
  -2.556033e+06   1.426557e+06
  -3.985746e+06  -1.201669e+06
  -2.752582e+06  -3.433340e+06
   1.576493e+05  -3.713538e+06
   2.058647e+06  -2.307312e+06
   1.949035e+06  -9.512555e+05
   1.605566e+06  -6.126838e+05
   2.641093e+06  -4.367093e+05
   3.920228e+06   7.057050e+05
   3.139057e+06   2.527106e+06
   9.120311e+04   3.755216e+06
  -2.965766e+06   3.532349e+06
  -3.860176e+06   1.880445e+06
  -2.432470e+06  -4.564563e+05
  -1.914492e+05  -2.081870e+06
   1.069054e+06  -1.753462e+06
   5.178992e+05   5.660977e+04
  -1.022819e+06   1.186108e+06
  -1.736355e+06   3.360857e+05
  -8.050581e+05  -1.112175e+06
   4.967731e+05  -1.023262e+06
   4.136326e+05   3.397532e+05
  -9.123305e+05   6.487872e+05
  -1.629516e+06  -1.089906e+06
  -6.107415e+05  -3.070498e+06
   1.339413e+06  -3.078900e+06
   2.771577e+06  -1.078140e+06
   3.023484e+06   1.249543e+06
   2.130340e+06   2.515285e+06
   4.319763e+05   2.411340e+06
  -1.157263e+06   1.340594e+06
  -1.460193e+06   1.911413e+05
  -4.511579e+05  -4.622127e+04
   3.221946e+05   6.904899e+05
  -3.869480e+05   1.208822e+06
  -1.733926e+06   5.006778e+05
  -1.835701e+06  -8.192546e+05
  -3.409474e+05  -1.282601e+06
   1.071140e+06  -5.155360e+05
   8.233891e+05   4.147062e+05
  -7.580230e+05   4.855372e+05
  -1.996271e+06  -2.721610e+05
  -1.620556e+06  -1.235109e+06
   2.123641e+05  -1.815454e+06
   2.121522e+06  -1.516580e+06
   2.545085e+06  -2.347001e+05
   1.097674e+06   1.164138e+06
  -8.586835e+05   1.352211e+06
  -1.419224e+06   1.467695e+05
  -1.612820e+05  -9.902555e+05
   1.396717e+06  -6.574011e+05
   1.565469e+06   7.247692e+05
   3.059375e+05   1.507996e+06
  -9.906975e+05   8.908790e+05
  -1.142720e+06  -2.797734e+05
  -2.254664e+05  -7.058319e+05
   7.224751e+05  -3.982844e+04
   6.621213e+05   9.739179e+05
  -5.460524e+05   1.302760e+06
  -1.852518e+06   4.773526e+05
  -1.859061e+06  -9.858403e+05
  -3.321808e+05  -1.906165e+06
   1.332330e+06  -1.491242e+06
   1.580858e+06  -1.801544e+05
   4.555875e+05   7.957012e+05
  -6.069505e+05   7.323906e+05
  -5.894908e+05   6.935815e+04
   9.657795e+04  -3.372568e+05
   4.522877e+05  -2.074828e+05
   1.341481e+05   4.826337e+04
  -3.864920e+05  -6.603186e+04
  -4.634208e+05  -6.027956e+05
   1.926361e+05  -1.076927e+06
   1.270812e+06  -8.090826e+05
   1.905536e+06   3.965662e+05
   1.326878e+06   1.796693e+06
  -2.174606e+05   2.223622e+06
  -1.488782e+06   1.292880e+06
  -1.552770e+06  -1.159622e+05
  -7.996506e+05  -8.267627e+05
  -3.071372e+05  -6.173451e+05
  -4.364301e+05  -2.267276e+05
  -5.563566e+05  -2.990561e+05
  -6.806322e+04  -6.956105e+05
   8.059732e+05  -8.180365e+05
   1.328413e+06  -2.943830e+05
   9.681055e+05   6.658951e+05
  -2.269594e+05   1.342372e+06
  -1.584094e+06   9.782465e+05
  -2.061857e+06  -4.568373e+05
  -1.027152e+06  -1.930195e+06
   9.386079e+05  -2.154336e+06
   2.330047e+06  -9.255041e+05
   2.148060e+06   6.111836e+05
   8.794268e+05   1.223868e+06
  -1.788499e+05   8.711152e+05
  -3.596974e+05   4.836720e+05
  -9.429179e+04   7.037832e+05
  -1.216774e+05   1.196943e+06
  -6.301242e+05   1.168325e+06
  -1.187994e+06   2.754496e+05
  -1.218656e+06  -1.005781e+06
  -4.958029e+05  -1.746118e+06
   5.837524e+05  -1.316396e+06
   1.179735e+06   9.654664e+03
   7.337488e+05   1.178484e+06
  -3.639213e+05   1.271209e+06
  -1.054882e+06   3.629168e+05
  -7.255345e+05  -6.355674e+05
   1.204145e+05  -9.710267e+05
   4.868439e+05  -7.042690e+05
   7.276447e+04  -3.810806e+05
  -3.959730e+05  -3.159544e+05
  -5.192806e+04  -3.547502e+05
   1.051522e+06  -1.812989e+05
   1.884857e+06   3.246438e+05
   1.473173e+06   9.614662e+05
  -4.525820e+04   1.306185e+06
  -1.463815e+06   1.025139e+06
  -1.676835e+06   2.419451e+05
  -7.547870e+05  -4.501907e+05
   2.453755e+05  -5.133790e+05
   4.644166e+05  -2.761401e+04
   1.741786e+04   3.855024e+05
  -4.125367e+05   2.360699e+05
  -4.395377e+05  -3.187479e+05
  -2.254682e+05  -6.740925e+05
  -8.139080e+04  -4.476386e+05
  -1.226328e+05   8.976592e+04
  -2.560788e+05   2.754580e+05
  -2.513591e+05  -2.136498e+05
   1.362410e+05  -9.100506e+05
   8.346110e+05  -9.724466e+05
   1.253111e+06  -1.417375e+05
   7.735420e+05   8.540730e+05
  -3.952473e+05   1.041533e+06
  -1.162742e+06   2.948061e+05
  -6.727069e+05  -5.331834e+05
   6.477372e+05  -5.897906e+05
   1.456130e+06   9.515239e+04
   9.190465e+05   7.908699e+05
  -4.444630e+05   9.002847e+05
  -1.371597e+06   4.333457e+05
  -1.128127e+06  -1.770120e+05
  -1.219685e+05  -4.702755e+05
   5.956506e+05  -2.425430e+05
   3.492312e+05   2.751012e+05
  -5.444328e+05   4.808391e+05
  -1.093755e+06  -8.042803e+04
  -6.162451e+05  -1.096259e+06
   5.513083e+05  -1.573362e+06
   1.373867e+06  -8.145044e+05
   1.156453e+06   7.022067e+05
   1.810603e+05   1.651346e+06
  -6.839104e+05   1.187218e+06
  -8.461561e+05  -1.677531e+05
  -3.882787e+05  -1.095286e+06
   2.070585e+05  -8.832591e+05
   5.165649e+05  -7.126984e+04
   4.255525e+05   3.447372e+05
   1.480984e+05   1.212997e+05
   4.505678e+04  -8.455634e+04
   2.582749e+05   2.828665e+05
   4.658537e+05   8.959906e+05
   1.674072e+05   9.872014e+05
  -6.644083e+05   3.527947e+05
  -1.355966e+06  -4.330885e+05
  -1.170548e+06  -7.701900e+05
  -1.657464e+05  -6.446478e+05
   7.830306e+05  -3.890270e+05
   9.034233e+05  -1.642210e+05
   3.338384e+05   5.778066e+04
  -1.330862e+05   2.101304e+05
  -3.762052e+04   1.792990e+05
   2.394984e+05   7.694535e+04
   5.006680e+04   1.249143e+05
  -6.039893e+05   2.268294e+05
  -9.686547e+05  -1.005836e+04
  -4.106456e+05  -6.502447e+05
   7.727362e+05  -1.097744e+06
   1.580228e+06  -6.992425e+05
   1.317873e+06   4.013137e+05
   2.584481e+05   1.298628e+06
  -7.134177e+05   1.270887e+06
  -9.735276e+05   5.035756e+05
  -6.070906e+05  -2.075244e+05
  -1.280754e+05  -3.338433e+05
   5.941287e+04  -7.346587e+04
  -7.404990e+04   5.880212e+03
  -2.700709e+05  -3.398744e+05
  -2.234542e+05  -7.435866e+05
   1.641856e+05  -6.310088e+05
   6.311090e+05   1.014583e+05
   6.953029e+05   8.730732e+05
   1.217927e+05   9.606928e+05
  -6.932320e+05   2.465772e+05
  -9.671231e+05  -6.534616e+05
  -3.324048e+05  -1.010176e+06
   6.594955e+05  -6.380375e+05
   1.041417e+06   6.568628e+04
   4.954134e+05   5.768904e+05
  -2.701332e+05   6.384286e+05
  -3.617057e+05   3.382686e+05
   2.185917e+05  -2.499606e+03
   5.974552e+05  -4.131299e+04
   1.392825e+05   2.884684e+05
  -7.601564e+05   6.268660e+05
  -1.168205e+06   4.871361e+05
  -7.123314e+05  -1.777048e+05
   8.804221e+04  -8.086114e+05
   5.213293e+05  -7.922453e+05
   4.095695e+05  -1.542848e+05
   6.027573e+04   4.400447e+05
  -2.201790e+05   4.110917e+05
  -3.300123e+05  -1.226285e+05
  -2.387627e+05  -5.327777e+05
   4.859232e+04  -4.072201e+05
   3.641095e+05   3.471047e+04
   4.410212e+05   2.678325e+05
   2.212755e+05   9.590720e+04
  -3.443976e+04  -1.506857e+05
  -6.854306e+04  -5.966820e+04
   3.282779e+04   3.256098e+05
  -2.497441e+04   5.321134e+05
  -2.951354e+05   2.293089e+05
  -4.478411e+05  -3.401167e+05
  -1.711162e+05  -6.047833e+05
   3.717456e+05  -3.015298e+05
   6.273324e+05   2.498191e+05
   2.461301e+05   5.260671e+05
  -4.719141e+05   3.406056e+05
  -8.261630e+05  -6.253134e+04
  -4.486766e+05  -3.478343e+05
   2.733154e+05  -3.814053e+05
   5.977839e+05  -2.250002e+05
   2.427975e+05  -1.638812e+04
  -3.087797e+05   8.162709e+04
  -3.768835e+05  -3.916067e+04
   1.380100e+05  -2.654919e+05
   6.653240e+05  -2.631344e+05
