
 $NMID
 id='ANONYMOUS ', fmtdat='(2E16.6)'
 volume=1.0
 tramp=1.0
 $END
   7.089210e+06   1.698838e+06
   3.763443e+06   3.959144e+06
  -8.652600e+05   4.090777e+06
  -3.275231e+06   2.510079e+06
  -2.444602e+06   2.495031e+05
  -8.926981e+04  -1.169247e+06
   1.412073e+06  -6.448044e+05
   1.050176e+06   1.131046e+06
  -3.900225e+05   2.017700e+06
  -1.384675e+06   8.217084e+05
  -1.083331e+06  -1.160626e+06
   5.884649e+04  -1.667068e+06
   8.462839e+05  -1.972213e+05
   5.215039e+05   1.501214e+06
  -5.359054e+05   1.574574e+06
  -1.205755e+06   3.071222e+04
  -7.166299e+05  -1.549185e+06
   5.921550e+05  -1.759141e+06
   1.564774e+06  -5.904748e+05
   1.350960e+06   7.914549e+05
   2.809788e+05   1.244898e+06
  -4.620355e+05   7.163759e+05
  -1.284070e+05   1.840291e+05
   7.280759e+05   4.792355e+05
   8.363622e+05   1.276524e+06
  -3.290627e+05   1.497015e+06
  -1.846737e+06   6.430175e+05
  -2.240749e+06  -6.193479e+05
  -1.034411e+06  -1.253862e+06
   6.965683e+05  -8.882280e+05
   1.372255e+06   3.836542e+04
   4.848274e+05   7.851240e+05
  -9.293838e+05   7.737523e+05
  -1.417513e+06  -7.172370e+04
  -6.245412e+05  -1.097065e+06
   4.566458e+05  -1.306684e+06
   7.142595e+05  -4.173613e+05
   1.302881e+05   6.215714e+05
  -4.028793e+05   6.211235e+05
  -2.517250e+05  -3.739593e+05
   3.229316e+05  -1.095111e+06
   6.628413e+05  -6.420448e+05
   4.747049e+05   4.094604e+05
  -2.677209e+04   7.899628e+05
  -4.311435e+05   9.711669e+04
  -3.783592e+05  -8.276999e+05
   2.510310e+05  -9.588754e+05
   1.084123e+06  -1.550907e+05
   1.348325e+06   8.471776e+05
   5.942655e+05   1.224344e+06
  -6.549747e+05   7.556711e+05
  -1.294859e+06  -8.613638e+04
  -7.989493e+05  -5.953519e+05
   2.234327e+05  -4.479848e+05
   7.436245e+05   5.675526e+04
   4.043010e+05   3.573945e+05
  -2.480623e+05   2.035679e+05
  -4.743819e+05  -1.699172e+05
  -1.020917e+05  -3.715479e+05
   3.822079e+05  -2.367955e+05
   3.765083e+05   8.533338e+04
  -1.844081e+05   2.798560e+05
  -6.829214e+05   8.707589e+04
  -4.213906e+05  -4.568198e+05
   5.628914e+05  -9.237702e+05
   1.425549e+06  -7.905216e+05
   1.396936e+06   1.742557e+04
   6.152008e+05   9.470388e+05
  -1.119041e+05   1.330816e+06
  -2.800545e+05   1.060779e+06
  -1.527783e+05   6.202109e+05
  -2.482107e+05   4.451645e+05
  -6.521388e+05   4.214358e+05
  -9.889199e+05   1.270337e+05
  -8.923458e+05  -5.165475e+05
  -3.388392e+05  -1.016362e+06
   3.662496e+05  -8.133725e+05
   7.713139e+05   4.497633e+04
   5.527786e+05   8.485634e+05
  -1.772285e+05   8.944603e+05
  -8.470974e+05   1.781534e+05
  -8.997402e+05  -6.375015e+05
  -3.517573e+05  -9.192635e+05
   2.367089e+05  -6.446841e+05
   4.001835e+05  -2.772008e+05
   2.644602e+05  -1.818506e+05
   3.171862e+05  -2.769256e+05
   7.499916e+05  -2.216226e+05
   1.155362e+06   1.783280e+05
   9.347558e+05   7.726698e+05
  -9.356120e+03   1.177574e+06
  -1.044486e+06   1.056746e+06
  -1.348982e+06   4.028138e+05
  -7.251471e+05  -3.764881e+05
   1.789047e+05  -7.295399e+05
   5.286959e+05  -4.498107e+05
   1.445273e+05   9.658188e+04
  -4.058548e+05   3.249939e+05
  -5.092186e+05   4.745669e+04
  -1.398183e+05  -3.375471e+05
   2.405840e+05  -3.238880e+05
   2.427935e+05   9.015908e+04
  -1.095940e+05   3.701091e+05
  -4.807103e+05   5.350658e+04
  -5.041748e+05  -6.784966e+05
  -3.299099e+04  -1.123512e+06
   7.002113e+05  -7.725584e+05
   1.162284e+06   1.465360e+05
   9.427015e+05   8.874034e+05
   1.943574e+05   9.269989e+05
  -4.521405e+05   4.328031e+05
  -5.149418e+05  -6.298808e+03
  -1.452745e+05  -2.344136e+04
   9.700582e+04   2.224549e+05
  -9.890915e+04   3.305166e+05
  -4.712541e+05   1.234132e+05
  -5.286131e+05  -2.081482e+05
  -1.318875e+05  -3.484777e+05
   3.267397e+05  -1.759198e+05
   3.296284e+05   1.330298e+05
  -1.946084e+05   2.622420e+05
  -7.348577e+05   3.348879e+04
  -6.876839e+05  -4.127403e+05
  -2.193130e+03  -7.032147e+05
   7.238231e+05  -5.564692e+05
   8.448642e+05  -6.776874e+04
   3.247780e+05   3.490042e+05
  -2.671229e+05   3.501364e+05
  -3.764768e+05   4.536264e+03
   9.792324e+03  -2.772786e+05
   4.422857e+05  -1.723471e+05
   4.987343e+05   2.161753e+05
   1.513291e+05   4.782271e+05
  -2.663445e+05   3.474828e+05
  -3.841635e+05  -1.183518e+04
  -1.314336e+05  -1.970753e+05
   1.866005e+05  -1.584506e+04
   1.771585e+05   3.105156e+05
  -2.169894e+05   3.960373e+05
  -6.113352e+05   9.546876e+04
  -5.671571e+05  -3.618436e+05
  -7.497086e+04  -6.052933e+05
   4.222805e+05  -4.567583e+05
   4.981207e+05  -6.401934e+04
   1.663198e+05   2.452068e+05
  -1.882146e+05   2.473779e+05
  -2.356943e+05   1.074233e+04
  -4.037551e+03  -1.854404e+05
   2.101428e+05  -1.446463e+05
   1.722986e+05   3.513934e+04
  -5.397759e+04   8.265051e+04
  -1.771624e+05  -1.094458e+05
   1.324001e+04  -3.271771e+05
   3.973295e+05  -2.601108e+05
   6.084852e+05   1.438804e+05
   3.965774e+05   5.958935e+05
  -1.060719e+05   7.353276e+05
  -5.124122e+05   4.572145e+05
  -5.622438e+05  -1.310475e+04
  -3.401642e+05  -3.341234e+05
  -1.232301e+05  -3.415561e+05
  -6.953322e+04  -1.671715e+05
  -8.944416e+04  -7.629574e+04
   2.329411e+03  -1.707970e+05
   2.454044e+05  -2.690008e+05
   4.520813e+05  -1.239059e+05
   3.701515e+05   2.447108e+05
  -4.926560e+04   5.052857e+05
  -5.369334e+05   3.484175e+05
  -6.946091e+05  -1.636535e+05
  -3.485709e+05  -6.285283e+05
   2.713307e+05  -6.807375e+05
   7.209949e+05  -3.133879e+05
   7.226096e+05   1.576052e+05
   3.695256e+05   4.057877e+05
  -1.399492e+04   3.660667e+05
  -1.832826e+05   2.336746e+05
  -1.533376e+05   2.211780e+05
  -1.155366e+05   3.209241e+05
  -2.064199e+05   3.182520e+05
  -3.567540e+05   5.254845e+04
  -3.643933e+05  -3.557268e+05
  -1.238296e+05  -5.827665e+05
   2.225703e+05  -4.204394e+05
   3.919345e+05   7.638694e+03
   2.395136e+05   3.626581e+05
  -8.529838e+04   4.019533e+05
  -2.857690e+05   1.639943e+05
  -2.163316e+05  -1.206367e+05
  -1.188988e+04  -2.579190e+05
   8.364392e+04  -2.316353e+05
  -6.109656e+03  -1.571942e+05
  -1.082329e+05  -1.291970e+05
  -6.346004e+02  -1.247843e+05
   3.155192e+05  -5.258749e+04
   5.668433e+05   1.197303e+05
   4.634453e+05   3.078437e+05
   1.599582e+04   3.835700e+05
  -4.320355e+05   2.907604e+05
  -5.273898e+05   9.002058e+04
  -2.569804e+05  -8.743041e+04
   6.096903e+04  -1.293579e+05
   1.320701e+05  -3.011192e+04
  -2.389810e+04   8.377923e+04
  -1.622817e+05   5.736222e+04
  -1.291671e+05  -1.137154e+05
  -8.650262e+03  -2.407753e+05
   3.132534e+04  -1.525316e+05
  -4.679185e+04   6.400166e+04
  -1.283502e+05   1.321574e+05
  -8.861640e+04  -6.781517e+04
   8.642903e+04  -3.139357e+05
   2.877142e+05  -2.929427e+05
   3.505641e+05   1.305142e+04
   1.748768e+05   2.968603e+05
  -1.495920e+05   2.833982e+05
  -3.507975e+05   2.249912e+04
  -2.021791e+05  -2.045268e+05
   2.085429e+05  -1.922382e+05
   4.990399e+05   2.593618e+04
   3.592457e+05   2.596126e+05
  -1.077020e+05   3.315861e+05
  -4.712002e+05   1.951951e+05
  -4.161088e+05  -3.662466e+04
  -6.030698e+04  -1.691464e+05
   1.932396e+05  -9.530073e+04
   9.214393e+04   8.009462e+04
  -2.140182e+05   1.219465e+05
  -3.536873e+05  -8.847867e+04
  -1.319095e+05  -3.949807e+05
   2.723944e+05  -4.870535e+05
   4.986903e+05  -2.033469e+05
   3.650364e+05   2.774599e+05
   1.786961e+04   5.641185e+05
  -2.522387e+05   4.092874e+05
  -2.877254e+05  -3.864911e+04
  -1.431319e+05  -3.670675e+05
   4.058425e+04  -3.154689e+05
   1.594963e+05  -3.287775e+04
   1.684198e+05   1.308009e+05
   8.411791e+04   5.494668e+04
   2.360891e+03  -3.867104e+04
   2.674592e+04   7.447051e+04
   1.167074e+05   2.971995e+05
   8.075004e+04   3.404100e+05
  -1.770147e+05   1.118381e+05
  -4.507023e+05  -1.737356e+05
  -4.169781e+05  -2.804896e+05
  -4.704377e+04  -2.091531e+05
   3.064308e+05  -1.089542e+05
   3.184328e+05  -4.999930e+04
   7.832764e+04   4.316744e+03
  -6.360071e+04   6.317410e+04
   2.769343e+04   8.050937e+04
   1.250474e+05   5.606173e+04
  -4.607280e+03   4.576043e+04
  -2.566329e+05   4.299974e+04
  -3.152932e+05  -4.216003e+04
  -5.058426e+04  -2.188650e+05
   3.294998e+05  -3.159315e+05
   5.105742e+05  -1.555107e+05
   3.682166e+05   1.949895e+05
   3.254418e+04   4.454749e+05
  -2.578409e+05   3.862498e+05
  -3.352390e+05   1.088193e+05
  -2.024523e+05  -1.111306e+05
  -1.325756e+04  -1.133962e+05
   6.212845e+04   4.428991e+03
  -9.396678e+03   3.134334e+04
  -1.018727e+05  -1.055536e+05
  -7.261588e+04  -2.518501e+05
   8.125958e+04  -1.945288e+05
   2.154086e+05   8.230417e+04
   1.783518e+05   3.393782e+05
  -3.748691e+04   3.168108e+05
  -2.641369e+05   1.838230e+04
  -2.867629e+05  -2.848829e+05
  -5.120368e+04  -3.416808e+05
   2.442862e+05  -1.588838e+05
   3.206414e+05   6.518020e+04
   1.214605e+05   1.751404e+05
  -1.052182e+05   1.629027e+05
  -9.318667e+04   9.151300e+04
   1.124415e+05   2.075142e+04
   2.094395e+05   1.024079e+04
   2.365693e+04   9.180353e+04
  -2.695937e+05   1.908552e+05
  -3.659201e+05   1.571990e+05
  -1.900833e+05  -4.826248e+04
   5.658053e+04  -2.488396e+05
   1.606471e+05  -2.299073e+05
   1.001707e+05  -9.483981e+03
  -1.435343e+04   1.640708e+05
  -9.290680e+04   1.075722e+05
  -1.080190e+05  -8.626841e+04
  -5.715748e+04  -1.848041e+05
   3.843205e+04  -1.002935e+05
   1.178910e+05   3.842803e+04
   1.247967e+05   7.683017e+04
   6.965862e+04   1.581807e+04
   1.170453e+04  -2.268787e+04
  -1.971679e+04   3.687966e+04
  -4.919168e+04   1.324138e+05
  -9.639863e+04   1.359694e+05
  -1.281510e+05   6.863256e+02
  -8.962707e+04  -1.700086e+05
   2.672093e+04  -2.115697e+05
   1.509940e+05  -7.013066e+04
   1.753385e+05   1.267728e+05
   4.616354e+04   1.965033e+05
  -1.557755e+05   9.218574e+04
  -2.495060e+05  -6.343482e+04
  -1.263654e+05  -1.301733e+05
   1.026955e+05  -8.993275e+04
   1.951364e+05  -2.157505e+04
   5.210482e+04   8.461445e+03
  -1.451127e+05  -1.203885e+04
  -1.394631e+05  -6.583180e+04
   8.681379e+04  -1.080912e+05
   2.823918e+05  -6.458387e+04
