
 $NMID
 id='ANONYMOUS ', fmtdat='(2E16.6)'
 volume=1.0
 tramp=1.0
 $END
   3.959869e+07  -1.187807e+06
   2.590538e+07   2.102246e+07
  -1.898042e+06   2.619922e+07
  -1.804436e+07   1.395887e+07
  -1.314964e+07  -1.412307e+06
   5.688612e+05  -6.879002e+06
   7.497644e+06  -1.434422e+06
   4.116644e+06   6.597686e+06
  -3.017305e+06   8.791984e+06
  -7.077640e+06   3.273941e+06
  -5.761340e+06  -4.568471e+06
  -8.691584e+05  -7.092748e+06
   3.201680e+06  -1.896317e+06
   2.486346e+06   5.261277e+06
  -2.406908e+06   6.390231e+06
  -6.144222e+06   4.670704e+04
  -4.256437e+06  -7.417360e+06
   1.966661e+06  -9.212077e+06
   7.213077e+06  -4.701935e+06
   7.724020e+06   1.581400e+06
   4.182866e+06   5.242636e+06
   2.024412e+05   5.232024e+06
  -9.692307e+05   3.431263e+06
   8.071916e+05   2.526323e+06
   2.166173e+06   3.572112e+06
  -3.810024e+05   4.799009e+06
  -5.799910e+06   3.503241e+06
  -8.683039e+06  -4.106899e+05
  -5.447930e+06  -3.809604e+06
   9.052079e+05  -3.877123e+06
   4.120340e+06  -1.200323e+06
   1.921896e+06   1.382767e+06
  -2.165407e+06   1.842995e+06
  -3.784984e+06   6.661187e+04
  -2.213379e+06  -2.687627e+06
   3.721492e+05  -4.217708e+06
   1.880640e+06  -2.667268e+06
   1.627322e+06   9.317358e+05
   2.551423e+05   2.625216e+06
  -5.837160e+05   1.768103e+05
   4.260203e+05  -3.200542e+06
   2.318770e+06  -2.474755e+06
   2.315687e+06   2.093655e+06
  -6.839680e+05   4.617517e+06
  -3.959443e+06   1.294957e+06
  -3.656678e+06  -4.367241e+06
   6.827201e+05  -5.976673e+06
   5.346243e+06  -1.987347e+06
   6.171990e+06   3.258300e+06
   2.428809e+06   5.115386e+06
  -2.741901e+06   2.973720e+06
  -5.112274e+06  -5.615238e+05
  -2.949935e+06  -2.646437e+06
   1.387224e+06  -2.071122e+06
   3.610608e+06   2.052246e+05
   1.899479e+06   1.797735e+06
  -1.167757e+06   1.140818e+06
  -1.800691e+06  -7.051530e+05
   3.766704e+05  -1.291055e+06
   2.103071e+06   1.511469e+05
   7.885773e+05   1.865243e+06
  -2.348103e+06   1.868090e+06
  -3.944914e+06  -1.368509e+04
  -2.237382e+06  -2.563717e+06
   1.551540e+06  -4.353236e+06
   4.759941e+06  -4.081989e+06
   5.434347e+06  -1.176682e+06
   3.492336e+06   2.954604e+06
   6.280482e+05   5.347381e+06
  -1.085399e+06   4.434549e+06
  -1.077243e+06   1.960729e+06
  -6.683168e+05   7.650479e+05
  -1.268011e+06   1.180832e+06
  -2.552870e+06   1.057327e+06
  -2.948117e+06  -7.950043e+05
  -1.612145e+06  -2.753617e+06
   6.428007e+05  -2.517237e+06
   2.205281e+06  -1.581992e+04
   1.918446e+06   2.561762e+06
  -2.078168e+05   3.082148e+06
  -2.805863e+06   1.245753e+06
  -3.849238e+06  -1.501288e+06
  -2.416328e+06  -3.271118e+06
   1.477360e+05  -3.186636e+06
   1.600406e+06  -1.979891e+06
   1.467226e+06  -1.085733e+06
   1.458431e+06  -1.006184e+06
   2.845343e+06  -8.327251e+05
   4.359477e+06   4.619421e+05
   3.621132e+06   2.617864e+06
   2.564190e+05   4.232201e+06
  -3.345226e+06   4.049575e+06
  -4.455615e+06   1.973417e+06
  -2.633060e+06  -7.934224e+05
   1.294312e+05  -2.413138e+06
   1.426153e+06  -1.797229e+06
   5.187580e+05   1.763367e+05
  -1.233512e+06   1.280048e+06
  -1.849135e+06   3.755466e+05
  -7.593272e+05  -1.150251e+06
   6.548796e+05  -1.149618e+06
   6.882518e+05   3.698007e+05
  -7.216658e+05   1.137340e+06
  -1.963296e+06  -4.063718e+05
  -1.534032e+06  -2.997443e+06
   5.309330e+05  -3.977087e+06
   2.876233e+06  -2.240682e+06
   3.963287e+06   8.263546e+05
   3.046463e+06   2.968503e+06
   6.971652e+05   3.034483e+06
  -1.394316e+06   1.587876e+06
  -1.722148e+06   1.691976e+05
  -5.156985e+05  -3.908812e+04
   3.909281e+05   7.727670e+05
  -3.173045e+05   1.301232e+06
  -1.784957e+06   6.180836e+05
  -2.037695e+06  -7.175523e+05
  -5.088518e+05  -1.328782e+06
   1.171129e+06  -6.587535e+05
   1.077588e+06   4.588099e+05
  -7.946256e+05   8.123193e+05
  -2.519602e+06  -5.556886e+03
  -2.233369e+06  -1.404777e+06
   4.590559e+04  -2.335644e+06
   2.441374e+06  -1.973945e+06
   2.944669e+06  -3.940944e+05
   1.273901e+06   1.209592e+06
  -8.641968e+05   1.435709e+06
  -1.448831e+06   1.898000e+05
  -1.310517e+05  -1.026700e+06
   1.538717e+06  -7.550695e+05
   1.824456e+06   7.101771e+05
   5.311448e+05   1.706154e+06
  -1.002711e+06   1.194708e+06
  -1.368149e+06  -1.212688e+05
  -4.029549e+05  -7.533772e+05
   7.501551e+05  -9.297903e+04
   7.468520e+05   1.077058e+06
  -6.315348e+05   1.477249e+06
  -2.117388e+06   5.400128e+05
  -2.119827e+06  -1.101027e+06
  -4.318182e+05  -2.141583e+06
   1.420765e+06  -1.741589e+06
   1.775186e+06  -3.119059e+05
   5.984225e+05   8.639044e+05
  -6.455858e+05   8.872118e+05
  -7.458413e+05   7.112225e+04
   6.066632e+04  -5.454906e+05
   6.574095e+05  -3.840255e+05
   3.899431e+05   1.292618e+05
  -3.544811e+05   1.642713e+05
  -6.510229e+05  -5.184854e+05
   6.067140e+04  -1.232023e+06
   1.393386e+06  -1.009769e+06
   2.200291e+06   3.739414e+05
   1.567354e+06   2.010399e+06
  -1.906075e+05   2.588185e+06
  -1.701758e+06   1.633389e+06
  -1.906180e+06  -1.336988e+04
  -1.098361e+06  -1.042531e+06
  -3.961256e+05  -9.522683e+05
  -3.622823e+05  -3.847970e+05
  -5.037446e+05  -2.504327e+05
  -9.600597e+04  -6.955629e+05
   8.517286e+05  -1.009029e+06
   1.567812e+06  -4.695799e+05
   1.258785e+06   7.795165e+05
  -1.559326e+05   1.701336e+06
  -1.824837e+06   1.274798e+06
  -2.449499e+06  -4.437627e+05
  -1.319938e+06  -2.177235e+06
   8.972756e+05  -2.512645e+06
   2.573040e+06  -1.230676e+06
   2.564986e+06   5.159460e+05
   1.230438e+06   1.397885e+06
  -1.008161e+05   1.176221e+06
  -5.286037e+05   6.982783e+05
  -2.878598e+05   7.687439e+05
  -1.893684e+05   1.241488e+06
  -6.448066e+05   1.270346e+06
  -1.290340e+06   3.261320e+05
  -1.396365e+06  -1.133957e+06
  -5.978074e+05  -2.002091e+06
   6.565230e+05  -1.526724e+06
   1.374378e+06  -4.255789e+04
   9.191803e+05   1.282643e+06
  -2.861209e+05   1.475369e+06
  -1.107250e+06   5.757921e+05
  -8.628817e+05  -5.334903e+05
  -2.335606e+04  -1.038733e+06
   3.907791e+05  -8.656899e+05
   1.885930e+04  -5.099133e+05
  -4.337178e+05  -3.819736e+05
  -5.146055e+04  -4.197687e+05
   1.155381e+06  -2.680572e+05
   2.111085e+06   2.784241e+05
   1.728838e+06   1.014252e+06
   8.514758e+04   1.446564e+06
  -1.542585e+06   1.201776e+06
  -1.890869e+06   3.977116e+05
  -9.317695e+05  -3.761770e+05
   2.096134e+05  -5.456175e+05
   5.071786e+05  -1.020774e+05
   5.188402e+03   3.620048e+05
  -5.032925e+05   2.560845e+05
  -4.987643e+05  -3.537138e+05
  -1.809586e+05  -7.834596e+05
  -1.609992e+04  -5.069059e+05
  -1.582942e+05   1.723250e+05
  -3.745928e+05   3.964082e+05
  -3.203740e+05  -2.336634e+05
   1.827900e+05  -1.083161e+06
   9.336543e+05  -1.127865e+06
   1.325881e+06  -1.468567e+05
   8.026375e+05   9.552856e+05
  -4.187328e+05   1.122662e+06
  -1.256662e+06   2.865490e+05
  -7.694472e+05  -6.258115e+05
   7.087437e+05  -7.194969e+05
   1.731463e+06   2.290815e+04
   1.212804e+06   8.803180e+05
  -4.057256e+05   1.144061e+06
  -1.617448e+06   6.681144e+05
  -1.405168e+06  -1.169652e+05
  -1.991352e+05  -5.701079e+05
   6.777017e+05  -3.413751e+05
   3.825744e+05   2.766823e+05
  -6.578268e+05   5.146887e+05
  -1.246013e+06  -1.408187e+05
  -6.419687e+05  -1.278432e+06
   7.022920e+05  -1.776816e+06
   1.610937e+06  -8.959755e+05
   1.340868e+06   8.256110e+05
   2.248117e+05   1.929969e+06
  -7.795150e+05   1.441392e+06
  -1.012978e+06  -1.209467e+05
  -5.369103e+05  -1.266536e+06
   1.515056e+05  -1.088780e+06
   5.817086e+05  -1.304357e+05
   5.580003e+05   4.161229e+05
   2.354036e+05   1.698658e+05
   2.853726e+04  -1.224181e+05
   2.189594e+05   2.654586e+05
   5.252301e+05   1.007582e+06
   2.887294e+05   1.169990e+06
  -6.775754e+05   4.503004e+05
  -1.596254e+06  -4.824152e+05
  -1.449384e+06  -8.843693e+05
  -2.169676e+05  -7.320302e+05
   9.661811e+05  -4.488553e+05
   1.075279e+06  -2.282680e+05
   3.403094e+05   1.352086e+04
  -1.749765e+05   2.344247e+05
   3.111623e+04   2.587006e+05
   3.549979e+05   1.437883e+05
   2.680085e+04   1.459342e+05
  -7.812232e+05   2.256960e+05
  -1.108303e+06  -2.517530e+04
  -3.640539e+05  -7.166121e+05
   9.538078e+05  -1.216409e+06
   1.757207e+06  -7.724043e+05
   1.420318e+06   4.827234e+05
   2.763847e+05   1.509649e+06
  -7.885707e+05   1.453757e+06
  -1.112985e+06   5.359311e+05
  -7.096266e+05  -2.834746e+05
  -1.155527e+05  -3.795591e+05
   1.315099e+05  -2.676916e+04
  -6.810993e+04   6.664232e+04
  -3.570003e+05  -3.728658e+05
  -2.961531e+05  -8.636348e+05
   2.004303e+05  -7.104246e+05
   7.377132e+05   1.713603e+05
   7.518915e+05   1.051387e+06
   5.912433e+04   1.086668e+06
  -8.351856e+05   2.049046e+05
  -1.083846e+06  -8.167737e+05
  -3.385310e+05  -1.153309e+06
   7.626991e+05  -6.810882e+05
   1.162239e+06   8.769446e+04
   5.393685e+05   6.055044e+05
  -2.937519e+05   6.701482e+05
  -3.516185e+05   3.853199e+05
   3.175200e+05   3.297434e+04
   7.071747e+05  -3.663842e+04
   1.405238e+05   3.153174e+05
  -8.766537e+05   7.374525e+05
  -1.295560e+06   6.301790e+05
  -7.623521e+05  -1.359514e+05
   1.001266e+05  -9.051580e+05
   5.329882e+05  -8.982006e+05
   3.949483e+05  -1.404219e+05
   2.993522e+04   5.310348e+05
  -2.601263e+05   4.358344e+05
  -3.759331e+05  -2.032310e+05
  -2.670797e+05  -6.154630e+05
   6.299634e+04  -4.104369e+05
   4.132966e+05   6.644519e+04
   4.944537e+05   2.607983e+05
   2.611628e+05   7.048331e+04
  -1.583975e+04  -1.198433e+05
  -9.403850e+04   3.354941e+04
  -5.529237e+04   4.027640e+05
  -1.412489e+05   5.256369e+05
  -3.620325e+05   1.438608e+05
  -4.217729e+05  -4.539698e+05
  -8.469702e+04  -6.904514e+05
   4.561346e+05  -3.122099e+05
   6.756359e+05   3.234449e+05
   2.480302e+05   6.278656e+05
  -5.240929e+05   3.872012e+05
  -9.115037e+05  -9.468235e+04
  -4.985942e+05  -3.999954e+05
   3.079879e+05  -3.921725e+05
   6.631351e+05  -2.035421e+05
   2.282285e+05  -1.680720e+04
  -4.180945e+05   3.129368e+04
  -4.507187e+05  -1.209612e+05
   2.234616e+05  -3.395647e+05
   8.612492e+05  -2.857813e+05
