
 $NMID
 id='ANONYMOUS ', fmtdat='(2E16.6)'
 volume=1.0
 tramp=1.0
 $END
  -2.619174e+07   4.610820e+05
  -1.703511e+07  -1.325423e+07
   9.024640e+05  -1.687942e+07
   1.150775e+07  -9.795016e+06
   8.771939e+06   1.091945e+05
  -4.870062e+03   4.529863e+06
  -4.953485e+06   1.539144e+06
  -3.207509e+06  -4.166629e+06
   1.547850e+06  -6.283131e+06
   4.659860e+06  -2.600921e+06
   4.027603e+06   3.131250e+06
   6.420361e+05   5.025600e+06
  -2.315213e+06   1.264223e+06
  -1.935131e+06  -3.860938e+06
   1.432842e+06  -4.667649e+06
   4.136227e+06  -2.523183e+05
   3.010463e+06   4.943826e+06
  -1.214422e+06   6.231069e+06
  -4.861454e+06   3.112396e+06
  -5.144667e+06  -1.246433e+06
  -2.541471e+06  -3.622029e+06
   1.431414e+05  -3.296258e+06
   5.349886e+05  -1.930429e+06
  -1.085936e+06  -1.615989e+06
  -1.952339e+06  -2.775358e+06
   2.659805e+05  -3.720596e+06
   4.378716e+06  -2.571159e+06
   6.356949e+06   3.917382e+05
   3.822079e+06   2.817591e+06
  -8.961491e+05   2.809831e+06
  -3.235025e+06   7.804121e+05
  -1.480677e+06  -1.282786e+06
   1.785098e+06  -1.698188e+06
   3.116597e+06  -1.456093e+05
   1.769859e+06   2.212132e+06
  -4.162978e+05   3.290460e+06
  -1.491373e+06   1.789788e+06
  -1.008501e+06  -9.679519e+05
   1.098115e+05  -1.890575e+06
   5.308034e+05   1.913193e+05
  -3.466603e+05   2.576060e+06
  -1.642237e+06   1.883604e+06
  -1.650199e+06  -1.338014e+06
   2.192035e+05  -3.033171e+06
   2.343891e+06  -8.530332e+05
   2.329012e+06   2.811640e+06
  -3.632949e+05   3.871426e+06
  -3.572901e+06   1.324775e+06
  -4.392418e+06  -2.145343e+06
  -1.919304e+06  -3.538212e+06
   1.836759e+06  -2.251839e+06
   3.709558e+06   1.668433e+05
   2.266008e+06   1.747241e+06
  -8.290511e+05   1.492202e+06
  -2.482888e+06  -2.553073e+04
  -1.375376e+06  -1.164096e+06
   7.677656e+05  -8.050620e+05
   1.347421e+06   4.366331e+05
  -5.427076e+04   9.809334e+05
  -1.386689e+06   1.918325e+05
  -7.696789e+05  -9.874827e+05
   1.290547e+06  -1.249010e+06
   2.574991e+06  -1.868266e+05
   1.570679e+06   1.616244e+06
  -1.118167e+06   3.049702e+06
  -3.484854e+06   2.917917e+06
  -3.911338e+06   7.792146e+05
  -2.411302e+06  -2.189167e+06
  -4.167521e+05  -3.835763e+06
   6.368305e+05  -3.189080e+06
   6.071651e+05  -1.543216e+06
   5.074049e+05  -7.787605e+05
   1.132304e+06  -1.014137e+06
   2.087013e+06  -7.650727e+05
   2.296181e+06   7.099071e+05
   1.234563e+06   2.195825e+06
  -5.238289e+05   2.007113e+06
  -1.775228e+06   7.433690e+04
  -1.555871e+06  -1.938327e+06
   1.292525e+05  -2.339422e+06
   2.103426e+06  -9.004713e+05
   2.787498e+06   1.162364e+06
   1.648321e+06   2.367305e+06
  -1.724160e+05   2.181108e+06
  -1.095680e+06   1.292917e+06
  -9.351383e+05   7.443049e+05
  -9.669322e+05   7.900462e+05
  -2.039231e+06   7.159125e+05
  -3.200215e+06  -2.191486e+05
  -2.725394e+06  -1.842816e+06
  -2.879717e+05  -3.132402e+06
   2.420490e+06  -3.079741e+06
   3.329789e+06  -1.521029e+06
   1.992981e+06   6.165120e+05
  -1.148627e+05   1.855707e+06
  -1.105922e+06   1.360786e+06
  -4.026439e+05  -1.486184e+05
   9.172949e+05  -9.811328e+05
   1.361624e+06  -3.084983e+05
   5.552667e+05   8.457945e+05
  -4.903733e+05   8.955113e+05
  -5.739013e+05  -2.272679e+05
   4.040704e+05  -9.145472e+05
   1.402809e+06   8.160441e+04
   1.308732e+06   2.024212e+06
  -8.533603e+04   2.973224e+06
  -1.950331e+06   1.891544e+06
  -3.013798e+06  -3.883517e+05
  -2.457475e+06  -2.131143e+06
  -6.403931e+05  -2.292374e+06
   1.028339e+06  -1.226613e+06
   1.306988e+06  -1.482797e+05
   3.874114e+05   2.114541e+04
  -3.134482e+05  -5.637078e+05
   1.915139e+05  -9.533906e+05
   1.281565e+06  -4.903771e+05
   1.513636e+06   4.589761e+05
   4.276397e+05   9.514175e+05
  -8.407990e+05   5.367104e+05
  -8.467414e+05  -2.928084e+05
   5.244137e+05  -6.602015e+05
   1.888342e+06  -1.296261e+05
   1.767368e+06   9.639141e+05
   7.606092e+04   1.775955e+06
  -1.768792e+06   1.569063e+06
  -2.194555e+06   3.739866e+05
  -9.707508e+05  -8.622498e+05
   6.107082e+05  -1.062752e+06
   1.051758e+06  -1.569155e+05
   1.019809e+05   7.542817e+05
  -1.125340e+06   5.932209e+05
  -1.377533e+06  -4.696477e+05
  -4.674222e+05  -1.249621e+06
   6.847656e+05  -9.423881e+05
   1.025119e+06   1.347425e+04
   3.508708e+05   5.316311e+05
  -5.292905e+05   9.421632e+04
  -5.709985e+05  -7.731165e+05
   4.413416e+05  -1.105799e+06
   1.566194e+06  -4.387205e+05
   1.597896e+06   7.798692e+05
   3.672769e+05   1.581863e+06
  -1.010718e+06   1.326870e+06
  -1.313274e+06   2.821315e+05
  -4.827515e+05  -6.242850e+05
   4.494272e+05  -6.894698e+05
   5.781701e+05  -8.083027e+04
   3.080869e+03   4.325028e+05
  -4.874920e+05   3.469518e+05
  -3.478122e+05  -7.056788e+04
   2.115504e+05  -1.604478e+05
   4.919957e+05   3.286444e+05
   3.507118e+03   8.978148e+05
  -1.000892e+06   7.825428e+05
  -1.642029e+06  -2.253239e+05
  -1.207320e+06  -1.461407e+06
   8.539346e+04  -1.942748e+06
   1.232083e+06  -1.283414e+06
   1.442977e+06  -5.781592e+04
   8.881293e+05   7.689699e+05
   3.463051e+05   7.593565e+05
   2.582469e+05   3.270560e+05
   3.358739e+05   1.748343e+05
   6.764035e+04   4.914360e+05
  -6.008509e+05   7.667166e+05
  -1.153988e+06   4.000688e+05
  -9.771199e+05  -5.517648e+05
   5.382912e+04  -1.291346e+06
   1.325579e+06  -1.009002e+06
   1.843668e+06   2.669386e+05
   1.049147e+06   1.580253e+06
  -5.836643e+05   1.881396e+06
  -1.863143e+06   9.891547e+05
  -1.930763e+06  -2.918287e+05
  -9.937214e+05  -1.000436e+06
   1.238783e+04  -9.094684e+05
   3.936774e+05  -5.757715e+05
   2.480471e+05  -5.924778e+05
   1.493947e+05  -9.102167e+05
   4.542379e+05  -9.376168e+05
   9.436815e+05  -2.587470e+05
   1.060929e+06   8.220512e+05
   4.868180e+05   1.485359e+06
  -4.611427e+05   1.156729e+06
  -1.026448e+06   7.079142e+04
  -7.183603e+05  -9.188748e+05
   1.582594e+05  -1.097035e+06
   7.761538e+05  -4.732491e+05
   6.364865e+05   3.364045e+05
   6.185750e+04   7.392090e+05
  -2.315294e+05   6.466250e+05
   1.816012e+04   3.924970e+05
   3.252273e+05   2.883245e+05
   4.131338e+04   3.166826e+05
  -8.404409e+05   2.225830e+05
  -1.556598e+06  -1.627972e+05
  -1.305940e+06  -7.059327e+05
  -1.141197e+05  -1.049962e+06
   1.098628e+06  -9.120182e+05
   1.387530e+06  -3.524277e+05
   7.026870e+05   2.247041e+05
  -1.374730e+05   3.914825e+05
  -3.627665e+05   9.643379e+04
   8.199627e+03  -2.539230e+05
   3.859862e+05  -1.973952e+05
   3.754822e+05   2.582930e+05
   1.267520e+05   5.978126e+05
  -7.433356e+02   3.883713e+05
   1.119990e+05  -1.481119e+05
   2.811378e+05  -3.297541e+05
   2.434835e+05   1.619607e+05
  -1.256044e+05   8.210597e+05
  -6.719778e+05   8.528923e+05
  -9.597881e+05   1.098948e+05
  -5.882940e+05  -7.067264e+05
   2.977532e+05  -8.222829e+05
   9.236867e+05  -2.081978e+05
   5.854579e+05   4.624792e+05
  -5.078164e+05   5.543682e+05
  -1.301023e+06   3.441861e+04
  -9.543094e+05  -6.160882e+05
   2.496132e+05  -8.752238e+05
   1.190290e+06  -5.693371e+05
   1.068824e+06   3.226183e+04
   1.758100e+05   4.236981e+05
  -4.921918e+05   2.813887e+05
  -2.815600e+05  -1.924691e+05
   4.961665e+05  -3.896173e+05
   9.378922e+05   9.949931e+04
   4.855413e+05   9.607927e+05
  -5.219947e+05   1.342526e+06
  -1.208367e+06   6.881584e+05
  -1.022012e+06  -6.038385e+05
  -2.032211e+05  -1.449330e+06
   5.524319e+05  -1.108877e+06
   7.606260e+05   5.308114e+04
   4.436930e+05   9.300260e+05
  -6.507584e+04   8.236521e+05
  -4.225358e+05   1.168733e+05
  -4.434070e+05  -2.983401e+05
  -1.997829e+05  -1.217906e+05
  -1.066238e+04   9.619748e+04
  -1.403278e+05  -1.902490e+05
  -4.031654e+05  -7.428303e+05
  -2.631214e+05  -8.691785e+05
   4.733369e+05  -3.475590e+05
   1.210747e+06   3.299909e+05
   1.124434e+06   6.283310e+05
   1.774975e+05   5.392235e+05
  -7.345718e+05   3.584423e+05
  -8.061983e+05   2.007876e+05
  -2.367256e+05   1.978530e+03
   1.347103e+05  -1.801420e+05
  -5.185414e+04  -1.974413e+05
  -2.944287e+05  -1.052224e+05
  -1.454553e+04  -1.119187e+05
   6.077868e+05  -1.822154e+05
   8.303084e+05   6.567809e+03
   2.513546e+05   5.377192e+05
  -7.198312e+05   9.222659e+05
  -1.294598e+06   5.877179e+05
  -1.049323e+06  -3.600793e+05
  -2.247424e+05  -1.133893e+06
   5.629030e+05  -1.092897e+06
   8.289088e+05  -4.047049e+05
   5.433561e+05   2.112480e+05
   8.346366e+04   2.844409e+05
  -1.212796e+05   1.536942e+04
   3.762713e+04  -6.363566e+04
   2.819002e+05   2.628350e+05
   2.461458e+05   6.387130e+05
  -1.435590e+05   5.330056e+05
  -5.651277e+05  -1.288163e+05
  -5.734130e+05  -7.946624e+05
  -3.738539e+04  -8.199620e+05
   6.433528e+05  -1.508877e+05
   8.254986e+05   6.172358e+05
   2.574416e+05   8.631326e+05
  -5.699904e+05   5.077850e+05
  -8.638951e+05  -5.715261e+04
  -3.966742e+05  -4.343077e+05
   2.140797e+05  -4.865962e+05
   2.406604e+05  -2.842767e+05
  -2.606109e+05  -2.149751e+04
  -5.354588e+05   3.677633e+04
  -1.020523e+05  -2.327257e+05
   6.448317e+05  -5.696249e+05
   9.401501e+05  -5.022369e+05
   5.495767e+05   8.129586e+04
  -6.521043e+04   6.734838e+05
  -3.714646e+05   6.682548e+05
  -2.793244e+05   9.068172e+04
  -2.282940e+04  -4.092536e+05
   1.956742e+05  -3.212713e+05
   2.918264e+05   1.637549e+05
   2.070598e+05   4.590446e+05
  -5.107301e+04   2.944361e+05
  -3.129206e+05  -5.136262e+04
  -3.647941e+05  -1.779745e+05
  -1.931021e+05  -3.824029e+04
   4.397154e+02   7.881099e+04
   6.021976e+04  -5.476781e+04
   5.571441e+04  -3.223678e+05
   1.389505e+05  -3.889575e+05
   2.914074e+05  -8.518225e+04
   3.070104e+05   3.630557e+05
   4.353752e+04   5.299401e+05
  -3.493821e+05   2.350761e+05
  -5.035158e+05  -2.483663e+05
  -1.884863e+05  -4.772036e+05
   3.828658e+05  -2.935284e+05
   6.771589e+05   6.904382e+04
   3.748170e+05   2.948764e+05
  -2.297398e+05   2.856833e+05
  -4.955012e+05   1.447285e+05
  -1.584300e+05   8.137209e+03
   3.374684e+05  -2.243898e+04
   3.546149e+05   1.011954e+05
  -1.743283e+05   2.754682e+05
  -6.683485e+05   2.352725e+05
