
 $NMID
 id='ANONYMOUS ', fmtdat='(2E16.6)'
 volume=1.0
 tramp=1.0
 $END
  -4.815448e+07  -1.411340e+04
  -2.939459e+07  -2.890261e+07
   5.543164e+06  -3.233839e+07
   2.325130e+07  -1.354448e+07
   1.456485e+07   4.952883e+06
  -2.308424e+06   8.088817e+06
  -8.600300e+06  -3.239590e+05
  -3.048364e+06  -8.281608e+06
   4.904352e+06  -8.703543e+06
   8.368649e+06  -2.275159e+06
   6.234863e+06   5.434854e+06
   7.382929e+05   7.735814e+06
  -3.586385e+06   2.322245e+06
  -2.452641e+06  -5.153228e+06
   3.171838e+06  -6.175711e+06
   6.922130e+06   8.692745e+05
   4.096344e+06   8.838266e+06
  -3.101877e+06   1.035576e+07
  -8.729442e+06   5.141609e+06
  -9.269053e+06  -1.897063e+06
  -5.443624e+06  -6.455442e+06
  -4.244902e+05  -7.124605e+06
   2.188342e+06  -4.880242e+06
   9.131328e+05  -2.491230e+06
  -1.394813e+06  -2.523669e+06
  -1.491094e+04  -4.191145e+06
   5.309953e+06  -3.874662e+06
   8.907235e+06  -1.234066e+05
   6.184438e+06   3.882831e+06
  -1.671785e+05   4.463280e+06
  -3.708916e+06   2.001209e+06
  -2.196035e+06  -4.614415e+05
   1.095902e+06  -1.207781e+06
   2.685306e+06  -3.216413e+05
   2.095840e+06   1.810632e+06
   2.727870e+05   3.869267e+06
  -1.787823e+06   3.271561e+06
  -2.561392e+06  -4.120936e+05
  -1.125100e+06  -3.157265e+06
   6.950568e+05  -1.248560e+06
   6.141124e+04   2.600801e+06
  -2.314214e+06   2.239209e+06
  -2.274495e+06  -2.700718e+06
   1.768056e+06  -5.329378e+06
   5.633289e+06  -1.013860e+06
   4.349907e+06   5.782715e+06
  -1.464735e+06   7.262735e+06
  -6.401969e+06   2.113159e+06
  -6.343172e+06  -3.886968e+06
  -1.919203e+06  -5.460512e+06
   3.091384e+06  -2.660581e+06
   4.967595e+06   1.164804e+06
   2.473076e+06   3.074461e+06
  -1.979488e+06   2.055774e+06
  -4.019249e+06  -6.661772e+05
  -1.835928e+06  -2.311644e+06
   1.464964e+06  -1.230973e+06
   1.683073e+06   8.856528e+05
  -9.457734e+05   1.003077e+06
  -2.232407e+06  -1.146142e+06
   1.289758e+05  -2.751311e+06
   3.657891e+06  -1.774130e+06
   4.594718e+06   8.808809e+05
   2.155922e+06   3.337657e+06
  -1.679959e+06   4.704108e+06
  -4.739182e+06   4.328758e+06
  -5.674478e+06   1.429070e+06
  -3.987486e+06  -2.984477e+06
  -7.506184e+05  -5.632250e+06
   1.555840e+06  -4.436846e+06
   1.470224e+06  -1.402038e+06
   3.294451e+05  -9.354801e+04
   4.127624e+05  -1.001290e+06
   1.860248e+06  -1.459185e+06
   2.741253e+06   1.305530e+05
   1.798550e+06   2.139316e+06
  -2.082137e+05   2.189952e+06
  -1.714539e+06   1.332086e+05
  -1.686114e+06  -2.162206e+06
   8.219067e+04  -2.867332e+06
   2.676265e+06  -1.433778e+06
   4.066287e+06   1.275277e+06
   2.784976e+06   3.459489e+06
  -1.064003e+05   3.695746e+06
  -1.973205e+06   2.331923e+06
  -1.887687e+06   1.049672e+06
  -1.632045e+06   7.470806e+05
  -2.785923e+06   5.580073e+05
  -4.161856e+06  -6.586500e+05
  -3.365966e+06  -2.626290e+06
  -1.400845e+05  -3.993494e+06
   3.146900e+06  -3.768590e+06
   4.114796e+06  -1.958320e+06
   2.544213e+06   5.452107e+05
   1.179069e+05   2.209831e+06
  -1.181254e+06   1.810018e+06
  -5.326337e+05  -8.273648e+04
   1.099909e+06  -1.245575e+06
   1.819216e+06  -3.680349e+05
   8.285736e+05   1.147687e+06
  -5.499344e+05   1.087605e+06
  -5.001325e+05  -3.645813e+05
   9.082283e+05  -8.103036e+05
   1.804718e+06   9.511025e+05
   8.881393e+05   3.186085e+06
  -1.200029e+06   3.449962e+06
  -2.933002e+06   1.417203e+06
  -3.380170e+06  -1.209661e+06
  -2.418115e+06  -2.737784e+06
  -4.966490e+05  -2.649746e+06
   1.254786e+06  -1.437698e+06
   1.568489e+06  -1.878265e+05
   4.822885e+05   4.683450e+04
  -3.519148e+05  -7.318953e+05
   3.735745e+05  -1.275829e+06
   1.800483e+06  -5.593179e+05
   1.956863e+06   8.118996e+05
   4.062923e+05   1.340359e+06
  -1.129190e+06   5.755511e+05
  -9.151052e+05  -4.397303e+05
   7.977713e+05  -5.844076e+05
   2.198769e+06   2.232407e+05
   1.822349e+06   1.331084e+06
  -1.884672e+05   2.009088e+06
  -2.275974e+06   1.676649e+06
  -2.728807e+06   2.808615e+05
  -1.183367e+06  -1.212371e+06
   8.792546e+05  -1.422580e+06
   1.472518e+06  -1.730908e+05
   1.672851e+05   1.027124e+06
  -1.473223e+06   7.076173e+05
  -1.685446e+06  -7.425821e+05
  -3.754458e+05  -1.613532e+06
   1.031749e+06  -1.004335e+06
   1.246588e+06   2.482620e+05
   2.845231e+05   7.465190e+05
  -7.496375e+05   6.233486e+04
  -7.051734e+05  -1.022931e+06
   5.794399e+05  -1.381891e+06
   1.970031e+06  -5.078623e+05
   1.980186e+06   1.041793e+06
   3.701974e+05   2.024236e+06
  -1.395897e+06   1.605221e+06
  -1.684760e+06   2.211497e+05
  -5.110797e+05  -8.422068e+05
   6.356919e+05  -7.991971e+05
   6.479316e+05  -7.144188e+04
  -9.433060e+04   4.010599e+05
  -5.212224e+05   2.522922e+05
  -1.981146e+05  -7.918656e+04
   3.996531e+05   7.845862e+03
   5.299228e+05   6.051448e+05
  -1.662078e+05   1.153260e+06
  -1.342045e+06   8.844449e+05
  -2.037932e+06  -4.034407e+05
  -1.427704e+06  -1.904924e+06
   2.199039e+05  -2.384073e+06
   1.595113e+06  -1.417720e+06
   1.694872e+06   1.007359e+05
   8.940773e+05   9.175687e+05
   3.253328e+05   7.252887e+05
   4.222338e+05   2.678482e+05
   5.612287e+05   2.885820e+05
   7.938301e+04   7.151099e+05
  -8.457407e+05   8.906037e+05
  -1.432324e+06   3.415907e+05
  -1.065430e+06  -7.226232e+05
   2.256564e+05  -1.475476e+06
   1.697766e+06  -1.078523e+06
   2.222134e+06   4.718665e+05
   1.132852e+06   2.054836e+06
  -9.561429e+05   2.315830e+06
  -2.467052e+06   1.035108e+06
  -2.326321e+06  -6.093704e+05
  -9.957737e+05  -1.315144e+06
   1.725454e+05  -9.800303e+05
   4.209805e+05  -5.468821e+05
   1.457276e+05  -7.316210e+05
   1.370658e+05  -1.240220e+06
   6.491134e+05  -1.231703e+06
   1.248777e+06  -2.995276e+05
   1.299797e+06   1.067744e+06
   5.359498e+05   1.863378e+06
  -6.200879e+05   1.408962e+06
  -1.266135e+06   3.029735e+03
  -8.057434e+05  -1.242111e+06
   3.549397e+05  -1.366227e+06
   1.105509e+06  -4.334346e+05
   7.903365e+05   6.280451e+05
  -8.295057e+04   1.023031e+06
  -4.776550e+05   7.737682e+05
  -6.410977e+04   4.290827e+05
   4.146908e+05   3.420678e+05
   5.121699e+04   3.810692e+05
  -1.110515e+06   2.096089e+05
  -1.999175e+06  -3.211240e+05
  -1.584102e+06  -1.004292e+06
   9.651288e+03  -1.384773e+06
   1.525985e+06  -1.105317e+06
   1.785609e+06  -2.907002e+05
   8.290598e+05   4.461179e+05
  -2.411597e+05   5.388544e+05
  -4.916097e+05   4.852920e+04
  -1.667830e+04  -3.892398e+05
   4.488475e+05  -2.453578e+05
   4.674357e+05   3.379651e+05
   2.176711e+05   7.187862e+05
   6.583344e+04   4.724513e+05
   1.389531e+05  -1.124975e+05
   2.975983e+05  -3.104430e+05
   2.747642e+05   2.259931e+05
  -1.561522e+05   9.776998e+05
  -8.840840e+05   1.038825e+06
  -1.303999e+06   1.503896e+05
  -8.016018e+05  -9.005745e+05
   4.099033e+05  -1.091840e+06
   1.217027e+06  -3.022130e+05
   7.152792e+05   5.734555e+05
  -6.846921e+05   6.411336e+05
  -1.573241e+06  -8.353237e+04
  -1.022325e+06  -8.449185e+05
   4.529011e+05  -9.938123e+05
   1.482825e+06  -5.038600e+05
   1.236189e+06   1.720789e+05
   1.440576e+05   5.124969e+05
  -6.365873e+05   2.756524e+05
  -3.692951e+05  -2.818175e+05
   5.876920e+05  -5.006696e+05
   1.161411e+06   9.916662e+04
   6.376083e+05   1.172169e+06
  -6.073896e+05   1.666641e+06
  -1.474206e+06   8.549874e+05
  -1.235513e+06  -7.567903e+05
  -1.937251e+05  -1.771969e+06
   7.332417e+05  -1.286777e+06
   9.165458e+05   1.626050e+05
   4.368801e+05   1.174923e+06
  -2.014925e+05   9.654788e+05
  -5.495018e+05   8.910242e+04
  -4.711779e+05  -3.763607e+05
  -1.743367e+05  -1.403371e+05
  -4.310235e+04   9.830054e+04
  -2.568179e+05  -2.823133e+05
  -4.944337e+05  -9.501102e+05
  -2.022302e+05  -1.067649e+06
   6.880475e+05  -3.917360e+05
   1.457382e+06   4.614948e+05
   1.276135e+06   8.278906e+05
   1.832184e+05   6.867253e+05
  -8.542517e+05   4.113326e+05
  -9.758735e+05   1.829542e+05
  -3.465869e+05  -4.598627e+04
   1.480916e+05  -2.214691e+05
   2.290895e+04  -2.090234e+05
  -2.742047e+05  -1.006183e+05
  -4.478190e+04  -1.320306e+05
   6.664605e+05  -2.276759e+05
   1.031305e+06   1.524951e+04
   4.093937e+05   6.811067e+05
  -8.417480e+05   1.155209e+06
  -1.669706e+06   7.381082e+05
  -1.378994e+06  -4.318428e+05
  -2.674171e+05  -1.389661e+06
   7.540600e+05  -1.354122e+06
   1.035438e+06  -5.243586e+05
   6.482908e+05   2.346395e+05
   1.278561e+05   3.533695e+05
  -7.787690e+04   5.978113e+04
   7.699557e+04  -2.308412e+04
   3.010251e+05   3.600017e+05
   2.480021e+05   7.975033e+05
  -1.780402e+05   6.686087e+05
  -6.740776e+05  -1.240066e+05
  -7.261231e+05  -9.431591e+05
  -1.077200e+05  -1.017091e+06
   7.471179e+05  -2.393361e+05
   1.020755e+06   7.152723e+05
   3.417234e+05   1.074359e+06
  -7.035754e+05   6.653354e+05
  -1.100893e+06  -7.333732e+04
  -5.220017e+05  -5.989352e+05
   2.815081e+05  -6.639211e+05
   3.683557e+05  -3.623616e+05
  -2.498686e+05  -1.062398e+04
  -6.424762e+05   3.920153e+04
  -1.434468e+05  -3.027358e+05
   8.135220e+05  -6.723459e+05
   1.237439e+06  -5.394202e+05
   7.475551e+05   1.696121e+05
  -9.370069e+04   8.562718e+05
  -5.388776e+05   8.441365e+05
  -4.149826e+05   1.571848e+05
  -5.177263e+04  -4.748082e+05
   2.358967e+05  -4.279114e+05
   3.482683e+05   1.482261e+05
   2.518204e+05   5.693284e+05
  -5.186989e+04   4.184337e+05
  -3.859433e+05  -4.449665e+04
  -4.689627e+05  -2.730454e+05
  -2.395880e+05  -9.221294e+04
   3.246481e+04   1.452007e+05
   8.168346e+04   3.663394e+04
  -8.059763e+03  -3.511916e+05
   5.427663e+04  -5.395007e+05
   3.163132e+05  -2.107081e+05
   4.493669e+05   3.767069e+05
   1.514032e+05   6.394144e+05
  -4.034470e+05   3.105183e+05
  -6.549595e+05  -2.753800e+05
  -2.512866e+05  -5.663551e+05
   4.987887e+05  -3.622933e+05
   8.699971e+05   7.239914e+04
   4.736225e+05   3.710424e+05
  -2.884398e+05   3.943815e+05
  -6.293680e+05   2.254163e+05
  -2.453455e+05   1.870697e+04
   3.440761e+05  -6.714180e+04
   4.037432e+05   6.365590e+04
  -1.666563e+05   2.897676e+05
  -7.358751e+05   2.712335e+05
