
 $NMID
 id='ANONYMOUS ', fmtdat='(2E16.6)'
 volume=1.0
 tramp=1.0
 $END
  -2.097487e+07  -2.973832e+05
  -1.415757e+07  -9.212166e+06
  -4.827239e+05  -1.298361e+07
   8.777326e+06  -9.556474e+06
   7.936099e+06  -1.747844e+06
   8.988400e+05   3.823656e+06
  -4.380545e+06   2.506152e+06
  -3.768873e+06  -3.273606e+06
   6.250980e+05  -6.386726e+06
   4.020255e+06  -3.070399e+06
   3.634871e+06   2.862284e+06
   4.627640e+05   4.772435e+06
  -2.216878e+06   8.944093e+05
  -1.836443e+06  -4.124911e+06
   1.174184e+06  -4.830560e+06
   3.691016e+06  -6.372721e+05
   2.874905e+06   4.250471e+06
  -8.591223e+05   5.487574e+06
  -4.137699e+06   2.556356e+06
  -4.137447e+06  -1.402036e+06
  -1.510424e+06  -3.066179e+06
   5.326761e+05  -2.097817e+06
  -1.174036e+05  -9.392590e+05
  -2.160842e+06  -1.680921e+06
  -2.382449e+06  -3.608137e+06
   7.096863e+05  -4.196460e+06
   4.935000e+06  -2.169134e+06
   6.345158e+06   1.081738e+06
   3.287145e+06   3.052208e+06
  -1.556046e+06   2.480656e+06
  -3.650731e+06   1.354429e+05
  -1.303502e+06  -2.002970e+06
   2.606682e+06  -2.103666e+06
   3.937118e+06   1.573531e+05
   1.785366e+06   2.956699e+06
  -1.043782e+06   3.607415e+06
  -1.718531e+06   1.343130e+06
  -3.792350e+05  -1.433234e+06
   8.049517e+05  -1.603916e+06
   4.856907e+05   9.442823e+05
  -7.982988e+05   3.028126e+06
  -1.772709e+06   1.989760e+06
  -1.634281e+06  -1.051610e+06
  -3.387987e+05  -2.584036e+06
   1.300821e+06  -9.002213e+05
   1.735956e+06   2.046898e+06
  -6.655943e+04   3.038663e+06
  -2.999981e+06   1.056782e+06
  -4.238517e+06  -1.989858e+06
  -2.109504e+06  -3.464037e+06
   1.752354e+06  -2.414230e+06
   3.868465e+06  -4.925207e+04
   2.538387e+06   1.620491e+06
  -5.311880e+05   1.503256e+06
  -2.264735e+06   1.523010e+05
  -1.388793e+06  -9.306059e+05
   6.284037e+05  -7.321600e+05
   1.438880e+06   3.946858e+05
   2.880876e+05   1.193988e+06
  -1.324537e+06   7.960801e+05
  -1.344637e+06  -4.357993e+05
   4.927248e+05  -1.242501e+06
   2.179868e+06  -6.186620e+05
   1.550157e+06   1.211469e+06
  -1.233842e+06   2.804857e+06
  -3.737760e+06   2.613982e+06
  -3.877346e+06   4.033813e+05
  -2.007406e+06  -2.359534e+06
  -1.276521e+05  -3.756283e+06
   5.128089e+05  -3.214771e+06
   4.382000e+05  -1.904517e+06
   7.786071e+05  -1.212935e+06
   1.773280e+06  -1.105924e+06
   2.633442e+06  -4.206641e+05
   2.459325e+06   1.277204e+06
   1.044336e+06   2.722088e+06
  -9.166857e+05   2.262536e+06
  -2.154502e+06  -7.225159e+04
  -1.664772e+06  -2.321711e+06
   3.285886e+05  -2.536695e+06
   2.290036e+06  -6.916522e+05
   2.647420e+06   1.493064e+06
   1.301610e+06   2.392514e+06
  -3.394729e+05   1.877169e+06
  -9.507957e+05   1.008441e+06
  -7.117397e+05   7.141551e+05
  -9.026171e+05   9.197868e+05
  -2.145303e+06   8.087100e+05
  -3.374025e+06  -2.544861e+05
  -2.851159e+06  -2.011038e+06
  -2.157948e+05  -3.366454e+06
   2.753411e+06  -3.206542e+06
   3.707390e+06  -1.396419e+06
   2.074419e+06   8.966741e+05
  -3.710748e+05   2.034049e+06
  -1.369676e+06   1.336719e+06
  -4.061137e+05  -2.324272e+05
   1.072259e+06  -9.871422e+05
   1.431513e+06  -2.587927e+05
   4.843431e+05   8.981188e+05
  -6.155036e+05   9.463728e+05
  -7.090090e+05  -2.510665e+05
   3.156454e+05  -1.132211e+06
   1.514490e+06  -2.257946e+05
   1.660104e+06   1.984586e+06
   2.247528e+05   3.368524e+06
  -2.026586e+06   2.381645e+06
  -3.436229e+06  -2.847477e+05
  -2.825139e+06  -2.446199e+06
  -6.782682e+05  -2.626483e+06
   1.206022e+06  -1.300383e+06
   1.449491e+06  -7.248463e+04
   4.182853e+05   3.792356e+04
  -3.213349e+05  -6.159295e+05
   2.005714e+05  -9.799619e+05
   1.320032e+06  -4.792864e+05
   1.579945e+06   4.755840e+05
   4.669506e+05   9.849732e+05
  -9.059529e+05   5.720258e+05
  -9.632284e+05  -3.400506e+05
   5.501392e+05  -7.961089e+05
   2.134872e+06  -1.933110e+05
   2.030498e+06   1.108272e+06
   9.349856e+04   2.029758e+06
  -1.987751e+06   1.714629e+06
  -2.403612e+06   3.501153e+05
  -1.010820e+06  -9.287230e+05
   6.673235e+05  -1.066121e+06
   1.069466e+06  -1.192490e+05
   4.613361e+04   7.773064e+05
  -1.220224e+06   5.855197e+05
  -1.477593e+06  -5.220445e+05
  -5.248295e+05  -1.360111e+06
   7.212352e+05  -1.060798e+06
   1.128847e+06  -2.860356e+04
   4.202887e+05   5.614801e+05
  -5.359784e+05   9.620023e+04
  -5.706046e+05  -8.436270e+05
   5.345878e+05  -1.163879e+06
   1.712166e+06  -3.908179e+05
   1.682546e+06   9.127205e+05
   3.379685e+05   1.709799e+06
  -1.113846e+06   1.395733e+06
  -1.418307e+06   2.843270e+05
  -5.268761e+05  -6.773403e+05
   4.952728e+05  -7.464631e+05
   6.641482e+05  -6.162457e+04
   1.628609e+04   5.351596e+05
  -5.961988e+05   4.241480e+05
  -4.812824e+05  -1.120377e+05
   1.830371e+05  -2.625707e+05
   5.568815e+05   2.980793e+05
   2.722124e+04   9.602729e+05
  -1.090475e+06   8.266337e+05
  -1.767152e+06  -2.920875e+05
  -1.248670e+06  -1.619565e+06
   1.652449e+05  -2.114291e+06
   1.391735e+06  -1.394891e+06
   1.617626e+06  -4.745706e+04
   1.009254e+06   9.150061e+05
   3.675322e+05   9.512613e+05
   2.052352e+05   4.326456e+05
   2.864851e+05   1.722728e+05
   4.707715e+04   4.873466e+05
  -6.557567e+05   8.237690e+05
  -1.281525e+06   4.309705e+05
  -1.093107e+06  -6.491151e+05
   7.214673e+04  -1.460768e+06
   1.482376e+06  -1.089989e+06
   2.014699e+06   3.448074e+05
   1.116346e+06   1.740261e+06
  -6.447668e+05   2.015711e+06
  -2.014313e+06   1.046561e+06
  -2.112905e+06  -3.262983e+05
  -1.125950e+06  -1.120860e+06
   3.301414e+03  -1.059625e+06
   5.015689e+05  -6.746203e+05
   3.837267e+05  -6.210937e+05
   2.394017e+05  -9.215041e+05
   5.094004e+05  -9.564040e+05
   1.002194e+06  -2.320017e+05
   1.104756e+06   9.365732e+05
   4.637042e+05   1.632170e+06
  -5.522815e+05   1.236366e+06
  -1.122082e+06   5.000312e+04
  -7.621124e+05  -9.959819e+05
   1.671751e+05  -1.180549e+06
   8.088823e+05  -5.397862e+05
   6.743720e+05   3.058353e+05
   9.829044e+04   7.598376e+05
  -2.035190e+05   7.051076e+05
   3.331720e+04   4.565045e+05
   3.277638e+05   3.405106e+05
   2.373726e+04   3.514415e+05
  -8.949296e+05   2.202875e+05
  -1.646983e+06  -2.187706e+05
  -1.389642e+06  -7.895723e+05
  -1.297187e+05  -1.110376e+06
   1.172406e+06  -9.341123e+05
   1.499713e+06  -3.633052e+05
   7.721577e+05   2.110294e+05
  -1.390477e+05   3.923109e+05
  -3.819506e+05   1.159341e+05
   3.543536e+04  -2.387402e+05
   4.450935e+05  -1.878341e+05
   3.899571e+05   2.956913e+05
   6.931444e+04   6.645101e+05
  -5.776209e+04   4.226820e+05
   1.335164e+05  -1.868538e+05
   3.535571e+05  -3.834631e+05
   2.667710e+05   1.807886e+05
  -1.909422e+05   9.005407e+05
  -7.601473e+05   8.905219e+05
  -9.924571e+05   5.353959e+04
  -5.579661e+05  -7.899016e+05
   3.542837e+05  -8.385535e+05
   9.787545e+05  -1.472001e+05
   6.093257e+05   5.393109e+05
  -5.615801e+05   5.914315e+05
  -1.434828e+06   1.132840e+04
  -1.072716e+06  -6.964938e+05
   2.625013e+05  -9.801107e+05
   1.329903e+06  -6.353303e+05
   1.202236e+06   4.488558e+04
   1.974756e+05   4.789083e+05
  -5.412867e+05   3.083493e+05
  -2.842525e+05  -2.055656e+05
   5.751148e+05  -3.804577e+05
   1.009232e+06   1.801336e+05
   4.461480e+05   1.080010e+06
  -6.711517e+05   1.418140e+06
  -1.364852e+06   6.656148e+05
  -1.083318e+06  -7.175196e+05
  -1.529985e+05  -1.597018e+06
   6.504294e+05  -1.208700e+06
   8.362968e+05   6.199207e+04
   4.745040e+05   1.029696e+06
  -6.874471e+04   9.182312e+05
  -4.550125e+05   1.262681e+05
  -4.982142e+05  -3.515139e+05
  -2.427307e+05  -1.522996e+05
  -4.288349e+03   1.144408e+05
  -1.020211e+05  -1.904829e+05
  -3.921168e+05  -8.171483e+05
  -2.870319e+05  -9.673364e+05
   4.887018e+05  -3.676883e+05
   1.312613e+06   4.125799e+05
   1.234760e+06   7.343483e+05
   1.753214e+05   5.883487e+05
  -8.468298e+05   3.545068e+05
  -8.997561e+05   1.956469e+05
  -2.331223e+05   1.141284e+04
   1.665230e+05  -1.867185e+05
  -8.344861e+04  -2.371219e+05
  -3.539761e+05  -1.502679e+05
   4.511958e+03  -1.244824e+05
   7.113562e+05  -1.542051e+05
   8.983220e+05   5.757040e+04
   1.916915e+05   5.887429e+05
  -8.630902e+05   9.451915e+05
  -1.409658e+06   5.504605e+05
  -1.076096e+06  -4.624139e+05
  -1.747390e+05  -1.250969e+06
   6.542226e+05  -1.149699e+06
   9.198432e+05  -3.741472e+05
   5.859253e+05   2.778848e+05
   6.036225e+04   3.123826e+05
  -1.653053e+05  -1.290125e+04
   3.241052e+04  -9.385450e+04
   3.123163e+05   2.884927e+05
   2.523606e+05   7.070154e+05
  -1.897501e+05   5.642906e+05
  -6.151022e+05  -1.939388e+05
  -5.610454e+05  -9.173002e+05
   4.156720e+04  -8.883709e+05
   7.288238e+05  -9.544399e+04
   8.539233e+05   7.458165e+05
   2.124574e+05   9.489994e+05
  -6.507093e+05   4.961523e+05
  -9.181566e+05  -1.158078e+05
  -3.892081e+05  -4.666737e+05
   2.539426e+05  -4.850727e+05
   2.457253e+05  -2.898579e+05
  -3.150927e+05  -5.010952e+04
  -5.928199e+05   7.416775e+03
  -8.794851e+04  -2.515057e+05
   7.299275e+05  -5.917672e+05
   1.019797e+06  -5.248519e+05
   5.611003e+05   8.897883e+04
  -1.074797e+05   7.157350e+05
  -4.081998e+05   6.950610e+05
  -2.746003e+05   6.123903e+04
   1.393394e+04  -4.594881e+05
   2.350283e+05  -3.211751e+05
   3.101613e+05   2.226534e+05
   1.968812e+05   5.107906e+05
  -7.807370e+04   2.900682e+05
  -3.359782e+05  -8.503270e+04
  -3.774867e+05  -1.911215e+05
  -2.081190e+05  -3.276380e+04
  -1.817344e+04   6.191022e+04
   6.889163e+04  -1.050464e+05
   1.192676e+05  -3.659822e+05
   2.295801e+05  -3.814470e+05
   3.390089e+05  -2.230011e+04
   2.742097e+05   4.456188e+05
  -3.377002e+04   5.820608e+05
  -4.071631e+05   2.220440e+05
  -5.138177e+05  -3.160895e+05
  -1.640978e+05  -5.405715e+05
   4.224794e+05  -2.947174e+05
   7.142816e+05   1.239384e+05
   3.828930e+05   3.408583e+05
  -2.643470e+05   2.757241e+05
  -5.375246e+05   1.034840e+05
  -1.487931e+05  -3.875550e+03
   4.007968e+05   1.856091e+04
   3.925224e+05   1.629272e+05
  -2.317341e+05   3.099250e+05
  -7.837283e+05   2.182085e+05
