
 $NMID
 id='ANONYMOUS ', fmtdat='(2E16.6)'
 volume=1.0
 tramp=1.0
 $END
   8.004305e+06  -1.492222e+06
   6.232293e+06   3.125598e+06
   8.162446e+05   5.391261e+06
  -3.227316e+06   3.877208e+06
  -3.056809e+06   4.903885e+05
  -3.000179e+05  -1.544029e+06
   1.664237e+06  -8.084239e+05
   1.340902e+06   1.275131e+06
  -2.662250e+05   2.242711e+06
  -1.464887e+06   1.111738e+06
  -1.407393e+06  -8.430563e+05
  -3.629310e+05  -1.587044e+06
   6.687700e+05  -4.552414e+05
   6.959516e+05   1.230590e+06
  -3.423818e+05   1.624824e+06
  -1.362902e+06   2.917575e+05
  -1.204581e+06  -1.459567e+06
   9.578776e+04  -2.058355e+06
   1.369402e+06  -1.199453e+06
   1.607911e+06   1.493758e+05
   9.102283e+05   9.301046e+05
   1.662275e+05   9.209991e+05
   7.172133e+04   6.420634e+05
   4.949286e+05   6.517399e+05
   6.471595e+05   9.963763e+05
  -9.226008e+04   1.216921e+06
  -1.369667e+06   8.519825e+05
  -2.008207e+06  -2.073561e+04
  -1.250859e+06  -7.744647e+05
   2.384037e+05  -8.290742e+05
   9.971014e+05  -2.268145e+05
   4.085920e+05   4.272289e+05
  -6.739902e+05   5.355150e+05
  -1.058460e+06  -6.529146e+03
  -5.429472e+05  -7.520048e+05
   1.504367e+05  -1.038433e+06
   4.032810e+05  -5.552083e+05
   2.347981e+05   2.512024e+05
  -1.299029e+04   5.042601e+05
  -7.442909e+04  -1.141317e+05
   1.477385e+05  -8.391339e+05
   5.153776e+05  -6.567255e+05
   6.156922e+05   3.661006e+05
   1.234870e+05   1.036198e+06
  -6.550864e+05   4.890025e+05
  -8.891546e+05  -7.094017e+05
  -1.261538e+05  -1.244435e+06
   1.048786e+06  -5.846854e+05
   1.509703e+06   5.507314e+05
   7.556068e+05   1.130124e+06
  -5.570822e+05   8.171907e+05
  -1.268889e+06   4.479624e+04
  -8.349471e+05  -5.378019e+05
   2.063781e+05  -5.540296e+05
   8.207204e+05  -1.045396e+05
   5.158606e+05   3.256455e+05
  -2.083418e+05   2.973463e+05
  -4.691997e+05  -1.157432e+05
  -1.207677e+04  -3.904771e+05
   5.263572e+05  -1.661239e+05
   4.084426e+05   3.292420e+05
  -3.139893e+05   5.526852e+05
  -8.621017e+05   2.255881e+05
  -6.128900e+05  -4.474729e+05
   2.625114e+05  -9.942478e+05
   1.049373e+06  -9.913170e+05
   1.211081e+06  -3.315096e+05
   7.910546e+05   6.161653e+05
   2.242420e+05   1.203528e+06
  -1.146195e+05   1.084784e+06
  -1.899467e+05   5.805049e+05
  -2.291658e+05   2.745018e+05
  -4.176756e+05   2.872627e+05
  -6.714596e+05   2.027110e+05
  -7.142094e+05  -2.468599e+05
  -3.769751e+05  -7.135188e+05
   1.898499e+05  -6.461356e+05
   5.986653e+05  -7.533245e+03
   5.232590e+05   6.467975e+05
  -2.472137e+04   7.650943e+05
  -6.572526e+05   3.082252e+05
  -8.905129e+05  -3.192819e+05
  -5.698498e+05  -6.894171e+05
  -2.751385e+04  -6.703497e+05
   2.728851e+05  -4.472036e+05
   2.616141e+05  -2.973355e+05
   3.076345e+05  -3.072355e+05
   6.737677e+05  -2.857504e+05
   1.070314e+06   1.143177e+04
   9.358882e+05   5.646883e+05
   1.416910e+05   1.035066e+06
  -7.609317e+05   1.046273e+06
  -1.072974e+06   5.282003e+05
  -6.423963e+05  -1.864482e+05
   3.580070e+04  -5.961774e+05
   3.489038e+05  -4.396817e+05
   1.256414e+05   4.678868e+04
  -2.908836e+05   3.275273e+05
  -4.397745e+05   1.240919e+05
  -1.917133e+05  -2.588637e+05
   1.562291e+05  -2.958644e+05
   2.049392e+05   7.994936e+04
  -1.291080e+05   3.447796e+05
  -5.160396e+05   2.571170e+04
  -5.244853e+05  -6.736791e+05
  -2.910192e+04  -1.059635e+06
   6.631834e+05  -7.116827e+05
   1.055778e+06   9.259638e+04
   8.587226e+05   7.134702e+05
   2.316826e+05   7.734250e+05
  -3.315833e+05   4.144597e+05
  -4.291189e+05   5.779827e+04
  -1.285839e+05  -2.224714e+03
   1.122298e+05   1.830675e+05
  -4.158158e+04   3.203371e+05
  -4.106255e+05   1.899419e+05
  -5.146229e+05  -1.206133e+05
  -1.656156e+05  -3.102279e+05
   2.733733e+05  -1.941940e+05
   2.916439e+05   9.366816e+04
  -1.751520e+05   2.413604e+05
  -6.498178e+05   6.726851e+04
  -6.134260e+05  -3.180491e+05
  -4.095456e+04  -6.087312e+05
   5.795638e+05  -5.487140e+05
   7.283598e+05  -1.522286e+05
   3.375015e+05   2.690748e+05
  -1.780129e+05   3.588814e+05
  -3.384046e+05   7.405816e+04
  -4.555485e+04  -2.402305e+05
   3.622163e+05  -2.122909e+05
   4.684668e+05   1.356051e+05
   1.782209e+05   4.167531e+05
  -2.192909e+05   3.350031e+05
  -3.533291e+05   1.327850e+04
  -1.324439e+05  -1.778957e+05
   1.727544e+05  -4.498651e+04
   1.997471e+05   2.454150e+05
  -1.315105e+05   3.689855e+05
  -5.106674e+05   1.630179e+05
  -5.370988e+05  -2.369636e+05
  -1.438740e+05  -5.185895e+05
   3.154977e+05  -4.565916e+05
   4.346022e+05  -1.143997e+05
   1.726816e+05   2.034702e+05
  -1.413847e+05   2.383745e+05
  -1.938297e+05   2.873315e+04
  -3.012907e+02  -1.541006e+05
   1.717928e+05  -1.204020e+05
   1.237228e+05   3.564999e+04
  -7.606441e+04   7.235304e+04
  -1.811359e+05  -1.002383e+05
  -1.970272e+04  -3.042603e+05
   3.221676e+05  -2.769113e+05
   5.491444e+05   5.240795e+04
   4.196284e+05   4.682982e+05
  -5.878277e+03   6.468344e+05
  -4.005690e+05   4.447284e+05
  -4.882306e+05   3.372045e+04
  -3.047091e+05  -2.590094e+05
  -1.104888e+05  -2.614274e+05
  -7.441290e+04  -1.032895e+05
  -1.108867e+05  -4.118697e+04
  -3.440362e+04  -1.563843e+05
   1.893691e+05  -2.665393e+05
   3.847171e+05  -1.489988e+05
   3.343045e+05   1.794720e+05
  -6.905133e+03   4.397743e+05
  -4.341361e+05   3.547222e+05
  -6.194526e+05  -6.784155e+04
  -3.731330e+05  -5.154684e+05
   1.645022e+05  -6.394467e+05
   6.080264e+05  -3.613551e+05
   6.558116e+05   7.123356e+04
   3.504926e+05   3.314237e+05
   1.248960e+03   3.151065e+05
  -1.374859e+05   1.949247e+05
  -8.223410e+04   1.859036e+05
  -3.437314e+04   2.922570e+05
  -1.315689e+05   3.150981e+05
  -3.052585e+05   1.004333e+05
  -3.600840e+05  -2.582441e+05
  -1.786210e+05  -4.861440e+05
   1.395829e+05  -3.883367e+05
   3.420709e+05  -3.639680e+04
   2.552103e+05   2.959072e+05
  -3.420606e+04   3.719862e+05
  -2.545550e+05   1.789046e+05
  -2.264340e+05  -9.538454e+04
  -4.135780e+04  -2.484076e+05
   6.369551e+04  -2.285442e+05
  -9.402803e+03  -1.368299e+05
  -1.079354e+05  -9.116260e+04
  -1.586902e+04  -1.038580e+05
   2.751253e+05  -8.866343e+04
   5.173972e+05   2.838005e+04
   4.455546e+05   2.157317e+05
   5.969084e+04   3.502196e+05
  -3.463741e+05   3.222599e+05
  -4.589889e+05   1.397130e+05
  -2.458911e+05  -6.283637e+04
   3.468119e+04  -1.323966e+05
   1.211523e+05  -4.095624e+04
   3.760474e+03   7.842873e+04
  -1.258194e+05   6.639693e+04
  -1.267717e+05  -8.018464e+04
  -4.341222e+04  -1.915571e+05
  -2.241827e+02  -1.231852e+05
  -4.009438e+04   5.255107e+04
  -9.768096e+04   1.114808e+05
  -8.424149e+04  -5.140816e+04
   3.575944e+04  -2.720740e+05
   2.110355e+05  -2.906065e+05
   3.079962e+05  -5.283089e+04
   1.986404e+05   2.199765e+05
  -8.288369e+04   2.724387e+05
  -2.948949e+05   8.050276e+04
  -1.969751e+05  -1.466230e+05
   1.619976e+05  -1.924432e+05
   4.365765e+05  -2.651047e+04
   3.311245e+05   2.003269e+05
  -7.363335e+04   3.029957e+05
  -3.982671e+05   2.071702e+05
  -3.635110e+05  -7.207625e+02
  -6.398231e+04  -1.428065e+05
   1.626000e+05  -1.019630e+05
   9.641709e+04   5.719025e+04
  -1.587707e+05   1.301087e+05
  -3.069897e+05  -2.443246e+04
  -1.659704e+05  -3.086490e+05
   1.594459e+05  -4.426247e+05
   3.903758e+05  -2.358571e+05
   3.429546e+05   1.898157e+05
   8.157438e+04   4.783143e+05
  -1.743016e+05   3.760018e+05
  -2.576813e+05  -7.757595e+03
  -1.608268e+05  -3.074819e+05
   1.205781e+04  -2.813388e+05
   1.401800e+05  -4.657557e+04
   1.520385e+05   9.856908e+04
   6.902153e+04   4.343716e+04
   2.780841e+03  -3.456558e+04
   4.770341e+04   5.342128e+04
   1.417741e+05   2.388344e+05
   9.925133e+04   2.913992e+05
  -1.503610e+05   1.272024e+05
  -4.057058e+05  -9.715845e+04
  -3.831275e+05  -2.010745e+05
  -6.627607e+04  -1.768513e+05
   2.419479e+05  -1.222506e+05
   2.679025e+05  -7.487181e+04
   7.875148e+04  -8.610583e+03
  -4.333026e+04   5.918600e+04
   2.004733e+04   7.167528e+04
   9.927506e+04   3.902816e+04
   4.347319e+03   3.498013e+04
  -2.009540e+05   5.971262e+04
  -2.727812e+05   6.470829e+03
  -8.472385e+04  -1.665659e+05
   2.282579e+05  -3.055963e+05
   4.154789e+05  -2.095454e+05
   3.434617e+05   1.029943e+05
   8.422348e+04   3.710643e+05
  -1.715669e+05   3.678405e+05
  -2.659543e+05   1.405142e+05
  -1.794483e+05  -6.674937e+04
  -2.925341e+04  -9.074539e+04
   3.978636e+04   3.982651e+02
  -1.429246e+04   2.560985e+04
  -9.937818e+04  -8.533316e+04
  -8.977636e+04  -2.107384e+05
   4.128005e+04  -1.759301e+05
   1.852663e+05   3.994156e+04
   1.923969e+05   2.556520e+05
   1.785588e+04   2.643259e+05
  -2.079991e+05   5.021178e+04
  -2.734838e+05  -1.965344e+05
  -9.229184e+04  -2.788032e+05
   1.795898e+05  -1.704564e+05
   2.828142e+05   8.071063e+03
   1.372926e+05   1.339496e+05
  -6.056395e+04   1.603087e+05
  -7.256131e+04   1.000238e+05
   8.756943e+04   1.018812e+04
   1.765402e+05  -1.613174e+04
   3.603510e+04   7.356432e+04
  -2.076123e+05   1.955146e+05
  -3.061471e+05   1.823166e+05
  -1.830426e+05  -1.388663e+04
   1.277061e+04  -2.215245e+05
   1.109540e+05  -2.275447e+05
   8.481236e+04  -3.536499e+04
   8.312034e+03   1.337092e+05
  -5.924408e+04   1.056048e+05
  -9.410197e+04  -5.400751e+04
  -7.263933e+04  -1.488269e+05
   1.065315e+04  -9.408395e+04
   1.018974e+05   1.468926e+04
   1.243018e+05   5.148259e+04
   6.676852e+04   8.792296e+03
  -2.877353e+03  -2.170233e+04
  -2.609907e+04   2.332436e+04
  -2.158905e+04   1.029649e+05
  -4.265094e+04   1.184769e+05
  -8.936080e+04   2.340063e+04
  -9.639614e+04  -1.143368e+05
  -1.428808e+04  -1.673943e+05
   1.121693e+05  -7.770746e+04
   1.640726e+05   7.571408e+04
   6.405833e+04   1.544613e+05
  -1.217831e+05   1.017543e+05
  -2.205951e+05  -1.441841e+04
  -1.258358e+05  -9.217610e+04
   6.962598e+04  -9.455562e+04
   1.573089e+05  -5.148656e+04
   4.927725e+04  -7.221282e+03
  -1.108148e+05   3.973546e+03
  -1.145330e+05  -3.470345e+04
   6.004483e+04  -9.079396e+04
   2.220852e+05  -7.821344e+04
