
 $NMID
 id='ANONYMOUS ', fmtdat='(2E16.6)'
 volume=1.0
 tramp=1.0
 $END
   2.324112e+07  -9.359696e+05
   1.616815e+07   1.081702e+07
   3.605771e+05   1.514348e+07
  -1.016660e+07   9.950318e+06
  -8.642340e+06   7.710925e+05
  -4.819907e+05  -4.331945e+06
   4.842884e+06  -1.989241e+06
   3.530577e+06   3.864189e+06
  -1.223767e+06   6.388567e+06
  -4.428348e+06   2.833034e+06
  -3.793252e+06  -2.919290e+06
  -5.385194e+05  -4.783678e+06
   2.161988e+06  -1.066668e+06
   1.743389e+06   3.905659e+06
  -1.390420e+06   4.685713e+06
  -3.949242e+06   4.595712e+05
  -2.980966e+06  -4.552535e+06
   9.507405e+05  -5.845341e+06
   4.364764e+06  -2.904911e+06
   4.551185e+06   1.132603e+06
   2.117039e+06   3.111434e+06
  -8.754679e+04   2.619538e+06
  -4.546537e+04   1.596803e+06
   1.498105e+06   1.863421e+06
   1.881480e+06   3.203674e+06
  -6.077657e+05   3.753301e+06
  -4.480055e+06   2.165166e+06
  -6.069122e+06  -7.663196e+05
  -3.423667e+06  -2.797580e+06
   1.132574e+06  -2.453473e+06
   3.221908e+06  -3.480742e+05
   1.198201e+06   1.552958e+06
  -2.220657e+06   1.636205e+06
  -3.347245e+06  -2.119909e+05
  -1.546480e+06  -2.518411e+06
   7.955970e+05  -3.216993e+06
   1.484550e+06  -1.488285e+06
   5.969417e+05   1.025898e+06
  -3.728298e+05   1.572853e+06
  -3.313996e+05  -5.126265e+05
   6.705351e+05  -2.617685e+06
   1.714355e+06  -1.842380e+06
   1.655904e+06   1.205225e+06
   8.751097e+04   2.899142e+06
  -1.865365e+06   1.057527e+06
  -2.158157e+06  -2.322785e+06
   9.240649e+04  -3.494529e+06
   3.211139e+06  -1.262908e+06
   4.246040e+06   2.058623e+06
   1.934721e+06   3.503474e+06
  -1.829822e+06   2.272451e+06
  -3.751417e+06  -1.538070e+05
  -2.343711e+06  -1.747610e+06
   7.068299e+05  -1.521735e+06
   2.378183e+06  -6.684875e+04
   1.388979e+06   1.061137e+06
  -6.876376e+05   7.778573e+05
  -1.363791e+06  -4.484174e+05
  -3.458074e+04  -1.129554e+06
   1.468967e+06  -4.459413e+05
   1.113489e+06   8.662285e+05
  -9.329438e+05   1.381926e+06
  -2.449918e+06   4.252653e+05
  -1.599309e+06  -1.423664e+06
   1.131016e+06  -2.842092e+06
   3.495547e+06  -2.626192e+06
   3.745363e+06  -5.569267e+05
   2.121098e+06   2.161555e+06
   2.497527e+05   3.666077e+06
  -6.177554e+05   3.155470e+06
  -6.211103e+05   1.698584e+06
  -7.205812e+05   8.854513e+05
  -1.421967e+06   8.779676e+05
  -2.217891e+06   4.524928e+05
  -2.187657e+06  -1.009107e+06
  -9.819421e+05  -2.356364e+06
   7.683402e+05  -1.985126e+06
   1.874584e+06   9.889724e+04
   1.462127e+06   2.112409e+06
  -2.884878e+05   2.333485e+06
  -2.108997e+06   7.224967e+05
  -2.582677e+06  -1.288967e+06
  -1.427845e+06  -2.275740e+06
   2.027655e+05  -1.965721e+06
   9.640382e+05  -1.160995e+06
   8.216031e+05  -7.538878e+05
   9.585257e+05  -8.329139e+05
   2.075138e+06  -6.926040e+05
   3.202230e+06   3.098376e+05
   2.665209e+06   1.942765e+06
   1.583085e+05   3.160482e+06
  -2.585826e+06   2.969244e+06
  -3.420729e+06   1.309568e+06
  -1.918944e+06  -7.709512e+05
   2.882692e+05  -1.838736e+06
   1.211898e+06  -1.250024e+06
   3.757381e+05   1.890270e+05
  -9.814539e+05   9.182261e+05
  -1.358768e+06   2.468708e+05
  -4.904225e+05  -8.439846e+05
   5.591900e+05  -8.656149e+05
   6.137112e+05   2.714339e+05
  -4.183564e+05   1.006342e+06
  -1.491884e+06   1.100767e+04
  -1.418816e+06  -2.062174e+06
   7.515355e+04  -3.154655e+06
   2.078529e+06  -2.025629e+06
   3.156039e+06   4.683086e+05
   2.471249e+06   2.339818e+06
   5.403108e+05   2.409433e+06
  -1.117581e+06   1.181623e+06
  -1.328178e+06   6.344623e+04
  -3.890242e+05  -4.001347e+04
   2.918572e+05   5.814901e+05
  -2.102422e+05   9.420829e+05
  -1.277506e+06   4.505995e+05
  -1.503309e+06  -4.922725e+05
  -4.160716e+05  -9.623669e+05
   8.683912e+05  -5.163104e+05
   8.672522e+05   3.450819e+05
  -5.640196e+05   6.947769e+05
  -1.974879e+06   7.610508e+04
  -1.803090e+06  -1.089234e+06
  -2.829245e+03  -1.856730e+06
   1.882198e+06  -1.530106e+06
   2.241978e+06  -2.810595e+05
   9.428161e+05   8.960114e+05
  -6.383200e+05   1.022704e+06
  -1.032580e+06   1.193813e+05
  -6.045565e+04  -7.387794e+05
   1.150943e+06  -5.424901e+05
   1.376415e+06   5.237084e+05
   4.421324e+05   1.292323e+06
  -7.262955e+05   9.583782e+05
  -1.059675e+06  -3.176670e+04
  -3.604850e+05  -5.548853e+05
   5.241505e+05  -8.532033e+04
   5.346572e+05   7.960924e+05
  -5.001683e+05   1.083478e+06
  -1.594120e+06   3.569763e+05
  -1.563912e+06  -8.618133e+05
  -2.983280e+05  -1.604808e+06
   1.068430e+06  -1.294623e+06
   1.337304e+06  -2.367207e+05
   4.721838e+05   6.516564e+05
  -4.827514e+05   6.848014e+05
  -6.014462e+05   4.381443e+04
   1.963975e+04  -4.724135e+05
   5.472964e+05  -3.437685e+05
   3.894977e+05   1.215003e+05
  -2.194853e+05   2.059160e+05
  -5.133328e+05  -3.291459e+05
   1.125343e+04  -9.125808e+05
   1.039832e+06  -7.537587e+05
   1.646501e+06   2.987138e+05
   1.147656e+06   1.526163e+06
  -1.817882e+05   1.960236e+06
  -1.318877e+06   1.255083e+06
  -1.488981e+06  -5.518387e+03
  -8.805468e+05  -8.559201e+05
  -2.957229e+05  -8.370579e+05
  -2.020913e+05  -3.578108e+05
  -3.061560e+05  -1.631332e+05
  -5.231076e+04  -4.758634e+05
   6.350030e+05  -7.564883e+05
   1.198475e+06  -3.628298e+05
   9.796264e+05   6.212064e+05
  -1.147635e+05   1.334836e+06
  -1.398503e+06   9.727290e+05
  -1.861119e+06  -3.571555e+05
  -1.002021e+06  -1.647415e+06
   6.528312e+05  -1.882082e+06
   1.917997e+06  -9.372155e+05
   1.960842e+06   3.666906e+05
   9.920118e+05   1.075777e+06
  -5.356162e+04   9.590136e+05
  -4.625285e+05   5.782652e+05
  -3.162746e+05   5.595564e+05
  -1.997982e+05   8.750051e+05
  -4.854877e+05   9.091600e+05
  -9.479118e+05   2.168784e+05
  -1.023014e+06  -8.791473e+05
  -4.153104e+05  -1.521207e+06
   5.244789e+05  -1.142409e+06
   1.044347e+06  -2.577836e+04
   6.944530e+05   9.534636e+05
  -1.917206e+05   1.107981e+06
  -7.962628e+05   4.758924e+05
  -6.433069e+05  -3.329747e+05
  -6.267061e+04  -7.427642e+05
   2.361166e+05  -6.630161e+05
  -4.901707e+03  -4.164008e+05
  -3.044380e+05  -3.098933e+05
  -2.106992e+04  -3.219939e+05
   8.498098e+05  -1.944597e+05
   1.550686e+06   2.237008e+05
   1.289137e+06   7.637900e+05
   9.198036e+04   1.060861e+06
  -1.125666e+06   8.734552e+05
  -1.416208e+06   3.074262e+05
  -7.195974e+05  -2.389605e+05
   1.404634e+05  -3.820880e+05
   3.696071e+05  -9.422002e+04
  -1.958202e+04   2.358020e+05
  -4.043211e+05   1.709122e+05
  -3.625516e+05  -2.774440e+05
  -7.653165e+04  -6.034922e+05
   3.828633e+04  -3.826568e+05
  -1.297437e+05   1.558179e+05
  -3.234856e+05   3.268967e+05
  -2.427219e+05  -1.750276e+05
   1.796306e+05  -8.230765e+05
   7.161835e+05  -8.243795e+05
   9.437062e+05  -6.413262e+04
   5.359102e+05   7.293790e+05
  -3.303372e+05   7.967019e+05
  -9.181348e+05   1.535728e+05
  -5.610681e+05  -4.995547e+05
   5.365784e+05  -5.410491e+05
   1.328921e+06   2.296255e+04
   9.612402e+05   6.778247e+05
  -2.850301e+05   8.977137e+05
  -1.249894e+06   5.403941e+05
  -1.102803e+06  -8.076005e+04
  -1.639794e+05  -4.466109e+05
   5.136753e+05  -2.703693e+05
   2.719388e+05   1.985500e+05
  -5.236024e+05   3.539085e+05
  -9.310348e+05  -1.605711e+05
  -4.197514e+05  -9.909534e+05
   6.106875e+05  -1.308599e+06
   1.256226e+06  -6.140663e+05
   9.951830e+05   6.682135e+05
   1.256426e+05   1.476284e+06
  -6.208324e+05   1.101430e+06
  -7.760467e+05  -8.256954e+04
  -4.142492e+05  -9.678024e+05
   9.714217e+04  -8.472479e+05
   4.320541e+05  -1.061567e+05
   4.428629e+05   3.337038e+05
   2.061771e+05   1.450710e+05
   1.307351e+04  -1.035884e+05
   1.185083e+05   1.795539e+05
   3.642902e+05   7.631568e+05
   2.351876e+05   9.037573e+05
  -4.796739e+05   3.402198e+05
  -1.208470e+06  -3.978049e+05
  -1.118512e+06  -7.013764e+05
  -1.552224e+05  -5.517264e+05
   7.726169e+05  -3.149113e+05
   8.324997e+05  -1.632788e+05
   2.326896e+05  -4.019606e+03
  -1.497136e+05   1.704937e+05
   5.308459e+04   2.187323e+05
   3.030832e+05   1.400605e+05
   1.774823e+03   1.110247e+05
  -6.368650e+05   1.352501e+05
  -8.319771e+05  -5.444275e+04
  -2.021112e+05  -5.388208e+05
   7.848198e+05  -8.724914e+05
   1.318075e+06  -5.176812e+05
   1.012506e+06   4.166415e+05
   1.577723e+05   1.154006e+06
  -6.180723e+05   1.068445e+06
  -8.502591e+05   3.524966e+05
  -5.334616e+05  -2.525677e+05
  -6.191783e+04  -2.867995e+05
   1.318077e+05   8.840655e+03
  -4.232545e+04   7.633387e+04
  -2.805908e+05  -2.793125e+05
  -2.205859e+05  -6.605097e+05
   1.746390e+05  -5.239238e+05
   5.594072e+05   1.731101e+05
   5.189148e+05   8.368488e+05
  -2.358377e+04   8.160952e+05
  -6.571776e+05   9.619815e+04
  -7.846217e+05  -6.779028e+05
  -2.024800e+05  -8.764892e+05
   5.975569e+05  -4.672432e+05
   8.564764e+05   1.046168e+05
   3.729597e+05   4.430325e+05
  -2.328268e+05   4.646693e+05
  -2.429292e+05   2.771143e+05
   2.723934e+05   4.929453e+04
   5.436826e+05  -3.546155e+03
   8.674197e+04   2.343398e+05
  -6.813944e+05   5.406948e+05
  -9.678417e+05   4.724892e+05
  -5.410735e+05  -9.241155e+04
   1.003351e+05  -6.682137e+05
   3.945310e+05  -6.538819e+05
   2.660963e+05  -7.374289e+04
  -1.021693e+04   4.149683e+05
  -2.128912e+05   3.034894e+05
  -2.785489e+05  -1.940269e+05
  -1.810636e+05  -4.728155e+05
   6.443709e+04  -2.799207e+05
   3.084875e+05   7.418508e+04
   3.579954e+05   1.876040e+05
   1.966584e+05   4.090693e+04
   4.756183e+03  -6.561884e+04
  -7.506740e+04   7.291787e+04
  -9.634217e+04   3.197953e+05
  -1.788176e+05   3.554994e+05
  -2.930441e+05   4.153561e+04
  -2.632359e+05  -3.881845e+05
   9.522047e+03  -5.250405e+05
   3.676162e+05  -2.072276e+05
   4.795352e+05   2.815532e+05
   1.537678e+05   4.921943e+05
  -3.964949e+05   2.745306e+05
  -6.666324e+05  -1.084368e+05
  -3.568313e+05  -3.156044e+05
   2.415512e+05  -2.649761e+05
   4.964228e+05  -1.081561e+05
   1.484300e+05  -3.000759e+03
  -3.493808e+05  -1.460173e+04
  -3.487842e+05  -1.392438e+05
   2.072898e+05  -2.697934e+05
   7.045919e+05  -1.885045e+05
