
 $NMID
 id='ANONYMOUS ', fmtdat='(2E16.6)'
 volume=1.0
 tramp=1.0
 $END
  -4.824426e+03  -6.780789e+01
  -2.794979e+03  -3.039593e+03
   1.007670e+03  -3.138308e+03
   2.459441e+03  -8.611414e+02
   9.671426e+02   9.611635e+02
  -8.658913e+02   7.334455e+02
  -1.059828e+03  -5.566857e+02
   7.029043e+01  -1.240015e+03
   9.582543e+02  -8.550203e+02
   1.069924e+03   1.776979e+02
   5.052120e+02   9.805890e+02
  -3.281262e+02   9.793645e+02
  -7.642485e+02   7.022023e+01
  -4.410999e+02  -8.180623e+02
   3.169381e+02  -8.301448e+02
   6.589204e+02   8.585764e+01
   2.790866e+02   8.220654e+02
  -3.946327e+02   6.773804e+02
  -6.284441e+02   3.748320e+01
  -4.010702e+02  -4.140756e+02
   2.943114e+01  -4.795362e+02
   2.575912e+02  -2.797764e+02
   2.454339e+02   5.305549e+00
  -5.468962e+01   1.542075e+02
  -3.872155e+02  -5.714086e+01
  -2.759485e+02  -5.435497e+02
   4.741967e+02  -5.224653e+02
   9.570565e+02   4.216360e+01
   5.224969e+02   6.633393e+02
  -4.561995e+02   5.543500e+02
  -8.732055e+02  -1.339549e+01
  -4.266164e+02  -5.286641e+02
   3.190776e+02  -5.769258e+02
   6.406724e+02  -1.822337e+02
   4.077492e+02   2.944782e+02
   1.017456e+02   5.067138e+02
  -2.869383e+02   3.454287e+02
  -2.227403e+02  -2.785557e+02
   1.766072e+02  -5.699036e+02
   5.543838e+02  -4.122150e+01
   3.471094e+02   7.879121e+02
  -3.678723e+02   7.945256e+02
  -7.046613e+02  -4.254285e+01
  -2.869454e+02  -6.862929e+02
   3.392229e+02  -3.912200e+02
   4.796194e+02   3.546606e+02
  -5.356330e+01   6.199060e+02
  -6.517873e+02   1.945377e+02
  -6.298322e+02  -4.433302e+02
  -1.444284e+02  -6.566580e+02
   4.374084e+02  -3.945688e+02
   7.055791e+02   1.324735e+02
   3.772903e+02   4.752215e+02
  -2.302740e+02   4.264816e+02
  -4.900434e+02   3.970184e+01
  -2.172572e+02  -2.441058e+02
   1.984301e+02  -1.499563e+02
   1.767375e+02   1.906934e+02
  -1.986187e+02   2.533127e+02
  -3.989724e+02  -7.787446e+01
  -1.583935e+02  -3.439920e+02
   2.533137e+02  -3.010859e+02
   3.747545e+02  -5.586399e+01
   1.466338e+02   6.533207e+01
  -7.889528e+01   1.852420e+02
  -1.697938e+02   3.069593e+02
  -4.009268e+02   2.392649e+02
  -2.709365e+02  -1.269407e+02
  -4.567516e+01  -5.225093e+02
   1.648817e+02  -5.029810e+02
   1.598910e+02  -6.096306e+01
  -3.320380e+01   3.361848e+01
   3.992512e+01  -1.025848e+02
   1.648462e+02  -1.448996e+02
   2.875501e+02  -1.359205e+01
   1.942472e+02   3.481380e+02
  -4.159226e+01   2.456382e+02
  -2.701813e+02   6.749414e+01
  -2.213552e+02  -2.374188e+02
  -2.555118e+01  -3.163190e+02
   3.215524e+02  -2.016447e+02
   3.695890e+02   1.260961e+02
   2.337347e+02   4.177959e+02
  -9.437134e+01   3.538398e+02
  -2.525153e+02   1.219532e+02
  -1.976902e+02  -5.786203e-01
  -1.099283e+02   4.321190e+01
  -2.439198e+02   8.094728e+01
  -3.918150e+02  -5.510386e+01
  -3.687606e+02  -2.376931e+02
   1.995114e+01  -4.501187e+02
   3.859863e+02  -4.509871e+02
   5.238933e+02  -2.505590e+02
   3.684135e+02   1.110157e+02
   5.307874e+01   3.225674e+02
  -1.688315e+02   2.911465e+02
  -1.311783e+02   5.409268e+01
   1.426276e+02  -1.311742e+02
   2.774973e+02  -1.947348e+01
   2.858026e+01   2.393194e+02
  -2.284029e+02   1.823465e+02
  -2.152108e+02  -6.706136e+01
  -1.463935e+01  -2.791883e+02
   2.465261e+02  -6.523601e+01
   2.086237e+02   2.381060e+02
  -3.791930e+01   3.829763e+02
  -2.286154e+02   1.830511e+02
  -3.539270e+02  -8.420146e+01
  -2.939054e+02  -2.138277e+02
  -8.373513e+01  -2.760649e+02
   8.806143e+01  -2.267014e+02
   2.097305e+02  -6.529957e+00
   6.488322e+01   5.206118e+01
  -6.092148e+01  -6.603242e+01
  -1.634233e+01  -1.172530e+02
   1.694695e+02  -1.211995e+02
   1.652381e+02   1.721609e+01
   3.932157e+01  -8.663167e+00
  -7.839426e+01   5.555657e+01
   1.535619e+01  -5.368291e+01
   1.612492e+02  -1.310525e+02
   2.685870e+02  -1.780571e+01
   2.763877e+02   1.406164e+02
   7.076341e+01   2.233859e+02
  -1.136852e+02   3.500249e+02
  -2.652286e+02   1.527126e+02
  -1.763287e+02  -7.093880e+01
   3.050768e+01  -8.725824e+01
   1.008148e+02  -5.474817e+00
  -5.994531e+01   7.772522e+01
  -1.777819e+02   1.172042e+02
  -2.346859e+02  -1.492426e+02
  -2.882364e+01  -1.701042e+02
   8.848953e+01  -1.546350e+02
   2.027242e+02  -1.406113e+00
   7.928652e+01   6.085110e+01
  -5.408587e+00   7.076515e+01
  -5.641131e+01  -1.003253e+02
   6.039742e+01  -1.067915e+02
   2.056788e+02  -2.650925e+01
   2.077714e+02   1.166250e+02
   6.809228e+01   2.342991e+02
  -1.931647e+02   1.521032e+02
  -1.972430e+02  -4.785513e+00
  -2.634260e+01  -8.760070e+01
   4.085699e+01  -1.668918e+02
   1.002186e+02   3.565271e-01
   1.196968e+01  -6.292034e+00
  -4.622325e+01   3.423473e+01
  -1.342315e+01  -6.247780e+01
   8.924530e+01  -7.791316e+00
   1.162045e+02   1.380230e+02
   6.308490e+01   1.640546e+02
  -7.439827e+01   1.255218e+02
  -2.451417e+02   2.859724e+01
  -2.630831e+02  -1.175255e+02
  -2.710977e+01  -2.795622e+02
   1.288444e+02  -1.468789e+02
   1.851123e+02  -8.135965e+01
   6.636322e+01   2.624309e+01
  -8.425358e+00   2.051060e+01
   2.006898e+01  -1.199843e+01
   7.078058e+01  -4.307787e+00
   5.885600e-01   1.003838e+02
  -5.480691e+01   6.753018e+01
  -8.152335e+01   5.592718e+01
  -8.650253e+01  -1.863540e+01
   1.147180e+01  -9.557207e+01
   1.795622e+02  -5.974630e+01
   1.692507e+02   4.091001e+01
   1.068680e+02   2.019192e+02
  -1.126003e+02   2.892428e+02
  -2.810339e+02   1.296964e+02
  -2.615302e+02  -7.531892e+01
  -8.748579e+01  -1.837265e+02
   8.149055e+00  -1.464578e+02
   1.303044e+02  -1.844721e+02
   8.896569e+01  -2.907762e+00
   7.612014e+01  -1.198907e+02
   9.509214e+01  -5.926781e+01
   1.149179e+02   6.625496e+01
   1.044887e+02   1.434238e+02
   1.422225e+01   2.491393e+02
  -1.120698e+02   1.959675e+02
  -1.745711e+02   2.540006e-01
  -1.181493e+02  -1.371405e+02
  -1.807017e+00  -1.596931e+02
   1.191812e+02  -6.004641e+01
   9.404733e+01   3.213934e+00
   1.856696e+01   7.536987e+01
  -7.467268e+00  -1.051048e+01
   3.278723e+01   4.160084e+01
   7.079216e+01   7.985076e+01
   6.556827e+01   3.506063e+01
  -5.152544e+01   6.370578e+01
  -1.765204e+02  -1.934682e+01
  -1.427805e+02  -3.463096e+01
   8.906091e+01  -4.654706e+01
   1.222712e+02  -8.017530e+01
   1.312391e+02   6.151842e-01
   1.216940e+02   5.068822e+01
  -1.369231e+02   2.760748e+01
  -2.997690e+01  -9.047053e+00
  -3.356782e+01  -1.284863e+02
   1.447765e+02  -7.984238e+01
   3.972131e+01  -3.949493e+01
   3.750730e+01   8.151939e+01
   3.938824e+01   1.763512e+01
   1.130060e+02  -1.815008e+01
   8.725695e+01  -6.529668e+01
   3.026329e+01   8.236933e+01
  -8.369710e+00   1.086016e+02
  -1.029020e+02   1.277955e+02
  -1.731366e+02  -4.490127e+00
  -1.132988e+02  -9.976192e+01
  -9.229630e+00  -1.345920e+02
   1.789014e+01  -6.635453e+01
   3.465685e+01  -1.932849e+01
  -7.916096e+01   5.433525e+01
  -1.416001e+02  -1.229475e+00
  -1.079586e+02  -1.068112e+02
   1.307619e+02  -1.163518e+02
   1.531752e+02  -6.141544e+01
   1.793595e+02   1.866376e+01
   7.010564e+01   6.571026e+01
  -1.127977e+02   1.170894e+02
  -6.240887e+01   6.021062e+01
   1.088435e+01  -4.805189e+01
   1.144578e+02   2.886971e+01
   1.453744e+01   9.360573e+01
  -1.430525e+02   1.177885e+02
  -1.305649e+02   7.538023e+01
  -1.585672e+02  -1.926950e+02
  -4.655024e+01  -1.933497e+02
   8.382147e+01  -1.333042e+02
   1.582896e+02   1.792791e+01
   8.482486e+01   1.240818e+02
  -2.760998e+01   1.353159e+02
  -3.398587e+01   9.833662e+00
  -6.279814e+01  -7.479044e+01
  -5.034024e+01  -1.799191e+01
  -1.967763e+01  -3.297578e+00
  -6.754426e+01  -4.731831e+01
  -1.023590e+02  -1.073003e+02
  -8.985681e+01  -8.940711e+01
   1.120853e+02  -2.273877e+01
   1.070113e+02   1.254487e+01
   8.101950e+01   5.897194e+01
  -2.998590e+00   5.014499e+01
  -9.775418e+01   6.030600e+01
  -8.281758e+01   3.696834e+01
   4.368772e+01  -5.074911e+01
   8.485261e+01  -4.233024e+01
   3.968826e+01  -2.048610e+01
  -4.379975e+01   1.097833e+01
   4.996412e+01  -2.713997e+01
   6.495158e+01  -1.412003e+00
   1.270951e+02   2.762760e+01
  -3.516194e+01   7.662832e+01
  -1.061931e+02   9.993739e+01
  -2.022218e+02   1.402852e+02
  -1.841620e+02  -3.829714e+01
  -5.154680e+01  -1.636574e+02
   7.697417e+01  -1.608270e+02
   1.227511e+02  -6.930000e+01
   5.392777e+01   5.240285e+01
   4.935438e+01   3.664132e+01
  -1.791785e+01  -1.815337e+01
   2.417749e+01  -8.856074e+00
   2.052152e+01   5.314619e+01
   5.663382e-01   7.255032e+01
  -5.198709e+01   6.555157e+01
  -6.522353e+01  -4.752216e+01
  -6.648644e+01  -1.044703e+02
  -2.669210e+01  -9.560334e+01
   6.619591e+01   2.706966e+01
   9.506357e+01   5.007811e+01
   4.310789e+01   6.201758e+01
  -4.964083e+01   6.576614e+01
  -1.024742e+02   1.816280e+01
  -2.959211e+01  -2.783406e+01
   4.714705e+01  -3.555221e+01
   3.474754e+01  -1.464830e+00
   3.488670e+01  -1.655320e+01
  -5.994424e+01   4.764252e+00
  -1.799235e+01  -6.504404e+01
   1.734826e+01  -9.557137e+01
   1.400758e+02  -6.702999e+01
   7.769668e+01   1.742604e+01
  -3.195659e+01   3.030201e+01
  -2.410452e+01   9.155280e+01
   4.152931e+01  -8.175228e+00
  -5.528112e+00  -8.675809e+01
   6.344982e+01  -3.793115e+01
   3.000184e+01  -7.293982e+00
   2.385824e+01   1.179703e+02
   2.409011e+00   3.728279e+01
  -6.388620e+01  -1.575997e+01
  -4.829831e+01  -2.762128e+01
  -4.965979e+01   4.152770e+01
   9.549430e+00   9.829876e-01
   4.379821e+01   2.522522e+01
   4.824678e+01  -9.115613e+01
   5.254484e+01  -6.896699e+01
   6.631515e+01   6.896160e-01
   5.066681e+01   6.195353e+01
  -6.193860e+01   1.032351e+02
  -5.966097e+01   3.255701e+01
  -2.412182e+01  -7.428156e+01
  -5.874404e+01  -1.090376e+02
   9.298282e+01  -1.853252e+01
   8.751491e+01  -4.263057e+01
   6.705134e+01   4.136133e+01
  -5.912503e+01   2.001739e+01
  -4.108471e+01   2.361804e+01
  -2.155464e+01  -2.762429e+01
   6.831579e+01  -2.492717e+01
   2.798393e+01   3.960759e+01
  -8.968964e+01   1.549291e+01
  -9.380855e+01   3.399013e+01
