
 $NMID
 id='ANONYMOUS ', fmtdat='(2E16.6)'
 volume=1.0
 tramp=1.0
 $END
  -4.662332e+03  -5.311153e+01
  -2.668038e+03  -2.882762e+03
   8.928542e+02  -2.938518e+03
   2.396022e+03  -8.359447e+02
   9.568991e+02   8.370764e+02
  -7.988319e+02   6.995705e+02
  -1.035049e+03  -5.039156e+02
  -2.584247e+01  -1.266181e+03
   8.995529e+02  -7.836075e+02
   9.815428e+02   1.764146e+02
   4.703449e+02   9.301577e+02
  -3.279563e+02   1.001179e+03
  -7.315513e+02   8.773171e+01
  -3.908596e+02  -8.141127e+02
   3.107637e+02  -8.453596e+02
   7.032025e+02   3.803777e+01
   2.211917e+02   7.417817e+02
  -4.052461e+02   6.669761e+02
  -6.312511e+02   3.989803e+01
  -3.790072e+02  -4.161064e+02
   6.903079e+00  -4.657345e+02
   2.764783e+02  -2.945223e+02
   2.375835e+02   8.430906e+00
  -8.944418e+01   1.242192e+02
  -4.461068e+02  -6.192400e+01
  -1.945155e+02  -5.018159e+02
   4.871862e+02  -4.699992e+02
   9.456658e+02   8.086137e+01
   4.536387e+02   6.249374e+02
  -3.817536e+02   5.006003e+02
  -7.967490e+02   1.102373e+01
  -4.072367e+02  -5.468825e+02
   3.059701e+02  -6.066211e+02
   6.086474e+02  -2.150039e+02
   4.639149e+02   2.473401e+02
   5.090672e+01   5.598206e+02
  -2.642948e+02   3.530840e+02
  -2.575812e+02  -3.069222e+02
   1.948296e+02  -4.641397e+02
   4.897455e+02  -4.434743e+00
   2.626682e+02   7.636143e+02
  -3.690202e+02   7.621630e+02
  -6.675117e+02   4.224323e+01
  -3.218317e+02  -6.386729e+02
   2.834929e+02  -3.605782e+02
   4.001458e+02   3.699204e+02
  -3.981030e+01   6.228656e+02
  -5.744548e+02   1.471708e+02
  -6.014313e+02  -4.189483e+02
  -1.626670e+02  -6.409372e+02
   3.873809e+02  -4.299446e+02
   6.615565e+02   1.322855e+02
   3.640093e+02   4.237518e+02
  -1.797423e+02   4.390139e+02
  -5.190819e+02   6.807355e+01
  -2.401861e+02  -2.204604e+02
   1.871365e+02  -1.304922e+02
   1.556793e+02   1.793794e+02
  -1.859838e+02   2.073148e+02
  -3.664652e+02  -6.034624e+01
  -1.496673e+02  -2.664743e+02
   2.704673e+02  -1.920224e+02
   3.105158e+02  -4.232113e+01
   2.078932e+02   5.898939e+01
  -8.339045e+01   1.620440e+02
  -2.206202e+02   3.592500e+02
  -2.996394e+02   1.980937e+02
  -3.784411e+02  -1.689021e+02
  -8.842108e+01  -4.359464e+02
   1.611644e+02  -4.353157e+02
   1.417901e+02  -1.185350e+02
   2.045308e+01   4.291098e+01
   6.599624e+01  -7.375305e+01
   1.443020e+02  -2.110965e+02
   2.906315e+02   1.805873e+00
   1.663731e+02   2.837718e+02
  -4.785723e+01   2.698721e+02
  -2.166149e+02   1.809085e+01
  -2.453692e+02  -2.669154e+02
   5.647906e+01  -2.975257e+02
   2.627272e+02  -1.773828e+02
   4.541042e+02   1.627787e+02
   2.103479e+02   3.174465e+02
  -6.555119e+01   3.381829e+02
  -2.382492e+02   1.107311e+02
  -1.137437e+02   2.336187e+01
  -5.290632e+01   2.955479e+01
  -2.460275e+02   2.649529e+01
  -4.179203e+02  -7.231897e+01
  -3.420959e+02  -2.826057e+02
  -1.255825e+01  -4.531395e+02
   3.991703e+02  -4.359714e+02
   4.769783e+02  -1.956325e+02
   3.653387e+02   8.303589e+01
   7.345414e+01   2.717317e+02
  -1.261876e+02   2.865035e+02
  -9.604119e+01   1.830144e+01
   1.075540e+02  -8.931300e+01
   2.066820e+02  -4.622164e+01
   6.595424e+01   2.023526e+02
  -1.491176e+02   2.110514e+02
  -1.796555e+02  -1.387407e+01
   6.064844e+01  -2.326288e+02
   2.675631e+02   1.167112e+01
   1.904554e+02   2.492076e+02
  -5.581337e+01   3.968445e+02
  -2.373901e+02   1.953474e+02
  -3.218295e+02  -8.354597e+00
  -2.871850e+02  -2.802943e+02
  -1.099615e+02  -2.525806e+02
   1.112670e+02  -1.599133e+02
   1.111576e+02  -3.543869e+01
   6.616413e+01   1.502790e+01
  -1.009665e+02  -4.755965e+01
  -6.188164e+01  -1.097252e+02
   1.143667e+02  -1.287331e+02
   2.115629e+02  -1.876799e+01
   3.577400e+01   1.020267e+02
  -3.578944e+01   1.307132e+01
  -1.223938e+01  -1.312347e+01
   9.252992e+01  -1.280537e+02
   3.215207e+02  -4.663291e+01
   2.576593e+02   1.416895e+02
   6.794015e+01   1.931635e+02
  -1.282009e+02   2.714631e+02
  -3.351686e+02   1.345087e+02
  -1.948102e+02  -6.290489e+01
   8.624662e+00  -8.772752e+01
   6.754461e+01  -1.867895e+01
  -1.923364e+01   1.197561e+02
  -1.901384e+02   6.209349e+01
  -2.086611e+02  -1.549262e+02
  -9.421081e+01  -1.783924e+02
   8.714226e+01  -1.393093e+02
   1.560774e+02  -5.006285e+01
   1.081431e+02   6.006862e+01
   2.882938e+01   1.232790e+01
  -5.682454e+01  -5.946255e+01
   7.704857e+01  -1.212278e+02
   2.070366e+02  -8.367854e+01
   2.126792e+02   1.542840e+02
  -5.139475e+00   1.783374e+02
  -2.715005e+02   1.717189e+02
  -2.059448e+02   3.779775e+01
  -8.594706e+01  -1.046177e+02
   3.226058e+01  -1.563306e+02
   6.981933e+01  -4.758759e+01
  -5.034788e+00   6.870082e+01
  -7.468325e+00   3.330776e+01
  -2.517333e+00   4.371911e-01
   8.176114e+01   9.768084e+00
   6.838000e+01   7.654810e+01
   3.618908e+01   1.242955e+02
  -1.492297e+02   1.434487e+02
  -2.728584e+02   4.180493e+01
  -2.475108e+02  -1.467866e+02
  -1.465290e+01  -1.914902e+02
   1.028927e+02  -2.185405e+02
   1.126713e+02  -5.379683e-01
   5.048781e+01   9.842420e+01
   5.424048e+01   1.678357e+01
   4.496339e+01  -6.536587e+01
   5.112652e+01  -4.222811e+01
   6.637541e+01   1.411587e+01
  -5.511623e+00   5.632369e+01
  -1.084315e+02   4.444881e+01
  -7.531262e+01  -1.845012e+01
   2.566305e+01  -7.189135e+01
   1.657320e+02  -1.222570e+02
   2.085084e+02   7.932026e+01
   1.166684e+02   2.076562e+02
  -9.560839e+01   2.211834e+02
  -2.674203e+02   7.589811e+01
  -2.502577e+02  -3.233163e+01
  -9.955232e+01  -2.224545e+02
   6.015648e+01  -1.586814e+02
   9.296579e+01  -7.979252e+01
   8.107655e+01  -7.304633e+01
   4.409829e+01  -4.731061e+01
   9.417253e+01  -4.548089e+01
   1.470842e+02   2.908735e+01
   1.080491e+02   1.281426e+02
   4.068149e+01   2.286453e+02
  -1.404164e+02   1.151791e+02
  -1.991402e+02   4.573059e+01
  -8.302165e+01  -1.007627e+02
  -2.690059e+01  -1.337504e+02
   8.610678e+01  -5.123358e+01
   1.230098e+02  -1.954732e+01
   1.404315e+01   6.288677e+01
  -4.487596e+01   5.192150e+01
  -1.797516e+01   1.494517e+01
   1.063999e+02  -1.286793e+01
   1.830745e+01   9.339358e+01
  -6.795988e+01   5.429153e+01
  -1.442780e+02   1.768927e+01
  -1.793551e+02   2.248783e+01
  -7.665253e+01  -1.309379e+02
   1.408915e+02  -8.011203e+01
   1.532981e+02  -4.737134e+01
   6.982446e+01   5.223269e+01
  -2.057478e+01  -1.313222e+01
  -4.185518e+01  -4.656134e+01
  -1.846345e+01  -7.952256e+01
   1.264837e+01  -4.285409e+00
   2.836852e+01   3.452928e+01
   6.483123e+00   4.790293e+01
   3.149785e+01   6.112906e+01
   9.088957e+01  -2.921575e+01
   1.182885e+02   3.330986e+01
   2.795881e+01   4.722682e+01
   1.688264e+00   1.359474e+02
  -1.297169e+02   1.510929e+02
  -1.353206e+02   6.304720e+01
  -8.612007e+01  -8.168746e+01
  -2.868325e+01  -1.615280e+02
   7.429864e+01  -4.127649e+01
   8.397641e+01   8.428797e+00
  -9.545352e+01  -1.276113e+00
  -1.025490e+02  -6.602086e+01
  -5.867470e+01  -1.011365e+02
   7.677206e+01  -9.236362e+01
   1.869698e+02  -1.764021e+01
   1.930520e+02   5.294287e+01
   2.014603e-01   6.840592e+01
  -3.671806e+01   5.964575e+01
  -3.417618e+01   3.234479e+01
   2.141380e+01  -2.090605e+00
   7.524138e+01   8.080939e+01
   2.540119e+01   1.060931e+02
  -9.706791e+01   1.286588e+02
  -1.888156e+02   4.049112e+01
  -8.714692e+01  -7.756139e+01
  -4.064726e+01  -1.628324e+02
   5.308026e+01  -1.517753e+02
   1.070640e+02   3.823023e+00
   7.369539e+01   1.501799e+02
  -1.763511e+01   9.018058e+01
  -1.951248e+01   2.690980e+01
  -2.633282e+01  -6.127924e+01
  -5.242906e+01   6.733568e+01
  -3.482959e+01  -1.967387e+01
  -4.305654e+01  -1.651293e+01
  -7.457257e+01  -1.125261e+02
  -6.318695e+00  -1.577129e+02
   6.593773e+01  -3.740397e+01
   1.327825e+02   4.344893e+01
   1.356694e+02   1.277190e+02
  -2.470247e+01   3.884743e+00
  -6.719461e+01   5.559966e+01
  -9.220420e+01   5.475867e+00
   6.071226e+01   3.576327e+01
   1.936047e+01  -2.606287e+00
   1.573983e+01  -6.494151e+01
  -2.454163e+01   1.377588e+01
   6.462682e+01  -3.583351e+01
   6.637549e+01   9.175808e+00
   9.533835e+01  -8.265865e+01
   6.640945e+00   7.834906e+01
  -1.081427e+02   1.094431e+02
  -1.510748e+02   6.595790e+01
  -1.291655e+02  -1.049280e+01
   2.739975e+01  -1.812566e+02
  -7.685695e-01  -1.234189e+02
   1.352531e+02  -4.121499e+01
   5.680324e+01  -2.843834e+00
   7.487572e+01   6.483810e+01
  -1.621927e+01   3.702361e+01
  -5.725338e+01  -7.024461e+00
   3.097104e+01   1.330201e+01
   1.267615e+01   1.030497e+02
  -1.768395e+01   1.992418e+01
  -7.351619e+01  -3.103921e+01
  -7.986303e+01  -1.316857e+02
   1.077901e+01  -8.693844e+01
   2.830357e+01  -3.746574e+01
   1.187155e+02   6.598126e+01
   5.272894e+01   1.526523e+02
  -9.556047e+01   7.391362e+01
  -8.357442e+01   3.539544e+01
  -1.559396e+01   1.296278e+01
   2.458568e+01  -6.170091e+01
   4.245002e+01  -4.566121e+01
  -1.048520e+01  -2.800915e+01
  -7.857655e+01   8.121129e+01
  -1.744909e+01  -3.454012e+01
   4.555489e+01  -7.123384e+01
   1.244824e+02  -5.734366e+01
   7.533285e+01   2.802698e+01
  -2.739790e+01   6.559322e+01
   6.256352e+00   4.869645e+01
  -2.481952e+01   2.406419e+01
  -1.747282e+01  -5.068049e+01
   5.242866e+01  -7.123513e+01
   8.862868e+01   7.241375e+01
   1.026771e+02   5.010740e+01
  -1.524615e+01   8.880848e+00
  -5.925464e+01   2.870457e+01
  -4.285245e+01  -3.102647e+00
  -5.992029e+01   2.617728e+01
   1.606378e+01  -1.559374e+00
   5.646920e+00  -1.487662e+01
   8.900542e-02  -5.025944e+01
   2.323034e+01  -2.030902e+01
   3.912588e+01  -4.792273e+01
   5.848444e+01   6.030136e+01
  -4.213625e+01   7.633338e+01
  -6.684676e+01  -5.313456e+00
  -1.949887e+01  -4.911322e+01
  -1.408295e+01  -8.027704e+01
   4.343751e+01  -4.409710e+01
   1.244998e+02  -1.253602e+01
   4.386353e+01   5.283739e+01
  -2.865670e+01   4.163084e+01
  -5.427430e+01   2.897492e+01
  -3.486719e+01   5.967522e+01
   2.226034e+01   5.121007e+01
   1.505872e+01  -2.237687e+00
  -1.342013e+01   1.640275e+01
  -9.788774e+01   3.204422e+01
