
 $NMID
 id='ANONYMOUS ', fmtdat='(2E16.6)'
 volume=1.0
 tramp=1.0
 $END
   4.528551e+03  -6.386875e+01
   2.698569e+03   2.678618e+03
  -7.794621e+02   2.868451e+03
  -2.220242e+03   9.244154e+02
  -9.286053e+02  -7.218153e+02
   7.560680e+02  -6.315754e+02
   9.691126e+02   4.124751e+02
   7.432816e+00   1.085113e+03
  -8.612674e+02   7.807988e+02
  -9.317974e+02  -7.528770e+01
  -4.780517e+02  -9.456479e+02
   2.764242e+02  -9.713441e+02
   6.851404e+02  -1.404740e+02
   3.627097e+02   7.752731e+02
  -2.669956e+02   7.624579e+02
  -5.810816e+02   6.195990e+01
  -2.793894e+02  -7.229412e+02
   3.347230e+02  -6.404806e+02
   5.991950e+02  -9.367627e+01
   4.375573e+02   3.768630e+02
  -4.482291e+00   4.182865e+02
  -2.477812e+02   2.502527e+02
  -2.381939e+02   5.471955e+01
   1.216855e+02  -1.161038e+02
   4.180038e+02   9.884454e+01
   1.840977e+02   4.091770e+02
  -4.490402e+02   4.244720e+02
  -9.133532e+02  -6.743473e+01
  -4.701435e+02  -5.756028e+02
   4.203110e+02  -5.013647e+02
   7.736552e+02  -2.696107e+01
   3.490189e+02   4.965752e+02
  -2.831185e+02   5.512437e+02
  -6.228146e+02   2.194572e+02
  -4.291192e+02  -2.681493e+02
  -6.299347e+01  -4.617569e+02
   1.905525e+02  -3.366529e+02
   2.077102e+02   2.259179e+02
  -1.841078e+02   4.613084e+02
  -4.547201e+02   5.737971e+00
  -3.274913e+02  -7.169673e+02
   3.281472e+02  -7.698781e+02
   6.798431e+02   3.662721e+01
   3.019534e+02   5.489869e+02
  -3.043082e+02   3.437512e+02
  -4.541897e+02  -3.050597e+02
   2.911774e+01  -5.572725e+02
   5.837331e+02  -1.734323e+02
   6.685152e+02   4.383205e+02
   2.420816e+02   6.367894e+02
  -4.162155e+02   3.535287e+02
  -6.744598e+02  -7.928468e+01
  -3.786095e+02  -3.718964e+02
   1.991522e+02  -3.802268e+02
   4.187256e+02  -7.194062e+01
   2.783923e+02   2.003907e+02
  -1.460346e+02   1.421264e+02
  -1.625193e+02  -1.176942e+02
   1.124023e+02  -1.515567e+02
   3.454245e+02   3.303983e+01
   1.265894e+02   3.258403e+02
  -2.077090e+02   2.473757e+02
  -3.380963e+02   8.971156e+01
  -1.651287e+02  -8.924419e+01
   7.060119e+01  -1.847365e+02
   1.250255e+02  -3.259346e+02
   3.622624e+02  -1.829318e+02
   3.011961e+02   9.736764e+01
   9.512353e+01   4.563796e+02
  -1.493894e+02   4.241503e+02
  -8.046282e+01   1.623499e+02
  -2.877838e+01  -5.220041e+01
  -5.999507e+01   2.349725e+01
  -2.233386e+02   1.390226e+02
  -2.821816e+02  -1.203994e+02
  -1.976793e+02  -2.849981e+02
   3.786087e+01  -3.359383e+02
   2.844375e+02  -3.086528e+01
   1.978805e+02   2.924338e+02
   5.623250e+00   2.785553e+02
  -2.676393e+02   1.311980e+02
  -3.289300e+02  -1.711528e+02
  -2.183176e+02  -3.467598e+02
   1.008490e+02  -3.406168e+02
   2.442201e+02  -1.156168e+02
   1.198251e+02  -2.322510e+00
   1.615404e+02  -7.338225e+01
   2.364950e+02  -9.033144e+01
   3.879624e+02   2.935808e+01
   2.987076e+02   2.838046e+02
   1.424563e+01   4.118320e+02
  -3.829837e+02   4.126445e+02
  -5.010904e+02   2.063097e+02
  -2.954870e+02  -9.446579e+01
  -3.066145e+01  -2.532721e+02
   1.321896e+02  -2.468782e+02
   1.630513e+02  -2.130116e+01
  -1.036004e+02   1.032515e+02
  -1.965044e+02   4.141887e+01
  -6.324164e+01  -2.605157e+02
   1.337036e+02  -2.356328e+02
   1.986276e+02   4.848668e+01
   1.008332e+01   2.951894e+02
  -2.167347e+02   4.124373e+01
  -1.758941e+02  -2.922054e+02
   5.242540e+01  -3.529299e+02
   2.461563e+02  -2.405349e+02
   3.334994e+02   5.141611e+01
   2.631671e+02   2.678999e+02
   1.013864e+02   2.905823e+02
  -1.153535e+02   1.265188e+02
  -1.483344e+02   5.711071e+01
  -6.855495e+01   7.751379e+00
   1.136261e+02   2.799700e+01
   4.935162e+01   8.504759e+01
  -1.518644e+02   1.342046e+02
  -1.718874e+02   1.233765e+01
  -3.660749e+01  -9.774757e+01
   7.300852e+01  -5.529989e+01
   4.976603e+01   5.508063e+01
  -6.130122e+01   1.052197e+02
  -3.173875e+02   3.869850e+00
  -2.853106e+02  -1.121747e+02
  -5.134443e+01  -2.866001e+02
   1.936841e+02  -2.711889e+02
   2.007099e+02  -1.370556e+02
   1.903975e+02   4.092026e+01
  -2.180140e+01   1.150722e+02
  -8.969166e+01   6.357565e+00
   1.073890e+02  -9.309544e+01
   2.047520e+02  -4.896489e+01
   2.708785e+02   1.287149e+02
   9.143364e+01   1.734627e+02
  -7.382907e+01   1.495545e+02
  -1.408879e+02   8.207364e+01
  -7.932126e+01  -4.790360e+01
   6.234599e+01  -2.872084e+01
   4.773967e+01   1.033186e+02
  -7.392104e+01   8.186735e+01
  -1.235866e+02   6.281958e+01
  -2.301426e+02  -9.009732e+01
  -1.644001e+01  -2.311775e+02
   1.752867e+02  -1.365444e+02
   1.502230e+02  -5.124990e+01
   8.003233e+01   9.846126e+01
  -2.192845e+01   1.222640e+02
  -9.160125e+01   2.687331e+01
   2.467705e+01  -4.498313e+01
   1.499342e+01  -2.226189e+01
   1.141951e+02  -2.307747e+01
  -5.584292e+01   1.392583e+01
  -6.525571e+01  -1.047579e+02
  -4.782465e+01  -1.444684e+02
   1.482302e+02  -1.264173e+02
   2.179595e+02  -2.425275e+01
   2.412719e+02   1.049757e+02
   8.571874e+01   3.040636e+02
  -8.004517e+01   1.814888e+02
  -1.490856e+02   9.304308e+01
  -7.721314e+01  -4.162873e+01
  -6.061539e+01  -6.234069e+01
  -2.824634e+01   4.416832e+01
  -8.318957e+01   2.326906e+01
  -2.190436e+00  -3.809721e+01
   4.858813e+01  -8.911644e+01
   1.043219e+02  -9.666368e+01
   4.738578e+01   1.344925e+01
  -3.527603e+00   9.675449e+01
  -1.053343e+02   8.020489e+01
  -2.247542e+02  -3.260313e+01
  -1.238384e+02  -1.764732e+02
   1.110038e+02  -1.848990e+02
   2.574429e+02  -1.279033e+02
   2.738408e+02   7.357623e+01
   1.641726e+02   2.570424e+02
  -7.572926e+01   1.909253e+02
  -4.987413e+01   1.097442e+02
  -8.726514e+01   8.343266e+01
  -5.953232e+01   9.136212e+01
  -1.245757e+02   4.277935e+01
  -9.334912e+01  -1.565235e+01
  -1.175814e+02  -1.631294e+02
   5.050054e+01  -2.457479e+02
   1.491897e+02  -1.399953e+02
   1.187182e+02  -3.270313e+01
   1.073580e+02   1.664608e+02
   4.028687e+01   1.160426e+02
  -1.038851e+02   6.539949e+01
  -6.426477e+01  -1.046538e+00
   4.297679e+01  -8.200866e+01
   2.712964e+01  -8.853521e+00
  -5.789287e+01   2.822093e+01
  -5.348234e+01  -2.844188e+00
  -5.067006e+01  -3.205273e+01
   6.593839e+01  -2.904446e+01
   1.042052e+02  -6.730022e+01
   1.433996e+02   5.966660e+01
   3.900303e+01   8.323219e+01
  -1.586573e+02   4.072973e+01
  -1.238618e+02   1.444717e+01
  -5.303241e+01  -5.410697e+01
   3.186684e+01   1.086058e+01
   1.305844e+02   4.074994e+01
  -4.944569e+00   4.246711e+01
  -8.898694e+01   6.436203e+01
  -6.456945e+01  -4.539513e+01
  -1.415718e+01  -4.350846e+01
  -2.609319e+01  -7.755309e+01
  -6.395997e+01   1.164903e+01
  -7.235576e+01   1.226439e+01
  -2.500390e+01  -8.303164e+01
   5.975605e+01  -1.562609e+02
   9.365744e+01  -1.135956e+02
   1.944814e+02  -1.716567e+01
   1.471122e+02   9.125525e+01
   3.971573e-02   1.120757e+02
  -1.116917e+02   2.218135e+01
  -2.324772e+01  -2.646134e+01
   7.335206e+01   4.521529e+00
   1.505374e+02   2.862760e+01
   1.134167e+02   7.884097e+01
  -4.790613e+01   1.130448e+02
  -1.105046e+02   8.838732e+01
  -1.997727e+02  -1.680149e+01
  -9.634533e+01  -8.903031e+01
   3.483852e+01  -7.877302e+01
   1.024356e+02   5.424499e+01
  -1.524429e+01   5.046866e+01
  -9.424935e+01  -4.602833e+00
  -3.061856e+01  -1.166434e+02
   5.819784e+01  -1.417007e+02
   1.116472e+02  -6.125163e+01
   2.892901e+01   1.322810e+02
   1.467415e+01   1.508741e+02
  -9.540912e+01   1.428008e+02
  -8.745257e+01  -1.886034e+01
  -1.286802e+02  -1.206629e+02
   1.666492e+01  -8.208745e+01
   6.435769e+01   3.296860e+00
   4.163042e+01   5.059286e+01
   2.837939e+01   1.472321e+01
  -6.514572e+00   5.344684e+00
  -3.960287e+01   1.246224e+01
   5.277338e+01   1.091726e+02
   4.747863e+01   1.244501e+02
  -3.938010e+01   8.424257e+01
  -1.625511e+02   1.123062e+01
  -9.426025e+01  -9.626377e+01
  -1.445208e+01   8.906485e+00
   1.973359e+01  -2.959094e+00
   1.048583e+02   1.333042e+01
   1.321214e+01   2.280455e+01
  -6.793244e+01   1.284897e+01
   1.996565e+01   5.192659e+01
   3.167171e-01   4.065320e+01
  -6.520973e+01  -1.466291e+01
  -8.838498e+01   3.390899e+01
  -1.178154e+02  -3.719422e-01
   1.005110e+01  -9.696844e+01
   8.076335e+01  -1.515870e+02
   2.163776e+02  -1.139847e+02
   1.344603e+02   1.323243e+02
  -7.651299e+00   2.049713e+02
  -5.753034e+01   1.436504e+02
  -1.122971e+02   9.879629e+01
  -1.032662e+02   2.515414e+01
   6.089170e+00  -4.076042e+01
  -5.154382e+01  -8.385954e+00
   4.993290e+01  -2.505679e+00
  -1.648529e+01  -3.323000e+01
  -9.079900e+00  -1.244925e+02
   5.729428e+01  -4.661323e+01
   4.277608e+01   1.485631e+01
   8.406676e+01   9.136355e+01
  -2.470353e+01   1.331307e+02
  -5.393277e+01   6.659566e+01
  -1.285682e+02  -5.148605e+01
  -7.307505e+00  -1.218737e+02
   8.998103e+01  -3.460445e+01
   1.185927e+02   3.863954e+01
  -2.545718e+01  -1.990542e+01
  -2.994654e+00   4.310461e+01
  -4.993875e+01   3.599670e+00
   8.656659e+01   3.970681e+01
  -1.651851e+01  -1.248152e+01
   1.776338e+01   7.240820e+01
  -8.325924e+01   7.328109e+01
  -1.257061e+02   3.018076e+01
  -8.978022e+01  -2.421834e+01
  -2.782063e+01  -8.985383e+01
   8.089943e+01  -1.605703e+01
   6.825378e+01  -4.158535e+01
   3.487510e+01   8.238324e+01
  -1.097049e+01   2.832264e+01
  -8.112682e+01  -6.556636e+01
  -2.230759e+01  -2.255707e+01
  -3.281334e+01  -3.182832e+01
   1.030435e+01  -2.583511e+01
   1.484147e+01  -8.008850e+00
   5.877543e+00  -2.518063e+01
   1.009892e+00  -8.114823e+01
  -4.589682e+01  -2.971798e+01
  -3.527153e+01  -1.280498e+01
  -6.447420e+01   8.100733e+00
  -8.582812e+01  -1.395448e+01
  -1.375509e+01  -2.249538e+01
  -1.146466e+01  -5.326364e+01
   7.885328e+01  -6.575810e+01
   5.945351e+01   2.681419e+01
   2.745456e+01   1.513524e+01
  -6.093687e+01   8.365994e+01
  -1.664631e+02   1.895473e+01
  -3.846248e+01  -4.042515e+01
   6.224645e+01  -3.688932e+00
   3.473977e+01   2.634819e+01
   2.361494e+01   2.518343e+01
  -1.031990e+00   1.453046e+01
  -6.237000e+01   3.804761e+01
   1.460483e+01   7.251704e+00
   8.362986e+01  -6.081451e+00
