
 $NMID
 id='ANONYMOUS ', fmtdat='(2E16.6)'
 volume=1.0
 tramp=1.0
 $END
   4.082951e+03  -1.783034e+01
   2.451912e+03   2.302317e+03
  -5.251656e+02   2.563720e+03
  -1.872911e+03   1.053938e+03
  -1.008098e+03  -4.233701e+02
   4.659641e+02  -4.941400e+02
   7.175878e+02   3.179170e+02
   6.648770e+01   9.278651e+02
  -7.199046e+02   7.145112e+02
  -8.609083e+02  -3.592891e+00
  -4.447325e+02  -7.204623e+02
   1.426957e+02  -8.496495e+02
   6.120468e+02  -1.563716e+02
   3.437103e+02   6.229718e+02
  -2.641105e+02   7.078315e+02
  -5.596299e+02   2.535968e-01
  -3.032839e+02  -6.816622e+02
   2.833880e+02  -6.727514e+02
   5.440466e+02  -1.575298e+02
   4.187390e+02   2.942178e+02
   6.382014e+01   4.502702e+02
  -2.159059e+02   2.459691e+02
  -2.295752e+02   5.895894e+01
   9.424188e+01  -5.180239e+01
   3.924228e+02   1.362655e+02
   1.581550e+02   4.296472e+02
  -4.565148e+02   2.979153e+02
  -7.805829e+02  -1.052038e+02
  -3.746864e+02  -4.985840e+02
   3.804406e+02  -4.147593e+02
   7.024965e+02   7.382603e+01
   3.149909e+02   4.296517e+02
  -2.533210e+02   4.374068e+02
  -5.530094e+02   2.084385e+02
  -4.018971e+02  -2.139941e+02
  -7.509606e+01  -4.689251e+02
   1.975171e+02  -2.867928e+02
   7.725982e+01   1.683369e+02
  -1.408012e+02   3.730690e+02
  -3.707533e+02  -3.294087e+01
  -1.953979e+02  -6.004013e+02
   2.947589e+02  -6.884259e+02
   5.241218e+02  -3.323728e+01
   2.170823e+02   4.441050e+02
  -2.278702e+02   2.548119e+02
  -3.432028e+02  -3.047740e+02
   7.962452e+01  -4.640728e+02
   5.330647e+02  -1.084784e+02
   6.051344e+02   3.985944e+02
   1.875490e+02   5.010294e+02
  -3.583287e+02   2.960017e+02
  -6.272640e+02  -1.080434e+02
  -3.846393e+02  -2.904178e+02
   1.081715e+02  -3.438482e+02
   4.175899e+02  -4.644323e+01
   2.803865e+02   2.009374e+02
  -6.584167e+01   1.096408e+02
  -1.516008e+02  -9.790148e+01
   1.329155e+02  -1.523354e+02
   3.130050e+02   7.572936e+01
   1.720049e+02   2.396484e+02
  -2.374331e+02   2.583324e+02
  -3.682188e+02   7.101410e+01
  -2.352094e+02  -7.899771e+01
   1.385182e+01  -2.967699e+02
   2.639859e+02  -3.579994e+02
   3.178290e+02  -1.643644e+02
   2.796000e+02   1.423375e+02
   7.507300e+01   4.699303e+02
  -4.417127e+01   4.128946e+02
  -4.110098e+01   1.253775e+02
  -3.258938e+01   4.327051e+01
  -7.172331e+01   5.103326e+01
  -2.035086e+02   1.145872e+02
  -2.177454e+02  -2.310255e+00
  -2.177363e+02  -2.394672e+02
   3.445798e+01  -2.500759e+02
   2.074543e+02  -3.668071e+00
   1.585966e+02   2.084337e+02
   1.648905e+01   3.048663e+02
  -2.542066e+02   1.171384e+02
  -3.989716e+02  -1.524031e+02
  -1.814541e+02  -3.288013e+02
   1.297598e+02  -3.368828e+02
   2.345387e+02  -1.440299e+02
   1.209035e+02   1.880978e+01
   6.991083e+01  -9.685648e+01
   2.573111e+02  -8.995182e+01
   4.250486e+02   1.015491e+02
   3.003418e+02   2.946142e+02
  -7.677051e+00   4.873543e+02
  -3.541837e+02   3.713451e+02
  -4.711112e+02   1.353332e+02
  -3.295859e+02  -7.860719e+01
  -5.992570e+01  -2.988029e+02
   1.114358e+02  -2.640775e+02
   1.040277e+02  -6.450031e+00
  -1.161732e+02   1.122154e+02
  -2.423909e+02  -1.640668e+01
  -5.001116e+01  -1.791784e+02
   1.685265e+02  -1.843251e+02
   1.949224e+02   9.970388e+00
  -6.506126e+01   1.917535e+02
  -2.282998e+02   1.628179e+01
  -1.173482e+02  -2.232444e+02
   4.572180e+01  -3.351536e+02
   2.415580e+02  -1.967220e+02
   3.433665e+02   4.376798e+01
   3.038723e+02   2.976575e+02
   4.444616e+01   2.844263e+02
  -1.306289e+02   1.870413e+02
  -1.823516e+02   1.674456e+01
  -3.441636e+01  -1.077275e+01
   4.015074e+01   5.471679e+01
  -1.010143e+01   1.132704e+02
  -1.142005e+02   6.067898e+01
  -1.508982e+02   2.038485e+01
  -4.410141e+01  -1.499038e+01
   9.693934e+01  -1.855084e+01
   5.072981e+01   7.697428e+01
  -1.259021e+02   4.338316e+01
  -2.354751e+02   7.581081e-01
  -2.763687e+02  -1.171457e+02
  -1.058574e+02  -2.169434e+02
   1.726801e+02  -2.123199e+02
   2.507457e+02  -1.005971e+02
   1.641051e+02   4.481843e+01
  -9.760246e+00   1.114113e+02
  -5.448472e+01   1.687142e+01
   1.985799e+01  -1.079395e+02
   2.447030e+02  -7.080845e+01
   2.413676e+02   6.047560e+01
   5.633522e+01   2.595023e+02
  -8.382791e+01   1.553184e+02
  -1.777711e+02   5.247562e+00
  -1.055668e+02  -3.083268e+01
   4.264386e+01   5.612291e+00
   8.309697e+01   9.015237e+01
  -1.135468e+02   1.498770e+02
  -2.489053e+02   2.573480e+01
  -1.378420e+02  -1.121453e+02
   1.526921e+01  -2.388082e+02
   1.559556e+02  -1.395559e+02
   1.600395e+02  -4.510952e+01
   5.029494e+01   1.190010e+02
  -1.266649e+02   1.094841e+02
  -1.114311e+02   4.476086e+01
   5.736625e+01  -7.063040e+01
   4.639091e+01   2.799775e+00
  -2.112930e+01   4.297298e+00
  -8.207138e+01  -7.932201e+01
  -7.390128e+01  -8.105879e+01
   1.698262e+01  -1.885324e+02
   1.327897e+02  -1.262559e+02
   1.971346e+02  -6.158975e+00
   2.106490e+02   1.596720e+02
   5.984367e+01   2.143961e+02
  -1.078116e+02   1.694157e+02
  -1.758996e+02   1.060378e+01
  -3.704113e+01  -3.636126e+01
  -1.592834e+01  -7.594284e+01
  -2.484142e+01   2.580355e+01
  -1.016912e+02   3.999777e+01
  -9.422666e+01  -2.959487e+01
   2.536267e+01  -1.009817e+02
   1.241347e+02  -7.531227e+01
   4.789119e+01  -2.780813e-01
  -2.456660e+01   1.183748e+02
  -1.191863e+02   6.088521e+01
  -1.966498e+02  -3.075330e+01
  -5.552802e+01  -1.988213e+02
   1.014110e+02  -2.329832e+02
   2.865715e+02  -1.000658e+02
   2.271860e+02   6.704814e+01
   8.945542e+01   1.770234e+02
  -1.629435e+01   1.399162e+02
  -1.247664e+02   7.867916e+01
  -8.634657e+01   8.308552e+01
  -7.176267e+01   7.557722e+01
  -5.911650e+01   8.714400e+01
  -8.643357e+01  -4.194128e+01
  -1.339334e+02  -1.207685e+02
  -3.579369e+01  -2.621210e+02
   7.673688e+01  -1.599137e+02
   1.754306e+02  -5.888938e+00
   1.139765e+02   1.542772e+02
   4.003635e+00   1.465508e+02
  -4.485014e+01   1.222422e+01
  -1.267912e+01   3.463995e+01
   6.981829e-01  -6.464792e+01
   3.115386e+01  -4.819257e+01
   2.710421e+01  -7.084459e+01
  -8.200363e+01  -2.943897e+01
  -4.887582e+01  -4.660350e+01
   5.784464e+01  -1.990125e+01
   1.619073e+02   4.239883e+01
   1.006005e+02   1.959724e+01
   4.343621e+01   1.329205e+02
  -1.681604e+02   9.468600e+01
  -1.506406e+02   6.466015e+00
  -1.726515e+01  -1.125344e+02
   5.668511e+01  -1.539654e+01
   3.764059e+01   3.103075e+01
   8.483562e+00   4.344065e+01
  -1.122641e+02   7.670076e+01
  -3.559860e+01  -3.584647e+01
  -6.965370e+01  -5.959885e+01
  -5.606911e+01   7.448234e+00
  -5.155668e+01  -2.508193e+01
  -5.291421e+01   8.543549e+00
   3.010499e+00   1.905821e+00
   4.087343e+01  -1.197213e+02
   8.956956e+01  -1.181721e+02
   1.221717e+02  -1.911445e+00
   1.476835e+02   1.458539e+02
   3.611562e-02   1.441751e+02
  -1.373080e+02   1.300986e+01
   1.899985e+01   1.484928e+01
   5.224845e+01  -1.252703e+01
   1.330553e+02   3.828294e+01
   9.312907e+01   4.472449e+01
  -6.788833e+01   1.023602e+02
  -1.882727e+02   5.764825e+01
  -1.672425e+02  -3.766765e-01
  -4.246345e+01  -1.065549e+02
   6.012621e+01  -1.078166e+02
   4.441238e+01  -8.889316e+00
  -7.399790e+01  -1.443419e+01
  -7.879483e+01   2.165578e+01
  -7.143481e+01  -6.582979e+01
   8.051786e+01  -2.001867e+02
   1.721344e+02  -1.656693e+01
   1.081663e+02   7.332560e+01
   9.069890e+00   8.686525e+01
  -8.218866e+01   8.341328e+01
  -9.098411e+01  -3.908968e+01
  -6.409447e+01  -9.184505e+01
   2.057980e+01  -8.767203e+01
   4.117243e+01  -3.506687e+01
   1.030060e+02   4.663311e+01
   4.830121e+00   2.186108e+01
   1.777003e+01  -2.506763e+01
   2.029794e+01   3.884959e+01
   4.422251e+01   4.895523e+01
   6.741947e+01   1.062485e+02
  -2.994684e+01   4.257663e+01
  -1.311848e+02  -4.932430e+01
  -1.291387e+02  -1.160372e+02
  -1.750929e+01  -7.099771e+01
   6.172631e+01  -3.137765e+01
   3.768080e+01  -1.946194e+00
  -2.497444e+01   8.715953e+01
  -3.031193e+01   4.335002e+01
  -3.315628e+00  -3.701905e+01
   4.581772e+01  -3.127743e+01
  -1.815022e+01  -1.110525e+01
  -9.673065e+01   3.321435e+00
  -1.304651e+02  -4.649808e+01
   3.101949e+00  -9.644200e+01
   1.415235e+02  -1.397064e+02
   1.901001e+02  -8.075946e+01
   1.421163e+02   4.515844e+01
   1.636915e+01   1.604725e+02
  -6.241843e+01   1.450731e+02
  -1.110276e+02   7.999310e+01
  -6.832708e+01  -7.313945e+01
  -1.765527e+01  -1.486772e+01
   5.342854e+00   6.212189e+00
   2.988085e+01  -1.239264e+01
   1.491744e+01  -5.181089e+01
  -6.670379e+01  -1.112397e+02
   3.298468e+01  -4.795558e+01
   5.774659e+01  -7.034287e+01
   1.383604e+02   1.179648e+02
  -3.508927e-01   9.965797e+01
  -8.515026e+01   6.610949e+01
  -1.029545e+02  -4.865771e+01
   2.245524e+00  -1.170307e+02
   8.732583e+01  -4.317077e+01
   9.637180e+01  -4.801651e+01
   8.449551e+01   6.612903e+01
  -3.437879e+01   2.528478e+01
  -6.826551e+01   3.154409e+01
   3.128212e+01   1.822214e+00
   8.239137e+01   7.217432e+01
   9.579060e+00   6.256097e+01
  -4.575577e+01   3.987603e+01
  -9.148416e+01   7.265604e+01
  -6.740285e+01   1.021058e+01
   4.798596e+01  -9.798975e+01
   1.818974e+01  -1.236460e+02
   2.079651e+01   5.364884e+01
   2.496297e+01   6.247823e+01
  -9.248304e+00  -2.747698e+01
   9.370531e+00  -2.767514e+01
  -2.638368e+01  -7.586259e+01
  -3.985137e+01  -4.317478e+01
   1.109753e+01   2.287073e+01
   5.260916e+01   8.429100e+01
   2.216367e+01  -9.210532e+00
  -1.028314e+00  -3.160213e+01
  -1.203001e+01   1.120354e+01
   9.858632e+01   4.867876e+01
  -1.505020e+01   3.234486e+01
  -6.988579e+01  -6.399198e-01
  -5.369069e+01  -5.438968e+01
  -4.464760e+00  -9.048972e+01
   8.246389e+00   3.618294e-01
   7.381034e+01   8.652145e+01
   4.697500e+01   8.489126e+01
  -4.738660e+01   1.792509e+01
  -1.242305e+02  -5.293021e+01
  -6.622119e+01  -7.176675e+01
   3.213550e+01  -1.007511e+01
   3.756637e+01  -2.659602e+01
  -2.428388e+01  -3.801251e+01
  -3.878634e+01   1.522190e+01
  -4.796258e+00  -1.893556e+01
  -5.679698e+01  -7.849114e+01
   1.020408e+02  -4.758131e+01
