
 $NMID
 id='ANONYMOUS ', fmtdat='(2E16.6)'
 volume=1.0
 tramp=1.0
 $END
   3.293716e+03  -9.382908e+01
   2.179431e+03   1.729991e+03
  -1.141018e+02   2.083917e+03
  -1.386887e+03   1.140475e+03
  -9.960054e+02   2.091326e+01
   8.254051e+01  -3.139210e+02
   4.768793e+02   1.470665e+02
   9.097236e+01   6.457475e+02
  -4.420295e+02   5.620642e+02
  -6.730179e+02   4.781546e+01
  -4.473391e+02  -5.897737e+02
   4.293397e+01  -6.818194e+02
   3.770867e+02  -1.936549e+02
   2.691386e+02   4.516435e+02
  -1.035766e+02   5.638142e+02
  -4.569416e+02   3.220865e+01
  -3.385653e+02  -5.164713e+02
   1.824856e+02  -6.173683e+02
   4.873306e+02  -2.438415e+02
   4.324987e+02   1.922843e+02
   1.339711e+02   3.691786e+02
  -1.205947e+02   2.313085e+02
  -1.065798e+02   5.796326e+01
   1.762486e+02   3.000465e+01
   2.911697e+02   2.469312e+02
   6.729977e+01   3.952757e+02
  -4.901862e+02   1.944367e+02
  -6.222468e+02  -9.032422e+01
  -2.712700e+02  -3.421491e+02
   2.980007e+02  -2.638160e+02
   4.742768e+02   1.416647e+02
   2.115870e+02   3.326812e+02
  -2.498188e+02   4.114797e+02
  -4.282452e+02   8.952584e+01
  -3.298352e+02  -1.097815e+02
  -9.192248e+01  -2.898158e+02
   3.738492e+01  -1.817708e+02
  -3.378635e+01   1.197949e+02
  -2.126476e+02   2.197920e+02
  -2.473452e+02  -1.026142e+02
  -6.383820e+01  -4.637092e+02
   2.350441e+02  -4.474359e+02
   3.745474e+02  -4.584957e+01
   1.262104e+02   3.539919e+02
  -1.607215e+02   1.946458e+02
  -2.126480e+02  -3.424570e+02
   1.144177e+02  -4.049542e+02
   4.863361e+02  -9.272440e+01
   4.460143e+02   3.421889e+02
   1.993268e+02   4.394352e+02
  -2.480420e+02   3.028191e+02
  -5.013028e+02  -7.289334e+01
  -3.162429e+02  -2.718924e+02
   5.236262e+01  -2.484687e+02
   3.389593e+02  -7.722216e+01
   1.919999e+02   1.710345e+01
   1.693709e-01   1.422501e+01
  -1.328053e+02  -2.631152e+01
   1.725260e+02  -8.597758e+01
   2.787244e+02   1.693613e+01
   1.147816e+02   2.389306e+02
  -1.268120e+02   2.415400e+02
  -2.801524e+02   6.447777e+01
  -2.310813e+02  -8.981388e+01
   2.628132e+01  -2.636101e+02
   2.347958e+02  -3.137258e+02
   3.573016e+02  -1.496961e+02
   1.982619e+02   1.451935e+02
   5.155916e+01   3.887823e+02
  -2.955587e+01   2.927765e+02
  -6.830687e+01   1.439763e+02
  -6.012169e+01   8.626956e+01
  -1.982718e+02   1.154190e+02
  -2.131950e+02   3.140493e+01
  -2.226828e+02  -1.043732e+02
  -1.451468e+02  -2.100549e+02
   8.155185e+01  -2.008706e+02
   2.025959e+02   5.646577e+01
   1.850597e+02   1.958284e+02
  -2.956098e+01   2.582561e+02
  -1.961835e+02   4.282474e+01
  -3.216102e+02  -1.684365e+02
  -1.729084e+02  -2.629799e+02
   7.574995e+01  -2.636710e+02
   2.117811e+02  -1.318367e+02
   1.058791e+02  -6.643223e+01
   1.669290e+02  -3.336049e+01
   2.826276e+02  -6.970725e+01
   4.120981e+02   5.771443e+01
   3.368592e+02   2.609901e+02
  -1.837609e+01   4.104322e+02
  -3.360093e+02   3.406133e+02
  -5.323294e+02   1.517808e+02
  -2.503770e+02  -9.371151e+01
  -4.225930e+01  -2.434243e+02
   9.935727e+01  -1.974975e+02
   2.730132e+01  -4.494864e+01
  -1.140865e+02   1.773975e+00
  -1.651940e+02  -1.897485e+01
  -5.915421e+01  -1.132595e+02
   1.047900e+02  -1.294981e+02
   1.103347e+02   5.977168e+01
  -4.582466e+01   1.813837e+02
  -1.769317e+02  -2.791265e+01
  -1.525467e+02  -2.452368e+02
   2.136372e+01  -3.386470e+02
   2.125492e+02  -2.120845e+02
   2.934324e+02   1.026050e+02
   3.015687e+02   2.677401e+02
   5.331163e+01   2.369868e+02
  -9.560195e+01   1.561828e+02
  -1.030475e+02  -1.033795e+01
  -8.127210e+01  -5.215524e+00
   4.604760e+01   6.953159e+01
   2.421346e+01   1.208754e+02
  -1.391750e+02   5.403292e+01
  -1.470979e+02   4.968377e+01
  -1.895921e+01  -1.176840e+02
   8.803971e+01  -1.042296e+00
   2.483787e+01   1.021175e+02
  -1.483663e+02   9.465546e+01
  -2.555739e+02  -5.787766e+01
  -2.285003e+02  -1.721407e+02
  -1.303397e+01  -2.673186e+02
   2.109182e+02  -2.057788e+02
   2.646068e+02  -7.501919e+01
   1.011150e+02   2.239814e+01
  -2.298296e+01   1.059426e+02
  -6.138312e+01  -2.459484e+01
   5.322883e+01  -8.373563e+01
   1.921174e+02  -6.552836e+01
   1.760071e+02   6.253858e+01
   3.561678e+01   1.976787e+02
  -3.667947e+01   1.732834e+02
  -1.476585e+02   2.490511e+00
  -7.473739e+01   1.230941e+01
  -2.513675e+01  -6.058269e+00
   4.318335e+01   8.414639e+01
  -1.091211e+02   1.084219e+02
  -2.448814e+02  -1.462856e+01
  -1.668927e+02  -1.057556e+02
   3.979147e+01  -1.593305e+02
   1.265399e+02  -1.973107e+02
   1.432011e+02  -1.619664e+01
  -1.118209e+01   1.007409e+02
  -1.110302e+02   8.362539e+01
  -8.403298e+01   9.216877e+00
  -1.130415e+01  -2.295628e+01
  -4.162496e+01   2.121290e+01
   1.891814e+01   9.693730e+00
  -6.299599e+01  -3.537140e+01
  -9.606135e+01  -1.108037e+02
   5.326013e+01  -1.331308e+02
   8.280845e+01  -1.441102e+02
   2.729186e+02  -3.859988e+01
   1.689468e+02   2.242618e+02
   1.038905e+01   2.308508e+02
  -1.450135e+02   1.571538e+02
  -5.501274e+01   1.641996e+01
  -2.768547e+01  -6.018701e+01
  -1.043548e+02  -5.647436e+01
  -1.906701e+01  -4.827782e+01
  -9.887515e+01   8.905626e+00
  -5.543805e+01  -5.221650e+01
  -7.846380e+00  -1.008246e+02
   1.193855e+02  -6.934613e+01
   1.671596e+02   3.179144e+01
   6.295193e+00   7.739352e+01
  -1.549282e+02   9.095944e+01
  -1.463324e+02  -5.927471e+01
  -5.959552e+01  -2.088455e+02
   1.346390e+02  -1.985051e+02
   2.450422e+02  -9.252936e+01
   2.505899e+02   3.516912e+01
   1.182774e+02   2.250035e+02
  -2.141788e+01   1.770012e+02
  -7.823534e+01   5.211537e+01
  -6.741103e+01   3.527097e+00
   2.582421e+00   8.623987e+01
  -8.991398e+01   1.220385e+02
  -6.751934e+01  -2.800939e+01
  -1.306985e+02  -1.987905e+02
   3.586796e+00  -1.666679e+02
   5.023076e+01  -1.235788e+02
   1.528359e+02   1.399151e+01
   1.100913e+02   1.517085e+02
  -4.625539e+00   1.122979e+02
  -8.830699e+01   7.573150e+01
  -7.245790e+01  -7.355909e+00
   5.204812e+00  -7.404958e+01
  -1.005297e+01  -1.777877e+01
  -3.057556e+01  -4.932285e+01
  -6.071731e+01  -6.697850e+00
  -4.140459e+01  -1.013183e+01
   8.887616e+01  -2.651943e+01
   1.963830e+02  -2.367226e+01
   9.101668e+01   3.911665e+01
   1.048642e+01   1.143154e+02
  -1.224603e+02   5.395659e+01
  -1.528884e+02   6.903677e-01
  -4.350695e+01  -6.000090e+01
   8.873500e+01  -3.614601e+01
   6.909592e+01   2.886850e+01
  -5.684822e+00   1.204877e+02
  -5.748488e+01   4.092053e+01
  -7.240192e+01   4.101580e+01
  -7.126408e+01  -7.131700e+01
  -1.858224e+01  -2.315895e+01
  -8.868259e+01   3.690626e+00
  -1.004675e+02   2.745702e+01
  -1.673675e+01  -1.382259e+02
   4.233718e+01  -1.257789e+02
   9.940570e+01  -1.200844e+02
   1.626743e+02  -3.920451e+01
   1.918450e+02   8.859194e+01
   2.397008e+01   1.574503e+02
  -1.500846e+02   9.490649e+01
  -6.830337e+01  -7.760920e+01
   4.284128e+01   2.076335e+01
   1.053969e+02   7.894462e+01
   7.085403e+01   1.391125e+02
  -9.730129e+01   8.357461e+01
  -1.477696e+02   7.522404e+00
  -1.730622e+02  -1.004355e+00
  -3.530014e+01  -3.966851e+01
   5.412496e+01  -1.385679e+02
   3.950921e+01   1.787883e+01
  -6.504331e+01   4.802910e+01
  -8.218183e+01  -5.975047e+00
  -3.072851e+01  -1.026098e+02
   2.858707e+01  -1.602704e+02
   1.590237e+02  -7.232181e+01
   1.031795e+02   9.945035e+01
   5.997611e+01   1.285879e+02
  -4.039341e+01   1.487012e+02
  -8.369043e+01  -5.638963e-01
  -5.641611e+01  -1.027944e+02
  -4.054625e+01  -1.078961e+02
  -7.800365e+00  -1.073663e+00
   4.364634e+01  -2.795474e+01
  -9.139924e+00   6.540979e+01
   2.995041e+01  -6.247681e+01
   1.924293e+01  -5.327726e+00
   5.270501e+01   5.943598e+01
   4.497192e+01   9.596967e+01
  -4.903942e+01   4.256785e+01
  -1.027138e+02   9.252925e+00
  -1.137525e+02  -3.642722e+01
  -3.736143e+01  -2.738929e+01
   1.029889e+02  -1.606537e+01
   1.440439e+02  -1.282814e+01
  -3.914004e+01   1.756950e+01
  -3.057820e+01   4.516130e+01
  -1.319090e+01  -1.374346e+01
   3.890732e+01  -8.363473e+00
   1.707342e+01  -2.211298e+01
  -7.426140e+01   3.009814e+01
  -3.687974e+01  -7.110559e+01
  -3.888294e+01  -4.715260e+01
   6.492972e+01  -1.332409e+02
   2.054985e+02  -2.017377e+01
   1.716188e+02   8.726333e+01
   5.610079e+01   1.553894e+02
  -8.007959e+01   1.242184e+02
  -1.364435e+02   4.826614e+01
  -9.223849e+01  -2.912434e+01
  -4.954786e+01  -4.964895e+00
   4.835414e+00  -4.917876e+00
  -6.684447e+01  -5.435500e+01
  -5.814322e+00  -4.101011e+01
  -3.572741e+01  -3.812665e+01
   3.114664e+01  -4.466269e+01
   8.973981e+01   3.435804e+01
   8.868901e+00   5.065362e+01
  -9.624062e+00   1.064910e+02
  -9.335100e+01  -1.337607e+01
  -1.438059e+02  -3.926990e+01
  -6.470973e+01  -6.837837e+01
   8.161512e+01  -9.768733e+01
   1.402480e+02  -9.361955e+00
   5.927373e+01   1.170087e+02
  -1.962728e+01   4.878289e+01
  -7.504918e+01   6.534826e+01
   1.322237e+01  -2.082140e+01
   1.033167e+02   2.310396e+01
   3.157860e+01   1.742103e+01
  -2.747761e+01   8.155774e+01
  -1.248821e+02   6.941705e+01
  -6.451008e+01  -8.304163e+01
   9.924025e+00  -9.326655e+01
   2.589160e+01  -5.027871e+01
   4.045454e+01  -8.923789e-01
  -4.518986e+00   4.904596e+01
  -1.622824e+01   6.754383e+01
  -1.221337e+01  -8.811543e+01
  -3.336973e+01  -2.561307e+01
   3.922124e+01   2.246388e+01
   6.139771e+01  -3.319895e+01
   4.482614e+01  -8.901246e+00
   6.583539e+01  -1.706053e+01
  -2.792036e+01   2.477284e+01
   3.349732e+01  -3.294288e+01
   2.003293e+01   1.372455e+01
   3.419313e+01   4.850479e+01
  -2.316505e+01   6.378869e+01
  -3.185300e+01  -8.122306e+01
  -4.088587e+01  -7.633624e+01
   9.499017e+00  -7.178023e+00
   9.488070e+01   6.769465e+01
  -5.003333e+00   5.214381e+01
  -6.023207e+01   7.027673e+00
  -1.117478e+02  -2.741617e+01
  -5.740059e+01  -6.988299e+01
   8.752924e+00  -3.896112e+01
   8.807947e+00  -2.436745e+01
   5.514109e+00   1.211590e+01
  -1.101876e+01   1.779818e+00
  -1.518361e+01  -9.628171e+00
  -1.179921e+01  -3.200624e+01
   7.157664e+01  -7.907529e+00
