
 $NMID
 id='ANONYMOUS ', fmtdat='(2E16.6)'
 volume=1.0
 tramp=1.0
 $END
  -3.236839e+03   7.599202e+01
  -2.107189e+03  -1.751393e+03
   1.363950e+02  -2.077463e+03
   1.311691e+03  -1.071530e+03
   8.785961e+02   1.879986e+01
  -9.458872e+01   3.200986e+02
  -4.416057e+02  -1.917481e+02
  -2.015201e+01  -6.481205e+02
   4.734964e+02  -5.534362e+02
   7.322905e+02  -5.755064e+01
   3.542224e+02   5.855949e+02
  -5.063275e+01   6.767517e+02
  -3.879606e+02   1.302370e+02
  -2.188357e+02  -4.658604e+02
   1.201614e+02  -5.684205e+02
   3.755750e+02  -5.348194e+01
   2.733638e+02   4.901301e+02
  -1.728780e+02   5.735584e+02
  -4.809590e+02   1.752671e+02
  -4.188721e+02  -1.909124e+02
  -1.384750e+02  -3.409449e+02
   1.218845e+02  -2.058985e+02
   1.011061e+02   1.746287e+01
  -1.090578e+02  -5.035015e+01
  -2.863796e+02  -2.002253e+02
  -5.299102e+01  -3.032032e+02
   4.116463e+02  -2.266976e+02
   5.864153e+02   1.269212e+02
   2.668953e+02   3.624047e+02
  -3.058680e+02   2.269898e+02
  -5.305043e+02  -6.063050e+01
  -1.625242e+02  -3.832036e+02
   1.988080e+02  -4.047902e+02
   4.482461e+02  -1.199632e+02
   3.215257e+02   2.047988e+02
   7.039214e+01   3.482278e+02
  -3.431821e+01   2.004987e+02
  -2.048416e+01  -5.393451e+01
   1.510215e+02  -2.191943e+02
   1.858818e+02   1.206706e+02
   1.042274e+02   4.819631e+02
  -2.549814e+02   4.661867e+02
  -3.888604e+02  -1.863181e+01
  -1.728283e+02  -3.340330e+02
   1.767361e+02  -2.133483e+02
   1.900628e+02   2.400450e+02
  -8.191802e+01   4.084568e+02
  -4.467598e+02   1.236582e+02
  -5.096423e+02  -3.687902e+02
  -1.655269e+02  -4.691419e+02
   2.754970e+02  -2.828724e+02
   4.557762e+02   7.848189e+01
   3.246084e+02   2.452858e+02
  -2.472855e+01   2.161463e+02
  -3.086952e+02   8.861867e+01
  -1.858808e+02  -3.640325e+01
   2.995650e+01  -3.053394e+01
   5.440189e+00   5.534089e+01
  -7.540886e+01   1.041957e+02
  -2.235927e+02  -4.455869e+01
  -1.104887e+02  -1.887485e+02
   5.741833e+01  -2.285606e+02
   2.808493e+02  -1.131085e+02
   2.100075e+02   9.447265e+01
  -3.420327e+01   2.750750e+02
  -2.449363e+02   3.517874e+02
  -3.433171e+02   1.629030e+02
  -2.636736e+02  -1.087578e+02
  -3.069205e-01  -3.743323e+02
   5.637044e+01  -2.527166e+02
   6.621626e+01  -1.729930e+02
   4.932597e+01  -3.843351e+01
   1.282312e+02  -8.482944e+01
   2.894178e+02  -6.601352e+01
   1.754150e+02   8.877769e+01
   4.608724e+01   2.588929e+02
  -1.073619e+02   1.851470e+02
  -1.744564e+02  -3.698633e+01
  -1.376537e+02  -2.541166e+02
  -3.985621e+00  -2.509696e+02
   2.327739e+02  -8.359061e+01
   2.506852e+02   1.018501e+02
   1.222972e+02   2.483423e+02
  -3.828906e+01   2.831699e+02
  -1.409989e+02   1.026995e+02
  -1.667157e+02   1.409620e+02
  -1.193908e+02   7.673706e+01
  -2.223331e+02   6.103404e+01
  -3.441430e+02  -6.279462e+01
  -2.684919e+02  -2.123366e+02
  -4.129192e+01  -3.864825e+02
   2.826896e+02  -3.698791e+02
   4.380278e+02  -1.011359e+02
   2.363761e+02   1.051401e+02
   1.814203e+01   2.467318e+02
  -9.110202e+01   1.642609e+02
   6.362589e-01   6.199858e+01
   1.404078e+02  -2.028899e+01
   1.484843e+02   1.331532e+01
  -3.951885e+00   1.591945e+02
  -8.987779e+01   1.396313e+02
  -1.680006e+02  -7.838528e+01
   1.209993e+01  -9.659006e+01
   1.857347e+02   1.713455e+00
   8.913246e+01   2.689132e+02
   4.409948e-01   3.068684e+02
  -2.370915e+02   1.644911e+02
  -3.361670e+02  -2.329531e+01
  -2.562848e+02  -2.500980e+02
  -6.535562e+01  -2.576339e+02
   1.216249e+02  -7.118609e+01
   1.879179e+02  -3.778847e+01
   4.955103e+01  -1.383181e+00
  -5.387229e+01  -5.093820e+01
  -5.475620e+01  -5.940097e+01
   7.453147e+01  -8.385937e+01
   1.463136e+02   9.715878e+00
   3.152700e+01   1.743169e+01
  -8.297098e+01   2.311064e+01
  -2.178134e+01  -1.153914e+02
   1.307728e+02  -7.462159e+01
   3.065480e+02   2.013991e+01
   1.790989e+02   1.556891e+02
   6.209519e+00   2.082246e+02
  -2.254583e+02   1.834867e+02
  -2.668025e+02   8.777468e+01
  -1.044848e+02  -7.119024e+01
   2.410774e+01  -3.861034e+01
   5.674030e+01   3.404024e+01
  -1.118379e+02   9.429542e+01
  -2.243888e+02  -2.197679e+01
  -2.022977e+02  -1.246906e+02
  -9.733048e+01  -1.666324e+02
   5.573484e+01  -1.211583e+02
   1.292766e+02  -3.625183e+01
  -4.407162e+00   7.848697e+00
  -3.347340e+01  -2.400012e+01
  -2.337995e-01  -9.071072e+01
   1.166593e+02  -7.314833e+01
   2.180309e+02  -7.056057e+00
   1.408644e+02   1.266708e+02
  -4.019759e+01   1.836567e+02
  -1.482666e+02   1.390022e+02
  -1.045086e+02  -1.266184e+01
  -1.500234e+01  -5.439538e+01
   4.967495e+01  -4.280092e+01
   4.376807e+01  -5.805739e+01
  -3.386748e+01   2.798752e+01
  -4.222007e+01   2.132013e+01
   1.094842e+01  -3.218984e+01
   9.643706e+01   2.357241e+01
   8.742830e+01   1.305839e+02
   1.220677e+01   1.626181e+02
  -1.273943e+02   1.608994e+02
  -2.757707e+02   1.400816e+01
  -1.547492e+02  -1.930841e+02
  -4.146554e+01  -2.155360e+02
   8.151943e+01  -1.428139e+02
   9.825644e+01  -7.423621e+01
   4.170189e+01   7.337381e+01
   6.030761e+01   2.824986e+01
   3.020595e+01  -8.206211e+01
   8.391175e+01   4.351775e+01
  -1.675350e+01   3.155738e+01
  -9.524983e+01   7.534594e+01
  -1.392249e+02   1.379850e+00
  -7.833512e+01  -4.817521e+01
  -2.545043e+00  -1.150480e+02
   1.512847e+02  -1.127687e+02
   1.448070e+02   5.427341e+01
   7.415120e+01   2.196838e+02
  -1.599195e+02   2.501462e+02
  -2.355569e+02   3.146364e+01
  -2.489117e+02  -5.328697e+01
  -8.740680e+01  -1.418186e+02
   2.424204e+01  -1.377199e+02
   1.056222e+02  -7.721245e+01
   7.359395e+01  -1.204738e+02
   3.313092e+01  -1.292244e+02
   3.896894e+01  -4.283335e+01
   1.228519e+02   3.483182e+01
   1.039386e+02   1.598026e+02
   2.339661e+01   2.084984e+02
  -1.447375e+02   1.179162e+02
  -1.443183e+02  -4.430201e+00
  -1.571403e+02  -1.462259e+02
  -4.027541e+01  -6.180359e+01
   1.084574e+02  -1.082242e+02
   4.381061e+01   1.773223e+01
   1.452928e+01   6.655167e+01
  -1.259803e+01   5.078957e+01
   8.527758e+01   2.851284e+01
   5.674697e+01  -2.828786e+01
   3.135122e+01   4.318136e+01
  -1.256357e+02   7.930074e+01
  -1.687686e+02  -3.159523e+01
  -1.134360e+02  -2.505278e+01
  -9.377054e+00  -1.267180e+02
   1.218386e+02  -7.902009e+01
   1.112223e+02   3.329466e+01
   4.854798e+01   2.562989e+01
  -3.470752e+01   1.008387e+01
  -6.126679e+01  -3.181053e+01
  -4.978537e+01  -7.839895e+01
   2.288846e+01  -7.992143e+01
   9.831435e+01  -1.414534e+01
   2.518381e+01   6.261974e+01
   8.451008e+01   1.641898e+01
  -2.428837e+01   3.378185e+01
   1.021584e+02   5.682195e+00
   4.217549e+01   5.943890e+01
  -4.145569e+01   1.712136e+02
  -9.221135e+01   1.234007e+02
  -1.487168e+02   5.887337e+00
  -1.682073e+02  -9.617267e+01
  -2.332223e+01  -5.504207e+01
   7.257163e+01  -1.173852e+02
   8.242132e+01   5.709510e+01
  -4.637899e+01   3.599062e+01
  -9.575863e+01  -2.788022e+01
  -7.437054e+01  -9.957235e+01
   5.095855e+01  -1.128742e+02
   1.721248e+02  -4.450276e+01
   1.090673e+02   4.534353e+01
   6.217667e+01   1.026930e+02
  -3.738768e+01   2.582188e+01
  -6.808905e+01  -1.223086e+01
   4.448263e+01   1.563943e+01
   8.118872e+01   9.778937e+00
   3.960763e+01   9.458193e+01
  -8.394990e+01   2.142178e+02
  -1.231443e+02  -8.862567e+00
  -1.120318e+02  -8.234359e+01
   3.993034e+01  -1.083918e+02
   7.380662e+01  -9.395761e+01
   9.462229e+01   2.284121e+01
  -1.096424e+01   1.140931e+02
  -8.608528e+00   1.607131e+02
  -6.570960e+01  -1.393021e+01
  -2.376301e+01  -9.019824e+00
  -6.222128e+01  -5.337951e+00
   2.103857e+01   2.590020e+01
  -9.414471e+01  -4.407609e+01
  -6.792313e+01  -1.112377e+02
  -8.601178e+00  -7.783963e+01
  -7.414366e+00  -4.516705e+01
   1.208019e+02   4.691585e+01
   9.924510e+01   1.085078e+02
   1.120790e+01   6.528821e+01
  -7.300078e+00   1.725246e+01
  -6.238434e+01   2.710509e+01
   4.324717e+01  -1.309138e+01
   1.670781e+01  -2.819935e+01
   3.353871e+01  -4.003487e+01
   2.980986e+01   1.861573e+01
   9.667347e+00   1.163233e+01
   5.735935e+01  -1.596198e+01
   8.533609e+01   5.407628e+01
   4.250271e+01   6.921998e+01
  -8.961908e+01   4.682373e+01
  -1.387722e+02   7.028481e+01
  -1.347390e+02  -5.446402e+01
  -7.885838e+01  -1.373732e+02
   8.259163e+01  -1.526861e+02
   1.129943e+02  -8.602417e+01
   8.578345e+01  -2.084396e+01
   2.680605e+01   6.055756e+01
  -3.308167e+01   6.921490e+00
  -2.887110e+01  -7.471816e-01
   4.110664e+01   4.799058e+01
   2.196938e+01   8.586125e+01
  -3.608104e+01   6.582299e+01
  -7.630307e+01   3.772994e+01
  -7.097181e+01  -8.627750e+01
  -3.886543e+01  -8.264910e+01
   5.201004e+01  -9.481369e+01
   4.028172e+01   7.264476e+01
   3.114365e+01   1.266739e+02
  -2.754678e+01   1.215400e+01
  -1.307772e+02  -3.681241e+00
  -4.293079e+01  -2.410935e+01
   1.068559e+01  -5.970278e+01
   4.355693e+01  -1.433567e+01
  -7.480497e+01   3.729740e+01
  -8.272358e+01  -6.322202e+00
  -2.874200e+01   2.677827e+01
   1.168743e+02  -6.684842e+01
   1.566810e+02  -8.217657e+01
   3.860917e+01   1.463134e+01
  -5.683739e+01   5.404366e+01
  -7.639353e+00   2.175044e+01
  -3.782127e+01  -1.986966e+01
   2.462694e+00  -7.415445e+01
  -1.882872e+01  -7.522026e+01
   4.039234e+01  -1.615148e+00
   1.632416e+01   5.601807e+01
   2.945582e+00   2.877358e+01
  -2.900283e+01  -5.183330e+01
  -5.797540e+01  -5.840559e+01
  -4.936851e+01  -5.775812e+01
   4.865345e+00   1.652084e+01
  -3.871219e+00  -8.231254e+00
   1.990509e+01  -3.782377e+01
  -2.865177e+01  -1.737073e+01
   2.283476e+01  -4.979162e+01
  -1.516727e+00   6.768414e+00
   4.669220e+01   3.995227e+01
   1.122848e+00   1.145408e+01
  -5.864090e+01  -6.237416e+01
  -1.846119e+01  -7.596009e+01
   2.090786e+01   1.078297e+01
   8.720430e+01   3.251243e+01
   3.906853e+01  -1.581841e+01
  -1.275164e+01   7.637984e+01
  -8.663165e+00   9.514629e-01
  -1.075080e+01  -4.355501e+00
  -9.135246e-01   2.656328e+01
  -1.532092e+01   1.003855e+01
   1.269249e+01   4.755284e+01
  -9.787146e+01   6.768217e+00
