
 $NMID
 id='ANONYMOUS ', fmtdat='(2E16.6)'
 volume=1.0
 tramp=1.0
 $END
  -3.310149e+03  -6.592415e+01
  -2.057741e+03  -1.770358e+03
   1.704513e+02  -2.051085e+03
   1.328613e+03  -1.054536e+03
   8.562929e+02  -4.678976e+01
  -8.445489e+01   2.930349e+02
  -4.559968e+02  -1.762637e+02
  -2.916470e+01  -6.742660e+02
   5.477472e+02  -5.492031e+02
   6.408318e+02  -2.180536e+01
   4.312138e+02   5.719194e+02
  -3.862456e+01   6.670181e+02
  -3.521202e+02   1.777862e+02
  -2.658797e+02  -4.518864e+02
   1.066204e+02  -5.246759e+02
   4.223179e+02  -5.364463e+01
   2.536284e+02   4.957201e+02
  -1.860161e+02   6.119137e+02
  -5.064802e+02   2.597530e+02
  -3.954695e+02  -2.248930e+02
  -1.053318e+02  -3.518927e+02
   1.927939e+02  -2.302044e+02
   9.907546e+01  -6.201941e+01
  -1.237472e+02  -3.316936e+01
  -2.637873e+02  -2.295864e+02
   4.168485e+01  -3.714937e+02
   4.586486e+02  -1.805150e+02
   6.229409e+02   1.891151e+02
   2.271706e+02   3.432838e+02
  -3.216301e+02   2.246091e+02
  -4.976576e+02  -8.389580e+01
  -2.500386e+02  -3.682605e+02
   2.767728e+02  -3.403395e+02
   3.839641e+02  -8.361746e+01
   3.205324e+02   1.295894e+02
   6.319077e+01   3.020934e+02
  -4.390121e+01   1.541303e+02
  -7.634052e+00  -8.106632e+01
   2.049645e+02  -1.577460e+02
   1.893026e+02   1.317774e+02
   2.752698e+01   5.069844e+02
  -2.335164e+02   4.436787e+02
  -3.048450e+02  -5.816304e+01
  -1.531200e+02  -3.528316e+02
   1.808365e+02  -1.524973e+02
   1.909987e+02   2.511309e+02
  -9.099287e+01   3.745331e+02
  -4.809749e+02   1.163207e+01
  -5.144276e+02  -3.426646e+02
  -1.677269e+02  -4.621406e+02
   2.905136e+02  -2.402116e+02
   5.636231e+02   6.739041e+01
   3.037927e+02   2.442138e+02
  -4.181662e+01   2.194644e+02
  -2.806635e+02   5.317930e+01
  -2.474672e+02  -3.908308e+01
   3.704959e+00  -3.501540e+01
   1.392369e+01   1.077568e+02
  -1.006429e+02   1.795521e+01
  -2.370073e+02  -8.337794e+01
  -1.812221e+02  -2.045547e+02
   1.397580e+02  -2.687393e+02
   3.322670e+02  -1.435934e+02
   2.553525e+02   8.616854e+01
  -2.755045e+01   2.342891e+02
  -2.909150e+02   2.895368e+02
  -3.410092e+02   1.300330e+02
  -2.184805e+02  -1.588414e+02
  -1.746148e+01  -3.657796e+02
   6.172455e+01  -3.294119e+02
   6.763026e+00  -1.736799e+02
   5.510145e+01  -8.241747e+01
   1.230075e+02  -1.189725e+02
   2.757012e+02  -3.336492e+01
   2.440413e+02   8.710687e+01
   1.544953e+02   2.394452e+02
  -9.967300e+01   1.875586e+02
  -1.770069e+02  -5.463082e+01
  -1.058170e+02  -2.268765e+02
   8.260422e+01  -3.219673e+02
   2.793631e+02  -5.772095e+01
   2.903118e+02   1.508026e+02
   1.866775e+02   2.765586e+02
  -6.993785e+01   2.190055e+02
  -1.776132e+02   1.860042e+02
  -1.156618e+02   4.766132e+01
  -1.689112e+02   8.194481e+01
  -2.429762e+02   5.954377e+01
  -3.469762e+02  -7.861363e+01
  -3.320096e+02  -3.086564e+02
   7.085395e+01  -4.323634e+02
   3.936120e+02  -3.460392e+02
   4.124163e+02  -1.234286e+02
   3.085508e+02   1.250363e+02
  -2.080387e+01   2.634413e+02
  -1.375779e+02   1.322561e+02
  -5.250645e+01  -2.296173e+00
   1.118977e+02  -5.512620e+01
   1.293325e+02   1.136922e+02
   1.461173e+01   1.656014e+02
  -1.012780e+02   1.135120e+02
  -1.364068e+02  -7.792066e+01
   1.509510e+01  -1.915532e+02
   1.983902e+02  -2.806222e+01
   1.124154e+02   2.478929e+02
  -3.206731e+01   2.824627e+02
  -2.928851e+02   2.175940e+02
  -3.346511e+02  -7.284530e+01
  -2.785754e+02  -1.920217e+02
   2.323502e+00  -2.767237e+02
   9.469554e+01  -1.478485e+02
   9.188009e+01  -2.113470e+01
   2.274137e+01  -3.310692e+01
  -1.069543e+02  -3.348619e+01
   5.558142e+01  -1.349572e+02
   1.075984e+02  -4.500079e+01
   1.600891e+02   3.684540e+01
  -1.810095e+01   5.236696e+01
  -4.864390e+01   8.493347e+00
  -4.034188e+01  -1.379617e+02
   8.861164e+01  -1.014098e+02
   3.110531e+02   1.162394e+01
   2.632898e+02   1.706601e+02
   7.612423e-01   2.718558e+02
  -2.411232e+02   2.166945e+02
  -2.288705e+02   3.627782e+01
  -1.340298e+02  -3.339501e+00
   2.202509e+01  -8.520571e+01
   1.018140e+02  -2.041920e+00
  -4.641794e+01   7.531318e+01
  -1.739105e+02   4.337942e+01
  -1.787895e+02  -8.259091e+01
   1.017242e+01  -2.220074e+02
   1.254133e+02  -1.187342e+02
   9.829936e+01  -2.078997e+00
   1.007795e+01   4.265682e+01
  -3.624476e+00  -6.377221e+00
  -2.405628e+01  -4.126653e+01
   7.461990e+01  -1.451598e+02
   2.120229e+02   4.278795e+01
   1.643398e+02   1.783540e+02
   3.182668e+01   1.850131e+02
  -1.485461e+02   1.237482e+02
  -1.105855e+02   9.291176e+00
  -4.949113e+01  -9.366601e+01
   1.008384e+02  -1.195392e+02
   7.497810e+01  -8.252420e+00
  -3.916068e+01   3.066209e+01
   1.704545e+01   9.600958e+00
   4.413824e+01  -6.294579e+01
   1.096681e+02  -4.096980e+01
   9.609887e+01   9.933822e+01
   9.782290e+00   1.519248e+02
  -1.018488e+02   1.527980e+02
  -1.860104e+02   3.500532e+00
  -1.850533e+02  -1.396104e+02
  -3.363982e+01  -2.446172e+02
   1.106433e+02  -1.267752e+02
   1.332100e+02  -1.083045e+01
   1.102848e+02   6.166576e+01
   3.879437e+01  -4.312631e+01
   8.824368e+01  -3.036830e+01
   9.702575e+01   6.628366e+00
   5.502744e+01   2.897820e+01
  -4.539126e+01   1.140717e+02
  -6.253274e+01   7.918685e+01
  -7.769322e+01  -9.046134e+01
   4.122045e+01  -3.758974e+01
   1.832184e+02  -5.982444e+01
   2.086984e+02   7.610566e+01
   7.474541e+01   1.914882e+02
  -1.732483e+02   2.475787e+02
  -2.943538e+02   6.815372e+01
  -1.935192e+02  -8.464289e+01
  -9.082318e+01  -2.107507e+02
   5.106135e+01  -1.461764e+02
   8.780929e+01  -8.721032e+01
   1.949142e+02  -1.267870e+02
   6.949294e+01  -9.855098e+01
   1.054077e+02  -1.021968e+02
   1.381238e+02   5.040689e+01
   1.095015e+02   1.449252e+02
   3.558159e+01   2.339109e+02
  -1.014808e+02   1.460275e+02
  -2.109330e+02   1.166595e+01
  -7.697488e+01  -1.162602e+02
  -3.005531e+01  -1.006424e+02
   5.623940e+01  -6.677855e+01
   6.791838e+01  -1.384831e+01
   3.832718e+01   2.378812e+01
  -4.866610e+01   5.529031e+01
  -3.217879e+01   9.316411e+00
   3.748106e+01   2.646004e+01
   6.271952e+01   2.424372e+01
  -4.961059e+01   1.561552e+01
  -1.279822e+02   5.083619e+01
  -1.608411e+02  -8.051630e+01
  -7.765119e+01  -5.243305e+01
   9.464903e+01  -2.816737e+01
   1.384878e+02  -5.098755e+01
   6.658117e+01  -2.423573e+00
  -5.367919e+01   4.721612e+01
  -5.063898e+01  -1.385367e+01
  -6.869945e+01  -3.942420e+01
   3.046514e+01  -5.535724e+01
   8.777158e+01   3.017438e+01
   6.594385e+01   6.392760e+01
   6.857360e+01   2.293278e+01
   5.854178e+01  -1.801680e+01
   7.729092e+01  -2.280420e+01
   2.367655e+01   7.701557e+01
  -8.113389e+01   1.668971e+02
  -1.137475e+02   1.390227e+02
  -2.410458e+02   2.555604e+01
  -9.836697e+01  -1.245761e+02
   1.596402e+01  -1.378678e+02
   7.286837e+01  -1.100931e+02
   3.761466e+01   6.000408e+01
  -5.616900e+01  -2.786603e+01
  -1.324843e+02  -2.059485e+01
  -8.748414e+01  -1.172298e+02
   1.059103e+02  -1.103418e+02
   1.632690e+02  -5.624581e+01
   1.125397e+02   4.845982e+01
   6.011807e+01   9.776840e+01
  -5.282514e+01   7.071419e+01
  -5.296891e+01  -3.627770e+01
   5.610274e+01  -2.190231e+01
   1.140886e+02  -1.405172e+01
   4.773425e+01   8.424905e+01
  -6.081279e+01   1.432814e+02
  -1.340047e+02   8.414685e+01
  -1.548531e+02  -9.474843e+01
  -7.035765e+01  -1.983627e+02
   9.608311e+01  -1.562460e+02
   5.821602e+01   1.334405e+01
   3.382697e+01   1.512347e+02
  -1.047290e+01   1.591400e+02
  -2.308806e+01   1.764951e+01
   1.472495e+01  -9.051234e+01
   8.640257e+00   1.629649e+01
  -1.751247e+00   7.210838e+01
  -2.156239e+01  -3.617694e+01
  -3.450584e+01  -1.608301e+02
  -2.190809e+01  -5.995159e+01
   1.907559e+01  -4.424735e+01
   1.644685e+02   3.066247e+01
   1.165392e+02   9.961529e+01
   3.911009e+01   8.111556e+01
  -9.475081e+01  -3.172214e+01
  -5.824912e+01   7.985431e+01
   4.189610e+01   3.522373e+01
  -3.184908e+01  -2.747038e+01
  -6.517852e+00  -3.503556e+01
  -1.771486e+01  -1.159030e+01
   2.698391e+00  -4.338287e+00
   3.041175e+01   1.043963e+01
   6.977198e+01  -2.213221e+01
   3.571255e+01   8.328388e+01
  -1.341763e+02   8.237629e+01
  -1.554143e+02   5.740849e+01
  -1.387780e+02  -2.434876e+01
  -6.151639e+01  -1.806760e+02
   9.701753e+01  -1.820707e+02
   7.654157e+01  -9.717356e+01
   8.569118e+01   1.569931e+01
   1.335485e+01   5.334472e+01
   3.237248e+01  -5.470733e+00
   3.718064e+01   2.454526e+01
  -1.708288e+01  -2.212572e+01
   5.089816e+01   4.318225e+01
  -2.046933e+01   7.585138e+01
  -3.367760e+01  -5.879452e+00
  -6.271685e+01  -1.156456e+02
  -1.080120e+01  -6.213159e+01
   4.851802e+01  -3.141462e+01
   6.391863e+01   6.470991e+01
   3.006953e+01   1.057059e+02
  -6.111221e+01   2.910040e+01
  -6.836512e+01   2.676275e+01
  -9.065748e+00  -2.988034e+01
   6.100391e+00  -1.044970e+02
   1.524187e+01  -4.846469e+01
  -4.818215e+01  -1.701269e+01
  -3.534259e+01   3.075281e+00
   6.645864e+00   6.014114e+00
   5.352246e+01  -6.009895e+01
   1.373704e+02  -1.745053e+01
   8.586569e+01  -1.234465e+01
   2.571596e+01   6.455336e+01
  -7.441694e+01   1.259098e+02
  -2.192360e+00  -2.099708e+01
  -2.837340e+01  -3.243307e+01
   3.664881e+01  -4.972677e+01
   4.182051e+01   1.812878e+01
   4.364217e+01   1.445196e+01
   2.964525e+01   4.447495e+01
  -1.096497e+02   7.076397e-01
  -3.408322e+01  -3.012579e+01
  -1.104517e+02   1.429372e+00
   8.380791e+00   1.450185e+01
   6.457708e+00   7.851589e+01
   1.940432e+01   7.914450e-01
  -1.138365e+01  -5.732948e+01
  -2.010944e+00  -6.808707e+01
   7.179434e+00  -4.209126e+01
   1.838969e+01   3.736678e+01
  -3.454332e+01   4.470443e+01
  -5.906634e+01  -4.676425e+01
  -8.282193e+01  -4.751837e+01
   1.354977e+02  -4.233645e+01
   2.752843e+01  -4.288075e+01
   8.462805e+01   7.172024e+01
  -1.998546e+01   2.715653e+01
   3.962138e+00  -5.465962e+00
  -4.253841e+01  -2.623959e+01
   3.648484e+01   1.484705e+01
   6.745714e+00  -4.468652e+01
  -3.252944e+01  -4.966163e+01
  -7.503627e+01   2.118345e+01
