
 $NMID
 id='ANONYMOUS ', fmtdat='(2E16.6)'
 volume=1.0
 tramp=1.0
 $END
  -3.612441e+03  -3.039324e+01
  -2.150999e+03  -1.965469e+03
   2.860707e+02  -2.210192e+03
   1.455536e+03  -1.040145e+03
   8.583144e+02   1.569505e+02
  -2.639341e+02   3.106086e+02
  -4.791036e+02  -2.363182e+02
   2.754419e+00  -7.006909e+02
   6.263278e+02  -5.805677e+02
   6.837055e+02   6.987255e-01
   3.805451e+02   6.722290e+02
  -9.694875e+01   7.543764e+02
  -4.147627e+02   9.773295e+01
  -2.583309e+02  -5.231818e+02
   1.812738e+02  -6.583009e+02
   4.794153e+02  -4.172232e+01
   3.032504e+02   5.361136e+02
  -1.354701e+02   5.973649e+02
  -4.420149e+02   2.184158e+02
  -4.362169e+02  -2.652579e+02
   2.851479e+01  -3.805152e+02
   1.583270e+02  -2.002572e+02
   5.881420e+01  -8.061536e+01
  -1.416880e+02  -1.348444e+01
  -3.353092e+02  -2.130575e+02
  -3.250525e+01  -3.830715e+02
   4.850336e+02  -2.643016e+02
   7.595107e+02   1.461007e+02
   3.366585e+02   3.848536e+02
  -4.035118e+02   2.742382e+02
  -5.883890e+02  -1.726979e+02
  -1.658636e+02  -4.539273e+02
   2.986619e+02  -4.589273e+02
   5.580403e+02  -1.953169e+02
   3.611831e+02   1.833698e+02
   5.894458e+01   4.673339e+02
  -7.430173e+01   2.083740e+02
  -7.845759e+01  -1.636360e+02
   1.832065e+02  -2.774643e+02
   2.896539e+02   1.606344e+02
   1.146341e+02   5.660517e+02
  -3.073080e+02   5.407346e+02
  -3.952590e+02   5.944803e+00
  -2.128713e+02  -4.125482e+02
   1.927809e+02  -2.184839e+02
   2.945062e+02   3.041931e+02
  -1.176387e+02   4.116826e+02
  -4.864926e+02   8.484344e+01
  -5.532089e+02  -3.630723e+02
  -1.902140e+02  -5.619491e+02
   3.150648e+02  -3.191841e+02
   5.264618e+02   5.710890e+01
   3.122202e+02   2.611396e+02
  -1.082358e+02   1.909753e+02
  -3.043114e+02   1.024294e+02
  -1.990630e+02  -1.089822e+02
   2.032885e+01  -2.752734e+01
   1.304311e+02   9.192835e+01
  -1.321229e+02   1.426872e+02
  -2.045874e+02  -3.881199e+01
  -1.260683e+02  -2.539387e+02
   1.882010e+02  -2.580501e+02
   3.397410e+02  -1.137820e+02
   2.331743e+02   6.018542e+01
  -2.225402e+01   2.889464e+02
  -2.498877e+02   3.777649e+02
  -3.609293e+02   1.665492e+02
  -2.871702e+02  -1.703880e+02
  -7.692078e+01  -3.819922e+02
   3.733062e+01  -3.360953e+02
   7.930218e+01  -1.645368e+02
   3.315374e+01  -4.312955e+01
   1.027972e+02  -1.555031e+02
   1.816118e+02  -1.066290e+02
   2.504322e+02   9.371813e+01
   1.600838e+02   2.762716e+02
  -7.540292e+01   1.797798e+02
  -1.790651e+02  -3.145916e+01
  -1.366923e+02  -2.529347e+02
  -7.355217e-01  -2.533558e+02
   2.578647e+02  -1.244067e+02
   3.235004e+02   1.694226e+02
   1.224513e+02   3.102565e+02
  -4.812722e+01   2.663948e+02
  -1.730275e+02   1.359477e+02
  -1.454449e+02  -2.413618e+01
  -1.180957e+02   5.844189e+01
  -2.682536e+02   5.286001e+01
  -3.782037e+02  -1.072921e+02
  -3.245833e+02  -3.466302e+02
  -3.812717e+01  -3.784245e+02
   3.491358e+02  -4.325835e+02
   4.694991e+02  -2.356544e+02
   3.232477e+02   4.436213e+01
  -2.093370e+01   2.559619e+02
  -1.271455e+02   2.031872e+02
  -5.361102e+01   1.013841e+00
   1.620827e+02  -7.920405e+01
   1.477048e+02   6.733876e+01
  -1.814397e+01   1.753929e+02
  -1.004924e+02   9.260738e+01
  -1.635156e+02  -2.392364e+01
   1.995237e+01  -1.554937e+02
   1.991505e+02  -5.874814e+01
   1.104207e+02   2.404081e+02
  -5.541249e+00   3.154208e+02
  -1.887922e+02   1.524720e+02
  -3.807018e+02  -9.023305e+01
  -2.671230e+02  -2.701751e+02
  -2.154461e+01  -2.333923e+02
   5.445345e+01  -1.480837e+02
   1.406282e+02  -8.479143e+00
   3.486631e+01   5.809026e+00
  -2.619158e+01  -6.749026e+01
  -6.833667e-01  -1.376451e+02
   9.476515e+01  -1.065274e+02
   1.828504e+02   5.012141e+01
   3.139510e+01   1.087633e+02
  -1.146131e+02  -2.722689e+01
  -1.167695e+01  -8.213808e+01
   1.850653e+02  -6.308319e+01
   2.889632e+02   3.647450e+01
   3.260680e+02   1.322006e+02
   2.511727e+01   2.070241e+02
  -2.100078e+02   2.220737e+02
  -2.517024e+02   5.552610e+01
  -1.494603e+02  -3.905017e+01
  -8.112892e+00  -1.374048e+02
   7.065096e+01  -5.118663e+01
  -5.142616e+01   1.078039e+02
  -1.463981e+02   1.221315e+01
  -2.024580e+02  -8.999677e+01
  -6.561020e+01  -1.581438e+02
   1.029331e+02  -1.225272e+02
   1.446755e+02   3.431688e+01
   5.740707e+01   5.896533e+01
   5.780112e+00  -1.833392e+01
  -5.751748e+01  -1.145438e+02
   8.483953e+01  -1.208117e+02
   1.620335e+02  -5.887738e+01
   1.921667e+02   8.258257e+01
  -8.502518e+00   1.714366e+02
  -1.239785e+02   1.603649e+02
  -2.249838e+02  -1.636051e+01
  -8.014144e+01  -7.344429e+01
   4.327212e+01  -9.700476e+01
   9.986186e+01  -3.071838e+01
   8.358410e+01   4.214128e+00
  -6.122978e+01   9.797704e+00
   2.624890e+01   9.185426e+00
   7.669000e+01   1.045920e+01
   5.167621e+01   1.269670e+02
  -1.197895e+01   1.340515e+02
  -2.196858e+02   1.847369e+02
  -2.304583e+02   5.887798e+01
  -2.194700e+02  -1.547473e+02
  -4.285511e+01  -1.845894e+02
   7.325229e+01  -1.870948e+02
   1.840878e+02  -1.934543e+01
   7.102631e+01   7.890425e+01
   4.911052e+01  -3.821947e+01
  -2.516446e-02  -1.480024e+01
   9.632127e+01  -1.334363e+01
   3.495693e+01   9.053037e+01
  -2.898753e+01   9.445063e+01
  -9.696376e+01   5.895186e+01
  -1.304499e+02  -3.375307e+01
   7.391986e+01  -8.037837e+01
   1.840552e+02  -1.454700e+02
   1.931701e+02   5.903808e+01
   1.463087e+01   2.076004e+02
  -9.508755e+01   2.287679e+02
  -2.687470e+02   1.031925e+02
  -1.759845e+02  -1.311982e+02
  -4.131506e+01  -2.513995e+02
   5.657904e+01  -1.270683e+02
   7.173204e+01  -6.197171e+01
   7.508552e+01  -2.309226e+01
   5.033377e+01  -7.764806e+01
   8.497345e+01  -8.841464e+01
   1.198363e+02   2.427332e+01
   1.991547e+02   1.888253e+02
   8.759971e+01   3.071178e+02
  -1.214587e+02   1.829845e+02
  -1.759040e+02  -6.349319e+01
  -1.661056e+02  -1.108317e+02
   3.478244e+01  -1.745398e+02
   4.402168e+01  -6.726961e+01
   4.772328e+01   6.589168e+01
  -2.948415e+01   4.645354e+01
  -1.808780e+01   5.191318e+01
   5.586212e+01   3.135655e+01
   1.410958e+02   3.576944e+01
   2.772969e+01   2.626965e+01
  -9.010553e+01   8.686219e+00
  -1.696260e+02   1.540843e+00
  -8.317543e+01  -8.978110e+01
   4.943484e+01  -8.357263e+01
   1.624296e+02  -8.606259e+01
   1.381521e+02   1.607177e+01
   8.558690e+00   5.339180e+01
   3.474521e+01   5.042569e+01
  -1.167933e+02   2.806452e+01
  -4.056233e+01  -1.074301e+02
   3.442825e+01  -8.137552e+01
   7.296113e+01  -2.728655e+00
   5.079111e+01  -9.216095e+00
   8.346487e+01   4.261713e+01
   1.514521e+01   3.048730e+01
   1.963226e+01   3.315772e+01
   7.158845e+01   6.644108e+01
  -2.154114e+01   1.711207e+02
  -9.607150e+01   1.650625e+02
  -1.702279e+02   3.979340e+01
  -1.550173e+02  -7.602621e+01
   1.950639e+00  -1.423568e+02
   4.766345e+01  -4.910290e+01
   5.589661e+01   2.924774e+01
  -5.315495e+01  -4.450757e+00
  -7.795529e+01  -3.073616e+01
  -1.068548e+02  -1.484469e+02
   1.170254e+02  -8.642552e+01
   2.028222e+02  -1.209158e+01
   1.756416e+02   8.655086e+01
   1.286128e+01   1.654931e+02
  -4.354909e+01   7.249911e+01
  -1.515398e+01  -8.349524e+00
   5.500642e+01   1.383538e+01
   8.729146e+01  -1.290921e+01
   1.048777e+02   9.398128e+01
  -1.245478e+02   1.556233e+02
  -1.385551e+02   7.531329e+01
  -1.226341e+02  -6.553091e+01
  -5.245062e+01  -1.939382e+02
   1.158399e+02  -1.617479e+02
   6.790661e+01  -1.389261e+01
   9.159706e+01   1.257242e+02
   1.123539e+01   9.053128e+01
  -9.627960e+01   2.200585e+01
  -6.860421e+01  -3.876988e+01
  -7.419099e+00  -1.896114e+00
  -3.463624e+01  -2.277431e+01
  -2.605654e+00   4.359178e+01
  -9.906272e+01  -8.446399e+01
  -2.374207e+01  -1.059229e+02
   8.142455e+01  -1.263028e+02
   1.124179e+02   1.823525e+01
   8.606034e+01   1.234750e+02
   2.820467e+01   4.323490e+01
  -4.138356e+01   3.133353e+00
  -6.797315e+01   5.933094e+01
  -8.718481e+01  -1.747100e+00
   5.540148e+01   1.894531e+01
   3.989415e+01  -9.064946e+01
  -2.165542e+01   1.003316e+01
   1.819331e+01   6.051262e+01
   8.218651e+01   1.533275e+01
   8.813631e+01   1.570528e+01
  -1.055310e+01   7.928655e+01
  -1.355178e+02   8.966632e+01
  -1.907436e+02   5.112120e+01
  -1.663010e+02   1.078117e+01
  -4.851711e+01  -1.604809e+02
   5.528141e+01  -1.030630e+02
   1.443789e+02  -7.858397e+01
   7.696410e+01  -1.998552e+01
   3.266308e+01   4.390782e+01
   1.638699e+01   1.659715e+01
  -2.210113e+01   2.388163e+00
   4.338541e+01   4.669053e+01
   2.372382e+01   1.260216e+02
  -7.280846e+01   7.236110e+01
  -9.468466e+01  -4.126035e+01
  -9.517270e+01  -1.171411e+02
  -2.651375e+01  -7.829430e+01
   7.407331e+01  -3.159677e+01
   1.534344e+02   9.258721e+01
   5.607445e+01   1.151236e+02
  -2.406394e+01   8.331092e+01
  -8.478430e+01   4.533798e+01
  -8.905496e+01  -3.785947e+00
   7.313081e+01  -3.898107e+01
   8.129043e+01   6.534147e+00
  -4.989618e+01  -2.890101e+01
  -1.440064e+01  -2.618417e+01
  -1.096160e+01  -5.374815e+01
   5.853461e+01  -1.350767e+02
   1.496663e+02  -2.815248e+01
   9.608881e+01   4.318799e+01
  -3.683021e+01   1.496927e+02
  -9.229201e+01   1.489677e+02
  -6.425328e+01  -1.125473e+01
  -2.700643e+01  -4.888678e+01
   4.651808e+01  -2.679981e+00
   1.811032e+01   2.802654e+01
   4.592033e+00   4.042451e+01
   4.663959e+01   2.566079e+01
  -4.926340e+01  -2.413210e+01
   1.276819e+01   7.432132e+00
  -1.451168e+01   3.580776e+01
  -1.404838e+01   1.401827e+00
  -3.842617e+01   4.539444e+01
  -5.225857e+00  -1.863795e+01
   5.579113e+01  -1.896839e+01
   2.294803e+01  -1.929990e+01
  -1.014366e+01  -1.164315e+00
   3.898857e+01   6.310215e+01
  -2.218177e+01  -9.459787e+00
  -1.276770e+02  -4.967761e+01
  -8.570065e+00  -1.618783e+01
   1.555827e+01   1.209184e+01
   7.352584e+01  -1.375887e+01
   9.632011e+01   3.706278e+01
  -3.368049e+01   6.244780e+01
  -1.582690e+01   6.425661e+01
  -6.379833e+00   3.224922e+01
   6.269953e+01  -2.516430e+01
   5.469413e+01   2.037134e+00
  -4.449136e+01  -6.062845e+00
  -1.404017e+02   1.693540e+01
