
 $NMID
 id='ANONYMOUS ', fmtdat='(2E16.6)'
 volume=1.0
 tramp=1.0
 $END
   2.834404e+03   3.941446e+01
   1.925285e+03   1.306713e+03
   1.894048e+02   1.772749e+03
  -9.510560e+02   1.281583e+03
  -9.031686e+02   4.779621e+02
  -2.702921e+02  -1.210366e+02
   2.343983e+02  -1.200720e+01
   9.933815e+01   3.652077e+02
  -2.849280e+02   4.933462e+02
  -5.142120e+02   1.507887e+02
  -4.204947e+02  -3.730467e+02
  -8.291124e+01  -5.674920e+02
   2.671109e+02  -1.933084e+02
   1.608167e+02   3.522442e+02
  -1.246716e+02   4.754504e+02
  -3.252276e+02   8.155918e+01
  -3.419871e+02  -3.825256e+02
   7.556042e+01  -5.997298e+02
   4.365777e+02  -2.942644e+02
   4.425799e+02   1.024282e+02
   1.724582e+02   4.167964e+02
  -8.678129e+01   2.605771e+02
  -9.078955e+01   1.156720e+02
   1.556540e+02   7.050873e+01
   2.279384e+02   2.957270e+02
  -7.915952e+01   3.372241e+02
  -4.444395e+02   7.899249e+01
  -5.250970e+02  -2.354311e+02
  -1.290302e+02  -3.127447e+02
   3.104276e+02  -1.459915e+02
   4.240683e+02   2.073250e+02
   1.384945e+02   3.222196e+02
  -2.764825e+02   2.925259e+02
  -4.181939e+02   7.023279e+01
  -2.927609e+02  -1.133357e+02
  -2.271649e+01  -1.974925e+02
  -1.424035e+01  -1.507867e+02
  -6.212756e+01   7.432767e+01
  -2.167201e+02   8.374610e+01
  -1.323305e+02  -1.580068e+02
   7.671318e+01  -4.029817e+02
   2.187631e+02  -4.084691e+02
   2.166786e+02   5.499167e+00
   1.123952e+02   2.113916e+02
  -1.113723e+02   1.327043e+02
  -1.245816e+02  -2.560312e+02
   1.093495e+02  -3.203480e+02
   3.520106e+02  -5.839975e+00
   4.301461e+02   3.727991e+02
   1.614633e+02   4.683512e+02
  -2.465429e+02   2.447604e+02
  -5.001487e+02  -3.589045e+01
  -2.693709e+02  -2.127932e+02
   4.935340e+01  -1.538775e+02
   2.217934e+02  -8.164352e+01
   1.734918e+02  -6.310936e+00
   1.040265e+02   7.665816e+00
  -1.725246e+01  -5.693469e+01
   7.428459e+01   5.043756e+01
   1.548408e+02   6.126730e+01
   1.162465e+02   1.741149e+02
  -1.320728e+02   2.234635e+02
  -3.002952e+02   1.533353e+02
  -2.586123e+02  -1.191562e+02
   3.144453e+01  -3.189097e+02
   2.599084e+02  -4.153286e+02
   3.828254e+02  -1.529974e+02
   2.536802e+02   1.449225e+02
   6.878010e+01   3.399483e+02
  -3.931001e+01   2.906012e+02
   1.323797e+01   1.669382e+02
  -3.214407e+01   1.026147e+02
  -1.416237e+02   1.584543e+02
  -2.846938e+02   4.249564e+01
  -2.523848e+02  -1.490945e+02
  -6.614873e+01  -1.831478e+02
   4.584267e+01  -1.712980e+02
   2.169538e+02   8.333856e+01
   1.520748e+02   2.025133e+02
  -5.767686e+01   2.178919e+02
  -2.428700e+02  -2.898042e-01
  -2.555011e+02  -1.437412e+02
  -1.400070e+02  -2.991238e+02
   8.758186e+01  -2.311330e+02
   1.346264e+02  -1.686290e+02
   1.062536e+02  -1.211916e+02
   8.531520e+01  -9.830301e+01
   3.100112e+02  -3.658366e+01
   4.110932e+02   9.594778e+01
   3.134028e+02   2.946342e+02
  -1.885080e+01   3.794967e+02
  -4.165480e+02   3.778003e+02
  -5.039623e+02   1.391839e+02
  -2.278994e+02  -1.280498e+02
  -1.258724e+01  -1.962710e+02
   9.761593e+01  -1.868682e+02
  -1.017874e+01  -6.585893e+01
  -1.171085e+02   3.185630e+01
  -1.182618e+02  -1.606149e+02
   4.026522e+01  -1.814075e+02
   5.772576e+01  -5.853497e+01
   8.767131e+01   2.201978e+01
   7.025357e-02   9.049573e+01
  -2.029153e+02   1.387077e+01
  -7.795651e+01  -2.199132e+02
   6.468645e+01  -3.405151e+02
   2.089994e+02  -2.353337e+02
   2.913261e+02   7.503568e+01
   2.809136e+02   2.825299e+02
   5.297038e+01   2.798133e+02
  -1.374896e+02   1.500702e+02
  -8.827594e+01  -1.148952e+01
  -2.759142e+01  -3.046696e+00
   2.341540e+01   4.815608e+01
   2.841422e+01   8.199908e+01
  -1.710542e+02   3.937926e+01
  -1.313335e+02  -4.930702e+00
  -1.900583e+01  -3.721057e+01
   1.212396e+02   1.012894e+02
   6.524657e+01   8.769823e+01
  -1.739724e+02   7.523526e+01
  -3.411471e+02  -1.748075e+01
  -2.668598e+02  -2.151798e+02
  -9.095413e+00  -2.501293e+02
   2.111648e+02  -2.070713e+02
   2.805690e+02  -6.354921e+01
   1.478495e+02   4.592222e+01
  -4.575297e+01   1.767133e+01
  -3.416325e+00  -4.202845e+01
   5.151980e+01  -8.030184e+01
   1.915200e+02   1.104106e+01
   1.644821e+02   1.077639e+02
   6.767794e+01   1.902814e+02
  -1.204912e+02   1.371559e+02
  -1.174041e+02   8.246441e+00
  -6.307824e+01  -4.380801e+01
   4.424651e+01   4.284908e+01
   3.780791e+01   1.376623e+02
  -1.147811e+02   9.207930e+01
  -1.930531e+02  -3.225742e+00
  -1.506752e+02  -1.571238e+02
  -2.291154e+01  -1.995240e+02
   1.221691e+02  -1.379914e+02
   1.098556e+02  -7.501609e-01
   5.654364e+01   1.140070e+02
  -5.803737e+01   8.978105e+01
  -9.881856e+01   7.245370e+01
   3.609289e+01  -3.596539e+01
   1.591224e+00  -2.413933e+01
  -1.669437e+01  -1.287182e+01
  -1.326295e+02   1.384669e+01
  -1.115159e+02  -1.366239e+02
  -1.057418e+01  -1.794331e+02
   1.154083e+02  -1.715093e+02
   2.133983e+02  -2.644835e+01
   2.152902e+02   1.106078e+02
   3.224909e+01   2.211686e+02
  -1.258381e+02   1.820151e+02
  -1.238749e+02   1.734841e+00
  -5.043860e+01  -5.986057e+01
   1.897841e+01  -5.890899e+01
  -5.272712e+01  -3.276858e+01
  -8.557814e+01   4.932574e+01
  -6.264639e+01  -4.800647e+01
   5.126925e+01  -1.127077e+02
   1.345941e+02  -9.327388e+01
   1.358468e+02   2.305532e+00
   1.290167e+01   9.564468e+01
  -2.087842e+02   6.347650e+01
  -2.377300e+02  -6.424093e+01
  -3.943464e+01  -2.198040e+02
   1.218048e+02  -2.097829e+02
   2.409128e+02  -4.951398e+01
   2.028091e+02   9.893027e+01
   7.908354e+01   9.865938e+01
  -2.247511e+01   1.035649e+02
  -1.140011e+01   5.743279e+01
  -7.224672e+01   5.478966e+01
  -5.028169e+01   5.910015e+01
  -1.006874e+02   9.904980e+01
  -1.265035e+02  -3.591124e+01
  -1.535267e+02  -1.078632e+02
  -9.435634e+01  -2.229329e+02
   8.281059e+01  -1.884155e+02
   1.885537e+02   1.105538e+01
   1.504431e+02   1.604455e+02
  -4.032257e+01   1.616862e+02
  -7.663980e+01   7.742344e+01
  -2.225053e+01  -4.771899e+01
   4.467869e+01  -6.419162e+01
   9.156246e+01  -3.796096e+01
   2.017311e+01  -1.748518e+01
  -3.024534e+01  -4.363577e+01
  -1.795015e+01  -1.221506e+01
   2.755952e+01  -4.705087e+01
   1.473237e+02   7.411658e-01
   8.888867e+01   1.067293e+02
   7.506759e+00   7.322558e+01
  -1.533339e+02   8.672480e+01
  -1.730763e+02   3.355628e+01
  -4.899775e+01  -9.153494e+01
   4.615903e+01  -2.428145e+01
   7.156917e+01   4.594552e+01
   2.658544e+01   5.244765e+01
  -4.659887e+01   3.291220e+01
  -6.999330e+01  -6.402895e+00
  -6.527869e+01  -3.193631e+01
  -7.507303e+01  -7.066016e+01
  -2.793183e+01   1.579736e+01
  -4.716140e+01   1.238918e+00
  -3.323399e+01  -5.556782e+01
  -1.224462e+01  -1.286349e+02
   1.151248e+02  -1.858299e+02
   1.827399e+02   3.286785e+01
   1.304803e+02   7.257229e+01
  -2.632220e+01   1.256908e+02
  -1.386020e+02   8.084774e+01
  -4.860972e+01   3.793973e+00
  -4.525662e+01   1.223490e+01
   1.375381e+02  -1.694160e+01
   6.813101e+01   9.294317e+01
  -1.223732e+02   9.613671e+01
  -1.765996e+02   5.087134e+01
  -2.137814e+02  -8.163346e+01
  -7.761828e+01  -1.337858e+02
   1.228439e+02  -7.998545e+01
   3.655325e+01   4.224795e+01
  -1.419394e+01   3.327683e+01
  -1.067510e+02   7.483294e+00
  -6.628389e+01  -1.247852e+02
   6.871642e+01  -1.384330e+02
   1.285701e+02  -8.262747e+01
   1.403063e+02   9.120636e+01
   4.677150e+01   1.598804e+02
  -4.792520e+01   1.482622e+02
  -1.332926e+02  -1.950295e+01
  -7.535023e+01  -1.263570e+02
  -1.636130e+01  -1.068620e+02
   3.530477e+01   1.676586e+01
   4.193172e+01   2.740581e+01
   3.051154e+00   5.205895e+01
   4.426209e+01  -1.972792e+01
   2.380296e+01   3.088314e+00
   7.958644e+01   6.753851e+01
   4.709333e+01   1.119672e+02
  -1.804396e+01   3.094514e+01
  -1.319276e+02   1.217642e+01
  -1.154045e+02  -7.981669e+01
  -3.142803e+01  -3.587849e+01
   1.052120e+02  -1.140393e+01
   1.001232e+02   1.907900e+01
  -8.439280e+00   1.920893e+01
  -5.392432e+01   7.360447e-02
  -3.787633e+01   7.019664e+00
   3.110066e+00  -3.105345e+01
   2.345164e+01   4.132142e+00
  -8.954143e+01  -2.527735e+01
  -1.085808e+02  -5.755224e+01
  -4.450166e-01  -1.094873e+02
   5.807324e+01  -1.310423e+02
   1.624325e+02  -1.051261e+02
   1.537348e+02   3.330763e+01
   1.024363e+01   1.656424e+02
  -1.324032e+02   1.896272e+02
  -8.282805e+01   9.263803e+01
   7.681184e-01  -1.466059e+01
  -4.600911e+01  -8.608658e+01
   2.695402e+00  -3.689549e+01
  -4.411708e+01  -4.919135e+01
  -4.363426e+01  -1.559932e+00
  -1.892194e+01  -8.253279e+01
   2.541728e+01  -9.842885e+01
   4.702250e+01  -4.516110e+00
   9.902470e+01   8.273039e+01
   3.122709e+01   1.576714e+02
  -6.615961e+01   5.379813e+01
  -8.518914e+01  -4.052342e+01
  -6.969938e+01  -1.261665e+02
   1.085777e+02  -4.109215e+01
   1.026359e+02   4.497127e+01
   5.059000e+01   3.825444e+01
  -9.516843e+00   8.644764e+01
  -8.646420e+01   4.737686e+01
   4.384298e+01  -5.944335e+00
   9.957715e+01  -3.672686e+01
  -9.998614e+00   4.567442e+01
  -1.106233e+02   7.471903e+01
  -9.685589e+01   1.808805e+00
  -8.958396e+00   9.542783e+00
   6.909657e+01  -4.436705e+01
   5.176328e+01  -7.030674e+01
   1.112689e+02  -1.834141e+01
   5.068352e+00   8.064544e+01
  -4.070144e+01   7.898599e+01
  -2.089135e+01   8.236109e+00
  -1.757645e+01  -3.528859e+01
  -9.626150e+00  -2.104472e+01
   7.683918e+01   1.826734e+01
   6.556342e+01   2.116102e+01
   3.648190e+01   5.733101e+01
  -2.788618e+01  -6.054291e+00
  -8.358066e+00  -3.421665e+01
   3.797415e+00   4.634335e+01
  -2.220283e+01   1.180567e+02
  -2.313224e+01   9.047352e+01
   1.477934e+01  -2.193773e+01
  -4.072411e+01  -6.488780e+01
   2.650906e+01  -6.752624e+01
   1.050910e+02   1.418806e+00
   5.497991e+01   8.852397e+01
  -3.634947e+01   2.403870e+00
  -8.086732e+01   8.992554e+00
  -3.487202e+01  -5.427414e+01
   1.945407e+01  -5.153010e+01
   2.193146e+00  -4.950278e+01
  -8.220777e+00   2.082382e+01
  -5.204033e+01   4.805903e+01
  -1.168123e+01   3.040914e+01
  -8.398677e+00  -3.436218e+01
   3.742944e+01  -2.454748e+01
