
 $NMID
 id='ANONYMOUS ', fmtdat='(2E16.6)'
 volume=1.0
 tramp=1.0
 $END
  -3.554630e+03  -9.356839e+00
  -2.267803e+03  -1.951471e+03
   1.662593e+02  -2.228555e+03
   1.499538e+03  -1.145407e+03
   9.467895e+02  -2.073064e+01
  -1.262588e+02   2.813666e+02
  -5.303586e+02  -1.747517e+02
  -1.012046e+01  -6.448676e+02
   5.743955e+02  -7.006325e+02
   7.435747e+02  -3.814533e+01
   4.031174e+02   6.181933e+02
  -5.430865e+01   6.984518e+02
  -4.347767e+02   1.331637e+02
  -2.383844e+02  -4.747053e+02
   1.641223e+02  -6.035341e+02
   4.651124e+02  -9.997081e+01
   3.231084e+02   5.932125e+02
  -1.743587e+02   6.228236e+02
  -4.486226e+02   2.001502e+02
  -4.118741e+02  -1.809087e+02
  -1.042798e+02  -4.255591e+02
   1.899582e+02  -2.768782e+02
   1.504426e+02  -7.080269e+01
  -1.985098e+02  -3.087697e+01
  -3.108153e+02  -2.627920e+02
  -5.902404e+01  -3.739989e+02
   4.630582e+02  -2.138000e+02
   6.984305e+02   1.978662e+02
   2.494388e+02   4.757152e+02
  -3.313955e+02   2.743786e+02
  -5.683630e+02  -1.132083e+02
  -2.549413e+02  -4.040485e+02
   2.627088e+02  -3.928275e+02
   5.045566e+02  -1.699816e+02
   3.524140e+02   1.938114e+02
   1.470799e+02   3.194034e+02
  -5.895427e+01   2.232482e+02
  -2.501956e+01  -1.629569e+02
   1.258317e+02  -2.035049e+02
   3.077633e+02   1.479394e+02
   1.037499e+02   5.484329e+02
  -2.670616e+02   5.166632e+02
  -4.038742e+02   7.612790e+00
  -1.950641e+02  -3.753611e+02
   9.980194e+01  -1.757701e+02
   2.582171e+02   3.018476e+02
  -1.038554e+02   4.289701e+02
  -4.792389e+02   8.611564e+01
  -4.757204e+02  -4.226238e+02
  -1.218323e+02  -5.182285e+02
   3.208651e+02  -3.101557e+02
   5.362330e+02   5.077208e+01
   3.701383e+02   3.092927e+02
  -9.918633e+01   2.833363e+02
  -3.488136e+02   1.420544e+02
  -1.721336e+02  -8.808306e+01
  -6.241278e+00  -4.333554e+01
   7.824964e+01   1.570949e+02
  -9.160230e+01   1.067822e+02
  -2.475041e+02  -2.076366e+01
  -1.028730e+02  -1.669629e+02
   1.575459e+02  -3.162507e+02
   3.310281e+02  -1.535711e+02
   2.370328e+02   1.108191e+02
  -2.500531e+01   2.938488e+02
  -2.677949e+02   3.266603e+02
  -3.543643e+02   1.788047e+02
  -2.705228e+02  -1.042948e+02
  -6.180298e+01  -3.479647e+02
   9.290763e+01  -3.478497e+02
   1.544298e+01  -1.608154e+02
   5.467558e+01  -3.365469e+01
   9.584832e+01  -1.310610e+02
   2.643232e+02  -8.381432e+01
   3.119888e+02   5.439740e+01
   1.177947e+02   2.455146e+02
  -9.854659e+01   1.697683e+02
  -2.470342e+02  -4.869843e+01
  -1.242041e+02  -2.568302e+02
   6.878071e+01  -2.488301e+02
   2.534850e+02  -8.698729e+01
   2.522017e+02   1.237590e+02
   1.377838e+02   2.941439e+02
  -4.793332e+01   3.056147e+02
  -1.997707e+02   1.308074e+02
  -1.073737e+02   5.963816e+01
  -1.104700e+02   5.818650e+01
  -3.213613e+02   4.142452e+01
  -4.392879e+02  -9.468790e+01
  -3.664122e+02  -2.650441e+02
  -6.534094e+01  -4.608790e+02
   3.844591e+02  -4.299879e+02
   4.794385e+02  -1.754059e+02
   2.814608e+02   1.272179e+02
   2.472541e+00   2.882583e+02
  -1.447595e+02   2.329178e+02
  -1.523359e+01   1.542915e+01
   1.100588e+02  -6.407104e+01
   1.234843e+02  -5.195606e+01
   1.175787e+01   1.826464e+02
  -1.638516e+02   1.064819e+02
  -1.098789e+02  -1.030310e+02
   6.440233e+00  -1.932879e+02
   1.472259e+02   2.928271e+01
   1.377365e+02   2.587726e+02
   1.262361e+01   3.688254e+02
  -2.286451e+02   1.924103e+02
  -3.897422e+02  -6.274356e+01
  -2.675453e+02  -2.881164e+02
  -9.222448e+01  -2.254120e+02
   8.441730e+01  -1.410827e+02
   1.914720e+02   2.756247e+01
   6.346058e+01   1.911378e+01
  -1.007968e+02  -4.729175e+01
   1.406436e+01  -1.205960e+02
   1.570247e+02  -7.778694e+00
   1.550888e+02   6.094417e+01
   5.299556e+01   1.838456e+01
  -1.093612e+02   2.080268e+00
  -3.625351e+01  -7.705740e+01
   1.142958e+02  -6.634664e+01
   3.014420e+02  -4.605798e+01
   2.945729e+02   1.378543e+02
   4.835495e+01   2.423106e+02
  -2.184292e+02   2.241798e+02
  -2.770796e+02   9.904046e+01
  -1.547416e+02  -3.705433e+01
   3.684186e+01  -4.999021e+01
   1.045429e+02   2.299327e+01
  -3.555868e+01   5.599623e+01
  -1.901035e+02  -4.089457e+01
  -1.953291e+02  -8.885518e+01
  -3.588514e+01  -2.001414e+02
   1.282001e+02  -1.757979e+02
   1.271025e+02  -1.176914e+00
   6.482114e+01  -6.115086e+01
  -1.550796e+01  -2.003641e+01
  -6.156002e+01  -1.159993e+02
   1.424176e+02  -1.467110e+02
   2.245322e+02   7.988604e+01
   1.474794e+02   1.285742e+02
   7.248808e+00   1.840735e+02
  -1.499500e+02   1.073453e+02
  -2.075449e+02   2.930635e+01
  -5.281995e+01  -1.084096e+02
   1.173045e+02  -9.225859e+01
   6.615247e+01  -6.181808e+01
   1.668448e+01   5.169802e+01
  -3.076593e+01   2.359947e+01
  -1.671478e+01  -6.971908e+01
   5.155624e+01   3.408113e+01
   1.170503e+02   1.054193e+02
   5.849486e+01   1.726426e+02
  -1.289616e+02   1.033577e+02
  -2.493946e+02  -2.924468e+00
  -1.872099e+02  -1.273549e+02
  -5.830698e+01  -2.312729e+02
   8.052553e+01  -1.420302e+02
   1.263378e+02  -9.280643e+00
   1.048951e+02   4.433172e+01
   7.500462e+01   6.330354e+00
   4.899543e+01  -4.746076e+01
   5.549395e+01  -4.210429e+01
   5.227355e+01   2.681572e+01
  -8.997604e+01   1.035821e+02
  -9.718323e+01   7.595861e+01
  -1.991145e+01  -8.815721e+01
   9.723042e+00  -1.271815e+02
   1.735258e+02  -6.420239e+01
   1.773254e+02   1.028920e+02
   8.344178e+01   2.087537e+02
  -1.376205e+02   1.758321e+02
  -2.245861e+02   6.438302e+01
  -2.150229e+02  -1.078757e+02
  -9.183399e+01  -1.504642e+02
   3.145625e+01  -2.114316e+02
   1.502561e+02  -9.654856e+01
   6.445240e+01  -5.682326e+01
   6.339215e+01  -7.898707e+01
   7.920242e+01  -9.808256e+01
   1.399044e+02   5.575701e+01
   1.392118e+02   1.330002e+02
   4.775606e+01   2.092297e+02
  -7.628851e+01   1.290909e+02
  -2.156733e+02   8.941427e+00
  -1.080858e+02  -1.417010e+02
  -2.358936e+01  -1.752620e+02
   6.816887e+01  -7.515436e+01
   3.068910e+01   2.133409e+01
  -2.103430e+01   2.979711e+01
  -1.599035e+01   3.469426e+01
   4.975274e+01   2.890030e+01
   1.431721e+00  -5.687500e+00
   2.067152e+01   4.227650e+01
  -1.134741e+02   3.943074e+01
  -1.856347e+02   2.376893e+00
  -1.250303e+02  -4.380776e+01
  -2.418092e+01  -7.495889e+01
   1.033754e+02  -3.803456e+01
   1.555437e+02   6.790113e+01
   7.584803e+01   8.931417e+01
  -6.438186e+01   9.367988e+01
  -7.293960e+01  -3.330222e+01
  -4.059361e+01  -9.163820e+01
   8.048133e+01  -2.267987e+01
   8.998942e+01  -6.778464e+01
   1.035164e+02   6.665705e+01
   3.716752e+01   3.525900e+01
   5.097502e+01  -2.719266e+01
   5.703257e+01   2.854546e+01
   8.548499e+01   8.478064e+00
  -2.666139e+01   1.409257e+02
  -1.420982e+02   1.461981e+02
  -1.702953e+02   3.939334e+01
  -1.167756e+02  -8.078970e+01
  -4.427912e+01  -9.375301e+01
   8.959004e+01  -7.225349e+01
   3.909576e+01   8.804766e+00
  -7.734650e+01   6.035028e+01
  -9.350474e+01  -4.600771e-01
  -4.947719e+01  -1.658476e+02
   9.448777e+01  -1.187524e+02
   1.729548e+02  -7.128961e+01
   2.296492e+02   6.991771e+01
   1.715521e+01   7.938205e+01
  -2.750197e+01   5.063150e+01
  -7.832592e+01  -1.043796e+00
  -9.849859e+00  -4.470247e+01
   9.936551e+01  -2.414544e+01
  -2.075306e+01   9.892672e+01
  -5.881271e+01   1.324582e+02
  -1.709612e+02   8.983895e+01
  -1.203440e+02  -9.370576e+01
   2.316164e+01  -1.989734e+02
   6.012180e+01  -1.344665e+02
   5.752256e+01  -1.610539e+01
   3.034492e+01   1.261487e+02
   4.117115e+00   6.702617e+01
  -4.232472e+01   6.190667e+01
  -7.076483e+01  -6.206805e+01
   1.070899e+01  -2.547435e+01
  -4.670633e+01   3.617158e+01
  -1.773742e+01  -1.307177e+01
   1.427086e+00  -3.254762e+01
  -3.250657e+00  -1.111669e+02
   2.250315e+01  -3.095603e+01
   1.045799e+02  -2.465464e+01
   1.557628e+02   1.082436e+02
   1.208647e+01   1.854333e+01
  -1.021751e+02   1.227809e+01
  -6.291391e+01   7.709489e+00
  -1.774440e+01  -1.373456e+01
   4.298372e+01  -2.925034e+01
   5.931748e+00  -2.177041e+01
  -1.346405e+01  -1.834488e+01
   1.518973e-01  -2.566008e+01
   6.752995e+01  -2.050545e+00
   3.579241e+01   4.069753e+01
   4.126011e+01   5.873888e+01
  -9.170137e+01   1.196092e+02
  -2.356942e+02   2.910940e+01
  -1.319522e+02  -7.009086e+01
  -2.088067e+01  -1.960230e+02
   9.398238e+01  -1.602552e+02
   8.325564e+01  -7.358106e+01
   1.066318e+02   3.319612e+01
  -9.648907e-01   1.013631e+01
   3.243265e+00  -2.369612e+01
   4.628944e+01   1.376481e+01
  -7.757444e+00   9.400157e+01
  -2.901268e+00   1.090797e+02
   6.948098e+00   6.279805e+01
  -8.471185e+01  -4.467453e+01
  -6.797801e+01  -1.174838e+02
  -2.155242e+01  -1.222944e+02
   7.727047e+01  -6.517680e+01
   1.383907e+02   3.362545e+01
   2.011329e+01   1.016315e+02
  -7.893856e+01   2.967384e+01
  -5.463339e+01  -3.773748e+01
  -2.185319e+01  -2.961045e+01
   9.426141e+01  -5.216562e+01
   1.304584e+01  -6.944496e+01
  -2.075970e+01  -1.225291e+01
  -8.658811e+01   3.251453e+01
  -1.937887e+00   3.460813e+01
   1.171755e+02  -3.726687e+01
   1.011283e+02  -3.966836e+01
   1.583562e+00   2.377017e+01
  -7.018529e+01   8.748676e+01
  -6.890573e+01   9.336822e+01
  -1.536291e+01   3.883019e+01
  -1.267532e+01  -5.310109e+01
  -2.406686e+01  -5.366200e+01
   2.078761e+01   2.901029e+01
   1.687211e+01   5.335550e+01
  -3.709816e+01   5.068110e+01
  -4.779525e+01   8.852136e+00
  -6.112796e+01  -4.556592e+01
  -7.086976e+00  -3.350332e+01
   3.335059e+01  -2.502206e+01
   5.420409e+01   1.808893e+01
   2.877682e+01  -5.324063e+01
   4.592151e+01  -5.911816e+01
   3.735909e+01  -1.006139e+01
   2.706980e+01   6.616934e-01
  -9.417442e+00   5.506138e+01
  -1.050725e+01   4.469782e+01
  -8.875342e+01   2.231850e+01
  -2.124671e+01  -1.198137e+02
   5.540046e+01   2.766707e+00
   9.893413e+01  -1.999319e+01
   8.837304e+01   3.391344e+01
  -9.495714e+01   7.972126e+01
  -6.843436e+01   6.394921e+01
  -4.472190e+01   2.224951e+01
   4.654810e+01   5.554529e+00
  -1.390575e+01  -7.401874e+00
  -3.965800e+01   2.777846e+00
  -7.930707e+01   2.154621e+01
