
 $NMID
 id='ANONYMOUS ', fmtdat='(2E16.6)'
 volume=1.0
 tramp=1.0
 $END
   3.389353e+03  -8.254045e+00
   2.159042e+03   1.801976e+03
  -1.730311e+02   2.183495e+03
  -1.426930e+03   1.126752e+03
  -9.644105e+02  -2.430795e+01
   1.280335e+02  -2.742137e+02
   4.584280e+02   1.730102e+02
   1.197887e+02   6.601017e+02
  -5.059016e+02   6.330083e+02
  -6.778946e+02   4.099068e+01
  -4.488839e+02  -5.693735e+02
   9.333144e+01  -6.711094e+02
   3.993276e+02  -1.558264e+02
   3.284608e+02   4.700864e+02
  -1.180640e+02   5.785738e+02
  -4.660388e+02   7.176038e+01
  -2.587128e+02  -5.019213e+02
   1.527249e+02  -6.031730e+02
   5.163392e+02  -2.245931e+02
   4.263168e+02   1.994320e+02
   6.614545e+01   3.774512e+02
  -1.321526e+02   2.604378e+02
  -5.213358e+01   1.249540e+02
   1.409291e+02   4.030963e+01
   3.154999e+02   2.551991e+02
   3.181966e+01   3.891876e+02
  -4.722916e+02   2.641385e+02
  -6.624683e+02  -1.410560e+02
  -2.773594e+02  -3.974804e+02
   2.927616e+02  -2.628291e+02
   5.235633e+02   1.129384e+02
   2.802377e+02   3.718130e+02
  -2.836684e+02   3.679129e+02
  -4.940902e+02   1.724291e+02
  -3.363995e+02  -1.852464e+02
  -8.002777e+01  -4.056683e+02
   7.167010e+01  -1.892926e+02
  -7.391917e+00   1.137766e+02
  -1.770135e+02   2.631716e+02
  -2.406534e+02  -9.246763e+01
  -7.291974e+01  -5.607464e+02
   2.241282e+02  -4.868211e+02
   3.676986e+02  -6.297138e+01
   1.414187e+02   3.710186e+02
  -2.158382e+02   2.100975e+02
  -2.230016e+02  -2.666437e+02
   5.003912e+01  -3.923577e+02
   4.420165e+02  -9.286527e+01
   5.029434e+02   4.373741e+02
   1.210145e+02   4.815982e+02
  -3.035392e+02   2.865517e+02
  -5.170703e+02  -3.595769e+01
  -3.495832e+02  -2.957457e+02
   1.164373e+02  -2.848120e+02
   3.508565e+02  -3.256489e+01
   1.917521e+02   7.914820e+01
  -9.030947e+01   2.191421e+01
  -1.050994e+02  -1.221287e+02
   7.555716e+01  -5.901071e+01
   2.941977e+02   4.685517e+01
   1.497318e+02   2.181947e+02
  -1.665348e+02   2.596939e+02
  -2.961252e+02   1.454391e+02
  -1.849998e+02  -5.104156e+01
   3.227304e+01  -2.705564e+02
   2.214590e+02  -3.155206e+02
   3.574954e+02  -1.567191e+02
   2.684653e+02   1.374832e+02
   8.954503e+01   3.678574e+02
  -7.748668e+00   3.606774e+02
  -4.909276e+01   1.282184e+02
  -1.352425e+01   6.162522e+01
  -9.875628e+01   1.037763e+02
  -2.383116e+02   1.577871e+02
  -2.061585e+02  -1.030938e+02
  -9.412146e+01  -2.670193e+02
   8.599290e+01  -2.026439e+02
   2.243067e+02   1.848714e+01
   1.542303e+02   2.414694e+02
  -6.021521e+01   2.268241e+02
  -2.238268e+02   4.771384e+01
  -2.880748e+02  -1.560312e+02
  -1.243194e+02  -3.054078e+02
   6.826067e+01  -2.631664e+02
   2.304751e+02  -1.533933e+02
   1.340385e+02  -3.427141e+01
   1.175442e+02  -4.814259e+01
   2.583099e+02  -5.598386e+01
   3.903475e+02   5.145157e+01
   3.065392e+02   2.884237e+02
  -4.446232e+01   3.897400e+02
  -3.745959e+02   3.613577e+02
  -4.682025e+02   1.846504e+02
  -2.987861e+02  -1.035046e+02
  -1.037018e+01  -2.698568e+02
   1.013342e+01  -1.977813e+02
  -1.535393e+00  -1.114387e+02
  -1.020297e+02   5.871921e+01
  -1.260622e+02  -1.551357e+01
  -2.032136e+01  -1.043210e+02
   1.112657e+02  -1.809003e+02
   1.187963e+02   1.159535e+01
  -1.325320e+01   2.025614e+02
  -1.409485e+02   4.616036e+01
  -1.140558e+02  -2.327608e+02
   4.861238e+01  -3.741479e+02
   1.930824e+02  -1.593049e+02
   3.398019e+02  -1.140659e+01
   2.932827e+02   2.248838e+02
   6.278934e+01   2.544952e+02
  -1.261444e+02   1.050438e+02
  -1.799996e+02   8.415993e+00
  -1.164168e+01   2.278836e+01
   6.625611e+01   9.208917e+01
   1.976216e+01   1.035238e+02
  -1.237035e+02   8.182979e+01
  -1.694797e+02  -1.057785e+01
  -7.260499e+01  -3.073802e+01
   4.415711e+01  -1.252125e+01
   8.394462e+00   8.501233e+01
  -1.588616e+02   8.763512e+01
  -2.379477e+02   2.036716e+01
  -2.163185e+02  -1.462112e+02
  -2.562715e+01  -2.284842e+02
   1.616391e+02  -2.726728e+02
   2.546211e+02  -8.143810e+01
   1.612669e+02   7.266635e+01
  -5.124361e+01   1.207523e+02
  -6.048562e+01  -9.563406e+00
   6.704681e+01  -2.849611e+01
   2.108717e+02  -5.263819e+01
   2.212912e+02   1.032107e+02
   6.467073e+00   1.709609e+02
  -9.026620e+01   1.513794e+02
  -1.194326e+02  -1.808348e+01
  -7.289501e+01   3.749527e+01
   3.111476e+01   9.208253e+00
   9.521622e+00   2.675666e+01
  -8.499152e+01   1.463854e+02
  -2.160275e+02   1.621517e+01
  -1.917899e+02  -1.149555e+02
  -1.475961e+01  -1.697228e+02
   1.266919e+02  -2.115589e+02
   1.162554e+02  -2.761272e+01
   1.160386e+02   1.612592e+02
  -7.350980e+01   1.657413e+02
  -9.082871e+01   1.995099e+01
  -2.454559e+01   7.627922e+00
   3.204965e+01   4.093762e+01
  -1.714730e+01   7.014643e+01
  -7.331834e+01  -1.658633e+01
  -8.278640e+01  -9.231558e+01
  -3.716632e+01  -1.705972e+02
   1.390518e+02  -1.551348e+02
   2.121462e+02   2.541319e+01
   2.194670e+02   1.852668e+02
   2.170248e+01   2.348685e+02
  -4.783578e+01   1.964869e+02
  -8.646412e+01   3.588861e+01
  -6.624420e+01  -3.926869e+01
  -9.250558e+00  -5.580073e+01
  -6.048968e+01   5.252009e+01
  -6.783554e+01   7.863900e+00
  -4.492126e+01  -8.242563e+01
  -1.210279e+00  -1.141388e+02
   1.027031e+02  -5.383063e+01
   1.129922e+02   2.767923e+01
  -1.619829e+01   1.303211e+02
  -2.024610e+02   9.759741e+01
  -1.947653e+02  -2.104234e+01
  -1.424704e+02  -2.140551e+02
   1.645122e+02  -1.459816e+02
   2.804707e+02  -7.524564e+01
   1.938876e+02   9.057050e+01
   1.410374e+02   2.093379e+02
  -2.452386e+01   1.048500e+02
  -5.185670e+01   9.996063e+01
  -5.485886e+01   7.896655e+01
  -1.048833e+02   7.787491e+01
  -1.934137e+02   1.063037e+02
  -1.532985e+02  -4.612084e+01
  -1.456211e+02  -1.368775e+02
   1.431875e+00  -2.106480e+02
   8.759166e+01  -1.892971e+02
   1.375759e+02  -2.367610e+01
   1.227747e+02   1.073384e+02
   4.366427e+01   1.598159e+02
  -7.425123e+01   3.838610e+01
  -5.607483e+01   6.196647e+01
   1.028837e+01  -8.842141e+00
   1.147368e+01  -5.426552e+01
   2.288679e+01  -2.795037e+01
  -1.368994e+02  -2.637808e+01
  -3.582971e+01  -2.365514e+01
   1.544465e+01  -6.167071e+01
   1.520253e+02   3.238838e+01
   1.028873e+02   4.615383e+01
  -3.118355e+01   8.123521e+01
  -1.765160e+02   6.712077e+01
  -1.422349e+02   4.136269e+00
  -1.174602e+02  -7.033598e+01
   9.900229e+01  -2.585135e+01
   4.515976e+01   4.059982e+01
   2.589536e+01   8.527465e+01
  -4.610641e+01   5.260258e+01
  -7.460153e+01   2.586588e+01
  -7.973972e+00  -7.211000e+01
  -4.664240e+01   3.636303e+00
  -6.959923e+01  -3.244721e+01
  -3.000357e+01  -3.767504e+00
  -4.634544e+01  -9.236473e+01
   7.075284e+01  -1.432724e+02
   1.275611e+02  -1.480620e+02
   2.002169e+02  -1.162498e+01
   7.888757e+01   1.165769e+02
   4.445610e+01   1.046672e+02
  -1.059888e+02   5.009295e+01
  -5.693442e+01   1.139999e+01
   6.196073e+01  -7.781868e+00
   1.725329e+02   5.043819e+01
   6.988304e+01   7.073446e+01
  -5.415239e+01   1.194095e+02
  -2.021474e+02   2.167910e+01
  -1.592273e+02  -5.809070e+01
  -4.267771e+01  -5.365774e+01
   9.238887e+01  -1.181129e+02
   1.056637e+02   1.346569e+01
   2.797776e+00   7.046173e+01
  -8.921073e+01  -6.097915e+01
  -3.332795e+01  -3.830199e+01
   4.473599e+01  -1.303760e+02
   1.027511e+02  -2.769160e+01
   1.104213e+02   8.817385e+01
   3.332826e+00   1.619009e+02
  -8.692555e+01   1.073040e+02
  -7.106044e+01   7.957896e+00
  -5.947401e+01  -1.175107e+02
  -1.090362e+01  -9.233243e+01
   7.226762e+01  -1.590961e+01
  -4.715816e+01  -1.887656e+01
  -3.020357e+01  -2.927679e+01
  -3.667889e-01   2.156404e+01
   8.170359e+01   5.137920e+01
   6.800943e+01   7.338834e+01
   1.179759e-01   1.319470e+02
  -4.696640e+01   3.458225e+01
  -1.376785e+02  -1.241216e+01
  -8.829795e+01  -7.133156e+01
  -2.204998e+01   1.235874e+01
   5.594937e+01  -5.463917e+01
   1.079188e+02  -7.799281e-01
   5.014161e+01   1.212801e+00
  -2.177842e+01  -9.635253e+00
  -2.836584e+00   4.845705e+01
  -2.031428e+01  -1.864245e+01
  -3.576750e+01  -3.838083e+01
  -5.073917e+01  -1.667242e+01
  -1.158701e+02  -1.018865e+01
  -1.775358e+01  -7.601824e+01
   1.415411e+02  -1.500943e+02
   1.584567e+02  -6.276024e+01
   1.692228e+02   4.339752e+01
   2.407587e+01   1.719691e+02
  -1.037706e+02   1.624666e+02
  -1.229669e+02   5.736283e+01
  -6.919787e+01  -5.049662e+01
   4.073540e+01  -3.788032e+01
  -4.619247e+01  -2.071950e+01
  -5.024810e+01  -5.962318e+01
  -6.334134e+01  -6.529598e+01
   9.871415e+00  -1.113907e+02
   2.932230e+01  -2.228350e+01
   7.410592e+01   6.461883e-01
   8.825133e+01   9.472325e+01
   3.821612e+01   1.135634e+02
  -6.708888e+01   6.017720e+00
  -9.091223e+01  -2.797759e+01
  -5.274846e+01  -1.198568e+02
   9.588895e+01  -1.011782e+02
   1.131256e+02   1.298826e+00
   4.216324e+00   8.650643e+01
   3.497141e+01   8.659195e+01
  -3.682645e+01   4.372702e+01
   1.813031e+01  -3.774261e+01
   5.219384e+01  -4.935693e+01
  -2.440617e+01   2.215745e+01
  -8.838441e+01   7.635683e+01
  -9.972795e+01   2.290744e+01
  -4.497532e+01  -5.544694e+00
   3.295089e+01  -8.286077e+01
   7.113785e+01  -6.415101e+01
   5.926056e+00  -5.957242e+00
  -1.936630e+01   3.906239e+01
  -7.244317e+01   6.038763e+01
  -1.736345e-01  -1.352252e+01
  -2.518510e+00  -3.051672e+01
   7.680703e+00  -2.488617e+01
   7.738081e+01   6.093635e+01
   3.319723e+01  -1.242861e+01
   3.564858e+01  -5.486006e+00
  -3.063505e+01   4.872570e+01
   6.281740e+01   1.195581e+01
  -2.676424e+00   4.116547e+01
   5.044140e+00   5.519176e+01
   1.928835e+01  -7.993239e+00
  -5.955677e+01  -7.170756e+01
  -7.388426e+00  -3.213425e+01
   6.861421e+01  -5.235502e+01
  -1.613111e+01   5.687273e+01
  -5.015820e+01   4.997941e+01
  -7.365297e+01   2.788392e+01
  -1.022147e+02  -4.123678e+01
  -7.386278e+01  -5.387119e+01
  -2.944022e+00  -5.731460e+01
   5.190374e+01  -1.926247e+01
   9.466081e+01  -4.768641e+00
  -8.838281e+00   6.917821e+00
  -3.806017e+01   7.883089e-02
   1.868101e+01  -2.921094e+01
   5.920267e+01   1.205952e+01
