
 $NMID
 id='ANONYMOUS ', fmtdat='(2E16.6)'
 volume=1.0
 tramp=1.0
 $END
  -4.447402e+03   5.524065e+00
  -2.692289e+03  -2.589289e+03
   6.527556e+02  -2.839897e+03
   2.109501e+03  -9.839347e+02
   9.695932e+02   5.911060e+02
  -6.074476e+02   5.135765e+02
  -8.906129e+02  -4.106872e+02
   1.664779e+01  -1.070663e+03
   8.439642e+02  -7.590683e+02
   9.671520e+02   6.832151e+01
   4.340212e+02   8.330964e+02
  -2.302664e+02   8.783884e+02
  -5.889174e+02   1.839337e+02
  -4.098604e+02  -6.939238e+02
   2.600259e+02  -8.015347e+02
   6.163162e+02  -2.224193e+01
   2.999919e+02   6.677160e+02
  -3.034434e+02   6.811483e+02
  -6.302610e+02   1.297225e+02
  -4.562780e+02  -3.486778e+02
  -7.867556e+00  -4.665525e+02
   2.311436e+02  -2.800012e+02
   1.544331e+02  -3.320140e+01
  -9.352039e+01   8.521621e+01
  -4.062961e+02  -1.677531e+02
  -1.514922e+02  -4.175506e+02
   4.677419e+02  -3.908790e+02
   8.500286e+02   1.035120e+02
   3.916494e+02   5.758964e+02
  -4.300255e+02   4.844942e+02
  -7.633337e+02  -5.619200e+01
  -3.053829e+02  -5.517140e+02
   3.545758e+02  -4.716515e+02
   5.464987e+02  -1.932543e+02
   4.196108e+02   2.226800e+02
   9.123257e+01   4.822752e+02
  -1.398174e+02   2.733156e+02
  -1.756746e+02  -2.054484e+02
   1.574229e+02  -4.128126e+02
   4.814910e+02   6.273423e+01
   2.323435e+02   7.404000e+02
  -3.637884e+02   7.072321e+02
  -5.936483e+02   4.108017e+01
  -2.206416e+02  -5.420849e+02
   2.920703e+02  -3.316788e+02
   4.248995e+02   3.533399e+02
  -1.634302e+01   5.876054e+02
  -5.745334e+02   1.356300e+02
  -6.050795e+02  -4.233994e+02
  -2.398500e+02  -5.821090e+02
   3.983323e+02  -3.180559e+02
   6.405112e+02   3.244830e+01
   3.674207e+02   3.804042e+02
  -1.705672e+02   3.750983e+02
  -4.549304e+02   6.541544e+01
  -2.289428e+02  -1.820588e+02
   1.341577e+02  -8.228461e+01
   1.566480e+02   1.127411e+02
  -2.253946e+02   1.884504e+02
  -2.968794e+02  -5.682400e+01
  -1.214997e+02  -3.284862e+02
   2.112977e+02  -2.061044e+02
   3.409000e+02  -5.585010e+01
   2.043478e+02   1.192713e+02
  -4.773797e+01   2.669319e+02
  -2.642163e+02   3.318450e+02
  -3.931525e+02   1.956821e+02
  -2.905990e+02  -1.785702e+02
  -9.349412e+01  -4.664902e+02
   9.900392e+01  -4.311438e+02
   1.299184e+02  -1.564363e+02
   3.092152e+00   4.908597e+01
   2.046917e+01  -1.254996e+02
   1.895230e+02  -1.387380e+02
   2.501462e+02   7.349627e+01
   1.799814e+02   2.871025e+02
  -1.426391e+02   2.541093e+02
  -2.157121e+02   1.958707e+01
  -1.723139e+02  -2.775193e+02
  -1.348796e+00  -2.439970e+02
   2.739169e+02  -8.044731e+01
   3.763474e+02   1.859698e+02
   1.988018e+02   3.585224e+02
  -5.450971e+01   2.932320e+02
  -2.618145e+02   1.330837e+02
  -1.740738e+02  -6.622663e+00
  -1.072640e+02   3.093115e+01
  -2.866715e+02   6.062401e+01
  -4.069031e+02  -3.098633e+01
  -3.408095e+02  -3.150602e+02
   4.341499e+01  -4.484731e+02
   4.411319e+02  -3.667808e+02
   4.454642e+02  -2.648891e+02
   3.310253e+02   9.078235e+01
   1.242481e+01   3.049582e+02
  -1.467211e+02   2.653005e+02
  -8.713207e+01   6.526956e+01
   7.073856e+01  -7.589483e+01
   2.284181e+02  -5.553503e+00
   5.872739e+01   1.845874e+02
  -1.619180e+02   1.809161e+02
  -2.032457e+02  -1.312281e+02
   2.607071e+01  -1.569675e+02
   2.637037e+02  -7.679007e+01
   1.263304e+02   3.126665e+02
  -1.055780e+02   3.939268e+02
  -1.902987e+02   1.884674e+02
  -3.836225e+02  -4.329066e+01
  -3.356699e+02  -2.715420e+02
  -1.272471e+01  -2.707462e+02
   8.848534e+01  -1.686665e+02
   1.581529e+02  -4.547890e+00
   1.137275e+02   3.426660e+01
   5.374193e+01  -3.418740e+01
  -2.364101e+01  -1.133610e+02
   9.281154e+01  -1.170293e+02
   1.657072e+02  -2.958006e+01
   7.389117e+01   7.180042e+01
  -1.617355e+02   2.998333e+00
  -7.263352e+01  -8.618055e+01
   9.566813e+01  -9.499453e+01
   2.883162e+02  -1.020728e+01
   3.028005e+02   1.574244e+02
   2.957884e+01   2.698387e+02
  -2.287675e+02   3.018684e+02
  -3.014114e+02   1.108418e+02
  -1.641780e+02  -5.033345e+01
   1.937245e+01  -1.335174e+02
   1.320490e+02   1.714093e+00
  -1.572476e+01   8.626392e+01
  -1.984436e+02   6.418382e+01
  -2.232708e+02  -1.217098e+02
  -4.901907e+01  -2.360155e+02
   9.933528e+01  -1.071891e+02
   1.550221e+02   2.151816e+00
   7.224852e+01   4.782638e+01
  -4.006321e+01   3.593280e+00
  -6.139113e+01  -6.228302e+01
   6.866783e+01  -1.484179e+02
   1.469294e+02   1.459159e+01
   2.467328e+02   1.286128e+02
   4.666685e+01   2.406144e+02
  -1.596842e+02   1.671631e+02
  -2.035551e+02  -4.451343e+01
  -9.354157e+01  -7.636901e+01
   5.861156e+01  -1.261659e+02
   6.076471e+01  -2.693639e+01
   2.212208e+01   4.681594e+01
  -5.095098e+00   5.392474e+01
  -4.239907e+01  -4.642489e+01
   9.197008e+01  -1.979456e+01
   1.337514e+02   7.785964e+01
  -3.609298e+01   1.802819e+02
  -1.228852e+02   1.073234e+02
  -2.439221e+02   5.747361e+01
  -2.349136e+02  -1.536377e+02
  -5.604291e+01  -2.490275e+02
   1.306447e+02  -1.836548e+02
   1.553455e+02  -1.998108e+01
   9.603219e+01  -3.942574e+00
   2.876765e+01   4.108660e+01
   3.451230e+01   2.069538e+01
   7.468065e+01  -1.133659e+01
   4.070346e+01   3.049062e+01
  -7.367513e+01   1.041589e+02
  -1.122642e+02   5.362093e+01
  -5.148885e+01  -2.778312e+01
   1.820476e+01  -1.380886e+02
   1.565884e+02  -8.290765e+01
   1.935987e+02   8.545695e+01
   1.492217e+02   2.360091e+02
  -8.072715e+01   2.667718e+02
  -2.583444e+02   1.073215e+02
  -2.692096e+02  -1.073206e+02
  -8.822189e+01  -1.956540e+02
   1.512142e+01  -1.775570e+02
   7.953399e+01  -1.162620e+02
   6.728555e+01  -7.540343e+01
   4.177564e+01  -1.196500e+02
   9.603288e+01  -7.185944e+01
   1.665100e+02  -3.442536e+00
   7.987692e+01   1.209764e+02
   5.553856e+01   2.469632e+02
  -1.121075e+02   2.130284e+02
  -2.242220e+02   1.136106e+01
  -1.359881e+02  -1.470357e+02
  -1.535142e+01  -1.502435e+02
   9.131137e+01  -1.464421e+02
   2.318312e+00   1.917538e+01
   3.293284e+01   4.909652e+01
   9.434136e+00   2.244614e+00
   1.719073e+01  -4.197767e+00
   3.858253e+01   5.258351e+01
   7.851977e+01   1.110561e+02
  -9.500921e+01   2.293728e+01
  -1.308334e+02   8.384727e+00
  -1.266854e+02  -7.556103e+01
   3.067207e+01  -9.933481e+01
   1.578969e+02  -1.113364e+02
   1.692665e+02   2.119925e+00
   8.878824e+01   2.454417e+01
  -5.459590e+01   3.723644e+01
  -6.540807e+01   6.592999e+00
  -2.391723e+01  -1.260380e+02
   1.265324e+01  -7.941447e+01
   4.732481e+01   2.868151e+01
  -7.519195e+00   6.411641e+01
   7.588242e+01   8.461313e+01
   5.828623e+01   2.417221e+01
   1.122746e+02  -5.646730e+00
   6.701273e+01   1.092394e+02
  -5.404995e+01   1.651927e+02
  -1.290221e+02   1.572676e+02
  -1.761256e+02   6.939355e+01
  -1.872768e+02  -3.400708e+01
  -2.176905e+01  -6.913579e+01
   9.748946e+01  -3.606884e+01
   6.435744e+01   3.953991e+01
  -9.179192e+01   2.799538e+01
  -1.308231e+02  -4.090050e+01
  -5.223106e+01  -1.091568e+02
   8.324025e+01  -9.986148e+01
   2.086289e+02  -9.388287e+01
   1.627181e+02   3.071239e+01
   5.852890e+01   5.051249e+01
  -8.826547e+01   1.214191e+02
  -7.044368e+01   5.047892e+00
   2.183173e+01  -1.710904e+01
   9.890098e+01   3.119444e+01
   6.131819e+01   1.565999e+02
  -1.348096e+02   1.480939e+02
  -1.906078e+02   5.881571e+01
  -1.518089e+02  -9.984140e+01
  -1.104725e+01  -2.394489e+02
   5.810326e+01  -1.823032e+02
   1.003121e+02  -2.078890e+01
   4.897350e+01   1.378155e+02
  -2.361362e+01   1.492607e+02
  -1.023193e+02  -1.612203e+01
  -3.978216e+01  -7.217143e+01
  -1.734664e+01   1.327829e+01
  -1.562313e+01   1.162773e+01
   3.773222e+01  -1.112902e+01
  -2.626016e+01  -9.913859e+01
  -2.048166e+01  -1.055699e+02
   4.213321e+01  -7.293577e+01
   1.284363e+02   2.125559e+01
   1.200080e+02   9.141946e+01
   3.279872e+01   2.851661e+01
  -1.139608e+02   5.024417e+01
  -1.465093e+02  -2.340841e+01
  -2.037747e+01  -2.813115e+01
   6.381690e+01  -3.768466e+01
   2.867977e+00  -2.526812e+01
  -5.439495e+01   2.604151e+01
   1.685237e+01   4.006859e+01
   3.841188e+01   7.280145e+01
   7.502162e+01   1.676264e+01
  -2.631099e+01   8.594458e+01
  -9.739690e+01   9.374475e+01
  -1.988219e+02   9.570290e+01
  -1.155263e+02  -1.579709e+02
  -4.282006e+01  -2.040118e+02
   9.476313e+01  -1.543107e+02
   9.327779e+01  -4.997035e+01
   1.125813e+02   3.493420e+01
   1.441114e+01   6.508744e+01
   4.034637e+00  -2.606756e+00
   6.982184e+01  -3.745873e-01
   7.607064e+01   3.101778e+01
   3.667224e+01   1.318914e+02
  -6.370867e+01   6.705420e+01
  -6.659589e+01   1.817855e+01
  -8.208705e+01  -8.265766e+01
   2.326063e+01  -1.134391e+02
   4.996141e+01   1.869630e+01
   9.021829e+01   6.051778e+01
   1.120832e+00   8.018739e+01
  -5.673589e+01   8.924942e+01
  -1.745125e+02   3.519327e+01
  -5.509943e+01  -1.354236e+02
   5.215067e+01  -4.254016e+01
   6.187426e+01  -1.466574e+01
  -1.804627e+01   1.804605e+01
  -4.645302e+01   6.815089e+00
   4.193693e+00  -5.999382e+01
   9.108522e+01  -9.461617e+01
   1.306055e+02  -9.095314e+01
   4.382723e+01  -5.332956e-02
  -5.054496e+01   1.296277e+02
  -3.852991e+01   1.120346e+02
  -4.603135e+00  -1.743592e+00
  -3.219444e+00  -6.729400e+01
  -2.660807e+01  -4.728792e+01
   1.288341e+01   4.606440e+01
   3.348009e+01   8.503402e+01
   7.465831e+00   2.061564e+01
  -2.400865e+01   4.183256e+01
   3.677066e+01   4.056689e+01
  -4.133503e+01   6.956217e+00
  -5.108831e+01   3.815118e+01
   2.389226e-01  -1.288765e+01
   2.741604e+01  -2.559236e+00
  -1.671413e+01  -2.787109e+01
   5.007614e+01  -1.576160e+01
   1.821463e+01   4.031832e+01
  -9.039278e+00   7.142147e+01
  -6.446267e+01   1.807544e+01
  -3.871895e+01  -8.650951e+01
  -5.031329e+00  -1.183553e+02
   1.231012e+01  -5.911309e+01
   7.971678e+01   6.397266e+01
   8.028205e+00   3.783953e+01
  -3.452087e+01   6.503703e+01
  -6.393754e+01  -3.208919e+00
  -3.348412e+01   6.372048e+01
  -1.388575e+00   5.482838e+01
   1.106202e+02   6.914950e+01
  -4.403374e+01   7.297636e+01
  -5.189761e+01   7.954071e+01
