
 $NMID
 id='ANONYMOUS ', fmtdat='(2E16.6)'
 volume=1.0
 tramp=1.0
 $END
  -3.685245e+03  -2.975821e+01
  -2.302179e+03  -2.056104e+03
   2.417685e+02  -2.293482e+03
   1.521100e+03  -1.128916e+03
   9.218596e+02   8.851866e+01
  -2.474640e+02   3.162187e+02
  -6.001851e+02  -2.253977e+02
  -2.500760e+01  -7.361038e+02
   6.113158e+02  -7.010019e+02
   7.356397e+02   1.252529e+01
   4.946592e+02   6.285943e+02
  -6.355486e+01   7.625034e+02
  -4.174901e+02   1.981883e+02
  -2.432040e+02  -5.411997e+02
   1.627740e+02  -5.819809e+02
   4.955958e+02  -5.427752e+01
   3.040027e+02   5.673859e+02
  -1.805483e+02   6.190182e+02
  -5.164708e+02   1.841423e+02
  -3.709172e+02  -1.944512e+02
  -6.610269e+01  -3.479727e+02
   1.208187e+02  -2.510836e+02
   1.260376e+02  -2.462468e+01
  -1.870157e+02   3.928133e+01
  -3.801544e+02  -2.370900e+02
  -3.679259e+01  -3.426834e+02
   4.432739e+02  -1.918446e+02
   7.018725e+02   1.661843e+02
   2.479218e+02   4.297423e+02
  -3.675822e+02   2.602639e+02
  -5.733031e+02  -9.688764e+01
  -2.545742e+02  -4.185414e+02
   3.315922e+02  -4.288884e+02
   5.048397e+02  -1.707236e+02
   3.972464e+02   2.089325e+02
   1.386727e+02   3.448958e+02
  -4.755981e+01   2.200058e+02
  -3.426637e+00  -1.894278e+02
   2.287620e+02  -2.405910e+02
   2.886449e+02   1.101037e+02
   1.084239e+02   5.830058e+02
  -2.921077e+02   5.337786e+02
  -4.694919e+02  -1.592405e+01
  -1.470653e+02  -4.286206e+02
   2.465151e+02  -1.796619e+02
   2.494084e+02   2.943313e+02
  -9.489088e+01   4.531172e+02
  -4.824821e+02   6.920500e+01
  -5.605923e+02  -4.001916e+02
  -1.558776e+02  -5.656110e+02
   3.588041e+02  -3.164168e+02
   5.657165e+02   8.404888e+01
   3.733961e+02   3.067334e+02
  -1.265572e+02   2.739092e+02
  -3.368919e+02   9.373748e+01
  -1.576601e+02  -1.084518e+02
   3.689461e+01  -7.122371e+01
   8.594100e+01   8.216537e+01
  -1.307663e+02   9.290305e+01
  -2.490377e+02  -3.591806e+01
  -1.330893e+02  -2.338843e+02
   1.675683e+02  -2.561734e+02
   3.911389e+02  -1.312154e+02
   2.511113e+02   8.739303e+01
  -2.706370e+01   3.251269e+02
  -2.580377e+02   3.332361e+02
  -3.781199e+02   1.870223e+02
  -2.518519e+02  -1.117300e+02
  -1.056951e+02  -4.402174e+02
   8.665037e+01  -3.549435e+02
   6.137095e+01  -1.529717e+02
   1.525704e+01  -7.686260e+01
   6.439756e+01  -8.606583e+01
   1.676573e+02  -5.177538e+01
   2.302313e+02   1.145898e+02
   1.117431e+02   2.603172e+02
  -1.235711e+02   2.234167e+02
  -2.186531e+02  -4.288836e+00
  -1.456835e+02  -2.562189e+02
   4.986833e+01  -2.986913e+02
   2.822240e+02  -8.783698e+01
   3.434292e+02   1.572987e+02
   1.958083e+02   3.601631e+02
  -1.064347e+02   3.355783e+02
  -1.964390e+02   1.324038e+02
  -1.549530e+02   5.471654e+01
  -7.387805e+01   7.048352e+01
  -2.198685e+02   8.064847e+01
  -4.431717e+02  -3.705516e+01
  -3.309096e+02  -2.979590e+02
   2.850791e+01  -4.278153e+02
   3.736973e+02  -4.049093e+02
   5.039833e+02  -1.973634e+02
   2.935657e+02   8.019134e+01
   1.178910e+02   3.045807e+02
  -1.769319e+02   2.525403e+02
  -3.612782e+01  -3.065107e+01
   9.686494e+01  -8.315729e+01
   1.561709e+02   7.398169e+01
   4.916745e+01   1.625253e+02
  -9.955816e+01   1.433578e+02
  -8.188083e+01  -5.805691e+01
   1.560476e+01  -1.181177e+02
   1.735012e+02   3.077862e+01
   1.814542e+02   2.468998e+02
  -2.567201e+01   3.402016e+02
  -2.472340e+02   1.536395e+02
  -3.606841e+02  -1.109137e+02
  -2.847258e+02  -2.546741e+02
  -6.300778e+01  -2.368957e+02
   1.550566e+02  -1.280519e+02
   1.448582e+02  -2.438986e+01
   6.960783e+01  -3.285483e+01
  -1.721110e+01  -1.054706e+02
  -5.741055e+01  -9.804969e+01
   1.527403e+02  -5.813572e+01
   1.981842e+02  -2.530844e+01
   6.497909e+01   1.106680e+02
  -6.585876e+01   3.464133e+01
  -7.045587e+01  -1.198091e+02
   1.649757e+02  -1.348253e+02
   2.710065e+02   5.984443e+01
   2.071609e+02   1.078098e+02
   6.508283e+01   2.637554e+02
  -1.403336e+02   2.675451e+02
  -2.959126e+02   1.240004e+02
  -1.368549e+02  -5.885039e+01
  -2.872405e+01  -7.371836e+01
   1.153325e+02  -2.165911e+01
  -4.146314e+01   9.706459e+01
  -1.935397e+02   1.367493e+01
  -2.115975e+02  -7.445235e+01
  -6.769797e+01  -1.901236e+02
   8.834442e+01  -9.967847e+01
   1.581120e+02  -8.365005e+00
   5.985040e+01   2.252871e+01
  -1.049256e+02  -5.838080e+00
  -6.309493e+01  -8.846300e+01
   1.223783e+02  -1.123105e+02
   2.111709e+02  -3.572947e+01
   1.933948e+02   1.099883e+02
  -1.012138e+01   1.918975e+02
  -1.624557e+02   1.384186e+02
  -2.228527e+02  -1.401731e+01
  -4.537005e+01  -1.016186e+02
   1.056866e+02  -6.049006e+01
   9.764056e+01   1.607849e+01
  -3.841641e+01   1.320903e+01
  -3.404440e+01   1.320075e+01
  -7.596825e+00  -4.572588e+01
   8.605991e+01  -1.014127e+01
   1.628009e+02   7.435910e+01
   2.762552e+01   1.490895e+02
  -9.880598e+01   1.244553e+02
  -1.924059e+02  -1.209292e+01
  -2.283391e+02  -1.596702e+02
  -5.292743e+01  -1.792660e+02
   9.384226e+01  -1.695135e+02
   1.051649e+02  -5.284172e+01
   6.824413e+01   6.222588e+01
   3.313136e+01   9.725308e+01
   7.166004e+01  -6.910847e+01
   9.120635e+01  -4.135667e+01
   9.569632e+01   3.712629e+01
  -8.819806e+01   9.729200e+01
  -1.250366e+02   1.317881e+01
  -9.186747e+01  -2.438692e+01
   3.642207e+01  -1.572698e+02
   1.641967e+02  -5.311193e+01
   2.120315e+02   3.054115e+01
   9.283378e+01   1.677521e+02
  -1.622598e+02   2.409662e+02
  -3.101356e+02   6.861882e+01
  -2.400357e+02  -1.070493e+02
  -1.242606e+02  -1.415037e+02
   2.671643e+01  -1.616388e+02
   9.161522e+01  -1.166803e+02
   5.975296e+01  -2.986325e+01
   3.086707e+01  -7.940032e+01
   6.974032e+01  -5.450655e+01
   1.541891e+02   1.235842e+01
   1.365777e+02   1.213682e+02
  -4.810799e+00   2.183075e+02
  -6.763861e+01   1.746258e+02
  -2.165198e+02   4.388717e+01
  -1.137770e+02  -1.174745e+02
  -4.025860e+01  -2.015264e+02
   7.815084e+01  -1.634548e+02
   4.174249e+01   2.269695e+01
  -3.138983e+01   4.587269e+01
  -2.264388e+01  -8.352514e-01
   5.710008e+01  -2.146807e+01
   4.263962e+01   7.881544e+00
   5.375319e+01   3.313108e+01
  -9.226861e+01   4.368152e+01
  -2.098855e+02   1.191197e+01
  -1.411376e+02  -7.622637e+01
   1.278253e+01  -1.187268e+02
   1.118540e+02  -7.302916e+01
   1.166056e+02  -1.844272e+01
   8.315376e+01   3.060643e+01
  -1.200529e+02   7.867761e+01
  -4.237667e+01  -6.388354e+01
  -2.785190e+01  -3.993046e+01
   1.023130e+02  -1.068248e+02
   6.423324e+01  -4.774274e-01
   5.416807e+01   3.464426e+01
   2.974776e+01  -1.102105e+01
   6.556491e+01   1.200309e+01
   3.289469e+01  -1.590872e+01
  -2.133558e+01   5.181354e+01
  -5.240266e+01   1.408734e+02
  -1.040712e+02   1.694933e+02
  -1.893085e+02  -5.515954e+01
  -1.621580e+02  -6.888618e+01
   1.838448e+01  -1.292766e+02
   1.001452e+02  -7.099726e+01
   1.361490e+02   3.944999e+01
  -9.657925e+01  -6.177208e+00
  -1.752321e+02  -5.365594e+01
  -5.461392e+01  -9.153745e+01
   9.876946e+01  -1.144889e+02
   1.894806e+02  -7.074068e+00
   1.766517e+02   4.083055e+01
   4.761003e+01   7.697846e+01
  -1.138214e+01   1.391166e+01
  -7.803462e+01  -1.197302e+01
   4.919633e+01  -2.966217e+01
   5.300587e+01   3.225323e+01
   1.433668e+01   1.240423e+02
  -5.013339e+01   1.507280e+02
  -1.794961e+02   1.042006e+02
  -8.337076e+01  -1.417296e+02
  -2.738986e+01  -1.976971e+02
   7.495221e+00  -1.806458e+02
   8.151855e+01   1.846080e+01
   3.130027e+01   8.625546e+01
  -6.455168e+00   1.501890e+02
  -3.640829e+01   1.163880e+01
  -4.225575e+01  -3.320858e+01
  -7.510376e+00  -1.904941e+01
   4.711176e+01   2.745943e-01
  -8.408304e+00   1.600751e+01
  -3.153249e+01  -7.466073e+01
   1.390805e+00  -7.435282e+01
   6.990051e+01  -3.168811e+01
   1.600939e+02   5.560641e+01
   7.588121e+01   1.117193e+02
   1.422988e+01   7.139100e+01
  -8.576357e+01  -2.368905e+01
  -8.051761e+01  -2.454136e+01
   2.201377e+01  -3.238046e+01
   5.904235e+00  -7.248810e+01
  -1.464597e+01   1.690499e+01
  -5.350544e+01   9.090926e+00
   3.328151e+01  -1.840566e+01
   4.430788e+01   1.931513e+01
   1.115247e+02   1.602131e+01
   7.829915e+01   1.130100e+02
  -9.776080e+01   1.165067e+02
  -1.654205e+02   8.274967e+01
  -1.591536e+02  -9.054031e+01
  -4.078709e+01  -1.596187e+02
   4.927526e+01  -1.534478e+02
   1.013193e+02  -3.804625e+01
   1.057782e+02  -2.808054e+01
   3.760029e+01   5.769188e+01
   2.717567e+01   1.733817e+01
  -2.350291e+01  -1.523739e+01
   3.021630e+01   2.690620e+01
  -9.563468e+00   1.154388e+02
  -6.895698e+01   6.371352e+01
  -8.553503e+01  -4.966064e+01
  -1.126715e+02  -8.555892e+01
  -5.078275e+01  -1.266263e+02
   9.257249e+01  -9.357385e+01
   8.146890e+01   7.585650e+01
   7.028178e+01   1.256984e+02
  -9.365118e+01   3.531904e+01
  -1.092598e+02  -1.789203e+01
  -8.170635e+01  -4.314906e+01
  -1.375799e-01  -1.033299e+02
  -8.755482e+00  -7.796598e+01
   1.443110e+01  -1.323673e+01
  -8.497577e+01   3.653554e+01
  -5.650617e+01  -3.323725e+01
   8.758547e+01  -8.328182e+01
   1.481008e+02  -3.888418e+01
   6.099592e+01   9.378082e+00
   1.401348e+01   6.371689e+01
  -1.787269e+01   1.305467e+02
  -1.131166e+01   4.596463e+01
   1.349168e+01  -6.208705e+01
   8.896597e+01  -4.679107e+01
   5.693558e+01  -1.108403e+01
  -3.591335e+01   3.605903e+01
   2.326562e+01   6.786609e+01
  -7.313048e+01  -1.337589e+01
  -7.209690e+01  -1.992790e+01
  -1.700714e+01   3.133879e+01
   8.403858e+00   7.350197e+00
   1.380582e+01   4.160212e+01
   2.730444e+00  -5.105256e+01
   1.148307e+01  -5.224455e+01
  -4.049231e+00  -4.015254e+01
   2.136983e+01   4.922936e+01
   3.076130e+01   7.806296e+01
  -1.840674e+01   1.071792e+00
  -8.371651e+01  -6.857229e+01
  -1.781683e+01  -4.563144e+01
   6.905770e+01  -5.919880e+01
   9.667737e+01   1.411360e+01
   9.672655e+01  -2.926334e-01
   7.042749e-01   7.323792e+01
  -5.084160e+01   3.075949e+01
   2.215898e-01   5.430142e+01
   1.469192e+01  -3.125773e+01
   3.511537e+01   1.835693e+01
  -2.447221e+01   2.390165e+01
  -8.262689e+01   2.465111e+01
