
 $NMID
 id='ANONYMOUS ', fmtdat='(2E16.6)'
 volume=1.0
 tramp=1.0
 $END
  -3.892352e+03   4.428530e+00
  -2.392638e+03  -2.125273e+03
   3.291301e+02  -2.489346e+03
   1.748939e+03  -1.111442e+03
   9.862669e+02   2.465307e+02
  -3.929373e+02   3.922995e+02
  -6.641883e+02  -2.947511e+02
  -2.305676e+01  -8.729620e+02
   5.923579e+02  -7.613773e+02
   8.437176e+02  -8.998258e+00
   4.550834e+02   7.207234e+02
  -1.546414e+02   8.155787e+02
  -4.611411e+02   1.429248e+02
  -2.785990e+02  -6.513637e+02
   1.835360e+02  -6.839835e+02
   5.737233e+02  -2.868162e+01
   2.489998e+02   5.971959e+02
  -2.127407e+02   7.011014e+02
  -4.935652e+02   2.097895e+02
  -4.472229e+02  -2.241516e+02
  -4.489653e+01  -4.386824e+02
   2.286639e+02  -2.782289e+02
   1.624488e+02  -7.875479e+00
  -1.772234e+02  -3.782036e+01
  -3.759218e+02  -1.633946e+02
  -1.678694e+02  -4.039217e+02
   4.554518e+02  -3.268201e+02
   7.566216e+02   1.396294e+02
   3.698755e+02   4.344197e+02
  -3.891363e+02   3.823551e+02
  -6.604538e+02  -7.630249e+01
  -2.554326e+02  -4.257991e+02
   2.445642e+02  -4.545681e+02
   5.900077e+02  -1.575729e+02
   3.987875e+02   1.417115e+02
   8.502404e+01   4.547582e+02
  -1.283168e+02   2.328194e+02
  -1.478156e+02  -1.665948e+02
   1.751915e+02  -2.709136e+02
   3.428888e+02   1.014616e+02
   1.418484e+02   6.084559e+02
  -2.752888e+02   5.816930e+02
  -4.235689e+02  -5.178550e+00
  -1.839012e+02  -4.282260e+02
   1.815374e+02  -2.937961e+02
   2.696873e+02   2.736550e+02
  -1.103584e+02   4.482150e+02
  -4.910142e+02   9.700067e+01
  -5.523963e+02  -3.791343e+02
  -1.447050e+02  -5.474432e+02
   3.071483e+02  -3.331971e+02
   5.816652e+02   4.339853e+01
   3.565588e+02   3.211888e+02
  -1.311274e+02   3.139337e+02
  -3.337500e+02   9.835027e+01
  -2.642464e+02  -1.232247e+02
   3.183166e+01  -4.797513e+01
   1.387510e+02   1.256503e+02
  -1.390328e+02   9.865087e+01
  -3.256388e+02  -3.515171e+01
  -1.927693e+02  -2.178371e+02
   2.198002e+02  -2.668765e+02
   2.919992e+02  -1.159026e+02
   2.325950e+02   6.825263e+01
  -2.724455e+01   2.677834e+02
  -2.585631e+02   3.554959e+02
  -3.580042e+02   1.898172e+02
  -2.590322e+02  -1.559509e+02
  -8.071686e+01  -3.636700e+02
   1.042503e+02  -2.781541e+02
   8.941699e+01  -1.579341e+02
  -1.002744e+01  -6.861361e+01
   6.362180e+01  -9.572660e+01
   2.355604e+02  -1.214135e+02
   3.038955e+02   2.473601e+01
   1.215102e+02   2.865373e+02
  -3.502388e+01   2.374988e+02
  -2.314763e+02  -2.516662e+01
  -2.071228e+02  -2.269911e+02
  -7.048859e+00  -2.936964e+02
   2.723103e+02  -1.096611e+02
   3.766203e+02   1.458701e+02
   1.526014e+02   3.126329e+02
  -4.452872e+01   2.544197e+02
  -1.963728e+02   1.770717e+02
  -1.599792e+02   4.820799e+01
  -1.597500e+02   2.928998e+01
  -2.833250e+02   4.998262e+01
  -4.147603e+02  -9.273114e+01
  -3.377789e+02  -2.894906e+02
  -3.205044e+00  -4.198506e+02
   3.380890e+02  -3.789095e+02
   4.563093e+02  -1.344915e+02
   3.547188e+02   7.420864e+01
   1.446385e+01   2.404105e+02
  -1.464985e+02   2.186637e+02
  -5.397340e+01   4.314924e+01
   1.375353e+02  -6.401339e+01
   1.660168e+02  -4.910769e+01
  -1.290486e+01   1.879376e+02
  -1.900585e+02   1.705496e+02
  -1.722038e+02  -4.117654e+01
   2.417548e+00  -1.705867e+02
   2.015377e+02  -2.047848e+01
   1.405606e+02   2.262298e+02
  -5.064594e+01   3.499942e+02
  -2.142442e+02   2.054536e+02
  -3.714950e+02  -1.001612e+02
  -2.712670e+02  -2.385195e+02
  -5.219464e+01  -3.049352e+02
   1.541049e+02  -1.672820e+02
   1.425407e+02   3.519804e+01
  -1.258026e+01   1.005309e+01
  -9.386297e+00  -4.209801e+01
  -6.028123e+01  -1.126395e+02
   1.537034e+02  -6.281047e+01
   1.534526e+02   2.868366e+00
   2.719549e+01   6.344010e+01
  -6.438118e+01  -3.207472e+01
  -3.285252e+01  -7.330288e+01
   1.512997e+02  -7.094041e+01
   3.066561e+02   1.245881e+01
   3.067680e+02   1.515564e+02
   3.874735e+01   2.699749e+02
  -1.902996e+02   2.781331e+02
  -2.569267e+02   7.852413e+01
  -1.223125e+02  -4.362104e+01
  -1.035317e+01  -8.788278e+01
   5.951786e+01  -1.385353e+01
  -4.916678e+01   1.157314e+02
  -1.821229e+02   4.136618e+01
  -2.190174e+02  -1.282699e+02
  -4.691111e+01  -1.233196e+02
   7.625483e+01  -1.919431e+02
   1.341099e+02  -3.491112e+01
   3.106406e+01   2.408583e+01
  -4.596405e+01  -2.047065e+01
  -3.789283e+01  -1.021551e+02
   8.688327e+01  -1.064713e+02
   2.109245e+02   3.698650e+00
   1.718939e+02   1.331806e+02
   2.356513e+01   1.861242e+02
  -1.463870e+02   1.092415e+02
  -2.117240e+02  -5.653717e+00
  -8.314073e+01  -1.014510e+02
   1.153298e+02  -5.445605e+01
   9.361386e+01  -3.113030e+01
   2.218520e+01  -7.865196e+00
  -4.349461e+01   1.504902e+01
   6.287642e+00  -1.846012e+01
   8.837741e+01   2.078103e+01
   1.507622e+02   5.681337e+01
  -3.886851e+01   1.781516e+02
  -1.150108e+02   2.029392e+02
  -1.225708e+02  -1.707298e+01
  -2.071139e+02  -1.825599e+02
  -3.515685e+01  -2.421239e+02
   8.690333e+01  -1.376182e+02
   1.838591e+02   6.291365e+00
   1.004548e+02   6.134490e+01
   1.286031e+01   6.961467e+01
   6.644293e+01   3.359989e+01
   8.431762e+01  -1.174893e+01
   9.057964e+01   9.142276e+01
  -5.668341e+00   1.032258e+02
  -7.810480e+01   6.137353e+01
  -1.259528e+02   3.607273e+00
   2.774744e+01  -1.104794e+02
   1.791710e+02  -8.401620e+01
   1.454645e+02   5.600779e+01
   1.237206e+02   2.147427e+02
  -7.536573e+01   1.946449e+02
  -1.717745e+02   1.298808e+02
  -2.801953e+02  -1.084090e+02
  -1.210481e+02  -1.643356e+02
   4.470718e+01  -1.463184e+02
   1.248605e+02  -5.444694e+01
   8.370835e+01  -7.455626e+01
   7.183725e+01  -9.906332e+01
   1.167129e+02  -1.169097e+02
   1.203985e+02  -3.220501e+01
   1.403717e+02   1.026440e+02
   2.178751e+01   2.604982e+02
  -7.173658e+01   1.844444e+02
  -1.694340e+02  -3.947267e+01
  -1.373886e+02  -1.647376e+02
  -7.405623e+00  -1.813847e+02
   6.450182e+01  -6.285223e+01
   2.504436e+01   1.804209e+00
   5.279588e+01  -2.208139e+00
   6.142369e+00   1.498802e+01
   8.050257e+00   3.197712e+00
   9.243608e+01   1.261660e+01
   4.521588e+01   9.068442e+01
  -8.474557e+01   4.124825e+01
  -1.659680e+02   5.917631e+01
  -1.262512e+02  -4.039292e+01
  -1.699693e+01  -1.417919e+02
   1.947533e+02  -7.108003e+01
   1.669753e+02  -3.867988e+01
   4.181919e+01   1.173413e+01
  -6.443704e+01   4.246209e+01
  -1.358720e+02  -8.122685e+00
  -9.667850e+00  -1.322038e+02
   3.285340e+01  -7.477713e+01
   7.635244e+01  -1.003652e+01
   3.951538e+01   2.986574e+01
   5.747511e+01   4.734374e+01
   7.588869e+01  -1.047096e+01
   3.737140e+01   2.156942e+01
   4.610026e+01   4.789368e+01
  -3.789778e+01   1.583236e+02
  -1.157464e+02   9.570529e+01
  -1.615235e+02   1.328198e+01
  -1.081614e+02  -7.574103e+01
  -2.804795e+01  -1.513047e+02
   3.651346e+01  -8.742657e+01
   2.511370e+01   1.598351e+01
  -7.391810e+01   3.590436e+01
  -1.358344e+02  -5.869268e+01
  -5.852988e+01  -7.917009e+01
   1.200696e+02  -1.999530e+02
   1.794153e+02  -5.406954e+01
   1.557845e+02   2.737794e+01
   1.792159e+01   6.891817e+01
  -6.434196e+01   1.331947e+02
  -4.733689e+01  -1.144270e+01
   9.318768e+01  -1.032941e+02
   5.727993e+01   1.618933e+01
   3.316566e+01   1.201970e+02
  -5.063836e+01   1.820051e+02
  -2.518193e+02   5.687266e+01
  -1.514781e+02  -9.831264e+01
   1.009851e+01  -2.412026e+02
   1.261649e+02  -1.925662e+02
   1.502681e+02  -1.603615e+01
   3.848197e+01   1.021155e+02
  -2.340415e+01   1.012920e+02
  -3.535394e+01  -1.370136e+01
  -4.342250e+01  -7.677751e+01
   3.763784e+01  -6.315144e+00
  -2.864611e+01   1.590530e+01
  -8.851535e+00  -5.174197e+01
  -1.078377e+02  -5.694395e+01
  -7.860325e+01  -1.193446e+02
   1.359897e+01  -5.559891e+01
   1.297944e+02   6.362342e+01
   1.088446e+02   1.090413e+02
   3.631028e+00   5.848286e+01
  -7.709353e+01   5.673525e+01
  -8.203515e+01   2.666792e+01
   2.561605e+01  -3.193109e+01
   7.872432e+01   3.337333e+01
  -2.063174e+01  -5.132844e+01
  -2.813174e+01   8.351753e+00
  -4.862154e+01   3.119772e+01
   1.019806e+02   1.301393e+01
   1.231546e+02   3.106457e+01
   3.170341e+01   3.443789e+01
  -1.196873e+02   1.153377e+02
  -1.931590e+02   5.440151e+01
  -8.962111e+01  -3.305428e+01
  -1.080566e+02  -1.063762e+02
   1.138964e+02  -1.361934e+02
   1.385112e+02  -5.560667e+01
   1.002219e+02   1.116766e+01
  -3.666557e+01   4.271481e+01
  -5.664187e+00  -3.326907e+01
   5.207818e+01  -4.323602e+01
  -6.400102e+00  -5.534285e+00
   3.677860e+01   1.456266e+02
   9.724783e+00   8.720776e+01
  -7.642646e+01  -1.759822e+01
  -8.321276e+01  -7.336748e+01
   5.091622e+00  -1.091249e+02
   8.302192e+01  -2.752878e+01
   9.482373e+01   3.419919e+01
   4.606375e+01   1.450277e+02
  -3.306000e+01   8.150419e+01
  -1.027310e+02   3.231095e+00
  -1.588887e+01  -4.410033e+01
   4.211217e+01  -3.243543e+01
   9.122569e+00  -3.964866e+01
  -4.433749e+01   2.642250e+00
  -1.151852e+02   4.121705e+01
  -9.862632e+01  -4.799116e+01
   1.194515e+02  -9.577946e+01
   1.505213e+02  -6.147395e+01
   8.734434e+01   2.077683e+01
   2.632321e+01   6.725585e+01
  -7.054521e+01   8.466356e+01
  -3.386379e+01   2.482459e+01
   4.533927e+01  -5.869145e+01
   1.438865e+01  -6.199668e+01
   8.758114e+01   3.441509e+00
   2.747693e+01   4.865690e+01
  -4.196766e+00   7.997770e+01
  -1.380082e+01  -3.952614e+00
  -3.353919e+01  -4.169997e+01
  -1.341784e+00   4.967830e+01
   5.891468e+00   7.501385e+00
   2.424110e+01   3.235677e+00
  -5.363650e+00  -2.373197e+01
   2.737126e+00  -7.341247e+01
   1.299873e+01  -3.319015e+01
   6.322834e+01  -1.230629e+01
   3.925745e+01   5.368143e+01
  -2.189438e+01   6.295804e+00
  -6.533160e+01  -7.999290e+01
  -1.266510e+01  -7.903511e+01
   1.936466e+01   1.375295e+01
   5.979709e+01  -3.740689e+01
   2.816901e+01   9.616980e+01
  -5.710407e+01   2.950753e+01
  -6.821705e+01   3.306961e+01
  -5.532000e+01  -8.160974e+00
   8.190922e+00  -9.196989e+00
   5.317769e+01  -3.477348e+00
  -4.992556e+01   2.514007e+01
  -1.070712e+02   1.205443e+01
