
 $NMID
 id='ANONYMOUS ', fmtdat='(2E16.6)'
 volume=1.0
 tramp=1.0
 $END
  -4.445642e+03   1.283761e+01
  -2.645163e+03  -2.608341e+03
   6.859073e+02  -2.766983e+03
   2.090360e+03  -9.846472e+02
   1.006342e+03   6.005220e+02
  -6.020161e+02   5.363439e+02
  -8.858778e+02  -3.947501e+02
   1.312551e+01  -1.037522e+03
   8.483907e+02  -7.619139e+02
   9.505612e+02   5.043596e+01
   4.666649e+02   8.419047e+02
  -2.453202e+02   9.007387e+02
  -6.227440e+02   8.373848e+01
  -3.923740e+02  -7.251797e+02
   2.705372e+02  -7.993901e+02
   5.760310e+02   3.177460e+01
   3.025037e+02   6.870031e+02
  -3.496343e+02   6.404339e+02
  -6.076934e+02   1.377878e+02
  -3.976802e+02  -3.611300e+02
  -1.602811e+01  -4.700024e+02
   2.481658e+02  -2.804005e+02
   2.189701e+02  -1.945084e+01
  -1.023532e+02   4.197599e+01
  -4.588013e+02  -1.343454e+02
  -1.908662e+02  -4.780547e+02
   4.902800e+02  -4.066981e+02
   8.170469e+02   1.295223e+02
   4.731870e+02   5.691862e+02
  -4.405521e+02   4.930604e+02
  -7.301141e+02  -1.987176e+01
  -3.511444e+02  -4.603850e+02
   3.027826e+02  -5.085646e+02
   6.190850e+02  -2.065630e+02
   4.038839e+02   2.401115e+02
   1.316809e+02   4.222962e+02
  -2.130308e+02   3.280377e+02
  -2.018962e+02  -1.794628e+02
   1.357652e+02  -4.441917e+02
   4.068486e+02   6.191730e+01
   2.540303e+02   6.905842e+02
  -3.101540e+02   7.464406e+02
  -6.155424e+02   4.506433e+01
  -2.534683e+02  -5.554165e+02
   3.464145e+02  -2.711435e+02
   4.029334e+02   3.398326e+02
  -9.141629e+01   5.548842e+02
  -6.617703e+02   1.022662e+02
  -5.942077e+02  -4.684022e+02
  -1.305561e+02  -5.971904e+02
   4.265017e+02  -3.264995e+02
   5.926093e+02   7.389516e+01
   3.295143e+02   4.071437e+02
  -1.755104e+02   3.564063e+02
  -4.393257e+02   3.738020e+01
  -2.731731e+02  -1.850248e+02
   6.706308e+01  -1.184257e+02
   1.059723e+02   1.496545e+02
  -1.067329e+02   1.868886e+02
  -3.645675e+02  -4.234278e+01
  -1.702766e+02  -3.204975e+02
   1.821794e+02  -2.948382e+02
   3.751452e+02  -4.392655e+01
   1.693654e+02   1.225963e+02
   3.401203e-01   2.691644e+02
  -1.894084e+02   3.013306e+02
  -3.765793e+02   2.104391e+02
  -3.105083e+02  -9.592452e+01
  -2.268759e+01  -3.856433e+02
   1.223135e+02  -4.504867e+02
   1.032938e+02  -6.039218e+01
   7.047490e+01   2.547077e+01
   4.782904e+01  -1.063652e+02
   2.282823e+02  -1.600274e+02
   2.844247e+02   9.798082e+01
   1.740388e+02   2.305862e+02
  -5.534961e+01   2.611813e+02
  -1.887681e+02   3.024730e+01
  -1.865535e+02  -2.345616e+02
   2.905840e+01  -3.377906e+02
   2.667721e+02  -1.270844e+02
   3.690037e+02   1.388751e+02
   2.039010e+02   3.937367e+02
  -1.649679e+01   3.074712e+02
  -2.006144e+02   1.518048e+02
  -1.239562e+02  -3.187153e+01
  -1.470805e+02   4.400070e+00
  -2.921426e+02   2.649150e+00
  -3.741306e+02  -1.002539e+02
  -3.340833e+02  -2.695344e+02
  -2.520900e+01  -4.167397e+02
   3.659733e+02  -4.180842e+02
   5.127126e+02  -2.638470e+02
   3.701999e+02   1.280784e+02
   7.883592e+01   3.522798e+02
  -1.474652e+02   2.354582e+02
  -7.459554e+01   5.804702e+01
   9.948008e+01  -1.237148e+02
   2.195383e+02  -2.350676e+01
   5.642481e+01   2.016070e+02
  -1.505369e+02   2.015913e+02
  -1.710349e+02  -5.720088e+01
  -1.875499e+01  -2.376668e+02
   1.561586e+02  -2.240241e+01
   1.864752e+02   2.878570e+02
  -2.375763e+01   3.606413e+02
  -2.132619e+02   2.095141e+02
  -3.508125e+02  -3.915859e+01
  -2.922781e+02  -2.708412e+02
  -4.782769e+01  -2.888640e+02
   1.477857e+02  -1.588443e+02
   1.917946e+02  -9.154268e+01
   7.114254e+01   3.959688e+01
  -6.383431e+01  -5.476525e+01
  -1.247279e+01  -7.632266e+01
   1.192391e+02  -9.242752e+01
   1.476136e+02   2.325210e+01
   7.766178e+01   8.147617e+01
  -5.766918e+01   6.647178e+01
  -6.206032e+01  -8.973591e+01
   1.143732e+02  -4.590961e+01
   2.716727e+02   3.493123e+01
   3.072805e+02   8.014094e+01
   8.275944e+01   2.429811e+02
  -2.364246e+02   3.010964e+02
  -3.145368e+02   1.431743e+02
  -2.367416e+02  -4.014826e+01
   3.634827e+01  -1.081927e+02
   6.803989e+01   6.278508e+00
  -2.513678e+01   1.132013e+02
  -2.044622e+02   6.464185e+00
  -2.690179e+02  -7.736290e+01
  -1.066027e+02  -2.258465e+02
   1.391199e+02  -1.226020e+02
   1.708972e+02  -1.528966e+00
   1.197867e+02   3.324051e+01
  -2.236331e+01  -2.189057e+01
  -3.309988e+01  -9.202009e+01
   3.244057e+01  -1.021165e+02
   1.912506e+02  -9.683664e+00
   1.633542e+02   1.494779e+02
   6.011164e+01   2.649808e+02
  -1.456245e+02   2.004281e+02
  -2.558564e+02   1.785053e+01
  -5.591420e+01  -9.256090e+01
   3.263397e+01  -1.093538e+02
   7.623059e+01  -1.997060e+01
   2.536684e+01   4.089189e+01
  -4.362615e+01   1.659602e+01
   1.666656e+01   2.298170e+01
   9.075282e+01  -1.166858e-01
   7.543266e+01   7.179243e+01
   3.003417e+01   1.346094e+02
  -9.214066e+01   1.264702e+02
  -2.504380e+02   2.023444e+01
  -1.795141e+02  -1.212338e+02
  -3.018132e+01  -2.485534e+02
   9.990557e+01  -1.756995e+02
   1.010363e+02  -9.282102e-01
   5.059803e+01   3.924256e+01
   5.137310e+01  -1.207455e+01
   5.114497e+01  -9.175678e-02
   3.115120e+01   6.122122e+01
   3.484893e+01  -6.316225e+00
  -9.725561e+00   1.100205e+02
  -1.647269e+02   4.667453e+01
  -5.348409e+01  -3.619927e+00
   5.777797e+01  -1.235634e+02
   1.192181e+02  -9.003902e+01
   2.261123e+02  -2.885661e+00
   7.220456e+01   2.412929e+02
  -9.445608e+01   1.936728e+02
  -1.828800e+02   1.088304e+02
  -2.302646e+02  -7.066274e+01
  -8.970525e+01  -1.671979e+02
   8.758298e+01  -1.734915e+02
   8.084434e+01  -1.462408e+02
   1.218932e+02  -7.536734e+01
   6.816961e+01  -7.817007e+01
   6.871498e+01  -9.994622e+01
   7.868349e+01   3.508016e+01
   1.479339e+02   1.806893e+02
   7.052620e+01   2.348338e+02
  -1.395605e+02   1.463856e+02
  -1.367245e+02   1.902219e+01
  -1.696977e+02  -1.183005e+02
   3.128872e+01  -1.459363e+02
   6.503909e+01  -8.684637e+01
   4.285925e+01   1.459913e+00
  -5.033452e+01   6.765236e+01
  -3.671449e+01   6.410603e+01
   3.547520e+01   3.071643e+00
   9.590988e+01  -6.945440e+00
   5.568812e+01   7.738305e+01
  -1.224194e+02  -1.723752e+01
  -1.867933e+02   6.328634e+01
  -1.605372e+02  -6.061562e+01
  -1.903947e+01  -6.299569e+01
   8.381721e+01  -5.322648e+01
   1.917642e+02   3.386497e+01
   5.759324e+01   5.119097e+01
  -1.913111e+01   5.589520e+01
  -2.611592e+01  -6.260258e+01
  -3.566891e-01  -4.396473e+01
   4.752534e+01  -8.098028e+00
   7.777260e+01  -3.488702e+01
   3.619506e+01   7.752837e+01
   2.136329e+01   2.489451e+01
   1.404894e+02  -1.832092e+01
   9.994096e+01  -2.424334e+01
   2.301453e+01   3.512899e+01
  -3.264448e+01   1.115613e+02
  -8.457290e+01   1.054221e+02
  -1.421959e+02   2.811618e+01
  -1.229272e+02  -9.813022e+01
   2.734993e+01  -1.716421e+02
   1.116086e+02  -4.813149e+01
   8.298736e+01   4.691504e+01
  -3.694832e+01   1.000013e+01
  -1.177919e+02  -1.711338e+01
  -6.429589e+01  -7.159558e+01
   1.195234e+02  -1.229655e+02
   1.631945e+02  -1.244924e+02
   1.434195e+02   4.811113e+01
   8.860844e+00   6.584237e+01
  -8.148164e+01   9.721462e+01
  -4.921910e+01   2.143213e+01
   4.747162e+01  -4.285831e+01
   8.361478e+01   2.127811e+00
   5.297680e+01   1.281440e+02
  -7.032457e+01   1.530087e+02
  -1.671811e+02   5.906204e+01
  -1.403196e+02  -1.020559e+02
   1.977587e+01  -1.936711e+02
   1.035283e+02  -1.320362e+02
   7.194689e+01  -1.002583e+01
   7.466938e+01   1.344680e+02
   1.439148e+01   6.060727e+01
  -1.114525e+01   4.852540e+01
  -8.142316e+01  -5.672974e+01
   1.458179e+01  -1.138218e+00
  -2.274894e+01  -2.689262e+01
  -2.277364e+01  -1.719663e+01
  -9.961859e+01  -1.063524e+02
  -6.665890e+01  -7.895189e+01
   7.915073e+01  -5.191465e+01
   1.361958e+02   2.013435e+01
   1.580298e+02   6.046293e+01
  -3.309444e+01   1.049846e+02
  -3.003626e+01   3.190419e+01
  -1.286166e+02   1.124919e+01
  -5.383731e+01  -2.339750e+01
   3.794632e+01  -1.029125e+02
  -1.344868e+01  -7.389623e+01
  -1.719340e+01   3.066602e+01
   4.348847e+01  -3.068891e+01
   5.779996e+01  -4.975420e+01
   8.786371e+01   1.784635e+01
  -2.956787e+01   7.657053e+01
  -1.708716e+02   1.501681e+02
  -2.394110e+02   8.130268e+01
  -1.800679e+02  -8.335850e+01
   1.379940e+01  -1.573463e+02
   8.152756e+01  -1.335746e+02
   9.374851e+01  -4.407936e+01
   1.035635e+02   2.429089e+01
   4.499186e+01   3.993102e+01
   2.062816e+01   1.064801e+01
   2.953766e+00  -5.659630e+01
   1.028135e+01   1.704340e+01
   2.268264e+01   1.166427e+02
  -4.560272e+01   5.841601e+01
  -2.544612e+01  -3.482589e+01
  -7.060792e+01  -9.103726e+01
   3.547158e+00  -6.061838e+01
   8.816948e+01   1.191837e+01
   9.967903e+01   1.033590e+02
   2.987376e+01   7.194641e+01
  -3.970080e+01   1.066370e+02
  -4.432770e+01   1.726604e+01
  -5.726861e+01  -1.039934e+02
   4.988232e+01  -6.317041e+01
   4.102367e+01  -4.891415e+01
  -9.974615e+01   9.051022e+00
  -5.047567e+01  -1.274939e+01
  -1.687715e+01   4.054437e+01
   6.422795e+01  -8.266137e+00
   1.124507e+02  -1.878717e+01
   4.162297e+01  -1.903291e+01
  -6.910092e+01   5.734941e+01
  -1.810273e+01   7.687215e+01
  -4.501675e+01   3.409324e+01
   1.803143e+01  -4.720908e+01
   8.096805e+01  -1.356886e+01
   5.801393e+01   8.063812e+01
   4.016163e+01   7.222842e+01
   1.793630e+01  -1.733127e+01
  -4.586704e+01   1.443885e+01
   5.788152e+00  -3.574824e+01
  -2.012411e+01  -8.665362e-01
  -3.673658e+01   4.794828e+01
  -4.346278e+01   6.289315e+01
  -4.384394e+01  -4.572267e+01
   2.751849e+01  -5.917125e+01
   2.798794e+01  -3.687674e+00
   1.047951e+02   3.439200e+01
   2.024219e+00   6.561060e+01
  -4.662505e+01   2.179388e+01
  -3.736765e-01  -7.911544e+01
  -1.141235e+01  -8.534143e+01
   1.224693e+02  -4.403603e+00
   3.875726e+01   1.005567e+01
   5.757369e+01   1.051791e+02
  -3.717413e+01   2.244162e+01
  -5.023738e+01  -1.785348e+01
  -2.102093e+01  -2.020847e+01
   6.355233e+01   1.948059e+01
   5.929387e+01  -9.261188e+00
  -8.284286e+01   8.873570e+00
  -8.413081e+01  -1.954119e+01
