
 $NMID
 id='ANONYMOUS ', fmtdat='(2E16.6)'
 volume=1.0
 tramp=1.0
 $END
   4.468002e+03   6.772703e+01
   2.565514e+03   2.701703e+03
  -8.238531e+02   2.789942e+03
  -2.172575e+03   7.967325e+02
  -8.535322e+02  -6.773103e+02
   7.614646e+02  -5.374671e+02
   9.105655e+02   5.182574e+02
  -7.567995e+01   1.179301e+03
  -7.840426e+02   7.965832e+02
  -1.026214e+03  -1.324206e+02
  -4.015886e+02  -9.047749e+02
   2.577456e+02  -9.532801e+02
   6.969141e+02  -1.006660e+02
   3.835571e+02   7.835011e+02
  -3.491371e+02   7.715300e+02
  -5.963324e+02   1.021791e+01
  -2.728298e+02  -6.831275e+02
   3.498543e+02  -6.444121e+02
   6.216299e+02  -8.700347e+01
   3.611805e+02   3.434980e+02
   3.704237e+01   4.313813e+02
  -2.015760e+02   2.560991e+02
  -2.317859e+02  -2.092605e+00
   1.182070e+02  -7.973246e+01
   4.416034e+02   1.793764e+02
   2.662017e+02   5.016470e+02
  -5.107719e+02   4.427833e+02
  -9.126497e+02  -6.598372e+01
  -4.311166e+02  -5.175654e+02
   3.592626e+02  -4.907838e+02
   7.902591e+02   3.120044e+01
   3.792607e+02   4.688769e+02
  -3.129055e+02   5.472272e+02
  -5.886449e+02   1.913969e+02
  -4.192335e+02  -2.559042e+02
  -1.047178e+02  -4.870751e+02
   2.539098e+02  -3.581183e+02
   1.835927e+02   2.803246e+02
  -2.301266e+02   4.694077e+02
  -5.207274e+02  -6.422003e+01
  -2.869665e+02  -7.337516e+02
   3.090920e+02  -7.961832e+02
   6.404553e+02   6.565013e+00
   2.173452e+02   6.269794e+02
  -2.969820e+02   2.943025e+02
  -3.934508e+02  -3.289033e+02
   7.149433e+01  -5.813826e+02
   5.070123e+02  -1.127810e+02
   6.149560e+02   4.197328e+02
   1.677180e+02   6.191244e+02
  -3.974379e+02   3.483572e+02
  -6.674775e+02  -9.389948e+01
  -3.746935e+02  -3.908861e+02
   1.444377e+02  -3.593666e+02
   4.560739e+02  -7.866515e+01
   2.367627e+02   2.262043e+02
  -1.473230e+02   1.251334e+02
  -1.572233e+02  -1.823984e+02
   1.553958e+02  -2.130880e+02
   3.362379e+02   7.117940e+01
   1.280289e+02   2.956546e+02
  -2.133060e+02   2.620283e+02
  -3.157052e+02   9.889951e+01
  -1.640562e+02  -9.784232e+01
   7.245259e+01  -2.103182e+02
   2.065676e+02  -2.873079e+02
   3.714442e+02  -2.369462e+02
   2.702529e+02   1.319653e+02
   5.031486e+01   4.410695e+02
  -1.233349e+02   4.067169e+02
  -1.933810e+02   8.819602e+01
  -3.101073e+01  -3.238300e+01
  -6.129326e+01   8.389283e+01
  -1.917401e+02   1.295853e+02
  -2.702893e+02  -5.557104e+01
  -1.493571e+02  -3.229084e+02
   7.946750e+01  -2.831398e+02
   2.031415e+02  -3.323631e+01
   2.618859e+02   2.565781e+02
   2.441149e+01   2.987975e+02
  -2.976610e+02   1.422801e+02
  -3.786196e+02  -1.726693e+02
  -2.123531e+02  -4.071959e+02
   1.619933e+02  -2.922699e+02
   2.317153e+02  -8.826722e+01
   1.603252e+02   2.635955e+01
   6.750038e+01  -4.337364e+01
   1.707794e+02  -1.728292e+01
   4.593066e+02   5.038231e+01
   3.550074e+02   3.093866e+02
  -2.440861e+01   4.833038e+02
  -3.616193e+02   4.463692e+02
  -5.023058e+02   2.318318e+02
  -3.662392e+02  -9.364535e+01
  -5.555190e+01  -3.043608e+02
   1.732749e+02  -2.802912e+02
   1.116105e+02  -4.649572e+01
  -1.549801e+02   1.222863e+02
  -1.873535e+02   2.710922e+01
  -5.827792e+01  -2.325319e+02
   1.813353e+02  -1.853981e+02
   2.099812e+02   5.718760e+01
   7.147010e+00   1.798797e+02
  -1.977481e+02   3.297711e+01
  -1.730696e+02  -1.908026e+02
   1.010856e+02  -3.451689e+02
   2.139899e+02  -2.031043e+02
   3.675769e+02   4.945055e+01
   2.927987e+02   2.694714e+02
   8.329195e+01   2.951010e+02
  -1.315473e+02   1.842285e+02
  -1.243527e+02   4.403018e+01
  -5.528763e+01  -4.463215e+01
   7.358495e+01   2.918550e+01
   3.261955e+01   1.721232e+02
  -1.583460e+02   1.303867e+02
  -1.901568e+02   6.019484e-01
  -8.420314e+01  -2.667911e+01
   1.067325e+02   3.397406e+00
   1.074393e+02   3.653717e+01
  -5.681948e+01   6.181145e+01
  -3.062545e+02  -6.437776e+00
  -2.496995e+02  -1.538546e+02
  -7.740281e+01  -2.430880e+02
   1.757730e+02  -2.784453e+02
   2.580430e+02  -1.685493e+02
   2.197633e+02   1.750243e+01
   2.160671e+01   1.073857e+02
  -9.621417e+01  -3.586409e+01
   5.410858e+01  -9.332965e+01
   2.095867e+02  -7.529184e+01
   2.650610e+02   1.445041e+02
   8.612330e+01   2.178339e+02
  -1.162536e+02   1.594238e+02
  -1.766911e+02   1.722427e+01
  -3.509637e+01  -4.619749e+01
   5.924965e+01  -1.196003e+01
  -2.385243e+00   1.306516e+02
  -2.897004e+01   9.594437e+01
  -2.026174e+02   5.371255e+01
  -1.700074e+02  -1.041071e+02
  -1.331492e+01  -2.090205e+02
   1.784231e+02  -1.987546e+02
   1.655219e+02   1.753996e+01
   1.013872e+02   1.270403e+02
  -7.262913e+01   1.513050e+02
  -5.639756e+01   3.924122e+01
  -5.299280e+01  -3.088269e+01
  -1.274029e+01  -4.636900e+01
  -5.114559e+01  -3.454012e+01
  -9.247559e+01   3.512332e+01
  -5.460239e+01  -7.332739e+01
  -2.066890e+01  -2.208941e+02
   1.559726e+02  -1.616866e+02
   1.998868e+02  -1.625811e+01
   1.613464e+02   1.437844e+02
   3.490965e+00   2.096663e+02
  -7.314092e+01   2.024740e+02
  -1.208870e+02   5.670511e+01
  -5.169608e+01  -5.070720e+01
  -8.209225e+01  -1.892579e+01
  -6.780486e+01   2.379681e+01
  -9.061739e+01   2.584340e+01
  -3.729793e+01  -8.754800e+01
   1.981143e+01  -6.163590e+01
   1.056106e+02  -5.030702e+01
   4.105761e+01   3.505801e+01
  -1.394716e+01   7.038143e+01
  -9.487260e+01   8.353533e+01
  -1.981575e+02  -1.075649e+02
  -1.390076e+02  -1.869006e+02
   1.269362e+02  -2.395762e+02
   2.844613e+02  -5.725649e+01
   2.530660e+02   4.750536e+01
   1.375961e+02   1.768482e+02
  -6.504251e+01   1.692956e+02
  -1.057369e+02   7.836529e+01
  -5.564790e+01   1.072137e+02
  -6.400136e+01   9.503197e+01
  -1.009305e+02   1.073068e+01
  -8.611753e+01  -3.044978e+01
  -1.214109e+02  -1.812787e+02
   1.583770e+01  -2.205379e+02
   1.114845e+02  -1.801088e+02
   1.830495e+02   1.696133e+01
   1.351541e+02   7.713362e+01
   1.404587e+01   1.242969e+02
  -7.827002e+01   6.784316e+01
  -5.547420e+01  -1.606726e+01
  -2.514238e+01  -6.520788e+01
   4.036710e+01  -1.612033e+00
   1.529935e+00  -4.689838e+01
  -8.717615e+01  -5.928005e+00
  -6.336048e+01  -3.061067e+01
   7.278134e+01  -2.088042e+01
   1.923137e+02  -4.246574e+01
   1.535598e+02   6.744695e+01
   4.475806e+01   3.282171e+01
  -1.383099e+02   9.069192e+01
  -1.658600e+02  -2.205199e-01
  -4.667535e+01  -3.059844e-01
   3.424078e+01   2.103757e+01
   9.187784e+01  -2.576115e+01
  -3.060746e+01   1.110494e+02
  -8.157020e+01   6.874841e+01
  -2.171173e+01   1.558581e+01
  -3.810835e+01  -7.425391e+01
  -7.070875e+01  -5.282910e+01
  -4.680815e+01  -1.687845e+01
  -7.314436e+01  -8.777685e+00
  -6.323757e+01  -5.075032e+01
   5.504631e+01  -1.848591e+02
   1.575788e+02  -1.672876e+02
   1.539680e+02   8.323816e+00
   1.498001e+02   8.376832e+01
   6.298415e+00   1.627734e+02
  -8.619039e+01   4.140546e+01
  -7.069897e+01  -2.233661e+01
   1.085729e+02  -1.809877e+01
   1.298654e+02   1.834874e+01
   5.355001e+01   8.855153e+01
  -7.931316e+01   1.427726e+02
  -1.858830e+02   8.313863e+01
  -1.649901e+02  -2.277812e+01
  -3.333406e+01  -1.066931e+02
   4.826687e+01  -1.015112e+02
   7.334148e+01   3.006000e+01
  -5.878045e+01  -7.803945e+00
  -1.106366e+02  -7.368206e-01
  -1.611740e+01  -1.365933e+02
   9.597946e+01  -1.971789e+02
   1.876397e+02  -6.535885e+01
   1.463353e+02   4.498388e+01
  -9.585955e+00   2.174391e+02
  -7.723063e+01   1.525854e+02
  -1.035582e+02  -6.164054e+00
  -6.065519e+01  -1.489011e+02
   2.726816e+01  -5.504786e+01
   5.812483e+01  -3.356521e+01
   6.936113e+01   5.386225e+01
   3.821107e+01  -7.608373e+00
   3.996595e+01  -3.678907e+01
   6.522117e+01   1.667349e+01
   9.048396e+01   2.386838e+01
   4.140296e+01   1.214201e+02
  -4.248852e+01  -1.480924e-02
  -1.556785e+02  -2.792120e+01
  -1.105691e+02  -9.820653e+01
  -3.790784e+01   9.005582e+00
   6.645151e+01  -5.945997e+00
   8.898419e+01  -2.972336e+00
  -1.495537e+01  -1.603623e+01
  -4.077846e+01   4.709222e+01
  -4.125316e+01   5.133848e+01
   1.738885e+01   4.449008e+01
  -6.453581e+01  -2.450638e+01
  -7.033546e+01   2.947146e+01
  -2.299968e+01  -2.641308e+01
  -4.876931e+01  -7.967540e+01
   1.362449e+02  -7.551667e+01
   1.578045e+02  -1.086825e+02
   1.711700e+02   7.329131e+01
  -2.756034e+01   1.379337e+02
  -5.730351e+01   1.961639e+02
  -8.052995e+01   2.211881e+01
  -1.130326e+02  -4.136993e+01
  -1.940710e+01   7.767612e+00
   6.028223e+01  -1.224527e+01
  -2.457987e+01  -4.546020e+01
  -2.817024e+01  -9.403383e+01
  -3.195361e+01  -6.943517e+01
   2.129396e+01  -6.793208e+01
   7.085903e+01   1.476798e+01
   8.742151e+01   1.244286e+02
   5.269050e+01   1.456792e+02
  -1.783919e+02  -2.564559e+01
  -7.957886e+01  -6.103090e+01
   3.129050e+01  -1.383345e+02
   4.786047e+01  -4.787287e+01
   1.005922e+02   9.713124e+00
   1.006513e+02   4.183026e+01
  -2.207913e+01   3.503781e+01
  -5.687539e+01   3.489824e+01
   3.852770e+01  -3.429999e+01
   2.529737e+01   8.808306e-02
  -8.052590e+00   5.184976e+01
  -6.001389e+01   2.804444e+01
  -9.472901e+01   1.239101e+02
  -8.554637e+01  -4.601943e+01
   5.662906e+01  -8.406587e+01
   3.724542e+01  -1.005722e+02
   1.884305e+01  -3.194044e+01
  -4.744208e+00   8.355119e+01
  -7.492527e+01   1.115936e+01
  -1.153606e+01  -2.941679e+01
  -5.142473e+01  -3.834917e+01
   9.281793e+00  -4.259704e+01
   4.041756e+01   5.764180e+01
   6.861378e+01   6.382265e+01
  -8.426348e+01   7.518524e+00
  -3.166129e+01   1.237475e+01
  -5.058537e-01  -1.442232e+01
  -3.694940e+01   4.541875e+01
   1.431145e+01   6.023642e+01
  -6.819387e+01   2.767642e+01
  -5.297526e+01  -4.032221e+01
  -1.819785e+01  -1.369568e+02
   4.458220e+01  -7.318933e+01
   7.243050e+01   1.166152e+01
   2.825829e+01   5.610224e+01
  -8.874106e+01   3.345587e+01
  -1.117639e+02   2.815250e+01
  -9.132957e+01  -2.701760e+01
   5.963100e+01   1.109811e+01
   2.205493e+01  -6.061284e+01
  -6.131200e+00   3.943623e+01
  -5.540263e+01   1.673326e+01
  -5.180866e-01  -2.434330e+01
   3.117194e+01  -6.856480e+01
   1.091670e+02  -5.110323e+00
