
 $NMID
 id='ANONYMOUS ', fmtdat='(2E16.6)'
 volume=1.0
 tramp=1.0
 $END
  -3.073507e+03  -7.234155e+01
  -2.020899e+03  -1.557698e+03
   8.996487e+01  -1.968378e+03
   1.214530e+03  -1.149625e+03
   8.766722e+02  -1.198022e+02
  -3.255311e+01   2.381222e+02
  -4.341029e+02  -3.624816e+01
  -4.594781e+01  -5.173881e+02
   4.841615e+02  -5.688969e+02
   6.593459e+02  -7.561924e+01
   4.148489e+02   5.222446e+02
   1.525965e+01   6.139590e+02
  -3.703988e+02   1.480450e+02
  -2.403730e+02  -3.820352e+02
   1.561048e+02  -4.932270e+02
   4.428853e+02  -6.911411e+01
   3.092326e+02   4.318999e+02
  -1.577607e+02   5.993218e+02
  -4.387532e+02   2.273693e+02
  -4.200197e+02  -1.576175e+02
  -1.584047e+02  -2.599893e+02
   6.397709e+01  -2.361337e+02
   8.571880e+01  -9.887846e+01
  -1.633003e+02  -8.924687e+01
  -2.481942e+02  -2.763316e+02
  -3.228052e+01  -3.645541e+02
   4.522091e+02  -1.800415e+02
   5.548875e+02   1.726737e+02
   2.091107e+02   3.744916e+02
  -3.200465e+02   2.190797e+02
  -4.346949e+02  -1.251150e+02
  -1.795534e+02  -3.138713e+02
   2.002071e+02  -3.086179e+02
   3.902871e+02  -9.177088e+01
   2.840732e+02   1.964552e+02
   7.363142e+01   2.881876e+02
  -1.236501e+02   1.372027e+02
   1.404874e+01  -1.038967e+02
   1.676574e+02  -1.789071e+02
   2.034981e+02   1.738464e+02
   6.137555e+01   5.075994e+02
  -1.880568e+02   4.642195e+02
  -3.402282e+02  -3.379644e+00
  -1.028862e+02  -3.125903e+02
   1.826747e+02  -1.639174e+02
   2.309015e+02   2.433013e+02
  -7.897397e+01   3.691453e+02
  -4.139622e+02   8.714564e+01
  -4.813430e+02  -3.318226e+02
  -1.319551e+02  -4.884310e+02
   2.470920e+02  -2.443647e+02
   5.180456e+02   3.417143e+01
   2.923978e+02   2.360331e+02
  -5.732547e+01   1.846471e+02
  -2.299082e+02   6.255865e+01
  -2.241944e+02  -3.924917e+01
  -1.061324e+01  -1.694770e+01
   5.454488e+01  -1.293670e+00
  -1.061819e+02   6.192643e+01
  -2.526422e+02  -2.931749e+01
  -1.424059e+02  -1.525666e+02
   1.643364e+02  -1.785338e+02
   3.288543e+02  -1.337696e+02
   2.473230e+02   6.145186e+01
   9.699829e-01   3.508849e+02
  -2.695890e+02   3.116230e+02
  -3.134548e+02   1.928257e+02
  -2.304788e+02  -1.404251e+02
  -3.561631e+00  -3.192513e+02
  -9.770440e+00  -2.700775e+02
   2.998664e+01  -1.578785e+02
  -1.984789e+00  -8.247061e+01
   8.683043e+01  -1.121033e+02
   2.102240e+02  -4.232447e+01
   2.104668e+02   1.643276e+02
   7.512329e+01   2.215687e+02
  -7.427855e+01   1.937904e+02
  -1.519652e+02  -3.347398e+01
  -1.049254e+02  -2.415690e+02
   4.097541e+01  -2.352524e+02
   2.666202e+02  -4.171015e+01
   2.796590e+02   1.913625e+02
   1.947640e+02   3.459709e+02
  -5.605772e+01   1.781956e+02
  -1.452507e+02   1.334062e+02
  -1.306053e+02   4.729940e+01
  -1.162854e+02   2.431345e+01
  -1.961185e+02   1.970099e+01
  -4.076889e+02  -1.588895e+02
  -2.869696e+02  -2.763355e+02
   4.042770e+01  -3.900604e+02
   3.074477e+02  -3.997425e+02
   3.996130e+02  -1.592666e+02
   2.576780e+02   7.650301e+01
   5.510214e+00   2.386213e+02
  -1.243272e+02   1.641122e+02
  -3.274839e+01   4.807890e+01
   1.308349e+02  -5.309660e+01
   1.236716e+02   3.618634e+01
   4.479333e+01   7.299583e+01
  -1.143991e+02   5.432220e+01
  -9.405862e+01  -3.395301e+01
   5.098945e+01  -1.500050e+02
   1.597158e+02  -3.224621e+01
   6.726134e+01   2.144187e+02
  -4.841884e+01   3.025793e+02
  -2.303467e+02   1.874167e+02
  -3.375403e+02  -9.465018e+01
  -2.307754e+02  -2.337453e+02
  -1.678896e+01  -3.167102e+02
   1.553728e+02  -1.172018e+02
   1.507244e+02  -2.568042e+01
   4.772891e+01  -3.063320e+01
  -6.484318e+01  -6.143713e+01
  -7.496839e+00  -1.362876e+02
   1.593895e+02  -7.946105e+01
   1.736731e+02   1.386453e+01
  -2.208027e+01   4.083305e+01
  -6.539393e+01  -2.812452e+01
  -6.693171e+01  -6.985664e+01
   1.189786e+02  -5.508287e+01
   2.866417e+02   5.463577e+01
   2.543249e+02   2.067493e+02
  -9.393052e+00   2.182635e+02
  -2.249652e+02   2.564555e+02
  -2.005456e+02   6.519005e+01
  -1.446541e+02  -5.147732e+01
   6.279738e+01  -3.158012e+01
   6.092664e+01   4.491268e+01
  -6.477006e+01   6.727905e+01
  -1.778093e+02  -2.434557e+01
  -1.513740e+02  -9.288262e+01
  -5.813088e+01  -1.645367e+02
   3.699241e+01  -1.094548e+02
   1.119067e+02  -1.635692e+01
   5.608849e+01   3.554570e+01
  -2.672777e+01  -5.650862e+01
  -4.104499e+01  -6.258949e+01
   1.104437e+02  -6.755981e+01
   1.526751e+02   1.850604e+01
   1.999528e+02   1.324714e+02
   4.982034e+01   1.623163e+02
  -4.944697e+01   1.413817e+02
  -1.310566e+02   5.050421e+01
  -4.686313e+01  -8.735045e+01
   2.136317e+01  -6.881592e+01
   2.379121e+01   1.569371e+01
   5.552659e+01   6.782677e+01
  -3.077975e+01  -4.464853e+00
  -1.015307e+00  -1.302867e+01
   1.189542e+02  -1.438036e+01
   1.116725e+02   3.634996e+01
  -1.040124e+01   1.532262e+02
  -1.277961e+02   1.470991e+02
  -1.883219e+02   1.346940e+01
  -1.792936e+02  -1.374608e+02
   1.751035e+01  -2.248317e+02
   9.524739e+01  -1.884756e+02
   1.354053e+02  -2.186855e+01
   1.053817e+02   9.254433e+01
   1.725925e+01   7.883191e+01
   5.345877e+01  -6.465886e+00
   6.063204e+01  -2.879445e+01
   5.808787e+01  -7.235663e+00
  -7.690135e+00   7.789850e+01
  -1.280528e+02   8.135771e+01
  -4.717330e+01  -5.820033e+01
  -2.609085e+01  -1.003709e+02
   1.232225e+02  -6.661065e+01
   2.143292e+02   5.566637e+01
   9.663576e+01   1.899288e+02
  -1.295849e+02   1.813568e+02
  -2.365977e+02   1.051894e+02
  -2.735460e+02  -5.405199e+01
  -4.704165e+01  -1.135987e+02
   4.940651e+01  -6.490580e+01
   7.411051e+01  -1.320990e+02
   5.506294e+01  -6.985964e+01
   8.918076e+01  -8.698473e+01
   6.833984e+01  -7.283972e+01
   1.332523e+02   3.769860e+01
   1.072749e+02   1.192658e+02
  -1.139570e+01   2.015823e+02
  -8.591998e+01   1.355178e+02
  -1.501474e+02   4.229916e+01
  -9.216801e+01  -1.495272e+02
  -2.076545e+01  -1.287457e+02
   1.029087e+02  -6.043473e+01
   3.544286e+01   5.034452e+00
  -1.950394e+01   4.815542e+01
  -1.310795e+01   5.659634e+01
   3.317611e+01   1.058982e+01
   7.521882e+01   7.244231e+00
   7.632207e+01   6.899026e+00
  -5.863204e+01   7.173600e+01
  -1.064797e+02   2.373351e+01
  -1.393826e+02  -9.661688e+01
   4.125623e+01  -7.519442e+01
   1.111680e+02  -2.399465e+01
   1.610586e+02   4.478614e-02
   9.585574e+01   5.297294e+01
  -9.392666e+01   5.358031e+01
  -1.620551e+02   1.773996e+01
  -5.114845e+01  -1.032873e+00
   4.527414e+01  -8.002857e+01
   7.830587e+01   3.502029e+01
   5.894630e+01   2.851585e+01
   4.212546e+01   3.438636e+01
   6.640306e+01   8.995832e+00
   7.228966e+01  -1.704362e+01
   7.679600e+01   4.663605e+01
   1.406745e+01   1.320117e+02
  -1.170138e+02   9.599207e+01
  -1.242877e+02   1.329649e+01
  -1.101062e+02  -1.037667e+02
  -9.895309e+00  -1.604207e+02
   4.843371e+01  -4.082481e+01
   1.001619e+02   5.855897e+01
  -4.875397e+01   2.191536e+01
  -1.220450e+02  -6.176511e+01
  -6.437649e+01  -1.281188e+02
   5.835167e+01  -8.898340e+01
   1.661468e+02  -1.125191e+01
   1.285927e+02  -1.417996e+01
   3.420302e+01   9.449794e+01
  -2.979435e+01   1.921476e+01
  -5.068283e+01   8.629070e+00
   9.641777e+00   5.154990e+00
   8.992972e+01  -1.355674e+01
   6.480140e+01   1.407240e+02
  -8.332774e+01   1.283581e+02
  -1.699687e+02   1.173044e+02
  -5.884940e+01  -1.013583e+02
  -2.038396e+01  -1.139859e+02
   1.419767e+02  -1.549647e+02
   8.596781e+01  -1.199756e+01
   6.012505e+01   1.040919e+02
  -7.579169e+01   7.855450e+01
  -5.711295e+01  -9.077792e+00
  -4.412461e+01   4.010501e+01
  -7.639507e+01  -3.068453e+01
  -1.140421e+01  -8.206655e-01
  -2.520968e+01  -4.548649e+01
  -4.202999e+01  -1.052107e+02
  -4.669245e+01  -7.923002e+01
   5.153277e+01  -4.941888e+01
   1.148954e+02   3.386704e+01
   8.451785e+01   3.437829e+01
  -2.298285e+01   4.657681e+01
  -5.346622e+01   5.842692e+00
  -9.562999e+01  -1.533187e+01
  -2.197639e+00   2.596015e+00
   1.179192e+02  -2.685767e+01
   3.025345e+01  -2.509719e+01
   2.359132e+01   1.647985e+01
   1.646812e+01   9.217159e+00
   7.374154e+01  -1.440826e+01
   4.567777e+01   1.884166e+01
   4.642787e+01   8.733793e+01
  -1.112183e+02   1.001891e+02
  -2.220058e+02   4.600044e+01
  -1.514027e+02  -5.517535e+01
  -3.866958e+01  -1.743434e+02
   9.885901e+01  -1.432364e+02
   1.620661e+02  -1.221340e+00
   8.647187e+01  -1.234620e+01
   1.489461e+01  -8.833727e+00
   3.388971e+01   4.331171e+01
   3.939757e+01  -1.662679e+01
   7.167579e+01   5.581263e+01
   4.978195e+01   6.440026e+01
  -5.770620e+01   1.019608e+02
  -7.897028e+01  -2.818965e+00
  -1.054353e+02  -1.031091e+02
  -1.402633e+01  -1.189603e+02
   1.192882e+02  -7.707467e+01
   1.126759e+02   1.305821e+02
   2.367704e+01   9.956502e+01
  -2.339276e+01   3.882816e+01
  -1.181005e+02   2.353171e+01
  -4.106527e+01  -4.265403e+01
   7.128200e+01  -8.241026e+01
  -9.024586e+00  -3.070043e+01
  -4.782758e+01   5.950417e+01
  -6.788225e+01   7.346072e+00
  -1.598073e+01  -6.362437e+01
   7.123846e+01  -1.206955e+02
   1.683980e+02  -8.729482e+01
   5.249486e+01  -3.656851e+00
  -2.545984e+01   7.901791e+01
  -6.133673e+01   4.054138e+01
  -4.333334e+01  -1.413242e+01
   4.366077e+01  -8.122675e+00
   3.034913e+01  -3.816064e+01
  -5.034272e-01   4.168108e-01
  -1.250372e+01   6.596639e+00
   5.779914e+01   7.994181e+00
  -1.697957e+01  -4.863706e+01
  -4.963317e+01  -6.535671e+01
   6.731126e+00   1.754115e+01
   1.038801e+01   5.795113e+00
   4.359977e+01   1.680512e+01
  -6.446614e+01  -1.036125e+01
   1.206855e+01  -4.142466e+01
   6.832324e+01  -1.798050e+01
   2.961265e+01   2.582024e+01
  -1.272870e+01  -8.204398e+00
  -2.978583e+01   4.734981e+01
  -6.589269e+01  -2.962408e+01
   1.829351e+01  -6.792335e+01
   4.541464e+01  -1.372010e+01
   8.784082e+01   1.356740e+01
   2.437266e+01   1.984187e+01
  -3.165256e+01   5.247271e+01
  -1.391087e+02   5.152599e+01
  -1.469831e+01   2.816315e+01
   1.496652e+00   6.894566e+00
   6.084998e+00  -3.981841e+01
  -2.222325e+01   8.156661e+00
  -4.505555e+01   2.613937e+01
