
 $NMID
 id='ANONYMOUS ', fmtdat='(2E16.6)'
 volume=1.0
 tramp=1.0
 $END
  -3.826732e+03   1.037344e+00
  -2.356484e+03  -2.164428e+03
   3.234584e+02  -2.460366e+03
   1.710418e+03  -1.091115e+03
   1.003347e+03   1.852423e+02
  -3.048647e+02   4.059474e+02
  -6.663124e+02  -2.883081e+02
  -2.417059e+01  -8.716023e+02
   5.949290e+02  -6.977921e+02
   7.954404e+02  -5.069647e+01
   4.604149e+02   6.648652e+02
  -1.722695e+02   7.719481e+02
  -4.508002e+02   1.928595e+02
  -2.831430e+02  -5.406183e+02
   1.992105e+02  -7.154211e+02
   5.392970e+02  -7.321812e+01
   2.849300e+02   6.487243e+02
  -2.377262e+02   6.376790e+02
  -5.655657e+02   1.566533e+02
  -3.652241e+02  -2.754206e+02
  -9.212481e+01  -4.232907e+02
   1.158536e+02  -2.109865e+02
   1.737824e+02  -8.299734e+01
  -1.581327e+02  -1.348207e+01
  -3.081999e+02  -2.213133e+02
  -5.628541e+01  -4.044516e+02
   4.403830e+02  -3.011050e+02
   7.428163e+02   1.594240e+02
   3.372547e+02   4.898520e+02
  -3.636187e+02   2.924745e+02
  -6.851908e+02  -7.747012e+01
  -2.689576e+02  -4.057252e+02
   2.392711e+02  -4.315879e+02
   5.236512e+02  -1.913409e+02
   3.903013e+02   2.354469e+02
   1.169554e+02   3.145774e+02
  -1.108316e+02   2.140679e+02
  -7.019975e+01  -1.564219e+02
   1.819767e+02  -2.659806e+02
   2.626719e+02   3.018865e+01
   1.463922e+02   5.961777e+02
  -2.513876e+02   5.736026e+02
  -4.365195e+02   2.564524e+01
  -2.203937e+02  -4.636551e+02
   2.066984e+02  -2.288118e+02
   3.263905e+02   2.783738e+02
  -9.435536e+01   4.644771e+02
  -5.274972e+02   9.893993e+01
  -5.257197e+02  -3.584133e+02
  -2.089045e+02  -4.989896e+02
   4.104315e+02  -3.096068e+02
   5.470109e+02  -7.399173e+00
   2.992772e+02   3.255467e+02
  -3.668018e+01   2.983578e+02
  -3.597264e+02   4.801032e+01
  -2.060464e+02  -1.308038e+02
   4.267712e+01  -5.855338e+01
   1.490097e+02   6.934923e+01
  -1.721268e+02   1.459702e+02
  -2.854203e+02  -5.709134e+01
  -1.524089e+02  -2.570208e+02
   1.541335e+02  -2.325930e+02
   3.210100e+02  -5.926767e+01
   2.198600e+02   1.190642e+02
   1.543015e+01   2.649335e+02
  -3.036293e+02   3.539688e+02
  -3.584113e+02   1.785612e+02
  -2.495468e+02  -1.313477e+02
  -6.754632e+01  -4.421298e+02
   1.257840e+02  -3.339115e+02
   7.164129e+01  -1.140386e+02
  -2.457384e+01  -5.865077e+01
   1.151612e+02  -9.156723e+01
   2.435730e+02  -8.449530e+01
   2.390451e+02   5.752520e+01
   1.177368e+02   2.818449e+02
  -7.718241e+01   2.232777e+02
  -1.729805e+02   1.347792e+01
  -1.705491e+02  -2.315941e+02
  -1.452493e+01  -2.497767e+02
   2.530163e+02  -7.550480e+01
   2.909707e+02   1.789756e+02
   1.384555e+02   3.520981e+02
  -1.579081e+01   3.422228e+02
  -1.352279e+02   1.224325e+02
  -1.518275e+02   4.760929e+01
  -1.327732e+02   2.251623e+01
  -2.059461e+02  -5.184674e+01
  -4.425821e+02  -1.147996e+02
  -3.047827e+02  -2.863770e+02
   2.697997e+01  -4.344315e+02
   3.561893e+02  -4.557875e+02
   4.814592e+02  -1.925853e+02
   3.208140e+02   7.725619e+01
   3.011468e+01   2.804309e+02
  -1.076866e+02   2.378941e+02
  -1.663905e+01   2.876727e+01
   1.013222e+02  -2.586711e+01
   1.850807e+02   1.620760e+01
   9.541037e+01   1.449047e+02
  -1.522914e+02   1.831016e+02
  -1.739663e+02  -6.873304e+01
   1.715794e+01  -1.354640e+02
   1.355551e+02   4.273004e+01
   1.678423e+02   2.631831e+02
  -5.406431e+01   3.491495e+02
  -2.234914e+02   1.976116e+02
  -3.754953e+02  -6.617359e+01
  -2.883292e+02  -2.955870e+02
  -1.371089e+02  -2.366340e+02
   1.287273e+02  -1.615759e+02
   1.923483e+02  -1.579869e+01
   6.981938e+01   4.000259e+01
  -5.087737e+01  -5.630692e+00
   3.869948e+00  -1.214658e+02
   1.701465e+02  -8.345661e+01
   1.769821e+02   4.875226e+01
   2.576909e+01   1.070929e+02
  -1.308999e+02  -5.374146e+00
  -6.032193e+01  -1.186823e+02
   1.710329e+02  -5.332262e+01
   2.987244e+02   4.229730e+01
   2.610469e+02   1.840519e+02
   9.163752e+01   2.514303e+02
  -1.837637e+02   2.351068e+02
  -2.997244e+02   1.392457e+02
  -1.564012e+02  -9.440576e+01
   3.731637e+01  -1.101384e+02
   3.066708e+01   2.680450e+01
  -2.786628e+01   1.081321e+02
  -2.156970e+02   2.190887e+01
  -1.771734e+02  -1.140780e+02
  -4.928549e+01  -2.201495e+02
   9.524570e+01  -1.252103e+02
   1.601693e+02   5.298278e+00
   3.093835e+01  -1.588380e+01
  -2.441615e+01  -8.273855e+00
  -4.262623e+01  -9.835685e+01
   9.181023e+01  -1.471487e+02
   2.065335e+02  -2.460462e+01
   1.589115e+02   1.316937e+02
   2.096131e+01   1.665056e+02
  -1.236471e+02   1.536427e+02
  -1.992780e+02   7.140527e+01
  -5.572844e+01  -8.559556e+01
   4.940437e+01  -1.014237e+02
   1.308001e+01  -1.670160e+00
   5.916164e+01   5.654398e+01
  -1.978151e+01   2.341036e+01
   3.003508e+00  -1.857843e+01
   7.421915e+01  -2.044129e+01
   6.282616e+01   6.741612e+01
   1.631583e+01   1.760086e+02
  -1.501641e+02   1.900371e+02
  -2.365885e+02   2.331760e+01
  -1.825082e+02  -1.930546e+02
  -1.395906e+02  -2.412767e+02
   1.373553e+02  -1.832100e+02
   1.585675e+02  -2.144420e+01
   7.735893e+01   6.493219e+01
   3.479000e+01   2.375269e+01
  -4.650201e+00  -1.193187e+01
   1.271202e+02  -1.413086e+01
   7.288335e+01   3.115572e+01
  -3.427095e+01   9.919862e+01
  -1.475422e+02   6.635516e+01
  -5.869600e+01  -2.204185e+01
   3.960060e+01  -9.741849e+01
   8.437452e+01  -6.916337e+01
   1.885646e+02   7.712325e+01
   9.209915e+00   3.012353e+02
  -1.123950e+02   2.788516e+02
  -3.075479e+02   9.029100e+01
  -2.964851e+02  -7.123557e+01
  -1.448055e+02  -1.858564e+02
   2.340662e+01  -1.106761e+02
   9.792323e+01  -9.333909e+01
   7.619170e+01  -5.051279e+01
   6.986781e+01  -9.119598e+01
   9.394771e+01  -3.985346e+01
   1.385184e+02   6.335978e+01
   5.311114e+01   1.240599e+02
   5.405109e+01   2.648838e+02
  -6.658859e+01   1.439875e+02
  -1.805174e+02   6.411588e+00
  -1.386193e+02  -1.260148e+02
  -6.582793e+00  -1.102766e+02
   3.832836e+01  -6.389871e+01
   3.521168e+01   4.063635e+00
  -1.155030e+01   5.129545e+01
   8.782102e+00   2.151970e+01
   2.219173e+01   2.893315e+01
   8.238207e+01   4.480050e+01
   4.390158e+01   1.495752e+01
  -6.091638e+01   1.207027e+01
  -2.195625e+02  -2.949650e+01
  -1.503488e+02  -1.211553e+01
  -8.585024e+00  -6.743187e+01
   1.577244e+02  -5.947476e+01
   1.371914e+02  -7.029438e+00
   7.809830e+01   6.013458e+01
  -3.443410e+01   5.607711e+00
  -9.187236e+01  -1.394467e+01
   1.619299e+01  -5.624761e+01
   1.047123e+02  -6.951731e+01
   5.470522e+01   1.112239e+01
   7.537443e+01   3.598976e+01
   3.680408e+01   4.587461e+01
   8.359339e+00  -2.906309e+01
   3.947406e+01  -1.952354e+01
   3.674339e+01   3.504099e+01
   2.020827e+01   2.040610e+02
  -1.467244e+02   1.645420e+02
  -1.566908e+02   7.796966e+01
  -1.522079e+02  -4.424681e+01
  -2.201010e+01  -1.501402e+02
   5.569889e+01  -2.988652e+01
   1.037198e+02   1.301507e+01
  -6.598892e+01   2.253301e+01
  -8.461777e+01  -4.148442e+01
  -5.601254e+01  -8.705146e+01
   9.141972e+01  -1.244785e+02
   1.890749e+02  -6.163194e+01
   1.235464e+02   7.381200e-01
   9.248519e+00   1.291391e+02
  -1.299325e+02   6.298352e+01
  -3.214080e+01   2.771280e+01
   2.401360e+01  -9.057538e+01
   8.535820e+01   6.898561e+01
   2.829870e+01   1.201516e+02
  -7.043010e+01   1.756055e+02
  -1.343421e+02   6.075882e+01
  -7.832211e+01  -9.790484e+01
   1.090905e+01  -1.712406e+02
   8.278603e+01  -1.631229e+02
   1.255320e+02  -9.541549e+00
   5.906015e+01   7.867039e+01
  -3.680032e+01   5.233357e+01
  -4.518377e+01   5.661611e+01
  -7.744824e+01  -5.281370e+01
   5.849053e+00  -3.447628e+01
   9.560496e+00  -1.366464e+01
  -3.920946e+01  -3.478880e+01
  -1.507896e+01  -1.001767e+02
  -6.970072e+00  -1.009063e+02
   6.175018e+00  -3.436974e+01
   7.651459e+01   2.236506e+01
   7.814666e+01   9.818186e+01
   3.264981e+00   5.287709e+01
  -5.944839e+01   5.380824e+01
  -6.129174e+01  -1.166552e-01
  -1.409188e+00  -2.625454e+01
   4.130620e+01  -4.971258e+01
  -6.384248e+00  -1.498996e+01
  -2.699678e+01  -3.669145e+01
   2.521769e+01   4.944039e+01
   1.018568e+02   2.982546e+00
   1.365537e+02  -2.559166e+01
   1.215720e+01   1.002833e+02
  -3.373565e+01   9.803909e+01
  -2.043930e+02   5.682486e+01
  -9.906928e+01  -1.043216e+02
  -1.405374e+01  -1.781447e+02
   9.905375e+01  -1.522459e+02
   1.332322e+02  -6.133945e+01
   1.388050e+02   1.865796e+01
   5.922376e+01   7.310821e+01
   3.259609e+01   4.814433e+01
   2.139816e+01   2.499377e+01
   5.885290e+01   4.642920e+01
   1.372186e+01   1.574536e+02
  -4.999579e+01   5.170119e+01
  -8.056560e+01   1.927896e+01
  -9.945432e+01  -6.103333e+01
  -4.241914e+01  -8.150823e+01
   6.704302e+01  -4.855562e+01
   1.080246e+02   5.490099e+01
   8.558437e+01   8.030428e+01
  -7.896279e+01   4.806606e+01
  -5.732541e+01  -1.568885e+01
  -6.227796e+01  -5.295204e+01
   2.312432e+01  -4.332381e+01
   1.956562e+01  -5.997307e+01
   1.396651e+01  -1.026388e+01
  -3.159022e+01  -1.285861e+01
  -2.075810e+00  -6.442919e+01
   5.894942e+01  -7.130323e+01
   9.016448e+01  -4.514325e+01
   8.303445e+01  -1.969114e+01
   1.283386e+01   6.576473e+01
  -5.291760e+01   5.805822e+01
  -2.116961e+01   4.365900e+01
  -1.433571e+01  -6.401528e+01
   3.761685e+01  -4.198716e+01
   4.470739e+01   1.757691e+01
   3.343618e+01   4.660122e+01
   7.145009e+00   3.815777e+01
  -7.608904e+00   1.288228e+01
  -5.269029e+01  -6.779485e+01
  -1.456705e+01  -2.853137e+01
   3.798444e+01  -1.274293e+01
  -1.100404e+01   3.463806e+01
  -1.191233e+01  -3.767327e+01
  -2.007171e+01  -7.015788e+01
   8.715002e+00   2.730938e+01
   3.096348e+01   3.844264e+01
   5.081794e+00   7.584987e-01
  -7.091032e+01   8.838061e+01
  -1.041013e+02  -3.631659e+01
  -3.847743e+01  -7.310579e+01
   8.793954e+01  -3.536164e+01
   6.551486e+01   5.527845e+01
   5.427462e+01   3.957965e+01
  -3.843193e+01   7.138547e+00
  -6.573527e+01  -3.434880e+00
  -2.447816e+01   1.923466e+01
   3.012485e+01   2.572985e+01
   1.419146e+01  -3.163492e+01
  -4.103785e+00   1.757067e+01
  -9.450642e+01   6.270281e+01
