
 $NMID
 id='ANONYMOUS ', fmtdat='(2E16.6)'
 volume=1.0
 tramp=1.0
 $END
  -3.676407e+03  -9.917421e+01
  -2.171720e+03  -2.008588e+03
   3.402183e+02  -2.187565e+03
   1.529501e+03  -1.008383e+03
   8.081833e+02   8.047561e+01
  -3.305302e+02   2.621036e+02
  -5.422335e+02  -2.839435e+02
   1.160358e+01  -7.621276e+02
   6.227880e+02  -6.117007e+02
   7.572634e+02   4.138962e+01
   4.127560e+02   6.799639e+02
  -1.393917e+02   6.797087e+02
  -4.299874e+02   1.550995e+02
  -2.755272e+02  -5.556352e+02
   1.810488e+02  -5.772825e+02
   4.930095e+02  -8.310118e+01
   2.825390e+02   6.008004e+02
  -1.498946e+02   6.139145e+02
  -4.435808e+02   2.315133e+02
  -3.856563e+02  -2.409243e+02
  -8.046234e+01  -3.827613e+02
   1.765939e+02  -1.933266e+02
   1.464971e+02  -3.749238e+01
  -1.875736e+02  -1.344329e+01
  -3.069335e+02  -2.037296e+02
  -9.628904e+01  -4.173562e+02
   5.063836e+02  -2.456222e+02
   7.079089e+02   1.203991e+02
   2.930082e+02   4.437256e+02
  -3.349138e+02   3.271119e+02
  -5.827643e+02  -1.223348e+02
  -2.067568e+02  -4.165974e+02
   2.898473e+02  -3.825695e+02
   4.577989e+02  -1.820121e+02
   3.737549e+02   1.863179e+02
   6.530356e+01   3.828805e+02
  -1.227376e+02   2.588820e+02
  -4.570872e+01  -1.689674e+02
   2.128333e+02  -2.439616e+02
   3.282948e+02   1.155884e+02
   9.335527e+01   5.469726e+02
  -3.145662e+02   5.760043e+02
  -4.759184e+02   7.686720e+00
  -2.408839e+02  -4.081289e+02
   2.502361e+02  -2.064210e+02
   2.499625e+02   2.877461e+02
  -9.223145e+01   3.851474e+02
  -4.581450e+02   9.569174e+01
  -5.155453e+02  -4.184188e+02
  -2.395416e+02  -4.863976e+02
   3.234867e+02  -2.642571e+02
   5.802797e+02   6.624408e+01
   3.640729e+02   2.907474e+02
  -4.649932e+01   2.733449e+02
  -2.842631e+02   5.644851e+01
  -2.639586e+02  -8.394931e+01
   6.934670e+01  -6.845577e+00
   9.089265e+01   1.267739e+02
  -1.404910e+02   1.421849e+02
  -2.512494e+02  -6.975626e+01
  -1.455987e+02  -2.638511e+02
   1.587705e+02  -2.618771e+02
   2.839544e+02  -9.895863e+01
   2.144053e+02   1.127623e+02
   3.252029e+00   2.784486e+02
  -2.684630e+02   3.267440e+02
  -3.765538e+02   2.167035e+02
  -2.462087e+02  -9.022469e+01
  -4.930385e+01  -3.498447e+02
   6.817458e+01  -3.431605e+02
   1.024693e+02  -9.090805e+01
  -1.877119e+01  -1.016817e+02
   1.592603e+02  -1.006838e+02
   1.720587e+02  -9.102978e+01
   2.590531e+02   3.139548e+01
   1.074906e+02   2.286112e+02
  -1.078315e+02   1.976630e+02
  -2.471879e+02  -1.073086e+01
  -1.622518e+02  -2.470250e+02
   9.791177e+01  -3.190075e+02
   2.670787e+02  -7.154157e+01
   2.810124e+02   1.623552e+02
   2.231465e+02   3.058357e+02
  -6.450575e+01   3.172074e+02
  -1.900254e+02   8.046467e+01
  -1.009329e+02   7.713383e+01
  -1.273796e+02   8.124663e+01
  -2.478982e+02   7.802389e+01
  -4.299938e+02  -8.018043e+01
  -3.078199e+02  -3.375947e+02
   2.372876e+01  -4.294670e+02
   3.546434e+02  -3.648244e+02
   4.619718e+02  -1.990621e+02
   2.677915e+02   1.120884e+02
   2.155079e+01   3.091202e+02
  -1.245548e+02   1.994290e+02
  -2.986107e+00   3.668825e+01
   9.373893e+01  -6.586560e+00
   1.185584e+02   2.010845e+01
   2.280361e+00   1.486991e+02
  -1.104099e+02   1.666535e+02
  -4.412957e+01  -5.374834e+01
   2.025311e+01  -1.754207e+02
   1.503274e+02  -5.456907e+01
   1.484842e+02   1.948498e+02
  -5.062829e+01   3.225665e+02
  -2.112501e+02   2.399092e+02
  -3.783177e+02  -6.317205e+01
  -2.735403e+02  -2.799311e+02
  -7.802550e+01  -2.848292e+02
   1.252390e+02  -1.597621e+02
   1.680825e+02  -2.029825e+01
  -4.303679e+00   6.420146e+01
  -5.047500e+01  -3.804634e+01
  -2.169137e+01  -1.130697e+02
   1.144280e+02  -6.110549e+01
   1.845505e+02   4.524989e+01
  -4.704230e+00   6.068190e+01
  -6.855212e+01  -2.574384e+00
  -2.237296e+01  -7.461670e+01
   1.510443e+02  -3.436314e+01
   2.363759e+02   1.337959e+01
   1.944749e+02   2.264144e+02
   5.390716e+00   2.476037e+02
  -2.695152e+02   1.860618e+02
  -2.358749e+02   9.554064e+01
  -1.175692e+02  -8.265817e+01
   3.770542e+01  -1.074245e+02
   5.911125e+01  -8.884461e+00
  -8.033249e+01   1.154132e+02
  -1.840110e+02   8.763474e+01
  -2.268632e+02  -1.427271e+02
  -5.187521e+01  -1.408690e+02
   7.288085e+01  -1.471348e+02
   1.081589e+02   5.646316e+00
   9.995681e+01   2.821352e+01
  -1.002191e+02   1.187933e+00
  -3.308211e+01  -1.156040e+02
   8.159544e+01  -1.014379e+02
   1.931329e+02  -6.329659e-01
   2.090549e+02   1.505599e+02
   2.630867e+01   1.924857e+02
  -1.537896e+02   1.628019e+02
  -1.655837e+02  -3.241566e+01
  -7.863085e+01  -5.714392e+01
   8.606931e+01  -1.378021e+02
   8.937008e+01  -1.835396e+01
   1.201032e+01   1.850858e+01
  -2.974954e+01   4.331669e+01
   3.942729e+01  -4.825772e+01
   4.139786e+01   2.562329e+01
   1.064288e+02   1.057913e+02
  -1.260775e+01   1.774453e+02
  -1.463753e+02   1.722265e+02
  -2.136697e+02   5.251475e+01
  -1.864046e+02  -1.491165e+02
  -4.983680e+01  -2.237824e+02
   8.805457e+01  -2.284423e+02
   1.786535e+02   7.192985e+00
   5.812522e+01   3.740399e+01
   5.667312e+01  -6.496101e+00
   6.224843e+01   1.340922e+00
   7.305363e+01  -3.462324e+01
   6.262947e+01   3.217308e+01
  -4.506354e+01   6.390438e+01
  -6.398023e+01   5.485668e+01
  -1.161722e+02  -4.281452e+01
  -1.898153e+01  -1.421625e+02
   1.473702e+02  -1.127730e+02
   1.317612e+02   1.212240e+02
   1.569800e+02   2.395936e+02
  -1.264740e+02   2.207521e+02
  -2.835737e+02   8.165942e+01
  -2.899577e+02  -4.150638e+01
  -1.026254e+02  -2.091762e+02
   2.307423e+01  -1.148738e+02
   1.383189e+02  -3.372784e+01
   1.020929e+02  -5.174490e+01
   5.852456e+01  -1.432645e+02
   1.113407e+02  -1.310374e+02
   9.526689e+01   3.138285e+00
   8.401183e+01   1.402115e+02
   8.509416e+01   2.804912e+02
  -1.074595e+02   1.757736e+02
  -2.314657e+02   3.204103e+01
  -1.024903e+02  -1.236879e+02
  -2.224529e+01  -1.474026e+02
   5.078719e+01  -1.180217e+02
   1.089653e+02  -1.020617e+01
  -1.808354e+01   7.217623e+01
  -1.690104e+01   3.676826e+01
   2.443827e+01  -1.528558e+01
   6.448971e+01   4.024311e+00
   3.824677e+01   1.719011e+01
  -5.684279e+01   3.261908e+01
  -1.223643e+02   1.568658e+01
  -1.811165e+02  -4.903237e+01
   9.755384e+00  -8.307087e+01
   1.716960e+02  -5.907990e+01
   1.393320e+02   6.678350e+01
   2.558703e+01   2.899399e+01
  -1.523737e+01   8.466607e+01
  -8.066316e+01  -7.721929e+00
  -2.612137e+01  -9.093488e+01
   4.162831e+01  -7.788708e+01
   1.274143e+02   4.053620e+01
   7.144875e+01   4.941466e+01
   3.907932e+01   7.323686e+01
   6.212683e+01   2.464123e+01
   9.804418e+01  -2.674093e+01
   1.681559e+01   7.120416e+01
  -8.297496e+01   1.610562e+02
  -1.679089e+02   1.171818e+02
  -1.356522e+02   8.685157e+01
  -1.350564e+02  -7.944059e+01
   1.822192e+01  -1.155654e+02
   6.614022e+01  -9.625273e+01
   4.091307e+01   3.628879e+01
  -8.246024e+00   3.825358e+01
  -1.340086e+02  -4.760949e+01
  -1.168041e+02  -8.613943e+01
   6.407932e+01  -1.137984e+02
   2.038772e+02  -7.662370e+01
   1.725727e+02   1.505674e+00
   5.890142e+00   6.768688e+01
  -3.840294e+01   7.896595e+01
  -8.195337e+01  -4.520457e+01
   2.599397e+01  -4.192210e+01
   7.754775e+01   2.008519e+01
   5.525064e+01   9.125540e+01
  -8.106254e+01   1.418687e+02
  -1.462203e+02   9.589997e+01
  -1.121650e+02  -7.971710e+01
   1.391461e+01  -1.561341e+02
   6.631910e+01  -1.314488e+02
   1.088200e+02   3.775492e+01
   5.915684e+01   1.681790e+02
   6.575165e+00   1.099948e+02
  -9.451062e+01   3.336547e+01
  -3.660121e+01  -2.872413e+01
  -5.496008e+01  -3.235560e+01
   1.519625e+00  -6.376101e+00
   3.354862e+00  -8.384027e+01
  -6.492671e+01  -3.647113e+01
  -1.178323e+01  -1.155087e+02
   5.306705e+01  -8.871947e+01
   1.522364e+02   2.905580e+01
   1.156203e+02   4.156640e+01
  -1.005786e+01   5.811203e+01
  -4.714526e+01   6.567274e+01
  -7.181767e+01   6.865161e+01
   1.062378e+00  -4.537916e+01
   4.298994e+01   3.357935e+01
   5.143490e+01  -5.388393e+01
  -3.152849e+01  -3.573987e+01
   4.092815e+01   5.244144e+01
   1.073415e+02  -3.794995e+01
   4.971741e+01   9.164373e+00
  -9.437642e+00   1.072178e+02
  -1.065567e+02   9.655966e+01
  -1.509843e+02   2.613009e+01
  -1.486476e+02  -8.669213e+01
  -2.689012e+01  -1.347813e+02
   7.176208e+01  -1.716769e+02
   1.220595e+02  -5.780218e+01
   1.152407e+02  -3.212973e+01
   5.174304e+01  -1.937104e+01
   2.167424e+01   2.176678e+01
  -1.972072e+01  -1.593503e+01
   2.562533e+01   4.584667e+01
   5.151981e+00   4.788974e+01
  -8.145545e+01   6.930614e+01
  -6.672801e+01   1.436056e+00
  -7.098439e+01  -1.633658e+02
  -6.096551e+01  -1.857867e+02
   7.537437e+01   6.741724e+00
   1.024905e+02   2.887806e+01
   5.381233e+01   1.015813e+02
  -7.758109e+01   1.530465e+01
  -8.883944e+01  -2.840001e+01
  -9.513358e+00  -3.915730e+01
   1.830913e+00  -4.358654e+01
   3.564593e+01  -2.220623e+01
  -3.352182e+01  -3.640849e+01
  -8.963533e+01   1.063397e+00
  -8.197244e+00  -4.823139e+01
   5.763303e+01  -5.573651e+01
   1.139603e+02  -8.445406e+01
   9.149251e+01  -2.263015e+01
   1.409620e+01   3.907208e+01
  -6.599849e+01   1.102330e+02
  -6.191496e+01   2.729893e+01
  -2.481845e+01  -4.347990e+01
   8.649958e+00   3.582010e+00
   2.824903e+01  -1.518595e+01
   1.877085e+01   3.534724e+01
   1.238934e+00   3.619152e+01
  -3.209575e+01  -2.906450e+00
  -5.520259e+01  -5.217491e+01
  -3.355748e+01  -6.539721e+01
   7.247935e+00  -1.455375e+00
   3.220147e+01   4.438250e+01
   2.084870e+01  -5.103411e+01
   1.599331e+01  -7.697048e+01
   5.546273e+01   6.078391e+00
   4.931159e+01   1.727902e+01
   3.850784e+01   7.299367e+01
  -7.535499e+01   3.925488e+01
  -4.236104e+01  -2.896737e+01
  -2.633655e+01  -1.139427e+02
   5.736925e+01  -1.059298e+02
   1.020583e+02   3.658392e+01
   4.585792e+01   3.192843e+01
  -2.043798e+01   1.077537e+02
  -6.469724e+01   2.016682e+00
  -2.649488e+01   3.246568e+01
   3.103754e+01  -1.928656e+01
   2.811682e+01  -1.362300e+01
  -2.064616e+01   9.352960e+00
  -8.645188e+01   1.082343e+01
