
 $NMID
 id='ANONYMOUS ', fmtdat='(2E16.6)'
 volume=1.0
 tramp=1.0
 $END
   4.243557e+03  -1.448569e+01
   2.624430e+03   2.448716e+03
  -5.396869e+02   2.701391e+03
  -2.039713e+03   1.084992e+03
  -1.028256e+03  -4.894411e+02
   5.298707e+02  -5.229118e+02
   7.975564e+02   3.848577e+02
  -5.316286e+00   9.534688e+02
  -7.176132e+02   7.246925e+02
  -9.118429e+02  -2.420815e+01
  -4.008433e+02  -8.118584e+02
   1.377173e+02  -8.512461e+02
   6.275055e+02  -1.694566e+02
   4.230854e+02   6.377930e+02
  -2.027751e+02   7.332914e+02
  -5.885083e+02   3.276274e+01
  -2.512949e+02  -6.808299e+02
   3.108220e+02  -6.699261e+02
   5.715008e+02  -1.907728e+02
   4.153094e+02   3.234387e+02
   2.591320e+01   4.326483e+02
  -1.818114e+02   2.361495e+02
  -1.688573e+02   3.126319e+01
   1.086173e+02  -1.558547e+01
   3.806444e+02   1.469758e+02
   1.342052e+02   4.753593e+02
  -5.099772e+02   3.272838e+02
  -8.568575e+02  -9.308627e+01
  -3.863703e+02  -5.451100e+02
   3.818698e+02  -4.057157e+02
   6.913976e+02   2.671455e+01
   3.326299e+02   4.896834e+02
  -3.472901e+02   4.711572e+02
  -5.323096e+02   2.046478e+02
  -4.011255e+02  -1.986255e+02
  -8.051221e+01  -4.932928e+02
   1.479689e+02  -3.122427e+02
   6.755700e+01   2.449222e+02
  -1.295018e+02   3.670761e+02
  -4.030386e+02  -3.176315e+01
  -2.046216e+02  -6.664103e+02
   3.445803e+02  -6.980904e+02
   5.551745e+02  -7.518260e+00
   1.685856e+02   5.386827e+02
  -3.010873e+02   2.944353e+02
  -3.047848e+02  -3.133356e+02
   7.980831e+01  -5.814774e+02
   5.664872e+02  -1.127561e+02
   5.609964e+02   4.072576e+02
   2.460630e+02   5.878489e+02
  -3.499142e+02   3.302646e+02
  -6.109945e+02  -9.066260e+01
  -3.928165e+02  -3.678037e+02
   1.175770e+02  -3.049924e+02
   4.332841e+02  -7.189313e+01
   2.827160e+02   1.505219e+02
  -1.933129e+02   8.683146e+01
  -1.430506e+02  -1.748735e+02
   1.468055e+02  -2.182453e+02
   3.532483e+02   8.510699e+01
   1.450722e+02   2.784338e+02
  -1.964820e+02   2.762533e+02
  -3.597316e+02   1.006172e+02
  -2.308760e+02  -5.476917e+01
   2.322405e+01  -2.287336e+02
   2.453682e+02  -2.985573e+02
   3.876939e+02  -2.239782e+02
   2.398964e+02   1.503419e+02
   1.003325e+02   4.495691e+02
  -6.712166e+01   3.243199e+02
  -1.168242e+02   1.200439e+02
  -3.749618e+00  -1.542275e+01
  -5.033026e+01   1.198147e+02
  -1.792899e+02   1.200246e+02
  -3.103620e+02  -4.049028e+01
  -1.297366e+02  -3.634531e+02
   9.148922e+01  -2.338867e+02
   2.111162e+02  -1.727568e+01
   1.514381e+02   2.640988e+02
   2.299678e-02   3.311225e+02
  -2.793267e+02   1.229335e+02
  -3.921139e+02  -1.770808e+02
  -1.825172e+02  -4.117118e+02
   6.591763e+01  -3.400185e+02
   2.179404e+02  -1.429377e+02
   1.850849e+02  -6.741927e+01
   1.118557e+02  -4.673153e+01
   2.994114e+02  -3.380190e+01
   4.160507e+02   7.978607e+01
   3.500415e+02   2.971244e+02
   2.291455e+00   4.847664e+02
  -3.326411e+02   4.264446e+02
  -5.044988e+02   1.648236e+02
  -3.532357e+02  -5.325562e+01
  -6.179612e+01  -2.587350e+02
   1.155411e+02  -2.684811e+02
   4.691578e+01  -3.875415e+01
  -1.378277e+02   1.204828e+02
  -2.065131e+02  -8.805881e+00
  -3.096048e+00  -2.066165e+02
   1.592239e+02  -1.113577e+02
   1.987501e+02   4.132977e+01
  -3.841468e+01   2.013785e+02
  -1.555433e+02   2.064158e+01
  -1.482602e+02  -2.530622e+02
   7.052613e+01  -3.640073e+02
   2.257415e+02  -1.738013e+02
   3.925067e+02   6.989519e+01
   3.271747e+02   1.952574e+02
   7.573821e+01   2.102852e+02
  -9.554021e+01   1.476543e+02
  -1.389611e+02   3.190421e+01
  -3.094892e+01  -5.671319e+01
   5.506715e+01   4.205658e+01
   1.872405e+01   1.513845e+02
  -1.390518e+02   9.350755e+01
  -1.256261e+02   5.533194e+01
  -1.193150e+02  -9.495995e+01
   1.002876e+02  -9.793885e+00
   1.890541e+01   6.548751e+01
  -1.798588e+02   1.231982e+02
  -3.198963e+02  -3.964304e+01
  -2.800993e+02  -1.491589e+02
  -7.132251e+01  -2.907482e+02
   1.892740e+02  -2.696184e+02
   2.381934e+02  -1.270601e+02
   1.608195e+02   5.466690e+01
  -3.995028e+01   1.095825e+02
  -5.457842e+01   1.638079e+01
   3.128490e+01  -8.729913e+01
   1.719505e+02  -5.187538e+01
   1.793114e+02   1.044924e+02
   1.136490e+02   1.903613e+02
  -1.186307e+02   1.431055e+02
  -1.476692e+02  -1.307369e+00
  -9.313838e+01  -3.685166e+01
  -1.703093e+01  -1.154849e+01
   2.543995e+01   7.211076e+01
  -7.309380e+01   1.259511e+02
  -2.078176e+02   2.427275e+01
  -2.312076e+02  -1.326257e+02
   1.782362e+01  -2.212848e+02
   1.524272e+02  -1.950709e+02
   2.034695e+02  -2.830037e+01
   4.546373e+01   1.471097e+02
  -1.851003e+01   1.278050e+02
  -9.671931e+01  -2.554311e+01
  -4.801980e+01  -3.982674e+01
   1.229148e+01  -5.121674e+01
  -1.218039e+00  -3.561855e+01
  -1.051512e+02   2.238201e+01
  -1.273680e+02  -1.786918e+01
   2.612884e+01  -1.327586e+02
   1.657401e+02  -1.622057e+02
   2.849911e+02  -2.035970e+01
   2.296140e+02   1.974352e+02
   3.016684e+01   2.266514e+02
  -1.286883e+02   2.024589e+02
  -1.300649e+02   3.741964e+01
  -2.833989e+01  -9.064099e+01
  -2.668226e+01  -4.932512e+01
  -4.697625e+01   1.931044e+01
  -7.660658e+01   1.463505e+01
  -6.782253e+01  -1.043496e+02
   6.638651e+01  -1.336565e+02
   1.340989e+02  -3.900278e+01
   1.179137e+02   1.120601e+01
  -2.874213e+00   1.323150e+02
  -1.290427e+02   8.064206e+01
  -2.296559e+02  -1.048633e+02
  -1.280724e+02  -2.028237e+02
   1.364538e+02  -2.594753e+02
   2.859906e+02  -1.024175e+02
   2.018262e+02   1.070375e+02
   1.227995e+02   2.208062e+02
  -2.712262e+01   1.130106e+02
  -1.141711e+02   6.863622e+01
  -1.166133e+02   7.440443e+01
  -5.068203e+01   1.405335e+02
  -6.943048e+01   4.754722e+01
  -1.365374e+02  -2.855381e+01
  -1.276583e+02  -1.215467e+02
  -2.545431e+01  -2.606653e+02
   9.033949e+01  -1.501178e+02
   1.533096e+02  -7.974159e+01
   1.004206e+02   1.382347e+02
  -1.215538e+01   1.843744e+02
  -4.565032e+01   8.640564e+01
  -4.735501e+01  -1.413012e+01
   3.211206e+01  -7.661728e+01
   1.633148e+01  -5.784317e+01
  -1.196482e+01   9.202694e+00
  -6.573874e+01   2.718809e+01
  -4.450844e+01  -9.486695e+00
   8.743588e+01  -8.537780e+01
   1.340272e+02  -7.067122e+00
   1.386759e+02   1.251218e+01
   4.737371e+01   6.418921e+01
  -1.034436e+02   1.285932e+02
  -1.785999e+02   2.934876e+01
  -2.241197e+01  -9.188311e+00
   1.197322e+02  -4.374697e+01
   6.329334e+01   3.403211e+01
   2.971079e+01   7.413453e+01
  -4.365826e+01   1.514811e+02
  -2.606134e+01   4.023701e+01
  -7.072061e+01  -6.130697e+01
  -9.611942e+01  -7.504978e+01
  -8.964056e+01   1.546098e+01
  -4.957934e+01   8.013447e+01
  -5.280015e+01  -5.897025e+01
   1.141654e+01  -1.554467e+02
   1.002665e+02  -1.577778e+02
   1.638621e+02  -6.778477e+01
   1.648927e+02   7.653692e+01
  -2.435173e+01   8.962419e+01
  -7.411834e+01   5.272292e+01
  -6.981306e+01   6.484193e+00
   8.597282e+01  -1.040741e+01
   1.705921e+02   4.346006e+01
   1.131895e+02   1.054028e+02
  -8.460361e+01   1.078990e+02
  -1.367889e+02   4.698152e+01
  -1.542266e+02  -6.328001e+01
  -4.508980e+01  -1.359985e+02
   4.859459e+01  -1.035059e+02
   2.235859e+01  -4.617070e+01
   1.368531e+01   3.804355e+01
  -6.610827e+01  -1.947997e+01
  -3.031301e+01  -7.226481e+01
   7.790549e+01  -1.372500e+02
   1.106554e+02  -4.514064e+01
   1.292711e+02   1.241018e+02
   2.177682e+00   2.085291e+02
  -9.538478e+01   1.038616e+02
  -1.135715e+02  -1.599712e+01
  -3.882710e+01  -1.389826e+02
  -1.116993e+01  -1.368531e+02
   4.471966e+01  -1.827377e+01
   6.805939e+01  -6.080054e+00
   3.333362e+01   1.029167e+01
   2.637931e+01  -4.120805e+01
   9.556701e+01   4.872506e+01
   6.115445e+01   1.183279e+02
   6.609161e+01   7.919416e+01
  -7.204907e+01   4.429202e+01
  -7.971816e+01  -7.605494e+01
  -1.220535e+02  -7.887449e+01
   1.796724e+00  -7.270185e+01
   1.358940e+02  -4.838340e+01
   1.158210e+02  -4.032369e+01
   2.407623e+01   4.819580e+00
  -3.097055e+01   8.271972e+01
  -1.468062e+01   9.968321e+00
   4.380383e+00  -1.255386e+01
   4.561945e+01   1.210539e+01
  -4.100098e+01  -7.240700e+00
  -9.175868e+01  -5.056682e+01
  -1.193912e+01  -5.212936e+01
   1.233894e+02  -8.621508e+01
   1.415572e+02  -5.111458e+01
   1.253408e+02   1.093172e+02
   1.972702e+01   1.522795e+02
  -2.911684e+01   1.208130e+02
  -1.215308e+02   1.098942e+02
  -7.198586e+01  -6.064991e+01
  -4.936915e+01  -7.930053e+01
  -1.585813e+01   1.027784e+01
  -4.645097e+01  -4.623228e+01
  -1.640884e+00  -1.955060e+01
  -3.001197e+01  -4.596562e+01
   9.112195e+00  -1.189162e+02
   7.325626e+01  -8.974355e-01
   9.316175e+01   8.707411e+01
   3.729201e+01   1.869750e+02
  -1.079153e+02   1.236020e+01
  -1.457137e+02  -8.802093e+01
  -9.839130e+01  -1.137348e+02
   8.958000e+01  -7.524944e+01
   9.432109e+01  -1.271971e+01
   4.745010e+01   7.850854e+01
  -1.251453e+02   2.899273e+01
   2.636251e+01   2.032192e+01
  -1.222823e+01  -5.040928e+00
   6.997068e+01  -5.988498e+01
   4.516528e+01   6.221107e+00
  -5.719309e+01   7.196974e+01
  -8.886116e+01   4.982361e+01
  -8.114707e+01  -9.406273e+00
   2.432365e+01  -7.118869e+01
   1.958982e+01  -6.141514e+01
  -2.186154e+01   3.337244e+01
   1.743051e+01   6.784607e+01
  -2.242664e+01   7.132791e+01
  -8.409108e+00  -1.457512e+01
  -3.793188e+01  -9.157870e+01
   9.685524e+00  -5.042895e+01
   6.978278e+01  -4.386170e+01
   3.991856e+01   1.944485e+00
   4.656091e+01   1.926383e+01
   1.923558e+00   3.363928e+01
  -4.636389e+01  -2.779153e+01
   3.250690e+01   6.684321e+01
  -2.344644e+01   2.830182e+01
  -3.635569e+01   4.315171e+01
  -7.842442e+00  -3.384640e+01
  -3.318154e+01  -6.074601e+01
   5.792110e+01   1.474654e+01
   3.535734e+01  -5.219603e-01
   6.614537e+00   6.112041e+01
  -9.349995e+00   3.695669e+01
  -8.360103e+01  -6.143434e+01
  -9.394181e+01  -7.611452e+01
   3.950719e+01  -2.273695e+01
   1.207146e+01   1.072604e+01
   2.895625e+01  -5.093225e+01
  -7.959464e+01   8.427787e+00
  -6.680654e+01  -1.714275e+01
   1.541487e+01  -3.060413e+01
   1.147280e+02  -1.983163e+01
