
 $NMID
 id='ANONYMOUS ', fmtdat='(2E16.6)'
 volume=1.0
 tramp=1.0
 $END
  -3.604751e+03  -9.444036e+01
  -2.278584e+03  -1.877771e+03
   6.887042e+01  -2.247235e+03
   1.391711e+03  -1.356951e+03
   9.782321e+02  -1.940303e+02
   2.936583e+01   1.712618e+02
  -3.937294e+02  -1.208429e+02
  -3.941885e+01  -6.279497e+02
   5.196862e+02  -6.315632e+02
   7.350949e+02  -8.007478e+01
   4.215765e+02   5.875719e+02
   1.596865e+01   7.304056e+02
  -3.676982e+02   2.041659e+02
  -2.351759e+02  -4.379275e+02
   1.684666e+02  -6.130481e+02
   4.522490e+02  -5.767954e+01
   2.846690e+02   5.464402e+02
  -1.437062e+02   6.329693e+02
  -5.095587e+02   2.731110e+02
  -4.762095e+02  -1.707792e+02
  -1.231925e+02  -3.618127e+02
   1.589245e+02  -2.957983e+02
   3.690001e+01  -1.128261e+02
  -2.003513e+02  -1.072560e+02
  -2.943377e+02  -3.280756e+02
  -1.826664e+01  -4.314265e+02
   5.422410e+02  -1.400205e+02
   6.178265e+02   2.630315e+02
   2.094270e+02   4.163703e+02
  -3.463346e+02   2.307783e+02
  -5.931041e+02  -1.327099e+02
  -2.045453e+02  -4.021487e+02
   2.716089e+02  -3.694618e+02
   5.332673e+02  -1.696754e+02
   4.325899e+02   2.075651e+02
   1.151512e+02   3.792481e+02
  -4.179344e+01   1.984097e+02
   7.159242e+00  -1.281682e+02
   2.261655e+02  -1.902380e+02
   2.526729e+02   1.434817e+02
  -1.985998e+01   5.448225e+02
  -2.993129e+02   4.866268e+02
  -3.488811e+02  -1.844117e+01
  -1.430396e+02  -3.704793e+02
   2.221050e+02  -1.506845e+02
   2.244616e+02   2.916591e+02
  -1.637231e+02   4.473066e+02
  -4.685196e+02   7.292835e+01
  -5.446397e+02  -4.381327e+02
  -1.740593e+02  -5.603328e+02
   3.568805e+02  -2.961546e+02
   5.688197e+02   1.105514e+02
   3.871855e+02   2.591410e+02
  -1.845522e+01   2.751168e+02
  -2.498022e+02   5.766860e+01
  -2.320733e+02  -6.840705e+01
   5.701919e+01  -1.847867e+00
   1.299304e+01   7.690761e+01
  -1.071497e+02   1.835110e+01
  -2.664686e+02  -6.606075e+01
  -1.797537e+02  -2.302351e+02
   1.798076e+02  -2.575594e+02
   3.635287e+02  -1.663019e+02
   3.150211e+02   9.886701e+01
  -2.101164e+01   4.008973e+02
  -3.281172e+02   4.309184e+02
  -4.199934e+02   1.986587e+02
  -2.337229e+02  -2.156493e+02
  -3.930111e+00  -4.136546e+02
   6.140256e+01  -3.622671e+02
   3.707187e+01  -1.779921e+02
   4.223197e+01  -1.534747e+02
   2.310623e+02  -1.292057e+02
   3.042525e+02  -8.227014e+01
   2.960267e+02   9.461929e+01
   7.841179e+01   2.940036e+02
  -8.581278e+01   1.844799e+02
  -1.736401e+02  -3.550178e+01
  -1.438654e+02  -2.173758e+02
   1.038682e+02  -2.756516e+02
   2.950141e+02  -6.694543e+01
   3.462599e+02   2.074774e+02
   2.052219e+02   3.286533e+02
  -1.363233e+02   2.654084e+02
  -1.699897e+02   1.210862e+02
  -1.311314e+02   1.176096e+02
  -1.573860e+02   9.813774e+01
  -3.640493e+02   2.206473e+01
  -4.543332e+02  -1.200916e+02
  -3.299304e+02  -3.575068e+02
   4.024568e+01  -4.655918e+02
   4.498443e+02  -4.001714e+02
   5.319387e+02  -1.304735e+02
   2.928507e+02   7.328627e+01
   7.593954e+01   3.393036e+02
  -1.448518e+02   1.943986e+02
  -3.859058e+00   1.035512e+02
   1.508237e+02  -2.440253e+01
   1.040398e+02   1.172688e+02
   1.774372e+00   1.579727e+02
  -2.062983e+02   8.388743e+01
  -1.295774e+02  -5.466350e+01
   2.377355e+00  -1.558770e+02
   2.057572e+02  -1.808627e+00
   1.973291e+02   2.614636e+02
  -4.362922e+01   3.916136e+02
  -2.461246e+02   2.903383e+02
  -3.339063e+02  -5.562643e+01
  -3.684437e+02  -3.020135e+02
  -7.758230e+01  -2.987130e+02
   1.070343e+02  -1.911263e+02
   1.830215e+02   2.504881e+00
   2.481842e+01   3.846805e+00
  -8.252600e+01  -1.000640e+02
  -1.097595e+00  -1.558681e+02
   1.514421e+02  -7.740317e+01
   1.635084e+02  -4.553672e+01
   1.946627e+01   7.446870e+01
  -8.901123e+01  -4.450314e+01
  -2.468109e+01  -6.011260e+01
   2.132064e+02  -1.403819e+02
   2.999182e+02   3.197981e+01
   2.932678e+02   1.948400e+02
   6.248063e+00   2.982203e+02
  -2.446588e+02   2.773736e+02
  -3.372854e+02   9.390560e+01
  -1.365018e+02  -4.625457e+01
   5.126231e+01  -5.226391e+01
   6.036849e+01  -7.252395e+00
  -1.192791e+02   9.580400e+01
  -2.519452e+02   3.853430e+01
  -1.527527e+02  -1.595825e+02
  -2.036555e+01  -2.411945e+02
   1.197169e+02  -1.545775e+02
   1.348571e+02   3.890507e+01
   9.495435e+01   2.938767e+01
  -4.708718e+01   1.651906e+01
  -1.804384e+01  -1.216915e+02
   4.867014e+01  -1.854510e+02
   2.364619e+02  -2.569860e+01
   2.196084e+02   1.201739e+02
  -2.037891e+01   1.989920e+02
  -1.577091e+02   1.611979e+02
  -2.477439e+02   2.743612e+01
  -5.978587e+01  -1.618632e+02
   9.213602e+01  -1.518019e+02
   1.253122e+02  -4.074004e+01
  -1.452882e+01   4.243105e+01
  -9.439602e+01  -5.831080e-01
   1.208049e+01  -5.060419e+01
   1.549637e+02  -2.529991e+01
   9.618049e+01   9.287292e+01
  -2.311823e+01   2.333387e+02
  -1.709399e+02   1.602363e+02
  -2.449352e+02  -6.627342e+00
  -1.936128e+02  -1.884925e+02
  -4.830401e+01  -2.666755e+02
   1.248303e+02  -1.316281e+02
   1.511260e+02  -1.371137e+01
   4.433922e+01   2.004590e+01
   4.078650e+01   3.061286e+01
   7.803496e+01   1.987344e+01
   1.205269e+02   2.016770e+01
   4.317347e+01   5.742160e+01
  -2.656520e+01   9.625670e+01
  -8.179392e+01   5.700525e+01
  -8.642325e+01  -7.825396e+01
   1.903502e+01  -1.447940e+02
   1.748674e+02  -9.095893e+01
   2.435152e+02   5.740091e+01
   1.202211e+02   2.712513e+02
  -1.858060e+02   2.629000e+02
  -3.148740e+02   6.423645e+01
  -2.251842e+02  -7.146216e+01
  -8.221824e+01  -2.147289e+02
   7.967224e+01  -1.513505e+02
   1.381510e+02  -7.907672e+01
   9.372118e+01  -6.753976e+01
   7.054039e+01  -9.904627e+01
   1.017916e+02  -8.457275e+01
   1.262206e+02   5.167567e+00
   1.104434e+02   1.799084e+02
  -2.140599e+01   2.153088e+02
  -1.210676e+02   1.807534e+02
  -1.933006e+02  -4.314967e+01
  -1.041216e+02  -1.774483e+02
   4.323592e+01  -1.960735e+02
   1.336065e+02  -1.029967e+02
   8.392899e+01   7.588503e+00
  -4.874751e+01   6.241575e+01
  -5.966269e+01   4.018526e+01
  -2.202916e+01  -4.184032e+01
   1.148726e+02   2.459182e+01
   4.100213e+01  -1.740514e+01
  -4.488890e+01   7.930980e+01
  -1.670689e+02   1.544697e+01
  -1.581774e+02  -9.804301e+01
   3.408467e+01  -7.560483e+01
   1.816617e+02  -6.435386e+01
   1.633122e+02   2.579240e+01
   5.205511e+01   4.848450e+01
  -3.895893e+01   5.102665e+01
  -8.410796e+01  -5.539664e+01
   9.379249e+00  -1.115471e+02
   4.776097e+01  -6.291843e+01
   2.239177e+01   1.138622e+01
   1.006530e+02   4.560872e+01
   1.066909e+02   5.125850e+01
   3.135996e+01  -1.245226e+01
   4.612186e+01  -5.930451e+00
  -5.242916e+00   7.777221e+01
  -2.799294e+01   1.227198e+02
  -1.696602e+02   1.755851e+02
  -2.168489e+02  -2.208124e+01
  -1.048158e+02  -1.209002e+02
  -5.986159e+01  -1.492947e+02
   1.559194e+02  -8.785531e+01
   1.114775e+02   2.595817e+01
  -1.535483e+01   7.173268e+01
  -1.552314e+02  -8.017549e+01
  -1.052878e+02  -1.167465e+02
   1.238559e+02  -9.173783e+01
   2.216695e+02  -7.581707e+01
   1.838492e+02   9.495689e+01
   1.176170e+01   8.357068e+01
  -6.235012e+01   1.920901e+01
  -3.156086e+01   6.993426e+01
   5.079264e+01  -9.266701e+01
   7.407075e+01   2.648045e+01
   7.959989e+00   1.290527e+02
  -8.155592e+01   1.781721e+02
  -2.081023e+02   7.462753e+01
  -1.714028e+02  -1.221865e+02
  -1.488094e+01  -1.848132e+02
   6.941988e+01  -1.723171e+02
   1.370198e+02   2.342448e+01
   3.157133e+01   1.713078e+02
  -3.556210e+01   7.525296e+01
  -3.792998e+01  -4.803118e+01
  -5.722015e+01  -6.057596e+01
   3.354224e+01  -1.765599e+01
   1.089393e+01   8.562190e+01
  -1.598417e+01   5.618810e+01
  -8.600000e+01  -1.500312e+02
  -6.059347e+01  -1.206082e+02
   5.392337e+01  -7.406748e+01
   1.873200e+02  -2.050583e+01
   1.493508e+02   6.131156e+01
   6.014653e+01   6.172484e+01
  -1.070348e+02   2.614225e+01
  -9.953253e+01  -6.400802e+00
  -4.238640e+01  -1.152459e+01
   5.566189e+01   2.991830e+00
   3.549370e+01   3.473530e+00
   9.784261e+00   5.738411e+00
  -3.604049e+01   7.648341e+00
   4.564877e+01   5.585718e+01
   9.953148e+01   2.819043e+01
  -3.313137e+00   1.154181e+02
  -6.042733e+01   7.082692e+01
  -1.951895e+02   7.401582e+01
  -2.229275e+02  -7.095927e+01
   1.058330e+00  -1.642461e+02
   1.415990e+02  -1.405560e+02
   2.214928e+02  -9.087247e+01
   8.973325e+01   4.874642e+01
   3.272183e+00  -2.524933e+01
   4.277456e+01   3.732912e+01
   3.854412e+00   2.152089e+01
   3.323712e+01   6.479889e+01
   3.066283e+01   1.307883e+02
  -2.238784e+01   8.456368e+01
  -1.013164e+02   2.994086e+01
  -1.714077e+01  -9.780150e+01
  -4.508248e+01  -1.155387e+02
   8.017729e+01  -3.370448e+00
   8.167244e+01   2.645084e+01
   8.784851e+00   8.503061e+01
  -8.660550e+01   7.616089e+01
  -9.206244e+01  -2.181887e+01
  -3.406715e+01  -8.968204e+01
   5.431600e+01  -5.518049e+01
  -8.570454e+00  -6.335967e+01
  -1.006745e+01   5.073767e+01
  -8.172608e+01   3.423476e+00
  -2.238723e+01  -5.466749e+01
   7.402136e+01  -5.119683e+01
   1.970105e+02  -7.906360e+00
   9.238254e+01  -5.654426e+01
  -2.499659e+01   1.003361e+02
  -7.722716e+01   7.828590e+01
  -5.158162e+01  -1.713052e+01
  -1.258418e+01  -2.167996e+01
   8.007751e+01  -1.374476e+01
   1.244822e+01  -1.377390e+01
   5.797879e+01   4.496916e+01
  -1.113528e+01   5.456712e+01
  -8.410486e+01  -5.456500e+01
  -3.499858e+01  -3.182162e+01
  -4.731293e+01  -2.134080e+01
   9.614925e+00  -2.972971e+00
  -3.505582e+01  -1.625842e+01
   2.935100e+00  -6.405818e+01
   4.794874e+00  -9.303087e+01
   2.737838e+01   2.915971e+01
   4.863873e+01   2.887002e+01
  -1.959759e+01   7.067690e+01
  -2.262797e+00   8.475802e+01
  -6.298502e+01  -1.530732e+01
  -2.480292e+01  -5.755021e+01
   3.717717e+01  -1.098523e+02
   1.341646e+02  -6.224382e+01
   6.738408e+01   8.967666e+01
  -3.470899e+01   1.090910e+02
  -5.507958e+01   3.021039e+01
   2.112576e+00   1.851333e+01
   3.235224e+01   3.199004e+01
   4.511720e+01  -1.514940e+01
  -6.026956e+01   7.407806e+01
  -9.371889e+01   4.523790e+01
