
 $NMID
 id='ANONYMOUS ', fmtdat='(2E16.6)'
 volume=1.0
 tramp=1.0
 $END
  -3.371305e+03  -4.844445e+01
  -2.114542e+03  -1.773622e+03
   1.444222e+02  -2.059257e+03
   1.339743e+03  -1.096233e+03
   8.175525e+02  -6.103137e+01
  -1.480199e+02   2.265810e+02
  -4.528830e+02  -1.700654e+02
   3.250014e+01  -6.781396e+02
   5.308827e+02  -5.837930e+02
   6.779654e+02  -8.304475e+01
   4.500962e+02   5.520638e+02
  -7.992192e+01   6.125739e+02
  -3.678755e+02   1.580438e+02
  -2.465555e+02  -4.685057e+02
   1.022096e+02  -5.527436e+02
   4.150525e+02  -2.943778e+01
   2.959603e+02   5.341448e+02
  -1.689262e+02   5.495737e+02
  -4.662578e+02   2.813483e+02
  -4.862233e+02  -1.803891e+02
  -8.911863e+01  -3.363981e+02
   1.178220e+02  -2.642627e+02
   1.187154e+02  -5.411925e+01
  -2.101271e+02  -4.610375e+01
  -3.293817e+02  -2.121423e+02
  -1.975982e+01  -3.707296e+02
   4.532517e+02  -2.170981e+02
   5.916789e+02   1.620356e+02
   3.000212e+02   3.784806e+02
  -3.447820e+02   2.138981e+02
  -5.453733e+02  -9.533868e+01
  -2.239420e+02  -3.911105e+02
   2.708434e+02  -3.896871e+02
   4.221052e+02  -1.401791e+02
   3.033496e+02   1.698156e+02
   1.132979e+02   3.391740e+02
  -6.694180e+01   1.725007e+02
   1.895752e+01  -8.450160e+01
   1.416204e+02  -2.472791e+02
   2.461747e+02   1.236149e+02
  -3.974850e+00   5.373641e+02
  -2.743540e+02   4.911727e+02
  -3.750753e+02  -7.291964e+01
  -1.618327e+02  -4.036833e+02
   1.996956e+02  -1.801992e+02
   2.490869e+02   2.826659e+02
  -1.180691e+02   4.068080e+02
  -4.523949e+02   4.497217e+01
  -4.359640e+02  -3.403619e+02
  -1.410905e+02  -5.014650e+02
   3.275450e+02  -2.529477e+02
   5.098198e+02   7.238847e+01
   3.741602e+02   2.649713e+02
  -6.494042e+01   2.749194e+02
  -3.259371e+02   5.158837e+01
  -2.013606e+02  -9.180770e+01
  -3.078999e+01  -1.583625e+01
   6.195711e+01   8.174898e+01
  -1.240720e+02   9.076541e+01
  -2.202757e+02  -2.066180e+01
  -1.172782e+02  -2.118315e+02
   1.769674e+02  -2.424559e+02
   3.140015e+02  -1.114180e+02
   2.814935e+02   5.812391e+01
  -1.840740e+01   2.958983e+02
  -2.993130e+02   3.800803e+02
  -3.533913e+02   2.007007e+02
  -2.322280e+02  -1.731465e+02
  -9.669056e+01  -4.352562e+02
   6.087913e+01  -3.260401e+02
   3.085100e+01  -1.337644e+02
   1.368530e+01  -1.118036e+02
   1.540796e+02  -1.071225e+02
   2.047577e+02  -7.494921e+01
   2.830769e+02   7.675205e+01
   1.087426e+02   2.561391e+02
  -1.072094e+02   2.278868e+02
  -1.852925e+02  -4.835677e+00
  -1.599217e+02  -2.459608e+02
   5.119415e+01  -2.838514e+02
   2.500317e+02  -8.981574e+01
   2.770899e+02   1.434203e+02
   1.240471e+02   2.854661e+02
  -1.558507e+01   2.356264e+02
  -1.277598e+02   1.563056e+02
  -1.530099e+02   1.177005e+02
  -1.335969e+02   1.179472e+02
  -2.135832e+02   3.081499e+01
  -3.610139e+02  -1.662011e+01
  -3.038904e+02  -2.683341e+02
   2.397665e+01  -4.172502e+02
   3.538993e+02  -4.032856e+02
   5.262766e+02  -1.866339e+02
   2.896756e+02   6.592546e+01
  -1.555564e+01   2.463487e+02
  -1.398893e+02   2.089652e+02
  -5.343574e+01   4.875571e+01
   1.231118e+02  -3.822518e+01
   1.730326e+02   4.021529e+01
   2.882838e+01   1.859884e+02
  -9.664646e+01   1.045557e+02
  -1.333220e+02  -6.122404e+01
   2.267783e+01  -1.668879e+02
   1.316124e+02  -6.868114e-01
   1.481717e+02   2.343225e+02
  -3.392258e+01   2.897439e+02
  -2.733503e+02   1.952745e+02
  -3.213426e+02  -8.940596e+01
  -2.668344e+02  -2.186239e+02
  -8.327721e+01  -2.856111e+02
   1.396233e+02  -1.372286e+02
   1.487336e+02   3.267740e+01
  -8.361189e+00   7.078441e+01
  -6.072540e+01  -6.361063e+01
  -6.724890e+00  -8.805480e+01
   6.338431e+01  -6.651275e+01
   1.465696e+02   3.955153e+01
   3.350721e+01   3.776865e+01
  -1.065534e+02  -1.560948e+01
  -4.533198e+01  -3.580660e+01
   1.562160e+02  -8.268910e+01
   3.328344e+02   9.405162e+00
   3.283388e+02   1.095481e+02
   2.466114e+01   2.459818e+02
  -1.788790e+02   2.390926e+02
  -2.380615e+02   1.369081e+02
  -1.276093e+02   2.709795e+01
   3.431845e+01  -8.063645e+01
   7.214149e+01   1.718771e+00
  -5.351275e+01   1.069347e+02
  -1.533278e+02   9.591448e+00
  -1.785962e+02  -1.184374e+02
  -6.798853e+01  -1.341259e+02
   1.193466e+02  -1.420404e+02
   9.471637e+01  -1.096150e+01
   8.634921e+01   8.131654e+01
  -7.869645e+01   1.598921e+01
  -5.359326e+01  -7.136899e+01
   9.729562e+01  -9.606282e+01
   2.087657e+02  -2.831632e+01
   2.536374e+02   1.111691e+02
   1.723667e+01   1.951997e+02
  -1.547635e+02   1.319784e+02
  -1.425561e+02   2.399857e+01
  -9.626671e+01  -8.485961e+01
   4.788345e+01  -8.836358e+01
   7.151948e+01  -4.350317e+01
  -2.525768e+01   5.360458e+01
  -3.872113e+01   1.401532e+01
  -6.151482e+00  -6.544165e+01
   7.435246e+01   1.817477e+01
   1.286348e+02   7.246242e+01
   1.389768e+01   2.125091e+02
  -1.129221e+02   1.341438e+02
  -2.953327e+02   3.171033e+01
  -1.609312e+02  -1.772692e+02
  -1.815418e+01  -2.602565e+02
   1.406490e+02  -1.588627e+02
   1.143370e+02  -3.451551e+01
   9.275009e+01   2.605494e+01
   5.398969e+01   5.705645e+01
   2.665423e+01  -2.614501e+01
   5.144404e+01   7.126236e+01
   8.985899e+01   6.905054e+01
  -3.389724e+01   1.048939e+02
  -1.703405e+02   8.447561e+01
  -6.803250e+01  -2.076565e+01
   5.034503e+01  -7.144235e+01
   1.723394e+02  -1.251994e+02
   1.720350e+02   7.453791e+01
   8.499610e+01   2.222950e+02
  -1.013459e+02   2.451317e+02
  -2.277899e+02   7.526524e+01
  -2.529438e+02  -1.085886e+02
  -8.770197e+01  -1.251407e+02
   2.878934e+01  -1.033393e+02
   8.993187e+01  -7.680066e+01
   5.390022e+01  -6.498462e+01
   7.287039e+01  -7.820433e+01
   1.075662e+02  -3.029525e+01
   1.548364e+02   5.365143e+01
   3.353529e+01   1.453692e+02
   3.951486e+00   1.806915e+02
  -1.602415e+02   1.643788e+02
  -1.564006e+02  -9.153187e+00
  -1.269216e+02  -1.555219e+02
   1.339277e+01  -1.520392e+02
   1.005581e+01  -6.037616e+01
   1.230206e+02  -2.177007e+01
   3.295994e+01   5.789214e+01
   4.034382e+00   3.514554e+01
   4.252433e+01  -1.219702e+01
   8.759016e+01   2.646095e+00
   2.954640e+01   2.965363e+01
  -7.659904e+01   3.800106e+00
  -1.819969e+02   3.649186e+01
  -1.650773e+02  -1.019936e+02
   2.642913e+01  -1.065972e+02
   1.034408e+02  -5.777896e+01
   1.263783e+02  -2.449585e+01
   7.267782e+01   6.613752e+01
  -3.805748e+01   4.935757e+01
  -7.682491e+01  -2.993301e+01
  -1.898702e+01  -8.027817e+01
   4.766256e+01  -9.443865e+01
   9.355416e+01  -9.056649e+00
   1.711558e+01   7.455497e+01
   5.724821e+00   8.320464e+01
   6.124007e+01   5.109671e+00
   3.362939e+01  -1.629418e+00
   5.872288e+01   1.163294e+02
   7.941878e+00   9.345186e+01
  -1.576324e+02   1.055135e+02
  -1.504454e+02   4.906887e+01
  -1.077711e+02  -9.723637e+01
  -1.752658e+01  -1.259322e+02
   1.352157e+02  -1.386831e+02
   8.994239e+01   4.094994e+01
  -7.699474e+01   2.370039e+01
  -1.096961e+02  -6.896925e+01
  -7.339987e+01  -8.514128e+01
   8.296771e+01  -5.016442e+01
   2.181734e+02  -3.362766e+01
   9.197622e+01   4.979424e+01
   4.567771e+01   4.961558e+01
  -1.340283e+02   1.288246e+01
  -1.300887e+02  -1.415229e+01
   8.816136e+01  -2.801571e+01
   1.191461e+02  -2.020527e+01
   7.612828e+01   1.402623e+02
  -6.210507e+01   1.623151e+02
  -2.024778e+02   5.962521e+01
  -1.263126e+02  -7.590916e+01
   3.460657e+01  -2.400211e+02
   9.694393e+01  -1.533574e+02
   7.350109e+01  -2.070266e+01
   3.562469e+01   1.262545e+02
  -3.646941e+01   1.274578e+02
  -9.976544e+01   1.540074e+01
  -2.259893e+01  -2.193387e+00
  -2.930892e+01  -1.991692e+01
   2.030279e+01   6.983190e+01
  -6.065680e+01  -5.540232e+01
  -5.862969e+01  -1.124640e+02
  -4.758463e+01  -7.446620e+01
   3.343111e+01  -7.351218e+01
   1.254065e+02   1.419509e+01
   1.129007e+02   8.406201e+01
   3.206977e+01   5.672411e+01
  -8.654422e+01   1.758784e+01
  -7.738775e+01   2.423793e+01
  -3.174845e+01  -1.439210e+01
   3.031119e+01  -2.763808e+01
  -9.536096e+00  -4.871685e+00
   7.891348e+00   4.566109e+01
   6.058368e+01  -1.651645e+01
   4.872209e+01  -6.458140e+00
   1.646577e+02   2.662630e+01
   1.738555e+01   8.493787e+01
  -1.255721e+02   1.580260e+02
  -1.967952e+02   7.338867e+01
  -1.267135e+02  -3.528779e+01
   1.687212e+00  -1.737489e+02
   3.296452e+01  -1.664860e+02
   1.228665e+02  -9.228955e+01
   3.462721e+00   5.744630e+01
   3.363037e+01   5.550634e+01
  -1.786009e+00  -2.976461e+01
   3.994532e+01   4.703996e+01
   6.305749e+01   1.130014e+01
  -3.534871e+01   5.658531e+01
   4.135867e+01   5.699945e+01
  -6.382682e+01   1.163424e+01
  -4.298225e+01  -7.594226e+01
  -2.393504e+01  -1.375055e+02
   3.533264e+01   2.080727e+01
   8.880720e+01   1.015055e+02
   4.374359e+01   8.805701e+01
  -5.607381e+01   2.988865e+01
  -6.842589e+01   1.569653e+01
  -7.478622e+01  -5.842114e+01
   3.815475e+01  -3.637500e+01
   7.843638e+01  -5.012399e+01
  -5.474205e+01   2.944229e+01
  -4.010725e+01   2.915022e+01
   1.274001e+01  -1.838065e+01
   7.705511e+01  -8.388263e+01
   1.086055e+02  -4.809937e+01
   9.288970e+01   3.074738e+01
   1.291972e+01   4.849182e+01
  -1.212904e+02   7.401012e+01
  -7.950596e+01   4.212246e+01
  -8.576734e+00  -3.655768e+01
   6.477886e+01   2.387137e+00
   4.379320e+01   4.724988e+00
  -5.168396e+00   5.004123e+01
   2.589711e+01  -3.800415e+00
  -4.756485e+01   2.157596e+01
  -3.075433e+01  -3.770206e+01
  -8.130196e+01  -1.852896e+01
  -2.085931e+01  -7.862143e+00
  -2.011556e+01  -1.706287e+01
   2.427597e+01   2.326579e+01
  -1.605621e+01  -2.533701e+01
  -1.110634e+01   1.107303e+01
   3.947020e+01   1.546411e+01
   9.055111e+00   1.241177e+01
  -7.427490e+01   3.726134e+01
  -1.056158e+02   1.734289e+01
   2.475738e+01  -9.301451e+01
   9.985667e+01  -2.090503e+01
   9.155083e+01   1.617504e+01
   3.108050e+01   7.563862e+01
  -7.886959e+01   5.925381e+01
  -3.900941e+01  -4.075182e+01
  -3.442883e+00   3.274730e+01
   1.840333e+01   5.523625e+00
   2.561722e+01  -7.611154e+00
  -5.356322e+01  -2.401350e+00
  -8.167564e+01   4.876716e+01
