
 $NMID
 id='ANONYMOUS ', fmtdat='(2E16.6)'
 volume=1.0
 tramp=1.0
 $END
   4.604773e+03  -4.344347e+01
   2.723545e+03   2.797607e+03
  -8.376614e+02   2.947379e+03
  -2.351759e+03   9.002152e+02
  -1.020489e+03  -8.359572e+02
   7.549023e+02  -7.056955e+02
   1.016294e+03   4.766983e+02
   1.322756e+01   1.159004e+03
  -9.150628e+02   8.319355e+02
  -1.006828e+03  -1.158641e+02
  -5.205606e+02  -9.402191e+02
   2.796839e+02  -9.031060e+02
   6.143859e+02  -1.401825e+02
   4.382978e+02   8.253282e+02
  -3.360468e+02   8.128488e+02
  -6.725226e+02  -6.720664e+00
  -3.084440e+02  -7.308417e+02
   3.327211e+02  -7.021548e+02
   6.173779e+02  -3.567682e+01
   3.963679e+02   3.954417e+02
   2.663593e+01   4.899207e+02
  -2.342706e+02   3.070778e+02
  -2.678846e+02  -1.801889e+01
   1.608789e+02  -1.063002e+02
   3.820877e+02   7.102999e+01
   2.618725e+02   4.034203e+02
  -5.062044e+02   4.380741e+02
  -8.915926e+02  -5.507114e+01
  -4.596493e+02  -5.375431e+02
   3.611475e+02  -5.489381e+02
   8.025584e+02   3.980097e+01
   3.339934e+02   5.431965e+02
  -3.397537e+02   5.588745e+02
  -5.908083e+02   2.160696e+02
  -4.432723e+02  -2.461001e+02
  -7.132004e+01  -5.533727e+02
   2.496761e+02  -3.509832e+02
   2.431321e+02   2.504310e+02
  -9.767424e+01   4.777963e+02
  -4.970979e+02  -1.904645e+01
  -2.805866e+02  -7.267641e+02
   3.550193e+02  -7.789527e+02
   6.707503e+02   3.396262e+00
   2.864566e+02   6.037268e+02
  -3.328974e+02   3.872575e+02
  -4.126595e+02  -3.164229e+02
   1.707365e+01  -5.800532e+02
   5.869871e+02  -1.646969e+02
   6.119500e+02   3.999001e+02
   1.278191e+02   6.208470e+02
  -4.146560e+02   3.931728e+02
  -6.931438e+02  -9.089424e+01
  -4.391091e+02  -4.152929e+02
   1.915480e+02  -4.099239e+02
   5.234907e+02  -1.033299e+02
   2.881153e+02   2.142365e+02
  -1.746992e+02   1.218945e+02
  -1.293357e+02  -2.116095e+02
   1.729481e+02  -2.185557e+02
   3.678861e+02   1.060816e+02
   1.692069e+02   4.240945e+02
  -1.914770e+02   2.626861e+02
  -3.584661e+02   5.018126e+01
  -1.986976e+02  -9.839431e+01
   5.522588e+01  -1.737337e+02
   2.248007e+02  -2.682322e+02
   3.573877e+02  -2.469682e+02
   3.535022e+02   1.587168e+02
   5.303238e+01   4.386596e+02
  -1.209601e+02   4.386976e+02
  -1.783331e+02   1.253346e+02
  -7.905153e+01  -3.171314e+01
  -5.660263e+00   8.601511e+01
  -1.463595e+02   1.296259e+02
  -3.020842e+02  -4.734774e+01
  -1.046600e+02  -3.361498e+02
   5.492802e+01  -3.049528e+02
   1.848153e+02   5.982986e+00
   2.087351e+02   2.685259e+02
  -1.032597e+01   3.197242e+02
  -2.643332e+02   1.151923e+02
  -3.994497e+02  -2.353963e+02
  -1.937715e+02  -3.889024e+02
   1.176410e+02  -3.380948e+02
   2.214288e+02  -1.593912e+02
   1.779045e+02  -2.254582e+01
   8.707037e+01  -6.735805e+01
   2.535337e+02  -2.141701e+01
   3.891380e+02   3.616018e+01
   3.875798e+02   2.647700e+02
  -3.311193e+01   4.498452e+02
  -3.654750e+02   4.392625e+02
  -5.280300e+02   1.960115e+02
  -3.666768e+02  -7.872634e+01
  -6.652543e+01  -3.234064e+02
   1.486673e+02  -2.378685e+02
   1.371285e+02   3.786114e+00
  -1.001008e+02   1.662136e+02
  -2.150522e+02   2.255341e+01
   2.113222e+01  -1.815671e+02
   1.686491e+02  -1.706105e+02
   2.046633e+02   4.131323e+01
   2.702070e+01   1.956892e+02
  -1.645163e+02  -4.244132e+00
  -1.657516e+02  -1.976929e+02
   3.636374e+01  -2.949931e+02
   2.438960e+02  -2.109409e+02
   3.571415e+02   4.158017e+01
   2.504880e+02   2.068715e+02
   7.310625e+01   2.573521e+02
  -9.169548e+01   1.419103e+02
  -2.134238e+02   1.088890e+01
   1.550647e+00  -2.995426e+01
   1.284367e+02   4.446759e+01
   5.516585e+01   1.461825e+02
  -7.147222e+01   1.341339e+02
  -1.861071e+02  -4.913092e+01
  -7.217179e+01  -7.366656e+01
   9.578130e+01  -3.333835e+01
   7.761650e+01   5.707781e+01
  -1.253479e+02   8.479491e+01
  -2.418020e+02   2.630628e+01
  -3.040867e+02  -1.313720e+02
  -3.021610e+01  -2.304084e+02
   1.722216e+02  -2.304880e+02
   3.335488e+02  -9.045490e+01
   1.892398e+02   5.085505e+01
  -2.772882e+01   1.039207e+02
  -1.348788e+02  -1.006499e+01
  -5.267120e+00  -8.290318e+01
   1.770677e+02  -6.085666e+01
   2.085706e+02   6.297590e+01
   3.802932e+01   2.004593e+02
  -4.249347e+01   2.039842e+02
  -2.093471e+02   2.699340e+01
  -6.077325e+01  -5.880875e+01
   4.902873e+01  -1.201553e+01
   3.400794e+01   1.497620e+02
  -2.110162e+01   8.151091e+01
  -2.478791e+02   2.261412e+01
  -1.927675e+02  -1.202844e+02
   6.223562e+00  -2.260909e+02
   1.677709e+02  -1.691279e+02
   1.813322e+02   2.640053e+01
   5.724231e+01   8.022288e+01
  -7.353379e+01   1.515054e+02
  -8.633252e+01   4.813633e+01
  -3.802068e+01  -2.511702e+01
   4.325666e+01  -2.750074e+01
  -5.585002e+01   1.733322e+01
  -8.902204e+01   3.545502e+01
  -8.443402e+01  -1.056376e+02
  -1.951798e+01  -1.426190e+02
   1.114809e+02  -1.513809e+02
   2.172911e+02  -7.676668e+00
   2.492707e+02   2.010697e+02
   1.183898e+02   2.520614e+02
  -1.204594e+02   2.019461e+02
  -1.673527e+02   4.023082e+00
  -9.137588e+01  -4.030318e+01
  -5.090472e+01  -3.137083e+01
  -5.889062e+01   4.612232e+01
  -3.740384e+01  -3.175390e+01
   2.628232e+00  -1.178494e+01
   6.845473e+01  -1.143691e+02
   7.465081e+01   2.243308e+01
   1.266286e+02   4.262649e+01
  -5.983770e+01   9.128815e+01
  -1.188370e+02   6.809687e+01
  -1.678481e+02  -4.885171e+01
  -1.526634e+02  -1.549245e+02
   7.349160e+01  -2.311278e+02
   2.810884e+02  -3.606886e+01
   2.958604e+02   1.062562e+02
   1.500462e+02   1.463953e+02
  -2.087861e+01   1.529289e+02
  -1.372964e+02   8.472497e+01
  -8.325808e+01   7.021798e+01
  -8.551916e+01   7.107553e+01
  -1.300053e+02   3.860374e+01
  -1.077656e+02   2.343676e+01
  -1.833308e+02  -8.746000e+01
  -6.913190e+01  -2.848829e+02
   1.109290e+02  -1.524376e+02
   1.865548e+02  -6.785076e+01
   1.598257e+02   9.234569e+01
   1.271951e+01   1.833573e+02
  -6.914467e+01   9.723301e+01
  -7.983870e+01   3.349955e+01
  -6.143653e+01  -2.816315e+00
   4.953097e+01   2.367959e+01
  -5.922324e+01  -3.709432e+01
  -1.179185e+02  -1.828462e+01
  -7.331178e+01  -5.414690e+01
   8.758558e+01  -5.902072e+01
   1.728315e+02  -2.306649e+01
   1.584446e+02   2.634039e+01
   3.889976e+01   7.946227e+01
  -9.149358e+01   3.084695e+00
  -1.836278e+02   1.979919e+01
  -3.073470e+01  -1.616689e+01
   3.463240e+01  -9.620151e+01
   9.545665e+01   2.167761e+01
  -1.262270e+01   6.327413e+01
  -1.176872e+02   8.475885e+01
  -5.074974e+01  -1.845125e+00
  -5.104847e+01  -4.134512e+01
  -7.565339e+01  -2.782459e+01
  -7.118916e+01   2.338242e+01
  -4.466836e+01   9.031579e-01
  -2.236369e+01  -1.046421e+02
   5.850607e+01  -1.411795e+02
   1.438031e+02  -1.156233e+02
   1.686412e+02   2.643735e+01
   8.214724e+01   1.464724e+02
   1.894856e+01   1.709606e+02
  -9.320646e+01   5.597182e+01
  -1.528146e+01   4.343357e+01
   4.011996e+01   4.513060e+00
   1.286042e+02   8.815236e+01
   1.194706e+02   8.740070e+01
  -7.812492e+01   1.220836e+02
  -1.689774e+02   7.666078e+01
  -1.516158e+02  -2.206321e+01
  -1.791047e+01  -1.099159e+02
   4.894026e+01  -8.221029e+01
   6.228015e+01  -1.313349e+00
  -4.350875e+01   1.819407e+01
  -1.020415e+02  -1.006645e+01
   1.669260e+01  -1.025597e+02
   1.233954e+02  -1.530203e+02
   1.578314e+02  -7.380974e+01
   1.274916e+02   9.236248e+01
   4.617595e+01   2.428947e+02
  -1.056917e+02   1.450239e+02
  -1.676566e+02   4.222905e+01
  -2.679970e+01  -1.024086e+02
   3.642627e+01  -1.015384e+02
   7.694736e+01  -4.876495e+01
   6.916363e+01   4.418223e+01
   5.233939e+01   3.309030e+01
  -3.130511e+01   3.268820e-02
  -1.082533e+01   9.634022e+00
   2.799351e+01   9.570478e+01
   3.845043e+01   7.421199e+01
  -5.686149e+01   5.158527e+01
  -1.400114e+02  -5.440346e+01
  -9.892882e+01  -6.752141e+01
  -8.296368e+01  -7.784071e+01
   6.483319e+01  -3.404718e+01
   1.545990e+02   3.108052e+01
   1.922664e+01   1.295046e+01
  -8.951833e+01  -2.079789e+00
  -5.232954e+00   1.664568e+01
   6.860532e+01   2.633279e+01
   2.105691e+01  -5.009686e+01
  -8.431910e+01   3.364280e-01
  -7.416380e+01  -1.782163e+01
  -6.641972e-02  -9.902802e+01
   6.133898e+01  -9.905635e+01
   1.945351e+02  -6.258573e+01
   1.769572e+02   4.062684e+01
   2.494455e+01   1.607881e+02
  -3.980665e+01   1.318960e+02
  -1.180851e+02   7.712907e+01
  -2.131527e+02  -4.648448e+00
   5.622943e+01  -2.551273e+01
   3.272958e+00   6.896252e+00
   1.510078e+01   3.610897e+01
   4.103816e+01  -3.228565e+01
  -2.819890e+01  -1.267034e+02
   3.996006e+01  -3.653304e+01
   8.420549e+01   2.202540e+01
   1.086239e+02   6.740978e+01
   6.375424e+00   9.692448e+01
  -8.236199e+01  -9.671293e+00
  -8.880343e+01  -5.878280e+01
  -2.530734e+01  -1.387838e+02
   4.733241e+01  -6.662415e+01
   1.202098e+02  -2.130348e+01
   3.274791e+01   8.755161e+01
  -1.527108e+01   4.817772e+01
  -3.874786e+01  -3.573304e+01
  -1.969490e+01  -1.183520e+01
   1.026671e+02  -2.258320e+01
   8.658618e+01   3.559872e+01
  -1.090495e+02   3.320270e+01
  -8.298939e+01   6.478957e+01
  -4.374953e+01  -4.037743e+01
   3.709849e+01  -7.707295e+01
   7.376161e+01  -5.769090e+01
   3.159334e+01  -3.588539e+00
  -5.545991e+01   1.014109e+02
   3.559497e+01  -3.912459e+00
  -1.002507e+02   6.779503e+00
  -5.068313e+01  -4.509676e+01
   3.658758e+00  -2.019877e+01
   3.220391e+01   1.529219e+01
  -1.147232e+01   3.009469e+01
   4.815792e+01   2.728456e+01
  -1.018922e+01   1.590156e+01
  -6.943947e+01   1.725272e+01
   1.968190e+00   5.174539e+01
   1.631018e+01   7.341109e+01
  -6.671866e+01  -2.394428e+01
  -1.521374e+01  -5.977719e+01
   1.932833e+01   3.969713e+01
  -3.290967e+00  -9.175716e+00
   7.633824e+01   4.854603e+01
   3.424677e+01   8.596627e+01
  -1.047211e+02   3.582886e+00
  -1.041105e+02  -7.019177e+01
  -3.442761e+01  -3.388291e+01
   3.280678e+01  -6.163808e+01
   6.703095e+01  -2.661184e+01
   3.535511e+01   5.092831e+01
  -1.256671e+01   7.001338e+00
  -2.407924e+01  -2.812387e+01
  -1.843805e+01   2.064514e+01
   1.408097e+02   4.125293e+01
