
 $NMID
 id='ANONYMOUS ', fmtdat='(2E16.6)'
 volume=1.0
 tramp=1.0
 $END
   4.474822e+03   6.860190e+01
   2.585891e+03   2.783644e+03
  -8.479739e+02   2.838800e+03
  -2.138335e+03   8.599205e+02
  -9.371888e+02  -7.072365e+02
   7.278569e+02  -5.312751e+02
   8.890381e+02   4.895953e+02
  -5.898561e+01   1.087965e+03
  -8.725967e+02   7.840814e+02
  -1.001877e+03  -1.856484e+02
  -4.378531e+02  -9.071322e+02
   2.452865e+02  -8.940670e+02
   7.006492e+02  -8.154040e+01
   3.946533e+02   8.483316e+02
  -3.055405e+02   7.309897e+02
  -5.977661e+02   3.890390e+00
  -3.243683e+02  -7.129768e+02
   3.734068e+02  -6.397430e+02
   6.261777e+02  -6.059141e+01
   4.104665e+02   4.269699e+02
  -7.896421e+00   4.846965e+02
  -2.526564e+02   2.330778e+02
  -2.104481e+02  -1.698241e+00
   8.431412e+01  -1.011424e+02
   4.149255e+02   1.713610e+02
   2.040304e+02   4.351218e+02
  -4.755112e+02   4.479871e+02
  -9.337963e+02  -5.768309e+01
  -4.305705e+02  -5.677527e+02
   4.945517e+02  -5.467943e+02
   8.205793e+02   5.951132e+01
   3.365104e+02   4.625981e+02
  -2.739618e+02   4.876072e+02
  -5.516861e+02   2.231322e+02
  -3.956139e+02  -2.246798e+02
  -2.979000e+01  -4.993465e+02
   2.776950e+02  -2.751784e+02
   2.088526e+02   1.968533e+02
  -1.883873e+02   5.112974e+02
  -4.633827e+02  -3.416363e+00
  -2.738687e+02  -7.307564e+02
   3.420986e+02  -6.837693e+02
   6.609011e+02   9.105798e+00
   2.935976e+02   5.847735e+02
  -3.023510e+02   2.857071e+02
  -4.430105e+02  -3.606595e+02
   7.709651e+01  -5.850539e+02
   5.973674e+02  -1.181652e+02
   6.067627e+02   4.504145e+02
   2.193591e+02   6.326842e+02
  -3.590609e+02   3.722446e+02
  -6.565329e+02  -8.282067e+01
  -3.319439e+02  -3.804569e+02
   1.590553e+02  -3.878578e+02
   4.601126e+02  -3.406882e+01
   2.467424e+02   2.110890e+02
  -8.490297e+01   6.699422e+01
  -1.876338e+02  -1.693558e+02
   1.629393e+02  -1.608486e+02
   3.452308e+02   4.214880e+01
   1.602252e+02   2.916701e+02
  -1.777473e+02   2.289985e+02
  -3.853016e+02   1.152103e+02
  -2.235754e+02  -7.435702e+01
   3.005582e+01  -2.175511e+02
   2.547057e+02  -3.736704e+02
   3.574481e+02  -2.853662e+02
   3.217221e+02   1.756713e+02
   1.018880e+02   4.335225e+02
  -1.574799e+02   4.276503e+02
  -1.668390e+02   4.023607e+01
  -6.567153e+01  -2.198847e+01
  -3.861035e+01   1.523046e+02
  -2.242580e+02   1.242688e+02
  -2.320928e+02  -9.976968e+01
  -1.464828e+02  -2.925594e+02
   1.164802e+02  -2.548528e+02
   2.534330e+02  -1.920046e+01
   1.968767e+02   2.176347e+02
  -5.985397e+01   3.452794e+02
  -2.811237e+02   1.446863e+02
  -3.538096e+02  -1.886559e+02
  -2.285431e+02  -3.832389e+02
   1.183256e+02  -3.291641e+02
   1.709702e+02  -1.194573e+02
   1.420284e+02  -1.727261e+01
   1.001204e+02  -4.341354e+01
   2.584129e+02  -7.146497e+01
   4.039234e+02   5.845411e+01
   3.604407e+02   2.798539e+02
  -1.911475e+01   4.965367e+02
  -3.272042e+02   4.105687e+02
  -5.142361e+02   2.310849e+02
  -3.179775e+02  -6.529959e+01
  -9.682991e+01  -3.288281e+02
   1.355508e+02  -3.060387e+02
   7.718167e+01  -6.392953e+01
  -1.349285e+02   1.115437e+02
  -2.252549e+02   3.890128e+01
  -1.037562e+02  -2.118768e+02
   2.299896e+02  -1.527921e+02
   1.288839e+02   8.762666e+01
  -3.492054e+01   2.341131e+02
  -2.487801e+02   4.471498e+01
  -1.596835e+02  -2.377411e+02
   3.466448e+01  -3.589229e+02
   2.157924e+02  -2.205872e+02
   2.999478e+02   8.962561e+00
   2.997898e+02   1.877861e+02
   1.337652e+02   2.880708e+02
  -1.270825e+02   1.746566e+02
  -1.873925e+02   3.186974e+01
  -6.970627e+01   6.118444e+00
   2.930360e+01   7.660343e+00
   1.692482e+01   1.275765e+02
  -1.007368e+02   9.389001e+01
  -1.685365e+02  -3.171477e+01
  -7.996573e+01  -1.183853e+02
   1.112228e+02  -4.081250e+01
   6.242773e+01   5.075810e+01
  -1.289681e+02   5.951429e+01
  -2.486606e+02   8.092929e+01
  -3.044212e+02  -1.127904e+02
  -7.923025e+01  -2.690258e+02
   1.600362e+02  -2.693771e+02
   2.779317e+02  -9.567224e+01
   2.232909e+02   6.392195e+01
   1.690670e+01   8.081731e+01
  -8.532269e+01  -1.267116e+01
   9.337629e+01  -1.727767e+02
   1.783031e+02  -6.086839e+01
   2.210547e+02   9.363182e+01
   1.078301e+02   2.078456e+02
  -5.317158e+01   1.271851e+02
  -1.132574e+02   5.189165e+01
  -1.266294e+02  -9.573691e+01
   4.054123e+01  -5.675076e+01
   7.661831e-01   7.231599e+01
   9.579625e+00   1.299238e+02
  -2.041585e+02   4.325499e+01
  -2.029289e+02  -1.728540e+02
  -3.310121e+01  -2.298041e+02
   2.026391e+02  -1.775192e+02
   1.862203e+02  -7.648927e+01
   4.505974e+01   1.722154e+02
  -8.729948e+01   1.199557e+02
  -7.007596e+01   2.289917e+01
  -2.089851e+01  -2.299211e+01
  -1.630669e+01  -2.685186e+01
   5.433163e+00  -2.259011e+01
  -1.051732e+02   5.139684e+00
  -7.496422e+01  -1.230700e+02
  -1.122644e+01  -1.404410e+02
   1.315200e+02  -1.483938e+02
   2.450278e+02  -4.551152e+01
   2.127569e+02   1.550161e+02
   7.426812e+01   2.426385e+02
  -1.368777e+02   1.487742e+02
  -1.373278e+02   5.955356e+01
  -7.808970e+01  -7.353230e+01
  -5.035408e+00   1.338026e+01
  -6.315055e+01   1.295346e+01
  -3.677281e+01   4.104540e+00
  -7.816591e+01  -1.238164e+02
   3.541020e+01  -4.782605e+01
   1.182836e+02  -4.590868e+01
   1.050672e+02   4.067438e+01
   1.255659e+01   4.824463e+01
  -1.718030e+02   9.505825e+01
  -1.858355e+02  -9.583933e+01
  -7.303981e+01  -2.230234e+02
   1.121727e+02  -2.292441e+02
   2.706336e+02  -9.247950e+01
   2.271591e+02   1.139656e+02
   1.454768e+02   1.734108e+02
  -6.504626e+01   1.248449e+02
  -1.004372e+02   2.025012e+00
  -8.298017e+01   6.718427e+01
  -5.507659e+01   8.346017e+01
  -6.572326e+01   1.068306e+02
  -1.262486e+02  -3.121120e+01
  -1.321837e+02  -1.642518e+02
  -4.140667e+01  -2.438967e+02
   9.374997e+01  -1.618496e+02
   1.263352e+02   6.926837e+00
   1.517810e+02   9.047204e+01
  -6.242601e+00   1.857808e+02
  -8.260729e+01   1.237811e+02
  -9.773644e+01   1.282067e+01
  -1.561790e+00  -7.228486e+01
  -2.878290e+01  -4.409293e+01
  -3.889995e+01  -3.718255e+01
  -8.530721e+01   2.589507e+01
  -5.955561e+01  -1.284014e+01
   8.671179e+01  -7.944517e+01
   7.938248e+01  -6.203034e+01
   1.559404e+02   3.603476e+01
  -3.195967e+01   8.834906e+01
  -1.845065e+02   1.476580e+02
  -9.232036e+01  -3.764158e-01
  -5.138362e+01  -5.935492e+01
   6.741757e+01  -6.278057e+01
   1.353136e+02   5.286157e+01
   2.521911e+00   6.793938e+01
  -4.851662e+01   1.389185e+02
  -4.090846e+01  -4.787154e+00
  -1.778837e+01  -2.530900e+01
  -2.475317e+01  -1.549472e+01
  -6.330307e+01   3.534447e+01
  -1.160328e+02  -3.614361e+01
  -1.532004e+00  -9.225281e+01
   1.911916e+01  -1.400733e+02
   1.353512e+02  -7.763813e+01
   1.469392e+02  -2.441673e+01
   1.030178e+02   9.692208e+01
   6.280299e+01   1.396723e+02
  -1.443362e+02   8.352468e+01
  -2.310676e+01   3.363455e+00
   8.521512e+01  -7.582739e+01
   8.584398e+01   1.596799e+01
   6.427695e+01   1.395296e+02
  -1.046374e+02   7.800495e+01
  -2.318544e+02   7.127954e+01
  -1.937056e+02  -7.197728e+01
  -2.153458e+01  -1.033248e+02
   7.641965e+01  -8.704720e+01
   7.581858e+01   1.752333e+01
  -8.737095e+01   4.850110e+01
  -6.891045e+01  -6.665495e+00
  -4.517360e+01  -1.718372e+02
   8.079752e+01  -1.635385e+02
   1.595706e+02  -5.864125e+01
   1.504372e+02   1.081542e+02
   6.032039e+00   1.853102e+02
  -6.142254e+01   1.297747e+02
  -9.494011e+01   1.902335e+00
  -9.981590e+01  -8.848735e+01
   4.915966e+01  -1.315072e+02
   2.307765e+01  -2.772576e+01
  -9.024747e+00   7.077604e+01
   7.989892e+01  -9.710227e-01
   4.812748e+01  -2.013848e+01
  -2.411100e+01   3.661159e+01
   3.537166e+01   1.298762e+02
   3.197219e+00   8.183443e+01
  -4.051804e+01   4.430702e+01
  -1.197406e+02  -8.790587e+01
  -1.002124e+02  -6.168092e+01
  -3.374401e+01  -1.121219e+02
   9.740609e+01  -3.955865e+01
   8.905308e+01  -2.818630e+01
   2.215216e+01   7.646185e+00
  -1.668846e+01   1.949450e+01
   3.898554e+01   8.110545e+00
   7.122567e+01  -2.970987e+01
  -9.895613e+00   4.551518e+01
  -1.910479e+01   2.635880e+01
  -1.308077e+02  -5.947747e+01
  -1.241696e+01  -1.435527e+02
   1.120659e+02  -1.093421e+02
   2.100592e+02  -4.800157e+01
   1.539264e+02   9.722929e+01
   2.131980e+01   1.363318e+02
  -1.014891e+02   1.765387e+02
  -1.011497e+02   4.181939e+01
  -1.122129e+02  -1.272087e+01
   4.280903e+01  -6.923512e+01
   1.356781e+00   2.818270e+01
  -1.627498e+01   7.119158e+00
  -4.883339e+01  -1.577250e+01
  -3.759570e+00  -9.861436e+01
  -6.752577e+00  -3.190231e+01
   9.986706e+01   3.330342e+01
   1.039902e+02   6.905643e+01
   9.848474e+00   1.244340e+02
  -1.241057e+02   3.956366e+01
  -4.654873e+01  -4.374461e+01
  -4.939183e+01  -1.269222e+02
   4.038101e+01  -5.779809e+01
   9.696145e+01   3.635845e+01
   4.725218e+01   6.865843e+01
  -2.337443e+01   3.564537e+01
   3.657791e+00   5.059953e+01
   6.423247e+01   1.053258e+01
   8.083845e+01   3.092911e+01
   5.507594e+01   2.932373e+01
  -7.501751e+01   3.132857e+01
  -1.089743e+02   2.625770e+01
  -3.826245e+01   2.555927e+01
   1.812951e+01  -1.041392e+02
   5.745725e+01  -1.187301e+02
   8.223881e+01   2.178633e+01
   4.346411e+01   3.743588e+01
   4.802759e+00   4.182380e+01
  -2.725432e+01   1.204341e+01
   9.692404e-02  -3.607194e+01
  -1.725266e+01  -3.625921e+01
   4.872761e+01  -2.594434e+00
   3.192249e+01  -1.527762e+01
  -1.226094e+01  -2.067179e+01
   2.793102e+01  -1.338503e+01
   8.974592e+00  -1.223788e+01
  -4.318133e+00  -1.113821e+01
   2.544488e+01   4.143578e+01
  -5.270053e+00  -5.063974e+00
  -2.298263e+01  -1.563295e+01
   9.705181e+00  -8.051367e+01
   6.115232e+01  -1.875679e+01
   5.551582e+01   3.957828e+01
  -5.785515e+01   1.317404e+01
  -8.766444e+01   1.008887e+01
  -8.701487e+01   1.930497e+01
  -2.310249e+01   2.798280e+01
   2.175548e+01  -4.574268e+01
   9.895590e+01   3.203322e+00
   4.286196e+01  -1.940324e+01
  -5.811744e+01  -2.493229e+01
  -7.633916e+01   3.357569e+01
   1.732359e+01  -5.532134e+00
   6.011493e+01   2.581373e+01
