
 $NMID
 id='ANONYMOUS ', fmtdat='(2E16.6)'
 volume=1.0
 tramp=1.0
 $END
  -4.488742e+03   2.793524e+01
  -2.603239e+03  -2.701857e+03
   8.354497e+02  -2.849137e+03
   2.251515e+03  -8.504757e+02
   9.491694e+02   7.386290e+02
  -7.257972e+02   5.951171e+02
  -9.193640e+02  -4.134858e+02
   5.000649e+01  -1.091895e+03
   8.945630e+02  -7.874398e+02
   9.267049e+02   1.228276e+02
   4.113518e+02   8.963998e+02
  -2.614250e+02   9.177250e+02
  -6.842969e+02   1.173720e+02
  -4.130562e+02  -7.857150e+02
   3.114956e+02  -7.718975e+02
   6.009185e+02   7.259283e+00
   2.423914e+02   7.033370e+02
  -4.012795e+02   6.499387e+02
  -5.986708e+02   7.567662e+01
  -3.480279e+02  -3.814852e+02
  -4.344730e+01  -4.406959e+02
   2.845690e+02  -2.307296e+02
   2.242066e+02  -2.729246e+01
  -1.077423e+02   8.766450e+01
  -3.883226e+02  -4.972360e+01
  -1.837965e+02  -4.179975e+02
   4.910530e+02  -4.367196e+02
   9.022461e+02   7.316905e+01
   5.126345e+02   5.405255e+02
  -4.423131e+02   4.932126e+02
  -7.803289e+02  -9.950334e-01
  -3.757014e+02  -4.999403e+02
   3.068544e+02  -4.937136e+02
   5.647067e+02  -2.254014e+02
   4.257177e+02   2.278195e+02
   1.502540e+02   4.738000e+02
  -1.893675e+02   2.714261e+02
  -1.832885e+02  -2.508077e+02
   1.104734e+02  -4.954843e+02
   4.411847e+02   1.203210e+01
   2.418675e+02   7.127263e+02
  -2.799212e+02   7.725284e+02
  -6.328911e+02  -3.679112e+01
  -3.093776e+02  -5.944091e+02
   2.921438e+02  -3.278784e+02
   3.402628e+02   3.134581e+02
  -1.741878e+02   5.656902e+02
  -5.794729e+02   1.723203e+02
  -5.928278e+02  -4.321665e+02
  -1.546299e+02  -5.611128e+02
   3.954419e+02  -3.636511e+02
   7.098997e+02   5.594248e+01
   4.031752e+02   3.945546e+02
  -1.611900e+02   3.926952e+02
  -5.282996e+02   7.846691e+01
  -2.234848e+02  -1.854342e+02
   1.230483e+02  -1.145680e+02
   1.316098e+02   1.937524e+02
  -1.394663e+02   1.982671e+02
  -3.487638e+02  -6.860783e+01
  -1.569733e+02  -3.533174e+02
   2.293119e+02  -2.878023e+02
   3.452523e+02  -1.470606e+02
   1.757730e+02   7.276686e+01
   1.294636e+01   2.333862e+02
  -2.255584e+02   3.086603e+02
  -3.050989e+02   2.135029e+02
  -2.825784e+02  -7.100894e+01
  -7.565748e+01  -4.371990e+02
   1.184263e+02  -3.677448e+02
   1.296870e+02  -1.390345e+02
  -2.505660e+01   5.470684e+01
   2.081828e+01  -8.315752e+01
   1.942540e+02  -1.610046e+02
   2.942357e+02   6.369955e+01
   1.676409e+02   2.726326e+02
  -6.596990e+01   2.608818e+02
  -2.395248e+02  -1.044286e+00
  -2.399124e+02  -2.821202e+02
   3.328579e+01  -3.344493e+02
   2.683981e+02  -1.172761e+02
   3.815612e+02   9.767036e+01
   1.770580e+02   3.404181e+02
  -9.692645e+01   2.974541e+02
  -2.860832e+02   1.145007e+02
  -1.966553e+02  -6.726410e+01
  -7.273895e+01   1.576041e+01
  -2.026400e+02   8.137924e+01
  -3.817997e+02  -3.071094e+01
  -3.898059e+02  -2.702411e+02
  -1.202293e+01  -4.237673e+02
   3.341870e+02  -3.839047e+02
   5.458556e+02  -2.129725e+02
   3.811710e+02   7.517126e+01
   2.186245e+01   3.451045e+02
  -1.778984e+02   1.856458e+02
  -1.118816e+02   5.379021e+01
   1.324334e+02  -8.339152e+01
   2.558356e+02  -9.160263e+00
   4.978972e+01   3.012664e+02
  -1.763356e+02   1.828970e+02
  -1.792454e+02  -6.187161e+01
  -7.378698e+00  -2.221104e+02
   1.597751e+02  -4.768759e+01
   1.964106e+02   2.793779e+02
  -8.311082e+01   3.485561e+02
  -2.631308e+02   1.302226e+02
  -3.707371e+02  -6.821328e+01
  -2.465878e+02  -2.540388e+02
  -1.286470e+02  -3.104631e+02
   9.397578e+01  -1.853353e+02
   2.140690e+02  -1.722963e+01
   9.547202e+01  -3.919565e+00
  -8.649553e+01  -7.823558e+01
  -8.370284e+01  -6.373342e+01
   1.250923e+02  -1.509790e+02
   1.767749e+02   3.269687e+01
   8.914224e+01   8.529461e+01
  -9.764001e+01   1.936798e+01
  -1.098889e+02  -9.191969e+01
   1.006726e+02  -1.375027e+02
   2.717086e+02  -6.062226e+01
   2.341667e+02   8.802635e+01
   6.207637e+01   2.682322e+02
  -2.314572e+02   2.363543e+02
  -2.394595e+02   1.187777e+02
  -1.722400e+02  -5.365283e+01
   2.855975e+01  -7.389081e+01
   1.088003e+02  -5.459820e+01
  -2.625186e+01   1.102090e+02
  -1.737492e+02   1.554895e+01
  -2.063044e+02  -5.811562e+01
  -9.559713e+01  -2.311753e+02
   1.076363e+02  -1.515777e+02
   1.279150e+02  -3.850234e+01
   1.022231e+02   7.655908e+01
  -7.166248e+01   4.149924e+01
  -1.775849e+01  -3.531480e+01
   6.340236e+01  -1.015133e+02
   1.697315e+02  -8.890937e+01
   2.309589e+02   1.055988e+02
   3.566688e+01   2.146010e+02
  -1.238975e+02   1.676240e+02
  -1.657778e+02   2.043314e+01
   8.116786e-01  -9.219232e+01
   6.741578e+01  -1.226238e+02
   5.961234e+01  -5.682748e+01
   7.768998e+00   7.348591e+01
  -3.537102e+01   4.241582e+01
   1.480949e+00  -3.290310e+00
   7.627475e+01  -4.888454e+01
   1.225153e+02   1.217251e+02
   1.639266e+01   1.938703e+02
  -1.363883e+02   1.053403e+02
  -2.035114e+02   7.737708e+01
  -1.982301e+02  -1.433363e+02
  -8.016796e+01  -2.094743e+02
   1.668339e+02  -1.625561e+02
   1.312665e+02  -6.995508e+01
   6.381234e+01   1.154123e+02
   3.985408e+01   3.354329e+01
   7.266430e+01  -6.089341e+01
   6.344588e+01  -8.465803e+00
   5.624434e+01   1.852989e+01
  -8.609042e+01   4.301634e+01
  -1.620656e+02   3.308470e+01
  -1.093353e+02   2.276393e+01
   1.588549e+01  -1.269870e+02
   1.278919e+02  -1.016819e+02
   2.182707e+02   1.008411e+02
   7.419859e+01   2.044079e+02
  -8.921835e+01   2.059159e+02
  -2.169721e+02   8.647812e+01
  -2.388548e+02  -7.406792e+01
  -1.239314e+02  -2.072432e+02
   6.223775e+01  -1.509554e+02
   1.395201e+02  -8.535826e+01
   5.940161e+01  -4.177547e+01
   7.233073e+01  -1.076849e+02
   9.242227e+01  -1.036779e+02
   1.284057e+02   7.715885e+01
   1.243094e+02   1.628285e+02
   2.882561e+01   2.167923e+02
  -1.161017e+02   1.336818e+02
  -1.378078e+02   3.424735e+01
  -1.197791e+02  -1.874959e+02
   1.920144e+01  -1.811992e+02
   2.890588e+01  -1.235609e+02
   6.303961e+01  -7.230853e+00
   7.418767e+00  -2.593006e+01
  -9.151732e+01   5.779566e+01
   4.973157e+01   1.776457e+01
   1.056478e+02   1.045597e+01
   2.898096e+01   3.141944e+01
  -6.259799e+01   3.198993e+01
  -1.535002e+02   3.301734e+01
  -1.758909e+02  -2.938463e+01
  -1.583563e+01  -9.374977e+01
   1.310068e+02  -5.294469e+01
   1.470658e+02  -8.993554e+00
   4.649258e+01  -2.566211e+01
  -7.215849e+01   1.725432e+01
  -2.475527e+01   2.319537e+00
  -7.543812e+00  -7.260759e+01
   2.801638e+01  -9.920536e+01
   6.324060e+01   9.948292e+00
   4.949898e+01   9.797904e+01
   2.530286e+01  -3.650198e+00
   1.113568e+02  -6.385611e+01
   5.968238e+01   2.565534e+01
   7.303695e+01   5.367887e+01
  -1.955073e+01   1.605550e+02
  -7.842256e+01   1.518325e+02
  -1.928689e+02   1.024934e+01
  -1.101077e+02  -6.243632e+01
  -1.016311e+01  -1.467616e+02
   1.007145e+02  -8.455127e+01
   6.829545e+01   4.209174e+01
  -3.842525e+01   6.522100e+01
  -1.110298e+02  -2.167846e+01
  -6.702215e+01  -7.165656e+01
   7.413350e+01  -1.269891e+02
   1.778260e+02  -3.483641e+01
   1.727876e+02   1.527272e+01
   5.298642e+01   7.820474e+01
  -2.792379e+01   6.091137e+01
   9.920156e+00   1.950986e+01
   7.651773e+00   1.183093e+01
   7.959213e+01   2.246535e+01
   5.180542e+01   1.159935e+02
  -1.409488e+02   1.448576e+02
  -2.265704e+02   5.283394e+01
  -8.845203e+01  -1.424981e+02
   3.281254e-01  -2.239807e+02
   8.953525e+01  -1.333433e+02
   1.112794e+02   1.566898e+01
   7.855189e+01   1.458893e+02
  -5.341288e+01   8.293661e+01
  -1.014185e+01   3.483796e+01
  -9.779491e+01  -1.877281e+01
  -5.668055e+01   6.943182e+00
  -7.500569e+00   6.817343e+01
   7.517606e-01  -3.337677e+01
  -1.005930e+02  -1.145197e+02
  -4.068256e+01  -1.148953e+02
   1.419543e+01  -9.583210e+01
   2.194397e+02   3.850343e+01
   1.338464e+02   2.637715e+01
   3.835683e+01   3.692510e+01
  -6.599533e+01   1.363374e+01
  -1.155689e+02  -7.470905e+00
  -1.995093e+01   2.339524e+01
   1.477491e+01  -2.506227e+01
   8.123375e+01  -4.852619e+01
   2.538726e+01  -2.519841e+01
  -5.314627e+01   3.606026e+01
   5.849050e+01  -1.453641e+01
   8.730576e+01   1.975242e+01
   5.721985e+01   9.348499e+01
  -8.582640e+01   1.092181e+02
  -2.012090e+02   7.619601e+01
  -1.246662e+02  -7.455841e+01
  -4.571363e+01  -1.313409e+02
   8.075318e+01  -1.725765e+02
   4.897882e+01  -3.474463e+01
   6.514666e+01   4.431773e+01
   6.315297e+00   8.117664e+01
   1.433476e+01   8.720052e+01
   3.053994e+01  -9.295001e-01
   4.727862e+01   1.772289e+01
   2.604608e+00   5.377584e+01
  -8.768741e+01   1.162765e+02
  -1.068668e+02  -8.979398e+01
  -7.115059e+01  -4.168810e+01
   3.883640e+00  -2.928588e+01
   1.055949e+02  -7.892059e+01
   6.670047e+01   3.242080e+01
  -1.558004e+00   7.739177e+01
  -9.790759e+01   3.309804e+01
  -1.537150e+02   1.247501e+01
  -3.698554e+01  -5.723217e+01
   1.248348e+01  -1.757370e+01
   3.967056e+01  -3.258707e+01
  -4.073163e+01  -6.196033e+01
  -8.069833e+01   3.563170e+01
  -2.833783e+01  -3.872329e+01
   6.393003e+01  -4.679913e+01
   1.205926e+02  -7.327467e+01
   4.310342e+01  -5.618091e+01
  -2.525113e+00   6.036257e+01
  -8.384168e+01   8.921274e+01
  -7.789694e+01   3.526850e+01
  -1.173543e+01  -5.492433e+01
   4.590416e+01  -5.777931e+00
   6.189973e+00   3.937355e+01
   6.690639e+01   4.407285e+01
   1.886708e+01   4.611230e+01
  -4.398112e+01  -2.338706e+01
  -7.950235e+01  -4.999637e+01
   4.641538e+00  -3.831687e+00
  -2.097418e+01  -1.427509e+01
   1.769651e+01   2.805600e+01
   3.194340e+00  -4.316988e+01
   1.961385e+01  -9.287928e+01
   4.475664e+01   3.028721e+01
   2.231807e+01   6.062259e+01
  -3.893533e+01   6.044003e+01
  -1.067490e+02   2.791051e+01
  -2.931396e+01  -1.174769e+01
  -1.892431e+01  -6.070393e+01
   8.266689e+01  -3.602073e+01
   7.376968e+01   4.682115e+01
   4.732060e+01   3.621062e+01
  -6.766666e+01   4.946567e+01
  -8.872521e+01  -2.229198e-01
  -3.544692e+01  -3.351421e+01
   3.115203e+01   2.661801e+01
   5.702573e+01  -4.793347e+01
  -3.665184e+01   6.065133e+01
  -9.516652e+01   2.769469e+00
