
 $NMID
 id='ANONYMOUS ', fmtdat='(2E16.6)'
 volume=1.0
 tramp=1.0
 $END
   3.495371e+03  -9.281654e+00
   2.218641e+03   1.915302e+03
  -2.112182e+02   2.234502e+03
  -1.476864e+03   1.090865e+03
  -9.531727e+02  -1.434821e+01
   1.514311e+02  -2.759892e+02
   4.953260e+02   1.407608e+02
   1.751985e+01   7.040201e+02
  -5.518987e+02   6.612901e+02
  -7.210256e+02   3.181940e+01
  -4.321020e+02  -6.172172e+02
   4.992141e+01  -6.983429e+02
   3.983967e+02  -2.133071e+02
   2.550144e+02   5.226392e+02
  -1.541034e+02   5.637004e+02
  -4.964571e+02   6.160743e+01
  -3.049231e+02  -5.289711e+02
   1.556017e+02  -6.288194e+02
   4.983041e+02  -2.547228e+02
   3.950102e+02   1.834209e+02
   9.146738e+01   3.830381e+02
  -9.583983e+01   2.457308e+02
  -1.154247e+02   1.361557e+01
   1.249072e+02   9.628672e+01
   2.939593e+02   2.675718e+02
   3.815428e+01   4.009269e+02
  -4.948767e+02   2.717533e+02
  -6.896990e+02  -1.421574e+02
  -2.769390e+02  -4.038381e+02
   3.318360e+02  -3.032250e+02
   5.526823e+02   1.402752e+02
   2.777120e+02   4.206435e+02
  -2.665414e+02   3.827134e+02
  -4.774506e+02   1.434408e+02
  -4.014535e+02  -1.944751e+02
  -1.061051e+02  -3.441807e+02
   6.251854e+01  -2.169113e+02
   3.764068e+01   1.267405e+02
  -1.681330e+02   2.494452e+02
  -2.475311e+02  -9.768813e+01
  -6.408873e+01  -5.410463e+02
   2.369088e+02  -4.897305e+02
   4.000670e+02   8.497202e-01
   1.946099e+02   3.369119e+02
  -1.990071e+02   1.967313e+02
  -1.937265e+02  -2.913794e+02
   4.965233e+01  -4.548595e+02
   4.747006e+02  -1.340183e+02
   4.981971e+02   3.822407e+02
   1.552835e+02   5.367739e+02
  -3.376107e+02   3.165374e+02
  -5.278917e+02  -4.821072e+01
  -3.694351e+02  -2.949824e+02
   6.644625e+01  -2.377537e+02
   3.497480e+02  -4.957742e+01
   2.023113e+02   8.471783e+01
  -4.172335e+01   3.625062e+01
  -6.906154e+01  -8.841589e+01
   1.050829e+02  -1.618831e+02
   2.331204e+02   3.972932e+01
   1.320245e+02   1.999527e+02
  -1.214127e+02   3.015014e+02
  -3.629838e+02   8.459554e+01
  -2.167042e+02  -8.132655e+01
   5.218656e+00  -3.025361e+02
   2.910868e+02  -3.489544e+02
   3.257224e+02  -1.627263e+02
   2.529820e+02   2.375738e+02
   4.901162e+01   3.496049e+02
  -2.059144e+01   3.504096e+02
  -8.693565e+01   9.449759e+01
  -2.960234e+01   2.441660e+01
  -6.134967e+01   8.274815e+01
  -1.875373e+02   5.496658e+01
  -2.085071e+02  -1.259408e+02
  -1.040431e+02  -2.727863e+02
   6.307169e+01  -2.557818e+02
   1.859567e+02   6.833394e+01
   1.057069e+02   2.749026e+02
  -3.758297e+01   2.648829e+02
  -2.414225e+02   1.014012e+02
  -3.206451e+02  -2.113470e+02
  -9.431536e+01  -2.638562e+02
   7.000449e+01  -2.509286e+02
   1.471207e+02  -1.633257e+02
   1.591760e+02   4.565288e+00
   1.490056e+02  -3.038415e+01
   2.825114e+02  -4.537665e+01
   3.907558e+02   7.682738e+01
   3.801080e+02   2.709372e+02
  -3.880497e+01   4.029552e+02
  -3.988065e+02   3.473741e+02
  -4.860225e+02   1.122130e+02
  -3.038804e+02  -1.235191e+02
  -3.798906e+01  -2.402924e+02
   1.077940e+02  -2.004383e+02
   2.532038e+01  -2.986205e+01
  -1.353115e+02   8.738998e+01
  -8.478967e+01   1.880704e+01
  -1.099934e+01  -1.665998e+02
   1.431617e+02  -9.536266e+01
   1.138682e+02   4.137845e+01
  -3.541470e+01   1.115496e+02
  -2.155430e+02  -2.570103e+01
  -1.522014e+02  -2.676828e+02
   2.700202e+01  -3.577230e+02
   2.007098e+02  -1.954084e+02
   3.879302e+02   1.109143e+02
   2.466746e+02   2.732430e+02
   4.955566e+01   3.404757e+02
  -1.219097e+02   1.734629e+02
  -2.050767e+02   2.027238e+01
  -1.217348e+02   3.751174e+01
  -1.415350e+01   3.625073e+01
   1.689831e+01   7.692004e+01
  -1.539998e+02   4.712953e+01
  -1.934537e+02  -9.008038e+00
  -3.316824e+01  -6.863364e+01
   1.055291e+02   9.918203e+00
   1.944337e+01   6.947946e+01
  -1.339343e+02   9.291156e+01
  -3.273250e+02   1.860928e+01
  -2.764313e+02  -1.550638e+02
   3.508968e+01  -2.719244e+02
   2.361876e+02  -2.736571e+02
   2.696820e+02  -1.027880e+02
   1.385032e+02  -9.056970e-01
  -3.459423e+00   7.329611e+01
  -7.879216e+01   4.709268e+00
   1.180069e+02  -3.982266e+01
   1.618163e+02  -8.122730e+01
   1.932539e+02   7.711106e+01
   8.312163e+01   1.755420e+02
  -7.649053e+01   1.602451e+02
  -1.263117e+02   4.517054e+01
  -7.646332e+01  -5.073172e+01
  -1.786347e+01   4.000754e+01
   2.689444e+01   8.800837e+01
  -1.110196e+02   1.074163e+02
  -2.392317e+02   4.849358e+00
  -1.951767e+02  -1.422579e+02
  -3.962479e+00  -2.502129e+02
   1.723412e+02  -1.258435e+02
   2.249261e+02  -2.861246e+00
   5.177471e+01   1.052573e+02
  -9.333726e+01   8.125401e+01
  -4.393266e+01   4.278302e+01
  -1.608476e+01  -2.540523e+01
   3.250627e+01   3.908353e+01
   3.753764e+01   1.091996e+01
  -8.077772e+01   2.500387e+00
  -6.700731e+01  -1.360449e+02
   3.026774e+01  -2.126434e+02
   1.184273e+02  -1.698489e+02
   2.294495e+02  -1.237418e+01
   2.184989e+02   1.775478e+02
   4.645389e+00   2.529794e+02
  -1.298397e+02   1.219007e+02
  -1.251684e+02   5.785540e+01
  -3.514935e+01  -3.885485e+01
  -2.855845e+00  -6.422177e+01
  -3.247675e+01   2.041294e+01
  -7.333940e+01  -1.542787e+01
  -4.871799e+01  -2.381436e+01
   8.115704e+01  -8.815727e+01
   1.442464e+02  -7.208136e+01
   7.178833e+01   8.423101e+01
  -5.335240e+01   8.356593e+01
  -1.236855e+02   6.846743e+01
  -2.106221e+02  -7.607207e+01
  -8.126267e+01  -2.025803e+02
   1.477327e+02  -2.174724e+02
   2.510237e+02  -8.751896e+01
   2.557746e+02   1.010567e+02
   5.580294e+01   1.542952e+02
  -2.214070e+01   1.307460e+02
  -6.937361e+01   9.926500e+01
  -4.807714e+01  -1.872971e+00
  -4.399683e+01   1.246258e+02
  -1.460550e+02   1.191359e+02
  -1.263739e+02  -6.184022e+01
  -7.501159e+01  -1.546465e+02
   2.001019e+01  -2.417171e+02
   1.116466e+02  -1.775360e+02
   1.888023e+02   3.780945e+00
   9.311251e+01   1.406671e+02
   2.901228e+01   1.734626e+02
  -8.355382e+01   8.218983e+01
  -5.805452e+01  -2.030330e+01
   3.786153e+01  -3.570033e+01
   8.181029e+01   1.005275e+01
  -7.905759e+01  -2.240325e+00
  -6.751533e+01  -5.626605e+01
  -5.931413e+01   1.183162e+01
   9.794619e+01  -2.086944e+01
   1.224595e+02  -3.184354e+00
   2.031819e+02   3.235262e+01
   5.386900e+01   9.665571e+01
  -1.441759e+02   3.310232e+01
  -1.628877e+02   2.374989e+01
  -4.715843e+01  -2.085106e+01
   8.858715e+01  -4.696214e+01
   5.540132e+01  -2.596339e+01
   5.246236e+01   8.135827e+01
  -7.461798e+01   1.026327e+02
  -2.796078e+01   9.317160e+00
   4.328501e+00  -2.610762e+01
   2.103259e+01  -1.012476e+02
  -3.855882e+01  -3.613635e+01
  -3.619341e+01   1.932430e+01
  -3.181930e-01  -6.350087e+01
   4.092234e-01  -1.755835e+02
   1.350153e+02  -1.751317e+02
   1.825457e+02  -2.407291e+01
   1.409011e+02   1.321782e+02
  -2.425634e+01   9.737917e+01
  -8.616684e+01   8.691417e+01
  -9.768158e+01  -6.226179e+01
   8.130039e+01   7.208253e+00
   1.356411e+02   2.577994e+01
   8.499602e+01   1.386062e+02
  -8.185406e+01   9.206843e+01
  -1.603720e+02   5.813751e+00
  -1.268969e+02  -3.453155e+01
  -1.166483e+01  -1.058802e+02
   1.008409e+02  -4.013606e+01
   2.662486e+01  -2.750924e+01
  -2.853457e+01   3.396071e+01
  -1.106192e+02   4.069674e+00
  -9.768592e+01  -1.569343e+02
   5.694933e+01  -1.779451e+02
   1.271979e+02  -4.660421e+01
   1.211076e+02   1.257955e+02
   3.357326e+01   2.389113e+02
  -3.562068e+01   1.511559e+02
  -1.201082e+02  -4.104631e+01
  -1.721737e+01  -1.641247e+02
  -9.366809e+00  -9.161394e+01
   4.607440e+01  -8.562174e+00
   6.262751e+01   4.941492e+01
   7.436401e+01  -1.459706e+01
   9.414173e+00   3.255240e+01
   2.945614e+01   4.753209e+01
   7.128435e+01   1.146307e+02
   1.416294e+01   7.446975e+01
  -2.895352e+01   6.776162e+01
  -1.369999e+02  -7.062690e+00
  -1.017193e+02  -1.036764e+02
  -4.972088e+01  -6.102805e+01
   8.118490e+01  -1.428003e+01
   5.182640e+01  -6.470462e+01
  -1.211971e+01  -3.474293e+01
  -1.307295e+01   3.620128e+01
   2.434272e+01  -1.184082e+01
   2.444892e+01  -2.872817e+01
   8.175686e+00   4.791677e+01
  -3.201620e+01   4.319959e+00
  -1.083282e+02   6.051827e+00
  -6.617328e+01  -7.783744e+01
   8.622865e+01  -7.916899e+01
   1.703514e+02  -6.640708e+01
   9.145346e+01   9.332989e+01
  -1.769887e+01   1.636191e+02
  -5.123379e+01   1.853278e+02
  -1.198697e+02   8.028096e+01
  -9.880270e+01   2.245542e+01
  -7.140744e+00  -6.247873e+01
  -1.863933e+00   4.005653e+01
  -6.054234e+01  -4.725450e+00
  -4.452671e+01  -2.014746e+01
  -3.975055e+01  -9.100610e+01
   4.320732e+01  -9.311066e+01
   6.172011e+01   2.725247e+01
   7.999956e+01   9.710878e+01
   8.830999e+00   1.002416e+02
  -4.841652e+01   4.810063e+01
  -8.175935e+01  -7.109848e+01
  -5.568212e+01  -1.063821e+02
   8.644521e+01  -3.227340e+01
   4.879765e+01   2.966083e+01
   5.810620e+01   4.480260e+01
  -3.492488e+01   2.861522e+00
  -4.542653e+01  -4.772605e+00
   4.427278e+01  -3.779424e+01
   1.002157e+02   5.428687e+01
   2.098246e+01   7.157112e+01
  -2.913678e+01   6.091329e+01
  -9.848229e+01   6.695092e+01
  -3.472763e+01  -9.107771e+00
   8.555711e+00  -1.080554e+02
   6.885850e+01  -6.206331e+01
   2.396495e+01  -3.148453e+01
   1.174293e+01   7.338092e+01
  -3.401706e+01   4.844576e+01
  -7.194822e+01  -9.542046e+00
  -2.011224e+01  -7.971754e+00
   1.195178e+01  -4.543018e+01
   1.087679e+01   2.208569e+01
  -2.267781e+01  -6.664455e-01
   6.088775e+01  -2.779750e+01
  -5.795705e+01  -2.027802e+01
  -3.287456e+01  -2.667563e+01
  -1.753620e+01   9.389574e+01
   3.509705e+01   6.993872e+01
  -4.360149e+01   4.660292e+01
  -2.642469e+01  -3.256421e+01
  -5.687298e+01  -7.085443e+01
   4.094012e+01   2.329028e+01
   5.219159e+01   5.918565e+00
   4.636081e+00   7.235039e+01
  -3.155812e+01   6.779062e+01
  -1.055306e+02   1.053766e+01
  -5.744446e+01  -8.344501e+01
   2.097587e+01  -3.885794e+01
   7.983579e+01  -2.132930e+01
   1.888466e+01   4.170813e+00
  -3.353622e+01  -2.249356e+01
  -1.160041e+02  -1.836806e+01
   2.502361e+01  -6.096182e+00
   7.689152e+01  -4.529831e+01
