
 $NMID
 id='ANONYMOUS ', fmtdat='(2E16.6)'
 volume=1.0
 tramp=1.0
 $END
  -2.959346e+03   1.023854e+02
  -2.028264e+03  -1.375371e+03
  -1.179866e+02  -1.937026e+03
   1.100654e+03  -1.298405e+03
   9.268572e+02  -2.677573e+02
   1.322334e+02   1.362579e+02
  -3.433767e+02  -7.167637e+01
  -1.781444e+02  -4.398977e+02
   3.695740e+02  -5.755985e+02
   6.171932e+02  -1.276906e+02
   4.518901e+02   4.969222e+02
   2.070376e+01   6.143869e+02
  -2.542854e+02   2.084570e+02
  -2.610499e+02  -3.909641e+02
   2.602537e+01  -5.187421e+02
   4.027967e+02  -8.903502e+01
   2.853471e+02   4.108827e+02
  -1.006267e+02   6.066138e+02
  -4.388106e+02   3.370764e+02
  -4.258221e+02  -1.203567e+02
  -1.438984e+02  -3.402242e+02
   9.231024e+01  -2.290723e+02
   1.293576e+02  -1.058870e+02
  -1.622430e+02  -7.736461e+01
  -2.012132e+02  -2.710891e+02
   1.552198e+01  -3.017561e+02
   4.648048e+02  -1.339442e+02
   5.000850e+02   1.949103e+02
   2.479428e+02   2.922260e+02
  -2.464813e+02   1.915794e+02
  -4.526724e+02  -1.357731e+02
  -1.563287e+02  -3.114160e+02
   2.276707e+02  -3.225744e+02
   4.007515e+02  -1.240454e+02
   3.155737e+02   9.955819e+01
   6.542974e+01   2.891515e+02
  -1.466302e+01   1.860753e+02
   3.923223e+01  -2.633507e+01
   1.576694e+02  -8.144220e+01
   1.840071e+02   8.697886e+01
  -3.443767e+01   4.212216e+02
  -2.154983e+02   4.546020e+02
  -2.482779e+02   1.047148e+01
  -1.343323e+02  -3.144883e+02
   9.145145e+01  -1.236256e+02
   8.648564e+01   2.546069e+02
  -1.344496e+02   3.402062e+02
  -4.407118e+02   7.987495e+01
  -4.246664e+02  -3.770297e+02
  -1.850776e+02  -4.222595e+02
   2.610486e+02  -2.341507e+02
   4.998038e+02   6.965497e+01
   3.198457e+02   2.388402e+02
   1.086258e+01   2.248122e+02
  -2.922410e+02   1.136116e+02
  -2.131581e+02   2.831711e+00
  -7.503339e+01  -6.676829e+01
   5.208451e+01  -8.805471e+00
  -5.533205e+01   2.933374e+01
  -2.409802e+02  -5.205793e+01
  -9.704026e+01  -1.429912e+02
   1.497729e+02  -2.666601e+02
   2.704017e+02  -1.591510e+02
   2.612715e+02   1.927484e+02
  -4.963991e+01   3.455907e+02
  -3.192445e+02   3.636733e+02
  -3.591104e+02   1.536646e+02
  -2.266159e+02  -9.797173e+01
  -9.399283e+01  -3.633391e+02
   2.149753e+01  -3.238033e+02
  -5.034375e+00  -1.652279e+02
   3.915806e+01  -7.731502e+01
   1.395618e+02  -1.157995e+02
   2.796569e+02  -6.563148e+01
   2.260447e+02   7.728843e+01
   7.167685e+01   2.399800e+02
  -1.066439e+02   1.815813e+02
  -1.838981e+02  -4.562878e+01
  -7.280669e+01  -2.029469e+02
   3.572676e+01  -2.496815e+02
   2.105544e+02  -6.138470e+01
   2.216407e+02   1.401090e+02
   2.036874e+02   3.166940e+02
  -8.569822e+00   2.778619e+02
  -1.483755e+02   2.283903e+02
  -1.029855e+02   8.832069e+01
  -1.738176e+02  -2.777196e+01
  -2.671706e+02   5.651312e+01
  -3.787111e+02  -1.566465e+02
  -3.103990e+02  -2.795560e+02
   3.428298e+01  -4.288690e+02
   4.164809e+02  -4.422694e+02
   4.341911e+02  -1.992492e+02
   2.525598e+02   6.620280e+01
  -2.762499e+01   2.360338e+02
  -1.086890e+02   1.532773e+02
  -9.686360e+00   5.889071e+01
   1.480718e+02  -1.783926e+01
   9.210261e+01   5.328401e+01
  -8.505439e+00   1.011182e+02
  -7.251105e+01   9.834780e+01
  -1.287981e+02   8.931794e+00
   5.143647e+01  -9.659097e+01
   1.258494e+02   2.114743e+01
   1.307099e+02   1.555627e+02
  -1.237163e+01   3.765907e+02
  -2.314814e+02   1.872343e+02
  -3.609865e+02  -8.365402e+01
  -2.539594e+02  -2.652214e+02
  -1.331683e+01  -2.800059e+02
   1.164581e+02  -1.150816e+02
   1.803763e+02  -4.463340e-01
  -4.871858e+00   2.224838e+01
  -5.386037e+01  -5.901078e+01
  -1.572571e+01  -8.903711e+01
   1.451119e+02  -6.691423e+01
   1.401451e+02   1.375054e+01
   6.684950e+01   3.440471e+01
  -1.294886e+02   8.749985e+00
  -5.532842e+01  -1.465351e+02
   1.456952e+02  -7.211050e+01
   3.279279e+02  -7.321992e+00
   2.552548e+02   1.935117e+02
   4.122190e+00   1.763300e+02
  -1.744149e+02   2.190957e+02
  -2.205727e+02   8.617407e+01
  -1.565467e+02  -3.667189e+01
   2.080033e+01  -7.220686e+01
   9.391373e+01   6.385933e+01
  -6.752729e+01   5.229015e+01
  -1.517805e+02   7.701822e+01
  -1.596546e+02  -1.028640e+02
  -3.966574e+01  -2.021780e+02
   7.709007e+01  -1.471996e+02
   1.266855e+02   1.936269e+01
   2.961470e+01  -2.929631e+01
   4.186213e+01  -7.733984e+00
  -6.363304e+00  -1.351434e+02
   1.193286e+02  -1.093004e+02
   2.713527e+02  -2.628488e+01
   2.244937e+02   6.608043e+01
  -1.611349e+01   1.584591e+02
  -1.328293e+02   1.324219e+02
  -1.368377e+02   5.572536e+01
  -5.106205e+01  -5.552431e+01
   6.965973e+00  -1.053158e+02
   5.586793e+01  -2.211138e+01
  -2.828600e+01  -2.094493e+01
  -6.317007e+01  -1.923066e+01
   3.591981e+01  -2.512965e+01
   7.982813e+01   1.769896e+01
   1.106402e+02   8.430460e+01
   6.051899e+01   1.828485e+02
  -1.220632e+02   1.258687e+02
  -2.320005e+02   2.897673e+01
  -1.733742e+02  -1.443611e+02
  -7.657752e+01  -2.090958e+02
   8.656409e+01  -1.754669e+02
   7.310419e+01   2.843887e+01
   9.481847e+01   1.727318e+01
   7.936135e+01   1.518357e+01
  -2.433729e-02  -2.620078e+01
   1.183714e+02  -1.655584e+01
   6.734730e+01   4.831209e+01
  -5.310409e+01   1.088650e+02
  -1.227763e+02   4.907636e+01
  -1.301143e+02   1.238091e+01
   7.168488e+01  -1.396416e+02
   1.868891e+02  -7.317463e+01
   1.752118e+02   8.405179e+01
   6.461319e+01   2.411425e+02
  -1.217508e+02   1.717703e+02
  -2.756713e+02   1.053800e+02
  -2.210505e+02  -8.853673e+01
  -1.191702e+02  -1.626375e+02
   1.780016e+00  -9.124267e+01
   1.261477e+02  -6.202627e+01
   7.994773e+01  -4.200625e+01
   2.845030e+01  -3.279778e+01
   3.789439e+01  -6.064887e+01
   9.041132e+01   4.247428e+01
   1.276823e+02   1.068042e+02
   4.141209e+01   2.761185e+02
  -1.175884e+02   1.298668e+02
  -1.145357e+02  -1.694356e+01
  -1.111514e+02  -6.499182e+01
  -1.484900e+01  -1.495930e+02
   1.013402e+02  -4.159819e+01
   8.115071e+01   2.819822e+00
   1.979761e+00   3.422569e+01
  -5.512886e+01   5.847893e+01
   2.411571e+01  -6.488758e+00
   4.441722e+01   1.027405e+01
   1.992636e+01   8.299433e+01
  -5.931133e+01   3.048396e+01
  -1.741997e+02  -1.530572e+01
  -1.530140e+02  -9.766376e+01
   1.917821e+01  -1.487803e+02
   1.334223e+02  -8.971407e+00
   9.386348e+01  -2.501529e+01
   3.713915e+01   5.506829e+01
  -7.249296e+01   2.384788e+01
  -8.987780e+01   1.847659e+01
  -5.327373e+01  -6.344363e+01
   2.488693e+00  -4.793050e+01
   3.945929e+01   1.260677e+00
   5.234647e+00   4.893669e+01
   4.634754e+01   7.278001e+00
   2.300421e+01   8.350529e+00
   3.025347e+01   3.620554e+01
   3.375007e+01   9.199786e+01
  -3.704162e+01   6.106036e+01
  -1.566399e+02   1.837633e+02
  -2.022775e+02   2.295918e+01
  -1.559507e+02  -7.874148e+01
  -2.780615e+01  -1.493035e+02
   7.190933e+01  -4.900434e+01
   6.403558e+01  -5.013073e+00
  -6.770923e+01   7.017424e+01
  -1.605531e+02  -5.155017e+01
  -9.202396e+01  -7.254205e+01
   5.722130e+01  -1.222796e+02
   2.115338e+02  -3.889821e+01
   1.727709e+02   1.433132e+01
   2.270074e+01   5.859082e+01
  -1.016196e+02   2.169963e+01
  -4.758766e+01  -4.628098e+01
   2.419193e+01  -8.041264e+01
   1.607198e+02  -2.868162e+01
   1.939124e+01   8.486383e+01
  -6.215202e+01   1.903571e+02
  -1.780660e+02   9.555372e+01
  -1.366404e+02  -8.390114e+01
  -1.159615e+01  -1.592633e+02
   4.688984e+01  -1.665080e+02
   1.223368e+02  -9.029617e+00
   5.341212e+01   7.596285e+01
  -2.819542e+01   9.350861e+01
  -5.040590e+01  -3.464070e+01
  -5.864309e+01  -3.906443e+01
   1.010528e+01   4.716597e+01
  -4.579538e+01   1.013419e+02
  -2.100889e+01  -5.228194e+01
  -6.350977e+01  -4.542337e+01
  -9.314416e+00  -7.130198e+01
   6.116214e+01  -5.784082e+01
   1.651610e+02  -2.487550e+01
   1.123735e+02   3.217342e+01
   3.098554e+01   5.367147e+01
  -9.432196e+01   4.045926e+01
  -8.208890e+01   5.990113e-01
  -5.002704e+01  -1.379155e+01
   6.025430e+01  -8.942615e+01
   3.986189e+01  -3.292841e+01
  -2.465767e+01  -8.656759e+00
  -3.909739e+01   2.396523e+01
   4.611164e+01  -1.054582e+00
   4.135348e+01   4.873863e+01
   5.139888e+01   1.249372e+02
  -8.094711e+01   1.254366e+02
  -1.749644e+02   6.797179e+01
  -1.117869e+02  -5.684804e+01
  -2.897386e+01  -1.286340e+02
   3.261221e+01  -1.811010e+02
   1.191621e+02   1.423462e+01
   7.758623e+01   1.431907e+01
  -2.092819e+01   3.604557e+01
   1.442123e+01  -3.728230e+01
  -5.961175e+00   3.601044e+01
   2.118979e+01   6.022167e+01
   1.055835e+02   9.571375e+01
  -5.460861e+01   5.348114e+01
  -4.356507e+01   2.400593e+01
  -6.474114e+01  -1.692366e+02
   1.702564e+01  -1.488837e+02
   8.672245e+01  -2.201791e+01
   9.065514e+01   6.873844e+01
   1.429230e+01   1.119480e+02
   2.924466e+01   7.589027e+01
  -1.122163e+02   2.968328e+00
  -3.025159e+01  -5.905446e+01
   2.162945e+01  -5.865720e+01
   4.585401e+00   3.253187e-01
  -1.862107e+01   5.307339e+01
  -3.250494e+01   3.749054e+01
  -5.050665e+00   2.312296e+01
   6.512104e+01  -7.418656e+01
   7.129604e+01  -9.693967e+01
   1.310319e+01   2.756249e+01
  -2.891640e+01   1.030825e+02
  -4.696159e+01   3.608596e+01
  -5.217039e+01   5.540425e+01
   7.008201e+01  -2.509850e+01
   5.955246e+01  -8.969669e+01
   5.001756e+01  -2.289581e+01
   3.289710e+01   4.026181e+01
  -9.022974e+01  -1.073254e+01
  -5.265801e+01  -1.704817e+01
  -8.933718e+01  -7.293563e+00
  -9.140932e+00  -3.108752e+01
   1.353546e+01  -2.558049e+01
   1.292354e+01   1.634535e+01
  -1.389649e+01  -5.075371e+01
   1.256881e+01  -7.758488e+01
   1.527969e+01   2.442420e+01
   2.910027e+01  -4.049186e+00
   2.155535e+01   1.621644e+01
  -3.714675e+01  -2.655363e+00
  -7.617283e+01   1.713422e+01
  -3.690915e+01  -5.884032e+01
   4.216782e+01  -1.753187e+01
   9.460477e+01  -1.053292e+01
   3.545697e+01   7.290820e+01
  -7.164696e+01   1.379016e+01
  -6.487021e+01   3.315520e+01
  -5.701781e+01  -1.966817e+01
  -8.342497e+00  -1.664209e+00
   2.839446e+01   5.544567e+00
   6.124990e+01  -1.169372e+01
  -1.445349e+02   5.744341e+00
