
 $NMID
 id='ANONYMOUS ', fmtdat='(2E16.6)'
 volume=1.0
 tramp=1.0
 $END
   2.413554e+03  -3.582367e+01
   1.552680e+03   1.306167e+03
  -1.080353e+02   1.591517e+03
  -1.007396e+03   8.139976e+02
  -6.488055e+02  -5.224457e+01
   1.653024e+02  -2.433592e+02
   3.782307e+02   1.901400e+02
   6.896739e+01   4.990420e+02
  -4.140027e+02   4.206761e+02
  -5.027572e+02  -3.036695e+01
  -3.203369e+02  -4.276477e+02
   6.660600e+01  -5.368459e+02
   2.888615e+02  -1.864414e+02
   2.108266e+02   2.964912e+02
  -1.107624e+02   3.959121e+02
  -3.221730e+02   2.794153e+01
  -1.478462e+02  -3.550645e+02
   1.476524e+02  -4.511344e+02
   3.109341e+02  -1.412808e+02
   2.634666e+02   1.500678e+02
   6.054787e+01   2.632405e+02
  -6.765874e+01   1.806997e+02
  -7.950911e+01   1.103602e+01
   1.017323e+02   3.318442e+01
   2.387169e+02   1.390065e+02
  -2.145132e+00   2.205861e+02
  -3.377483e+02   1.605569e+02
  -4.534133e+02  -9.018121e+01
  -1.657869e+02  -2.950713e+02
   2.126587e+02  -1.280173e+02
   3.671485e+02   4.697613e+01
   1.823541e+02   2.715175e+02
  -1.340291e+02   2.825358e+02
  -3.674479e+02   1.273386e+02
  -1.736468e+02  -1.605394e+02
  -8.332450e+01  -2.590373e+02
   6.121886e+01  -1.157876e+02
   7.293270e+01   1.227545e+02
  -1.611138e+02   1.719855e+02
  -1.780361e+02  -6.070519e+01
  -6.530723e+01  -3.748899e+02
   8.002184e+01  -4.163049e+02
   2.580803e+02  -6.474212e+00
   1.265380e+02   2.859958e+02
  -1.796198e+02   1.202442e+02
  -1.605056e+02  -1.834399e+02
   2.993911e+01  -2.884840e+02
   3.151233e+02   6.798387e+00
   3.262813e+02   2.237889e+02
   1.211567e+02   3.599599e+02
  -2.314455e+02   1.922069e+02
  -4.355724e+02  -4.770021e+01
  -2.437014e+02  -1.867933e+02
  -7.489975e-01  -1.794215e+02
   2.013843e+02  -5.990439e+01
   1.433761e+02   7.345936e+01
  -2.535167e+01   9.290077e+01
  -5.934553e+01  -4.158214e+00
   6.472283e+01  -5.937313e+01
   1.822039e+02   2.781651e+01
   6.863868e+01   1.730394e+02
  -1.145343e+02   1.902988e+02
  -2.846938e+02   7.237399e+01
  -2.057644e+02  -5.863651e+01
   6.052070e+00  -2.388867e+02
   1.853597e+02  -2.212796e+02
   2.608521e+02  -7.301687e+01
   1.171987e+02   1.062244e+02
   6.229918e+01   2.061247e+02
   7.948797e+00   2.021937e+02
  -4.865847e+01   5.731463e+01
  -1.105785e+00   6.726182e+01
  -5.224883e+01   3.236229e+01
  -1.384673e+02   2.396894e+01
  -1.846194e+02  -5.493435e+01
  -9.372271e+01  -1.929201e+02
   1.418355e+01  -8.834171e+01
   1.083357e+02   1.458178e+01
   6.772092e+01   1.719772e+02
  -8.536804e+00   2.274982e+02
  -1.635096e+02   1.014139e+02
  -2.287035e+02  -9.986253e+01
  -1.611946e+02  -2.251925e+02
   6.090866e+01  -2.102682e+02
   8.739987e+01  -1.332863e+02
   1.281430e+02  -5.572003e+01
   6.637479e+01  -1.742800e+01
   1.801547e+02  -1.374600e+01
   2.313585e+02   3.434823e+01
   1.753957e+02   1.741456e+02
   4.052463e+00   3.119124e+02
  -2.650664e+02   2.642519e+02
  -3.625601e+02   1.001252e+02
  -2.390378e+02  -4.462260e+01
  -1.627361e+01  -1.189392e+02
   1.164461e+02  -1.608701e+02
   2.198329e+01  -1.419111e+01
  -5.730776e+01   7.862465e+01
  -1.242047e+02   3.121768e+00
  -2.309785e+01  -1.526181e+02
   6.425492e+01  -1.075564e+02
   1.149921e+02   5.205976e+01
  -4.914309e+01   1.080212e+02
  -1.057006e+02  -6.500348e+00
  -9.897650e+01  -1.436242e+02
   3.858527e+01  -2.621565e+02
   1.900533e+02  -1.605859e+02
   2.228958e+02   5.927426e+01
   1.856220e+02   1.427301e+02
   5.028687e+01   1.687937e+02
  -7.179760e+01   1.279010e+02
  -1.408023e+02  -1.182698e+01
   1.124605e+01  -7.643568e+00
   4.434929e+01   2.430809e+01
   1.222534e+01   1.160599e+02
  -8.526378e+01   1.176341e+02
  -9.963919e+01   5.638128e+00
  -3.049031e+01  -3.660914e+01
  -3.366584e+01  -3.244769e+01
   8.084639e-01   7.043039e+01
  -1.028172e+02   9.032655e+01
  -2.191607e+02  -5.182413e+01
  -1.566291e+02  -1.235016e+02
  -1.521377e+01  -1.464568e+02
   1.514586e+02  -1.577271e+02
   1.368233e+02  -7.833433e+01
   1.046664e+02   5.466027e+01
   2.284337e+01   8.523497e+01
  -9.303270e+01   9.928607e+00
   3.460160e+01  -5.591861e+01
   1.084293e+02  -1.150767e+02
   9.361910e+01   5.842111e+01
   8.608118e+01   1.052330e+02
  -5.520347e+01   8.555875e+01
  -1.418302e+02   1.127597e+01
   1.929394e+01   8.588566e+00
   7.235390e+01  -2.522342e+01
   3.002147e+01   2.490830e+01
  -1.231003e+01   1.918676e+01
  -1.137849e+02  -4.262952e+01
  -1.246620e+02  -4.153282e+01
  -2.009315e+01  -1.090236e+02
   7.271582e+01  -1.379684e+02
   7.837130e+01   2.183028e+01
   2.622185e+00   9.174978e+01
  -6.097505e+01   7.723259e+01
  -3.948839e+01   1.893078e+01
   1.682314e+01  -4.147781e+01
  -2.310322e+01  -2.003417e+01
  -1.718262e+00   4.346637e+01
  -3.589924e+01  -2.858931e+01
  -4.742370e+01  -9.020622e+01
   2.575552e+01  -6.868416e+01
   9.680286e+01  -1.001732e+02
   2.151271e+02  -1.387353e-01
   1.694882e+02   3.823610e+01
  -5.223190e+00   1.570875e+02
  -7.601992e+01   8.516252e+01
  -9.408369e+01   9.962400e+00
  -5.943269e+01   1.522883e+01
  -5.096852e+01   5.985566e+00
  -5.422843e+01  -3.381847e+00
  -1.170214e+02  -1.131946e+01
  -2.076201e+01  -7.477826e+01
   1.739654e+00  -8.348389e+01
   8.340426e+01  -5.703703e+01
   5.092001e+01   4.931800e+01
  -1.807367e+01   9.436583e+01
  -1.419685e+02   6.192028e+01
  -1.398798e+02  -8.312767e+01
  -9.960589e+00  -1.710587e+02
   1.403105e+02  -1.445510e+02
   1.969305e+02  -6.141557e+01
   2.029336e+02   3.309568e+01
   2.622453e+01   1.151132e+02
   5.168051e+00   5.075716e+01
  -1.191105e+02   4.321606e+01
  -1.004579e+02   3.695833e+01
  -6.619793e+01   4.192939e+01
  -5.156335e+01   2.250395e+01
  -5.816620e+01   1.640167e+01
  -6.808313e+01  -1.009464e+02
   1.102597e+01  -1.830501e+02
   2.020990e+01  -9.662447e+01
   8.780547e+01  -8.156842e+00
   4.243068e+01   8.183536e+01
   2.186107e+01   1.289754e+02
  -7.329612e+01   1.020241e+02
  -1.640082e+01   1.722111e+01
   1.183131e+01  -6.193110e+01
   1.342892e+01  -2.705212e+01
  -5.685124e+01  -2.394288e+01
  -4.068897e+01  -3.407891e+01
   2.239565e+01  -1.082226e+01
   3.932521e+01  -4.397726e+01
   5.553627e+01   4.329846e+00
   1.323231e+02   5.127941e+01
   2.477662e+01   2.031772e+01
  -1.090600e+02   6.445176e+01
  -1.056453e+02  -5.163726e+01
   1.628521e-01  -1.841313e+01
   4.739253e+01  -3.795598e+01
   6.506982e+01   2.829397e+01
   2.434273e+01   5.619876e+01
  -2.354693e+01   5.151989e+01
  -4.959219e+01   8.882169e+00
  -2.416533e+00   2.863411e+01
  -9.465139e+00  -4.669756e+01
  -5.478675e+01  -3.585858e+01
  -2.831401e+01  -9.858066e-01
  -3.973903e+01  -8.149320e+01
   1.396598e+00  -7.396346e+01
   6.176329e+01  -1.302758e+02
   1.344668e+02  -1.026007e+01
   7.055504e+01   9.054195e+01
  -3.601574e+01   6.263449e+01
  -1.016290e+02   6.097156e+01
  -5.256428e+01   1.057328e+01
   3.307451e+01  -2.111139e+01
   1.114783e+02   9.787811e+00
   1.333379e+02   1.113580e+02
  -9.252771e+00   5.272837e+01
  -1.923916e+02   9.645261e+01
  -1.166476e+02  -6.718655e+01
  -4.664645e+01  -1.208644e+01
   7.462459e+01   1.191228e+01
   6.828541e+01   2.258007e+00
   2.749634e+01  -2.157627e+01
  -2.969334e+01  -5.796408e+01
  -5.049468e+01  -1.042713e+02
   9.497471e+01  -1.217633e+02
   8.554085e+01  -2.361418e+01
   9.183368e+01   6.762992e+00
   2.330746e+01   1.596942e+02
  -5.208586e+01   4.262085e+01
  -1.215124e+02  -1.332236e+01
  -6.991079e+01  -7.789151e+01
   1.061154e+01  -6.267704e+01
   3.167563e+01  -3.370968e+01
   8.925970e+01   5.244709e+01
   3.765065e+01  -4.935588e+01
   5.516527e+01   1.455015e+01
  -2.168022e+01   2.799133e+00
   2.187542e+01   8.394214e+01
   4.651230e+01   1.009340e+02
   8.293600e+00   5.744103e+01
  -1.190299e+02  -3.519824e+01
  -8.890774e+01  -4.754779e+01
   2.329866e+00  -1.187326e+01
   7.747954e+01  -3.733400e+01
   7.195440e+00  -1.739944e+01
   3.339248e+00  -1.572303e+01
  -3.914596e+01   3.936675e+01
   1.460792e+00   3.116055e+00
   5.807812e+00   1.034872e+01
  -3.458953e+01  -1.703892e+01
  -1.894415e+01  -6.816002e+01
  -9.458774e+01  -2.013547e+01
   4.136175e+01  -1.031994e+02
   7.768071e+01  -1.373693e+02
   1.110896e+02  -3.511616e+01
   1.442132e+02   5.729126e+01
   5.444416e+01   8.371660e+01
  -3.277862e+01   1.077759e+02
  -8.624445e+01   6.873656e+01
  -5.035949e+01   6.103574e+00
  -1.111198e+02   3.930949e+01
   1.637688e+01  -5.703139e+00
  -8.351805e+00   5.058081e+00
   2.691355e+01  -3.115778e+01
  -2.600757e+01  -2.861491e+01
   8.678099e+00  -5.544030e+01
   9.637539e+01   3.061644e+01
   5.580426e+01   7.501979e+01
  -4.099371e+01   6.104730e+01
  -3.667166e+01   5.617521e+01
  -5.134112e+01  -3.209595e+01
   8.718005e+00  -2.748397e+01
   4.520722e+01  -3.339469e+01
   5.660971e+01  -3.034126e-02
  -4.176323e+01   1.545764e+01
  -5.266313e+01   5.407446e+01
   3.852365e+00  -1.248258e+00
   1.668091e+01  -4.507062e+01
   1.281736e+02   5.218715e+00
  -6.242027e+00   6.039634e-01
  -1.010386e+02   3.624141e+00
  -8.637001e+01   7.706254e+01
   2.646657e+01   2.331109e+01
   4.485001e+01  -3.121927e+01
   6.831478e+00  -3.649125e+01
   6.960198e+01  -4.068242e+01
   4.435231e+01   3.363426e+01
  -5.061014e+01   6.164443e+01
   1.808960e+01  -4.830444e+01
  -2.048008e+01  -3.290381e+01
  -5.852025e+01   1.796711e+01
   2.694589e+01  -1.920404e+01
   1.927603e+01   2.347788e+01
   5.897712e+01  -1.276704e+01
   3.836745e+01   1.314118e+01
  -2.197669e+00   2.248804e+01
   9.860212e+00   1.284912e+01
   1.394048e+01   1.151574e+01
  -7.844123e+00   2.361087e+01
  -3.628648e+01  -5.193806e+01
   1.550400e+01  -6.924303e+01
   2.326596e+01  -3.255261e+01
   2.117706e+00   5.225078e+01
  -1.490286e+01   6.648457e+01
  -8.009931e+01   2.465530e+01
  -3.230812e+01  -4.260838e+01
  -3.514472e+01  -2.237665e+01
   7.371073e+01  -2.954986e+01
   9.114540e+00  -4.613072e+01
   1.817101e+01  -8.698780e+00
  -7.019009e+01   1.334737e+01
  -7.889798e-01   7.371541e+00
   3.739359e+00  -4.577748e+01
   1.264776e+00  -1.051505e+02
