
 $NMID
 id='ANONYMOUS ', fmtdat='(2E16.6)'
 volume=1.0
 tramp=1.0
 $END
   3.533688e+03  -1.041815e+02
   2.221486e+03   2.009341e+03
  -4.009854e+02   2.278449e+03
  -1.615552e+03   8.972143e+02
  -8.357524e+02  -3.786520e+02
   4.734038e+02  -4.559695e+02
   7.043502e+02   3.256108e+02
   2.870833e+01   8.502351e+02
  -6.174601e+02   6.876017e+02
  -7.560018e+02   2.161929e+00
  -4.193698e+02  -6.154321e+02
   1.705379e+02  -6.648752e+02
   5.234484e+02  -1.079712e+02
   2.752807e+02   5.242285e+02
  -1.395847e+02   6.002503e+02
  -5.267817e+02   7.486533e+01
  -2.356959e+02  -5.194594e+02
   2.112601e+02  -5.421142e+02
   5.172732e+02  -1.357171e+02
   3.361914e+02   2.855288e+02
   3.962166e+01   3.697731e+02
  -1.898360e+02   2.447560e+02
  -2.242706e+02   7.175639e+01
   1.126069e+02  -4.372010e+01
   3.596216e+02   1.546123e+02
   8.788297e+01   3.454357e+02
  -4.094871e+02   3.211464e+02
  -6.763432e+02  -8.359544e+01
  -3.940788e+02  -4.294715e+02
   3.178958e+02  -3.176914e+02
   6.035577e+02   9.871133e+00
   3.053764e+02   3.629476e+02
  -1.634740e+02   3.477899e+02
  -4.503620e+02   1.293553e+02
  -3.989033e+02  -1.581778e+02
  -5.762180e+01  -4.117934e+02
   1.449588e+02  -1.907536e+02
   6.513536e+01   1.572369e+02
  -1.600278e+02   3.557801e+02
  -3.419249e+02  -6.142350e+01
  -1.868797e+02  -5.729373e+02
   1.887463e+02  -5.600458e+02
   5.032917e+02   1.400550e+01
   2.690895e+02   4.175302e+02
  -1.880614e+02   2.168555e+02
  -3.317228e+02  -2.886530e+02
   1.811848e+01  -4.771752e+02
   3.981588e+02  -1.274577e+02
   4.684914e+02   2.998194e+02
   1.661825e+02   5.116067e+02
  -3.186089e+02   2.709334e+02
  -5.181403e+02  -2.486605e+01
  -3.742531e+02  -3.202856e+02
   1.080247e+02  -2.918611e+02
   3.667560e+02  -1.170850e+01
   2.556702e+02   9.611715e+01
  -8.205843e+01   8.431945e+01
  -1.154021e+02  -9.468373e+01
   1.616335e+02  -8.578489e+01
   2.611240e+02   9.387323e+01
   1.327953e+02   2.318976e+02
  -1.640728e+02   2.426201e+02
  -3.349546e+02   1.171011e+02
  -1.978349e+02  -1.041825e+02
  -2.190194e+01  -2.137992e+02
   1.888413e+02  -3.184539e+02
   3.041990e+02  -1.808177e+02
   2.854302e+02   6.857896e+01
   1.191077e+02   3.392504e+02
  -4.824134e+01   3.137758e+02
  -1.007306e+02   1.539882e+02
  -4.357551e+01   5.827499e+01
  -1.103809e+02   8.487020e+01
  -1.249615e+02   1.588177e+02
  -2.361543e+02  -6.426271e+01
  -2.144439e+02  -2.493775e+02
   7.516243e+01  -1.891079e+02
   2.291808e+02  -4.316396e+01
   1.849068e+02   1.548909e+02
  -5.025602e+01   1.954697e+02
  -2.210669e+02   1.056271e+02
  -3.142575e+02  -1.613304e+02
  -1.964302e+02  -2.494966e+02
   1.349547e+02  -2.510653e+02
   1.310254e+02  -1.473003e+02
   1.036610e+02  -1.045293e+01
   8.098605e+01  -2.594983e+01
   1.975876e+02  -5.573784e+01
   3.957709e+02   4.995392e+01
   2.907395e+02   2.143825e+02
   4.302157e+01   3.846601e+02
  -2.591452e+02   3.337850e+02
  -3.810196e+02   1.920499e+02
  -2.756509e+02  -6.808688e+01
  -6.012366e+01  -2.374982e+02
   8.037253e+01  -2.153169e+02
   2.248073e+01   3.857804e+01
  -7.835130e+01   8.693529e+01
  -2.137519e+02  -1.831075e+00
  -1.225962e+01  -1.530283e+02
   1.092384e+02  -1.805771e+02
   1.589029e+02   6.750651e+01
  -2.815422e+01   2.355830e+02
  -1.708083e+02   1.062793e+01
  -1.547551e+02  -2.651082e+02
   5.956701e+01  -3.560482e+02
   2.150408e+02  -1.607432e+02
   2.712769e+02   8.340856e+01
   2.611277e+02   2.408890e+02
   5.148751e+01   2.491306e+02
  -6.351810e+01   1.649963e+02
  -1.462777e+02   3.637255e+01
  -5.473606e+01  -2.804683e+01
   4.001501e+01   9.316421e+00
   3.459767e+01   5.513794e+01
  -5.729077e+01   1.608503e+01
  -1.036044e+02  -1.208286e+00
  -4.052146e+01  -3.996557e+01
   8.313030e+01  -3.706000e-02
   1.204427e+01   8.624613e+01
  -1.100953e+02   3.269018e+01
  -2.588601e+02   1.627881e+01
  -1.975981e+02  -1.246706e+02
  -4.198204e+01  -2.167837e+02
   1.893373e+02  -1.942973e+02
   2.529757e+02  -1.276896e+02
   1.327098e+02   7.114352e+01
  -2.771701e+01   1.490069e+02
  -5.818210e+01  -2.823706e+01
   6.319005e+01  -7.421698e+01
   1.612044e+02  -6.791220e+01
   2.156255e+02   6.042809e+01
   3.666464e+01   1.805811e+02
  -1.061875e+02   1.312470e+02
  -8.458831e+01   4.060006e+01
   1.077056e+01  -2.222779e+01
   5.817966e+00   1.847649e+01
   1.988813e+01   5.948996e+01
  -3.169976e+01   5.449673e+01
  -1.933355e+02   3.559174e+01
  -1.861937e+02  -1.038445e+02
  -1.934024e+01  -1.842734e+02
   1.719455e+02  -8.131184e+01
   1.745763e+02  -5.474668e+01
   1.852353e+01   1.010782e+02
  -8.494288e+01   1.049826e+02
  -5.649304e+01   5.216247e+01
  -1.537581e+01   1.976232e+01
  -7.142076e-01  -1.546441e+01
  -8.566839e+01  -2.743342e+00
  -8.309176e+01   3.815379e+01
  -4.686614e+01  -2.888360e+01
  -2.435739e+01  -1.038991e+02
   1.174414e+02  -1.493932e+02
   2.678689e+02   9.554850e+00
   1.918011e+02   7.860835e+01
   3.695933e+01   2.000219e+02
  -9.923529e+01   1.554896e+02
  -1.148291e+01   1.824409e+01
  -6.149815e+01  -1.771681e+01
   2.646183e+00  -3.073233e+01
  -6.184278e+01  -3.337997e+01
  -1.014717e+02   1.140878e+01
  -4.480437e+01  -1.380646e+01
   2.627038e+01  -8.205540e+01
   6.694652e+01  -2.868982e+01
   5.804967e+01   7.449962e+00
  -2.336029e+00   6.778120e+01
  -1.334986e+02   1.089527e+02
  -1.611386e+02  -8.905938e+00
  -7.329106e+01  -2.152714e+02
   1.201227e+02  -2.057831e+02
   1.760466e+02  -8.561199e+01
   2.077640e+02   7.061457e+01
   9.524307e+01   1.259174e+02
  -2.177019e+01   8.884106e+01
  -7.701756e+01   6.518405e+01
  -7.129441e+01   1.047813e+02
  -1.165893e+02   1.132179e+02
  -1.179117e+02   3.865855e+01
  -1.383645e+02  -3.382525e+01
  -5.625533e+01  -9.372408e+01
  -4.116538e+01  -1.975435e+02
   1.039820e+02  -1.426386e+02
   1.722498e+02  -3.706807e+01
   1.114306e+02   1.149504e+02
   4.773183e+01   1.612481e+02
  -7.361217e+01   4.349695e+01
  -5.176361e+01  -4.668680e+00
  -1.588736e+01  -6.852606e+01
   9.049640e+00  -4.246078e+01
  -6.565535e+01  -1.641428e+01
  -1.151438e+02  -2.472981e+01
  -4.906483e+01  -7.191211e-01
   8.378471e+01  -1.829148e+01
   1.448217e+02   7.104471e-03
   1.195615e+02   3.403782e+01
   3.389317e+01   9.377601e+01
  -8.684826e+01   8.575024e+01
  -1.199897e+02   5.113456e+00
  -7.176205e+01  -7.324399e+01
   4.952804e+01  -3.277601e+01
   6.095437e+01   1.064698e+01
   5.914843e+01   9.005145e+01
  -4.817650e+01   1.112115e+02
   1.633549e+00   2.025071e+00
  -2.920420e+01  -2.191938e+00
  -5.961653e+01   1.769012e+01
  -5.453785e+01  -7.865746e-01
  -5.377928e+01   1.179148e+01
  -9.087322e+00  -6.082779e+01
   1.797448e+01  -1.312605e+02
   1.046980e+02  -1.407447e+02
   1.567165e+02  -6.602883e+01
   9.450997e+01   1.717234e+01
  -1.245739e+01   1.053293e+02
  -7.714831e+01   3.899326e+01
  -1.027502e+02  -1.646945e+01
   6.910558e+01  -2.102084e+01
   9.449570e+01   3.723203e+01
   7.357336e+01   8.900631e+01
  -5.918187e+01   1.052119e+02
  -2.131679e+02   6.635784e+01
  -1.251286e+02   1.017154e+00
  -3.837318e+01  -3.728713e+01
   7.183964e+01  -6.002954e+01
   4.912800e+01  -1.577853e+01
   1.557841e+01   1.586632e+01
  -1.011391e+02  -3.206742e+01
   3.988202e+01  -8.222053e+01
   5.519008e+01  -1.417374e+02
   1.653176e+02  -5.822360e+01
   8.883733e+01   7.842442e+01
  -1.620906e+01   2.265516e+02
  -4.437656e+01   2.011444e+02
  -8.982254e+01  -3.570804e+01
  -3.113654e+01  -1.249342e+02
  -4.263630e+01  -8.456362e+01
  -1.220622e+01  -3.924995e+01
   4.080218e+01   1.375362e+01
   5.668659e+01  -2.035404e+01
   3.471209e+01  -2.475325e+01
  -4.152237e+00  -8.338866e+00
   3.345511e+01   1.086710e+02
   8.368780e+01   1.487300e+02
  -5.551285e+01   3.947340e+01
  -1.931943e+02   4.150781e+01
  -1.196844e+02  -9.694608e+01
  -1.248424e+01  -7.385605e+01
   3.041858e+01  -4.008733e+01
   1.441152e+02   3.606649e+01
  -5.013058e+01   2.854690e+01
  -1.339487e+01   3.978248e+00
  -2.068361e+01   1.843745e+01
   2.105189e+01  -8.292430e+00
  -1.823232e+01  -2.191362e+01
  -5.832522e+01  -6.352687e+01
  -9.280970e+01  -1.473266e+01
   3.459159e+01   2.133425e-02
   1.032876e+02  -1.054226e+02
   1.923991e+02  -6.343921e+01
   1.237804e+02   7.553745e+01
   1.191348e+01   1.533512e+02
  -2.989324e+01   1.521687e+02
  -1.127428e+02   5.390492e+01
  -1.148952e+02  -3.197225e+01
  -1.744868e+01  -3.773476e+01
   4.822685e+00  -5.494301e+01
  -4.525039e+01   1.875514e+01
  -3.360999e+01  -4.265949e+01
  -6.592530e+01  -1.258220e+02
   1.015188e+01  -7.892979e+01
   6.772134e+01   3.325832e+01
   4.425607e+01   9.313762e+01
  -3.625887e+01   1.650054e+02
  -8.144622e+01   1.657615e+01
  -9.666944e+01  -3.204985e+01
  -7.118924e+00  -5.556115e+01
   6.641169e+01  -2.103476e+01
   8.211930e+01  -1.847120e+01
   6.854812e+01   5.749090e+01
   2.905749e+00   4.157020e+01
   3.862453e+01   4.052836e+01
   4.897675e+01  -4.967394e+01
   3.629400e+01  -4.356302e+01
   6.776986e+01   4.413031e+01
  -4.878442e+01   2.290118e+01
  -8.633757e+01   3.005578e+01
  -9.080700e+01  -1.974178e+01
   1.185234e+01  -5.422319e+01
   4.895831e+01  -1.211474e+02
  -2.095000e+01   2.226949e+01
   1.787397e+01   3.727636e+01
  -5.508365e+01   4.664365e+01
  -5.770757e+01  -6.550540e+01
  -4.166849e+00  -2.611937e+01
   1.327749e+01  -5.560111e+01
  -1.593649e+01  -1.708272e+01
   3.041008e+01   1.438021e+01
   7.052543e+01   9.025374e+00
  -2.664172e+00  -2.368677e+01
  -7.287801e+01  -3.530710e+01
   3.990378e+00   4.965057e+01
   2.694902e+00   7.535497e+01
  -6.366199e+01  -5.091455e+01
  -1.925463e+01  -1.576643e+01
  -1.120057e+01  -4.350870e+01
   3.656769e+01  -5.285643e+01
   5.829648e+01   2.228228e+01
   4.161177e+01   5.399273e+01
  -3.437940e+01   1.198825e+01
  -8.669912e+01  -5.078744e+01
  -4.072107e+01  -5.285372e+01
   3.814239e+01  -4.881892e+01
   5.692441e+01   2.346304e+01
  -3.959777e+00   2.649441e+00
  -1.751308e+01   3.586243e+01
  -7.368255e+01  -3.911458e+01
   6.833325e+01   4.354795e+01
   5.986020e+01  -9.147302e+00
