
 $NMID
 id='ANONYMOUS ', fmtdat='(2E16.6)'
 volume=1.0
 tramp=1.0
 $END
  -2.875095e+03  -5.875554e+01
  -1.604045e+03  -1.729540e+03
   5.274023e+02  -1.719963e+03
   1.326934e+03  -6.273991e+02
   5.708509e+02   3.820966e+02
  -3.513512e+02   3.406559e+02
  -5.896906e+02  -3.304273e+02
  -6.425612e+01  -6.189080e+02
   5.340407e+02  -5.084344e+02
   5.812665e+02   5.938972e+01
   2.292966e+02   5.757600e+02
  -1.460632e+02   5.325897e+02
  -4.550626e+02   6.265215e+01
  -2.364288e+02  -4.509960e+02
   1.647198e+02  -4.793665e+02
   4.080626e+02   5.820355e+01
   1.773759e+02   4.827665e+02
  -2.160744e+02   4.155306e+02
  -3.973306e+02   5.391501e+01
  -2.566614e+02  -2.105847e+02
  -1.168741e+01  -2.593249e+02
   1.135580e+02  -2.185164e+02
   1.104271e+02   7.467942e+00
  -9.006319e+01   2.391274e+01
  -2.724049e+02  -1.330192e+02
  -1.511472e+02  -2.841814e+02
   3.569039e+02  -2.261939e+02
   5.528159e+02   8.325465e+01
   2.971473e+02   3.824251e+02
  -2.949895e+02   2.682913e+02
  -4.530727e+02  -9.584816e+01
  -2.355642e+02  -2.665915e+02
   2.192926e+02  -3.284659e+02
   4.017303e+02  -1.069425e+02
   2.999944e+02   1.503315e+02
  -2.006260e+00   3.315833e+02
  -9.030887e+01   1.251855e+02
  -4.124612e+01  -1.026468e+02
   1.112203e+02  -2.751019e+02
   2.909341e+02   4.000670e+01
   1.622920e+02   4.662077e+02
  -2.341486e+02   4.199746e+02
  -3.576125e+02  -1.590861e+01
  -1.234423e+02  -3.133608e+02
   1.389337e+02  -1.355141e+02
   2.565394e+02   2.660842e+02
  -8.653571e+01   3.580330e+02
  -3.454965e+02   3.776338e+01
  -4.117946e+02  -3.123725e+02
  -1.385235e+02  -4.203628e+02
   2.520124e+02  -2.086754e+02
   4.441410e+02   8.877830e+01
   2.566009e+02   2.525645e+02
  -9.183780e+01   2.328355e+02
  -2.350228e+02  -1.202337e+01
  -1.772820e+02  -1.202648e+02
   7.196215e+01   1.078106e+01
   4.189572e+01   1.296119e+02
  -9.759082e+01   1.777907e+02
  -2.650329e+02  -4.287138e+01
  -9.127274e+01  -2.216338e+02
   1.365524e+02  -1.383972e+02
   2.173694e+02  -1.464798e+01
   1.128155e+02   5.421551e+01
  -1.668352e+01   1.308399e+02
  -1.679483e+02   1.613102e+02
  -2.297121e+02   9.671133e+01
  -1.995239e+02  -1.632135e+02
  -1.402238e+01  -2.998367e+02
   8.467774e+01  -2.333238e+02
   6.423930e+01  -1.088794e+02
   5.993678e+01  -3.992377e+01
   2.849298e+00  -8.550233e+01
   1.143306e+02  -6.454065e+01
   2.068290e+02   2.845007e+01
   1.067923e+02   1.343179e+02
  -1.122392e+02   1.696822e+02
  -1.273282e+02  -9.631927e+00
  -1.469492e+02  -1.937933e+02
   2.118517e+01  -2.157209e+02
   9.997870e+01  -4.094755e+01
   2.322289e+02   1.113071e+02
   1.532230e+02   2.073054e+02
  -3.258772e+01   2.594124e+02
  -1.848184e+02   9.507737e+01
  -8.630482e+01  -4.128849e+01
  -7.719054e+01   6.890591e+00
  -1.607735e+02   1.326387e+01
  -2.457414e+02  -2.151780e+01
  -2.126046e+02  -1.708586e+02
   4.857495e+01  -2.837113e+02
   2.539698e+02  -2.805619e+02
   3.696801e+02  -1.271882e+02
   2.300929e+02   8.394173e+01
   1.590829e+01   2.675139e+02
  -7.380769e+01   1.774684e+02
  -3.067602e+00  -2.736308e+01
   7.896994e+01  -4.667197e+01
   1.780722e+02   3.021066e-01
  -2.099543e+00   1.203799e+02
  -1.524176e+02   1.175408e+02
  -1.272731e+02  -7.558570e+01
  -1.696247e+00  -2.042495e+02
   1.328126e+02  -1.113563e+01
   1.469969e+02   2.228323e+02
  -5.698786e+01   2.084721e+02
  -1.714283e+02   1.082254e+02
  -2.108631e+02  -5.015092e+01
  -1.698630e+02  -1.408275e+02
  -8.377305e+01  -2.309534e+02
   1.013792e+02  -1.246892e+02
   1.043291e+02   6.389764e+00
   5.971665e+01  -4.743133e+01
  -2.263431e+01  -3.160792e+01
  -1.744621e+01  -6.318777e+01
   9.381349e+01  -7.929949e+01
   9.337169e+01   6.960853e+01
   4.030539e+01   5.252076e+00
  -3.894658e+01  -4.174279e+00
  -2.373140e+01  -6.453781e+01
   1.035579e+02  -4.061361e+01
   2.186711e+02  -3.052502e+01
   1.690592e+02   9.462013e+01
   8.926131e+01   1.861538e+02
  -1.345194e+02   1.782190e+02
  -2.025572e+02   9.706081e+01
  -9.578319e+01  -2.090858e+01
   4.864428e+00  -3.245858e+01
  -1.187263e+01  -1.894268e+01
  -3.452855e+01   1.821584e+01
  -1.680122e+02   5.069558e+01
  -9.985717e+01  -3.918386e+01
  -1.904070e+00  -1.758546e+02
   8.737727e+01  -9.216391e+01
   1.346574e+02   1.136002e+01
   3.206569e+01   3.017124e+01
  -2.640014e+01  -6.431673e+00
  -4.634720e+01  -4.796267e+01
   6.643727e+01  -1.077674e+02
   1.477757e+02   1.617931e+00
   1.561865e+02   1.013627e+02
   1.938027e+01   1.428457e+02
  -1.243430e+02   9.756551e+01
  -1.444795e+02  -2.494308e+01
  -3.577306e+01  -7.874630e+01
   9.406908e+01  -1.462467e+01
   1.380209e+00   2.205700e+01
   2.086832e+01   8.390063e+00
  -3.074507e+01   1.814381e+01
   7.104536e+00  -2.395710e+01
   9.149002e+01  -1.587120e+00
   6.189890e+01   6.594712e+01
   3.853427e+01   1.437843e+02
  -1.069838e+02   8.432533e+01
  -1.775141e+02   1.839695e+01
  -1.293619e+02  -6.095262e+01
   3.057046e+01  -2.254665e+02
   1.053419e+02  -8.737534e+01
   9.942445e+01  -1.047578e+02
   6.814263e+01   5.648729e+01
   7.337153e+01   1.257671e+01
   3.120851e+01  -1.912053e+01
   5.386553e+01   3.190224e+01
   4.668406e+01   6.009938e+01
  -2.536591e+01   6.438510e+01
  -6.870709e+01   5.902107e+01
  -6.425483e+01   1.516879e+01
   2.096660e+01  -5.161180e+01
   1.420561e+02  -2.077299e+01
   8.845512e+01   9.068967e+00
   6.475018e+01   1.691275e+02
  -8.051032e+01   1.867931e+02
  -2.271806e+02   1.401329e+00
  -2.174084e+02  -5.537130e+01
  -5.961863e+01  -1.104032e+02
   2.551811e+01  -1.461867e+02
   7.634006e+01  -1.082253e+02
   2.851822e+01  -2.918087e+01
   7.208938e+01  -1.125424e+02
   4.955969e+01  -4.844173e+01
   4.339936e+01  -9.213721e+00
   3.743546e+01   9.169533e+01
   2.219627e+01   1.856986e+02
  -8.330097e+01   1.109716e+02
  -9.656040e+01  -3.880935e+00
  -7.607796e+01  -8.527790e+01
  -1.858298e+01  -1.201200e+02
   2.884299e+01  -8.047074e+01
   3.096502e+01  -1.375100e+01
   7.939287e+00   2.930689e+01
  -4.891710e+01   1.505389e+00
   2.849254e+01  -2.444279e+01
   3.833214e+01   1.533492e+01
   3.621430e+01   3.444760e+01
  -7.194226e+01   2.170459e+01
  -9.262052e+01  -3.855369e+01
  -1.470399e+02  -1.823582e+01
  -1.142549e+00  -5.827817e+01
   9.051411e+01  -6.067528e+01
   9.969673e+01  -3.890002e+01
   9.913131e+00   3.983134e+01
  -4.647448e+01   2.271149e+01
  -4.158685e+01   1.886712e+01
  -3.981874e+01   3.468035e+01
   2.631783e+01  -4.676319e+01
   2.140120e+01   3.719115e+01
   2.798411e+01  -1.437056e+01
   5.863342e+01   6.776786e+01
   5.858175e+01  -1.370319e+01
   4.796994e+01  -1.241547e+01
   2.456066e+01   2.431931e+01
  -5.908261e+01   1.081002e+02
  -8.187008e+01   6.446216e+01
  -8.915110e+01   5.181134e+01
  -9.236364e+01  -1.741246e+01
  -5.209663e+01  -9.668587e+01
   6.160711e+01  -4.685732e+00
   4.027218e+01  -1.008693e+00
  -3.236182e+01   9.251143e+00
  -1.269960e+02  -4.607406e+01
  -1.971338e+01  -5.651775e+01
   4.484289e+01  -7.145990e+01
   1.132408e+02  -2.823429e+01
   1.429396e+02  -6.282257e+01
  -8.208788e+00   6.192507e+01
  -3.935269e+01   2.494013e+01
   6.060249e+00   3.114747e+01
   1.220790e+01   3.037522e+01
   4.137170e+01   6.372450e+00
   1.090292e+01   1.313141e+02
  -1.109908e+02   1.053792e+02
  -1.040713e+02   3.534726e+01
  -9.772973e+01  -6.179575e+01
  -1.500724e+01  -1.089223e+02
   1.106127e+02  -7.478530e+01
   3.333155e+01  -3.600977e+01
   3.438384e+00   3.671136e+01
  -2.508341e+01   1.007819e+02
  -2.693393e+01   8.551643e+00
  -7.429753e+01  -1.533436e+01
  -1.157243e+01  -3.451899e+01
   3.415210e+01   2.974751e+01
  -4.023318e+01  -9.286586e+01
   1.015335e+01  -6.849510e+01
  -6.103698e+01  -4.446008e+01
  -9.830673e+00  -1.157802e+01
   6.961595e+01   7.027479e+01
   5.375634e+01   8.663152e+01
  -7.796079e+00   1.067837e+02
  -1.007162e+02   1.969778e+01
  -2.998753e+01   3.434344e+01
   4.709970e+00   5.839275e+01
  -1.125839e+01  -3.825365e+01
  -1.801613e+01   1.375722e+00
   1.415813e+01   5.677991e+01
  -3.322479e+01   5.765879e+01
   2.869726e+01   9.541876e+00
   1.534305e+02  -4.366177e+01
  -3.840941e+01   3.400653e+01
  -1.376850e+02   5.592106e+01
  -1.217968e+02   5.460020e+01
  -1.405901e+02  -1.072682e+01
  -1.723225e+01  -1.166839e+02
   5.773810e+01  -1.236119e+02
   1.155544e+02  -2.089506e+01
   8.148138e+01  -4.439093e+01
   2.907078e+01   5.554614e+01
  -5.158310e+01  -1.685660e+01
   2.128225e+01  -7.453278e+00
   2.427963e+01   4.250889e+01
   1.099213e+01   1.104850e+02
  -6.480517e+01   9.894538e+01
   5.673206e+00  -6.209584e+00
  -2.996007e+01  -9.915947e+01
  -2.859733e+01  -1.261322e+02
   1.067792e+01  -4.955538e+01
   6.202904e+01   3.603612e+01
   2.509049e+01   8.055487e+01
   1.667998e+01   5.826156e+01
  -1.187596e+02  -5.738985e+00
  -4.236774e+01  -9.325355e+01
   1.746174e+01  -5.680821e+01
   4.606612e+01  -1.243755e+01
   4.973563e+00   3.092089e+01
  -4.037261e+01  -3.453657e+01
   2.524546e+01  -6.695918e+01
   3.385288e+01  -3.907507e+01
   7.562599e+01  -2.125817e+01
   5.910948e+00   1.380011e+01
  -1.781145e+01   7.988337e+01
  -3.844458e+01   4.979198e+01
   2.438005e+00  -2.228814e+01
   3.077968e+00  -1.050472e+02
   2.312819e+01   3.873258e+01
  -3.579262e+01  -2.573127e+00
   2.781760e+01  -1.607702e+01
   2.284633e+01   2.787587e+01
  -3.878450e+01  -1.830816e+01
   2.375390e+01  -3.428243e+01
   1.770977e+01   1.455911e+01
  -1.890790e+00   2.805859e+01
   4.179527e+00  -1.720733e+01
   6.479084e+01  -2.467389e+01
   3.189604e+00  -7.804421e+00
   1.822228e+01   3.042337e+01
   5.133340e+01   9.778824e+01
  -5.021871e+01   8.180038e+01
  -2.482271e+00  -1.347281e+01
  -2.704738e+01  -3.386302e+01
  -1.487806e+01  -7.886336e+01
   3.310712e+01   5.127249e+01
   8.042921e+01   3.968816e+00
   1.836813e+01   8.363751e+01
   8.171188e+00   1.165580e+01
   1.221946e+01  -7.350729e+01
   7.183909e+01  -5.424840e+00
  -1.347371e+01   4.441020e+01
  -2.087521e+01   4.617749e+01
  -5.915664e+01   3.366803e+01
  -9.242887e+01   1.763924e+01
