
 $NMID
 id='ANONYMOUS ', fmtdat='(2E16.6)'
 volume=1.0
 tramp=1.0
 $END
   3.250391e+03   6.936295e-01
   1.978051e+03   1.813886e+03
  -3.107090e+02   1.960192e+03
  -1.411841e+03   8.715784e+02
  -7.939476e+02  -1.898610e+02
   2.542022e+02  -2.860508e+02
   5.574234e+02   2.179644e+02
  -1.557649e+01   6.619063e+02
  -5.184920e+02   5.617513e+02
  -6.800155e+02  -1.169243e+01
  -3.296631e+02  -5.715730e+02
   1.105273e+02  -6.374598e+02
   3.829431e+02  -7.253574e+01
   2.862956e+02   4.431416e+02
  -1.211062e+02   5.114031e+02
  -4.509641e+02  -5.367804e+01
  -2.763154e+02  -4.670781e+02
   1.575018e+02  -5.394530e+02
   4.405221e+02  -1.795276e+02
   3.406946e+02   1.921603e+02
   8.192131e+00   3.299830e+02
  -8.534955e+01   1.886441e+02
  -8.091484e+01   4.480818e+01
   5.546385e+01  -2.676437e+01
   2.875860e+02   1.595111e+02
   6.666426e+01   3.530259e+02
  -3.719018e+02   3.031227e+02
  -6.075251e+02  -8.956207e+01
  -3.103249e+02  -3.430241e+02
   3.429255e+02  -3.252483e+02
   5.033737e+02   4.799744e+01
   2.244049e+02   4.095713e+02
  -2.732374e+02   3.691370e+02
  -4.268888e+02   1.724160e+02
  -3.091168e+02  -1.396111e+02
  -1.014072e+02  -3.354884e+02
   6.030182e+01  -2.201203e+02
   7.849186e+01   1.038640e+02
  -1.277456e+02   2.554107e+02
  -2.698830e+02  -8.422303e+01
  -1.093999e+02  -5.081432e+02
   2.491282e+02  -4.616308e+02
   3.809331e+02   5.136941e+01
   1.499014e+02   3.426504e+02
  -1.417834e+02   1.875519e+02
  -2.419130e+02  -2.396798e+02
   2.665338e+00  -3.812580e+02
   4.473691e+02  -1.312387e+02
   4.436408e+02   2.993068e+02
   1.522714e+02   4.883031e+02
  -2.676576e+02   2.670337e+02
  -4.712922e+02  -6.659669e+01
  -2.583693e+02  -2.677594e+02
   3.704237e+01  -2.582687e+02
   3.336421e+02  -1.155621e+02
   1.664185e+02   4.805853e+01
  -1.241958e+02   6.004069e+01
  -8.807183e+01  -8.426567e+01
   1.360525e+02  -6.121772e+01
   2.483235e+02   7.513143e+01
   1.422943e+02   1.971373e+02
  -1.115659e+02   1.627810e+02
  -2.330898e+02   1.088924e+02
  -2.462489e+02  -3.706739e+01
   3.004246e+01  -2.201120e+02
   2.613098e+02  -2.831317e+02
   2.755712e+02  -1.619124e+02
   2.111312e+02   1.461760e+02
   7.362812e+01   3.426415e+02
  -8.781110e+01   2.981098e+02
  -5.504632e+01   1.422401e+02
  -1.726674e+01   5.399521e+01
  -6.202364e+01   1.001212e+02
  -1.866185e+02   7.993277e+01
  -1.374077e+02  -4.490566e+01
  -1.739516e+02  -1.984988e+02
   9.757080e+01  -2.110392e+02
   1.040097e+02  -3.211151e+01
   1.233637e+02   2.270591e+02
   2.803763e+01   1.860411e+02
  -2.068583e+02   6.785766e+01
  -3.043071e+02  -1.152901e+02
  -1.542379e+02  -2.343621e+02
   9.845915e+01  -2.861873e+02
   1.826477e+02  -1.292511e+02
   1.332525e+02  -2.695716e+01
   9.401192e+01  -7.166995e+01
   2.140483e+02   1.449012e+01
   3.690713e+02   5.417023e+01
   2.737505e+02   2.534436e+02
   1.513799e+01   3.696469e+02
  -3.321919e+02   3.630740e+02
  -4.510479e+02   1.627977e+02
  -2.234340e+02  -1.146447e+02
  -1.894959e+01  -1.925453e+02
   9.874610e+01  -2.086635e+02
   7.585376e+01  -3.773941e+01
  -9.534364e+01   6.272468e+01
  -1.596132e+02  -6.370650e+01
  -4.992097e+01  -1.098986e+02
   2.056881e+02  -1.136596e+02
   1.123313e+02   7.548458e+01
  -5.431088e+01   1.237387e+02
  -1.648294e+02   2.820530e+01
  -1.088507e+02  -1.746242e+02
  -3.304024e+01  -2.352689e+02
   1.913299e+02  -9.789100e+01
   2.957934e+02   6.508141e+01
   2.489929e+02   2.132174e+02
   1.248713e+02   2.197709e+02
  -1.317808e+02   1.342421e+02
  -1.433064e+02  -9.257762e+00
  -6.932717e+01   1.037478e+01
   1.366318e+02   1.806332e+01
   1.962724e+01   8.354840e+01
  -8.648024e+01   7.074941e+01
  -1.300282e+02   8.095460e+00
  -4.365986e+01  -6.220722e+01
   7.305459e+01  -4.275488e+01
   2.151910e+01   5.814588e+01
  -1.096400e+02   4.754499e+01
  -2.787771e+02   1.212048e+01
  -2.541596e+02  -8.659655e+01
  -4.300842e+01  -2.248909e+02
   1.394832e+02  -2.290742e+02
   2.802783e+02  -9.549897e+01
   1.553220e+02   2.299985e+00
  -5.431386e+01   7.142090e+01
  -1.617972e+01   5.288642e+00
   3.064880e+01  -8.826392e+01
   1.454790e+02  -9.445687e+01
   1.668798e+02   1.634282e+02
   6.306051e+01   1.915251e+02
  -2.636838e+01   1.058783e+02
  -9.562050e+01   3.446162e+01
  -6.935201e+01  -4.594223e+01
  -2.551596e+01  -1.329170e+01
   5.390642e+01   4.103360e+01
  -5.242705e+01   1.377106e+02
  -2.119804e+02   1.401623e+01
  -1.386706e+02  -5.041446e+01
  -5.004300e+00  -1.632264e+02
   1.108972e+02  -1.334570e+02
   1.617527e+02  -1.258146e+01
   9.928661e+01   6.175872e+01
  -3.324795e+00   1.106389e+02
  -2.256105e+01   1.670504e+01
  -1.387727e+01  -3.365598e+01
   2.481613e+01  -7.255262e+00
  -3.304552e+01   1.713999e+01
  -6.396897e+01   1.245023e+01
  -1.178188e+02  -1.231269e+02
  -2.139255e+01  -1.290188e+02
   1.251735e+02  -1.089636e+02
   1.820958e+02  -1.913152e+01
   1.303780e+02   1.388164e+02
   2.266869e+01   1.930088e+02
  -8.208805e+01   1.268319e+02
  -9.450070e+01   2.246507e+01
  -8.021453e+00  -4.256475e+01
  -5.127781e+01  -3.964434e+00
   5.700382e+00   7.205234e+01
  -3.422378e+01   4.796782e+00
   2.661925e+00  -1.290880e+01
   5.307814e+01  -7.652524e+01
   7.168328e+01  -1.578065e-01
   6.822713e+01  -1.115824e+01
   4.298384e+00   7.621496e+01
  -1.248637e+02   7.262999e+01
  -2.074589e+02  -5.625195e+01
  -9.358255e+01  -1.514484e+02
   1.371186e+02  -1.720937e+02
   2.255159e+02  -5.982573e+01
   2.452442e+02   8.593002e+01
   7.200039e+01   1.382529e+02
  -5.004135e+01   8.863683e+01
  -1.035623e+02   7.637515e+01
  -4.963170e+01   4.844078e+01
  -2.361164e+01   1.818747e+02
  -1.199399e+02   8.239141e+01
  -1.179668e+02  -4.019591e+01
  -8.762161e+01  -1.507006e+02
  -4.022554e+01  -2.123934e+02
   1.207123e+02  -1.203757e+02
   1.230086e+02  -2.105835e+01
   1.141290e+02   6.124711e+01
  -3.966208e+00   1.377426e+02
  -5.838104e+01   5.703190e+01
  -5.141394e+01   1.306057e+01
  -3.543748e+01  -2.816691e+01
   8.238401e+00  -9.133149e+01
  -7.535357e+00  -4.060995e+01
  -6.372957e+01  -2.870090e+01
  -5.825234e+01  -3.684076e+01
   6.208883e+01  -4.598753e+01
   1.407530e+02  -5.082524e+00
   1.439681e+02   6.950197e+01
   2.177833e+01   1.353939e+02
  -1.020918e+02   8.788573e+01
  -1.533628e+02  -1.894416e+01
  -3.971151e+01   2.812962e+01
   3.782119e+00  -6.639851e+01
   5.230256e+00   4.315103e+01
   1.408903e+01   9.046933e+01
  -1.377726e+02   3.146247e+01
  -3.021347e+01   3.846800e+01
  -7.231733e+01  -4.177877e+01
  -3.230104e+01  -2.576494e+00
  -7.971056e+01   1.521592e+01
  -8.051999e+01  -6.227797e+00
  -8.100044e+01  -1.227915e+01
   1.622903e+01  -1.030355e+02
   9.819704e+01  -1.582802e+02
   1.584413e+02  -4.153518e+01
   1.361998e+02   4.811391e+01
   5.437319e+01   1.156120e+02
  -2.283729e+01   4.317911e+01
  -3.915920e+01  -2.350749e+01
   3.038201e+01   2.084006e+01
   1.297065e+02   2.291358e+01
   1.716903e+01   1.015941e+02
  -3.148877e+01   1.371132e+02
  -8.635067e+01   5.429001e+01
  -1.365325e+02   4.410209e+01
  -5.837446e+01  -5.735402e+01
   4.014618e+01  -3.945945e+01
   5.604285e+01   2.377829e+01
   9.134029e+00  -1.748478e+01
  -7.455368e+01  -4.507126e+01
  -8.729931e+01  -7.213494e+01
   7.693635e+01  -1.275282e+02
   1.595347e+02  -7.618881e+01
   1.135106e+02   6.753127e+01
   3.732569e+01   1.844553e+02
  -6.912779e+01   1.346088e+02
  -7.545490e+01  -2.798239e+00
  -6.153248e+01  -9.444045e+01
   2.826326e+01  -5.388702e+01
   8.782441e+00   9.109200e+00
   1.655397e+01  -1.188587e+01
   1.602594e+01  -5.679145e+01
  -6.381422e+00  -3.055087e+01
   2.374163e+01  -3.880949e-01
   3.999303e+01   8.307055e+01
   5.764564e+01   9.784162e+01
  -4.876667e+01   6.575430e+01
  -1.375290e+02  -2.839672e+01
  -6.505547e+01  -6.037685e+01
   1.611402e+01  -5.924082e+01
   1.157500e+02   2.069381e+01
   7.888114e+01   2.197871e+01
  -2.342781e+01  -4.617280e+00
   2.035503e+01   1.883674e+01
  -3.312063e+01  -3.026595e+01
   1.355920e+01  -3.884019e+01
   2.025438e+01  -4.748793e+01
  -8.402830e+01  -7.808803e+00
  -1.055565e+02   2.656950e+01
   6.123779e+01  -7.106054e+01
   9.685247e+01  -1.480763e+02
   7.636900e+01  -1.686171e+01
   1.213033e+02   8.049417e+01
   5.284198e+01   1.180882e+02
   2.164173e+00   9.919079e+01
  -9.696549e+01   1.423181e+01
  -4.672229e+01  -6.328337e+01
  -1.587887e+01  -1.314761e+01
   1.110988e+01   4.698026e+01
  -1.451489e+01  -1.615797e+01
  -3.638572e+01  -1.271363e+02
   2.001053e-01  -9.708262e+01
   2.335565e+01  -4.589999e+01
   1.029536e+02  -3.434259e+01
   8.062045e+01   8.748624e+01
   3.955149e+01   5.204047e+01
  -8.844667e+01   3.548061e+01
  -1.101060e+02  -8.022885e+01
  -1.202838e+01  -5.280047e+01
   2.397501e+00   5.134798e+00
   1.257752e+02   2.529126e+01
   3.538346e+00   6.775005e+01
  -2.921424e+01   6.415461e+01
   7.318489e-01   5.696254e+01
  -1.414615e+00   2.872277e-01
   6.766197e+01  -8.212677e+01
   2.951080e+01  -1.618684e+01
  -3.664899e+01   5.499730e+01
  -9.409819e+01   3.860858e+01
  -7.103411e+01   1.763431e+00
  -2.690836e+01  -4.859476e+01
   5.774646e+01  -5.175990e+01
   4.785875e+01  -1.093123e+01
   6.449147e+01   3.736733e+01
  -3.756404e+01   1.849752e+01
  -8.014816e+01  -4.100190e+01
  -1.670995e+01  -1.562273e+01
  -5.302028e+01  -5.768581e+01
  -1.027984e+01   2.844486e+01
   9.594077e+00   3.449121e+01
   5.757287e+01  -1.603933e+01
  -3.222532e+01   1.800642e+00
  -2.091372e+01   4.745404e+00
  -3.396867e+01   3.742212e+01
   5.167881e+01   4.788113e+01
  -3.516342e+01   2.598481e+01
  -3.756485e+00  -5.056013e+01
   1.868141e+01  -6.881397e+01
   3.009485e+01  -3.848621e+01
   5.449259e+01   2.631855e+01
   2.682068e+01   5.208213e+01
  -5.619018e+01   3.747199e+01
  -5.153888e+01  -7.707597e+01
   3.827167e+01  -5.856918e+01
   8.367151e+00   1.680462e+00
  -1.731593e+01   1.738554e+01
  -2.150780e+00  -1.666159e+01
  -1.619203e+01   1.718603e+01
  -2.858538e+01   5.459168e+01
   3.465068e+01  -2.329677e+01
   9.627343e+01  -7.282189e+00
