
 $NMID
 id='ANONYMOUS ', fmtdat='(2E16.6)'
 volume=1.0
 tramp=1.0
 $END
   4.724839e+03  -1.326156e+02
   2.755807e+03   2.856633e+03
  -8.110487e+02   2.999629e+03
  -2.344089e+03   8.998387e+02
  -1.014969e+03  -8.150232e+02
   7.864579e+02  -7.369774e+02
   1.025689e+03   5.406497e+02
  -1.419611e+01   1.194471e+03
  -8.905700e+02   8.890845e+02
  -1.038691e+03  -1.412230e+02
  -4.583134e+02  -9.554128e+02
   2.924387e+02  -9.826374e+02
   7.434630e+02  -1.477687e+02
   4.374516e+02   8.017230e+02
  -2.952736e+02   8.420277e+02
  -7.418587e+02  -2.948276e+01
  -3.120988e+02  -8.165279e+02
   3.806566e+02  -6.759837e+02
   6.173964e+02  -6.802947e+01
   4.122120e+02   4.270787e+02
   5.974143e+01   4.879359e+02
  -2.496523e+02   2.425080e+02
  -2.296108e+02   1.465875e+01
   8.646509e+01  -1.451927e+02
   4.325415e+02   6.527213e+01
   2.715973e+02   3.737555e+02
  -4.340571e+02   4.371398e+02
  -9.721010e+02  -1.868122e+00
  -4.660741e+02  -6.268236e+02
   4.411821e+02  -5.479111e+02
   8.060016e+02   4.115799e+01
   4.144642e+02   4.806572e+02
  -2.402937e+02   5.542461e+02
  -6.458479e+02   3.047007e+02
  -4.502755e+02  -2.488079e+02
  -1.057028e+02  -5.152369e+02
   2.426752e+02  -3.617935e+02
   2.605349e+02   2.881591e+02
  -1.651695e+02   5.307969e+02
  -5.324886e+02   3.509105e+01
  -2.683205e+02  -7.350381e+02
   3.059875e+02  -7.211528e+02
   6.676113e+02  -3.823317e+01
   2.758280e+02   6.125315e+02
  -3.122453e+02   3.591731e+02
  -3.996932e+02  -3.664486e+02
   9.027549e+01  -5.628977e+02
   5.949545e+02  -1.953572e+02
   6.714470e+02   4.888936e+02
   2.294832e+02   5.724141e+02
  -4.609469e+02   3.341726e+02
  -6.642212e+02  -7.112805e+01
  -4.123351e+02  -3.726341e+02
   1.791332e+02  -3.712897e+02
   5.043920e+02  -1.773872e+01
   2.635747e+02   2.271615e+02
  -1.485288e+02   1.414129e+02
  -1.667703e+02  -1.960616e+02
   1.736193e+02  -2.449240e+02
   3.569500e+02   2.961253e+01
   1.516483e+02   2.489542e+02
  -2.009906e+02   2.623599e+02
  -3.537202e+02   4.815476e+01
  -1.573270e+02  -1.026435e+02
   4.634704e+00  -2.124916e+02
   1.889112e+02  -3.592796e+02
   3.720099e+02  -2.595778e+02
   2.610240e+02   1.541986e+02
   1.094915e+02   5.076424e+02
  -1.023026e+02   4.380727e+02
  -1.607070e+02   4.492616e+01
  -8.456801e+01  -3.528092e+01
  -2.450870e+01   7.235445e+01
  -1.451147e+02   1.533997e+02
  -2.824884e+02  -1.350370e+01
  -2.167141e+02  -3.113878e+02
   4.447772e+01  -2.862536e+02
   2.111950e+02  -3.757499e+01
   2.178479e+02   2.345608e+02
  -7.174945e-01   3.403996e+02
  -2.549702e+02   1.204573e+02
  -3.705361e+02  -1.665877e+02
  -2.036712e+02  -3.402289e+02
   1.416645e+02  -3.330663e+02
   2.295983e+02  -1.007501e+02
   1.386216e+02   2.446938e+01
   6.346608e+01  -6.130989e+01
   2.221379e+02  -8.613272e+01
   3.776695e+02   7.198364e+01
   4.333715e+02   2.703489e+02
  -1.650707e+01   4.454078e+02
  -3.201616e+02   4.278035e+02
  -4.930287e+02   1.975871e+02
  -3.662835e+02  -2.570311e+01
  -8.450288e+01  -2.941559e+02
   1.028895e+02  -2.833821e+02
   6.031819e+01  -6.158252e+01
  -9.304202e+01   1.784971e+02
  -2.060530e+02   1.330816e+01
  -5.700976e+01  -2.043493e+02
   1.657131e+02  -2.364935e+02
   2.488285e+02   7.710578e+01
  -5.240062e+01   1.961101e+02
  -2.125364e+02   2.814248e+00
  -2.201152e+02  -2.030955e+02
   1.430980e+01  -3.948902e+02
   2.369499e+02  -2.352788e+02
   3.252428e+02   3.205468e+01
   2.054766e+02   2.238766e+02
   1.201108e+02   3.028185e+02
  -8.119325e+01   1.675941e+02
  -1.569418e+02   2.787963e+01
  -9.771373e+01   4.525708e-01
   1.109108e+02   4.369918e-02
   4.254359e+01   1.113308e+02
  -1.284490e+02   1.159390e+02
  -2.544277e+02   4.438602e+01
  -8.906009e+01  -1.234765e+02
   8.996516e+01  -1.199801e+01
  -2.261434e+01   4.998005e+01
  -1.100269e+02   1.204005e+02
  -2.885325e+02   4.217439e+01
  -2.758674e+02  -9.360078e+01
  -8.524368e+01  -1.886948e+02
   1.372694e+02  -2.957748e+02
   2.554459e+02  -1.021422e+02
   2.148252e+02   5.509041e+00
  -3.964504e+01   1.402046e+02
  -5.851152e+01   8.378685e+01
   5.145469e+00  -1.197196e+02
   2.416892e+02  -6.636915e+01
   2.761274e+02   3.505594e+01
   6.631542e+01   1.883677e+02
  -8.261766e+01   1.748155e+02
  -2.202854e+02   4.288488e+01
  -1.001830e+02  -7.547157e+01
  -1.581047e+01   2.866951e+01
   3.475949e+01   8.687400e+01
  -7.850974e+01   9.311707e+01
  -1.716213e+02   7.436260e+00
  -1.648665e+02  -1.501245e+02
  -6.955362e+01  -2.373798e+02
   2.179255e+02  -2.111809e+02
   2.267879e+02  -2.471701e+01
   5.248735e+01   9.923744e+01
  -6.146121e+01   1.316562e+02
  -2.620101e+01   5.138819e+01
   2.066687e+00  -1.804594e+01
   8.094013e+01  -3.798978e+01
   2.124461e+00  -2.588819e+01
  -3.662206e+01   1.318580e+01
  -5.452734e+01  -8.265554e+01
   2.246486e+01  -1.213573e+02
   1.147182e+02  -2.060112e+02
   2.241213e+02  -8.962235e+01
   2.129045e+02   1.383879e+02
   7.185878e+01   2.602611e+02
  -9.494281e+01   1.360009e+02
  -1.574351e+02   9.405941e+01
  -9.173385e+01  -3.076126e+01
  -7.472333e+00  -4.875004e+01
  -6.210878e+01   7.656236e+00
  -5.439119e+01  -4.694172e+01
  -2.068698e+01  -6.948831e+01
   3.231944e+01  -9.843799e+01
   9.977180e+01  -5.334139e+01
   1.318961e+02   3.172668e+01
   1.052358e+00   1.027462e+02
  -1.472393e+02   1.260181e+02
  -1.807357e+02  -5.153408e+01
  -9.172394e+01  -2.218573e+02
   1.461580e+02  -2.021033e+02
   3.340905e+02  -1.118128e+02
   2.524484e+02   9.414678e+01
   1.426369e+02   1.797259e+02
   5.010822e+00   1.859024e+02
  -1.121115e+02   8.622837e+01
  -5.689859e+01   6.825837e+01
  -9.846811e+01   8.392603e+01
  -1.064182e+02   7.823480e+01
  -1.459547e+02   9.007857e+00
  -1.061509e+02  -1.606883e+02
  -3.714630e+01  -2.277450e+02
   8.275134e+01  -2.101730e+02
   1.857232e+02  -3.761247e+01
   1.906724e+02   1.159836e+02
   4.829864e+01   1.512257e+02
  -9.341301e+01   1.303938e+02
  -1.206148e+02  -5.496701e-01
  -2.878852e+01  -4.650752e+01
  -2.120081e+01  -8.457297e+01
  -3.463724e+01  -2.563241e+01
  -8.134257e+01  -4.809047e+01
  -4.240546e+01   2.588162e+00
   1.358995e+01  -7.418503e+01
   1.700390e+02  -3.577029e+00
   2.005169e+02   5.031018e+01
   1.814992e+01   8.572043e+01
  -1.105592e+02   9.650901e+01
  -1.126634e+02   4.331259e+01
  -8.598465e+01  -9.452478e+01
   1.008079e+02  -6.227046e+01
   6.298128e+01  -4.695338e+01
  -1.414066e+01   9.889271e+01
  -5.482271e-01   3.449444e+01
  -1.110234e+01  -1.034260e+01
  -8.009465e+01  -3.733120e+01
  -8.026742e+00  -7.226641e+01
  -4.123742e+01  -3.335594e+00
  -4.400728e+01  -3.391374e+01
  -8.543672e+01  -8.220493e+01
  -5.182800e+00  -1.405253e+02
   1.262325e+02  -1.440309e+02
   1.100455e+02  -3.180143e+01
   6.840540e+01   8.559132e+01
   3.095247e+01   9.803663e+01
  -8.421354e+01   6.825136e+01
  -7.363376e+01  -8.149385e+00
   5.591523e+01  -2.381603e+00
   1.702221e+02   2.071962e+01
   1.157980e+02   2.116868e+02
  -8.154788e+01   9.599138e+01
  -2.497659e+02   6.239449e+01
  -1.488745e+02  -4.838627e+01
  -4.577593e+01  -8.547404e+01
   3.262517e+01  -1.233488e+02
   1.112823e+01  -2.139597e-01
  -9.409454e-02   6.466402e+00
  -8.622390e+01  -1.485684e+01
  -3.246759e+01  -1.407209e+02
   7.408824e+01  -1.555687e+02
   1.666209e+02  -5.209609e+01
   5.633344e+01   9.129014e+01
   2.826476e+01   2.067515e+02
  -6.799725e+01   1.854028e+02
  -7.137017e+01  -5.849803e+00
  -5.907663e+01  -9.945824e+01
  -1.067583e+01  -7.099689e+01
   9.082564e+01  -2.146401e+01
   1.853701e+01  -2.858712e+01
   2.456820e+00   3.058773e+01
  -6.692652e+01  -2.975663e+00
   2.999280e+01   1.845318e+01
   6.940210e+01   1.044706e+02
   2.660072e+01   8.406820e+01
  -9.526372e+01   1.056086e+02
  -1.255462e+02  -6.198162e+01
  -1.671039e+02  -6.590174e+01
   1.062436e+01  -4.511400e+01
   1.326375e+02   2.077787e+01
   3.473867e+01   2.133730e+01
   4.321478e+01   4.102014e+01
  -1.740512e+01   6.190563e+01
  -7.409415e+00   3.169396e+01
  -2.122735e+01   1.599427e+01
  -8.285001e+00   3.984057e+00
  -7.238895e+01  -2.666797e+01
  -7.824292e+01  -1.707550e+01
   4.514706e+01  -1.085080e+02
   1.712712e+02  -9.402499e+01
   1.767901e+02  -1.024766e+02
   1.111774e+02   8.501550e+01
   5.128531e+01   1.511411e+02
  -4.510004e+01   2.067796e+02
  -1.419829e+02   3.637680e+01
  -5.576320e+01  -3.816326e+01
  -2.832186e+01  -1.201209e+01
   4.323375e+01  -3.337209e+01
   7.528621e+00  -1.071138e+01
  -4.016876e+01  -2.324410e+01
  -9.485415e-01  -5.948616e+01
   7.255405e+00  -2.562515e+01
   1.045014e+02   5.830884e+01
   8.939709e+01   1.285257e+02
   4.470280e+00   1.167376e+02
  -4.495852e+01   1.782629e+01
  -1.342591e+02  -8.679186e+01
  -6.304383e+01  -7.892274e+01
   9.506022e+01  -6.543003e+01
   7.544241e+01   3.919459e+01
   4.112084e+01  -1.924554e+01
  -3.213950e+01   6.475557e+01
  -2.978881e+01   4.108050e+00
   5.524052e+01  -2.319525e+01
   1.275197e+02  -2.888962e+01
  -1.499531e+01   5.644710e+01
  -7.871666e+01   7.599273e+01
  -9.767185e+01   7.928794e+01
  -1.552163e+01   1.368925e+01
   1.052021e+00  -7.802318e+01
   6.489852e+01  -8.578061e+01
   6.484647e+01   3.266659e+01
  -1.725349e+01   5.045392e+01
  -8.130008e+01   8.352215e+01
  -4.091815e+01  -7.843558e+01
  -8.055753e+01  -2.898897e+01
  -3.377978e+01  -3.818243e+01
  -1.068169e+01   4.848248e+01
   4.839492e+01   6.867503e+01
   2.155547e+01  -2.411150e+01
  -1.492506e+01  -1.065992e+01
  -1.825536e+01   3.791805e+01
   5.268242e+00   5.326475e+01
   3.480019e+01   7.316441e+01
  -1.948982e+01  -3.206481e+01
   4.992018e+01  -6.815323e+01
  -1.791655e+01  -7.271524e+01
   7.029825e+01  -1.205625e+01
   4.703162e+01   4.708165e+01
   9.973291e+01   6.713918e+01
  -5.443979e+01   3.546522e+01
  -1.013036e+02  -5.620904e+01
  -1.661556e+01  -3.425343e+01
   9.544006e+01  -2.406647e+01
   4.487703e+01  -1.041751e+01
   1.201464e+01  -2.524066e+01
  -4.978390e+01  -2.993232e+01
  -5.154653e+01  -9.129302e+01
   4.472501e+01  -2.562647e+01
   9.519027e+01  -3.850541e+01
