
 $NMID
 id='ANONYMOUS ', fmtdat='(2E16.6)'
 volume=1.0
 tramp=1.0
 $END
   4.570729e+03   1.706008e+02
   2.558370e+03   2.867139e+03
  -9.347790e+02   2.852984e+03
  -2.305775e+03   7.296456e+02
  -8.980775e+02  -8.594106e+02
   8.497005e+02  -5.450288e+02
   9.399523e+02   5.209689e+02
  -6.426443e+01   1.171506e+03
  -9.589729e+02   7.966096e+02
  -9.932359e+02  -1.739318e+02
  -4.196840e+02  -9.525510e+02
   3.502255e+02  -9.026713e+02
   7.244896e+02  -1.077441e+02
   3.736965e+02   7.646725e+02
  -3.655196e+02   7.750523e+02
  -6.752855e+02  -4.733930e+01
  -2.653123e+02  -7.102633e+02
   4.043535e+02  -6.713446e+02
   6.030843e+02  -7.108982e+00
   3.767997e+02   4.054554e+02
  -2.995868e+01   4.566292e+02
  -2.706570e+02   2.530647e+02
  -1.843412e+02   6.143527e+00
   1.654094e+02  -1.330755e+02
   4.476944e+02   9.764928e+01
   2.190230e+02   4.175056e+02
  -4.650105e+02   4.812631e+02
  -9.033345e+02  -7.184451e+01
  -4.292290e+02  -6.555461e+02
   3.991485e+02  -4.911395e+02
   8.198061e+02   8.632461e+01
   3.732346e+02   5.667821e+02
  -3.135826e+02   5.848323e+02
  -5.903569e+02   2.232247e+02
  -4.674556e+02  -3.157882e+02
  -4.981578e+01  -5.225604e+02
   2.027827e+02  -3.301943e+02
   1.845608e+02   2.783517e+02
  -1.707220e+02   5.288548e+02
  -5.098087e+02  -5.002277e+01
  -2.457827e+02  -6.989547e+02
   3.750938e+02  -7.629458e+02
   6.095364e+02   4.437541e+01
   2.841115e+02   5.873194e+02
  -3.580375e+02   3.458055e+02
  -4.256937e+02  -3.411528e+02
   9.895112e+01  -6.075778e+02
   6.136644e+02  -1.525269e+02
   5.979001e+02   4.041711e+02
   1.058615e+02   6.152753e+02
  -3.749652e+02   3.317423e+02
  -6.432503e+02  -1.209359e+02
  -3.589984e+02  -4.331426e+02
   1.715981e+02  -3.656640e+02
   4.817017e+02  -3.307685e+01
   2.791751e+02   2.389155e+02
  -1.510733e+02   1.068917e+02
  -1.735968e+02  -1.956419e+02
   1.450015e+02  -2.314972e+02
   4.023345e+02   8.537343e+00
   1.751494e+02   3.227912e+02
  -2.446529e+02   2.869773e+02
  -3.197536e+02   3.787404e+01
  -1.683995e+02  -1.059965e+02
  -6.568880e+00  -2.762630e+02
   1.844888e+02  -3.419904e+02
   3.051469e+02  -2.376132e+02
   3.256784e+02   1.274300e+02
   6.225225e+01   4.440151e+02
  -9.075369e+01   4.365175e+02
  -1.783002e+02   9.921816e+01
  -8.075807e+01  -2.481256e+01
  -4.355823e+01   4.859873e+01
  -1.737426e+02   1.708786e+02
  -2.257249e+02  -1.063175e+02
  -2.133934e+02  -2.720897e+02
   1.105385e+02  -2.865649e+02
   2.206334e+02  -2.892069e+01
   2.066515e+02   2.593044e+02
  -5.668077e+01   3.178409e+02
  -3.396321e+02   1.443871e+02
  -3.899766e+02  -1.490000e+02
  -1.033574e+02  -3.724822e+02
   1.343562e+02  -3.162170e+02
   2.322695e+02  -1.441507e+02
   1.257193e+02   1.433910e+01
   1.049614e+02  -3.660370e+01
   2.161746e+02  -7.438519e+01
   3.806155e+02   5.976598e+01
   2.975489e+02   3.333651e+02
   5.766383e+00   4.275146e+02
  -3.433234e+02   4.029862e+02
  -4.722307e+02   2.975557e+02
  -3.375177e+02  -1.709473e+02
  -7.950963e+01  -3.694030e+02
   1.405044e+02  -2.578493e+02
   6.027474e+01   8.773042e+00
  -8.640618e+01   1.641312e+02
  -1.765029e+02   5.480684e+01
  -6.197302e+01  -2.307581e+02
   1.511157e+02  -1.877948e+02
   2.400075e+02   6.039276e+01
   3.671686e+00   1.990772e+02
  -1.979417e+02   1.312360e+01
  -1.128406e+02  -2.294121e+02
   2.160448e+01  -3.412132e+02
   2.343856e+02  -1.948899e+02
   3.266629e+02   4.086130e+01
   2.663819e+02   2.436670e+02
   8.717194e+01   2.660051e+02
  -7.777636e+01   1.085655e+02
  -1.931632e+02   4.021116e+01
  -1.558106e+02  -2.523058e+01
   1.323647e+02   3.903833e+01
   7.310409e+01   9.963935e+01
  -9.741919e+01   1.784573e+02
  -1.858527e+02  -2.007805e+01
  -4.814307e+01  -9.037155e+01
   8.365192e+01   5.233471e+00
   7.432410e+01   6.248057e+01
  -1.010493e+02   3.824189e+01
  -2.605829e+02   1.341810e+01
  -2.570413e+02  -1.272610e+02
  -2.101324e+01  -2.512951e+02
   1.723960e+02  -2.756546e+02
   2.953583e+02  -1.631754e+02
   1.833890e+02   5.635562e+01
   7.952066e-01   1.394810e+02
  -6.240413e+01  -2.201126e+01
   1.344535e+01  -1.062180e+02
   1.615906e+02  -5.197401e+01
   1.985326e+02   1.381204e+02
   1.048640e+02   2.652198e+02
  -9.145345e+01   1.053371e+02
  -1.592470e+02   2.657523e+01
  -3.588129e+01  -4.916162e+01
   2.586892e+01  -4.943897e+01
   8.869295e+01   8.357057e+01
  -6.566751e+01   1.107330e+02
  -2.294269e+02   7.631368e+01
  -2.275048e+02  -1.365260e+02
  -4.892528e+01  -2.210169e+02
   1.524431e+02  -1.657700e+02
   2.000248e+02   1.685898e+01
   7.913710e+01   7.318592e+01
  -7.283609e+01   1.379736e+02
  -9.438304e+01   8.543466e+01
  -6.137180e+01  -7.757002e+01
  -1.311395e+01  -2.610613e+01
  -1.397183e+01   8.523300e+00
  -6.767141e+01   1.151763e+01
  -1.033420e+02  -9.032518e+01
  -4.578944e+01  -1.300645e+02
   1.138169e+02  -1.643539e+02
   2.756556e+02  -4.529352e+01
   2.155075e+02   1.858168e+02
   7.671582e+01   2.867635e+02
  -1.087254e+02   1.487350e+02
  -1.737021e+02  -1.365137e+01
  -1.055579e+02  -2.379366e+01
   2.313479e+00  -5.084948e+01
  -8.889273e+01   2.331334e+01
  -1.091909e+02   3.964313e+01
  -7.257807e+01  -3.949819e+01
   3.881124e+01  -4.295542e+01
   6.376859e+01  -5.163704e+01
   4.788880e+01   5.454658e+01
   4.951462e+01   1.193943e+02
  -1.666435e+02   5.997221e+01
  -1.632947e+02  -3.113606e+01
  -1.296303e+02  -2.229308e+02
   1.022089e+02  -2.199884e+02
   2.591108e+02  -6.506826e+01
   2.561924e+02   1.036767e+02
   1.330109e+02   1.885073e+02
  -6.505175e+01   1.686713e+02
  -1.462945e+02   7.720312e+01
  -6.886467e+01   9.251478e+01
  -3.034907e+01   1.501938e+02
  -8.543090e+01   1.253190e+02
  -1.521925e+02   5.853077e+00
  -1.033999e+02  -1.773115e+02
  -7.573612e+01  -2.388821e+02
   1.491388e+02  -2.431166e+02
   2.210113e+02   1.789674e+00
   1.799512e+02   1.345239e+02
   2.602118e+00   1.946761e+02
  -7.280042e+01   1.271253e+02
  -9.451668e+01  -2.352038e+01
  -3.791459e+01  -4.583709e+01
  -4.940776e+00   4.455582e+01
  -3.625302e+01  -6.404820e+00
  -1.364637e+02  -4.119311e+01
  -8.142985e+01  -3.517526e+01
   6.249554e+01  -5.132082e+01
   1.427686e+02  -3.019442e+01
   1.713263e+02   2.767464e+01
   1.009335e+01   9.676786e+01
  -8.165927e+01   6.506037e+01
  -1.336444e+02  -1.950487e+01
  -1.058757e+02  -7.262674e+01
   8.806797e+01  -4.166087e+01
   1.166757e+02   2.921704e+01
   1.347614e+00   7.224526e+01
  -9.322831e+01   4.770272e+01
  -4.410254e+01  -2.874959e+01
  -3.528494e+01  -8.816422e+00
  -2.474563e+01  -1.136060e+02
  -8.728561e+01  -2.008675e+01
  -9.217645e+01  -4.145274e+01
  -4.863621e+01  -8.059667e+01
   7.288066e+01  -1.536199e+02
   1.276051e+02  -1.205874e+02
   1.205473e+02  -2.204674e+01
   1.474676e+02   8.344088e+01
  -3.056538e+01   1.460041e+02
  -5.704907e+01   6.707683e+01
   4.768183e-01  -4.007070e+01
   4.853109e+01  -3.219546e+01
   1.700686e+02   4.080114e+01
   6.096207e+01   1.151907e+02
  -5.177892e+01   1.285071e+02
  -2.149317e+02   1.363064e+02
  -1.301438e+02  -1.043143e+01
  -4.912242e+01  -6.038230e+01
   5.108925e+01  -8.562996e+01
   6.139933e+01  -3.106581e+01
  -4.253767e+01   2.858131e+01
  -1.400406e+02  -8.564636e+01
  -2.675493e+01  -1.236879e+02
   1.482332e+02  -1.679958e+02
   1.523309e+02  -8.354190e+01
   1.781245e+02   1.442174e+02
  -1.404524e+01   1.984299e+02
  -1.196634e+02   1.229695e+02
  -1.062957e+02   2.170876e+00
  -8.956557e+00  -1.332905e+02
   5.185568e+01  -7.311902e+01
   7.945153e+01  -3.484407e+01
   2.101111e+01   2.168605e+01
   3.171738e+01   1.478874e+01
  -2.075827e+01  -3.266114e+01
   9.804183e+00   2.547956e+01
   4.621551e+01   8.604391e+01
  -1.123635e+00   3.848015e+01
  -4.151660e+01   2.715044e+01
  -1.669892e+02  -4.614185e+01
  -1.446630e+02  -1.185462e+02
   2.469014e+01  -5.096976e+01
   6.719545e+01  -1.512013e+01
   3.401858e+01  -3.194549e+01
   1.142622e+01   5.188504e+01
  -2.752458e+01   3.549045e+01
  -2.621327e+01  -2.022167e+01
   1.342981e+01   2.630549e+01
   1.253761e+01   3.247116e+01
   2.179913e+01   8.310834e+00
  -1.230942e+02   7.026630e-01
   3.285111e+01  -4.450071e+01
   1.459953e+02  -9.849800e+01
   1.783484e+02  -8.477159e+01
   6.705819e+01   6.830661e+01
   7.585145e+01   1.734501e+02
  -7.705138e+01   1.124027e+02
  -1.647634e+02   2.569736e+00
  -4.720520e+01  -2.899633e+01
  -5.575379e+01   1.083272e+01
  -6.458896e+01  -3.908501e+01
   1.647105e+00  -8.165202e+00
  -5.991921e+01  -5.269987e+01
  -1.308551e+01  -9.420532e+01
  -3.945306e+01  -5.248949e+01
   9.657927e+01   2.822260e+01
   5.185109e+01   6.284251e+01
   1.540082e+01   7.017292e+01
  -9.897875e+01   2.623851e+01
  -1.073789e+02  -1.005022e+02
  -3.235406e+01  -9.418895e+01
   6.593772e+00  -4.531877e+01
   8.518814e+01   1.155090e+01
   4.777281e+01   5.896197e+01
  -6.953792e+01   6.146792e+01
   1.648154e-01  -4.649863e+00
  -1.320831e+00   9.658381e+00
   1.175616e+02   6.036613e+00
   6.871031e-01   7.369094e+00
  -7.848497e+01   2.984777e+01
  -1.159966e+02   7.380047e+01
  -8.129302e+01  -3.550844e+01
  -8.845636e+00  -1.319154e+02
   6.938912e+01  -1.076929e+02
  -2.461206e+01  -4.993976e+01
  -3.232642e+01   6.194332e+01
   1.596103e+01   3.136055e+01
  -2.679815e+01  -1.962150e+01
  -9.985194e+00  -5.138274e+01
   4.841806e+01  -1.725493e+01
   4.972462e+01   3.034965e+00
   6.902612e+01   3.413890e+01
   3.821642e+01  -1.610426e+01
   4.290951e+01  -4.541799e+00
  -1.699233e+01   1.129736e+01
  -2.678678e+01  -4.365132e+01
  -4.094236e+01   4.783936e+01
  -3.573948e+01   2.840514e+00
  -1.997071e+01  -5.710088e+01
   4.226141e+01  -1.254528e+02
   5.474265e+01   3.423286e+00
   4.665258e+01   4.793208e+01
   2.972043e-01   5.695812e+01
  -9.105532e+01   6.088196e+01
  -1.171901e+02  -1.097023e+01
  -5.187699e+01  -1.844184e+01
   7.434994e+01  -4.287723e+01
   1.195576e+02  -4.116982e+01
   5.546804e+01   3.647883e+01
   9.726820e+00  -2.980653e+01
  -3.592640e+01  -4.114286e+01
   2.533423e+01   2.478779e+01
   9.436937e+01   5.862981e+01
