
 $NMID
 id='ANONYMOUS ', fmtdat='(2E16.6)'
 volume=1.0
 tramp=1.0
 $END
  -4.588469e+03   8.749047e+01
  -2.772925e+03  -2.680284e+03
   7.349085e+02  -2.991419e+03
   2.274683e+03  -8.629237e+02
   9.661670e+02   7.286718e+02
  -6.739008e+02   6.589349e+02
  -9.245453e+02  -4.255271e+02
   1.863729e+01  -1.120226e+03
   9.274742e+02  -7.988721e+02
   1.021309e+03   5.823494e+01
   5.047924e+02   8.837092e+02
  -2.622209e+02   9.097557e+02
  -6.987951e+02   1.348232e+02
  -4.821310e+02  -7.612861e+02
   3.009069e+02  -7.783167e+02
   6.492532e+02  -4.435553e+01
   3.076585e+02   6.597755e+02
  -2.835591e+02   6.577273e+02
  -6.028699e+02   1.341021e+02
  -3.911165e+02  -3.803603e+02
  -1.548581e+00  -4.153513e+02
   2.586061e+02  -2.101627e+02
   2.267093e+02  -2.649246e+01
  -1.516768e+02   7.155951e+01
  -3.848443e+02  -1.290031e+02
  -2.155436e+02  -4.104088e+02
   4.283382e+02  -3.756823e+02
   8.889437e+02   8.630275e+01
   5.165613e+02   5.658884e+02
  -4.603695e+02   5.056291e+02
  -7.660339e+02  -5.533144e+01
  -3.535354e+02  -4.301043e+02
   2.376388e+02  -5.281307e+02
   5.432497e+02  -2.124695e+02
   4.521084e+02   2.353922e+02
   9.967783e+01   4.915192e+02
  -2.150631e+02   2.525262e+02
  -2.207509e+02  -2.484786e+02
   1.932875e+02  -4.280155e+02
   4.332408e+02   1.951184e+01
   2.841192e+02   7.157558e+02
  -3.197802e+02   7.411909e+02
  -6.490568e+02  -4.091321e+00
  -3.028771e+02  -5.731258e+02
   2.887922e+02  -3.981336e+02
   4.444197e+02   3.228219e+02
  -3.506649e+01   5.704677e+02
  -5.954091e+02   1.202550e+02
  -6.424830e+02  -4.396442e+02
  -1.795628e+02  -5.969338e+02
   3.975265e+02  -3.509588e+02
   6.702669e+02   4.071197e+01
   4.096078e+02   3.279295e+02
  -9.308672e+01   3.945867e+02
  -4.611361e+02   1.064477e+02
  -3.125871e+02  -2.371100e+02
   1.059451e+02  -9.372301e+01
   1.585942e+02   1.930530e+02
  -1.652446e+02   1.551373e+02
  -3.359794e+02  -5.606597e+01
  -1.592783e+02  -3.400260e+02
   1.576335e+02  -3.086306e+02
   3.265789e+02  -8.958008e+01
   1.717898e+02   8.042650e+01
  -3.148689e+01   2.483978e+02
  -1.694999e+02   3.507677e+02
  -3.621474e+02   2.097102e+02
  -2.939708e+02  -1.369876e+02
  -8.907260e+01  -4.002859e+02
   1.283632e+02  -4.007192e+02
   1.124705e+02  -9.329064e+01
   4.921505e+01   1.469415e+01
  -1.409350e+01  -7.184714e+01
   2.204521e+02  -1.435000e+02
   3.055343e+02   7.319749e+01
   1.514310e+02   2.764711e+02
  -7.385704e+01   3.314250e+02
  -2.506446e+02  -1.901714e+01
  -1.958602e+02  -3.007333e+02
  -1.801044e+01  -3.145746e+02
   2.550984e+02  -1.134821e+02
   3.724590e+02   1.717204e+02
   1.812964e+02   3.273985e+02
  -1.177969e+02   2.881147e+02
  -2.164987e+02   1.599696e+02
  -1.731457e+02  -2.051807e+01
  -1.136503e+02   8.052129e+00
  -2.316045e+02   2.276826e+01
  -4.124556e+02  -7.839046e+01
  -3.165161e+02  -2.887697e+02
   2.421628e+01  -4.156956e+02
   3.328337e+02  -4.680797e+02
   5.253307e+02  -2.108461e+02
   3.794043e+02   5.258113e+01
   4.107462e+01   3.144714e+02
  -6.938885e+01   2.750049e+02
  -3.672421e+01   1.256157e+01
   7.836031e+01  -4.660282e+01
   1.906652e+02  -1.775288e+01
   2.783750e+00   1.910759e+02
  -1.478816e+02   2.130566e+02
  -2.224966e+02  -4.664374e+01
   1.695552e+01  -2.102306e+02
   1.463736e+02  -5.699180e+01
   2.015995e+02   1.938999e+02
  -1.415662e+00   3.337878e+02
  -2.305409e+02   1.638479e+02
  -3.049133e+02  -6.478737e+01
  -2.630903e+02  -2.453599e+02
  -1.141195e+02  -2.776896e+02
   8.568703e+01  -1.989492e+02
   1.564517e+02  -3.252705e+01
   7.399080e+01   5.729991e+01
  -3.283181e+01  -6.974878e+01
   4.113887e+00  -9.250891e+01
   1.003234e+02  -7.218022e+01
   2.035498e+02  -1.635048e+01
   1.223211e+02   7.076658e+01
  -2.679155e+01  -3.509427e+01
  -1.889742e+01  -4.786825e+01
   1.156577e+02  -8.681788e+01
   2.861344e+02   3.021025e+00
   2.864619e+02   1.579001e+02
   4.902600e+01   2.236519e+02
  -1.681763e+02   2.597024e+02
  -3.124677e+02   1.576394e+02
  -2.438876e+02  -2.020960e+01
  -1.653218e+01  -1.389476e+02
   1.186715e+02  -9.353105e+00
  -7.041700e+01   6.434193e+01
  -1.898211e+02   9.112356e+01
  -2.591443e+02  -7.928679e+01
  -4.688243e+01  -2.243373e+02
   9.674010e+01  -1.804528e+02
   1.586678e+02   5.474823e+00
   7.783118e+01   4.448818e+01
  -8.759064e+00  -1.259317e+01
  -6.240440e+01  -6.435511e+01
   5.713111e+01  -9.234894e+01
   2.746885e+02  -7.314767e-01
   1.744692e+02   1.067935e+02
   6.663960e+01   2.034644e+02
  -1.380413e+02   1.790077e+02
  -1.735670e+02   8.900585e+00
  -5.450482e+01  -1.143675e+02
   6.291140e+01  -9.343937e+01
   8.139288e+01  -1.531247e+01
  -1.617024e+01   8.857618e+01
  -2.656959e+01   1.083793e+01
   2.148374e+01  -1.346770e+01
   5.225367e+01  -3.811824e+01
   7.143588e+01   6.765562e+01
  -1.006671e+01   1.451268e+02
  -1.330853e+02   9.771391e+01
  -2.164326e+02   1.869478e+01
  -2.200063e+02  -1.612139e+02
  -3.191171e+01  -1.766221e+02
   7.948267e+01  -1.772334e+02
   1.242920e+02  -3.261378e+01
   8.502455e+01   7.735620e+01
   1.479164e+01   4.549249e+01
   3.076874e+01   5.370044e+00
   9.185683e+01   2.426121e+01
   1.083356e+02   1.826736e+01
   1.173991e+00   8.057190e+01
  -9.287419e+01   1.517198e+01
  -1.025116e+02  -3.196209e+01
   4.312590e+01  -1.320684e+02
   1.178624e+02  -8.924613e+01
   2.008352e+02  -2.488422e+01
   1.135341e+02   1.946691e+02
  -1.487327e+02   1.685340e+02
  -2.858600e+02   1.300763e+02
  -2.664081e+02  -4.875707e+01
  -9.318217e+01  -1.952005e+02
   2.439945e+01  -1.677231e+02
   8.060087e+01  -7.120003e+01
   5.589956e+01  -6.539775e+01
   4.198391e+01  -3.772817e+01
   6.990223e+01  -7.969909e+01
   1.268269e+02   7.812370e+01
   1.451181e+02   1.301648e+02
   3.702791e+01   2.085320e+02
  -9.873094e+01   1.582710e+02
  -1.670202e+02   1.472820e+01
  -1.188678e+02  -1.054001e+02
  -1.887886e+01  -1.702036e+02
   7.386761e+01  -9.606308e+01
   8.482271e+01  -6.099789e+01
   2.751050e+01   3.062444e+01
  -8.570431e+00   2.804232e+01
   1.353920e+01  -4.435422e+00
   8.006139e+01   3.377478e+01
   1.869232e+01   2.245737e+01
  -7.245171e+01   2.651758e+01
  -1.423609e+02   2.864100e+01
  -1.073952e+02  -3.755590e+01
  -4.413458e+00  -7.657673e+01
   1.187844e+02  -6.105306e+01
   1.222154e+02  -1.358621e+01
   2.644160e+01   2.494551e+01
  -1.585683e+01   4.373444e+01
  -9.139900e+01  -1.117000e+01
   4.343714e+01  -2.385660e+01
   7.800693e+01  -1.019328e+02
   8.416872e+01  -6.287638e+01
   1.055018e+02   3.424762e+01
   8.478287e+01  -4.672115e+00
   9.150799e+01   1.087842e+01
   5.981024e+01   5.589178e-01
   6.371508e+01   6.386825e+01
  -3.322885e+01   1.536628e+02
  -8.703669e+01   1.677212e+02
  -1.483112e+02   3.951722e+01
  -1.367650e+02  -1.058618e+02
  -5.567372e+01  -1.164033e+02
   7.626366e+01  -5.312430e+01
   6.458469e+01   6.476413e+01
  -6.723431e+01   2.976962e+01
  -1.402806e+02  -2.143327e+01
  -6.636768e+01  -1.387734e+02
   8.835355e+01  -1.580769e+02
   1.984397e+02  -5.389406e+01
   1.832824e+02   2.987623e+01
  -2.104609e+01   9.244315e+01
  -3.661283e+01   7.130714e+01
  -4.068835e+01   6.943934e+01
  -2.858738e+01  -1.015388e+01
   8.374129e+01   2.096848e+01
   6.240619e+01   7.165061e+01
  -4.613621e+01   1.682375e+02
  -2.203178e+02   7.377155e+01
  -8.366972e+01  -1.344923e+02
  -6.000431e+01  -2.013493e+02
   9.760837e+01  -1.681462e+02
   7.740628e+01  -1.713960e+01
   1.316833e+02   3.272554e+01
   1.753660e+01   9.824031e+01
  -3.501574e+01   6.025517e+01
  -7.453224e+01  -1.911864e+00
  -1.996727e+01   2.464659e+01
   4.843342e+01   7.215962e+01
  -5.379015e+00  -4.176665e+00
  -5.592740e+01  -9.626877e+01
  -6.331971e+01  -1.327994e+02
   4.216579e+01  -4.541598e+01
   1.682434e+02   1.540193e+01
   1.423084e+02   1.355098e+02
   5.116435e+01   4.247150e+01
  -5.873119e+01   4.011971e+00
  -1.011729e+02   4.462740e+01
  -2.655439e+01  -7.384409e+01
  -4.869077e+00  -1.003748e+01
   5.880340e+01  -7.173265e+00
  -4.370875e+01   1.864802e-01
   2.888731e+01   1.026984e+01
   2.995504e+01   3.041213e+01
   4.214661e+01   2.194013e+01
  -6.452495e+01   9.084091e+01
  -9.047451e+01   1.223654e+02
  -1.778960e+02   7.303140e+01
  -1.494910e+02  -7.545451e+01
   1.806352e+01  -1.543313e+02
   1.002291e+02  -1.491083e+02
   1.350241e+02  -5.021985e+01
   1.005637e+02   3.439195e+01
  -8.669465e+00   8.579985e+01
   3.722172e+01   2.291310e+01
   1.988690e+01  -4.828417e+00
   1.555224e+01   3.527586e+01
   3.367233e+01   1.650022e+02
  -3.104613e+01   6.562482e+01
  -5.998180e+01  -2.440419e+01
  -8.438018e+01  -1.323294e+02
   1.328994e+01  -1.599880e+02
   1.153881e+02  -7.870154e+01
   9.413429e+01   5.872805e+01
   5.247217e+01   9.019967e+01
  -8.489060e+01   6.867310e+01
  -4.300500e+01   1.946083e+01
  -3.143749e+01  -8.424486e+01
   2.895618e+01  -5.476763e+01
   7.233573e+01  -1.723036e+01
  -3.535112e+01   3.421958e+01
  -3.739498e+01  -1.951988e+01
   3.877298e+01  -2.230180e+01
   4.907340e+01  -3.165904e+01
   1.034608e+02  -5.420488e+01
   8.031417e+01  -1.366527e+01
   5.906868e+01   9.949123e+01
  -1.177973e+02   1.234176e+02
  -6.345665e+01   6.715963e+00
   3.573192e+01  -2.841975e+01
  -1.768369e+01  -5.497882e+01
  -8.123458e+00   4.573523e+01
   1.689001e+01   5.920597e+01
  -2.573984e+01   8.999883e+01
  -1.647815e+01  -1.818424e+01
   4.833827e+00   1.321906e+01
  -5.291301e+01  -3.074444e+01
  -3.613647e+01   6.414706e+00
   3.683424e+01  -1.532742e+01
   2.317119e+01  -7.268398e+01
   1.222627e+01  -4.449964e+01
   7.616926e+01   1.529563e+01
   6.905320e+01   3.330444e+01
   1.526864e+01  -4.331754e+00
  -4.163090e+01   3.729240e+01
  -1.334305e+01  -9.288538e+00
   2.827526e+01  -4.626689e+01
   2.970253e+01  -4.706687e+01
   7.516709e+01   4.685419e+01
   5.156758e+01   2.470010e+01
  -7.100379e+01   6.069342e+01
  -5.153753e+01   4.938512e+01
  -2.908553e+01  -3.957262e+01
   2.464234e+01   1.503645e+01
   3.848899e+01  -3.982607e+01
  -3.650607e+01   5.352989e+01
  -6.565178e+01  -1.116019e+01
