
 $NMID
 id='ANONYMOUS ', fmtdat='(2E16.6)'
 volume=1.0
 tramp=1.0
 $END
  -2.821292e+03   3.937122e+01
  -1.682253e+03  -1.647586e+03
   5.071919e+02  -1.809126e+03
   1.341106e+03  -5.535517e+02
   6.436584e+02   5.503490e+02
  -4.900363e+02   4.475465e+02
  -5.938492e+02  -3.053644e+02
  -3.927448e+01  -7.228614e+02
   5.417646e+02  -5.224763e+02
   6.402363e+02   6.609676e+01
   3.525126e+02   5.705546e+02
  -1.432890e+02   5.936007e+02
  -4.286940e+02   5.248401e+01
  -2.447604e+02  -4.530754e+02
   1.428831e+02  -4.030566e+02
   3.366153e+02   2.827079e+01
   1.347224e+02   4.432315e+02
  -2.191745e+02   4.172491e+02
  -3.221457e+02   4.159592e+01
  -2.173006e+02  -2.435226e+02
  -1.751652e+01  -2.901700e+02
   1.644096e+02  -1.689696e+02
   1.237377e+02   2.752219e+00
  -9.155219e+01   1.166460e+02
  -2.345650e+02  -2.009089e+01
  -1.174063e+02  -2.659657e+02
   2.726781e+02  -2.609716e+02
   5.196478e+02   7.453209e+00
   3.211521e+02   3.943044e+02
  -2.494242e+02   3.286556e+02
  -4.839703e+02  -2.398074e+00
  -2.515128e+02  -2.728307e+02
   1.892063e+02  -4.045335e+02
   3.513012e+02  -1.534738e+02
   2.672986e+02   1.572843e+02
   2.594894e+01   3.021799e+02
  -8.464122e+01   1.725179e+02
  -1.494935e+02  -1.318255e+02
   1.186292e+02  -3.387086e+02
   3.137595e+02   3.967956e+00
   2.133460e+02   4.358982e+02
  -2.027493e+02   4.797811e+02
  -4.239054e+02   4.706690e+01
  -1.633054e+02  -3.189835e+02
   1.317333e+02  -2.660289e+02
   3.050377e+02   2.074048e+02
   2.511505e+00   3.487841e+02
  -3.530900e+02   1.029693e+02
  -3.629920e+02  -2.566646e+02
  -9.476722e+01  -3.731931e+02
   2.427704e+02  -2.646903e+02
   3.867254e+02   4.367248e+01
   2.443352e+02   2.023205e+02
  -1.057612e+02   2.847386e+02
  -3.139789e+02   9.673707e+01
  -1.853676e+02  -9.270160e+01
   4.909826e+01  -8.706479e+01
   6.540913e+01   8.942832e+01
  -1.674250e+02   1.541441e+02
  -2.380308e+02  -4.948314e+01
  -1.270732e+02  -2.261356e+02
   9.718956e+01  -1.844230e+02
   1.761616e+02  -8.502933e+01
   1.287145e+02   5.737402e+01
  -3.007645e+01   1.045094e+02
  -1.265807e+02   1.850286e+02
  -2.268743e+02   1.721059e+02
  -1.419825e+02  -5.179198e+01
  -9.633142e+00  -2.646082e+02
   5.658695e+01  -1.922235e+02
   7.261474e+01  -4.260494e+01
   1.315652e+01   6.764422e-01
  -8.543533e+00  -5.328344e+01
   1.147515e+02  -8.680384e+01
   2.154450e+02   5.988914e+01
   6.120731e+01   1.806578e+02
  -1.292465e+01   1.896534e+02
  -1.636581e+02  -2.090698e+01
  -8.138434e+01  -1.710922e+02
   5.020230e+01  -1.779428e+02
   2.070280e+02  -7.595900e+01
   2.312724e+02   6.799190e+01
   1.233364e+02   2.032804e+02
  -6.734133e+01   1.488412e+02
  -1.774902e+02   1.351093e+02
  -8.865932e+01   1.435318e+01
  -2.966209e+01   2.017097e+01
  -1.237436e+02   1.052439e+01
  -2.298893e+02  -3.590383e+01
  -2.338770e+02  -1.640008e+02
  -5.079378e+01  -2.944360e+02
   2.478202e+02  -2.544916e+02
   2.866824e+02  -8.651526e+01
   2.250360e+02   6.131688e+01
   9.882172e+00   2.071631e+02
  -4.122191e+01   1.758442e+02
  -6.005140e+01   3.316095e+01
   5.007495e+01  -7.723769e+01
   1.001146e+02  -3.640490e+01
   2.793015e+01   1.821299e+02
  -6.775547e+01   9.605297e+01
  -1.118430e+02  -4.778977e+01
   1.132310e+01  -1.009281e+02
   1.153695e+02  -4.707408e+01
   6.781152e+01   1.740009e+02
  -4.314237e+01   2.382106e+02
  -1.118638e+02   9.406174e+01
  -2.067941e+02  -5.610589e+01
  -1.865018e+02  -1.348532e+02
  -4.049635e+01  -1.979593e+02
   7.402650e+01  -1.400730e+02
   1.384115e+02  -2.298631e+01
   6.615690e+00   1.765961e+01
   2.187239e+01  -3.867379e+01
  -4.509515e+01  -1.291507e+02
   7.303249e+01  -1.016495e+02
   1.392663e+02  -2.414792e-01
   2.133918e+01   6.667180e+01
  -4.877350e+01   9.026084e+00
  -5.038263e+01  -9.219911e+00
   1.156812e+02  -2.602086e+01
   1.401111e+02  -1.222738e+01
   1.739097e+02   9.501879e+01
   8.070002e+01   1.685348e+02
  -1.303192e+02   1.636419e+02
  -2.087458e+02   1.112458e+02
  -1.343508e+02  -5.457628e+01
  -2.275344e+00  -2.048885e+01
   1.120600e+00  -5.433193e+00
  -3.492484e+01   8.196852e+01
  -1.531182e+02   3.021915e+01
  -1.623290e+02  -6.869903e+01
  -3.634211e+01  -1.621127e+02
   6.820020e+01  -8.936700e+01
   6.645550e+01  -2.974257e+01
   6.225206e+00   4.697683e+01
   2.326708e+01  -1.467411e+01
  -4.704839e+01  -5.909289e+01
   3.173812e+01  -5.312816e+01
   1.261059e+02  -1.536207e+01
   1.117662e+02   3.328204e+01
   4.491191e+01   1.331096e+02
  -6.557155e+01   1.280351e+02
  -1.512074e+02   2.271431e+01
  -3.542308e+01  -4.350191e+01
  -3.664420e+01  -7.279324e+01
   2.451837e+01  -2.975162e+01
   5.734626e+01   1.010500e+01
   7.755979e+00  -3.470586e-01
  -6.917280e+00  -1.307465e+01
   6.855314e+00  -1.384425e+01
   9.223918e+01   4.018216e+01
   6.078634e+00   1.081412e+02
  -6.394636e+01   8.951863e+01
  -1.660727e+02   6.676640e+01
  -1.223096e+02  -1.110515e+02
  -2.825104e+01  -7.008046e+01
   7.951937e+01  -8.506094e+01
   5.928991e+01  -5.006598e+01
   4.499882e+01   6.277551e+01
  -9.364749e-01   3.902715e+01
   2.009362e+01  -1.976958e+00
   1.772962e+01   6.928105e+01
   1.009460e+00   6.176009e+01
   1.534994e+01   7.987328e+01
  -8.003719e+01   2.760009e+01
   5.242970e+00  -7.783790e+01
   4.357744e+00  -5.310487e+01
   4.100840e+01  -2.809959e+01
   1.149316e+02   2.311399e+01
   1.161755e+02   7.136673e+01
  -1.731070e+01   1.966450e+02
  -1.769427e+02   5.726207e+01
  -1.622554e+02  -4.638402e+01
  -5.681640e+01  -6.374408e+01
   3.271103e+00  -1.215936e+02
   2.783267e+01  -4.107520e+01
   5.211330e+01  -1.126082e+02
   2.284108e+01  -4.458539e+01
   5.288230e+01  -4.854515e+01
   1.006906e+02  -1.849664e+01
   6.696577e+01   8.471470e+01
   3.022963e+01   1.841214e+02
  -5.546663e+01   1.074429e+02
  -1.675334e+02   4.948759e+01
  -4.667414e+01  -9.128880e+01
  -1.270845e+00  -1.296898e+02
   4.706641e+01  -2.428463e+01
   5.077908e+01  -1.750936e+01
  -1.858074e+01  -6.787892e+00
  -7.407411e+01   4.118420e+01
   5.306962e+01   2.962385e+01
   2.631560e+01   3.862079e+01
   4.668906e+01  -2.892170e+01
  -1.894545e+01   3.673207e+01
  -1.092211e+02   2.519015e+00
  -1.277364e+02  -3.441615e+01
  -4.369187e+01  -3.094658e+01
   8.788964e+01  -3.626790e+01
   9.272036e+01   3.813522e+01
   5.308104e+01   8.617835e+00
  -5.797624e+01   5.706449e+01
  -4.941729e+01  -2.402133e+01
   8.241893e+00  -2.303926e+01
   2.910591e+01  -3.321864e+01
   1.272631e+01  -2.928849e+01
   8.098166e+01   4.470042e+01
  -1.563807e+00   1.710395e+01
   3.152808e+01  -3.420632e+00
   5.402033e+01   4.842586e+01
   4.259915e+01   4.448926e+01
  -3.885433e+01   6.043603e+01
  -1.253470e+02   8.165778e+01
  -1.059430e+02   2.400936e+01
  -8.601499e+01  -9.600114e+01
   5.122229e+01  -6.746424e+01
   6.448500e+01   6.398837e+00
   6.245836e+00   2.449040e+01
  -1.220215e+01   5.204061e+01
  -6.163536e+01   1.198842e+01
  -4.867747e+01  -1.023216e+02
   1.036266e+02  -6.087330e+01
   8.647348e+01  -3.796550e+01
   1.358627e+02   3.291344e+01
  -1.238751e+01   3.617739e+01
  -2.492194e+00  -2.062780e+01
  -5.177019e+01   1.865239e+01
   8.307078e+00  -3.038770e+01
   9.491405e+01   6.122649e+01
   6.490773e+00   3.640352e+01
  -5.217650e+01   9.383322e+01
  -4.755669e+01   1.654974e+01
  -6.373929e+01  -7.940157e+01
  -2.177243e+01  -9.067790e+01
   4.310034e+01  -9.466220e+01
   2.709495e+01   1.335608e+01
   5.039634e+01   5.381313e+01
   1.848674e+01   4.919888e+01
  -6.402436e+01   1.464192e+01
   1.585242e+01  -6.694246e+01
  -9.269782e-01   4.872810e+00
  -6.932122e+00   1.607667e+01
   1.609083e+01  -3.916425e+01
  -3.890561e+01  -8.545337e+01
  -4.977472e+00  -6.235552e+01
   4.595599e+01  -2.324785e+01
   6.273969e+01  -1.986902e+01
   5.391179e+01   1.014768e+01
   8.883984e+00   6.744629e+01
  -2.698333e+01   4.052108e+01
  -5.505158e+01   2.430380e+01
   1.447049e+01   1.294067e+01
  -2.848169e+00   1.136400e-01
   9.524791e+00   1.347224e+01
  -2.027734e+01  -2.956156e+01
   1.442472e+01   3.816449e+01
   1.064779e+01  -2.909022e+01
   1.064603e+02   1.423201e+00
   1.400086e+00   7.476923e+01
  -8.867913e+01   1.123502e+02
  -1.035339e+02   5.231451e+01
  -8.995458e+01  -2.824376e+01
   1.307755e+01  -9.325115e+01
   3.636059e+00  -9.723566e+01
   9.537579e+01  -5.775720e+01
   8.622911e+01  -1.436052e+01
   3.605224e+01   1.343845e+01
   1.752380e+01   1.274419e+01
  -4.908367e+01  -3.168394e+01
  -4.016714e+01   5.619149e+01
   3.022882e+01   6.739027e+01
  -5.402888e+01   7.109795e+01
  -5.365393e+01   1.606139e+01
  -5.886264e+01  -3.595538e+01
   7.211333e-02  -8.050555e+01
   3.831782e+01   6.705625e+01
   4.992921e+01   4.002779e+01
  -3.461677e+01   1.105658e+02
  -4.149101e+01  -1.886682e+01
  -2.513306e+01   1.457340e+01
   1.673800e+01  -2.430609e+00
   1.997560e+01  -2.938902e+01
   8.324140e+01  -1.967444e-01
  -3.458947e+01  -4.391673e+00
  -3.672129e+01   1.096139e+01
   1.241203e+01  -1.255762e+01
   5.802348e+01  -7.441898e+01
   5.251148e+01  -3.238893e-01
   7.443416e+01   1.005627e+02
  -6.324579e+01   3.946279e+01
  -5.316625e+01   8.723662e+00
  -7.927552e+01  -5.155843e+00
  -2.489019e+01  -4.558506e+00
   3.881481e+01  -3.711545e+01
   2.839892e+01   1.964457e+01
  -2.610007e+00   1.327763e+01
   7.374843e-01  -3.836976e+01
  -3.138932e+01  -3.433559e+01
  -1.034077e+01  -2.238303e+00
  -6.406714e+01   5.937323e+01
   1.077226e+01   6.542848e-01
  -2.849800e+01  -1.900463e+01
  -4.948051e+00  -4.064641e+01
   7.192378e+01   1.257704e+01
   1.652069e+01  -5.034290e+01
  -1.033383e+01   4.916491e+01
   3.802669e+01   8.725201e+01
  -6.301921e+01   3.454384e+01
  -6.996991e+01  -3.520543e+01
  -4.394542e+01  -2.824175e+01
  -1.875851e+01  -1.252191e+01
   1.359428e+01  -1.757523e+01
   1.703154e+01   6.582273e+01
   8.000692e+00   3.797732e+01
  -5.741692e+01  -4.484492e+00
  -2.630845e+01   7.236915e+01
   5.246090e+01   4.447372e+01
   9.224749e+00   2.932625e-01
   2.397832e+01   3.019697e+01
  -4.911617e+01   2.030999e+01
