
 $NMID
 id='ANONYMOUS ', fmtdat='(2E16.6)'
 volume=1.0
 tramp=1.0
 $END
   2.549490e+03   9.299601e+01
   1.360035e+03   1.629627e+03
  -6.079092e+02   1.584408e+03
  -1.276931e+03   4.034602e+02
  -5.030686e+02  -5.519409e+02
   4.726619e+02  -3.841025e+02
   5.897873e+02   3.234649e+02
  -5.935582e+01   6.966014e+02
  -4.689435e+02   4.470277e+02
  -5.195439e+02  -1.271397e+02
  -2.508835e+02  -5.567089e+02
   2.066620e+02  -5.398392e+02
   4.127198e+02  -1.713984e+01
   1.296216e+02   4.558545e+02
  -1.926131e+02   3.830939e+02
  -3.617138e+02  -5.823176e+01
  -7.140378e+01  -4.002643e+02
   2.057503e+02  -3.257172e+02
   4.043576e+02  -3.256389e+01
   2.228015e+02   2.488195e+02
   7.663553e+00   3.067572e+02
  -1.435970e+02   1.080094e+02
  -1.522821e+02   5.891254e+00
   4.900169e+01  -5.924134e+01
   2.567380e+02   7.745109e+01
   6.758311e+01   2.185433e+02
  -2.443948e+02   2.561431e+02
  -4.923213e+02  -7.463934e+01
  -2.635148e+02  -3.689647e+02
   1.943546e+02  -3.442120e+02
   4.554286e+02  -5.141019e+00
   2.594774e+02   3.279253e+02
  -2.310163e+02   3.208147e+02
  -3.377648e+02   1.294981e+02
  -1.917519e+02  -1.538561e+02
  -2.407186e+01  -2.928841e+02
   1.433821e+02  -2.086275e+02
   7.869531e+01   8.351100e+01
  -9.445845e+01   2.794249e+02
  -2.711467e+02   3.084110e+01
  -1.489806e+02  -4.213749e+02
   1.829274e+02  -4.360090e+02
   3.773362e+02  -2.450821e+00
   1.955600e+02   3.469621e+02
  -1.019618e+02   2.331879e+02
  -2.193332e+02  -2.563976e+02
   4.767070e+01  -3.601710e+02
   3.237625e+02  -6.500971e+01
   3.119959e+02   2.520576e+02
   3.013315e+01   3.359220e+02
  -2.632460e+02   2.172884e+02
  -3.563673e+02  -4.406143e+01
  -1.716819e+02  -2.688257e+02
   5.124459e+01  -2.262394e+02
   2.480081e+02  -3.167717e+01
   1.029025e+02   1.386159e+02
  -6.514349e+01   6.264494e+01
  -6.056470e+01  -7.421552e+01
   1.110928e+02  -1.347667e+02
   1.814883e+02   4.381804e+01
   1.037958e+02   1.147600e+02
  -8.796406e+01   1.605380e+02
  -1.452331e+02   2.740312e+00
  -5.769447e+01  -5.709140e+01
   1.761935e+01  -1.200218e+02
   1.177337e+02  -1.895837e+02
   1.872619e+02  -1.549174e+02
   1.952597e+02   8.608863e+01
   9.264745e+00   2.043603e+02
  -5.487631e+01   1.972750e+02
  -9.439408e+01   6.670702e+01
   9.096371e+00  -3.122540e+01
   2.588984e+01   1.881760e+01
  -1.100614e+02   5.100524e+01
  -1.455600e+02  -8.397753e+01
  -1.074099e+02  -1.652146e+02
   2.140341e+01  -1.119272e+02
   9.211556e+01  -2.721008e+01
   7.437519e+01   1.204253e+02
  -1.496892e+01   1.757160e+02
  -1.458635e+02   4.439571e+01
  -2.314894e+02  -1.644325e+02
  -1.132761e+02  -2.578704e+02
   5.582032e+01  -1.846040e+02
   1.218529e+02  -2.488300e+01
   8.922999e+01  -3.385168e+01
   5.461327e+01  -4.345186e+01
   1.301550e+02  -3.515664e+01
   2.043335e+02   7.587445e+01
   1.821353e+02   1.554963e+02
  -2.881663e+00   2.293392e+02
  -1.970131e+02   2.113060e+02
  -2.763540e+02   1.358828e+02
  -1.531226e+02  -8.007751e+01
  -3.862620e+01  -1.710856e+02
   5.638610e+01  -1.618426e+02
   1.082142e+02  -3.942015e+01
  -7.397142e+01   5.144726e+01
  -1.487832e+02  -8.326344e+00
  -5.143838e+01  -8.507644e+01
   1.344350e+02  -1.373847e+02
   1.620126e+02   3.532501e+01
  -1.419100e+01   1.099094e+02
  -1.637460e+02   3.514130e+01
  -1.225062e+02  -1.672588e+02
  -2.653495e+01  -1.740469e+02
   1.243670e+02  -6.249272e+01
   1.576676e+02   4.129235e+01
   1.042278e+02   1.035722e+02
   1.656341e+01   1.547940e+02
  -2.318554e+01   9.926066e+01
  -1.145169e+02   6.269329e+00
  -2.020927e+01  -5.674985e+01
   2.008158e+01   2.868328e+01
   1.755842e+01   7.176818e+01
  -8.145243e+01   5.201192e+01
  -1.289871e+02  -1.297829e+01
  -2.726922e+01  -3.463088e+01
   4.017307e+00  -5.373390e+01
   2.767007e+01   4.021250e+01
  -6.177466e+01   1.043833e+02
  -1.321736e+02   4.264051e+01
  -1.210530e+02  -1.362979e+02
  -5.553899e+01  -8.409212e+01
   1.000820e+02  -7.644398e+01
   1.575569e+02  -1.680584e+01
   9.760428e+01   2.795685e+01
   9.315623e-01   7.347524e+01
  -6.938231e+01  -1.225392e+01
   4.451818e+00  -8.924451e+01
   1.004836e+02  -5.079416e+01
   1.286905e+02   9.242172e+01
   1.552875e+01   1.436649e+02
  -5.964370e+01   8.179763e+01
  -8.771173e+01  -2.411124e+01
  -2.569220e+01  -3.553422e+01
   6.072244e+00   1.259049e+01
   4.980230e+01  -2.886599e+01
  -6.112184e+01   4.641257e+01
  -1.118081e+02   4.984347e+01
  -9.863972e+01  -8.683963e+01
  -2.023750e+01  -1.202208e+02
   7.306262e+01  -9.605470e+01
   8.393060e+01  -2.751597e+01
   4.064716e+01   6.908912e+01
  -7.946506e+01   6.618077e+00
  -5.632419e+01   6.291624e+01
   1.058263e+01  -8.099028e+00
   3.481102e+01   1.453465e+01
   1.198361e+01  -3.382791e+01
  -7.430746e+01  -4.152832e+01
  -4.677917e+01  -3.466067e+01
   4.028479e+01  -1.342296e+02
   5.500346e+01  -1.236878e+02
   9.792814e+01  -5.951092e+01
   9.211158e+01   8.251367e+01
   2.492184e+00   1.425108e+02
  -8.920554e+01   9.256963e+01
  -9.600519e+01  -1.585124e+00
   8.060967e+00  -5.687565e+01
  -4.746366e+01  -6.156339e+01
  -2.558086e+01   2.377747e+01
  -7.634668e+01  -2.678112e+01
  -5.134844e+01  -4.912104e+01
  -1.757207e+01   2.180685e+01
   4.329519e+01  -1.034468e+01
  -1.026748e+01   3.048393e+01
   2.978762e+01   4.464643e+01
  -8.790614e+01   6.893166e+01
  -1.265472e+02  -1.976348e+01
  -4.065138e+01  -1.231773e+02
   1.466625e+01  -6.455167e+01
   1.171348e+02  -6.326834e+01
   1.455165e+02  -1.985522e+01
   1.630679e+01   1.112614e+02
  -1.069119e+02   9.676248e+01
  -1.056640e+02   4.585177e+01
  -7.748616e+01   4.982578e+01
  -3.061053e+01   6.881884e+01
  -5.756188e+01   9.324370e-02
  -4.364100e+01  -1.279816e+01
  -4.147124e+01  -9.379693e+01
   4.607386e+00  -1.466290e+02
   7.333274e+01  -6.057250e+01
   7.579315e+01   1.540509e+01
   6.420271e+01   9.539554e+01
   1.451716e+01   1.040045e+02
  -5.354179e+01   4.021827e+01
  -3.680595e+00   1.418131e+01
  -1.100660e+01  -8.322704e+00
  -1.802130e+01   2.731154e+01
  -6.543602e+01  -2.582245e+00
  -5.756730e+01  -3.355079e+01
  -3.719595e+00  -9.161290e-02
  -2.474062e+01  -1.586329e+01
   8.459559e+01  -2.450836e+01
   1.138419e+02   1.403385e+01
   3.138111e+01   1.070625e+02
  -2.729744e+01   4.319921e+01
  -8.161374e+01  -1.493133e+01
  -5.010784e+01  -1.214368e+01
   3.782834e+01  -1.453618e+01
   8.250178e+01  -2.705146e-01
   3.396812e+01   5.561023e+01
  -5.178786e+01   1.982737e+01
  -4.585184e+01   3.461636e+01
  -4.342944e+00  -3.045059e+01
  -3.973206e+00   6.699800e+00
  -6.030761e+01  -2.472975e+00
  -1.163062e+01   4.476161e+01
  -1.386270e+01  -6.737893e+01
   8.056962e+01  -1.010441e+02
   6.914421e+01  -5.725673e+01
   9.852116e+01  -1.322485e+00
   3.561247e+01   2.529631e+01
   3.412112e+01   3.523430e+01
  -6.005671e+00  -7.048420e+00
  -3.162973e+01   1.448812e+01
  -4.445514e+00  -1.670120e+01
   4.754071e+01   2.807958e+01
   1.484837e+01   1.774077e+01
  -7.343193e+01   6.891928e+01
  -1.265740e+02   2.376355e+01
  -1.305821e+02   2.228923e+01
  -3.168000e+01  -5.209936e+01
   5.240993e+01  -1.988167e+01
  -9.430409e+00  -4.420386e+01
  -2.372733e+01  -2.435042e+00
  -4.912219e+01  -5.503604e+01
   1.742667e+00  -3.681815e+01
   5.289854e+01  -7.589846e+01
   8.796054e+01  -2.080356e+01
   2.421236e+01   5.704612e+01
   4.817437e+00   1.386115e+02
  -3.676304e+00   6.033886e+01
  -7.057832e+01   1.152075e+01
  -2.226822e+01  -8.458654e+01
  -5.024226e+00  -4.531070e+01
   5.021405e+01  -3.924593e+01
   2.898816e+01   4.006627e+01
   3.487899e+01  -2.895653e+01
   3.147517e+01   4.182405e+01
  -1.584700e+01   1.107049e+01
   1.744871e+01   3.080200e+01
   3.529247e+01   9.789280e+00
  -3.903400e+01   6.227451e+00
  -8.435775e+01  -1.763590e+01
  -3.963718e+01  -3.597644e+01
  -3.304607e+01   1.198910e+01
  -9.633578e+00   2.720181e+01
   4.866161e+01   1.582678e+01
  -1.573676e+01   1.084529e+01
  -7.001457e+00  -9.677577e+00
  -2.148400e+01  -3.921730e+01
  -2.014174e+01   6.971527e+01
  -2.948286e-01  -1.196182e+01
  -2.708387e+01  -2.201648e+01
  -4.927547e+01   1.702945e+01
   8.069240e+01  -4.981657e+01
   7.407200e+01  -5.014021e+01
   1.256529e+02  -4.628690e+01
   9.638535e+01   1.296455e+01
   3.301809e+01   1.368506e+02
  -6.389893e+01   6.898104e+01
  -7.630516e+01   4.732099e+01
  -7.378785e+01  -1.898714e+01
   2.416083e+01  -2.986388e+01
  -7.575159e+00  -4.743405e+00
   4.692920e+00   8.241026e+00
   1.100305e+01  -1.169180e+01
  -1.632786e+01  -6.393852e+01
   2.880280e+01   1.710008e-01
   8.970507e+01   5.543776e+01
   9.133363e+01   4.486653e+01
   1.742646e+01   6.832530e+01
  -3.784118e+01   2.866463e+01
  -5.156802e+01  -3.477617e+01
  -5.966491e+01  -4.751320e+01
   2.544112e+01  -3.342375e+01
   4.163500e+01   2.268706e+01
   4.309322e+01   3.144976e+01
   8.957549e+00  -5.098705e-01
  -6.817804e+01   9.474214e+00
   3.240147e+01  -3.529605e+00
   1.946634e+01  -3.136616e+01
   2.301040e+01   1.974320e+01
  -9.722234e+01  -1.381849e+01
  -7.415755e+01   2.908650e+01
  -1.011774e+02   2.779456e+00
   4.049398e+01   8.599059e+00
   2.755705e+01  -9.500010e+01
   5.254477e+01   3.525860e+01
  -5.055428e+01  -2.085772e+01
  -3.060018e+01   5.529233e+01
   6.226845e+00   1.917780e+01
  -1.078606e+01  -6.853743e+01
  -6.393451e+00  -3.684885e+01
  -1.074311e+01  -1.456316e+01
  -1.034842e+01  -2.792841e+01
  -1.199662e+01  -4.701573e+01
   5.097408e+01  -1.593515e+01
  -2.601718e+01   2.295759e+01
   1.049067e+01   2.622435e+01
  -3.852116e+01   5.742098e+01
  -5.141058e+01   5.815390e+01
  -5.476078e+00   2.246432e+00
   2.410623e+01  -6.076710e+01
   5.154690e+01   2.283584e+01
   2.566776e+01   2.035321e+00
   2.765514e+01  -8.900727e+00
  -3.553388e+00   2.327747e+01
  -6.803963e+01  -5.346642e+01
  -5.229269e+00   1.616421e+01
   3.354708e+00  -2.280179e+01
   1.272054e+01  -4.648304e+00
  -1.688345e+01  -1.063021e+01
  -3.059467e+00   1.679921e+01
  -3.262308e+01  -1.001765e+01
   8.476033e+00  -3.869571e+01
   1.344639e+01  -1.005487e+01
