
 $NMID
 id='ANONYMOUS ', fmtdat='(2E16.6)'
 volume=1.0
 tramp=1.0
 $END
  -3.809283e+03   1.819413e+02
  -2.342009e+03  -2.290778e+03
   6.576684e+02  -2.480239e+03
   1.920923e+03  -7.488362e+02
   8.211098e+02   6.890448e+02
  -6.831961e+02   6.097240e+02
  -8.222571e+02  -3.973156e+02
  -3.390946e+00  -1.023633e+03
   7.166394e+02  -7.506839e+02
   8.798308e+02   1.060207e+02
   4.019154e+02   7.755424e+02
  -2.476661e+02   7.948408e+02
  -6.024725e+02   8.357965e+01
  -3.684749e+02  -6.290057e+02
   2.495185e+02  -6.646878e+02
   5.369677e+02  -4.104490e+01
   2.553695e+02   5.938376e+02
  -2.527028e+02   5.511848e+02
  -5.242215e+02   9.537250e+01
  -2.916360e+02  -3.308898e+02
  -6.385499e+00  -3.851386e+02
   2.214448e+02  -2.291608e+02
   1.754647e+02  -3.261865e+01
  -5.912467e+01   8.214793e+01
  -3.197405e+02  -3.064099e+01
  -2.175593e+02  -3.792524e+02
   4.144901e+02  -3.944759e+02
   7.812862e+02   4.057560e+01
   4.059972e+02   4.873105e+02
  -3.151442e+02   4.930266e+02
  -6.332289e+02   3.402395e+01
  -3.009620e+02  -4.520035e+02
   2.532859e+02  -4.954996e+02
   5.640802e+02  -2.222336e+02
   3.550467e+02   2.249460e+02
   7.863433e+01   4.533896e+02
  -2.179539e+02   2.318986e+02
  -1.978997e+02  -1.948512e+02
   1.230624e+02  -4.186145e+02
   4.685984e+02  -7.220166e+01
   2.744807e+02   5.741528e+02
  -2.313173e+02   5.980191e+02
  -5.616935e+02   7.708437e+01
  -3.151998e+02  -4.929450e+02
   2.878061e+02  -3.107627e+02
   3.038700e+02   1.915850e+02
  -1.797474e+01   4.944845e+02
  -4.628531e+02   1.651413e+02
  -5.623640e+02  -3.282681e+02
  -1.432628e+02  -5.022769e+02
   2.945365e+02  -2.640188e+02
   5.593930e+02   6.038123e+01
   3.548426e+02   3.567462e+02
  -1.369888e+02   3.008917e+02
  -4.151712e+02   7.760502e+01
  -2.525988e+02  -1.655220e+02
   1.280626e+02  -1.566203e+02
   1.368532e+02   1.679363e+02
  -1.712253e+02   1.805995e+02
  -2.671871e+02  -1.260012e+01
  -1.331205e+02  -2.596992e+02
   1.909822e+02  -2.097861e+02
   2.566895e+02  -2.837672e+01
   9.601153e+01   5.767307e+01
  -6.964184e+01   1.937724e+02
  -1.383927e+02   2.335004e+02
  -3.373042e+02   2.467149e+02
  -1.901385e+02  -1.017043e+02
  -9.633346e+01  -3.654242e+02
   1.520251e+02  -3.314770e+02
   1.240582e+02  -3.523481e+01
   6.225604e+01   4.085033e+01
   8.123461e-01  -3.888909e+01
   1.397016e+02  -1.171654e+02
   2.083616e+02  -2.627927e+00
   1.338848e+02   2.190552e+02
  -9.340939e+00   2.030014e+02
  -1.557739e+02  -1.111786e+01
  -1.659870e+02  -1.829981e+02
  -2.152890e+01  -2.175503e+02
   2.769187e+02  -1.021519e+02
   3.109950e+02   1.046502e+02
   1.968173e+02   2.934801e+02
  -8.650345e+01   2.501750e+02
  -1.934475e+02   7.981824e+01
  -1.209104e+02  -7.187986e+00
  -6.694664e+01   1.071533e+01
  -2.222445e+02   3.421682e+01
  -3.627411e+02  -3.176783e+00
  -2.285995e+02  -2.453789e+02
  -2.875661e-01  -3.504121e+02
   2.535978e+02  -3.086367e+02
   3.298560e+02  -1.774546e+02
   3.021611e+02   5.422234e+01
   4.354108e+01   2.875722e+02
  -1.058565e+02   2.303639e+02
  -6.151536e+01  -7.573865e+00
   1.163569e+02  -1.476552e+02
   1.837106e+02  -5.751668e+00
   7.612613e+01   1.830040e+02
  -1.712486e+02   1.837930e+02
  -1.432146e+02  -4.200626e+01
  -1.893147e+01  -1.752222e+02
   1.630637e+02  -2.377448e+01
   1.303041e+02   2.486607e+02
  -3.369930e+01   2.536908e+02
  -2.240109e+02   2.135639e+02
  -2.398492e+02  -5.804514e+01
  -2.377990e+02  -2.007499e+02
  -6.377425e+01  -1.872757e+02
   1.184856e+02  -1.763841e+02
   1.113009e+02  -3.490568e+01
   4.527131e+01   2.774978e+01
  -7.269913e+01  -3.882093e+01
  -6.762165e+01  -7.939347e+01
   6.809072e+01  -1.307507e+02
   1.409323e+02  -2.327366e+01
   2.320794e+01   3.201916e+01
  -5.404804e+01   1.922850e+01
  -6.346937e+01  -4.534932e+01
   3.825845e+01  -6.752918e+01
   2.186706e+02  -3.324724e+01
   2.231660e+02   6.928433e+01
   2.882830e+01   1.989185e+02
  -1.910186e+02   2.317006e+02
  -1.982287e+02   1.017888e+02
  -1.825392e+02  -6.906085e+01
   1.850075e+01  -1.427218e+02
   8.917662e+01   2.609249e+01
   1.460309e+01   1.135834e+02
  -1.968054e+02   7.447119e+01
  -2.158730e+02  -1.217923e+02
  -1.157757e+02  -2.024963e+02
   7.311911e+01  -1.356650e+02
   1.501181e+02  -7.047869e+01
   2.038799e+01   1.175572e+01
   3.025914e+00   3.707769e+01
  -1.052404e+01  -1.009294e+02
   6.761683e+01  -1.138795e+02
   1.639710e+02  -4.976952e+01
   1.395231e+02   6.558758e+01
  -1.568017e+01   1.458597e+02
  -7.943939e+01   1.218612e+02
  -1.571105e+02   2.332329e+01
  -2.122376e+00  -9.014021e+01
   4.430917e+01  -3.223112e+01
   9.060479e+01  -1.163473e+01
   1.610478e+01  -2.216921e+01
  -2.874613e+01   2.869657e+01
   2.580016e+01  -2.931205e+00
   1.238074e+01   3.351218e+01
   8.425300e+01   4.910128e+01
   6.783242e+01   8.819614e+01
  -4.490945e+01   1.102750e+02
  -1.578658e+02  -1.191904e+01
  -1.295407e+02  -9.552854e+01
  -1.056757e+02  -1.569770e+02
   1.048721e+02  -1.275895e+02
   1.467263e+02  -3.121014e+01
   3.845065e+01   1.000974e+02
  -9.760581e+00   4.167238e+00
   3.559790e+01  -2.627990e+01
   4.531326e+01  -4.334937e+01
   5.129641e+01   1.007219e+02
  -8.172859e+01   6.312710e+01
  -6.568702e+01   3.873975e+01
  -7.150860e+01  -2.617993e+01
  -1.869806e+01  -4.409169e+01
   1.061518e+02  -5.530997e+01
   1.498692e+02   7.034410e+01
   6.674029e+01   1.567825e+02
  -4.466073e+01   1.657652e+02
  -2.270451e+02   9.745553e+01
  -2.473422e+02  -3.798147e+01
  -1.171035e+02  -9.118730e+01
   3.682780e+01  -9.989105e+01
   6.611686e+01  -6.649370e+01
   1.439781e+01  -7.720523e+01
   3.816823e+01  -7.542758e+01
   7.471436e+01  -8.959464e+01
   6.994592e+01  -2.952063e+01
   1.154907e+02   1.131370e+02
   3.772263e+01   2.055733e+02
  -6.604002e+01   1.607158e+02
  -6.959555e+01   2.812361e+01
  -6.077903e+01  -1.262267e+02
  -1.284465e+01  -1.351608e+02
   9.915619e+01  -9.418294e+01
   2.497004e+01  -1.132512e+01
  -6.564381e+00   3.633945e+01
  -2.042477e+01   6.101726e+01
  -1.857449e+01   5.549990e+00
   2.731367e+01   4.548444e+01
   3.149994e+01   4.387156e+01
  -3.581428e+01   3.015650e+00
  -7.029790e+01   3.041066e+01
  -9.307687e+01  -7.832494e+01
  -5.271694e+01  -4.320987e+01
   1.109961e+02  -4.468870e+01
   9.062519e+01   2.174238e+01
   4.476579e+00   3.761285e+01
  -8.061268e+01   6.143404e+01
  -2.110498e+01  -5.320709e+01
  -3.993449e+00  -3.292823e+01
  -1.042269e+01  -7.859257e+01
   3.851493e+01   2.149376e+01
   9.943268e+00   2.675529e+01
   4.392686e+01   1.769985e+01
   6.361604e+01   3.019981e-01
   6.564276e+01  -5.181234e+01
   3.769469e+01   9.123381e+01
  -4.762832e+01   1.205013e+02
  -1.586696e+02   1.185468e+02
  -1.475502e+02   4.466563e+00
  -5.161875e+01  -5.051283e+01
   6.486183e+01  -7.775823e+01
   9.348281e+01  -5.482828e+01
   6.954187e+01   3.404042e+01
  -7.103950e+01   3.134221e+01
  -1.193743e+02   4.982062e+00
  -3.177448e+01  -9.066419e+01
   7.580394e+01  -9.609918e+01
   1.185815e+02  -1.212509e+01
   1.171206e+02   4.459104e+01
   5.243084e+01   4.879446e+01
  -4.396579e+01   1.154384e+02
  -3.447429e+01   5.739235e+01
   3.290240e+01  -2.415984e+01
   9.887510e+01   3.857786e+01
   5.263636e+01   1.517971e+02
  -8.547261e+01   1.714834e+02
  -1.723636e+02   7.429205e+01
  -1.363541e+02  -7.900263e+01
  -6.539380e+00  -1.728577e+02
   4.679802e+01  -1.761874e+02
   9.205058e+01   1.150694e+01
   6.738014e+01   3.963586e+01
  -5.670840e+00   5.376329e+01
  -4.851068e+01   4.107299e+01
  -3.795699e+01   1.320992e+01
  -4.903136e+01  -3.331076e+01
  -1.544561e+01   7.834419e+00
   7.215352e-01   3.478369e+01
   1.079443e+01  -4.786777e+01
   2.585616e+01  -1.349965e+02
   4.966249e+01  -3.390223e+00
   1.171469e+02   4.207263e+01
   1.047286e+02   1.078619e+02
   6.963621e+01   7.332028e+01
  -9.498405e+01   4.840494e+01
  -5.454583e+01   2.023919e+01
  -2.104000e+01   1.001482e+00
   1.201202e+01   7.205044e+00
   1.637707e+01   1.873016e+01
  -3.285059e+01  -5.011265e+00
  -1.921894e+01   2.352050e+01
   5.689207e+01  -2.237136e+01
   9.926231e+01   7.093368e+01
   3.500030e+01   7.353052e+01
  -5.840527e+01   1.304102e+02
  -1.579403e+02   3.455351e+01
  -1.100161e+02  -9.127312e+00
  -5.057837e+01  -1.203203e+02
   6.156482e+01  -1.139654e+02
   1.542408e+02  -4.882707e+01
   5.092018e+01   9.194475e+00
   2.512780e+01   3.673080e+01
  -4.122476e+01  -1.309578e+01
   3.214945e+01   8.422660e+01
  -7.382995e+00  -2.143084e+01
   5.491207e+01   7.099114e+01
  -2.458848e+01   7.112704e+01
  -6.020006e+01  -3.389455e+00
  -3.353425e+01  -6.258265e+01
   1.231092e+01  -8.868941e+01
   1.244986e+01  -2.664643e+01
   8.974760e+01   6.417632e+01
  -1.127611e+01   9.180861e+01
  -5.040271e+01   9.028337e+01
  -1.739993e+01  -4.604014e+01
  -3.120755e+01  -4.646151e+01
   3.501598e+01  -8.189617e+01
   5.700882e+01  -2.794519e+01
  -2.999085e+01  -3.431155e+01
   8.335018e+00  -9.248352e+00
  -2.305550e+01   2.965595e+01
   9.111927e+01  -4.156161e+01
   8.805869e+01  -4.870341e+01
   6.177383e+01   2.588288e+01
   2.679506e+01   1.220760e+01
  -7.185109e+01   9.479104e+01
   6.252344e+00   6.438532e+01
   2.991154e+01  -5.586526e+01
  -3.200694e+01  -4.428743e+01
   3.631428e+01   4.324980e+01
  -4.949908e+00   3.277510e+01
   4.702518e+01   2.057017e+01
   2.891933e+01  -2.860713e+01
  -7.301249e+01  -2.799520e+01
  -2.740494e+01   5.978834e+00
   2.187192e+01   1.093567e+01
   2.355322e+01  -5.456718e+01
   8.451299e+00  -2.975101e+01
   3.107236e+00  -7.620233e+01
  -9.761210e+00  -1.035460e+01
   4.335392e+01  -8.436031e+00
   1.245000e+01   1.534553e+01
  -1.013903e+01   3.569579e+01
  -2.474751e+01   1.730747e+00
  -4.368320e+01  -2.103726e+01
  -2.590585e+01   3.586133e+01
   4.919155e+01   1.219691e+01
   6.857701e+01   5.057136e+01
  -3.517345e+01   3.562855e+01
  -9.783841e+01   1.875486e+00
  -1.708878e+01  -2.173943e+01
   4.210582e+01   2.566675e+01
   4.493825e+01   4.916378e+01
  -5.251723e+01   2.788161e+01
  -1.154657e+02   4.273489e+01
