
 $NMID
 id='ANONYMOUS ', fmtdat='(2E16.6)'
 volume=1.0
 tramp=1.0
 $END
   4.394397e+03   1.394485e+02
   2.447585e+03   2.809467e+03
  -9.743621e+02   2.713883e+03
  -2.186974e+03   6.070415e+02
  -8.896021e+02  -8.225203e+02
   7.892852e+02  -5.680180e+02
   9.036528e+02   5.263709e+02
  -7.070053e+01   1.095454e+03
  -8.945724e+02   7.697284e+02
  -9.668385e+02  -1.383961e+02
  -3.693539e+02  -8.994983e+02
   3.811236e+02  -8.769794e+02
   6.673644e+02  -2.940566e+01
   4.089754e+02   7.702054e+02
  -3.629300e+02   7.433114e+02
  -6.100138e+02  -1.876745e+01
  -2.280465e+02  -6.636709e+02
   3.822427e+02  -6.091052e+02
   6.082280e+02  -7.459584e+01
   3.687877e+02   3.820344e+02
  -3.860935e+01   4.083553e+02
  -2.374614e+02   2.106989e+02
  -2.264617e+02   3.228772e+01
   1.144054e+02  -1.669025e+02
   3.812984e+02   1.067681e+02
   1.826403e+02   4.092728e+02
  -4.164926e+02   4.179127e+02
  -8.918361e+02  -8.575773e+01
  -4.708498e+02  -5.904846e+02
   4.092043e+02  -4.871054e+02
   7.155512e+02   6.176543e+01
   3.243034e+02   5.099122e+02
  -2.882723e+02   5.437823e+02
  -5.802658e+02   1.925722e+02
  -3.866724e+02  -2.593981e+02
   3.625306e+01  -4.764787e+02
   2.296205e+02  -2.691589e+02
   2.157313e+02   2.669394e+02
  -1.964989e+02   4.889372e+02
  -4.850406e+02   2.589292e+01
  -2.427494e+02  -6.778397e+02
   3.206539e+02  -7.281535e+02
   6.445951e+02   1.839861e+01
   2.137508e+02   6.257667e+02
  -3.577181e+02   3.196869e+02
  -4.063682e+02  -3.135231e+02
   7.641323e+01  -5.325045e+02
   5.369943e+02  -1.838215e+02
   5.972239e+02   4.211889e+02
   1.895977e+02   5.339915e+02
  -3.581121e+02   3.235459e+02
  -5.893666e+02  -8.155189e+01
  -3.735310e+02  -4.635148e+02
   1.672180e+02  -3.824121e+02
   4.660849e+02  -9.684628e+01
   1.757669e+02   2.458849e+02
  -1.491896e+02   6.186122e+01
  -1.696814e+02  -1.980458e+02
   1.005769e+02  -2.031528e+02
   3.612576e+02   7.806287e+01
   1.101300e+02   3.435860e+02
  -2.360899e+02   2.994686e+02
  -3.462153e+02   3.657432e+01
  -2.427999e+02  -4.143952e+01
   2.888297e+01  -2.281747e+02
   1.654126e+02  -3.377683e+02
   3.586172e+02  -2.589459e+02
   2.623770e+02   8.147588e+01
   4.985416e+01   4.377095e+02
  -1.160936e+02   3.941490e+02
  -1.865398e+02   5.609809e+01
   2.659488e+01  -4.837283e+01
  -6.229582e+01   1.524513e+02
  -1.527060e+02   1.413486e+02
  -2.917060e+02  -7.159904e+01
  -2.009728e+02  -2.523215e+02
   6.387632e+01  -2.701885e+02
   2.136851e+02  -5.325429e+01
   1.218764e+02   2.383713e+02
  -1.139454e+01   3.447181e+02
  -2.444786e+02   1.678542e+02
  -4.139655e+02  -1.855072e+02
  -1.808206e+02  -3.348550e+02
   1.386356e+02  -2.715566e+02
   1.825802e+02  -1.175826e+02
   1.453968e+02   9.089230e+01
   1.019746e+02  -3.204796e+01
   2.064171e+02  -2.984787e+01
   3.582162e+02   4.623043e+01
   3.405736e+02   2.835367e+02
   2.314940e+01   4.264350e+02
  -2.972254e+02   3.946280e+02
  -4.475459e+02   1.725712e+02
  -3.386828e+02  -1.312557e+02
  -6.873604e+01  -2.745169e+02
   8.973762e+01  -2.625173e+02
   1.326797e+02  -5.511178e+00
  -6.936806e+01   7.665133e+01
  -2.314576e+02  -4.946854e+01
  -2.274178e+01  -2.028861e+02
   1.924800e+02  -2.395355e+02
   2.047946e+02   5.000311e+01
  -5.433520e+01   2.061863e+02
  -2.066662e+02  -2.867396e+00
  -1.867050e+02  -2.293371e+02
   2.091079e+00  -3.897569e+02
   2.563481e+02  -1.784706e+02
   2.751762e+02   3.560452e+01
   2.284063e+02   1.847317e+02
   9.343091e+01   2.198184e+02
  -1.647441e+02   1.275809e+02
  -1.431053e+02  -2.599865e+01
  -5.780752e+01  -8.440785e+01
   6.724869e+01   4.199720e+01
  -5.106124e+01   1.480803e+02
  -9.480143e+01   1.284816e+02
  -2.143374e+02   8.429987e+00
  -3.520715e+00  -3.439411e+01
   6.607002e+01  -5.955785e+01
   8.891463e+01   7.959576e+01
  -9.160763e+01   1.323653e+02
  -2.875387e+02  -2.393953e+01
  -2.361836e+02  -1.334676e+02
  -5.813915e+00  -2.827988e+02
   1.462085e+02  -2.907042e+02
   2.721765e+02  -8.719579e+01
   1.922499e+02   4.900397e+01
   4.325987e+01   1.269155e+02
  -7.702499e+01  -7.345768e-01
  -6.364130e+00  -7.139394e+01
   2.224752e+02  -6.535920e+01
   2.240329e+02   5.479933e+01
   8.604094e+01   1.465494e+02
  -1.094049e+02   1.752761e+02
  -1.414578e+02   2.565754e+01
  -4.364763e+01  -6.501823e+01
  -1.294121e+01  -4.987993e+01
   4.334261e+01   5.791421e+01
  -1.066614e+02   1.748237e+02
  -1.962425e+02   1.080048e+01
  -1.816488e+02  -8.723861e+01
  -8.589599e+00  -2.118961e+02
   1.556154e+02  -1.515309e+02
   2.045144e+02  -2.109209e+01
   4.838452e+01   1.572748e+02
  -8.858096e+01   1.074570e+02
  -4.126517e+01   3.335077e+01
  -3.493210e+01  -4.587292e+01
   2.479341e+00  -2.955396e+00
  -3.440183e+01   4.970907e+01
  -5.513524e+01  -5.141447e+01
  -6.253440e+01  -7.774470e+01
   2.180836e+01  -1.263155e+02
   7.737393e+01  -1.703445e+02
   2.292347e+02  -1.192835e+01
   1.808904e+02   1.309193e+02
   7.260211e+01   1.982673e+02
  -9.671811e+01   1.767364e+02
  -1.313133e+02   3.135793e+01
  -1.005007e+02  -7.762718e+01
  -1.233529e+01  -9.511802e+00
  -5.470299e+01  -1.885011e+01
  -5.021254e+01   4.941859e+01
  -4.690683e+01  -7.872722e+01
   6.621047e-01  -1.259046e+02
   5.701309e+01  -4.637315e+01
   1.462670e+02  -4.105528e+01
  -2.204209e+01   1.070629e+02
  -1.354444e+02   3.292657e+01
  -1.982899e+02  -3.970487e+01
  -1.102490e+02  -1.950112e+02
   6.957667e+01  -2.386645e+02
   2.801025e+02  -9.221022e+01
   2.278638e+02   7.666855e+01
   7.614896e+01   1.088800e+02
   2.141310e+00   1.472601e+02
  -1.128698e+02   7.889230e+01
  -7.744033e+01   7.293900e+01
  -1.185338e+02   8.709817e+01
  -1.075530e+02   7.967489e+01
  -8.077329e+01  -5.575129e+01
  -1.012000e+02  -1.289995e+02
  -1.804247e+01  -2.068904e+02
   1.265460e+02  -1.864001e+02
   1.756306e+02   1.100657e+01
   1.534593e+02   9.792323e+01
  -1.995765e+01   1.417014e+02
  -7.070397e+01   9.227075e+01
  -4.382583e+01   1.374575e+01
  -4.454509e+00  -2.059781e+01
  -6.796188e+00  -3.348332e+01
  -6.909778e+01  -1.814984e+01
  -7.489675e+01  -2.037672e+01
  -4.433893e+01  -2.469244e+01
   5.261890e+01  -4.992156e+01
   1.909236e+02   5.898181e+01
   1.176697e+02   3.473714e+01
  -1.362357e+01   1.061984e+02
  -9.620179e+01   4.672784e+01
  -1.343401e+02  -5.413199e+00
  -3.534626e+01  -5.264490e+01
   7.298588e+01  -8.388416e+01
   5.987951e+01   3.147763e+01
   1.314401e+01   7.497830e+01
  -2.949917e+01   1.176878e+02
  -3.493834e+01   1.421368e+01
  -9.086140e+01  -2.511269e+01
  -6.102016e+01   3.364696e+00
  -9.503438e+01  -2.081289e+01
  -1.165632e+02  -2.962292e+01
   3.043109e+01  -8.632242e+01
   6.528083e+01  -1.603625e+02
   8.656166e+01  -1.265747e+02
   2.031654e+02  -4.408713e+01
   1.414860e+02   1.014262e+02
  -1.799217e+01   1.456935e+02
  -1.077316e+02   8.129076e+01
  -3.970193e+01   1.963047e+00
   1.031423e+02  -2.695875e+01
   1.563281e+02   5.121579e+01
   8.382087e+01   1.078188e+02
  -9.627420e+01   8.998429e+01
  -2.417670e+02   5.371515e+01
  -1.275166e+02  -4.501047e+01
  -3.322988e+01  -8.465072e+01
   7.854609e+01  -5.119062e+01
   3.559110e+01  -5.502183e+01
  -1.958601e+01   4.183807e+01
  -8.358257e+01  -2.929597e+01
   5.083613e+00  -1.234337e+02
   1.236190e+02  -1.287244e+02
   1.674492e+02  -5.891814e+01
   1.283326e+02   1.017684e+02
   5.345006e+01   2.092184e+02
  -1.042766e+02   1.159211e+02
  -1.048935e+02  -1.780990e+01
  -3.368937e+01  -1.016987e+02
   4.472843e+01  -1.103008e+02
   4.551235e+01  -7.273416e+01
   1.449625e+01   5.229231e+01
   3.666047e+01   2.588692e+01
  -1.540060e+01  -4.570552e+01
   1.883572e+01  -8.568493e+00
   5.749661e+01   9.262044e+01
  -2.657813e+00   1.015026e+02
  -5.058465e+01   4.039865e+01
  -1.178793e+02   6.818238e+00
  -1.326148e+02  -9.921084e+01
  -1.239125e+01  -7.421104e+01
   5.014440e+01  -5.626537e+01
   6.625564e+01   1.030102e+01
  -6.233816e+00   1.998083e+01
  -2.323293e+01   1.238673e+01
   1.399309e+01   2.609028e+01
   3.606870e+01   1.252884e+01
   1.596616e+01  -1.954172e+00
  -5.943764e+01   2.358844e+01
  -1.151207e+02  -4.747829e+01
  -1.216705e+01  -6.948307e+01
   9.371377e+01  -1.261286e+02
   2.561748e+02  -7.460297e+00
   1.338999e+02   4.684665e+01
   4.838150e+01   1.926281e+02
  -8.689289e+01   1.649910e+02
  -9.756105e+01   2.717797e+01
  -1.160169e+02  -5.507285e+01
  -6.389430e+00  -4.035709e+01
  -1.291310e+01  -2.560940e+01
   2.453787e+00  -5.873697e+01
  -1.424510e+01  -7.530564e+01
  -5.654202e+00  -3.942486e+01
   7.213772e+01  -8.606654e+01
   7.673871e+01   3.396466e+01
   5.512623e+01   4.955292e+01
   7.582237e+00   1.017106e+02
  -5.124863e+01   1.345505e+01
  -1.032396e+02  -3.627520e+01
  -4.619966e+01  -9.856698e+01
   7.705744e+01  -5.152489e+01
   1.087055e+02   5.173123e+01
   1.307834e+01   5.358129e+01
  -3.822866e+01   7.089289e+01
  -3.467775e+01   2.356496e+01
  -1.207212e+01  -2.858739e+01
  -1.462814e+01  -2.305256e+01
   5.935556e+00  -1.382833e+01
  -8.925145e+01   6.529666e+01
  -1.575439e+02   4.843754e+01
  -6.251190e+01  -2.398870e+01
   2.393878e+01  -8.393527e+01
   1.818926e+01  -5.743743e+01
   7.495868e+01  -1.364061e+01
  -7.228056e+00   7.172905e+01
   1.748197e+01   9.243118e+01
  -4.422259e+01   5.315801e+01
  -4.357232e+01  -3.535587e+01
   7.628266e+00   1.526045e+00
   4.624155e+01  -1.858129e+01
   1.765281e+01   1.838799e+01
   1.821424e+01   2.432259e+01
   8.732251e+00   1.166811e+01
  -5.469462e+01   2.932220e+01
  -1.713521e+01   7.659770e+01
  -2.899059e+01   1.516402e+01
  -5.939004e+01  -3.684116e+01
  -4.300513e+01  -1.577048e+01
   6.287255e+01  -4.809084e+01
   2.623090e+01  -1.812256e+01
   4.560439e+01   4.268090e+01
   5.196102e+01  -8.597080e+00
  -2.880555e+01   1.795157e+01
  -7.442344e+01  -2.705066e+01
  -3.276177e+01  -5.048702e+01
   8.983507e+01  -3.658607e+01
   4.830955e+01   2.348381e+01
   4.990753e+01  -1.873692e+01
   7.471132e-01   5.263661e+01
  -4.320425e+01   2.978144e+01
   7.416740e+01  -5.706921e+01
   6.306681e+01  -1.203920e+01
