
 $NMID
 id='ANONYMOUS ', fmtdat='(2E16.6)'
 volume=1.0
 tramp=1.0
 $END
  -4.681979e+03   5.562345e+01
  -2.690620e+03  -2.875666e+03
   8.394633e+02  -2.918466e+03
   2.307274e+03  -8.256571e+02
   9.640955e+02   8.324247e+02
  -8.122798e+02   6.369734e+02
  -1.003161e+03  -4.997928e+02
  -3.046274e+01  -1.189843e+03
   9.091472e+02  -8.505697e+02
   9.776351e+02   1.325919e+02
   4.821588e+02   9.364150e+02
  -2.922974e+02   9.249668e+02
  -7.310264e+02   1.143579e+02
  -4.272860e+02  -7.641090e+02
   2.891049e+02  -7.909721e+02
   6.502616e+02   6.823614e+01
   2.765992e+02   7.511677e+02
  -4.065388e+02   6.920341e+02
  -6.672971e+02   8.293506e+01
  -4.230542e+02  -4.259993e+02
   4.683583e+00  -4.564202e+02
   3.131843e+02  -2.989299e+02
   2.836385e+02  -8.510619e+00
  -8.297141e+01   1.390995e+02
  -4.500682e+02  -1.082654e+02
  -2.501388e+02  -4.426090e+02
   5.139724e+02  -5.002139e+02
   9.091306e+02   8.940373e+01
   4.597927e+02   6.289564e+02
  -4.283446e+02   5.300937e+02
  -8.149084e+02  -2.722481e+01
  -3.835197e+02  -5.761438e+02
   2.927540e+02  -5.127902e+02
   6.117931e+02  -1.911201e+02
   4.268831e+02   2.599392e+02
   3.223981e+01   5.740711e+02
  -2.103665e+02   2.669256e+02
  -2.293312e+02  -2.209141e+02
   1.680952e+02  -4.479799e+02
   5.370408e+02   3.417138e+01
   2.799833e+02   8.104576e+02
  -3.407364e+02   7.833237e+02
  -6.455095e+02  -1.455612e+00
  -2.929862e+02  -6.456580e+02
   3.652694e+02  -3.764128e+02
   4.405444e+02   3.596031e+02
  -3.139655e+01   5.735047e+02
  -6.617541e+02   1.489068e+02
  -6.527918e+02  -4.881695e+02
  -1.744875e+02  -6.005889e+02
   3.850706e+02  -4.100333e+02
   6.767876e+02   1.383238e+02
   4.185934e+02   4.195830e+02
  -2.289483e+02   4.368168e+02
  -4.887024e+02   9.883939e+01
  -2.929328e+02  -2.629532e+02
   1.157274e+02  -9.975616e+01
   1.233626e+02   2.202994e+02
  -1.619148e+02   2.536969e+02
  -4.147895e+02  -5.689400e+00
  -1.705791e+02  -3.253659e+02
   1.678222e+02  -2.993654e+02
   3.363922e+02  -7.354849e+01
   2.652923e+02   1.049509e+02
  -1.975366e+01   1.765690e+02
  -2.518297e+02   3.227795e+02
  -3.513903e+02   2.404684e+02
  -3.464952e+02  -1.266052e+02
  -6.615220e+01  -4.481243e+02
   1.659215e+02  -4.382879e+02
   1.525442e+02  -8.964949e+01
   3.887544e+01  -1.469946e+00
   3.336621e+01  -9.472722e+01
   1.888905e+02  -1.994868e+02
   2.715625e+02   3.987639e+01
   1.823789e+02   3.363210e+02
  -8.220271e+01   2.719722e+02
  -2.625512e+02   4.923900e+01
  -2.166367e+02  -2.229805e+02
   4.290789e+01  -2.888039e+02
   2.587792e+02  -1.900871e+02
   3.565060e+02   1.900238e+02
   2.097551e+02   3.888814e+02
  -7.896132e+01   2.888974e+02
  -1.879810e+02   1.260036e+02
  -1.437660e+02   1.188924e+01
  -1.152115e+02   4.031381e+01
  -2.779834e+02   1.151968e+02
  -3.826392e+02  -7.358532e+01
  -3.635658e+02  -2.619728e+02
  -4.031077e+00  -4.222516e+02
   3.034813e+02  -4.583558e+02
   4.735933e+02  -2.207731e+02
   3.738031e+02   1.464171e+02
   5.281232e+01   2.875893e+02
  -1.181546e+02   2.441771e+02
  -8.033808e+01   2.286907e+01
   1.161636e+02  -1.331283e+02
   2.215893e+02  -1.288861e+01
   2.537743e+01   1.649666e+02
  -1.638261e+02   1.548861e+02
  -1.887215e+02  -3.484253e+01
  -4.584366e+01  -1.888224e+02
   1.514197e+02  -5.617729e+01
   1.438788e+02   1.875858e+02
  -2.231083e+01   3.336351e+02
  -1.922358e+02   2.129192e+02
  -3.543253e+02  -8.943630e+01
  -2.873439e+02  -2.839029e+02
  -9.413044e+01  -2.735220e+02
   1.152207e+02  -1.838004e+02
   1.546877e+02  -6.679201e+00
   6.313057e+01   4.712711e+01
  -6.619605e+01  -5.195286e+01
  -1.058585e+01  -6.532229e+01
   1.046751e+02  -1.224701e+02
   2.234811e+02  -5.039049e+01
   8.349651e+01   9.221177e+01
  -4.086760e+01  -8.895514e+00
  -5.169730e+01  -9.878425e+01
   1.522252e+02  -1.252558e+02
   2.863074e+02  -3.452555e+01
   3.382710e+02   1.825740e+02
   9.167792e+01   2.525241e+02
  -1.516635e+02   3.051846e+02
  -3.420656e+02   1.229765e+02
  -1.828017e+02  -7.038174e+01
   8.629828e+00  -1.045758e+02
   7.203071e+01   3.525988e+01
  -1.252022e+01   1.381440e+02
  -1.873317e+02   7.389141e+01
  -2.008119e+02  -5.797841e+01
  -4.663522e+01  -1.778516e+02
   1.212726e+02  -1.823489e+02
   1.913580e+02  -1.074275e+00
   1.464459e+02   6.495286e+01
   2.237674e+01  -3.681016e+01
  -8.865888e+00  -1.028161e+02
   2.332229e+01  -1.544136e+02
   1.244273e+02  -4.448032e+01
   1.476783e+02   1.419996e+02
   3.295211e+00   2.250093e+02
  -2.389092e+02   2.000937e+02
  -2.401287e+02   4.876050e+01
  -5.983546e+01  -1.396674e+02
   5.617087e+01  -1.506431e+02
   4.631581e+01  -1.670390e+00
   1.020758e+02   2.168231e+01
  -2.221213e+01   6.837764e+01
   1.753267e+01  -5.592283e+01
   4.357037e+01   1.093184e+01
   7.812930e+01   6.894175e+01
   2.360415e+00   1.198500e+02
  -1.133842e+02   1.870456e+02
  -2.438516e+02  -9.553993e+00
  -2.167889e+02  -1.431249e+02
  -6.357054e+01  -2.511049e+02
   9.720458e+01  -2.155865e+02
   1.387582e+02  -2.940885e+01
   8.484338e+01   4.563804e+01
   1.465472e+02   6.839836e+01
   9.798589e+01   1.506953e+01
   7.454848e+01   8.193812e+00
   5.222835e+01   1.905385e+00
  -3.524736e+01   8.190567e+01
  -3.747073e+01   5.779270e+01
  -8.534573e+01  -1.140272e+01
   2.835177e+01  -9.408000e+01
   1.276983e+02  -1.018183e+02
   1.435635e+02   4.308079e+01
   9.741754e+01   1.937478e+02
  -1.507112e+02   1.779426e+02
  -3.019304e+02   1.487122e+02
  -3.049436e+02  -7.795526e+01
  -9.983438e+01  -2.310763e+02
   2.997599e+01  -1.633481e+02
   8.936484e+01  -1.028191e+02
   1.587930e+02  -5.390932e+01
   8.684416e+01  -9.514626e+01
   7.753406e+01  -5.483840e+01
   1.787901e+02  -2.658741e+01
   1.475222e+02   1.908394e+02
   6.736001e+01   2.258279e+02
  -1.170452e+02   1.504393e+02
  -1.688690e+02  -1.627450e+01
  -1.251462e+02  -1.741502e+02
   1.774887e+01  -9.316027e+01
   4.109813e+01  -8.368132e+01
   1.073637e+02   2.179914e+01
  -1.473127e+01   3.215384e+01
   3.303894e+00   1.284046e+01
   6.174239e+01   2.488210e+01
   3.430308e+01   3.597214e+01
  -9.461141e+00   4.456410e+01
  -8.391997e+01   2.242603e+01
  -1.004699e+02   3.866121e+01
  -1.214534e+02  -6.641103e+01
  -7.685494e+01  -9.956907e+01
   7.267020e+01  -1.493658e+02
   2.138617e+02   5.233084e+00
   6.926849e+01   2.918588e+01
  -3.795953e+01   3.007632e+01
  -1.184685e+02  -3.757400e+01
   1.467897e+01  -1.004885e+02
   8.177658e+01  -5.541188e+01
   6.966855e+01  -2.541539e+00
   2.624539e+01   1.941432e+01
   2.998012e+01   4.265234e+01
   2.159064e+01  -2.642767e+01
   1.348429e+02  -1.500185e+01
   3.443729e+01   7.412245e+01
  -1.674956e+01   9.065251e+01
  -1.116119e+02   1.136893e+02
  -1.535298e+02   7.526008e+01
  -1.266790e+02  -5.529013e+01
  -2.480861e+01  -1.276026e+02
   5.393515e+01  -6.547491e+01
   8.398976e+01  -3.681084e+01
  -3.440383e+01   3.061380e-01
  -1.378265e+02  -2.182015e+00
  -6.428765e+01  -9.696035e+01
   1.186253e+02  -1.263240e+02
   1.996932e+02  -9.999402e+01
   2.056460e+02   3.179622e+01
   3.579098e+01   1.038351e+02
  -1.763361e+01   6.520591e+01
  -5.342873e+00  -1.762035e+01
   4.058606e+01  -5.937525e+01
   1.227991e+02   1.553517e+01
   8.482969e+00   8.536144e+01
  -8.064235e+01   1.478356e+02
  -1.311784e+02   6.484298e+01
  -5.967233e+01  -1.132012e+02
  -2.081741e+01  -2.107271e+02
   1.036312e+02  -1.640627e+02
   1.029861e+02   1.227804e+01
   5.045702e+01   7.488892e+01
  -6.332379e+01   3.250942e+01
  -3.921589e+01  -1.778959e+01
  -6.579253e+01  -5.996228e+00
   1.465089e+01  -6.224734e+01
   7.208159e+01   3.727063e+01
  -3.512120e+01  -5.972054e+01
  -4.139469e+01  -7.948395e+01
  -6.100161e+01  -1.708222e+02
   2.525105e+01  -1.730795e+01
   1.420156e+02   3.495351e+01
   1.023793e+02   1.387988e+02
   5.446082e+00   5.191500e+01
  -9.419384e+01   3.355503e+01
  -4.199955e+01   4.338591e+01
   4.140627e+01  -5.647577e+00
   4.121410e+00  -3.630514e+01
   2.110058e+01  -4.727274e+01
   3.635368e+01   4.014145e+01
   1.395506e+01  -3.342973e+01
   5.081912e+01   4.254017e+00
   8.008778e+01   7.754797e+01
  -2.377900e+01   1.271220e+02
  -2.041321e+02   1.573699e+02
  -2.235095e+02   1.088175e+02
  -1.177533e+02  -6.693642e+01
  -9.991594e+00  -1.766636e+02
   6.946028e+01  -1.135562e+02
   1.084954e+02  -2.051649e+01
   1.517755e+02  -1.150736e+01
   1.396967e+01   5.105401e+01
  -1.939951e+01  -7.362640e+00
   9.462268e+00   1.836875e+01
   2.280517e+01   6.730174e+01
   3.847209e+01   1.159541e+02
  -3.114450e+01   8.128361e+01
  -7.700868e+01  -4.654411e+01
  -1.125238e+02  -1.249743e+02
   3.861165e+00  -1.326548e+02
   1.229639e+02  -1.264702e+01
   1.457344e+02   6.777504e+01
   6.542566e+01   4.898641e+01
  -1.991511e+01   4.585661e+01
  -8.523834e+01  -6.913954e+00
  -1.154477e+02  -4.710622e+01
   6.077120e+01  -5.756171e+01
  -1.652000e+00  -3.376865e+01
  -2.137607e+01  -3.103110e+01
  -9.014415e+01   2.485877e+01
   3.979322e+01  -2.622211e+01
   7.558772e+01  -6.378164e+01
   9.537764e+01  -7.423297e+01
   1.695876e+01   1.450923e+01
  -3.684805e+01   1.488321e+02
  -3.535986e+01   8.152553e+01
  -3.881764e+01   4.625158e+01
  -1.046455e+01  -4.038369e+01
   1.353088e+01  -6.853351e+01
   3.179150e+01   6.083187e+01
  -1.892900e+01   3.673742e+01
  -8.271684e+00  -8.778863e+00
  -3.464412e+01  -3.014795e+01
  -2.342260e+01   8.121489e+01
  -5.340666e+01  -2.552735e+00
  -7.250914e-01   2.786638e+01
   2.115160e+01  -9.556398e+00
   2.156929e+01  -6.380414e+01
   1.349591e+01  -1.345318e+01
  -8.859897e+00  -2.089773e+01
  -1.261801e+00   6.962761e+01
  -7.292728e+00   1.951313e+01
  -3.327226e+01   1.551668e+01
  -8.895728e+01  -2.447652e+01
  -2.111562e+01  -2.495503e+01
   6.030851e+01  -6.672884e+01
   5.800060e+01   5.169977e+01
   6.804504e+01   5.275300e+01
  -6.740710e+00   1.952196e+01
  -5.376370e+01   4.907518e+00
  -3.142643e+01   3.031977e+01
   1.351133e+01   4.010494e+01
   3.492610e+01  -4.521594e+01
  -6.721334e+01  -4.598338e+01
  -1.004244e+02   2.857845e+01
