
 $NMID
 id='ANONYMOUS ', fmtdat='(2E16.6)'
 volume=1.0
 tramp=1.0
 $END
  -3.049447e+03   2.059681e+01
  -1.698303e+03  -1.844298e+03
   5.215545e+02  -1.955247e+03
   1.552172e+03  -5.384718e+02
   6.345707e+02   4.919935e+02
  -5.214490e+02   3.543774e+02
  -6.217092e+02  -3.521125e+02
   4.377533e+01  -7.774827e+02
   6.078508e+02  -5.077191e+02
   6.701154e+02   9.245123e+01
   2.822264e+02   6.744933e+02
  -1.596800e+02   5.939797e+02
  -4.493499e+02   1.115840e+02
  -2.600036e+02  -4.808534e+02
   1.870350e+02  -5.274498e+02
   4.334891e+02  -1.042433e+01
   1.865096e+02   5.109474e+02
  -1.837113e+02   4.291417e+02
  -4.065575e+02   3.014870e+01
  -2.877707e+02  -2.914148e+02
  -8.995657e+00  -3.240858e+02
   1.775110e+02  -1.550078e+02
   1.503578e+02   3.173216e+01
  -8.899850e+01   5.839999e+01
  -3.411575e+02  -7.782226e+01
  -1.633607e+02  -3.119960e+02
   3.075452e+02  -3.037394e+02
   6.641874e+02   2.964673e+01
   2.965099e+02   3.686306e+02
  -2.641091e+02   3.649708e+02
  -5.209698e+02  -6.079103e+01
  -2.192932e+02  -3.573450e+02
   1.827651e+02  -3.571980e+02
   3.990164e+02  -1.336145e+02
   2.452390e+02   1.802723e+02
   6.832512e+01   3.685894e+02
  -1.361469e+02   2.262034e+02
  -1.175868e+02  -1.407056e+02
   1.343618e+02  -2.787372e+02
   3.510895e+02  -3.378291e+01
   2.220331e+02   4.740586e+02
  -2.099748e+02   4.929070e+02
  -4.207640e+02   8.425485e+01
  -1.972794e+02  -4.049041e+02
   2.099216e+02  -2.045246e+02
   3.029789e+02   2.666668e+02
  -3.157120e+00   3.622042e+02
  -3.456399e+02   1.523788e+02
  -3.788997e+02  -2.651067e+02
  -9.833601e+01  -4.583589e+02
   2.905236e+02  -2.491938e+02
   4.994841e+02   3.704956e+01
   2.758181e+02   3.171648e+02
  -1.202065e+02   2.050565e+02
  -2.911001e+02   4.379335e+01
  -1.881481e+02  -9.810339e+01
   1.051015e+02  -9.858180e+01
   9.821059e+01   1.285885e+02
  -1.292306e+02   1.477631e+02
  -2.637825e+02  -8.081320e+01
  -1.302204e+02  -1.691768e+02
   9.846316e+01  -1.584803e+02
   1.969270e+02  -5.276676e+01
   1.065913e+02   2.557645e+01
  -3.297631e+01   1.390226e+02
  -1.800793e+02   2.208708e+02
  -2.770419e+02   1.418290e+02
  -2.315138e+02  -1.262235e+02
  -6.347021e+01  -3.210803e+02
   3.379362e+01  -2.737062e+02
   8.303750e+01  -1.186001e+02
  -1.783332e+00  -1.167314e+01
   7.729846e+01  -6.396156e+01
   1.495911e+02  -5.463332e+01
   1.729846e+02  -7.372674e+00
   9.624248e+01   2.112945e+02
   1.067670e+01   1.580341e+02
  -1.574223e+02  -1.448264e+01
  -1.717538e+02  -1.888195e+02
  -3.039239e+01  -2.167800e+02
   1.659733e+02  -6.807406e+01
   2.173507e+02   1.193541e+02
   1.595669e+02   2.507268e+02
   6.557319e+00   2.441251e+02
  -1.604100e+02   1.057940e+02
  -9.867275e+01  -5.275588e+01
  -1.054933e+02  -2.310003e+01
  -1.352924e+02   5.378570e+01
  -2.608597e+02   2.889088e+01
  -2.795027e+02  -1.981471e+02
   3.409141e+01  -3.289905e+02
   2.220527e+02  -3.482141e+02
   3.200848e+02  -9.095222e+01
   2.127067e+02   3.265383e+01
   2.992675e+01   2.208140e+02
  -8.842356e+01   2.263019e+02
  -6.328813e+01   8.308925e+00
   7.243633e+01  -7.954663e+01
   1.291188e+02  -4.020025e+00
   7.600853e+01   1.652949e+02
  -1.155445e+02   1.008630e+02
  -1.157954e+02  -2.552884e+01
   1.152692e+00  -1.268633e+02
   1.529394e+02  -5.704882e+00
   1.413758e+02   1.639301e+02
  -1.408831e+01   2.721282e+02
  -1.429287e+02   1.816181e+02
  -2.264922e+02  -1.094011e+02
  -2.105553e+02  -2.027981e+02
  -7.937055e+01  -1.654692e+02
   9.380563e+01  -1.235261e+02
   1.988998e+02  -1.032019e+01
   2.551522e-02  -3.098921e+01
  -6.549231e+01   4.050801e+01
  -3.945432e+01  -1.776638e+02
   7.618669e+01   1.631489e+01
   1.555507e+02   2.227946e-01
   7.449940e+01   6.923370e+01
  -9.048329e+01   3.550210e+00
  -5.062720e+01  -1.727686e+01
   8.962365e+01  -4.924159e+01
   1.610739e+02  -6.506119e+01
   1.766440e+02   8.119267e+01
   7.403238e+01   1.860809e+02
  -1.034954e+02   1.741347e+02
  -1.845929e+02   1.213661e+02
  -8.440882e+01   7.910002e+00
   2.589210e+01  -6.656383e+01
   1.301715e+02   6.770083e+01
  -4.356711e+01   7.785904e+01
  -1.376672e+02   5.733950e+01
  -1.449572e+02  -6.464443e+01
  -6.817658e+01  -1.159418e+02
   1.008188e+02  -1.143065e+02
   7.487779e+01  -3.547374e+01
   5.283480e+01  -4.315589e+00
  -3.316539e+01   2.323057e+01
   1.256761e+01  -6.216639e+01
   3.814735e+01  -5.299751e+01
   9.498142e+01  -5.517868e+01
   1.611172e+02   5.391292e+01
   3.141828e+01   1.628727e+02
  -8.271100e+01   1.100984e+02
  -1.240760e+02   4.217034e+01
  -7.815487e+01  -9.151128e+01
   6.731461e+01  -1.081377e+02
   5.723268e+01  -2.956757e+01
   4.590157e+01   4.208284e+01
   7.735971e+00   2.971106e+01
   4.931765e+01  -8.541711e+01
   8.732785e-01  -3.846117e+01
   6.745857e+01   3.366509e+01
   2.857193e+01   1.508155e+02
  -1.007988e+02   6.114933e+01
  -1.775792e+02   3.388059e+00
  -1.420676e+02  -1.436698e+02
  -9.796581e+01  -1.815649e+02
   9.159970e+01  -1.118366e+02
   5.998598e+01  -2.450015e+01
   7.180638e+01   5.011656e+00
   3.009306e+01   2.671668e+01
   8.808044e+01  -1.196057e+01
   2.679049e+01   3.664172e+00
   3.213295e+01   1.967880e+01
   1.857660e+01   1.011573e+02
  -8.515713e+01  -2.483290e+01
  -5.555545e+01   2.721906e+01
  -1.999746e+01  -8.796223e+01
   7.919313e+01  -6.357000e+01
   9.668111e+01   4.123262e+01
   7.326521e+01   1.089333e+02
  -3.567176e+01   1.757526e+02
  -1.818444e+02   9.333237e+01
  -2.012253e+02   6.825391e+00
  -6.644723e+01  -1.465786e+02
   1.728869e+01  -8.749837e+01
   3.905622e+01  -3.675538e+01
   7.035935e+01  -9.893760e+01
   4.377553e+00  -7.746649e+01
   3.462557e+01  -7.086116e+01
   1.070429e+02   2.955218e+00
   1.075946e+02   4.772676e+01
  -9.872933e-01   2.040734e+02
  -8.221310e+01   1.656479e+02
  -1.103200e+02  -9.746274e+00
  -9.959475e+01  -9.232161e+01
  -5.008285e+01  -1.389252e+02
   3.023724e+01  -5.976946e+01
   3.511322e+01   2.577284e+01
  -1.441980e+01   3.792554e+01
  -3.977151e+01   3.500571e+01
   6.614815e+01  -3.516966e+01
   7.395635e+01  -3.293496e+00
   1.033159e+00   4.266839e+01
  -5.251371e+01  -3.069929e+00
  -1.700839e+02   6.942314e+00
  -1.343591e+02  -1.762958e+01
   1.332681e+01  -5.265546e+01
   1.543560e+02  -5.013401e+01
   1.434174e+02  -2.121149e+01
   8.028890e+01   6.655648e-01
  -6.574768e+01   9.620877e+00
  -6.586308e+01  -3.234795e+01
   4.684687e+01  -2.850213e+01
   6.698829e+01  -4.835050e+01
   9.108609e+01   1.313003e+01
   4.682692e+01   6.999284e+01
   5.453624e+01   8.489209e-01
   7.574096e+01   9.802224e+00
   1.853259e+01  -8.494411e+00
   1.053152e+01   1.293087e+01
  -4.261421e+00   1.065635e+02
  -8.209433e+01   8.747896e+01
  -9.944480e+01   4.956741e+01
  -9.320154e+01  -4.352682e+01
   5.347146e+01  -6.056138e+01
   1.006445e+01  -7.995327e+01
   2.589844e+01   5.347310e+00
  -2.625022e+01   8.978492e+01
  -9.933085e+01  -6.980235e+01
  -8.827457e+01  -1.131758e+02
   3.253392e+01  -1.188843e+02
   1.540273e+02  -9.521485e+01
   7.282996e+01   5.614222e+01
   2.806709e+01   8.569918e+01
  -1.208890e+01   5.047389e+01
  -4.087131e+01  -2.209778e+01
   4.468587e+01  -1.780472e+01
   7.906891e+01   5.505311e+01
   4.587781e+01   7.304193e+01
  -6.512572e+01   1.166143e+02
  -1.161660e+02   1.666900e+01
  -4.138240e+01  -3.879911e+01
   8.903060e+00  -1.076958e+02
   4.916380e+01  -1.268727e+02
   8.168106e+01  -1.871361e+00
   3.758751e+01   7.073448e+01
   1.072754e+01   8.830946e+01
  -6.270776e+01  -5.193216e+00
  -2.964870e+01   2.345761e+01
   5.064813e+00   2.311513e+01
   1.680348e+01   2.987061e+01
  -4.265924e+01  -5.061068e+01
  -6.059703e+01  -5.070954e+01
  -4.673217e+01  -3.923705e+01
   6.342279e+01  -8.914284e+01
   1.256271e+02   4.214693e+01
   1.010634e+02   8.341902e+01
  -8.682823e+00   4.987473e+01
  -4.638463e+01  -5.468944e+00
  -5.674285e+01   2.804281e+01
   3.461819e+01  -3.392447e+01
   2.405134e+01  -6.993287e+01
   4.619933e+01  -1.984867e+01
  -3.518105e+01   3.639761e+01
   7.211591e+00  -4.956153e+01
   5.041295e+01  -1.758037e+01
   4.767411e+01  -2.190411e+01
  -9.594716e+00   6.818440e+00
  -5.560718e+01   5.105384e+01
  -1.026775e+02   2.477653e+01
  -7.038962e+01  -3.304021e+01
  -4.212123e-01  -1.453104e+02
   6.691179e+01  -7.176752e+01
   8.586188e+01   1.272660e+01
   8.189405e+01   3.489132e+01
   4.030257e+01   1.043336e+01
   1.574124e+01   4.485329e+00
   7.923238e+00   5.646875e+00
   6.350942e+01   1.567922e+01
   7.277366e+00   5.932007e+01
  -3.743618e+01   4.334364e+01
  -2.435707e+01   2.144569e+01
  -6.275571e+01  -6.314916e+01
  -8.510778e+00  -9.096130e+01
   5.040653e+01   3.259809e+01
   9.314881e+01   7.264960e+01
   2.296966e+01   3.959844e+01
  -5.015659e+01   1.717143e+01
  -1.018029e+02   2.230763e+01
  -2.179789e+01  -3.994754e+01
  -4.665000e+01  -3.933706e-01
   5.371806e+00  -2.265443e+01
  -3.005130e+01  -3.771818e-01
  -1.675998e+01   2.738157e+01
  -3.048884e+01   3.592063e+01
   1.068524e+01  -3.034023e+00
   4.922276e+01  -6.330084e+01
   4.288926e+01   7.026237e+01
   8.736076e+00   3.534227e+01
  -1.828454e+01   3.627902e+01
  -5.106215e+00  -6.063567e+00
  -1.895533e+01  -4.407031e+01
   3.745318e+01  -1.240264e+01
   2.035073e+01   2.364960e+01
   1.864298e+01   6.597140e+01
  -6.454468e+01   4.202954e+01
  -4.848415e+01   5.634323e+00
  -3.528172e+01  -2.258267e+01
  -2.979569e+01   2.231169e+01
   1.935122e+00   3.387552e+01
  -1.078512e+01   3.101154e+01
   1.592511e+01  -3.785357e+01
   3.043391e+01   5.990966e+00
   2.537975e+01  -3.275229e+01
   8.604583e+01   3.091226e+01
  -1.517354e+01   4.700345e+01
  -4.058404e+01  -6.225091e+01
  -4.784903e+01   1.596012e+01
  -5.631377e+01  -3.171490e+01
   6.889391e+01   2.626847e+00
   8.745079e+01   1.225327e+01
   4.714882e+01  -2.970515e+01
   3.214303e+01   8.360909e+01
  -3.917665e+01   3.459627e+01
  -5.542963e+00  -3.646241e+01
   5.330063e+01  -4.943418e+01
   3.713482e+01  -2.387417e+01
  -2.555554e+00   2.833336e+01
  -6.945411e+01  -3.567397e+00
