
 $NMID
 id='ANONYMOUS ', fmtdat='(2E16.6)'
 volume=1.0
 tramp=1.0
 $END
  -3.367785e+03   6.847573e+01
  -2.247066e+03  -1.711171e+03
   8.631035e+01  -2.166101e+03
   1.294523e+03  -1.238383e+03
   9.634347e+02  -7.867386e+01
  -1.021328e+02   2.895679e+02
  -4.869112e+02  -8.576394e+01
  -5.411587e+01  -6.662997e+02
   5.184669e+02  -6.345765e+02
   6.743946e+02  -1.112434e+02
   4.567772e+02   5.829708e+02
  -6.642401e+01   7.468864e+02
  -3.078029e+02   1.555341e+02
  -2.812570e+02  -4.446814e+02
   1.091531e+02  -5.417320e+02
   4.312578e+02  -4.242422e+01
   3.220447e+02   4.655415e+02
  -1.592044e+02   5.589763e+02
  -4.581203e+02   2.453114e+02
  -4.235631e+02  -2.398670e+02
  -1.777287e+02  -3.872742e+02
   1.595379e+02  -2.143915e+02
   6.469172e+01  -5.876055e+01
  -1.534678e+02  -1.034701e+02
  -2.723064e+02  -2.581321e+02
  -2.584073e+00  -3.825549e+02
   4.715305e+02  -2.049464e+02
   6.178550e+02   1.132259e+02
   2.923869e+02   3.571298e+02
  -3.179214e+02   2.065060e+02
  -5.855033e+02  -1.121329e+02
  -2.651207e+02  -3.909829e+02
   2.142034e+02  -4.173632e+02
   4.559539e+02  -1.821131e+02
   3.831770e+02   1.510619e+02
   1.209324e+02   3.081282e+02
  -4.934489e+01   1.953407e+02
   2.291471e+01  -1.268786e+02
   2.040861e+02  -1.926779e+02
   2.464658e+02   1.198634e+02
   2.730636e+01   4.920835e+02
  -2.541209e+02   4.792205e+02
  -3.531866e+02   2.402675e+01
  -1.654059e+02  -3.649927e+02
   2.260324e+02  -2.005888e+02
   1.905201e+02   2.838509e+02
  -7.260623e+01   4.181075e+02
  -4.339597e+02   1.392407e+02
  -5.015521e+02  -3.608269e+02
  -1.962901e+02  -4.956415e+02
   2.982441e+02  -3.312443e+02
   5.422902e+02   8.400406e+01
   3.201714e+02   3.056480e+02
  -5.766895e+01   2.730209e+02
  -2.944661e+02   6.855057e+01
  -2.224054e+02  -9.544974e+01
   5.323103e+00  -3.777252e+01
   1.119196e+02  -1.266335e+00
  -9.721193e+01   1.027055e+02
  -2.912922e+02  -3.743230e+01
  -1.304057e+02  -2.366613e+02
   1.778381e+02  -2.707770e+02
   3.479052e+02  -1.617555e+02
   2.237623e+02   3.507257e+01
  -3.980930e+01   2.994838e+02
  -2.465581e+02   2.970015e+02
  -3.183313e+02   1.395614e+02
  -2.366321e+02  -1.276772e+02
  -6.219594e+01  -3.753555e+02
   5.807941e+01  -3.820863e+02
   2.251147e+01  -1.863409e+02
   4.129388e+01  -1.048802e+02
   1.387347e+02  -1.140263e+02
   2.120660e+02  -3.951747e+01
   2.470600e+02   1.344772e+02
   1.227224e+02   2.557768e+02
  -9.459478e+01   1.729861e+02
  -2.385930e+02   1.093820e+01
  -1.200237e+02  -2.202131e+02
   3.129208e+01  -2.544901e+02
   2.509038e+02  -1.294929e+02
   2.882974e+02   1.375062e+02
   1.410154e+02   3.068365e+02
  -5.522174e+01   2.944766e+02
  -1.757203e+02   1.998549e+02
  -1.768022e+02   6.868152e+01
  -1.004878e+02   4.934228e+01
  -2.992905e+02   3.364793e+01
  -3.843425e+02  -9.326794e+01
  -4.039969e+02  -3.220717e+02
   2.117744e+01  -4.129305e+02
   3.281314e+02  -4.127399e+02
   4.862208e+02  -2.055105e+02
   3.101797e+02   2.401754e+01
   6.741529e+00   2.469590e+02
  -1.168377e+02   1.777203e+02
  -1.998575e+01   3.683900e+01
   1.102441e+02  -8.669137e+01
   7.436606e+01   5.063387e+01
  -2.612453e+01   2.031071e+02
  -1.236566e+02   1.493864e+02
  -1.162802e+02  -2.550204e+01
  -2.171795e+01  -1.821814e+02
   1.508171e+02   4.813922e+01
   1.881648e+02   1.916717e+02
   2.828604e+01   3.354767e+02
  -2.359211e+02   2.573299e+02
  -3.408010e+02  -8.288633e+01
  -2.550476e+02  -2.614633e+02
  -6.318739e+01  -2.534533e+02
   1.189330e+02  -1.549584e+02
   1.805816e+02  -7.535396e+00
  -2.053617e+01  -2.767308e+00
  -8.625121e+01  -2.664019e+01
   2.015904e+01  -1.120970e+02
   1.160017e+02  -6.940951e+01
   1.407834e+02   1.414563e+01
   5.439749e+01   8.419638e+01
  -5.711831e+01  -3.240943e+01
  -7.297534e+01  -9.327064e+01
   1.594989e+02  -8.218875e+01
   3.083128e+02   5.355264e+01
   2.900897e+02   1.437684e+02
   4.141213e+01   2.693266e+02
  -2.170099e+02   2.157027e+02
  -2.828864e+02   8.956067e+01
  -8.234949e+01  -8.064042e+01
   4.411766e+01  -8.540369e+01
   9.522993e+01  -2.402839e+01
  -7.734467e+01   6.092364e+01
  -1.788820e+02   4.697915e+01
  -1.782139e+02  -1.083864e+02
  -2.597296e+01  -1.984483e+02
   1.202650e+02  -1.351372e+02
   1.161938e+02  -4.491021e+01
   7.001106e+01   5.571005e+01
  -5.820242e+01  -3.571208e+01
  -9.981251e-01  -9.224153e+01
   1.211251e+02  -8.509724e+01
   2.139701e+02   1.849080e+01
   1.937094e+02   2.086225e+02
  -1.013416e+01   1.990966e+02
  -2.158969e+02   1.134965e+02
  -1.513797e+02   1.872791e+01
  -6.368101e+01  -1.480698e+02
   7.643682e+01  -8.650527e+01
   5.412953e+01  -1.068609e+01
   2.225500e+01  -3.380708e+01
  -4.206114e+01   1.614986e+01
   3.167245e+00  -3.183635e+01
   8.657220e+01  -1.573200e+01
   8.925658e+01   1.251038e+02
   3.943698e+01   1.833854e+02
  -1.368104e+02   1.609460e+02
  -2.051253e+02   5.772746e+01
  -1.522299e+02  -1.644527e+02
  -2.449615e+01  -2.035464e+02
   8.690610e+01  -2.149402e+02
   1.507859e+02  -3.626013e+01
   1.267396e+02   5.281095e+01
   6.818659e+01   5.718134e+01
   3.396828e+01  -7.171083e+01
   9.585783e+01  -5.170017e+01
   2.305419e+01   2.896794e+01
  -4.952258e+00   1.259391e+02
  -1.081556e+02   8.957134e+01
  -1.293677e+02  -1.007068e+01
   1.894454e+00  -1.098471e+02
   1.923821e+02  -8.798445e+01
   2.300428e+02   4.566262e+01
   7.528332e+01   2.493922e+02
  -1.987712e+02   2.265536e+02
  -2.359969e+02   4.603239e+01
  -2.894430e+02  -1.328546e+02
  -6.523951e+01  -1.158222e+02
   7.004202e+01  -1.849484e+02
   8.456480e+01  -8.801125e+01
   4.255155e+00  -6.331579e+01
   9.717425e+01  -8.683446e+01
   2.290343e+01  -8.972992e+01
   1.582485e+02  -6.081134e+00
   1.202219e+02   1.537020e+02
   4.231967e+01   2.075240e+02
  -1.288609e+02   1.632272e+02
  -1.571557e+02   1.330218e+00
  -1.639452e+02  -1.526033e+02
  -1.309164e+01  -1.793470e+02
   3.916836e+01  -3.943309e+01
   9.651243e+01   6.846255e+01
   4.121864e+01   1.000565e+02
  -3.455475e+01   5.708202e+01
   7.482230e+01  -1.572932e+01
   4.673947e+01  -2.490782e+01
   9.842187e+01   3.890393e+01
  -7.945656e+01   7.462522e+01
  -2.156506e+02   3.494384e+01
  -1.288333e+02  -2.328025e+01
   1.948025e+01  -1.392402e+02
   1.685452e+02  -3.302382e+01
   1.201409e+02   1.026014e+00
   6.677864e+01   3.601180e+01
  -5.492509e+01   9.703207e+00
  -8.237658e+01  -4.896514e+01
   1.278895e+01  -5.334789e+01
   3.690168e+00  -6.259712e+01
   9.627370e+01   8.345991e-02
   1.102548e+02   1.121293e+02
   5.737531e+01   9.559323e+01
   5.454867e+01  -1.328418e-01
   4.983952e+01  -4.254071e+01
   9.617820e+01   8.287186e+01
  -7.476182e+00   1.507063e+02
  -1.057826e+02   1.604474e+02
  -1.547341e+02  -3.602471e+00
  -1.522056e+02  -6.897457e+01
   2.288041e+01  -1.094893e+02
   1.155196e+02  -5.545706e+01
   7.953178e+01   2.509946e+01
  -5.222285e+01   8.670133e+01
  -1.610251e+02  -4.165065e+01
  -8.993149e+01  -1.119326e+02
   1.181126e+02  -1.221427e+02
   2.130493e+02  -4.228219e+01
   1.755869e+02   8.313242e+01
   5.681965e+01   1.069928e+02
  -3.620238e+01   2.991524e+01
  -4.670688e+01  -2.225397e+01
   2.540446e+01  -3.507537e+01
   4.838027e+01   4.997262e+01
   5.504461e+01   1.027341e+02
  -6.230084e+01   1.478444e+02
  -1.359015e+02   1.208749e+01
  -1.357065e+02  -1.024334e+02
  -5.183945e+01  -1.865006e+02
   6.002858e+01  -1.417945e+02
   7.546407e+01   4.185678e+01
   5.044746e+01   1.786277e+02
   9.428061e+00   5.326672e+01
  -4.025420e+01   1.881940e+01
  -7.097309e+01  -8.614040e+01
  -4.872019e+01   3.615993e+01
   1.826334e+01   2.440805e+01
   2.507769e+01  -1.357606e+01
  -1.109187e+02  -1.165457e+02
  -1.720441e+01  -1.111390e+02
   7.908215e+01  -4.574716e+01
   1.398310e+02   6.304587e-01
   1.329087e+02   5.431273e+01
   2.990411e+01   5.103604e+01
  -7.079255e+01   1.963476e+01
  -7.977338e+01   2.995396e+01
  -2.817562e+00   1.788428e+01
   4.205325e+01  -3.474985e+01
   2.372735e+01   1.483956e+01
   2.323250e+01  -7.580370e-01
   1.117725e+01  -4.089178e-01
   5.322983e+01  -4.011384e+00
   9.867562e+01   6.784400e+01
  -6.795321e+00   8.943012e+01
  -1.481342e+02   9.731366e+01
  -1.894839e+02   7.849070e+01
  -1.495369e+02   1.151260e+01
  -1.655500e+01  -1.558031e+02
   7.304798e+01  -9.517344e+01
   1.184855e+02  -1.120926e+02
   1.035674e+02   2.352774e+01
   4.367397e+01  -2.932128e+00
   1.693614e+01  -6.169192e+01
  -3.379561e+01  -1.821234e+00
   2.067307e+01   6.861313e+01
  -9.114813e+00   5.379970e+01
  -6.702465e+01   4.962340e+01
  -3.956497e+01  -3.219049e+01
  -5.040348e+01  -1.334954e+02
  -4.173304e+01  -9.839519e+01
   1.092347e+02  -8.556006e+01
   1.027331e+02   2.300901e+01
   4.489775e+01   1.007143e+02
  -5.195255e+01   1.245369e+02
  -9.396906e+01   3.115882e+01
  -6.958600e+01  -7.586368e+01
   1.103999e+01  -5.033800e+01
  -1.047986e+00   6.332409e+00
   3.598287e+00   1.123057e+01
  -1.024307e+02   1.370341e+01
  -2.994942e+01  -5.484545e+01
   8.954748e+01  -7.561627e+01
   1.466319e+02  -1.546768e+01
   5.238129e+01  -2.707036e+00
  -5.052777e+01   1.432052e+02
  -5.725484e+00   5.385445e+01
  -6.554605e+01  -1.683693e+01
  -4.042302e+01  -1.018754e+02
   8.258970e+00  -4.018159e+01
   3.000592e+01   5.439460e+00
   1.909034e+00   4.963411e+01
  -4.467636e+01   3.172915e+01
   2.461634e+00  -1.612298e+01
  -3.103634e+01  -2.155326e+01
  -2.225914e+01   1.634537e+01
   3.262300e+01  -7.242417e+00
  -4.125940e+00   4.082044e+00
  -4.604635e+01  -3.854192e+01
   3.844056e+00  -1.782632e+01
   5.274803e+01  -5.229965e+01
   4.771513e+01   4.030617e+01
   3.759469e+01   5.623812e+01
  -1.031708e+01  -2.685009e+00
  -9.675904e+01  -3.295635e+01
   3.792683e+01  -3.131655e+01
   4.699738e+01  -5.151098e+01
   5.418465e+01  -3.348555e+01
   9.198684e+00   2.173741e+01
  -2.127535e+01   8.138805e+00
  -3.629463e+01   2.781265e-01
  -7.442906e+01  -5.593776e+00
   2.199564e+00  -8.566261e+00
   4.071894e+01   4.223270e+01
  -2.490821e+01  -1.204918e+01
  -3.663432e+01  -1.150448e+01
