
 $NMID
 id='ANONYMOUS ', fmtdat='(2E16.6)'
 volume=1.0
 tramp=1.0
 $END
  -4.710225e+03   3.784280e+01
  -2.646421e+03  -2.872860e+03
   8.816252e+02  -3.006924e+03
   2.339911e+03  -9.201936e+02
   1.026249e+03   7.925015e+02
  -8.302687e+02   6.447749e+02
  -1.023786e+03  -4.322635e+02
   4.500725e+00  -1.158022e+03
   8.956033e+02  -8.184097e+02
   1.041026e+03   1.263318e+02
   4.536671e+02   9.414454e+02
  -3.451549e+02   9.354021e+02
  -7.160894e+02   6.248336e+01
  -4.226562e+02  -7.801002e+02
   2.649279e+02  -8.084257e+02
   6.339546e+02   1.435939e+01
   2.115656e+02   7.183861e+02
  -3.536488e+02   6.372871e+02
  -6.192106e+02   7.197168e+01
  -4.130391e+02  -3.730878e+02
  -7.699094e+00  -4.748154e+02
   2.983803e+02  -3.395073e+02
   2.270618e+02   3.930512e+01
  -9.713443e+01   1.170373e+02
  -4.171882e+02  -4.808173e+01
  -2.177992e+02  -4.921811e+02
   3.989526e+02  -4.421593e+02
   9.130250e+02   1.923313e+01
   4.966271e+02   6.121527e+02
  -4.406717e+02   5.468672e+02
  -8.058169e+02  -2.187162e+00
  -3.418959e+02  -5.628881e+02
   3.069145e+02  -5.794984e+02
   6.102774e+02  -1.875283e+02
   4.415814e+02   2.891546e+02
   5.156646e+01   4.998468e+02
  -1.867697e+02   3.450761e+02
  -2.119417e+02  -2.398001e+02
   1.013331e+02  -4.485498e+02
   5.071817e+02   8.743941e+00
   2.911097e+02   6.975717e+02
  -3.417014e+02   7.792255e+02
  -6.667993e+02   4.672654e+01
  -3.298562e+02  -6.096951e+02
   3.927987e+02  -3.602277e+02
   3.938580e+02   3.603450e+02
  -6.657603e+01   5.786857e+02
  -5.796013e+02   1.517721e+02
  -6.577734e+02  -4.762131e+02
  -1.619247e+02  -6.324795e+02
   3.734349e+02  -4.239848e+02
   6.591511e+02   8.187479e+01
   3.627467e+02   4.157103e+02
  -1.507847e+02   3.814700e+02
  -4.651279e+02   8.123530e+01
  -2.294687e+02  -2.577178e+02
   1.536817e+02  -1.096828e+02
   1.518029e+02   2.293077e+02
  -1.760085e+02   2.219710e+02
  -4.053650e+02  -9.322303e+01
  -1.347321e+02  -3.653842e+02
   2.350479e+02  -2.436307e+02
   3.180391e+02  -5.137812e+01
   1.574103e+02   3.309536e+01
  -1.214313e+01   2.149559e+02
  -1.822788e+02   3.338620e+02
  -3.358545e+02   1.601315e+02
  -3.149679e+02  -1.254163e+02
  -8.635090e+01  -4.641562e+02
   1.459119e+02  -3.945348e+02
   1.616691e+02  -1.355507e+02
   2.336395e+01   1.997419e+01
   6.090663e+00  -5.239813e+01
   2.032681e+02  -1.581878e+02
   2.706682e+02   3.435075e+01
   2.071347e+02   2.531588e+02
  -7.755540e+01   2.658923e+02
  -2.488043e+02   6.007143e+01
  -2.202170e+02  -2.370396e+02
   1.163095e+01  -2.970714e+02
   2.633813e+02  -8.198560e+01
   4.147526e+02   1.536626e+02
   1.987588e+02   3.573090e+02
  -8.654615e+01   3.211960e+02
  -2.278166e+02   9.375878e+01
  -2.096614e+02  -1.744213e+01
  -8.894455e+01  -2.037551e+01
  -1.588342e+02   8.489950e+01
  -4.458199e+02  -4.352249e+01
  -3.642006e+02  -2.562545e+02
  -2.592990e+01  -4.963703e+02
   3.368978e+02  -4.153357e+02
   5.155681e+02  -2.139130e+02
   3.709277e+02   4.360272e+01
   4.562288e+01   2.764136e+02
  -1.504855e+02   2.417720e+02
  -1.041880e+02   3.836977e+01
   9.645907e+01  -8.685260e+01
   2.547048e+02  -2.253299e+00
   4.500479e+01   2.263748e+02
  -2.042568e+02   1.778739e+02
  -2.082740e+02  -5.591971e+01
   1.656149e+01  -2.289234e+02
   1.461619e+02   5.479751e+00
   1.558391e+02   2.635493e+02
  -4.118419e+01   3.431179e+02
  -2.389975e+02   2.163532e+02
  -3.477382e+02  -4.343401e+01
  -2.703689e+02  -2.603840e+02
  -1.023334e+02  -2.501043e+02
   1.698125e+02  -1.446798e+02
   1.919898e+02  -2.206124e+01
   7.993214e+01  -9.806650e+00
  -3.290246e+01  -9.930578e+01
  -3.534609e+01  -1.507058e+02
   1.435637e+02  -9.604523e+01
   1.958186e+02  -1.717573e+01
   2.968839e+01   4.157541e+01
  -7.520256e+01  -5.577294e+01
  -2.381321e+01  -1.025273e+02
   6.720386e+01  -8.959908e+01
   2.989980e+02  -2.756405e+01
   2.656941e+02   1.789301e+02
   3.086780e+01   2.395199e+02
  -2.403997e+02   2.413254e+02
  -3.114791e+02   1.404435e+02
  -2.155198e+02  -4.947334e+01
  -3.000217e+00  -1.243818e+02
   1.112401e+02  -3.078242e+01
  -1.340416e+01   8.157355e+01
  -1.769043e+02   9.687832e+01
  -2.428990e+02  -1.069794e+02
  -9.155526e+01  -2.474316e+02
   1.052315e+02  -1.868455e+02
   1.267330e+02   3.031458e+01
   9.446476e+01   6.154173e+01
  -7.269274e+00  -5.109437e+01
  -6.449830e+01  -8.659144e+01
   6.386778e+01  -1.032281e+02
   1.751419e+02   2.323168e+01
   2.379589e+02   1.148811e+02
   3.894036e+01   1.589977e+02
  -1.764424e+02   2.153506e+02
  -1.904732e+02  -9.204428e+00
  -7.927756e+01  -1.148466e+02
   5.155852e+01  -1.275613e+02
   7.560682e+01  -5.447483e+01
   3.745228e+01   7.672684e+00
  -2.548114e+01   6.758901e+01
   2.258215e+01   2.929637e+01
   6.990113e+01   3.030113e+00
   3.775504e+01   1.063719e+02
   3.129472e+00   1.031717e+02
  -1.825385e+02   1.812304e+02
  -2.510806e+02   5.701899e+01
  -1.495986e+02  -1.290926e+02
  -6.462524e+00  -1.942486e+02
   1.455777e+02  -1.413988e+02
   1.154515e+02   6.030468e+00
   9.865262e+01   3.607014e+01
   4.521648e+01   3.467604e+01
   1.274123e+02   2.904290e+01
   1.251560e+02   2.073454e+01
   1.322305e+01   2.312826e+01
  -2.175163e+01   1.186378e+02
  -7.916399e+01   4.652808e+01
  -7.116384e+01  -4.390613e+01
  -1.316881e+01  -1.120788e+02
   1.072408e+02  -5.651186e+01
   2.310191e+02   5.373627e+01
   1.073781e+02   1.820577e+02
  -9.348135e+01   2.265345e+02
  -2.882789e+02   1.070743e+02
  -2.622219e+02  -8.070472e+01
  -1.609259e+02  -2.045599e+02
   6.072784e+01  -9.727356e+01
   9.462503e+01  -8.163850e+01
   1.009648e+02  -6.909346e+01
   6.714205e+01  -1.498645e+02
   3.533586e+01  -4.326202e+01
   7.586611e+01   2.390089e+01
   1.086661e+02   1.308458e+02
   3.078448e+01   1.922478e+02
  -7.926528e+01   2.083171e+02
  -1.924354e+02   4.751240e+01
  -1.537256e+02  -1.331525e+02
  -4.215193e+01  -1.154946e+02
   6.439046e+01  -7.573981e+01
   4.619390e+01  -6.805490e+01
  -3.710448e+01   9.860673e+00
  -8.431661e+01   2.652069e+01
   4.368338e+01   2.253697e+01
   5.783723e+01   3.535863e+01
  -1.128807e+01   7.189375e+00
  -5.858007e+01   2.592597e+01
  -1.323678e+02   5.751447e+01
  -1.688789e+02  -5.974218e+01
   2.158815e+01  -9.421014e+01
   1.372591e+02  -7.173036e+01
   1.294107e+02  -1.624467e+01
   4.753596e+01   7.010878e+01
  -2.335577e+01   6.891335e+01
  -6.254357e+01   3.168184e+00
  -1.762979e+01  -7.221367e+01
   6.362465e+01  -5.072599e+01
   8.666308e+01   8.992075e+00
  -6.936095e+00   4.206880e+01
   1.105929e+01   6.516018e+01
   6.045317e+01   9.004093e+00
   4.755874e+01  -6.811823e+00
   1.579621e+01   4.251809e+01
  -4.097460e+01   1.476822e+02
  -9.699510e+01   1.753081e+02
  -1.444373e+02   4.713345e+00
  -1.599120e+02  -7.529014e+01
  -2.025007e+01  -1.151493e+02
   1.073889e+02  -7.231692e+01
   7.120536e+01  -8.056461e+00
  -1.104324e+02  -4.184362e+01
  -9.541322e+01  -5.686548e+01
  -5.677270e+01  -1.209317e+02
   1.239791e+02  -1.159569e+02
   1.856084e+02  -5.112844e+01
   1.863078e+02  -4.142228e+01
   6.343618e+01   6.738929e+01
  -4.065945e+01   4.292027e+01
  -4.878350e+01  -5.249640e+00
   6.130787e+01  -5.138635e+00
   4.978495e+01   4.571309e+01
   9.562507e+00   9.065546e+01
  -1.011565e+02   1.892676e+02
  -1.447534e+02   1.124161e+02
  -1.684830e+02  -1.083755e+02
  -5.298146e+00  -2.033105e+02
   7.455224e+01  -1.583750e+02
   1.202154e+02  -1.845081e+01
   5.884486e+01   4.833400e+01
   8.709759e+00   1.384695e+02
  -6.758611e+00   5.027150e+01
  -6.011739e+01  -3.544396e+01
  -7.005711e+01  -1.424621e+01
  -8.682528e+00  -4.507366e+01
  -1.579929e+01   3.997730e+01
  -8.255028e+01  -3.427626e+01
  -3.765874e+01  -7.389142e+01
   4.828318e+01  -7.767561e+01
   1.717620e+02   1.710582e+01
   1.415769e+02   9.678431e+01
  -9.146030e+00   9.245897e+01
  -1.020077e+02   2.574268e+01
  -1.408762e+02   2.532166e+01
  -3.877648e+01  -3.466274e+00
   7.574695e+01   1.010365e+01
   4.154269e+01  -2.445373e+01
  -6.598263e+01   1.049125e+01
   1.394848e+01   1.131751e+01
   7.203040e+01   8.089739e+01
   7.830836e+01   3.451596e+01
   2.915818e+01   4.689390e+01
  -1.214790e+02   1.637270e+02
  -1.986113e+02   6.793847e+01
  -1.589821e+02  -9.470848e+01
  -9.812366e+00  -1.828348e+02
   2.184510e+01  -1.146615e+02
   1.201655e+02  -4.052843e+01
   9.024176e+01   1.432880e+01
   2.706065e+01   6.062469e+01
   8.636272e+00   2.565152e+01
   6.167730e+01  -2.905847e+01
   4.615400e+01   1.492924e+01
   3.638099e+01   5.687951e+01
  -5.115873e+01   1.073884e+02
  -2.934446e+01   2.718067e+00
  -8.657508e+01  -1.186854e+02
   1.291768e+01  -1.362678e+02
   6.272043e+01   6.336413e+00
   1.621187e+02   3.142572e+01
   5.096956e+01   9.753432e+01
  -8.949015e+01   3.626310e+01
  -1.217015e+02  -4.778787e+01
  -2.023732e+01  -9.541356e+01
   5.512408e+01  -3.651734e+01
   3.310721e+01  -4.863455e+01
  -4.696802e+01  -2.166639e+01
  -7.191969e+01   6.753017e+00
  -4.688333e+01   2.470840e+01
   8.401392e+01  -8.921798e+01
   9.583431e+01  -5.459289e+01
   8.413718e+01  -1.507433e+01
  -6.383945e+01   9.596320e+01
  -3.973384e+01   7.781906e+01
  -4.703618e+01   2.036526e+01
   5.198448e+01  -4.685162e+01
   8.201306e+01  -3.628228e+01
   5.766019e+01   2.634122e+01
  -2.582791e+01   6.877748e+00
  -2.710273e+01   2.131105e+01
  -8.522654e+01   2.022722e+01
  -5.416828e+01  -2.481246e+01
  -5.155927e+01   1.452084e+00
   2.502262e+01  -4.788758e+00
  -5.613872e+01   1.890113e+01
   1.628974e+00  -4.348781e+01
   6.508270e+01  -6.991346e+01
   5.912825e+01   1.606518e+00
   3.326287e+01   1.855542e+01
   5.936445e+01   5.489260e+01
  -9.123470e+01   4.026947e+01
  -1.714292e+01  -6.325276e+01
  -6.265850e+00  -1.022663e+02
   3.338548e+01  -3.055472e+01
   9.766450e+01   4.180122e+01
   7.647505e+01   1.842101e+00
  -5.182796e+01   2.053244e+01
  -7.427234e+01  -2.238702e+01
  -2.857444e+01   2.896012e+01
   7.530319e+01  -1.863420e+01
   4.178553e+01   7.657355e+01
  -2.525677e+00   2.074050e+01
  -1.280492e+02   2.808258e+01
