
 $NMID
 id='ANONYMOUS ', fmtdat='(2E16.6)'
 volume=1.0
 tramp=1.0
 $END
   4.801522e+03  -5.535904e+01
   2.712956e+03   2.898027e+03
  -9.343243e+02   3.029332e+03
  -2.345847e+03   7.997623e+02
  -9.762722e+02  -8.340749e+02
   8.268867e+02  -6.893560e+02
   1.045386e+03   5.494026e+02
  -2.385636e+01   1.248476e+03
  -9.794764e+02   8.254284e+02
  -1.057633e+03  -1.705605e+02
  -4.458606e+02  -9.455676e+02
   3.113157e+02  -9.929992e+02
   7.454229e+02  -1.046797e+02
   4.664590e+02   7.712454e+02
  -3.343837e+02   7.984430e+02
  -6.142977e+02  -8.690748e+01
  -2.812541e+02  -7.415541e+02
   4.016535e+02  -6.715370e+02
   5.682890e+02  -4.895963e+01
   3.701562e+02   4.006934e+02
  -1.495615e+01   5.086901e+02
  -2.378679e+02   2.886660e+02
  -2.434754e+02  -7.354722e+00
   1.358713e+02  -1.260285e+02
   4.299878e+02   1.081926e+02
   2.677346e+02   5.129357e+02
  -4.280827e+02   4.697715e+02
  -9.479981e+02  -5.214510e+01
  -4.558872e+02  -6.007413e+02
   4.364483e+02  -5.545310e+02
   8.097025e+02   3.980544e+01
   3.479300e+02   5.075824e+02
  -3.109415e+02   6.019769e+02
  -6.101474e+02   1.682002e+02
  -4.105808e+02  -2.289253e+02
  -8.089935e+01  -5.306440e+02
   2.874075e+02  -3.097544e+02
   2.177869e+02   2.525424e+02
  -1.995763e+02   5.210880e+02
  -5.465847e+02   1.918488e+01
  -3.134340e+02  -7.391659e+02
   3.191664e+02  -7.366407e+02
   6.919187e+02   3.485978e+01
   2.534524e+02   6.501498e+02
  -3.585967e+02   4.069737e+02
  -4.374637e+02  -3.737865e+02
   7.796072e+01  -5.664429e+02
   5.909374e+02  -1.482928e+02
   6.481318e+02   4.275008e+02
   1.924230e+02   6.194673e+02
  -4.774703e+02   3.256972e+02
  -6.772170e+02  -8.862166e+01
  -3.971211e+02  -4.281934e+02
   1.856183e+02  -3.954722e+02
   4.874608e+02  -1.175284e+02
   2.761537e+02   2.332729e+02
  -1.738074e+02   1.141350e+02
  -1.517885e+02  -1.993371e+02
   1.113728e+02  -2.616679e+02
   3.700372e+02   8.550094e+01
   1.138192e+02   3.886925e+02
  -1.657696e+02   2.440392e+02
  -3.888556e+02   1.043773e+02
  -1.380749e+02  -1.006328e+02
   3.846890e+01  -1.665327e+02
   2.024387e+02  -3.237828e+02
   3.627524e+02  -2.286594e+02
   2.519275e+02   1.273698e+02
   1.409469e+02   4.403807e+02
  -1.267742e+02   3.964137e+02
  -1.051515e+02   6.862542e+01
  -6.318414e+01  -4.176996e+01
  -5.546700e+00   3.280168e+01
  -1.757252e+02   1.798141e+02
  -2.904390e+02   2.709235e+01
  -1.935082e+02  -2.173342e+02
   6.356085e+01  -2.595414e+02
   2.484113e+02  -5.414304e+01
   2.453752e+02   1.913415e+02
   1.000966e+01   3.274952e+02
  -2.776792e+02   1.243130e+02
  -4.069382e+02  -1.627989e+02
  -1.546382e+02  -3.749449e+02
   7.802543e+01  -3.162973e+02
   3.082565e+02  -1.452104e+02
   1.621406e+02   4.465066e+01
   4.346332e+01  -5.908212e+01
   1.793846e+02  -8.067637e+01
   3.808662e+02  -1.003201e+01
   3.782161e+02   2.598650e+02
   4.332531e+01   4.608927e+02
  -3.577327e+02   4.124300e+02
  -5.070819e+02   2.310014e+02
  -3.731968e+02  -9.039380e+01
  -7.216740e+01  -3.199046e+02
   9.029032e+01  -2.407072e+02
   6.666177e+01  -7.272317e+01
  -8.141212e+01   1.159456e+02
  -2.573183e+02   2.192437e+01
  -8.274478e+01  -1.985907e+02
   1.836654e+02  -2.227783e+02
   2.090503e+02   7.975247e+01
  -2.832859e+01   2.559531e+02
  -2.073106e+02  -7.657077e+00
  -1.339826e+02  -2.823429e+02
   5.911104e+01  -3.964057e+02
   1.923556e+02  -1.975038e+02
   3.580092e+02   6.601728e+01
   2.201484e+02   2.499066e+02
   8.797085e+01   2.651022e+02
  -8.833745e+01   1.909169e+02
  -2.441998e+02   2.465603e+01
  -5.599409e+01  -3.086673e+01
   9.233734e+01   6.818937e+00
   1.263367e+02   7.031158e+01
  -1.233297e+02   9.390407e+01
  -1.982238e+02  -1.567140e+01
  -1.019503e+02  -5.435797e+01
   1.132077e+02  -2.004791e+01
   4.337480e+01   7.015028e+01
  -1.054569e+02   9.904583e+01
  -2.790574e+02   9.101346e+01
  -2.518683e+02  -1.661332e+02
  -6.766762e+01  -2.387241e+02
   1.476982e+02  -2.920086e+02
   3.540444e+02  -1.394062e+02
   1.933805e+02   8.632375e+01
  -2.505032e+01   8.800882e+01
  -1.516867e+02  -1.354093e+01
  -7.111533e-01  -1.284923e+02
   2.437010e+02  -6.077883e+01
   2.749788e+02   5.896828e+01
   9.620809e+01   2.110129e+02
  -1.167187e+02   1.046048e+02
  -1.778588e+02  -4.868453e+00
  -2.527497e+01  -5.281201e+01
   1.316667e+01  -1.476146e+01
   7.598317e+01   1.122934e+02
  -5.648272e+01   9.044164e+01
  -1.465426e+02   4.395808e+01
  -2.205307e+02  -9.147220e+01
  -4.055183e+01  -1.880990e+02
   1.938942e+02  -1.752792e+02
   1.921259e+02   4.939512e+01
   3.249862e+01   8.430640e+01
  -5.974661e+01   7.850467e+01
  -1.117529e+02   1.253145e+01
  -2.588225e+01  -3.950239e+01
   1.220644e+01  -2.593949e+01
  -3.986554e+01  -1.095931e+01
  -7.156052e+01   3.207579e+01
  -1.023512e+02  -1.186618e+02
  -4.051026e+01  -1.161483e+02
   1.092631e+02  -2.097916e+02
   1.828446e+02  -4.561427e+01
   2.315904e+02   1.542001e+02
   2.502464e+01   2.116650e+02
  -7.350866e+01   1.648826e+02
  -1.998343e+02   6.860001e+00
  -5.609425e+01  -9.463744e+01
   1.874833e+01  -1.946464e+01
  -5.935798e+01   2.463791e+01
  -3.291590e+01   2.428417e+01
  -5.231793e+01  -1.170636e+01
   3.379254e+01  -6.513658e+01
   4.940790e+01  -7.758488e+01
   7.150487e+01   2.929719e+01
   3.337698e+01   1.556256e+02
  -1.495423e+02   1.099251e+02
  -1.660773e+02  -2.766024e+01
  -1.081111e+02  -1.958042e+02
   3.702483e+01  -2.990980e+02
   2.425394e+02  -1.621600e+02
   2.989185e+02   8.443171e+01
   1.610961e+02   1.759650e+02
  -7.159633e+00   1.571302e+02
  -8.717956e+01   9.683176e+01
  -4.725848e+01   7.535273e+01
  -6.583269e+01   1.321141e+02
  -1.205079e+02   1.275487e+00
  -1.103534e+02  -1.928030e+01
  -1.207074e+02  -1.817742e+02
  -3.850839e+01  -1.751385e+02
   8.730853e+01  -1.708246e+02
   2.605373e+02  -3.886613e+01
   1.137528e+02   8.661681e+01
   6.862247e+01   1.299848e+02
  -6.675491e+01   6.600585e+01
  -2.922899e+01   4.728531e+00
   1.909688e+01  -2.051927e+01
   1.685462e+01  -2.394599e+00
   6.022337e+00  -3.513753e+01
  -9.974417e+01   1.895908e+01
  -3.232914e+01   2.442679e+00
   6.362576e+01  -2.245483e+01
   2.194756e+02  -4.465762e+01
   1.498217e+02   2.602935e+01
   7.685706e+00   5.665770e+01
  -9.613769e+01   8.559113e+01
  -1.612200e+02   4.339807e+00
  -4.599964e+01  -5.328267e+01
   8.395009e+01  -3.248253e+01
   5.279838e+01   4.481901e+01
  -5.537713e+00   2.090630e+01
  -4.978145e+01   5.443963e+01
  -1.080800e+02  -1.368862e+00
  -4.691198e+01  -3.260785e+01
  -2.937004e+00  -4.022497e+01
  -4.915706e+01  -4.845161e+01
  -8.129033e+01  -4.880459e+01
  -5.356109e+01  -7.945989e+00
  -2.506467e+01  -1.197995e+02
   7.590894e+01  -1.963521e+02
   1.749270e+02  -3.617918e+01
   1.645176e+02   5.643312e+01
   3.507760e+01   1.498130e+02
  -7.410247e+01   9.864257e+01
  -5.888979e+01  -2.109428e+01
   1.029056e+02  -1.445952e+00
   1.245650e+02   7.271011e+01
   4.013571e+01   4.816122e+01
  -1.197818e+02   1.333932e+02
  -1.518181e+02   1.047872e+02
  -1.272159e+02  -1.465099e+01
  -3.875264e+01  -9.620319e+01
   7.152717e+01  -7.480773e+01
   4.358017e+01  -2.545183e+01
  -2.140912e+01   1.483218e+01
  -1.087421e+02  -3.507784e+01
  -5.801897e+01  -9.070496e+01
   9.439389e+01  -1.729686e+02
   1.910578e+02  -5.453029e+01
   1.265386e+02   9.653211e+01
   1.398031e+00   1.950114e+02
  -7.443444e+01   1.301883e+02
  -1.300917e+02  -2.333384e+01
  -2.503857e+01  -1.279529e+02
   3.221633e+01  -1.007349e+02
   4.475557e+01   5.545615e+01
   3.838063e+01   2.946806e+01
   5.487397e+01   2.280587e+01
  -1.880753e+01  -4.148936e+01
   9.704471e+00   2.297252e+01
   6.562322e+01   7.572411e+01
   2.524572e+01   1.255709e+02
  -2.421290e+01  -9.899607e+00
  -1.632276e+02  -4.315207e+01
  -1.246343e+02  -4.086222e+01
   4.957968e+00  -8.012961e+01
   1.762919e+02  -1.403552e+01
   9.547351e+01  -4.537231e+01
   3.840577e+01  -1.599561e+01
  -4.598296e+01   3.288272e+01
  -5.951697e+00  -5.317122e-01
   3.482610e+01  -1.850271e+01
   1.698028e+01  -4.205380e+01
  -7.860133e+01   2.977923e+01
  -1.192550e+02  -4.989885e+01
   8.036314e+00  -6.537566e+01
   1.658136e+02  -1.419245e+02
   1.657968e+02  -8.532361e+01
   1.340627e+02   7.669617e+01
   5.857809e+01   2.007684e+02
  -8.544167e+01   1.668876e+02
  -1.645872e+02   4.210777e+01
  -6.245911e+01   1.176819e+01
  -1.449068e+01  -7.060277e+01
   3.777343e+01   1.317428e+01
   3.578137e+01  -1.681511e+01
  -4.859620e+01  -7.651436e+01
  -1.370856e+01  -7.978467e+01
   2.171737e+01  -6.777264e+01
   9.694820e+01   5.029662e+01
   8.387092e+01   1.118878e+02
  -8.363387e-01   1.214771e+02
  -8.359733e+01   9.270006e+01
  -1.209660e+02  -1.591371e+02
   3.192570e+01  -1.142280e+02
   4.827017e+01  -5.489482e-01
   5.329046e+01   2.342480e+01
  -1.617638e+01   8.864893e+01
  -5.158544e+01   3.286429e+01
  -5.168206e+01  -1.007515e+01
   8.847536e-01   2.927594e+01
   5.897464e+01   3.535395e+00
   5.317094e+01   3.428126e+01
  -7.174670e+01   6.833050e+01
  -1.353522e+02   3.064534e+01
  -9.932364e+01  -1.708335e+01
   5.308012e+01  -8.099553e+01
   8.161470e+01  -1.427106e+02
   3.014481e+01   3.370623e+01
  -1.308423e+00   4.814689e+01
  -7.909251e+01   3.511890e+01
   8.572294e+00  -2.789915e+01
  -3.045282e+01  -8.330469e+01
   5.170377e+00  -3.328696e+01
   3.478493e+01   4.966996e+01
   3.611979e+00   2.147499e+01
   3.970167e+00   4.970768e+01
   1.053006e+01  -2.185192e+01
  -4.276415e+01  -2.177868e+01
   6.748424e+01   8.653445e+01
  -2.286550e+01   3.078543e+01
  -9.167879e+01   1.129049e+00
  -3.327096e+01  -6.602690e+01
  -4.258261e+01  -5.005410e+01
   4.422852e+01  -3.709245e+01
   2.842875e+01   5.531463e+01
   3.780747e+01   9.575473e+01
  -4.902809e+01  -1.236454e+01
  -4.548428e+01   4.440667e+01
  -4.962977e+01  -3.517213e+01
  -4.635489e+00  -2.135252e+01
   1.051317e+02  -1.717079e+01
   2.123096e+01  -8.959149e+00
  -2.827516e+01   8.936524e+00
  -2.864000e+01   7.708463e+00
   1.501808e+01  -1.815224e+01
   9.230764e+01  -1.218504e+01
