
 $NMID
 id='ANONYMOUS ', fmtdat='(2E16.6)'
 volume=1.0
 tramp=1.0
 $END
   3.401055e+03   6.808205e+01
   2.003918e+03   1.904304e+03
  -3.270588e+02   2.040295e+03
  -1.410555e+03   9.162970e+02
  -8.074350e+02  -1.573835e+02
   3.070785e+02  -2.953268e+02
   5.145383e+02   2.694072e+02
   3.790554e+00   6.548932e+02
  -5.595575e+02   5.285166e+02
  -7.221333e+02  -2.641299e+01
  -3.819769e+02  -6.435620e+02
   1.365463e+02  -6.473648e+02
   3.960227e+02  -1.299994e+02
   2.402816e+02   5.078056e+02
  -1.043766e+02   5.366698e+02
  -4.201845e+02   3.983878e+01
  -2.571365e+02  -4.762397e+02
   2.134078e+02  -5.409159e+02
   4.377461e+02  -1.518143e+02
   3.370258e+02   2.017884e+02
   1.363381e+02   3.321687e+02
  -1.604520e+02   2.083682e+02
  -9.930200e+01   4.902490e+01
   1.842205e+02  -1.136537e+01
   3.189639e+02   1.665720e+02
   7.008948e+01   3.820847e+02
  -4.379840e+02   2.142728e+02
  -6.454857e+02  -9.824047e+01
  -3.105098e+02  -4.784055e+02
   3.496463e+02  -3.529292e+02
   6.272685e+02   1.118054e+02
   2.549581e+02   4.168533e+02
  -2.003975e+02   4.180539e+02
  -4.530977e+02   1.394346e+02
  -3.281185e+02  -2.316388e+02
  -4.084707e+01  -3.915472e+02
   1.106696e+02  -2.020104e+02
   4.137069e+01   1.642271e+02
  -1.962863e+02   2.983924e+02
  -2.591464e+02  -5.208514e+01
  -1.658980e+02  -5.112263e+02
   2.572725e+02  -5.378966e+02
   4.312886e+02   5.479637e+01
   1.487839e+02   3.625021e+02
  -1.864141e+02   1.586028e+02
  -2.224479e+02  -3.246438e+02
   1.262095e+02  -4.351116e+02
   5.020658e+02  -6.546061e+01
   4.488278e+02   3.494704e+02
   1.263173e+02   4.551801e+02
  -3.172738e+02   2.353570e+02
  -4.995374e+02  -7.296680e+01
  -2.756077e+02  -2.590105e+02
   1.174619e+02  -2.308453e+02
   3.178060e+02  -6.329868e+01
   1.869236e+02   1.710121e+01
  -2.288310e+01   5.660215e+01
  -9.990646e+01  -8.371753e+01
   1.918110e+02  -1.269806e+02
   2.255723e+02   3.825366e+01
   1.270226e+02   2.298848e+02
  -1.303369e+02   2.045568e+02
  -3.089193e+02   1.163367e+02
  -1.702362e+02  -8.439064e+01
  -2.452453e+01  -2.493858e+02
   1.881006e+02  -3.773311e+02
   3.402161e+02  -1.944970e+02
   2.414281e+02   1.099987e+02
   8.113838e+01   3.831543e+02
  -1.037272e+02   3.361083e+02
  -8.623975e+01   1.397366e+02
  -1.153249e+01   4.564604e+01
  -8.362625e+01   1.586987e+02
  -1.796360e+02   8.306268e+01
  -1.781645e+02  -8.993726e+01
  -1.195195e+02  -2.798508e+02
   3.100733e+01  -2.513957e+02
   1.442399e+02  -4.619656e+01
   1.517425e+02   2.057395e+02
  -5.379574e+01   2.500503e+02
  -1.990342e+02   4.904872e+01
  -3.088201e+02  -1.282773e+02
  -1.285507e+02  -3.225592e+02
   9.679634e+01  -2.273467e+02
   1.954129e+02  -1.123878e+02
   1.285301e+02  -1.344105e+01
   1.134300e+02  -4.919193e+01
   1.679632e+02  -6.158893e+01
   3.570051e+02   2.129430e+01
   2.681226e+02   2.829660e+02
  -1.847030e+01   4.296727e+02
  -3.837168e+02   3.563638e+02
  -3.665627e+02   1.690118e+02
  -2.916603e+02  -8.750446e+01
  -2.173703e+01  -2.128405e+02
   1.125209e+02  -2.012217e+02
  -1.647242e+01   3.332961e+00
  -1.291644e+02   1.400732e+02
  -1.259757e+02  -1.211059e+01
  -2.823044e+01  -1.321642e+02
   1.209914e+02  -9.121950e+01
   1.155291e+02   6.451340e+01
  -1.531833e+01   1.505096e+02
  -1.405489e+02   4.775045e+00
  -1.430486e+02  -2.216815e+02
   2.229032e+01  -3.585522e+02
   1.904216e+02  -2.133754e+02
   3.097401e+02   4.911138e+01
   2.119650e+02   2.179574e+02
   8.459704e+01   2.737342e+02
  -1.547173e+02   1.352874e+02
  -1.365719e+02  -3.034276e+01
  -6.111846e+01  -4.063945e+01
   6.820513e+01   7.809697e+01
   2.654025e+00   7.081163e+01
  -1.260391e+02   4.866195e+01
  -1.480733e+02  -3.093522e+01
   4.039355e+00  -3.874784e+01
   3.412650e+01  -2.394665e+01
   1.894174e+01   8.887436e+01
  -1.094118e+02   6.993939e+01
  -2.575640e+02   5.063985e+01
  -2.227327e+02  -1.475033e+02
  -5.664379e+00  -2.393842e+02
   1.533620e+02  -2.079699e+02
   2.423914e+02  -8.844038e+01
   1.304972e+02   6.038017e+01
  -1.109630e+01   1.423759e+02
  -2.758194e+01   7.523262e+00
   3.978291e+01  -1.116292e+02
   1.666144e+02  -8.629473e+01
   1.687383e+02   1.105918e+02
   8.004967e+01   1.924406e+02
  -7.011085e+01   1.378910e+02
  -9.967385e+01   3.294451e+01
  -8.343513e+00  -4.374706e+01
   6.350865e+01   3.595698e+01
   6.327700e+01   6.319089e+01
  -8.132188e+01   1.406101e+02
  -1.779660e+02   7.700843e+01
  -1.898097e+02  -1.379978e+02
  -1.634956e+01  -1.838922e+02
   1.528088e+02  -1.499318e+02
   1.974798e+02  -1.017110e+01
   3.440151e+01   8.910124e+01
  -1.140419e+02   5.426127e+01
  -8.084695e+01  -7.020345e+00
   5.134105e+01  -4.887804e+01
   1.978865e+01   3.076515e+01
  -2.825790e+01  -5.007549e+01
  -9.598511e+01  -4.106895e+01
  -1.423040e+02  -8.501558e+01
  -3.121737e+01  -1.626870e+02
   1.193002e+02  -1.485368e+02
   1.801681e+02  -4.526356e+00
   1.632095e+02   1.682343e+02
   3.339955e+01   1.732300e+02
  -8.736005e+01   1.773923e+02
  -1.042943e+02   2.160892e+01
  -6.421004e+01  -3.486626e+00
  -3.145438e+01  -2.155269e+01
  -3.944086e+01   6.471256e+01
  -1.056581e+02   3.005935e+01
  -1.414820e+01  -3.466951e+01
  -1.147508e+01  -1.097637e+02
   7.148202e+01  -5.379158e+01
   6.887681e+01  -4.369443e+01
  -4.405203e+01   7.274672e+01
  -1.441626e+02   1.212031e+02
  -1.766801e+02   1.991639e-01
  -8.234969e+01  -2.216199e+02
   6.100671e+01  -2.421683e+02
   2.663241e+02  -7.909564e+01
   2.287774e+02   1.016766e+02
   9.126058e+01   2.115736e+02
  -6.406104e+01   8.128973e+01
  -1.037436e+02   6.471037e+01
  -8.875638e+01   9.639773e+01
  -6.517012e+01   8.888814e+01
  -3.641135e+01   4.943417e+01
  -1.240180e+02  -3.172314e+00
  -5.643062e+01  -1.522248e+02
  -3.389741e+01  -2.403902e+02
   1.223499e+02  -1.074259e+02
   1.247711e+02  -8.014579e+00
   1.180455e+02   1.112317e+02
  -3.837745e+01   1.448487e+02
  -8.487597e+01   7.835315e+01
  -1.739168e+01  -1.041508e+01
   1.700730e+01  -3.654138e+01
   5.722333e+01  -3.954442e+01
  -1.634981e+01  -1.464986e+01
  -1.221717e+02   1.462634e+01
  -6.180401e+01   1.409658e+01
   7.346351e+01  -2.447533e+01
   1.266903e+02   1.236807e+01
   1.302428e+02   5.786158e+01
  -2.539992e+00   9.169445e+01
  -1.034090e+02   1.054722e+02
  -1.250070e+02   8.001232e+00
  -2.686315e+01  -2.882252e+00
   5.395653e+01  -8.812187e+01
   5.226538e+01   3.960561e+01
   2.838399e+01  -5.416998e+00
  -3.279533e+01   3.272838e+01
  -7.138934e+01   3.959094e+01
  -1.165450e+02  -7.975532e+01
  -3.946425e+01  -6.704643e+01
  -1.514612e+01  -4.710457e+01
  -1.227532e+01   1.223946e+01
  -1.844148e+01  -3.793578e+01
   1.665699e+01  -9.531222e+01
   1.052261e+02  -1.496889e+02
   1.700916e+02  -7.199534e+01
   9.935337e+01   6.385842e+01
  -2.216544e+01   1.194557e+02
  -1.012826e+02   6.974969e+01
  -1.144453e+02  -6.777711e+01
   1.905563e+01   1.488434e+01
   9.064744e+01   2.111406e+01
   6.906266e+01   9.975897e+01
  -1.347918e+02   1.283080e+02
  -1.732423e+02   6.396895e+01
  -1.011921e+02   1.718867e+01
  -5.311443e+01  -1.164418e+02
  -1.017116e+01  -1.294502e+02
   6.694058e+01  -2.615382e+01
  -5.371394e+01   7.333772e+01
  -1.118529e+02  -1.387328e+01
  -4.738306e+01  -1.142287e+02
   5.348718e+01  -1.463270e+02
   1.522975e+02  -5.269295e+01
   3.483638e+01   1.015155e+02
  -2.257498e+00   2.003680e+02
  -9.715788e+01   1.172266e+02
  -5.230434e+01  -1.646334e+01
  -4.528782e+01  -8.932766e+01
  -2.022586e+01  -4.501920e+01
   2.330294e+00  -5.634981e+01
  -3.731055e-01   2.064647e+01
  -1.709282e+01   1.675946e+01
   1.401221e+01  -2.569935e+01
  -5.898115e+00  -2.670587e+01
   3.915443e+01   1.004582e+02
  -2.363975e-01   1.068529e+02
  -3.384017e+01   6.815088e+01
  -1.096137e+02  -5.625692e+01
  -1.464786e+02  -4.047811e+01
  -5.652167e+01   8.016266e+00
   7.782226e+01  -5.606942e+00
   6.202912e+01   1.146525e+00
   9.322920e+00  -5.539525e+01
  -3.102504e+01   1.186458e+02
   4.270517e+00  -1.556092e+01
  -8.250132e+00  -2.293157e+01
   2.868027e+01   3.070642e+01
  -2.384658e+01   3.146657e+01
  -1.147000e+02  -5.762547e+00
  -4.744843e+01  -6.363986e+01
   1.243947e+02  -9.270348e+01
   1.594503e+02  -4.872099e+01
   1.220754e+02   6.530673e+01
   7.058347e+01   1.367821e+02
  -6.721507e+01   1.430032e+02
  -6.644899e+01   1.064070e+02
  -1.041726e+02  -3.605865e+01
  -5.303962e+01  -2.318267e+01
   2.132452e+01  -5.721214e+01
  -3.656108e+01  -3.468601e+01
  -5.206162e-01  -3.552920e+01
   7.588440e+00  -8.640651e+01
   1.405195e+00  -3.359354e+01
   3.488825e+00  -6.133260e+00
   5.488370e+01   7.108798e+01
   1.360816e+01   1.004818e+02
  -1.169129e+02  -3.886175e+00
  -1.250141e+02  -3.258465e+01
  -4.347901e+01  -7.200511e+01
   7.196916e+01  -5.711645e+01
   5.897706e+01  -8.254777e+00
   5.079005e+01   7.866248e+01
  -3.219464e+01   5.164417e+01
  -3.792383e+01   4.151762e+01
  -4.732886e+00   3.165188e+01
   3.407258e+01  -1.331997e+01
   2.253879e+01   1.317381e+01
  -4.982296e+01   3.218351e+01
  -1.031147e+02  -1.512909e+01
  -6.620865e+00   2.853616e+01
   4.416349e+01  -3.772686e+01
   4.015343e+01  -6.632769e+01
   3.338183e+01  -2.759503e+01
  -1.131736e+01  -4.822579e+00
   2.408074e+01   5.455723e+01
   5.145413e+00  -1.242794e+01
  -5.881935e+01  -7.944574e+01
  -8.979701e+00  -8.606303e+00
   1.558878e+01  -3.237226e+01
   6.772293e+01   6.612631e+00
   4.618226e+00   4.264110e+01
  -1.425459e+01  -6.523892e+01
  -1.538652e+01   1.807679e+00
   3.050236e+01  -1.073231e+01
  -2.763603e+01   5.136445e+01
  -6.266191e+01   4.167911e+00
  -3.940268e+01  -6.200552e+01
  -4.463666e+01  -2.886875e+01
  -6.966067e+00  -3.926935e+01
   9.857147e+01   2.639277e+01
   3.977519e+01   5.271245e+01
  -7.035450e+01   2.666391e+01
  -1.112563e+02   6.560953e+00
  -9.521533e+01  -2.009533e+01
   4.559106e+01  -9.572939e+01
   4.956946e+01  -2.628026e+01
   4.173210e+01  -2.262975e+01
   1.363452e+01  -2.290842e+01
  -4.635656e+01  -1.235893e+01
   1.152530e+02   9.196282e+00
   2.452293e+01  -7.042247e+00
