
 $NMID
 id='ANONYMOUS ', fmtdat='(2E16.6)'
 volume=1.0
 tramp=1.0
 $END
  -3.019220e+03   6.864310e+01
  -2.124906e+03  -1.450808e+03
  -1.816938e+02  -2.016118e+03
   1.078760e+03  -1.329002e+03
   1.008709e+03  -3.560245e+02
   1.182441e+02   2.267082e+02
  -3.579367e+02   3.044260e+01
  -8.706604e+01  -4.886913e+02
   3.728415e+02  -5.701867e+02
   6.125530e+02  -1.215002e+02
   4.366079e+02   4.477934e+02
   4.678670e+01   6.079850e+02
  -2.811488e+02   2.311946e+02
  -2.395176e+02  -3.744891e+02
   8.593019e+01  -5.685085e+02
   4.113258e+02  -6.554100e+01
   3.218038e+02   4.667631e+02
  -1.112784e+02   6.551223e+02
  -4.857404e+02   3.228527e+02
  -4.755192e+02  -1.455615e+02
  -1.901185e+02  -3.722669e+02
   7.836258e+01  -2.736614e+02
   3.190638e+00  -1.586712e+02
  -1.923579e+02  -1.287112e+02
  -2.585482e+02  -2.758102e+02
   1.294610e+01  -3.097458e+02
   4.895615e+02  -1.016841e+02
   5.818916e+02   2.122706e+02
   2.285685e+02   3.471396e+02
  -3.106840e+02   1.813048e+02
  -4.792483e+02  -9.699624e+01
  -2.041272e+02  -3.661951e+02
   2.574387e+02  -3.527778e+02
   4.278319e+02  -1.172694e+02
   3.266885e+02   1.720354e+02
   9.000447e+01   3.335426e+02
  -5.403072e-01   1.653050e+02
   1.081767e+02  -5.581362e+01
   1.455846e+02  -1.359800e+02
   1.755724e+02   1.252112e+02
  -4.470366e+01   4.537560e+02
  -2.276029e+02   4.074478e+02
  -3.027873e+02   1.228112e+01
  -1.551441e+02  -3.343409e+02
   8.490453e+01  -1.610560e+02
   1.943738e+02   2.718665e+02
  -7.219451e+01   3.612190e+02
  -4.561911e+02   2.832851e+01
  -4.473516e+02  -3.008222e+02
  -8.355233e+01  -5.192173e+02
   2.548042e+02  -2.226570e+02
   5.311621e+02   3.275788e+01
   3.635153e+02   2.215966e+02
  -3.809691e+01   2.207250e+02
  -3.050215e+02   1.534596e+02
  -1.501643e+02   1.511880e+00
  -6.104202e+01  -1.146369e+01
   3.310649e+01   3.874295e+01
  -7.464739e+01   2.878229e+01
  -1.919668e+02  -3.315528e+01
  -1.537309e+02  -2.024637e+02
   1.170986e+02  -2.390534e+02
   3.410652e+02  -1.569702e+02
   2.594327e+02   1.162261e+02
  -4.466044e+01   2.946546e+02
  -3.421820e+02   3.695586e+02
  -3.690196e+02   1.061594e+02
  -1.791758e+02  -1.855759e+02
  -4.903779e+01  -3.252473e+02
   4.200209e+01  -3.256154e+02
   3.946616e+01  -1.642223e+02
  -4.714808e+01  -1.284645e+02
   1.117701e+02  -1.058605e+02
   2.440706e+02  -8.983355e+01
   2.459829e+02   1.418926e+02
   1.210076e+02   2.643887e+02
  -6.602340e+01   2.204068e+02
  -1.452399e+02  -8.791845e+01
  -1.566584e+02  -2.621401e+02
   6.249448e+01  -2.693201e+02
   2.335888e+02  -5.171411e+01
   2.934297e+02   1.958901e+02
   1.212007e+02   2.978951e+02
   7.833338e+00   3.092056e+02
  -1.738392e+02   1.777886e+02
  -1.221122e+02   6.352771e+01
  -1.643558e+02   3.209802e+01
  -2.394809e+02   1.366914e+01
  -4.333997e+02  -1.540858e+02
  -3.228696e+02  -2.924335e+02
   3.110615e+00  -4.398744e+02
   4.119894e+02  -4.061617e+02
   4.259987e+02  -1.720411e+02
   2.635258e+02   1.268917e+02
   3.587775e+01   2.429691e+02
  -1.001483e+02   1.825526e+02
   1.656664e+01   6.566388e+01
   1.358035e+02  -6.068211e+01
   7.061857e+01   7.091651e+01
  -1.739089e-02   1.564757e+02
  -7.086018e+01   7.923667e+01
  -1.242117e+02  -6.538898e+01
  -9.426214e+00  -5.565453e+01
   1.423228e+02   1.128175e+01
   1.178051e+02   2.510211e+02
   6.147682e+00   3.446219e+02
  -2.074034e+02   1.977143e+02
  -3.141987e+02  -3.967191e+01
  -2.568874e+02  -2.670482e+02
  -1.135716e+02  -2.843573e+02
   1.346291e+02  -1.650023e+02
   1.100848e+02  -4.311985e+01
   1.563307e+01   1.192653e+00
  -6.775332e+01  -2.672765e+01
  -3.346078e+00  -9.298881e+01
   1.242770e+02  -6.612436e+01
   1.432196e+02   1.733584e+01
  -2.429797e+00   1.215543e+01
  -6.109598e+01  -1.928214e+01
  -1.385616e+01  -6.481176e+01
   1.411146e+02  -1.192630e+02
   3.244170e+02  -1.188316e+00
   3.184620e+02   1.634537e+02
  -7.684134e+00   2.167886e+02
  -1.906263e+02   2.530366e+02
  -2.738947e+02   1.024928e+02
  -1.055304e+02  -1.831215e+01
   9.743187e+01  -6.215164e+01
   5.856038e+01  -2.068544e+01
  -4.967717e+01   6.345670e+01
  -2.027218e+02   7.201420e+01
  -1.652017e+02  -7.972092e+01
  -9.818836e+01  -1.895407e+02
   5.517707e+01  -1.249811e+02
   1.022580e+02  -2.014626e+01
   4.234132e+00  -2.175323e+01
  -3.189891e+01  -4.908068e+01
  -9.133828e+00  -6.388003e+01
   7.065937e+01  -1.200807e+02
   1.659855e+02  -5.417478e+01
   2.105859e+02   1.908384e+02
   1.777638e+01   1.084741e+02
  -1.773055e+02   1.389193e+02
  -2.118391e+02  -3.876493e+01
  -5.324450e+01  -1.094599e+02
   6.399801e+01  -6.567875e+01
   8.230362e+01  -3.231765e+01
   1.946612e+01   4.410185e+01
  -9.137994e+00   2.464408e+01
  -3.430329e+01  -4.207719e+01
   1.115109e+02   8.746770e+00
   9.367783e+01   9.609017e+01
   2.299035e+01   1.917836e+02
  -1.335572e+02   1.120519e+02
  -2.318912e+02  -2.330678e+01
  -1.433548e+02  -1.875175e+02
  -2.760498e+01  -2.482973e+02
   8.660097e+01  -9.557078e+01
   1.567820e+02  -5.298971e+01
   6.978713e+01   1.625594e+01
   7.310944e+01   2.803595e+01
   7.758241e+01   4.324196e+00
   7.646022e+01  -4.218007e+01
   2.374071e+01   7.040223e+01
  -4.978464e+01   1.346527e+02
  -1.088551e+02   9.021439e+01
  -1.023821e+02  -3.259870e+01
   8.457801e+00  -1.145083e+02
   2.419801e+02  -7.918233e+01
   1.967490e+02   8.493576e+01
   6.780108e+01   2.386308e+02
  -8.785978e+01   2.069293e+02
  -2.279708e+02   1.425845e+02
  -2.697319e+02  -1.503853e+02
  -7.019856e+01  -1.553624e+02
   2.976548e+01  -1.158510e+02
   8.915167e+01  -5.178772e+01
   9.597497e+01  -5.320318e+01
   1.215682e+01  -9.222155e+01
   8.408620e+01  -6.016437e+01
   1.048638e+02   5.003208e+01
   1.168842e+02   1.473795e+02
  -3.142201e+01   2.253412e+02
  -9.867852e+01   1.530610e+02
  -1.313394e+02   2.289944e+01
  -1.312520e+02  -1.654151e+02
   6.577872e+01  -1.839536e+02
   5.549412e+01  -1.224105e+02
   6.752330e+01   2.288954e+01
  -5.161696e+01   8.120945e+01
  -2.663196e+01  -6.834871e+00
   7.160330e+01  -2.118056e+01
   1.191919e+02   6.737504e+01
   4.786079e+01  -4.942059e+00
  -1.003990e+02   3.781323e+01
  -1.627041e+02  -3.802374e+01
  -1.619295e+02  -1.002858e+02
   1.471616e+01  -1.129503e+02
   7.415922e+01  -8.332573e+01
   1.740915e+02  -8.142227e+00
   3.111586e+01   7.475671e+01
  -2.016642e+01   7.013419e+00
  -7.610949e+01  -1.877625e+01
  -3.641087e+01  -4.137877e+01
   7.425584e+01  -1.482147e+01
   6.232054e+01  -3.515036e+01
   5.371378e+01   1.868406e+01
   4.312380e+01   2.717076e+01
   3.317775e+01   9.976213e+00
   5.350208e+01  -3.938782e+01
   3.452980e+01   9.051553e+01
  -1.172094e+01   1.900045e+02
  -1.440573e+02   1.910848e+02
  -1.722047e+02   3.541346e+01
  -1.616403e+02  -9.998012e+01
   6.117544e+01  -1.462902e+02
   1.187143e+02  -1.047530e+02
   1.162614e+02   3.474419e+01
  -4.651652e+01   5.900014e+01
  -1.317649e+02  -5.991345e+00
  -1.245430e+02  -4.883866e+01
   7.733315e+01  -4.229932e+01
   2.265978e+02  -7.687016e+01
   1.349681e+02  -7.092852e+00
   4.787985e+01   9.525899e+01
  -1.465720e+02   5.331336e+01
  -4.593845e+01  -2.851145e+01
   4.817097e+01   3.552118e+01
   3.679912e+01   2.660991e+01
   3.406613e+01   8.343578e+01
  -7.868831e+01   1.560445e+02
  -1.454473e+02   1.116180e+02
  -1.543235e+02  -8.971458e+01
  -1.027551e+00  -1.632615e+02
   5.266903e+01  -1.775930e+02
   9.815296e+01   1.533607e+01
   2.392705e+01   1.134281e+02
  -3.408459e+01   8.392856e+01
  -5.536240e+01  -5.952619e-01
  -7.306744e+01  -1.602793e+01
  -7.674011e+00  -8.022617e+00
  -3.456089e+01   3.154474e+01
  -2.488630e+01  -2.346720e+01
  -6.473765e+01  -1.117171e+02
  -2.696137e+01  -1.374246e+02
   7.093781e+01  -5.404782e+01
   1.320852e+02   6.244640e+01
   1.732584e+02   6.669128e+01
  -3.963594e+00   8.211847e+01
  -1.018378e+02  -5.660903e+01
  -5.643600e+01   4.384004e+01
  -8.929977e+00   2.495678e+01
   4.958873e+01  -1.073335e+01
   3.872244e+01   2.171849e+00
   1.032018e+01   1.506454e+01
   3.941258e+01   1.389453e+01
   2.868599e+01  -8.774724e+00
   4.347400e+01   5.760458e+01
   2.723215e+01   1.355302e+02
  -7.335853e+01   6.596963e+01
  -1.510903e+02   1.161020e+02
  -1.136870e+02  -3.241140e+01
  -7.746457e+01  -1.482924e+02
   8.224725e+01  -1.254898e+02
   8.806709e+01  -2.809717e+01
   6.044196e+01   3.026948e+01
   1.583959e+01   7.900349e+01
  -4.240604e+00   7.794349e+00
   6.325394e+01   3.781526e+00
   5.259186e+01   6.476963e+01
   1.603893e+01   1.030604e+02
  -3.069049e+01   6.445030e+01
  -5.661031e+01  -3.259224e+01
  -6.168553e+01  -7.099466e+01
  -2.954031e+01  -1.214478e+02
   3.379517e+01  -4.333143e+01
   1.210514e+02   2.875826e+01
   3.108263e+01   1.095655e+02
  -9.457448e+01   4.480155e+01
  -1.055246e+02  -2.402186e+01
  -2.013512e+01  -1.454517e+00
   4.203040e+01  -7.974918e+01
   4.807596e+01  -2.468958e+01
   1.011183e+01   3.619972e+01
  -4.346425e+01  -8.263890e+00
  -1.889444e+01  -5.334597e+01
   1.085661e+02  -1.116429e+02
   9.778751e+01  -4.472209e+01
   3.683161e+01   1.057099e+01
   2.205988e+00   1.412304e+02
  -6.395792e+01   6.612102e+01
  -5.592874e+01   7.741674e+01
   3.705706e+01  -2.763696e+01
  -4.911636e+00  -9.720705e+01
   3.412728e+01  -1.358795e+01
  -5.674854e+00   7.245114e+01
   1.249403e+01   5.534330e+01
  -2.871381e+01  -5.957313e+01
  -1.029653e+02  -3.676153e+01
  -5.558579e+01  -3.260448e+01
  -2.581842e+01  -3.478823e+01
  -2.541453e+01   2.476577e+01
  -2.846525e+01  -4.226128e+01
  -2.844224e+01  -2.871464e+01
  -1.020595e+00   2.223077e+01
   5.264728e+01   1.862911e+01
   4.699398e+01  -1.203726e+01
  -2.139745e+01   5.431152e+01
  -4.698595e+01  -2.115885e+01
  -9.070290e+01  -5.339057e+01
   7.110879e+01  -6.988468e+01
   9.730652e+01  -3.755686e+01
   8.654220e+01   6.918426e+01
  -4.133953e+01  -2.491976e+01
  -8.248199e+01  -1.100875e+01
  -2.198366e+01   1.540856e+01
   4.198550e+00   2.375058e+00
   6.550049e+01  -3.105160e+01
  -4.215040e+01   2.996674e+01
  -1.039598e+02   2.971237e+01
