
 $NMID
 id='ANONYMOUS ', fmtdat='(2E16.6)'
 volume=1.0
 tramp=1.0
 $END
   4.110764e+03  -1.442924e+02
   2.526329e+03   2.212656e+03
  -3.441355e+02   2.603517e+03
  -1.832573e+03   1.152998e+03
  -1.048156e+03  -3.098579e+02
   4.136554e+02  -4.677242e+02
   7.167968e+02   2.925871e+02
   2.532239e+01   8.818533e+02
  -6.703091e+02   6.771743e+02
  -8.327470e+02  -5.572496e+00
  -4.928612e+02  -7.414237e+02
   1.462413e+02  -8.381590e+02
   4.936642e+02  -2.176632e+02
   3.855991e+02   6.059822e+02
  -1.988068e+02   6.917633e+02
  -5.250054e+02   7.189806e+01
  -2.779902e+02  -6.256031e+02
   2.157817e+02  -6.537969e+02
   5.699557e+02  -2.166643e+02
   4.239637e+02   2.921514e+02
   7.325537e+01   4.437993e+02
  -1.822375e+02   2.685689e+02
  -9.438266e+01   4.336212e+01
   1.545985e+02  -1.815310e+01
   4.003319e+02   1.508593e+02
   1.613402e+02   4.561711e+02
  -4.641271e+02   3.351222e+02
  -7.954276e+02  -5.553264e+01
  -4.150364e+02  -4.972613e+02
   4.033079e+02  -4.369152e+02
   7.058444e+02   9.125812e+01
   2.889297e+02   4.273552e+02
  -3.121767e+02   4.530910e+02
  -5.274292e+02   1.645242e+02
  -3.971260e+02  -2.468152e+02
  -6.845560e+01  -4.201161e+02
   1.281150e+02  -2.566870e+02
   3.626550e+01   1.692019e+02
  -2.014569e+02   3.663061e+02
  -3.931274e+02  -5.273058e+01
  -1.607685e+02  -6.727390e+02
   3.123362e+02  -6.635341e+02
   5.162399e+02  -3.887196e+00
   2.238725e+02   4.681102e+02
  -2.408882e+02   2.695068e+02
  -2.263629e+02  -3.187392e+02
   3.398977e+01  -4.880979e+02
   5.134204e+02  -1.130411e+02
   6.116656e+02   3.756818e+02
   2.121717e+02   6.277043e+02
  -3.070157e+02   3.226939e+02
  -6.738111e+02  -6.778055e+01
  -4.164377e+02  -3.666077e+02
   1.360211e+02  -3.040411e+02
   4.142709e+02  -1.115051e+02
   2.706442e+02   1.298260e+02
  -6.330147e+01   7.723063e+01
  -1.583118e+02  -1.079416e+02
   1.450624e+02  -1.408655e+02
   3.048676e+02   1.803990e+01
   1.326614e+02   2.429559e+02
  -1.458941e+02   2.103997e+02
  -3.468712e+02   9.280961e+01
  -2.340152e+02  -6.269587e+01
  -2.178698e+01  -2.961827e+02
   2.839405e+02  -4.096093e+02
   4.037723e+02  -2.561612e+02
   2.674097e+02   1.472262e+02
   8.301740e+01   4.067937e+02
  -9.376372e+01   3.742567e+02
  -9.883420e+01   1.357315e+02
  -5.612730e+01   1.485669e+00
  -3.474556e+01   1.427815e+02
  -2.018822e+02   1.150045e+02
  -3.270985e+02  -7.126813e+01
  -1.427903e+02  -3.168044e+02
   9.154216e+01  -2.240816e+02
   1.539331e+02   4.247361e+01
   1.830147e+02   2.335928e+02
  -2.170832e+01   2.674695e+02
  -2.441447e+02   1.214858e+02
  -3.491157e+02  -1.995260e+02
  -2.150240e+02  -3.687964e+02
   7.559948e+01  -3.237108e+02
   1.828263e+02  -1.553503e+02
   1.825112e+02  -3.518334e+01
   1.642063e+02  -2.918263e+01
   2.453233e+02  -5.456701e+01
   4.101262e+02   6.431513e+01
   3.114661e+02   2.851817e+02
   4.016620e+00   5.118867e+02
  -3.935940e+02   4.555487e+02
  -4.932784e+02   2.570020e+02
  -3.302549e+02  -1.402190e+02
  -8.001191e+01  -2.727729e+02
   1.334656e+02  -2.230835e+02
   1.826207e+01  -3.298962e+01
  -1.079871e+02   8.186982e+01
  -1.629778e+02   6.496346e+00
  -6.072755e+01  -1.721492e+02
   1.812293e+02  -1.996124e+02
   1.506006e+02   5.086716e+01
  -4.343910e+01   2.129234e+02
  -2.010746e+02   3.503589e+01
  -1.658961e+02  -2.209740e+02
   2.354415e+00  -3.482696e+02
   2.341134e+02  -1.908672e+02
   3.904722e+02   7.257771e+01
   3.050802e+02   1.995759e+02
   1.090331e+02   3.137377e+02
  -1.055739e+02   1.533170e+02
  -2.181180e+02   4.514514e+01
  -8.780501e+01  -2.128443e+01
   8.557587e+01   3.872566e+01
   3.187377e+01   8.506985e+01
  -1.084749e+02   9.212799e+01
  -1.910219e+02  -1.060855e+01
  -6.821734e+01  -1.008672e+02
   5.399199e+01   2.092176e+01
   1.225062e+02   1.166669e+02
  -1.600521e+02   6.838553e+01
  -2.876219e+02   2.525328e+01
  -2.714989e+02  -1.838615e+02
  -7.757401e+01  -2.513716e+02
   1.311187e+02  -3.357003e+02
   2.269035e+02  -1.466213e+02
   2.241371e+02   6.657614e+01
   1.273485e+01   9.790593e+01
  -8.535735e+01  -8.949186e+00
  -8.510536e+00  -1.256821e+02
   1.879067e+02  -6.407015e+01
   2.130059e+02   1.169723e+02
   6.217049e+01   1.984245e+02
  -8.901501e+01   1.861002e+02
  -1.351891e+02   5.085804e+01
  -4.453632e+01  -2.775956e+01
   3.981570e+01   3.265941e+01
   3.812299e+01   9.697611e+01
  -4.792162e+00   1.164186e+02
  -2.317814e+02   7.645859e+01
  -1.914236e+02  -7.285295e+01
  -6.525530e+01  -2.087963e+02
   1.788950e+02  -1.163494e+02
   2.161111e+02   9.806527e+00
   9.806466e+01   1.150167e+02
  -6.828086e+01   1.607461e+02
  -3.518241e+01   2.887716e+01
  -8.379991e+01  -5.074537e+01
   3.228475e+01   2.171796e+00
  -2.622041e+01  -6.297664e+00
  -8.523202e+01  -2.416672e+01
  -1.236400e+02  -1.368805e+02
   1.720027e+01  -2.082659e+02
   8.157999e+01  -1.816119e+02
   2.160615e+02  -3.429612e+01
   1.997654e+02   9.438680e+01
   2.923838e+01   2.336236e+02
  -6.052658e+01   1.855330e+02
  -1.664591e+02   1.217529e+01
  -1.018537e+02  -4.341724e+01
  -2.102057e+01   2.776250e+00
  -6.175619e+01   4.972210e+01
  -6.007599e+01  -2.474888e+01
  -5.668273e+01  -1.013181e+02
   5.428491e-01  -1.291688e+02
   1.040146e+02  -4.127929e+01
   9.575022e+01   3.306811e+01
   8.951944e+00   1.802444e+02
  -1.679797e+02   9.568119e+01
  -2.282309e+02  -8.029867e+01
  -1.289345e+02  -1.611020e+02
   9.150668e+01  -2.286593e+02
   2.588147e+02  -1.208145e+02
   2.291171e+02   1.000249e+02
   8.372372e+01   2.428601e+02
  -1.616817e+01   1.734899e+02
  -9.730388e+01   4.641633e+01
  -1.219853e+02   4.103908e+01
  -3.208963e+01   1.194095e+02
  -8.400028e+01   7.460302e+01
  -9.947429e+01  -7.912111e+01
  -1.451279e+02  -1.137692e+02
  -6.625622e+01  -1.797865e+02
   3.023161e+01  -1.884342e+02
   2.498658e+02  -7.644105e+01
   1.322604e+02   1.486741e+02
   3.929764e+01   2.023025e+02
  -6.149774e+01   1.456978e+02
  -3.866670e+01  -3.095418e+01
  -6.766571e+00  -7.931332e+01
   5.072041e+01  -9.297966e+01
  -5.289077e+00   2.748699e+01
  -5.939620e+01  -2.262717e+00
  -2.248404e+01  -3.417996e+01
   3.757578e+01  -5.617264e+01
   1.799518e+02   2.942409e+01
   1.522392e+02   4.416708e+01
   6.848034e+00   9.116742e+01
  -1.428911e+02   8.825750e+01
  -1.792862e+02   2.380253e+01
  -9.216748e+01  -6.655916e+01
   4.306851e+01  -1.063362e+01
   1.115734e+02   4.090065e+00
   9.797717e+00   5.203941e+01
  -5.267016e+01   1.028589e+02
  -6.502636e+01   5.303178e+01
  -9.310855e+01  -7.836567e+01
  -1.952758e+01  -6.207074e+01
   3.154095e+01  -6.442214e+00
  -1.335473e+02   1.178424e+00
   1.860839e+01  -4.306859e+01
  -1.355182e+01  -1.917065e+02
   1.377850e+02  -1.775635e+02
   1.910570e+02  -1.588031e+00
   1.529572e+02   1.092813e+02
   1.424638e+01   1.309536e+02
  -1.093018e+02   3.777011e+01
  -5.326366e+01  -2.262716e+01
   7.859581e+01   7.693736e+00
   1.006970e+02   6.183982e+01
   2.333248e+01   1.356456e+02
  -7.273234e+01   2.007609e+02
  -1.777052e+02   5.523646e+01
  -1.778567e+02  -5.129775e+00
  -5.347516e+01  -1.007235e+02
   1.234381e+02  -9.978230e+01
   2.615040e+01   2.255634e+01
  -8.727490e+00   2.135435e+01
  -9.889602e+01   2.098912e+01
  -5.469978e+01  -1.064539e+02
   7.882710e+01  -1.609349e+02
   1.914284e+02  -7.943305e+01
   1.073730e+02   1.342133e+02
   5.301199e+01   2.293592e+02
  -6.911967e+01   1.479540e+02
  -1.331428e+02   1.408774e+01
  -1.295871e+02  -9.430472e+01
   1.017859e+01  -5.799816e+01
   7.534779e+01  -7.853354e+01
   3.408342e+01   1.055092e+02
   3.648484e+01  -3.884872e+01
  -3.528872e+01   1.194663e+01
  -1.311084e+00   1.925335e+00
   6.170277e+01   1.100824e+02
   5.591900e+01   1.103588e+02
  -7.651063e+01   1.267844e+01
  -1.789518e+02   1.168995e+00
  -1.252679e+02  -7.819507e+01
  -2.338813e+00  -6.476202e+01
   4.430248e+01  -5.619573e+01
   1.114874e+02   3.622593e+01
   1.868122e+01  -4.608010e+01
  -8.959929e+01   6.681765e+01
  -4.761558e+01  -6.120053e+00
   1.006688e+01  -3.781299e+01
  -8.519667e+00  -1.928306e+01
  -6.342339e+01  -9.107913e-01
  -9.582593e+01   2.811378e+01
  -1.422435e+01  -8.758399e+01
   1.077220e+02  -1.412297e+02
   2.564931e+02  -4.148791e+01
   1.500901e+02   5.215652e+01
   7.449369e+01   1.816442e+02
  -8.963936e+01   2.173246e+02
  -1.588369e+02   3.465328e+01
  -8.766781e+01  -1.784162e+01
  -1.298080e+01  -8.304055e-01
  -2.890237e+00  -2.258659e+01
  -1.282128e+01   1.222448e+01
  -6.369192e+01  -5.406933e+01
  -5.090323e+01  -5.217377e+01
   1.136124e+01  -2.899768e+01
   7.879741e+01   8.419919e+01
   6.048310e+01   1.403216e+02
   8.423347e+00   1.170291e+02
  -1.178446e+02  -1.203176e+00
  -1.689528e+02  -9.419958e+01
  -7.055222e+01  -5.682049e+01
   4.332316e+01  -7.246349e+01
   7.779479e+01  -1.650315e+01
   3.813946e+01   2.756935e+01
   1.494450e-01   8.957266e+01
  -2.873451e+01   7.501193e+01
   4.482318e+01   1.530254e+01
   7.302027e+01   1.557134e+01
   3.085436e+01   5.729740e+01
  -4.700997e+01   6.648876e+01
  -9.072445e+01   3.307876e+01
  -8.630561e+01  -3.261519e+00
  -1.149977e+01  -1.030611e+02
   3.503047e+01  -1.213625e+02
   8.462272e+01   1.024421e+01
   4.325737e+01   6.549010e+01
  -2.786139e+01   8.979205e+01
  -4.469187e+01  -6.918409e+00
  -4.190655e+01  -5.623283e+01
  -7.099483e+00  -5.214784e+01
   2.342343e+01  -1.933868e+01
   2.302734e+01  -1.156884e+01
   5.515562e+00   2.467278e+00
  -1.441736e+01   4.470519e+01
  -2.009355e+01   1.992207e+01
   2.430769e+01   8.997340e+01
  -9.422747e+00   5.519798e+01
  -4.099374e+01   3.420114e+01
  -5.284458e+01  -6.622427e+01
  -1.716337e+01  -5.481932e+01
   2.712157e+01  -9.703873e+01
   3.544976e+01  -7.996169e+00
  -8.194415e+00   4.450867e+01
  -4.159784e+00   4.459464e+01
  -2.235023e+01  -2.650344e+01
  -2.609829e+01  -5.547887e+01
   4.916463e+01  -6.463856e+01
   4.125735e+01  -2.327720e+01
   1.189921e+01  -6.530153e+00
  -2.038590e+00  -1.770129e+01
  -1.052107e+02  -2.385697e+01
  -5.514726e+01  -2.905004e+01
   6.458006e+01  -4.190433e+01
