
 $NMID
 id='ANONYMOUS ', fmtdat='(2E16.6)'
 volume=1.0
 tramp=1.0
 $END
  -4.542050e+03  -1.015985e+01
  -2.605687e+03  -2.756272e+03
   8.388822e+02  -2.858428e+03
   2.272702e+03  -8.267597e+02
   9.387023e+02   7.816247e+02
  -6.668281e+02   6.070198e+02
  -1.047545e+03  -4.498417e+02
   3.422113e+01  -1.131543e+03
   8.625741e+02  -8.273845e+02
   9.592566e+02   1.240914e+02
   4.781023e+02   9.131912e+02
  -2.646934e+02   9.168119e+02
  -6.599299e+02   1.445552e+02
  -3.638776e+02  -7.611103e+02
   2.624902e+02  -7.875974e+02
   6.323038e+02  -3.150873e+01
   3.044003e+02   7.430854e+02
  -3.765331e+02   6.465236e+02
  -5.875199e+02   7.574797e+01
  -3.905377e+02  -3.537927e+02
  -3.436065e+01  -4.577548e+02
   2.928820e+02  -3.111333e+02
   2.789762e+02   1.270007e+00
  -1.441578e+02   1.507771e+02
  -4.147145e+02  -9.753685e+01
  -1.953442e+02  -4.372048e+02
   4.928157e+02  -4.593677e+02
   9.032456e+02   9.361640e+01
   4.597019e+02   5.818637e+02
  -3.908302e+02   5.025106e+02
  -7.478958e+02  -5.161442e+01
  -3.630841e+02  -5.287971e+02
   2.808352e+02  -5.132459e+02
   6.276912e+02  -1.832984e+02
   4.270983e+02   2.265529e+02
   8.265772e+01   5.203337e+02
  -2.217601e+02   2.975059e+02
  -1.441043e+02  -2.207444e+02
   1.772348e+02  -4.475013e+02
   4.039917e+02   4.596506e+01
   2.379817e+02   6.726000e+02
  -3.463040e+02   7.648544e+02
  -6.590163e+02  -3.662331e+01
  -2.530331e+02  -6.265682e+02
   2.430357e+02  -2.741636e+02
   4.041051e+02   3.072208e+02
  -7.165868e+01   5.486990e+02
  -5.401159e+02   1.270053e+02
  -6.613861e+02  -4.024283e+02
  -2.061654e+02  -5.822980e+02
   3.997469e+02  -3.294598e+02
   7.003413e+02   8.510178e+01
   4.047735e+02   3.760374e+02
  -1.516772e+02   4.171004e+02
  -4.235993e+02   5.607650e+01
  -2.600632e+02  -2.306019e+02
   1.096368e+02  -9.400276e+01
   1.096614e+02   1.527687e+02
  -1.797466e+02   1.559633e+02
  -3.568366e+02  -1.225631e+02
  -1.076565e+02  -3.522794e+02
   2.275184e+02  -2.265706e+02
   3.423251e+02  -4.054454e+01
   2.029258e+02   1.195031e+02
  -5.563213e+01   2.612544e+02
  -2.740832e+02   2.789524e+02
  -3.319105e+02   2.291447e+02
  -2.901157e+02  -1.552309e+02
  -1.449513e+02  -3.881584e+02
   1.250691e+02  -4.150229e+02
   1.149398e+02  -1.464975e+02
   1.260581e+01   4.643208e+01
   1.932524e+01  -8.545085e+01
   2.338157e+02  -1.401225e+02
   2.601042e+02   6.065395e+01
   1.476000e+02   2.376591e+02
  -6.484712e+01   3.149538e+02
  -1.768758e+02   2.888754e+01
  -2.144119e+02  -2.502587e+02
  -2.949401e+01  -3.172455e+02
   3.130319e+02  -1.130753e+02
   3.427736e+02   2.072223e+02
   2.321448e+02   3.236342e+02
  -1.186609e+02   3.317210e+02
  -1.917526e+02   9.292884e+01
  -1.846920e+02   5.086052e+00
  -7.387259e+01   1.351328e+01
  -2.316896e+02  -1.587110e+01
  -3.722785e+02  -7.592127e+01
  -2.938939e+02  -2.735250e+02
   1.488537e+01  -4.393601e+02
   4.117169e+02  -4.547878e+02
   4.848967e+02  -1.729144e+02
   3.455930e+02   1.084757e+02
   6.627878e+01   3.140033e+02
  -1.238653e+02   2.953345e+02
  -4.783240e+01  -1.189798e+01
   6.381098e+01  -1.138537e+02
   1.568876e+02   4.229018e+01
   9.584781e+01   2.091837e+02
  -2.395520e+02   2.434111e+02
  -2.138936e+02  -8.353941e+01
   2.468818e+01  -2.392140e+02
   2.051382e+02  -4.512562e+01
   1.748253e+02   2.806117e+02
  -4.789485e+01   3.421400e+02
  -2.342138e+02   1.936423e+02
  -3.392311e+02  -2.474624e+01
  -2.634873e+02  -2.308286e+02
  -6.677502e+01  -2.793583e+02
   7.610504e+01  -1.769069e+02
   1.691596e+02  -1.821665e+01
   7.680115e+01   1.439745e+01
  -4.806818e+01   5.281452e+00
  -4.463357e+01  -1.522399e+02
   1.033180e+02  -1.123829e+02
   2.323558e+02   4.730301e+01
   4.279613e+01   1.135655e+02
  -1.131397e+02   4.685226e+01
  -9.443906e+01  -1.208937e+02
   4.849473e+01  -1.000314e+02
   2.818088e+02   4.168962e+01
   2.692968e+02   1.259308e+02
   4.055274e+01   2.937649e+02
  -1.728629e+02   3.250229e+02
  -2.634506e+02   1.313013e+02
  -1.782795e+02  -3.897024e+01
   7.230398e+00  -1.161971e+02
   6.444211e+01   1.559176e+01
  -6.597549e+01   1.115926e+02
  -1.814004e+02   2.872499e+01
  -1.906517e+02  -9.423689e+01
  -7.099148e+01  -1.894929e+02
   9.319010e+01  -1.360042e+02
   1.486782e+02  -4.353338e+01
   9.463257e+01   8.629332e+01
  -9.918807e+00   2.610206e+01
  -3.695916e+01  -9.438501e+01
   1.122547e+02  -1.338150e+02
   2.429431e+02  -1.981356e+01
   2.257105e+02   1.130749e+02
   1.408155e+01   2.145985e+02
  -1.689129e+02   1.249985e+02
  -1.991333e+02   2.711575e+01
  -7.612990e+01  -1.464076e+02
   5.875668e+01  -8.702501e+01
   6.634286e+01  -2.025189e+01
   1.705725e+01   4.894580e+01
   7.670054e-01   2.326546e+01
  -3.628931e+00  -9.836770e+00
   1.081463e+02   2.915759e+01
   7.637199e+01   9.111779e+01
   5.888603e+01   1.229142e+02
  -1.306713e+02   1.407463e+02
  -2.939023e+02   5.303826e+01
  -2.437965e+02  -1.836628e+02
  -7.596283e+01  -2.305789e+02
   6.364930e+01  -2.119814e+02
   1.953015e+02  -1.852319e+01
   4.396282e+01   7.524402e+01
  -1.403013e+01   4.615292e+01
   4.041852e+01   2.357903e+01
   3.493447e+01   4.510672e+01
   5.851842e+01   6.684231e+01
  -8.234674e+00   1.084856e+02
  -1.494486e+02   6.441491e+01
  -1.178151e+02   1.409412e+01
   1.054909e+01  -8.815118e+01
   1.391332e+02  -1.129309e+02
   2.105648e+02   7.498085e+01
   1.321747e+02   2.140416e+02
  -5.595599e+01   2.411822e+02
  -2.909990e+02   9.891256e+01
  -2.349330e+02  -8.793123e+01
  -3.226890e+01  -1.862831e+02
   1.327398e+01  -1.266003e+02
   9.915336e+01  -1.017618e+02
   9.760707e+01  -8.123447e+01
   3.745470e+01  -1.348362e+02
   6.675888e+01  -4.309103e+01
   1.180144e+02   5.861057e+01
   8.287340e+01   1.686675e+02
   2.529624e+01   2.509751e+02
  -1.016293e+02   1.304947e+02
  -1.903378e+02   2.211724e+01
  -1.276536e+02  -1.351277e+02
  -4.732563e+01  -1.635095e+02
   2.565568e+01  -1.373491e+02
   7.943617e+01   1.872748e+01
  -1.295967e+01   7.399156e+01
   5.847169e+01   7.424011e+01
   3.596233e+01   6.313513e+01
   1.077561e+02   1.069232e+01
   7.582924e+01   3.588550e+01
  -3.224713e+01   3.720835e+01
  -1.182993e+02   4.511906e+01
  -1.533762e+02  -7.213486e+01
  -1.955621e+01  -9.419867e+01
   1.080610e+02  -5.954951e+01
   1.601605e+02  -7.027399e+01
   2.564949e+01  -3.556934e+00
  -6.532605e+01   7.688300e+01
  -1.042821e+02  -3.796048e+01
   1.669711e+01  -8.155575e+01
   6.963489e+01  -5.393085e+01
   6.769588e+01   2.051023e+00
   6.449813e+01   5.505171e+01
   8.084935e+01   2.951294e+01
   4.063128e+01   2.150060e+01
   4.107937e+01   3.588716e+01
   4.496330e+01   9.999471e+01
  -6.444094e+01   1.435446e+02
  -1.037418e+02   1.385269e+02
  -1.589219e+02   4.466830e+01
  -9.405143e+01  -6.883185e+01
  -4.278263e+01  -8.362914e+01
   1.067961e+02  -4.397969e+01
   2.458603e+01  -4.778277e+01
  -3.459667e+01  -4.696785e+01
  -1.188546e+02  -2.124907e+01
  -1.122604e+02  -9.864819e+01
   7.712966e+01  -1.556986e+02
   1.880552e+02  -3.882695e+01
   1.418686e+02  -1.024508e+01
   1.767633e+01   1.055551e+02
  -6.671813e+01   9.543906e+01
  -8.413478e+01   3.112439e+01
   5.565094e+01  -7.734992e+01
   6.340297e+01   6.127650e+01
   7.753220e+01   1.067589e+02
  -6.520052e+01   1.610647e+02
  -2.175609e+02   1.021012e+02
  -1.030009e+02  -1.127395e+02
   4.705455e+01  -2.663845e+02
   1.036136e+02  -1.726379e+02
   8.383023e+01  -2.458775e+01
   6.235439e+01   1.386778e+02
   3.810917e+00   7.638061e+01
  -5.074977e+01   9.030303e+00
  -7.254746e+01  -7.175642e+01
  -1.932264e+01  -1.334076e+01
  -4.103791e+01  -2.056437e+01
  -6.771176e+01  -8.567884e+00
  -3.760509e+01  -1.170805e+02
  -9.406986e+01  -9.649505e+01
   2.861491e+01  -2.637448e+01
   1.512770e+02   1.974241e+01
   1.393809e+02   7.335033e+01
   4.987834e+01   1.032283e+02
  -1.173324e+02  -2.961605e+01
  -1.331008e+02  -2.019529e+01
  -3.135696e+01   3.228552e+00
   4.320523e+01   1.513329e+01
   5.423693e+00  -1.546753e+01
   1.065848e+01   1.111501e+01
  -1.275931e+01  -1.053458e+01
   8.488197e+01   1.409362e+01
   7.540084e+01   5.460126e-01
  -2.740706e+01   1.353087e+02
  -8.262002e+01   1.019021e+02
  -1.891325e+02   7.229955e+01
  -1.703090e+02  -4.292739e+01
  -3.408031e+01  -1.396653e+02
   5.512399e+01  -1.337673e+02
   1.412074e+02  -9.750298e+00
   7.569097e+01   3.416037e+01
   2.762384e+01   2.022442e+01
   6.359303e+00  -4.221773e+01
   5.714937e+01   2.531035e+01
   5.082455e+01   7.298716e+01
   4.971320e+01   5.362880e+01
   1.559849e+00   6.409633e+01
  -6.804663e+01  -3.470830e+01
  -9.008549e+01  -1.073512e+02
   1.536568e+01  -9.228391e+01
   7.534194e+01  -2.563093e+01
   1.036691e+02   2.820395e+01
   3.407991e+01   1.008511e+02
  -1.056805e+01   1.043383e+02
  -4.163992e+01  -1.733304e+01
  -7.860325e+01   3.462238e+00
   5.260864e+01  -2.711478e+01
   4.741461e+01  -3.950177e+01
  -4.894845e+01   7.197390e+01
  -7.640941e+01  -5.240459e+01
  -3.432998e+01  -4.364196e+01
   7.783625e+01  -1.175946e+02
   5.979656e+01  -6.254630e+01
   3.949983e+01  -1.624364e+00
  -5.248912e+01   5.339126e+01
  -1.724419e+01   4.676892e+01
  -1.109372e+01   1.896885e+01
   2.864769e+01  -1.000807e+02
   3.143783e+01  -7.358744e+01
   7.205951e+01   4.282529e+01
  -6.844346e+00   5.845401e+01
  -2.871083e+01   4.205120e+00
  -5.374123e+01  -4.024252e+01
  -2.411020e+01  -1.706045e+01
  -8.742742e+01  -1.586037e+01
  -1.137937e+01  -2.394209e+01
  -2.703033e+01   1.550142e+01
  -3.977972e+01  -2.508381e+00
   5.480881e+01  -2.331638e+01
   3.213704e+00  -4.819678e+01
   8.220568e+01   1.836218e+01
   3.005199e+01   9.195520e+01
  -9.421896e+01   4.034650e+01
  -8.641007e+01  -2.786885e+01
  -2.646213e+01  -3.869364e+01
   3.566775e+01   1.086732e+01
   1.333704e+02   1.896568e+01
   6.007267e+01   7.257586e+01
  -2.901444e+01   7.744183e+01
  -3.606108e+01   1.969911e+01
   1.260271e+01   5.308811e+01
   4.829903e+01   4.128383e+01
   5.075325e+00   3.375552e+01
   4.917595e+00  -2.960954e+01
  -8.533268e+01   3.190115e+01
