
 $NMID
 id='ANONYMOUS ', fmtdat='(2E16.6)'
 volume=1.0
 tramp=1.0
 $END
   3.724204e+03  -9.322493e+01
   2.283283e+03   2.103331e+03
  -3.189809e+02   2.373708e+03
  -1.658714e+03   1.087720e+03
  -9.234150e+02  -2.381125e+02
   3.078243e+02  -3.981797e+02
   6.783942e+02   2.525899e+02
  -3.499125e+01   8.825920e+02
  -6.724052e+02   6.885279e+02
  -7.464851e+02   5.298270e+01
  -4.825453e+02  -6.769525e+02
   1.388125e+02  -8.130203e+02
   5.126928e+02  -9.781878e+01
   3.258399e+02   5.950558e+02
  -2.177261e+02   6.636152e+02
  -4.955756e+02   7.968014e+01
  -3.194651e+02  -5.871925e+02
   2.643898e+02  -6.342608e+02
   5.405115e+02  -1.602065e+02
   4.059616e+02   2.163645e+02
   2.622850e+01   3.749525e+02
  -1.727904e+02   2.307945e+02
  -1.199403e+02   3.886853e+01
   1.454842e+02   2.864368e+01
   3.446866e+02   1.832358e+02
   6.298024e+01   3.161198e+02
  -4.663681e+02   2.832814e+02
  -6.849752e+02  -8.625782e+01
  -3.444718e+02  -5.175901e+02
   3.375385e+02  -3.135529e+02
   6.183426e+02   6.306156e+01
   3.235229e+02   4.125189e+02
  -2.680282e+02   4.807563e+02
  -4.994811e+02   1.961388e+02
  -3.318125e+02  -2.130018e+02
  -1.210643e+02  -3.824732e+02
   1.309007e+02  -2.315595e+02
   4.877710e+01   1.036810e+02
  -2.046453e+02   3.021115e+02
  -3.323382e+02  -6.199202e+01
  -1.448436e+02  -6.273983e+02
   2.820292e+02  -5.850350e+02
   4.179360e+02  -2.446068e+00
   2.047233e+02   4.756094e+02
  -2.273034e+02   2.811717e+02
  -3.129995e+02  -2.430321e+02
   1.142908e+02  -4.774990e+02
   5.312424e+02  -1.120887e+02
   5.768263e+02   3.763813e+02
   1.658057e+02   5.306582e+02
  -3.134020e+02   3.160940e+02
  -5.120640e+02  -8.422883e+01
  -3.198519e+02  -2.605610e+02
   8.896523e+01  -3.100929e+02
   3.420908e+02  -5.783663e+01
   2.550631e+02   1.116449e+02
  -4.696057e+01   3.534076e+01
  -1.300834e+02  -1.027078e+02
   1.154854e+02  -1.221014e+02
   3.255637e+02   2.446951e+01
   1.547755e+02   2.164845e+02
  -1.976321e+02   2.437508e+02
  -3.137089e+02   1.310223e+02
  -2.466912e+02  -1.399771e+02
  -1.528057e+01  -2.966025e+02
   2.599792e+02  -3.676478e+02
   3.458029e+02  -1.784094e+02
   3.282094e+02   1.589475e+02
   5.700364e+01   3.790102e+02
  -5.672123e+01   3.970784e+02
  -7.118608e+01   1.338220e+02
  -4.470321e+01   8.158038e+01
  -7.877411e+01   1.211724e+02
  -1.952009e+02   1.106895e+02
  -2.608245e+02  -1.324463e+02
  -1.234637e+02  -2.659777e+02
   1.320458e+02  -2.659417e+02
   2.629541e+02   3.862417e+01
   1.248495e+02   2.363653e+02
  -8.589683e+01   2.934141e+02
  -2.513558e+02   1.301949e+02
  -3.463796e+02  -2.045340e+02
  -1.297105e+02  -2.753040e+02
   8.319059e+01  -2.760365e+02
   2.489124e+02  -1.392225e+02
   1.568408e+02  -2.842872e+01
   1.427953e+02  -5.116029e+01
   2.603683e+02  -3.841909e+01
   4.170422e+02   9.483575e+01
   3.656324e+02   3.139201e+02
  -2.890720e+01   4.017008e+02
  -3.444046e+02   3.843717e+02
  -4.711745e+02   1.565307e+02
  -3.408574e+02  -1.101772e+02
  -8.245920e+01  -2.553920e+02
   7.312534e+01  -2.565315e+02
   2.693237e+01  -3.775250e+01
  -1.252936e+02   8.091663e+01
  -1.167802e+02  -2.634908e+01
  -4.730521e+01  -1.524490e+02
   1.143194e+02  -1.427876e+02
   1.618853e+02   9.433071e+01
  -2.985943e+01   2.073582e+02
  -2.127071e+02   5.872023e+01
  -1.540372e+02  -2.293987e+02
   4.263055e+01  -3.163253e+02
   2.017803e+02  -1.907981e+02
   3.393446e+02   6.085584e+01
   2.736441e+02   2.559988e+02
   5.358372e+01   2.466218e+02
  -1.411448e+02   1.167072e+02
  -2.050645e+02  -2.180443e+01
  -4.902209e+01  -1.443267e+01
   7.475668e+01   2.913573e+00
   5.288877e+00   1.049463e+02
  -1.558960e+02   1.373769e+02
  -1.576020e+02  -3.856311e+01
  -1.035545e+01  -4.466767e+01
   8.969903e+01  -8.526219e-01
   2.287798e+01   7.307827e+01
  -8.936010e+01   4.242649e+01
  -3.264743e+02  -4.418184e+01
  -2.173533e+02  -1.704659e+02
  -4.331125e+01  -2.372169e+02
   1.524762e+02  -2.345790e+02
   2.811839e+02  -1.398963e+02
   1.117791e+02   6.238918e+01
  -5.644033e+01   1.666785e+02
  -1.329704e+02   3.050378e+00
   3.090933e+01  -9.191654e+01
   1.542862e+02  -4.274189e+01
   1.630549e+02   8.227613e+01
   4.627871e+01   1.225616e+02
  -8.681822e+01   1.351368e+02
  -1.504836e+02   4.816798e+01
  -3.128815e+01  -3.435756e+01
   4.374406e+00   1.849051e+01
   7.233419e+01   1.357473e+02
  -4.617088e+01   1.414491e+02
  -1.883627e+02   1.333448e+01
  -1.716342e+02  -1.256775e+02
  -6.040928e+01  -2.269379e+02
   1.881068e+02  -1.598101e+02
   2.005504e+02  -3.248337e+01
   4.769567e+01   1.163866e+02
  -4.885591e+01   9.397010e+01
  -6.252596e+01   1.217582e+01
  -8.115650e+01  -2.480386e+01
   3.884640e+01  -1.675079e+01
   1.171561e+01   1.858621e+01
  -7.709441e+01   4.203617e+01
  -1.427135e+02  -1.100583e+02
  -3.888182e+01  -1.729309e+02
   1.413144e+02  -2.081072e+02
   2.611315e+02  -1.847574e+01
   2.243536e+02   1.184773e+02
   3.675710e+01   2.601017e+02
  -1.184583e+02   2.053293e+02
  -1.164127e+02   6.076124e+01
  -1.036570e+02  -7.121458e+01
   3.520714e+00  -8.192817e+00
  -2.376343e+01  -3.114882e+01
  -1.014613e+02   3.523071e+01
  -1.013712e+01  -3.907579e+01
   5.520844e+01  -9.126999e+01
   1.143199e+02  -2.432493e+01
   1.170393e+02   7.196610e+01
  -2.833818e+01   1.042581e+02
  -9.869087e+01   1.063138e+02
  -2.587973e+02  -4.883844e+01
  -4.116027e+01  -1.733811e+02
   1.165876e+02  -2.352657e+02
   3.034738e+02  -1.025647e+02
   2.542493e+02   9.606397e+01
   9.671432e+01   1.428470e+02
  -2.433227e+01   5.898560e+01
  -5.123779e+01   7.806850e+01
  -1.121381e+02   7.290897e+01
  -4.449838e+01   8.164957e+01
  -8.936961e+01   2.082132e+01
  -1.521873e+02  -5.033650e+01
  -1.552176e+02  -1.025181e+02
  -5.868794e+01  -2.279365e+02
   7.925678e+01  -1.480925e+02
   1.620407e+02  -2.785944e+01
   1.788098e+02   1.033104e+02
  -4.981274e+01   1.272828e+02
  -3.989604e+01   6.692273e+01
  -9.502613e+01  -2.486963e+01
  -6.612014e+01  -7.936395e+01
   3.898497e+01  -2.598590e+01
   1.678725e+01  -4.643282e+00
  -1.039929e+02  -2.674456e+01
  -5.460256e+01   2.026794e+01
   8.852636e+01  -4.952414e+01
   1.711461e+02  -1.548011e+01
   1.790897e+02   1.933278e+01
  -4.627749e+01   1.218470e+02
  -9.847373e+01   6.111763e+01
  -1.070193e+02   3.555362e+01
  -1.698933e+01  -4.348295e+01
   3.720654e+01  -3.031943e+01
   7.571007e+01   3.834424e+01
   5.097152e+01   3.974565e+01
  -8.064238e+01   2.658441e+01
  -3.702326e+01  -5.966154e+00
  -2.730630e+01  -3.586717e+00
  -3.338716e+01  -3.058751e+00
  -2.050649e+01   2.262256e+01
  -9.298146e+01   1.781192e+01
   1.731930e-01  -3.191970e+01
   5.064624e+01  -1.618207e+02
   1.489218e+02  -1.391592e+02
   1.433079e+02  -1.253923e+01
   1.607167e+02   1.301781e+02
  -2.957221e+01   6.485011e+01
  -8.754043e+01   8.357795e+01
  -7.669325e+01   9.748170e+00
   6.923745e+01  -4.121162e+01
   1.474228e+02   2.729664e+01
   1.210952e+02   1.083467e+02
  -8.169121e+01   6.962873e+01
  -1.912544e+02   9.543666e+01
  -1.927991e+02   8.558658e+00
  -3.814371e+01  -5.671751e+01
   9.577498e+01  -7.828421e+01
   7.995383e+01  -9.758603e+01
  -5.248835e+01   2.189435e+01
  -8.836780e+01   5.013794e+01
  -6.573437e+01  -1.425575e+02
   4.639684e+01  -1.447555e+02
   1.516175e+02  -1.278761e+02
   1.298128e+02   1.989136e+01
  -2.148166e+01   1.479667e+02
  -8.189500e+01   9.149420e+01
  -1.007258e+02  -5.144905e+01
  -4.942877e+01  -1.167914e+02
   3.540105e+01  -1.203014e+02
   4.117857e+01  -3.880046e+01
  -3.893943e+00   4.538664e+01
  -1.455538e+01   2.765118e+01
   3.350945e+01  -2.028641e+01
  -4.674670e+00   3.031803e+01
   1.173747e+02   9.676456e+01
   4.390034e+01   1.063916e+02
  -7.014614e+01  -1.659041e+01
  -7.223036e+01  -6.243072e+01
  -9.410572e+01  -8.681187e+01
   2.015712e-01  -5.481739e+01
   8.416644e+01  -2.441754e+01
   9.584810e+01   1.950746e+01
   2.882254e+01  -2.792825e+01
  -4.056191e+01   6.139710e+01
  -2.113984e+01   1.778418e+01
   4.664941e+01  -5.511725e+01
   5.139930e+01  -4.509180e+01
  -2.921508e+01   3.430115e+01
  -1.040691e+02  -2.248067e+01
  -3.854144e+01  -1.094381e+02
   1.244160e+02  -1.295076e+02
   2.046158e+02  -5.602553e+01
   1.802599e+02   6.223527e+01
   2.132903e+01   1.948012e+02
  -7.631004e+01   1.475340e+02
  -1.588915e+02   8.501370e+01
  -7.888802e+01  -4.312761e+01
  -4.098136e+00  -6.672851e+01
  -1.515441e+01  -3.068115e+01
   1.489842e+01  -1.752399e+01
  -4.987798e+01  -5.112625e+00
  -3.768794e+01  -6.361791e+01
   2.045145e+01  -6.332648e+01
   4.534810e+01  -8.477412e+00
   1.107099e+02   1.012511e+02
   2.072412e+01   1.107072e+02
  -4.316306e+01   5.242558e+01
  -6.777733e+01  -8.544905e+01
  -2.232079e+01  -1.422090e+02
   2.950047e+01  -1.022891e+02
   1.125063e+02   1.571531e+01
   5.363696e+01   3.750802e+01
  -1.880428e+01   1.736416e+01
  -5.344822e+00   1.832436e+01
   5.013945e+01  -1.428167e+01
   8.188585e+01  -2.060294e+01
   1.370364e+01   7.331305e+01
  -4.823225e+01   5.998183e+01
  -8.337338e+01   4.878413e+01
  -7.364662e+01  -4.566272e+01
   6.814019e+01  -1.120673e+02
   8.106718e+01  -8.853195e+01
   9.555591e+01  -2.378964e+00
  -2.243327e+01   5.423888e+01
   7.719369e+00   4.132421e+01
  -1.353290e+02  -3.178992e+01
  -5.765220e+01  -1.128951e+01
  -2.635120e+01  -6.966033e+01
   4.322531e+01   1.630115e+01
   2.478463e+01   3.148909e+01
   2.917352e+01  -7.848018e+00
   2.080876e+01  -9.011560e+01
  -2.435783e+01  -2.486960e+01
   1.078586e+01   9.852836e+00
  -2.228568e+01  -1.351455e+01
  -4.263030e+01   2.709631e+01
   1.050409e+00  -2.569381e+01
   3.876605e+01  -4.926975e+01
  -9.896484e+00  -2.360207e+01
   4.694996e+00   4.069782e+01
   1.469804e+01   8.985905e+01
  -6.456005e+01   7.035715e+01
  -9.203646e+01  -3.208772e+00
  -6.895751e+01  -1.712195e+01
   4.291864e+00  -2.222022e+01
   2.454261e+01  -5.931917e+01
   4.778831e+01   3.179398e+00
  -7.318158e+01  -1.856242e+01
  -1.566116e+01   1.881762e+01
  -1.798669e+01  -1.950532e+01
   9.834691e+01   2.764170e+01
