
 $NMID
 id='ANONYMOUS ', fmtdat='(2E16.6)'
 volume=1.0
 tramp=1.0
 $END
  -3.554825e+03  -1.496476e+02
  -2.161011e+03  -1.984670e+03
   2.796573e+02  -2.201743e+03
   1.542202e+03  -1.053875e+03
   9.454995e+02   8.682101e+01
  -1.494934e+02   3.227002e+02
  -5.189382e+02  -2.095750e+02
  -1.320114e+01  -6.891134e+02
   5.796286e+02  -5.766618e+02
   7.297767e+02  -2.797280e+01
   4.062330e+02   6.223359e+02
  -1.022405e+02   7.091830e+02
  -4.141653e+02   1.399360e+02
  -2.819710e+02  -5.302013e+02
   1.651882e+02  -5.553314e+02
   4.496722e+02  -1.978141e+01
   2.676861e+02   5.276978e+02
  -2.298946e+02   6.355866e+02
  -4.407185e+02   1.917053e+02
  -3.849846e+02  -2.112176e+02
  -9.177663e+01  -3.925696e+02
   2.009566e+02  -2.754112e+02
   8.257887e+01  -1.017301e+01
  -1.628052e+02  -3.401363e+01
  -2.882886e+02  -2.764520e+02
  -6.365522e+01  -3.508504e+02
   4.836311e+02  -2.779122e+02
   7.168780e+02   2.011762e+02
   2.261830e+02   4.312103e+02
  -3.686336e+02   2.676845e+02
  -5.660147e+02  -7.319037e+01
  -2.271322e+02  -4.428223e+02
   3.013969e+02  -4.236351e+02
   4.451186e+02  -1.342655e+02
   3.415906e+02   1.747762e+02
   8.254069e+01   3.180513e+02
  -9.626189e+01   2.216608e+02
  -7.106199e+01  -8.241943e+01
   1.882830e+02  -2.242332e+02
   2.816372e+02   1.147132e+02
   1.019177e+02   5.837117e+02
  -2.885234e+02   4.741176e+02
  -4.093676e+02  -3.566813e+01
  -1.508433e+02  -3.930558e+02
   1.832292e+02  -1.741180e+02
   2.367658e+02   2.827941e+02
  -1.877071e+02   4.114362e+02
  -5.354421e+02   6.455677e+01
  -4.997521e+02  -4.160002e+02
  -1.466586e+02  -5.210836e+02
   3.515494e+02  -2.694171e+02
   5.053479e+02   1.173321e+02
   3.177590e+02   3.527945e+02
  -8.651100e+01   2.467023e+02
  -3.399322e+02  -3.092098e+01
  -1.786490e+02  -1.480394e+02
   4.650847e+00  -1.887678e+01
   1.199146e+02   5.442160e+01
  -1.036106e+02   5.912125e+01
  -1.820962e+02  -7.667978e+01
  -1.099343e+02  -2.039390e+02
   1.983131e+02  -2.021419e+02
   3.788496e+02  -1.524427e+02
   2.812079e+02   6.149013e+01
  -1.817282e+00   2.955038e+02
  -2.710855e+02   3.502699e+02
  -3.592851e+02   1.553223e+02
  -2.612151e+02  -1.374139e+02
  -1.915626e+01  -3.849568e+02
   1.202931e+02  -3.204040e+02
   5.401697e+01  -1.346222e+02
   1.245526e-01  -5.424448e+01
   7.897016e+01  -1.342533e+02
   2.034959e+02  -9.070718e+01
   2.638181e+02   1.691428e+02
   1.179237e+02   2.975561e+02
  -8.829978e+01   2.061042e+02
  -2.199929e+02   7.231465e+00
  -1.675963e+02  -2.578873e+02
   1.992004e+01  -2.533333e+02
   2.852806e+02  -7.435822e+01
   3.087242e+02   1.889369e+02
   1.384549e+02   3.309549e+02
  -1.018285e+02   2.635636e+02
  -1.804428e+02   1.219282e+02
  -1.372295e+02   5.000532e+01
  -9.004579e+01  -2.538237e+01
  -3.021749e+02   5.344027e+01
  -3.857265e+02  -9.790238e+01
  -3.295254e+02  -2.737230e+02
   8.308858e+01  -4.290087e+02
   3.945128e+02  -3.991862e+02
   5.022286e+02  -1.357184e+02
   3.255986e+02   1.224289e+02
   1.110061e+01   2.729115e+02
  -7.842423e+01   2.364266e+02
   1.242536e+01  -4.343704e+01
   1.089878e+02  -3.209276e+01
   1.317655e+02   4.542391e+01
  -2.088366e+01   1.522454e+02
  -1.475891e+02   1.258167e+02
  -6.803668e+01  -3.002785e+01
   5.575716e+01  -1.770505e+02
   1.436184e+02   1.428910e+00
   1.442723e+02   2.390038e+02
  -4.020869e+01   3.678908e+02
  -3.009744e+02   1.724003e+02
  -3.737841e+02  -1.974674e+01
  -2.912225e+02  -2.445231e+02
  -8.642161e+01  -3.350959e+02
   1.221447e+02  -1.800540e+02
   1.737279e+02   7.269702e+01
   1.179465e+01   3.043093e+01
  -8.650522e+01  -1.157197e+02
  -4.929634e+01  -9.386562e+01
   8.775543e+01  -1.105752e+02
   1.559984e+02   6.047290e+01
   3.624788e+01   1.200206e+02
  -8.179109e+01  -2.655215e+01
  -2.516564e+01  -9.883037e+01
   1.642523e+02  -8.599743e+01
   2.607984e+02   1.146731e+01
   2.585017e+02   1.881059e+02
  -5.005632e-01   2.223959e+02
  -2.790104e+02   2.656845e+02
  -2.964740e+02   9.535876e+01
  -1.789281e+02  -3.524437e+01
  -4.143762e+00  -9.187292e+01
   6.094076e+01   1.717207e+01
  -9.064907e+01   6.568751e+01
  -1.401720e+02   5.703628e+01
  -2.053840e+02  -1.669203e+02
  -2.496265e+01  -2.235525e+02
   1.345011e+02  -1.227695e+02
   8.254346e+01  -1.415352e+01
   6.039691e+01  -1.817606e+01
  -1.184426e+01  -4.380447e+01
  -7.063754e+01  -1.126057e+02
   1.121741e+02  -1.166226e+02
   1.867442e+02  -2.718112e+01
   1.481129e+02   1.049134e+02
   2.678946e+01   2.545055e+02
  -1.448472e+02   1.169449e+02
  -1.484773e+02  -9.119142e+00
  -6.072491e+01  -1.097721e+02
   5.600663e+01  -3.163945e+01
   5.440110e+01  -4.767471e+01
   1.249583e+01   4.023320e+01
  -6.947606e+01  -2.846192e+01
   1.775080e+01  -4.674200e+00
   6.880319e+01  -2.743412e+01
   1.033154e+02   6.464605e+01
   3.361932e+01   1.371444e+02
  -1.921037e+02   2.013409e+02
  -2.118251e+02   3.220680e+01
  -2.305319e+02  -1.200670e+02
  -7.155010e+01  -2.484594e+02
   1.582830e+02  -1.679802e+02
   1.386652e+02   1.627424e+01
   3.868314e+01   1.006082e+02
   5.309888e+01   1.044233e+01
   7.911052e+01  -2.324282e+00
   7.572358e+01  -1.276675e+01
   5.555440e+01   2.122372e+01
  -6.078336e+01   1.245324e+02
  -7.510224e+01   3.647134e+01
  -9.570520e+01  -7.307159e+01
   5.773730e+01  -1.413955e+02
   1.463340e+02  -1.233947e+02
   2.005680e+02   3.083651e+01
   5.136051e+01   1.716123e+02
  -1.193096e+02   2.280462e+02
  -3.039263e+02   5.953645e+01
  -2.699088e+02  -1.299405e+02
  -7.841989e+01  -1.206713e+02
   3.820228e+00  -1.615560e+02
   1.315730e+02  -1.358069e+02
   2.769217e+01  -8.669644e+01
   9.426192e+01  -9.677942e+01
   1.067290e+02  -9.089630e+01
   1.104176e+02   2.484976e+01
   1.220048e+02   1.882952e+02
  -2.811350e+01   1.948019e+02
  -1.020332e+02   2.095051e+02
  -1.392760e+02  -1.964143e+01
  -1.048888e+02  -1.117823e+02
  -6.181142e+00  -1.395982e+02
   1.499795e+02  -1.079728e+02
   4.603559e+01   2.733837e+00
  -9.619303e+00   9.275747e+01
  -1.815052e+01   3.574506e+01
   2.488872e+01   5.933379e+01
  -3.337196e+00   2.133375e+01
   7.445246e+01   1.138958e+01
  -6.415882e+01   6.613357e+00
  -1.818725e+02  -3.083678e+01
  -1.541135e+02  -5.128130e+01
   3.746536e+01  -1.100576e+02
   1.568494e+02  -7.564641e+01
   1.339720e+02  -4.935707e+01
   2.967658e+01   3.935278e+01
  -9.970168e+01   1.896941e+01
  -8.950930e+01  -4.248624e+01
   2.678286e+01  -6.180083e+01
   5.584068e+01  -5.283107e+01
   3.669848e+01   1.403792e+01
   8.495435e+01   1.135945e+02
   4.112720e+01  -3.781058e+00
   5.310273e+01  -1.091274e+01
   8.660875e+01  -2.942240e+01
   6.243377e+00   8.044262e+01
  -8.248128e+00   1.489143e+02
  -1.044828e+02   1.523168e+02
  -2.025791e+02   4.559236e+01
  -1.049950e+02  -9.402806e+01
   5.109427e+01  -1.832397e+02
   1.004749e+02  -8.401412e+01
   8.216414e+01   8.279641e+00
  -2.000091e+01   1.806710e+00
  -1.436759e+02   1.675815e+00
  -7.534108e+01  -8.051233e+01
   7.699918e+01  -1.526586e+02
   2.136738e+02  -3.725039e+01
   1.519686e+02   1.489838e+01
   5.845336e+01   1.172871e+02
  -6.269566e+01   1.724672e+01
  -3.228012e+01   4.848396e+01
   2.134585e+01  -4.107674e+01
   6.692205e+01   4.848542e+01
   6.289790e+01   1.280551e+02
  -8.856124e+01   1.530814e+02
  -1.388279e+02   4.830420e+01
  -1.252921e+02  -1.116927e+02
   3.760530e+01  -1.832076e+02
   1.062705e+02  -1.804683e+02
   5.899620e+01   5.037791e+01
   2.941840e+01   1.321333e+02
  -6.016130e+01   9.081165e+01
  -7.872219e+01  -4.826726e+01
  -3.665843e+01  -7.120258e+01
  -3.977173e+01  -1.119252e+00
  -4.424684e+01   2.920439e+00
  -2.654402e+01   1.325562e+01
  -2.820553e+01  -8.189486e+01
  -5.711798e+01  -9.979167e+01
   7.469284e+01  -1.892826e+01
   1.797290e+02   3.141952e+01
   1.665479e+02   2.653297e+01
   1.316634e+00   4.177123e+01
  -3.477160e+01   2.387753e+01
  -6.103983e+01   1.795623e+01
  -5.279293e+01  -1.034741e+01
  -6.098884e-01  -2.274667e+01
   2.922967e+01   7.510715e+00
   1.318745e+01  -7.497703e-01
   8.123050e+00   2.471664e+01
   1.239510e+02  -1.373378e+01
   9.077673e+01   7.968467e+01
   7.770742e+01   7.958176e+01
  -1.270869e+02   1.172407e+02
  -1.488066e+02   6.141285e+00
  -1.355770e+02  -7.303383e+01
  -7.086884e+01  -1.742028e+02
   5.926804e+01  -1.515750e+02
   6.984053e+01  -8.908552e+01
   8.208200e+01   4.391905e+01
   2.541790e+01   5.284187e+01
  -3.065593e+01   5.802951e+01
   1.503171e+01   7.689183e+01
  -8.709571e+00   3.791681e+01
   4.911839e+01   8.124029e+01
  -6.310731e+01   8.704458e+01
  -7.044714e+01  -2.846898e+01
  -1.272326e+02  -1.254737e+02
  -3.399366e+00  -1.159475e+02
   7.009170e+01  -7.240642e+01
   6.939206e+01   1.294413e+02
   8.673528e+01   1.304346e+02
  -5.613657e+01   6.525584e+01
  -3.361414e+01   1.697047e+01
  -2.494019e+01  -4.582263e+01
   4.617811e+01  -9.406723e+01
   1.750028e+01  -2.349083e+01
  -3.403453e+01  -4.434696e+01
  -1.061718e+02  -3.207796e+01
  -1.936129e+01  -4.313098e+01
   9.924632e+01  -1.060043e+02
   8.700345e+01  -7.302361e+01
   7.243110e+01   1.886298e+00
  -1.854954e+01   9.922429e+01
  -7.713895e+01   1.011301e+02
  -6.180308e+01  -1.082880e+01
  -2.566301e+01  -5.311888e+01
   4.464033e+01  -8.134507e+01
   7.190768e+01   2.267440e+01
   2.796548e+01   8.066413e+01
  -7.394676e+00  -1.044778e+01
  -3.658765e+00   1.089682e+01
  -1.598715e+01  -8.689480e+00
  -7.167705e+01  -1.588624e+01
  -6.625048e+00  -7.757915e+00
   4.668398e+00  -1.440607e+01
  -3.343981e+01   5.325217e+00
   1.973801e+01  -5.200398e+01
   1.808836e+01  -8.687131e+00
   6.369878e+01   6.896652e+01
  -1.986790e+00   3.762128e+01
  -3.702637e+01  -2.228514e+01
  -4.567060e+01  -5.282220e+01
  -9.936709e-02  -5.297075e+01
   4.608778e+01  -4.869575e+01
   1.101368e+02   1.495040e+01
   2.721052e+01   7.324848e+01
  -3.930020e+01   5.000633e+00
  -6.439272e+01   5.040032e+01
  -1.876154e+01   5.509876e+01
   8.696699e+00  -8.850290e+00
  -7.342447e+00   1.796925e+01
  -4.350739e+01   8.103557e+01
  -7.231081e+01   2.070107e+01
