
 $NMID
 id='ANONYMOUS ', fmtdat='(2E16.6)'
 volume=1.0
 tramp=1.0
 $END
   3.942689e+03  -4.967658e+01
   2.425702e+03   2.199053e+03
  -4.821154e+02   2.467370e+03
  -1.771279e+03   1.008311e+03
  -9.456324e+02  -2.302011e+02
   3.346024e+02  -3.682956e+02
   6.754944e+02   3.173760e+02
   6.403358e+01   8.629758e+02
  -6.404867e+02   6.708316e+02
  -8.416315e+02  -5.365223e+00
  -4.155850e+02  -7.226982e+02
   9.998751e+01  -8.128235e+02
   5.309561e+02  -1.274310e+02
   2.852163e+02   5.979087e+02
  -2.075227e+02   6.797667e+02
  -5.405718e+02   8.175109e+01
  -2.575063e+02  -6.013728e+02
   2.492913e+02  -6.375242e+02
   5.570335e+02  -1.970275e+02
   4.259430e+02   3.269223e+02
   1.147222e+02   4.068749e+02
  -2.067251e+02   2.533130e+02
  -1.761027e+02   5.480490e+01
   1.177832e+02  -6.192499e+00
   3.905870e+02   1.509695e+02
   1.445979e+02   3.843090e+02
  -4.722089e+02   2.579391e+02
  -7.592318e+02  -1.670005e+02
  -3.813870e+02  -4.613423e+02
   4.106193e+02  -3.732640e+02
   6.517122e+02   5.559647e+01
   3.107804e+02   3.924495e+02
  -2.707867e+02   4.262123e+02
  -5.365245e+02   1.737502e+02
  -3.175568e+02  -2.127242e+02
  -6.640440e+01  -3.717229e+02
   1.401097e+02  -2.268844e+02
   1.260416e+02   1.592968e+02
  -2.156307e+02   3.171637e+02
  -3.422440e+02  -9.963223e+01
  -1.500349e+02  -6.013755e+02
   2.637159e+02  -5.857235e+02
   4.969144e+02  -2.239474e+01
   2.303092e+02   4.927983e+02
  -1.976294e+02   3.017828e+02
  -3.362517e+02  -3.264317e+02
   9.509252e+01  -5.199596e+02
   5.089276e+02  -6.257352e+01
   5.090930e+02   4.265747e+02
   2.232060e+02   5.795805e+02
  -3.431633e+02   2.932797e+02
  -4.912306e+02  -7.045750e+01
  -4.099865e+02  -3.544268e+02
   1.125251e+02  -3.524513e+02
   4.038374e+02  -1.045633e+02
   2.394783e+02   1.307481e+02
  -5.410703e+01   6.750638e+01
  -1.374696e+02  -1.086457e+02
   1.714296e+02  -1.827736e+02
   3.210086e+02   1.519314e+01
   1.033769e+02   1.972723e+02
  -2.070565e+02   2.989530e+02
  -3.111340e+02   1.051003e+02
  -1.944234e+02  -1.598747e+02
   6.842720e+01  -3.208580e+02
   2.909561e+02  -3.157303e+02
   3.752315e+02  -1.726225e+02
   2.782810e+02   7.896594e+01
   3.594620e+01   3.743044e+02
  -5.167059e+01   2.906871e+02
  -3.568382e+01   2.028130e+02
  -3.168851e+01   5.234409e+01
  -3.645837e+01   9.283474e+01
  -2.885741e+02   6.107024e+01
  -2.643874e+02  -6.577934e+01
  -1.560074e+02  -2.429123e+02
   8.118418e+01  -2.040653e+02
   1.816318e+02   1.311829e+01
   1.537366e+02   2.526942e+02
  -2.653627e+01   2.869454e+02
  -2.472820e+02   9.916659e+01
  -3.633462e+02  -1.498436e+02
  -1.915427e+02  -3.219794e+02
   8.919976e+01  -2.953323e+02
   1.790703e+02  -1.195233e+02
   1.138850e+02  -2.060338e+01
   1.013517e+02  -5.030581e+01
   2.075998e+02   8.089189e+00
   4.155287e+02   8.254436e+01
   3.348715e+02   3.025163e+02
   3.140496e+01   4.785712e+02
  -3.874319e+02   4.475769e+02
  -5.364970e+02   1.500782e+02
  -3.302076e+02  -1.671743e+02
  -2.889466e+01  -2.252140e+02
   9.915040e+01  -1.838265e+02
   4.465784e+01  -4.342507e+01
  -1.927884e+02   1.105497e+02
  -1.820798e+02  -3.981839e+00
  -7.759794e+00  -1.634796e+02
   1.552062e+02  -1.714898e+02
   1.353442e+02   9.816629e+01
  -3.358857e+01   1.446905e+02
  -1.554978e+02   6.846118e+00
  -2.082426e+02  -1.843994e+02
   2.708997e+01  -3.640244e+02
   2.231642e+02  -1.770987e+02
   4.176162e+02   6.774982e+00
   2.791362e+02   2.317094e+02
   1.172465e+02   2.770715e+02
  -1.295531e+02   1.382104e+02
  -1.658211e+02   5.917361e+00
  -6.071474e+01  -1.839712e+01
   2.087329e+01   5.296840e+01
   3.969240e+01   1.362801e+02
  -1.042312e+02   1.180159e+02
  -1.707016e+02  -5.890581e+00
  -3.046091e+01  -4.166887e+01
   1.064072e+02   1.027057e+01
   5.470798e+01   5.206706e+01
  -1.531358e+02   8.925586e+01
  -3.211958e+02  -7.493102e+00
  -1.987011e+02  -1.746905e+02
  -6.324101e+01  -2.631358e+02
   2.211943e+02  -2.251456e+02
   2.851692e+02  -8.407371e+01
   1.658726e+02   5.299505e+01
  -4.806666e+01   1.015540e+02
  -6.460643e+01   1.435357e+01
   4.692918e+01  -1.051563e+02
   1.695324e+02  -4.840130e+01
   2.667029e+02   1.076753e+02
   4.601334e+01   1.988246e+02
  -1.135652e+02   1.769365e+02
  -1.207726e+02  -7.157932e+00
  -7.186546e+01  -4.112184e+01
   3.016009e+01   1.017124e+01
   2.633926e+01   1.078738e+02
  -9.411279e+01   1.366081e+02
  -1.756363e+02  -6.039666e-01
  -1.864259e+02  -9.616557e+01
   1.881095e+01  -2.040162e+02
   1.367119e+02  -1.759453e+02
   1.759143e+02   9.842409e+00
   7.910251e+01   1.290143e+02
  -5.119705e+01   1.064530e+02
  -1.136147e+02   5.116680e+01
   3.931573e+01   1.220594e+01
   3.759999e+01  -9.266972e-01
  -9.580756e+00   8.677825e+00
  -4.713843e+01  -2.074821e+01
  -1.235148e+02  -5.800671e+01
  -4.833331e+01  -1.966075e+02
   1.112985e+02  -1.636582e+02
   2.234814e+02  -5.757427e+01
   2.716769e+02   1.817630e+02
   1.338543e+01   2.131051e+02
  -1.413360e+02   1.614980e+02
  -9.459809e+01   2.594614e+01
  -6.028597e+01  -5.437889e+01
  -5.624152e+01  -4.353050e+01
  -4.049484e+01   6.149689e+01
  -4.833439e+01  -2.444148e+01
  -4.355027e+01  -2.090900e+01
  -1.894495e+01  -1.551496e+02
   1.290970e+02  -4.001218e+01
   3.809882e+01  -3.190915e+01
  -4.400473e+01   2.065944e+02
  -1.535521e+02   9.029201e+01
  -2.115836e+02  -4.617080e+01
  -7.207562e+01  -1.691587e+02
   1.168044e+02  -2.320201e+02
   2.474186e+02  -6.730715e+01
   2.125684e+02   8.581319e+01
   1.433920e+02   1.199040e+02
  -1.519676e+01   9.641358e+01
  -9.811668e+01   1.105044e+02
  -1.081189e+01   5.675918e+01
  -3.616103e+01   9.670707e+01
  -8.126538e+01   1.424901e+02
  -1.454365e+02  -4.583266e+00
  -1.283895e+02  -1.978688e+02
  -4.777485e+01  -2.555901e+02
   7.206909e+01  -1.333560e+02
   1.561137e+02   1.555714e+01
   1.466773e+02   1.133637e+02
  -4.408775e+01   1.607053e+02
  -9.403535e+01   1.266480e+02
  -4.829971e+01   9.513897e+00
   1.315035e+00  -4.001605e+01
   3.221584e+01  -4.800704e+01
  -3.520777e+01  -5.030433e+01
  -8.460815e+01  -2.438354e+01
  -5.645722e+01  -4.506601e+01
   4.123612e+00  -5.212871e+01
   1.940359e+02  -6.170687e+01
   1.349398e+02  -2.647766e-01
  -3.167940e+01   1.182992e+02
  -8.910145e+01   1.046445e+02
  -1.497041e+02  -3.355675e+01
  -1.014084e+02  -3.752725e+01
   7.200644e+01  -7.542014e+00
   1.164917e+02   5.838424e+01
  -4.404688e+01   2.976722e+01
  -6.326148e+01   8.349217e+01
  -3.085284e+01  -1.227662e+01
  -5.909076e+01  -3.842459e+01
  -4.575433e+01  -2.134751e+01
  -1.593283e+01  -1.768347e+01
  -3.882612e+01  -9.261837e+00
   2.519176e+00  -8.495738e+01
   7.192827e+00  -1.598146e+02
   9.067084e+01  -1.252948e+02
   1.145906e+02  -6.549507e+01
   1.207899e+02   1.916117e+01
  -1.724121e+01   1.489761e+02
  -5.686390e+01   8.860190e+01
  -3.433646e+01  -1.406274e+00
   2.908498e+01  -1.411380e+01
   1.137907e+02   5.076882e+01
   1.046441e+02   1.135614e+02
  -2.978013e+01   7.852123e+01
  -2.102366e+02  -1.960756e+01
  -1.820195e+02  -7.203636e+01
  -4.713799e+01  -3.948382e+01
   8.341216e+01  -7.107819e+01
   2.104257e+01   2.683949e+00
  -5.415218e+01   2.245460e+01
  -6.920600e+01  -3.051499e+01
  -3.227290e+01  -1.473102e+02
   4.634761e+01  -2.000419e+02
   1.787216e+02   9.734560e+00
   1.347281e+02   4.537008e+01
   2.196669e+01   1.860262e+02
  -4.424068e+01   1.282936e+02
  -1.050539e+02  -1.606032e+01
  -4.933206e+01  -7.434350e+01
   2.632758e+00  -5.255801e+01
   2.108200e+01   1.267145e+01
   5.891314e+01   1.903967e+01
   8.267631e+00   2.809766e+01
   2.266856e+01   1.948604e+01
   7.480647e+00   4.040354e+01
   6.927022e+01   9.762749e+01
   3.949463e+01   8.810490e+01
  -1.009380e+02   5.138174e+01
  -1.672644e+02   4.525046e+00
  -1.301962e+02  -1.939828e+01
  -1.232248e+01  -8.862728e+01
   1.095689e+02  -3.697174e+01
   8.734047e+01   4.078716e+00
   1.666144e+01  -6.686220e+00
   5.363636e+00   2.020512e+01
  -1.476647e+01   5.374530e+01
   1.501184e+01   1.114374e+01
  -3.686689e+01   2.334009e+01
  -5.810673e+01   5.510606e+01
  -1.384597e+02  -2.844425e+01
  -2.262118e+01  -6.914606e+01
   1.160566e+02  -1.052386e+02
   1.691438e+02  -6.978498e+01
   1.631869e+02   3.652224e+01
   5.101190e+01   1.830623e+02
  -7.166360e+01   1.446940e+02
  -5.685457e+01   3.447847e+01
  -8.325510e+01  -6.187618e+01
  -5.771472e+01  -4.662963e+01
  -3.423836e+01   9.045751e+00
  -2.895995e+01  -1.105067e+01
  -2.056869e+01  -2.861460e+01
   2.388496e+01  -5.108925e+01
   8.096979e+01  -6.266917e+01
   9.910357e+01   1.656656e+01
   8.477218e+01   9.699549e+01
   8.590024e+00   9.869729e+01
  -4.719733e+01   9.734606e+00
  -8.299135e+01  -9.037442e+01
  -2.266532e+01  -1.089180e+02
   6.186013e+01  -5.239370e+01
   1.734522e+02   1.556685e+01
  -1.770727e+00   9.306561e+01
  -4.093860e+01   5.374486e+01
  -6.944067e+00   7.172657e+01
   5.073869e+01   6.011353e+00
   7.847572e+01   3.112933e+01
   4.892088e+01   7.951757e+01
  -8.516703e+01   5.632469e+01
  -1.427195e+02   7.065596e+01
  -6.894983e+01   9.063870e+00
   2.876775e+01  -6.683972e+01
   9.213526e+01  -9.377525e+01
   1.281650e+01   7.342732e+00
  -3.917964e+00   1.119101e+02
  -7.566471e+01   9.239970e+01
  -4.123625e+01  -1.103887e+01
  -1.681696e+01  -3.698751e+01
   1.817029e+01  -4.198002e+01
   9.373718e+01  -2.899365e+00
   7.509329e+01   2.031817e+01
   1.580085e+01  -2.158877e+01
   5.175161e+00  -2.528498e+01
  -2.042663e+01   5.180199e+01
  -4.333743e+01   4.260702e+01
  -6.685503e+01  -5.901455e+00
  -5.117365e+01  -2.813808e+01
  -1.194671e+01  -5.264140e+01
  -6.796260e+01  -5.824705e+01
  -8.756405e+00  -2.326799e+01
  -9.715566e+00  -1.433100e+00
   9.144997e+01   2.888999e+01
  -4.853309e+01   4.928391e+01
  -1.003794e+02  -5.311375e+01
  -5.658673e+01  -2.175517e+01
   7.248087e+01  -6.831575e+01
   5.005903e+01  -4.901188e+01
   3.568014e+01  -2.584847e+01
  -4.262366e+01   3.825310e+01
  -3.607722e+01  -3.852283e+01
  -1.109589e+01  -1.423330e+01
   6.241352e+01   3.259563e+01
