
 $NMID
 id='ANONYMOUS ', fmtdat='(2E16.6)'
 volume=1.0
 tramp=1.0
 $END
  -3.312836e+03  -2.996429e+01
  -2.098604e+03  -1.730078e+03
   5.762730e+01  -2.065574e+03
   1.333329e+03  -1.193521e+03
   9.493958e+02  -1.084864e+02
  -7.017726e+01   2.667466e+02
  -4.347160e+02  -7.689100e+01
  -7.201222e+01  -6.504382e+02
   5.163400e+02  -6.009405e+02
   6.724300e+02  -5.376585e+01
   3.682318e+02   4.930191e+02
  -1.961083e+01   6.800498e+02
  -3.158752e+02   1.600355e+02
  -1.677660e+02  -4.664395e+02
   1.393068e+02  -5.787006e+02
   4.302116e+02  -4.698606e+01
   3.262208e+02   4.702623e+02
  -1.414049e+02   6.176764e+02
  -4.921738e+02   2.408497e+02
  -4.296015e+02  -1.821928e+02
  -1.524899e+02  -3.562830e+02
   1.536984e+02  -2.885886e+02
   3.150061e+01  -1.012611e+02
  -1.592224e+02  -8.087541e+01
  -3.342661e+02  -2.257568e+02
  -2.461226e+01  -3.682805e+02
   5.031985e+02  -1.333445e+02
   6.508731e+02   1.780737e+02
   2.287834e+02   3.988092e+02
  -3.470528e+02   2.406952e+02
  -4.967565e+02  -1.223448e+02
  -1.486111e+02  -3.478435e+02
   2.597012e+02  -3.670216e+02
   4.807241e+02  -1.241808e+02
   3.347782e+02   1.643958e+02
   5.224616e+01   3.025547e+02
  -1.048895e+02   1.988459e+02
   2.741128e+01  -1.132104e+02
   2.240823e+02  -2.258997e+02
   2.358986e+02   1.667788e+02
  -2.208616e+00   5.467687e+02
  -2.456406e+02   4.396822e+02
  -3.388828e+02  -4.306086e+01
  -1.049572e+02  -2.644023e+02
   1.781937e+02  -1.746685e+02
   1.703668e+02   2.969237e+02
  -1.030235e+02   4.098371e+02
  -4.781784e+02   4.771024e+01
  -4.982009e+02  -3.643826e+02
  -1.447065e+02  -5.106594e+02
   3.284042e+02  -2.943351e+02
   4.953301e+02   6.803852e+01
   3.475878e+02   2.886955e+02
  -7.714430e+01   2.440696e+02
  -3.091393e+02   8.453885e+01
  -1.540020e+02  -9.696183e+01
  -2.958406e+00  -5.409629e+01
   7.465079e+01   1.038320e+02
  -1.457238e+02   6.492875e+01
  -2.065539e+02  -4.915524e+01
  -8.642727e+01  -1.629238e+02
   1.459097e+02  -2.310212e+02
   2.927388e+02  -1.185972e+02
   3.096355e+02   5.348096e+01
   1.537395e+01   2.981140e+02
  -2.940835e+02   3.488210e+02
  -4.067378e+02   2.366359e+02
  -2.367926e+02  -1.450531e+02
  -7.341076e+01  -3.794450e+02
   6.453462e+01  -3.617747e+02
   1.211043e+01  -1.887130e+02
   2.235941e+01  -1.006417e+02
   1.497172e+02  -7.788434e+01
   2.015896e+02  -1.237664e+02
   2.721451e+02   1.006619e+02
   5.899787e+01   2.241100e+02
  -1.217420e+02   1.899512e+02
  -1.982184e+02  -2.547129e+01
  -1.479884e+02  -2.650054e+02
   2.892200e+01  -2.659637e+02
   2.492624e+02  -1.309068e+02
   3.114102e+02   1.855171e+02
   1.517195e+02   3.150719e+02
  -6.361035e+01   2.381803e+02
  -1.993511e+02   1.507352e+02
  -1.432549e+02   8.081562e+01
  -1.468695e+02   3.280472e+01
  -2.729739e+02   2.339505e+01
  -3.867236e+02  -1.172310e+02
  -3.311174e+02  -2.979898e+02
  -1.694004e+01  -4.741987e+02
   3.620688e+02  -4.090721e+02
   4.897831e+02  -2.028781e+02
   3.040047e+02   1.418490e+02
   3.836981e+01   2.663058e+02
  -1.150212e+02   1.819707e+02
  -5.858272e+01   4.563963e+01
   1.523314e+02  -2.770283e+01
   1.137918e+02   3.940747e+01
  -1.747417e+01   2.111391e+02
  -1.374068e+02   6.418541e+01
  -1.560251e+02  -8.457593e+01
   3.069193e+01  -1.267910e+02
   1.574769e+02  -1.963231e+01
   1.432759e+02   2.089401e+02
   1.015694e+01   3.400928e+02
  -2.304081e+02   2.610387e+02
  -3.686058e+02  -7.983750e+01
  -2.637262e+02  -2.655520e+02
  -1.044186e+02  -2.889220e+02
   1.145571e+02  -1.053765e+02
   2.006839e+02   2.079884e+01
  -1.659943e+01   2.819266e+01
  -3.446048e+01  -4.509895e+01
   6.694400e+00  -1.003469e+02
   8.195901e+01  -1.785102e+01
   1.402769e+02   2.821098e+01
   1.130897e+02   5.754195e+01
  -6.887257e+01  -3.526846e+00
  -2.926476e+01  -9.282203e+01
   1.855076e+02  -1.265921e+02
   2.563988e+02   2.246787e+01
   3.129980e+02   1.404997e+02
  -8.876018e+00   2.622299e+02
  -1.917834e+02   1.941050e+02
  -2.847518e+02   1.243913e+02
  -1.250814e+02   2.948764e+01
   2.209036e+01  -6.212100e+01
   4.864966e+01   7.914818e+00
  -2.807187e+01   6.480432e+01
  -2.047340e+02  -1.730356e+01
  -2.170645e+02  -5.348569e+01
  -4.951092e+01  -2.230378e+02
   6.829588e+01  -1.571448e+02
   1.253553e+02  -3.427905e+01
   5.992923e+01   3.166968e+01
  -6.531117e+01  -5.971712e+01
  -3.683734e+01  -1.010944e+02
   1.219401e+02  -1.275766e+02
   1.918880e+02  -3.167113e+01
   1.980309e+02   1.499558e+02
   4.749107e+01   2.201675e+02
  -1.749013e+02   1.063309e+02
  -1.903242e+02   1.510209e+01
  -7.538746e+01  -1.042402e+02
   6.597866e+01  -1.171738e+02
   4.537236e+01  -2.769899e+00
  -4.870759e+01   4.675214e+01
  -7.407703e+01  -4.278168e+01
   1.515216e+00  -7.547607e+01
   9.475307e+01  -3.259268e+01
   1.699096e+02   8.054804e+01
   5.448997e+01   1.740302e+02
  -9.762280e+01   1.461404e+02
  -2.129060e+02   2.121831e+01
  -1.880188e+02  -2.185552e+02
  -7.026356e+01  -2.204320e+02
   7.091572e+01  -1.878833e+02
   1.773370e+02  -1.119579e+01
   4.978036e+01   9.673825e+01
   1.746485e+01   6.342366e+01
   1.123171e+02  -3.642019e+01
   4.322827e+01   1.234968e+01
   3.002440e+01   5.316396e+01
  -2.819039e+01   1.021652e+02
  -1.611953e+02   6.020302e+01
  -7.805937e+01  -5.076046e+01
  -6.439063e+01  -1.539267e+02
   1.904479e+02  -1.023091e+02
   2.565227e+02   5.875404e+01
   3.901761e+01   1.679791e+02
  -1.128747e+02   2.401039e+02
  -3.073723e+02   7.468329e+01
  -2.484849e+02  -1.281323e+02
  -7.227924e+01  -1.916335e+02
   3.560201e+01  -1.566482e+02
   7.745657e+01  -1.109497e+02
   9.938349e+01  -7.940977e+01
   5.677089e+01  -9.540573e+01
   8.618553e+01  -7.119793e+01
   1.581012e+02   4.487864e+01
   1.318233e+02   1.884263e+02
   6.321885e+01   2.334077e+02
  -6.428212e+01   1.593781e+02
  -1.779840e+02   3.253877e+01
  -1.429758e+02  -1.533094e+02
   8.537612e+00  -1.411436e+02
   4.963195e+01  -9.164261e+01
   7.364560e+00   2.770457e+01
   4.704686e+00   4.697752e+01
   2.860444e+01  -5.968141e+00
  -3.892742e+01   3.339004e+01
   6.798606e+01   1.742631e+01
   4.866778e+01   2.439887e+01
  -1.223018e+02   5.141677e+01
  -1.915856e+02  -8.880765e+00
  -7.370891e+01  -6.986758e+01
   2.594429e+01  -9.451951e+01
   1.218078e+02  -7.097094e+01
   1.454596e+02  -3.146638e+01
   1.401562e+01   6.282279e+01
  -1.171001e+02   3.783013e+01
  -6.614494e+01  -1.118751e+01
   2.727173e+01  -1.089281e+02
   8.120206e+01   9.370160e+00
   4.029305e+01   7.595211e+00
   2.866796e+01   4.605221e+01
   3.787406e+01   3.878913e+01
   6.608937e+01   1.073696e+01
   9.289537e+01   1.683198e+01
   3.543541e+01   1.013553e+02
  -5.416267e+00   1.658818e+02
  -1.205212e+02   1.298298e+02
  -1.414926e+02  -4.421845e+01
  -1.984344e+02  -1.455697e+02
  -2.805526e+01  -1.463962e+02
   7.722802e+01  -5.030379e+01
   3.266599e+01  -8.774536e+00
  -2.947524e+01   3.204405e+01
  -1.442756e+02  -4.578365e+01
  -1.012257e+02  -1.179133e+02
   7.055227e+01  -1.293812e+02
   2.025724e+02  -5.953534e+01
   1.476708e+02   5.782596e+01
   2.809131e+01   8.253155e+01
  -4.657543e+01   6.965351e+01
  -5.133665e+01  -2.127785e+01
   6.319789e+01  -7.609160e+01
   1.491389e+02  -1.481039e+01
   7.267084e+01   1.252398e+02
  -1.000509e+02   1.723696e+02
  -1.699203e+02   6.932756e+01
  -1.764749e+02  -5.389731e+01
  -1.498944e+01  -1.593344e+02
   4.560405e+01  -1.019558e+02
   1.017136e+02   1.397151e+01
   1.963602e+01   9.725062e+01
   4.871228e+01   1.127146e+02
  -6.113816e+01  -2.107196e+01
  -5.383214e+01  -3.767008e+01
  -2.431816e+01  -1.338390e+01
   3.946829e+01   1.470383e+01
  -9.468817e+00  -8.719396e+00
  -5.488767e+01  -1.267644e+02
   6.997616e+00  -7.407999e+01
   1.335831e+02  -8.900967e+01
   1.061850e+02   9.758721e+01
   1.231800e+02   6.608682e+01
   2.604085e+01   1.091978e+01
  -7.045691e+01  -1.611039e+01
  -6.194378e+01  -4.722758e+01
  -4.648704e+01   1.054921e+01
  -1.123384e+01  -1.458408e+01
  -1.315801e+01   1.063704e+02
  -5.717554e+01  -1.780273e+01
  -1.527629e+01  -5.112228e+00
   1.246064e+02  -8.153870e+00
   5.399876e+01   4.173832e+01
   3.805295e+01   2.809921e+01
  -1.387127e+02   9.155269e+01
  -1.838221e+02   3.951647e+01
  -1.330885e+02  -5.568053e+01
   1.171657e-01  -1.666759e+02
   9.216996e+01  -1.344532e+02
   1.388519e+02  -3.604085e+01
   2.908373e+01   4.976203e+01
   2.669477e+01   5.279244e+01
   1.142967e+01  -1.485032e+01
   3.257681e+01  -5.104124e+00
   2.970225e+01   4.651287e+01
  -4.766278e-01   9.805319e+01
  -4.288590e+00   2.953288e+01
  -8.112941e+01  -2.598973e+01
  -1.218312e+02  -6.589298e+01
  -4.481979e+00  -1.753813e+02
   9.266818e+01  -6.335084e+01
   8.757618e+01   4.901506e+01
   1.299992e+01   1.204144e+02
  -4.360233e+01   1.048412e+02
  -8.728101e+01  -2.538528e+01
  -4.798833e+01  -9.733616e+01
   4.332247e+01  -8.047041e+01
   3.915247e+01  -7.401716e+01
  -3.762430e+01   1.285091e+01
  -5.002559e+01  -1.047544e+01
  -3.714151e+01  -5.803129e+01
   2.769693e+01  -2.784698e+01
   1.042854e+02  -6.137613e+01
   7.022030e+01  -2.535879e+01
  -3.828400e+00   8.687717e+01
  -1.174276e+02   8.886217e+01
  -3.394564e+01  -7.440921e+00
  -5.789182e+01  -2.176676e+01
   1.566064e+01  -3.316298e+01
   4.643195e+01  -9.713583e+01
   6.821301e+01   1.135906e+02
  -2.744883e+01  -6.989875e+00
  -4.711682e+01   6.948954e+01
  -6.135036e+01  -1.109002e+02
   1.086355e+01  -1.100229e+01
  -2.170808e+01   2.249103e+01
   2.950074e+01  -2.574425e+01
  -2.902189e+01  -5.777926e+01
   6.536277e+01  -6.867723e+01
   4.933422e+01  -4.662116e+01
   7.161266e+01   1.993764e+01
   2.435039e+01   8.151523e+01
  -1.013266e+02   4.328880e+01
  -2.491046e+01  -4.093703e+01
  -9.166068e+00  -5.080905e+01
   1.239582e+02  -5.004772e+01
   4.688903e+01  -4.130067e+01
   6.072973e+01   1.098740e+02
  -3.003276e+01   9.386251e+01
  -9.626150e+01   4.019063e+00
  -5.992376e+01   3.062297e+01
   3.535318e+01  -5.256437e+00
   4.380623e+01  -2.943234e+01
  -7.954023e+01   5.552975e+01
  -7.462463e+01   1.257842e+01
