
 $NMID
 id='ANONYMOUS ', fmtdat='(2E16.6)'
 volume=1.0
 tramp=1.0
 $END
   4.054087e+03  -4.318500e+01
   2.497367e+03   2.285121e+03
  -4.328070e+02   2.603784e+03
  -1.814949e+03   1.124237e+03
  -9.787774e+02  -2.760061e+02
   4.281249e+02  -4.291374e+02
   6.578780e+02   2.823025e+02
   3.854902e+01   8.370979e+02
  -6.876757e+02   7.816182e+02
  -8.539323e+02  -1.453675e+01
  -4.669160e+02  -7.628682e+02
   1.531640e+02  -8.127188e+02
   5.382887e+02  -1.551797e+02
   3.279518e+02   6.376487e+02
  -1.883706e+02   6.997003e+02
  -5.672907e+02   1.838168e+01
  -3.557837e+02  -6.354189e+02
   2.574049e+02  -6.920768e+02
   5.463472e+02  -1.666832e+02
   4.330361e+02   3.383447e+02
   5.852683e+01   4.708502e+02
  -1.829650e+02   2.585926e+02
  -1.211891e+02   3.481531e+01
   7.627193e+01   1.595598e+01
   4.316200e+02   2.125687e+02
   1.445718e+02   3.997308e+02
  -5.153726e+02   3.693876e+02
  -7.647927e+02  -1.079794e+02
  -3.511480e+02  -5.193376e+02
   3.299240e+02  -3.226858e+02
   6.573939e+02   1.338056e+02
   2.916496e+02   4.638829e+02
  -2.638835e+02   4.531319e+02
  -5.657077e+02   1.621303e+02
  -3.789179e+02  -2.406996e+02
  -8.342472e+01  -4.481255e+02
   1.511066e+02  -2.743664e+02
   9.894593e+01   1.907664e+02
  -2.463474e+02   2.969966e+02
  -3.922191e+02  -3.771305e+01
  -1.367536e+02  -6.690248e+02
   2.782256e+02  -5.961563e+02
   4.921490e+02  -8.324370e+00
   2.139190e+02   4.263202e+02
  -2.436775e+02   2.512776e+02
  -3.186464e+02  -2.874830e+02
   1.107337e+02  -5.483457e+02
   5.050581e+02  -1.385928e+02
   5.619907e+02   4.370188e+02
   1.335313e+02   5.983629e+02
  -4.054777e+02   2.576129e+02
  -5.903520e+02  -7.538285e+01
  -4.260612e+02  -3.860851e+02
   6.466190e+01  -3.501222e+02
   3.743468e+02  -9.355242e+01
   2.029914e+02   1.447663e+02
  -9.018988e+01   5.845810e+01
  -1.061580e+02  -1.022949e+02
   1.105422e+02  -1.709440e+02
   2.544501e+02   6.710430e+01
   1.718667e+02   2.797863e+02
  -2.248796e+02   3.037224e+02
  -3.381465e+02   1.099718e+02
  -2.440862e+02  -5.896594e+01
   2.564373e+01  -2.686896e+02
   3.388370e+02  -3.487328e+02
   4.106228e+02  -1.792759e+02
   3.183746e+02   1.694391e+02
   7.647644e+01   3.978617e+02
  -9.282086e+01   3.048211e+02
  -5.125637e+01   1.107779e+02
   7.029566e+00   6.983197e+01
  -1.016248e+02   1.490435e+02
  -2.636393e+02   1.213278e+02
  -2.736945e+02  -8.361035e+01
  -9.380370e+01  -3.044240e+02
   7.475215e+01  -1.948921e+02
   2.127444e+02  -2.359920e+01
   2.234400e+02   2.133175e+02
  -1.050507e+02   2.999819e+02
  -3.137336e+02   6.818533e+01
  -3.310341e+02  -1.123526e+02
  -1.738974e+02  -3.414709e+02
   6.880029e+01  -2.948259e+02
   2.354498e+02  -1.652535e+02
   1.412801e+02  -3.991890e+01
   1.486694e+02  -3.491928e+01
   2.557915e+02  -4.547828e+01
   4.203720e+02   7.964440e+01
   3.649837e+02   3.473783e+02
  -6.245515e+00   4.170748e+02
  -3.659544e+02   4.250993e+02
  -4.644411e+02   1.847861e+02
  -2.836438e+02  -1.517880e+02
  -1.021221e+02  -2.645938e+02
   1.058462e+02  -1.974491e+02
   7.127687e+01  -5.834664e+01
  -1.071665e+02   1.090243e+02
  -1.116779e+02   1.809644e+01
   2.530741e+01  -1.872164e+02
   1.975067e+02  -1.376726e+02
   2.108676e+02   1.465260e+01
  -5.160725e+01   1.638665e+02
  -2.101733e+02   5.949592e+01
  -1.404600e+02  -2.245388e+02
   3.311138e+01  -3.461638e+02
   2.388816e+02  -2.406808e+02
   3.886252e+02   9.875598e+01
   3.122792e+02   2.734457e+02
   5.535415e+01   2.676455e+02
  -1.454915e+02   1.612482e+02
  -1.343218e+02  -2.134661e+01
  -7.976884e+01  -1.687490e+01
  -1.897736e-01   9.976283e+01
   4.097267e+01   1.984117e+02
  -1.150597e+02   1.010584e+02
  -1.770692e+02  -3.450809e+01
  -1.546739e+01  -5.919338e+01
   9.525447e+01   6.263719e+00
   2.856723e+01   1.054979e+02
  -1.589414e+02   9.836604e+01
  -2.725648e+02  -8.131555e+00
  -3.109135e+02  -1.377446e+02
  -9.938772e+01  -2.668573e+02
   2.015665e+02  -2.747934e+02
   2.777940e+02  -1.558927e+02
   1.680654e+02   5.858710e+01
  -1.515689e+01   2.510349e+01
  -8.810555e+01  -1.932686e+01
  -3.874703e+00  -1.373339e+02
   2.214718e+02  -3.993575e+01
   2.427717e+02   1.420837e+02
   4.868277e+01   1.935201e+02
  -9.957247e+00   1.769463e+02
  -1.350756e+02   9.429156e+01
  -1.475575e+01  -7.798124e+01
   1.092901e+01  -3.637286e+01
   8.594282e+00   7.620321e+01
  -9.162306e+01   1.205926e+02
  -1.912286e+02   2.625891e+01
  -2.094677e+02  -1.690897e+02
   4.168368e+01  -1.928924e+02
   1.787158e+02  -2.133210e+02
   1.820146e+02  -1.735732e+01
   7.562925e+01   1.284687e+02
  -1.213349e+02   1.406683e+02
  -7.531675e+01   4.093613e+01
  -2.375531e+01  -3.782460e+01
  -1.128636e+01  -6.181912e+01
  -9.988244e+00  -6.669018e+00
  -8.324608e+01  -1.534519e+01
  -9.942675e+01  -1.139767e+02
   1.250694e+01  -2.051424e+02
   1.335977e+02  -1.237573e+02
   1.868727e+02  -1.982527e+01
   2.182058e+02   1.467993e+02
   4.481129e+01   2.419592e+02
  -1.438850e+02   2.289930e+02
  -1.183284e+02   4.488513e+01
  -7.221444e+01  -7.980059e+01
   7.762251e+00  -6.288159e+01
  -5.792018e+01  -1.578813e+01
  -1.316189e+02   1.042801e+00
  -1.019107e+02  -5.642014e+01
   4.258702e+01  -8.929683e+01
   1.107831e+02  -6.028924e+01
   9.556019e+01   1.917322e+01
  -1.906894e+01   1.168661e+02
  -1.776239e+02   8.470351e+01
  -2.376968e+02  -3.602752e+01
  -8.756700e+01  -2.887517e+02
   1.170364e+02  -2.320640e+02
   2.467502e+02  -5.388343e+01
   2.842002e+02   6.834181e+01
   9.684068e+01   2.528164e+02
  -5.222761e+01   1.488414e+02
  -1.056549e+02   7.064144e+01
  -1.274971e+02   1.696720e+01
  -2.930882e+01   5.223096e+01
  -7.014323e+01   1.278606e+01
  -1.994958e+02  -3.288831e+01
  -1.345940e+02  -1.095216e+02
  -6.450513e+01  -2.019483e+02
   9.955778e+01  -1.456939e+02
   1.952133e+02  -2.736188e+01
   1.388035e+02   6.802458e+01
   1.050237e+00   1.968833e+02
  -9.818033e+01   8.125173e+01
  -1.273472e+01   7.075483e+00
   2.296104e+01  -2.861503e+01
  -2.698631e+00  -1.147038e+01
  -4.958959e+01  -1.940570e+01
  -1.208597e+02  -4.775913e+01
  -2.824357e+01  -2.293835e+01
   2.451012e+00  -7.948526e+01
   1.500642e+02  -2.089988e+01
   1.512057e+02   4.756239e+01
   5.242754e+01   5.996719e+01
  -1.483651e+02   8.378615e+01
  -1.542046e+02   3.593595e+01
  -8.370477e+01  -8.193948e+01
   4.716831e+01  -8.529645e+01
   1.033317e+02   1.929721e+00
   1.170550e+01   8.871874e+01
  -6.271182e+00   7.599582e+01
  -8.540830e+01  -2.581013e+01
  -5.333653e+01  -1.577513e+01
  -2.333833e+01  -8.206585e+01
  -1.865550e+01   8.435895e+00
  -7.137859e+01   1.488327e+01
   2.879752e-01  -6.933410e+01
   7.688192e+01  -1.465541e+02
   1.105256e+02  -1.624296e+02
   1.883802e+02   1.061208e+00
   1.384734e+02   1.106033e+02
  -3.107769e+01   1.139107e+02
  -8.096604e+01   1.223682e+02
  -5.733109e+01   1.463699e+01
   3.345983e+01  -5.338200e+00
   1.001470e+02   3.598831e+01
   9.340749e+01   1.144696e+02
  -9.000074e+01   1.327656e+02
  -1.641914e+02   1.698628e+01
  -1.981368e+02  -3.899609e+01
  -1.163462e+01  -1.196762e+02
   7.713857e+01  -7.911793e+01
   4.331769e+01   2.034308e+01
  -3.152865e+01   7.846703e+00
  -9.780470e+01  -1.238250e+01
  -7.240933e+01  -1.314882e+02
   1.216044e+02  -1.500679e+02
   1.795649e+02  -9.539301e+01
   1.513977e+02   8.735385e+01
   5.617010e+01   1.968747e+02
  -9.927804e+01   1.494211e+02
  -9.912532e+01   6.425548e+00
  -6.805561e+01  -1.406637e+02
  -1.908573e+01  -9.906997e+01
   8.518517e+01  -1.356647e+01
   6.306606e+01   4.215107e+00
   3.237026e+01   2.226578e+01
   1.523123e+01  -5.087011e+01
  -6.925275e+00  -7.143173e+00
  -3.466533e+01   1.236113e+02
   5.073658e+01   8.756650e+01
  -6.169118e+01   4.049594e+01
  -1.500695e+02  -1.221902e+01
  -8.272416e+01  -6.113137e+01
  -2.961452e+00  -2.456570e+01
   1.369352e+02  -4.692551e+01
   1.326593e+02  -1.197880e+01
   5.292723e+01  -1.912083e+01
   1.461164e+01   7.961157e+01
  -6.589735e+01   1.664231e+01
  -1.503684e+01   1.408798e+01
  -2.438647e+01   2.435781e+01
  -6.292671e+01   1.399889e+00
  -1.242481e+02   4.235729e+00
  -2.891121e+01  -1.073298e+02
   1.119725e+02  -1.143502e+02
   2.193565e+02  -8.217714e+01
   1.383229e+02   9.827446e+00
  -7.904386e+00   1.806148e+02
  -9.198190e+01   1.580772e+02
  -1.030659e+02   4.431880e+01
  -1.021853e+02   2.975694e+01
  -8.898191e+01  -6.234028e+01
  -2.592725e+01  -4.446824e+01
  -1.804783e+01  -1.034999e+01
  -6.696993e+01  -3.874704e+01
  -8.448178e-01  -7.866896e+01
   2.827266e+01  -5.505227e+01
   1.158285e+02   4.993860e+01
   1.135171e+02   1.323706e+02
   3.232196e+01   1.326350e+02
  -1.300902e+02   3.454700e+01
  -1.414112e+02  -2.741070e+01
  -4.707862e+01  -6.716701e+01
   2.713725e+01  -5.500122e+01
   9.950175e+01   1.851241e+01
   4.097266e+01   9.216162e+01
  -6.111064e+01   6.269295e+01
  -2.738363e+01   1.423764e+01
   8.006199e+01  -4.095658e+01
   6.586897e+01  -1.540898e+01
   2.764024e+01   2.891029e+01
  -7.488697e+01   6.066072e+01
  -1.148217e+02   3.042267e+01
  -8.194163e+01  -3.002917e+01
   6.691239e+00  -1.009754e+02
   6.573429e+01  -1.121617e+02
   8.176594e+01  -7.394860e+00
  -1.596511e+00   5.424340e+01
  -5.035129e+01   5.134204e+01
  -2.499511e+01  -1.248102e+01
  -3.927773e+01  -2.639128e+01
  -1.445577e+01  -4.131390e+01
   3.378065e+01  -2.033013e+01
  -5.950000e+00   2.665986e+01
   2.984598e+01  -3.800212e+00
  -8.839051e+00  -1.290199e+01
   4.583876e+00  -1.235451e+01
  -1.252099e+01   4.637297e+01
   3.624517e+01   6.752400e+01
  -3.071311e+01   3.068029e+01
  -2.557728e+01  -6.395233e+01
  -5.968357e+01  -6.408636e+01
   1.060673e+02   3.640143e-01
   6.464766e+00   5.349541e+01
   4.093915e+01   8.666488e+01
  -8.253544e+01   7.626915e+01
  -1.422228e+02   5.815665e+00
  -7.358425e+01  -1.193157e+01
   2.229459e+01  -8.133691e+01
   7.671035e+01  -2.313501e+01
  -7.669661e+00   1.643270e+01
  -1.911159e+00   4.142250e+00
  -2.828824e+01   7.588376e+00
   5.116073e+01  -6.697996e-01
   9.661000e+01  -3.042065e+01
