
 $NMID
 id='ANONYMOUS ', fmtdat='(2E16.6)'
 volume=1.0
 tramp=1.0
 $END
   4.646623e+03   3.913870e+01
   2.619671e+03   2.848674e+03
  -9.610498e+02   2.962816e+03
  -2.256367e+03   8.523173e+02
  -9.523686e+02  -8.241136e+02
   7.659445e+02  -6.133356e+02
   9.744070e+02   4.937165e+02
  -4.304309e+01   1.174277e+03
  -9.650210e+02   8.509850e+02
  -1.076324e+03  -1.365045e+02
  -4.492073e+02  -9.918388e+02
   3.280754e+02  -9.462559e+02
   7.443339e+02  -1.130698e+02
   4.154289e+02   7.874304e+02
  -3.178876e+02   7.999358e+02
  -6.751091e+02  -5.639675e+01
  -2.410053e+02  -7.402024e+02
   3.743804e+02  -6.109126e+02
   6.302618e+02  -4.088260e+01
   4.141887e+02   3.791026e+02
  -1.306175e+01   4.722067e+02
  -2.325871e+02   2.903167e+02
  -2.519637e+02   1.760262e+01
   9.177190e+01  -1.556065e+02
   4.269296e+02   4.684302e+01
   1.921920e+02   4.602018e+02
  -5.092423e+02   4.431285e+02
  -9.192950e+02  -2.144522e+01
  -4.836448e+02  -6.219822e+02
   3.937843e+02  -5.654333e+02
   8.289404e+02  -2.895664e+01
   3.253462e+02   5.469330e+02
  -3.202837e+02   5.944306e+02
  -6.275779e+02   1.500767e+02
  -4.267795e+02  -2.589703e+02
  -7.103757e+01  -5.430343e+02
   2.242677e+02  -3.462182e+02
   1.797574e+02   2.673029e+02
  -1.994502e+02   4.881696e+02
  -4.992382e+02   1.065154e+01
  -2.963586e+02  -7.273262e+02
   3.336273e+02  -6.897821e+02
   6.375847e+02   1.762400e+00
   2.909773e+02   6.251608e+02
  -3.817885e+02   3.557461e+02
  -4.423908e+02  -3.546884e+02
   4.685092e+01  -6.758461e+02
   5.835358e+02  -1.196262e+02
   6.753367e+02   4.187213e+02
   1.846356e+02   6.177623e+02
  -3.940583e+02   3.692633e+02
  -6.323574e+02  -7.648371e+01
  -4.733743e+02  -4.165371e+02
   1.802547e+02  -3.245433e+02
   4.381815e+02  -5.516849e+01
   3.028933e+02   1.978748e+02
  -1.279514e+02   9.568705e+01
  -1.251795e+02  -1.613869e+02
   2.265533e+02  -2.132614e+02
   3.695679e+02   1.088447e+02
   1.662806e+02   3.289319e+02
  -1.987771e+02   2.048126e+02
  -3.506345e+02   7.223295e+01
  -1.878637e+02  -1.123660e+02
   7.723625e+01  -1.878752e+02
   2.333605e+02  -3.340165e+02
   3.087655e+02  -2.132264e+02
   2.621387e+02   1.351977e+02
   4.520241e+01   4.455109e+02
  -1.892675e+02   3.881252e+02
  -1.205399e+02   1.265341e+02
  -5.431736e+01  -1.086892e+01
   6.859844e+00   8.771106e+01
  -2.221141e+02   1.607609e+02
  -3.540323e+02  -3.862365e-02
  -1.691914e+02  -2.746072e+02
   6.921186e+01  -3.111263e+02
   2.616966e+02   1.452324e-01
   2.068754e+02   2.667721e+02
   3.460029e+01   2.536718e+02
  -3.237239e+02   1.115049e+02
  -4.322586e+02  -1.236486e+02
  -1.780046e+02  -4.001646e+02
   1.568831e+02  -3.549763e+02
   2.354836e+02  -7.876996e+01
   1.217763e+02   1.192361e+00
   7.880188e+01  -1.729232e+01
   2.113423e+02  -7.848819e+01
   4.076134e+02   4.735776e+01
   3.206733e+02   2.153127e+02
  -2.523713e+01   4.363977e+02
  -3.546576e+02   3.882062e+02
  -4.843455e+02   1.812930e+02
  -3.337899e+02  -6.123201e+01
  -7.139869e+01  -3.606604e+02
   1.233012e+02  -2.685218e+02
   8.942826e+01  -1.841107e+01
  -1.395046e+02   1.409696e+02
  -2.185641e+02  -2.023197e+01
  -9.549369e+01  -1.824090e+02
   1.891580e+02  -1.633097e+02
   2.167760e+02   1.014571e+01
  -3.563618e+01   1.974046e+02
  -2.444270e+02   8.447063e+01
  -2.123221e+02  -2.442905e+02
   5.092527e+01  -4.080526e+02
   2.532205e+02  -2.333130e+02
   3.673354e+02   9.605058e+00
   3.171252e+02   1.848068e+02
   6.726493e+01   2.657153e+02
  -1.184441e+02   1.603543e+02
  -2.004607e+02  -2.578783e-01
  -4.066465e+01  -6.335478e+01
   1.192540e+02   6.790971e+00
   5.748356e+01   1.182600e+02
  -1.521524e+02   1.170971e+02
  -1.612101e+02  -5.632589e+01
  -4.247583e+01  -6.574154e+01
   7.845261e+01  -3.007770e+01
   5.680714e+01   8.323810e+01
  -1.385233e+02   1.019185e+02
  -3.645000e+02  -6.204222e+01
  -2.060934e+02  -1.643734e+02
  -4.777994e+01  -2.860358e+02
   1.829495e+02  -2.490546e+02
   2.872519e+02  -8.378651e+01
   1.831017e+02   6.316358e+01
   8.050049e+00   1.593550e+02
  -8.670652e+01   1.705749e+01
   5.169626e+01  -1.046344e+02
   2.326030e+02  -8.711947e+01
   2.512739e+02   8.779918e+01
   8.621726e+01   2.521608e+02
  -1.165545e+02   1.817298e+02
  -1.891716e+02   4.621821e+01
  -1.213140e+02  -4.773361e+01
  -3.186453e+01   3.001708e+00
   4.054056e+01   3.464585e+01
  -1.218824e+02   1.636673e+02
  -1.981802e+02   3.816033e+01
  -1.971310e+02  -1.330495e+02
  -2.456245e+01  -1.991593e+02
   1.751495e+02  -1.631702e+02
   1.880833e+02  -1.510366e+01
   8.173401e+01   9.295477e+01
  -2.479945e+01   1.187593e+02
  -1.377008e+02  -1.302098e+01
  -2.497208e+01  -3.272114e+01
   3.302502e+01  -4.869052e+01
  -1.672067e+01   2.420250e+01
  -9.232449e+01   5.225563e+00
  -9.661687e+01  -3.091996e+01
  -3.492352e+00  -1.402942e+02
   1.233543e+02  -1.506392e+02
   2.401831e+02   1.801715e+01
   1.525375e+02   1.618913e+02
   5.338834e+01   2.236309e+02
  -8.126905e+01   1.709883e+02
  -1.463546e+02   7.059039e+01
  -5.286363e+01  -4.650876e+01
  -9.139310e+01  -3.850606e+01
  -4.862708e+01   2.113386e+01
  -1.186487e+02   1.189555e+01
   3.385172e+01  -2.975860e+01
   3.304373e+01  -6.180466e+01
   9.489715e+01  -4.692287e+01
   6.483040e+01   5.573385e+00
  -2.945653e+00   1.466394e+02
  -1.502115e+02   8.922360e+01
  -1.880329e+02   8.703055e-01
  -6.924150e+01  -2.240082e+02
   4.802737e+01  -2.812945e+02
   3.351073e+02  -7.492997e+01
   2.519223e+02   8.051169e+01
   1.148602e+02   1.547515e+02
  -5.682022e+01   1.154038e+02
  -1.090401e+02   9.876761e+01
  -8.718179e+01   4.271219e+01
  -6.357536e+01   1.248583e+02
  -7.864556e+01   7.344745e+01
  -1.292197e+02  -3.461648e+01
  -1.436962e+02  -1.817276e+02
  -4.277640e+01  -2.294082e+02
   1.103633e+02  -1.198812e+02
   1.956159e+02  -3.115829e+01
   1.611733e+02   1.246643e+02
  -2.085336e+01   1.659585e+02
  -1.741460e+01   7.019784e+01
  -1.012748e+02   2.023956e+01
  -2.052181e+01  -7.444315e+00
   1.607530e+01  -9.830199e+00
  -7.335130e+01  -7.096478e+01
  -1.308943e+02  -2.676675e+01
  -6.451222e+01  -2.952942e+01
   1.099781e+02  -6.804692e+01
   1.282400e+02  -7.249465e+00
   1.531402e+02   5.175465e+01
  -5.051502e+01   8.599080e+01
  -1.331192e+02   8.738207e+01
  -1.243617e+02  -6.279773e+01
  -6.854619e+01  -2.474845e+00
   1.063782e+02  -7.315966e+01
   5.514277e+01   3.063410e+01
   2.565152e+01   4.809184e+01
  -9.303953e+01   7.244409e+01
  -5.491944e+01  -2.784483e+01
  -5.508451e+01  -4.335415e+01
  -4.547207e+01   9.503062e+00
  -1.773689e+01  -6.641907e+01
  -8.894262e+01  -4.096854e+00
  -4.319267e+01  -1.032773e+02
   3.563446e+01  -1.988958e+02
   1.174660e+02  -1.702797e+02
   1.905305e+02  -5.702087e+00
   1.341359e+02   1.662100e+01
   1.565249e+01   1.234699e+02
  -6.870377e+01   1.265533e+01
  -6.372675e+01   9.893126e+00
   8.922036e+01   5.453419e+00
   1.603525e+02  -9.777679e+00
   7.863567e+01   7.358445e+01
  -8.475786e+01   8.943879e+01
  -2.379292e+02   9.401619e+01
  -1.807384e+02  -5.440065e+01
  -7.933692e+01  -1.125710e+02
   7.559318e+01  -1.078463e+02
   7.030961e+00  -2.123239e+01
  -5.614330e+01   4.082650e+01
  -7.352819e+01  -2.040065e+01
  -6.331289e+01  -1.378078e+02
   8.670617e+01  -1.906570e+02
   2.222570e+02  -8.783969e+01
   1.039786e+02   8.349430e+01
   4.299104e+01   1.921053e+02
  -9.242793e+01   1.352931e+02
  -1.536179e+02   4.623874e+01
  -8.437591e+01  -1.318632e+02
  -2.601167e+01  -9.541172e+01
   2.706643e+01  -4.811933e+01
   3.313348e+01   1.206733e+01
   5.129687e+01  -4.292520e+01
   5.061772e+01  -5.967153e+01
   9.751522e+01   1.052244e+01
   4.007753e+01   1.194352e+02
   2.655801e+01   1.391759e+02
  -8.841154e+01   4.862107e+01
  -1.274174e+02  -1.132144e+01
  -1.552181e+02  -8.658936e+01
  -4.603532e+01  -7.456280e+01
   5.167429e+01  -3.764510e+01
   1.010898e+02  -5.082293e+01
   3.459131e+01  -2.171306e+01
  -1.638515e+01   1.403076e+01
  -3.337275e+01  -1.038662e+01
  -1.533398e+01   1.186631e+01
  -5.160250e+01  -2.199394e+01
  -7.715750e+01   5.387058e+01
  -1.139976e+02  -6.409516e+01
  -8.451701e+00  -9.561592e+01
   1.045036e+02  -1.175319e+02
   2.067473e+02  -1.089270e+01
   1.700260e+02   6.871846e+01
  -1.455029e+01   1.315707e+02
  -5.535478e+01   1.477462e+02
  -7.930497e+01   7.052807e+01
  -7.970566e+01   3.614778e+01
   1.542474e+01   1.783617e+01
   4.402750e+00  -1.715140e+01
  -1.199514e+01  -4.392892e+01
  -1.606250e+01  -2.799106e+01
  -7.984286e+01  -1.084593e+02
   2.318497e+01  -7.371394e+01
   1.259468e+02   3.847029e+00
   1.310319e+02   8.088337e+01
   5.746424e+01   1.319633e+02
  -4.703575e+01   7.048003e+01
  -1.125818e+02  -9.404948e+01
  -8.115571e+01  -1.659030e+02
   6.959183e+01  -2.803279e+01
   7.537267e+01   3.869397e+01
  -1.011141e+01   6.144412e+01
   2.254337e+00   1.007081e+02
  -6.077135e+01  -5.431664e+00
   3.118196e+01   3.937420e+01
   8.796009e+01   2.316689e+01
  -3.497845e+01   3.361061e+01
  -2.663598e+01   5.440766e+01
  -9.201183e+01   8.803935e+01
  -6.470087e+01   4.708617e+00
   1.923033e+01  -4.907806e+01
   1.400336e+01  -5.683984e+01
   4.514621e+01   4.043853e+01
   2.243586e+01   1.467237e+01
   6.216753e-01   6.472934e+01
   7.900342e+00   3.637907e-01
  -7.796074e+01  -6.775117e+01
  -1.080726e+01  -5.227446e+01
   1.300602e+01   1.440364e+01
   1.986866e+01  -3.609130e+01
  -2.985777e+01   2.473008e+01
   1.520578e+01  -1.173621e+01
   1.797503e+01   8.623458e+00
  -1.242455e+01   6.602563e+01
  -3.796633e+00   5.760453e+01
  -6.732151e+01   3.264990e+01
  -5.285755e+01  -6.339763e+01
   3.043873e+01  -6.961741e+01
   3.082368e+01  -4.225257e+01
   4.939047e+01   3.393414e+01
   2.518134e+01   5.023529e+01
  -5.266576e+01   3.131265e+01
  -5.503621e+01  -3.450579e+01
  -2.304485e+01  -7.894813e+01
   4.783241e+01  -2.365467e+01
   8.838121e+01  -1.484588e+01
   3.096702e+01  -2.679734e+01
  -6.675940e+01   3.609008e+01
  -9.135405e+01  -1.230922e+01
   6.390271e+01  -1.005187e+01
   1.205578e+02  -9.759946e+00
