
 $NMID
 id='ANONYMOUS ', fmtdat='(2E16.6)'
 volume=1.0
 tramp=1.0
 $END
   4.383422e+03   1.027788e+02
   2.495749e+03   2.587055e+03
  -7.297631e+02   2.758439e+03
  -2.096664e+03   8.714154e+02
  -9.521957e+02  -6.053457e+02
   6.944774e+02  -5.759877e+02
   8.447300e+02   4.406746e+02
  -3.407956e+01   1.091046e+03
  -8.525786e+02   7.305220e+02
  -9.627606e+02  -1.180465e+02
  -4.476397e+02  -8.837445e+02
   2.827182e+02  -8.928071e+02
   6.345700e+02  -6.984932e+01
   3.621801e+02   7.045536e+02
  -3.417010e+02   7.756389e+02
  -5.968959e+02  -2.508111e+01
  -2.798440e+02  -6.796481e+02
   2.868663e+02  -6.098861e+02
   6.656930e+02  -1.478301e+02
   4.033431e+02   3.777019e+02
  -1.893613e+01   4.626240e+02
  -2.859420e+02   2.571885e+02
  -1.561430e+02  -2.497261e+01
   1.695247e+02  -5.769101e+01
   3.940893e+02   1.836857e+02
   1.664440e+02   4.258018e+02
  -5.244589e+02   3.959461e+02
  -8.373710e+02  -9.924975e+01
  -3.738516e+02  -5.769165e+02
   4.008247e+02  -4.354444e+02
   7.555966e+02   4.629470e+01
   3.583834e+02   5.182069e+02
  -3.108604e+02   5.406464e+02
  -5.811746e+02   2.623563e+02
  -4.495267e+02  -2.450541e+02
  -9.734953e+00  -5.059116e+02
   1.899917e+02  -2.894647e+02
   1.581020e+02   2.202416e+02
  -1.643860e+02   4.466234e+02
  -3.813052e+02  -4.732387e+01
  -2.178942e+02  -7.180366e+02
   4.081200e+02  -7.254256e+02
   5.899361e+02  -1.598238e+00
   1.954581e+02   5.132063e+02
  -2.829973e+02   3.294064e+02
  -3.488644e+02  -4.145822e+02
   7.380630e+01  -5.270156e+02
   5.662906e+02  -1.174701e+02
   5.961103e+02   3.926610e+02
   1.691083e+02   5.590332e+02
  -3.779888e+02   3.119931e+02
  -6.190348e+02  -1.463304e+02
  -3.396531e+02  -4.009648e+02
   1.439966e+02  -3.328158e+02
   4.339982e+02  -4.524928e+01
   2.356336e+02   1.982810e+02
  -1.234898e+02   1.188717e+02
  -1.671525e+02  -1.684470e+02
   1.660718e+02  -1.641113e+02
   3.258813e+02   7.425719e+01
   1.628618e+02   3.514170e+02
  -2.153451e+02   2.143597e+02
  -3.146207e+02   4.207848e+01
  -2.529995e+02  -1.247087e+02
  -3.301408e+01  -2.520604e+02
   1.999778e+02  -3.596755e+02
   3.025213e+02  -2.156712e+02
   2.866459e+02   1.790800e+02
   1.156215e+02   4.602366e+02
  -1.044283e+02   4.242457e+02
  -1.168295e+02   1.167956e+02
   3.645959e+01   1.801990e+01
  -8.228889e+01   1.009663e+02
  -2.493214e+02   1.678608e+02
  -2.672276e+02  -1.329850e+01
  -1.247525e+02  -2.710864e+02
   8.340317e+01  -2.494587e+02
   2.685125e+02  -3.063698e+01
   2.169075e+02   2.020688e+02
  -2.434596e+01   2.585377e+02
  -3.490813e+02   9.473587e+01
  -3.143350e+02  -1.793327e+02
  -1.997728e+02  -4.088314e+02
   1.239092e+02  -3.113997e+02
   2.361833e+02  -9.882008e+01
   1.548297e+02  -8.560962e+00
   9.110983e+01  -4.147257e+00
   1.921118e+02  -7.336577e+01
   4.218100e+02   3.670593e+01
   3.231473e+02   3.051459e+02
   2.073033e+01   4.495183e+02
  -3.856507e+02   4.784962e+02
  -4.716561e+02   1.813057e+02
  -3.426205e+02  -1.127716e+02
  -6.810490e+01  -2.983493e+02
   1.028782e+02  -2.805115e+02
   1.016498e+02  -4.366133e+01
  -1.174430e+02   1.413209e+02
  -1.576774e+02  -6.536969e+01
   4.160352e+01  -2.047874e+02
   1.666131e+02  -2.059958e+02
   1.781102e+02   9.068991e+01
  -2.034825e+01   1.926919e+02
  -1.799769e+02   4.311065e+01
  -1.387153e+02  -3.075361e+02
   4.104164e+01  -3.636373e+02
   2.607038e+02  -1.879162e+02
   3.390608e+02   5.985781e+01
   2.728456e+02   2.181364e+02
   9.881491e+01   2.603428e+02
  -1.508035e+02   2.001082e+02
  -2.265121e+02   1.416637e+01
  -5.723225e+01  -7.178139e+01
   1.227578e+02   8.292342e+01
   4.944533e+01   1.799194e+02
  -1.248234e+02   1.182290e+02
  -1.781435e+02  -2.083793e+01
  -5.241182e+01  -7.630563e+01
   8.610098e+01  -1.307117e+01
   2.854007e+01   7.994353e+01
  -1.429898e+02   1.030298e+02
  -2.684971e+02  -1.429608e+01
  -2.247397e+02  -1.089175e+02
  -7.182131e+01  -2.907808e+02
   1.611877e+02  -2.596717e+02
   2.658088e+02  -1.440694e+02
   1.767126e+02   1.313412e+02
  -5.476654e+01   9.183401e+01
  -9.587483e+01   1.875628e+01
   3.458663e+01  -1.316672e+02
   2.143589e+02  -6.139868e+01
   2.370862e+02   6.825291e+01
   4.968374e+01   2.154571e+02
  -9.537686e+01   1.502646e+02
  -1.719963e+02  -1.599690e+01
  -3.969486e+01  -2.950752e+01
   1.811525e+01   4.447376e+01
   5.979544e+01   3.342600e+01
  -7.887226e+01   1.265501e+02
  -2.314165e+02   3.725659e+01
  -2.057890e+02  -1.511205e+02
  -5.759321e+01  -2.546116e+02
   2.182343e+02  -1.851242e+02
   1.833347e+02   4.792808e+01
   6.460155e+01   9.409998e+01
  -7.795376e+01   1.019471e+02
  -7.477252e+01   2.151137e+01
  -5.417776e+01  -5.046949e+01
   3.120572e+01   1.514337e+00
   3.311959e+01   7.459238e+00
  -8.137867e+01  -2.444900e+01
  -7.870673e+01  -7.647358e+01
  -6.409794e+00  -1.735875e+02
   2.132517e+02  -1.562310e+02
   2.324082e+02  -8.252301e+01
   1.825161e+02   1.551888e+02
   4.047602e+01   1.649504e+02
  -1.074728e+02   1.625799e+02
  -1.648377e+02   3.593747e+01
  -5.048514e+01  -7.388320e+01
  -4.302519e+01   1.173742e+00
  -3.605847e+01  -1.470757e+01
  -9.064830e+01   4.714610e+00
  -4.181180e+01  -8.386609e+01
   1.631519e+01  -6.145312e+01
   1.021822e+02  -6.156295e+01
   8.827895e+01  -3.017894e+00
  -1.630496e+01   1.404341e+02
  -9.295902e+01   9.432781e+01
  -2.172259e+02  -8.169007e+01
  -8.695643e+01  -2.066633e+02
   1.541653e+02  -2.178548e+02
   3.039495e+02  -9.547977e+01
   2.745535e+02   1.146878e+02
   1.555822e+02   1.644908e+02
  -2.496326e+01   1.191864e+02
  -1.043183e+02   1.101257e+02
  -6.209185e+01   5.506824e+01
  -6.342047e+01   1.200138e+02
  -9.516703e+01   6.846637e+01
  -9.277304e+01   1.848272e+01
  -1.711602e+02  -1.517159e+02
  -4.365314e+01  -2.496259e+02
   9.794245e+01  -1.769043e+02
   1.394907e+02  -1.462514e+01
   1.258006e+02   8.277885e+01
   5.261052e+01   1.066038e+02
  -7.775618e+01   7.411603e+01
  -2.688496e+01   1.307764e+01
   1.399666e+01  -7.673143e+01
   6.615921e+01  -1.791507e+01
  -4.931621e+01  -4.606686e+01
  -4.419678e+01  -2.043701e+01
  -4.581517e+01   9.955690e+00
   9.051282e+01  -1.314356e+01
   1.587265e+02  -2.435611e+01
   1.346599e+02  -8.519056e+00
   1.223970e+01   9.751688e+01
  -1.037876e+02   5.775445e+01
  -1.517334e+02   8.051768e+00
  -3.252600e+01  -8.774983e+01
   1.738303e+01  -5.614694e+01
   1.241331e+02   3.482727e+01
  -1.454216e+01   5.839029e+01
  -6.965732e+01   5.920465e+01
  -6.301308e+01  -9.089750e+00
  -2.673028e+01  -8.077799e+01
  -4.552286e+01  -4.918914e+01
  -6.752135e+01  -3.803772e+01
  -7.737063e+01  -3.248421e+00
  -4.254647e+01  -1.027140e+02
   7.032141e+01  -1.688145e+02
   6.904910e+01  -1.657940e+02
   1.586033e+02  -2.957308e+01
   1.354563e+02   9.659148e+01
   1.359939e+01   1.420217e+02
  -1.129214e+02   8.220203e+01
  -5.201506e+01  -1.658642e+01
   7.843263e+01  -2.325651e+01
   1.692394e+02   2.059197e+01
   1.169888e+02   7.621159e+01
  -7.230380e+01   1.282967e+02
  -2.506278e+02   5.014803e+01
  -1.768190e+02  -4.283434e+01
  -6.472526e+01  -6.753615e+01
   7.002898e+01  -8.979569e+01
   1.477547e+01  -3.013456e+01
  -4.768004e+01   8.775511e+00
  -1.137177e+02   1.889018e+01
   1.180792e+01  -1.076044e+02
   1.092817e+02  -1.101916e+02
   1.616816e+02  -7.925863e+01
   1.354150e+02   1.237402e+02
   1.906913e+01   1.455948e+02
  -9.684937e+01   1.130213e+02
  -1.549273e+02  -2.271286e+01
  -1.910520e+01  -6.909892e+01
   2.757155e+01  -1.388440e+02
   7.319275e+01  -1.081011e+01
  -2.391416e+00   7.897870e+01
  -1.821652e+01   4.494275e+01
  -3.431216e+01  -4.331087e+01
   2.848496e+00   1.237771e+01
   6.006965e+01   1.072313e+02
   5.445282e+01   1.334591e+02
  -1.027383e+02   6.385028e+01
  -1.504324e+02   4.487771e-02
  -1.251883e+02  -8.372014e+01
  -2.570391e+00  -2.740171e+01
   8.555127e+01   2.499652e+01
   6.878243e+01   4.216476e+01
  -2.181611e+01  -3.400875e+01
  -6.054083e+01   3.404193e+01
   5.876425e+01   1.741467e+01
   2.755167e+01  -1.028610e+01
  -6.674410e+01   3.279673e+01
  -4.166551e+01  -2.741337e+01
  -9.323661e+01  -1.777807e+01
  -2.877079e+01  -5.552824e+01
   9.321618e+01  -1.234759e+02
   1.618870e+02  -2.310724e+01
   1.157912e+02   6.554739e+01
   1.453266e+01   1.818768e+02
  -9.293774e+01   1.146771e+02
  -9.057937e+01   5.440488e+01
  -8.105070e+01  -2.071598e+01
  -6.731877e+01  -2.779204e+01
   1.252584e+01  -6.259589e+01
  -2.225553e+01   1.384420e+01
  -6.648497e+01  -1.404034e+02
   1.315017e+01  -5.458130e+01
   6.602271e+00  -3.606222e+01
   6.734758e+01   6.692268e+01
   8.808601e+01   8.467870e+01
  -2.611731e+01   1.542709e+02
  -7.727570e+01   6.151468e+01
  -1.341528e+02  -6.160055e+01
   9.422650e+00  -9.315870e+01
   1.824277e+01   1.228177e+01
   1.130695e+02   1.540335e+01
   2.612806e+01   8.068702e+00
  -3.952671e+01   6.577675e+01
  -4.157680e+00   1.673646e+01
   4.790463e+01   3.895599e+01
   7.557620e+01  -1.488740e+01
  -5.738766e+01   1.448787e+01
  -8.324285e+01   6.924738e+01
  -1.056995e+02   7.365996e+01
  -9.168544e+01   2.272558e+01
  -1.063665e+01  -1.079363e+02
   6.748847e+01  -6.495202e+01
   7.901551e+00  -3.372376e+01
   1.889755e+01   1.096010e+02
   5.378539e+00   4.038283e+01
  -2.916956e+01   3.495819e+00
  -3.590504e+01  -1.068910e+02
   5.814874e+01  -4.474524e-01
   3.601768e+01   1.271937e+01
   4.692902e+01  -1.579292e+00
   4.261416e+01  -3.532059e+01
   4.619897e+00   1.294867e+01
  -1.727815e+01   8.882933e+00
   2.846019e+00   2.166141e+01
  -4.866579e+00   4.840310e+00
  -2.953650e+01  -1.107568e+01
  -7.574557e+01  -7.557302e+01
   9.769197e+00  -8.127124e+01
   4.654746e+01   1.351556e+01
   3.262969e+01   4.696381e+01
   7.110286e+00   7.534887e+01
  -9.475105e+01   5.158703e+01
  -1.355399e+02  -2.103643e+01
  -7.326440e+01  -1.948960e+01
  -3.063604e+01  -3.813145e+01
   7.125915e+01  -7.333541e+00
   6.422369e+00  -2.037114e+01
  -5.252741e+01  -1.701944e+01
  -1.972801e+01   1.877300e+00
   3.500494e+01  -3.698737e+01
   7.226639e+01   8.371380e+00
