
 $NMID
 id='ANONYMOUS ', fmtdat='(2E16.6)'
 volume=1.0
 tramp=1.0
 $END
  -4.627423e+03   9.885264e+01
  -2.719103e+03  -2.777373e+03
   8.420657e+02  -3.031859e+03
   2.353122e+03  -9.133863e+02
   1.013569e+03   8.762939e+02
  -7.640274e+02   6.801815e+02
  -1.014048e+03  -4.976612e+02
  -1.122429e+01  -1.197923e+03
   8.961582e+02  -8.876811e+02
   9.796680e+02   9.641557e+01
   4.595704e+02   9.858767e+02
  -2.015654e+02   9.700039e+02
  -7.622748e+02   1.280785e+02
  -4.270118e+02  -7.483424e+02
   2.682939e+02  -8.176659e+02
   6.635904e+02   6.019286e+00
   2.715311e+02   7.015385e+02
  -3.909422e+02   6.361617e+02
  -5.928455e+02   9.679363e+01
  -3.795120e+02  -3.757540e+02
   1.836489e+01  -4.768283e+02
   2.353288e+02  -2.355527e+02
   2.307740e+02  -8.635547e+00
   4.958343e-01   1.405291e+02
  -4.631376e+02  -1.292386e+02
  -2.197231e+02  -4.417602e+02
   4.303548e+02  -4.799885e+02
   9.286101e+02   6.719963e+01
   4.820060e+02   5.802848e+02
  -3.624056e+02   5.692125e+02
  -7.583539e+02  -4.924818e+01
  -3.828721e+02  -5.215452e+02
   3.248627e+02  -5.272820e+02
   6.012295e+02  -2.599764e+02
   4.572043e+02   1.924814e+02
   6.504783e+01   4.731499e+02
  -2.291525e+02   3.325134e+02
  -1.732139e+02  -1.815342e+02
   1.771884e+02  -4.778523e+02
   5.180677e+02  -5.508377e+00
   3.155996e+02   7.482661e+02
  -3.016291e+02   7.945867e+02
  -6.504542e+02   4.527939e+01
  -2.793908e+02  -5.641787e+02
   2.829614e+02  -3.246778e+02
   4.486373e+02   3.601904e+02
  -1.074668e+01   5.629745e+02
  -5.970470e+02   1.596825e+02
  -6.301985e+02  -3.957604e+02
  -1.864836e+02  -6.439795e+02
   4.224330e+02  -3.155650e+02
   6.708314e+02   2.208862e+01
   3.335001e+02   3.495787e+02
  -1.954064e+02   3.877698e+02
  -4.821666e+02   7.423872e+01
  -2.645777e+02  -2.261129e+02
   1.506332e+02  -1.394501e+02
   1.568529e+02   1.362288e+02
  -1.867090e+02   1.869260e+02
  -4.052000e+02  -7.640098e+01
  -1.420595e+02  -3.361381e+02
   2.422247e+02  -2.886967e+02
   3.018149e+02  -6.612672e+01
   1.971599e+02   8.936775e+01
  -3.024997e+01   1.257642e+02
  -2.312916e+02   3.447773e+02
  -3.386336e+02   2.264807e+02
  -2.672440e+02  -1.147492e+02
  -8.333821e+01  -4.174530e+02
   9.409367e+01  -3.990662e+02
   7.336744e+01  -1.352113e+02
   7.366504e+01   5.820293e+01
   2.223717e+01  -1.289184e+01
   1.814756e+02  -1.581415e+02
   2.834455e+02   3.530423e+01
   1.859987e+02   2.963448e+02
  -3.084426e+01   2.658150e+02
  -2.443375e+02   1.822714e+01
  -2.134916e+02  -2.645254e+02
  -3.565512e+01  -3.110737e+02
   2.645546e+02  -1.237139e+02
   3.495973e+02   1.769685e+02
   2.330670e+02   3.641171e+02
  -1.017618e+02   2.844381e+02
  -2.215652e+02   1.413079e+02
  -1.821896e+02   3.339912e+01
  -4.841658e+01  -1.323049e+01
  -2.629516e+02   3.921337e+01
  -3.885512e+02  -5.911226e+01
  -2.899694e+02  -3.168631e+02
  -6.793915e+01  -4.886539e+02
   3.910888e+02  -4.426423e+02
   4.934262e+02  -2.290449e+02
   3.418395e+02   6.473256e+01
   5.522613e+01   3.485070e+02
  -9.955213e+01   2.452594e+02
  -1.126068e+02   1.502197e+01
   1.382100e+02  -9.775498e+01
   2.084367e+02   6.974599e+00
   1.046954e+02   1.205791e+02
  -2.295645e+02   1.836672e+02
  -1.827527e+02  -4.899142e+01
   2.072344e+01  -2.274134e+02
   1.548302e+02  -1.630238e+01
   1.920756e+02   2.463221e+02
  -5.463378e+01   3.226037e+02
  -2.214944e+02   1.689108e+02
  -3.426481e+02  -8.555784e+01
  -2.332580e+02  -1.779817e+02
  -1.484240e+02  -2.525026e+02
   1.091276e+02  -1.319006e+02
   1.591116e+02  -2.917794e+01
   5.819517e+01  -1.490863e+01
  -9.227056e+01  -7.419816e+01
  -5.482351e+01  -1.187245e+02
   1.468637e+02  -8.986811e+01
   2.289728e+02   2.149944e+01
   3.775032e+01   5.623893e+01
  -9.300561e+01   3.884206e+00
  -9.114092e+01  -5.760671e+01
   1.081600e+02  -1.204298e+02
   2.439234e+02  -2.296396e+01
   2.976701e+02   1.518202e+02
   7.596566e+01   2.386348e+02
  -1.517329e+02   2.956404e+02
  -2.770656e+02   1.406573e+02
  -1.721072e+02  -7.414732e+00
  -3.339085e+00  -1.465951e+02
   1.460153e+02  -6.252237e+00
  -4.277845e+01   1.155580e+02
  -1.889884e+02   6.247756e+01
  -2.522474e+02  -6.446299e+01
  -9.522528e+01  -2.073821e+02
   8.917238e+01  -1.472459e+02
   1.377320e+02  -9.315143e+01
   1.509866e+02   1.280343e+01
  -2.663385e+01   1.982360e+01
  -3.922430e+01  -7.525127e+01
   1.437752e+01  -1.485113e+02
   2.179189e+02  -2.176716e+01
   2.008999e+02   1.462093e+02
   1.209839e+01   2.149453e+02
  -2.002318e+02   1.705931e+02
  -2.143189e+02   1.850525e+01
  -3.693481e+01  -3.752947e+01
   3.616190e+01  -4.582983e+01
   1.109661e+02  -6.050437e+01
   2.907278e+01   4.865871e+01
  -5.966350e+00  -2.573987e-01
  -1.787938e+01   3.025707e+01
   2.829243e+01   1.525596e+01
   4.303871e+01   4.598952e+01
   2.710163e+01   1.801435e+02
  -1.136960e+02   1.616786e+02
  -2.706944e+02   6.865948e+01
  -2.057353e+02  -1.601599e+02
  -8.854169e+01  -2.531550e+02
   1.494230e+02  -2.027215e+02
   1.650600e+02  -7.192156e+00
   7.468227e+01   5.627463e+01
   3.648199e+01  -9.104250e+00
   3.964147e+01   5.849977e+00
   1.057700e+02   1.323744e+01
   4.397410e+01   5.553117e+01
  -3.227332e+01   1.131205e+02
  -7.597758e+01   4.801109e+01
  -6.740879e+01  -3.803285e+01
  -2.178248e+01  -1.027184e+02
   1.023736e+02  -7.557596e+01
   2.193648e+02   7.748040e+01
   8.687749e+01   1.763006e+02
  -7.946799e+01   2.510183e+02
  -3.431476e+02   1.303721e+02
  -2.809674e+02  -9.120166e+01
  -6.293303e+01  -1.616691e+02
   1.798167e+01  -1.750223e+02
   6.885662e+01  -1.234681e+02
   6.869476e+01  -8.377936e+01
   1.020923e+02  -8.440263e+01
   6.269630e+01  -6.931179e+01
   1.262489e+02   5.324498e+01
   1.375761e+02   1.255550e+02
   4.370048e+01   2.760773e+02
  -1.006146e+02   1.663851e+02
  -1.585876e+02   4.859722e+01
  -1.277839e+02  -1.392783e+02
  -8.143360e+00  -1.288578e+02
   5.670989e+01  -6.554973e+01
   4.181969e+01   3.033059e+01
   4.161960e+01   6.941973e+01
  -1.412872e+01   3.663694e+01
  -2.616015e+01   4.776227e+01
   7.893125e+01  -2.217378e+01
   8.837691e+00   5.815898e+01
  -8.927467e+01   3.931641e+01
  -1.455815e+02  -4.272555e+00
  -1.476126e+02  -3.813653e+01
  -1.952387e+01  -8.193864e+01
   8.858064e+01  -7.014532e+01
   1.410689e+02   4.480689e+01
   4.417224e+01  -6.601347e-02
  -8.092057e+01   3.154980e+00
  -7.709991e+01  -2.286546e+01
   1.087994e+01  -5.691469e+01
   3.187234e+01  -7.447443e+01
   5.906679e+01   2.590987e+01
   4.343756e+01   7.436270e+01
   4.014193e+01   8.453251e+00
   3.660998e+01  -3.708564e+00
   3.887462e+01  -1.224726e+01
   5.799370e+00   4.846358e+01
  -1.552748e+01   1.145240e+02
  -9.834638e+01   1.463794e+02
  -1.804618e+02   1.800305e+01
  -1.405238e+02  -1.050556e+02
  -5.741122e+01  -1.702288e+02
   1.114854e+02  -3.457946e+01
   2.530773e+01  -2.152218e+01
  -6.856806e+01  -8.463437e+00
  -1.060144e+02  -6.538910e+01
  -8.276501e+01  -7.786187e+01
   1.150453e+02  -1.726375e+02
   1.579564e+02  -4.495539e+01
   1.339512e+02  -2.267302e+01
   3.222336e+01   1.147997e+02
  -5.952965e+01   2.346462e+01
  -3.012780e+01   3.259381e+01
   6.564649e+01  -7.091645e+01
   1.161705e+02   5.224412e+01
   2.385592e+01   1.388534e+02
  -1.026830e+02   1.853055e+02
  -1.403732e+02   6.906943e+01
  -8.015844e+01  -6.553292e+01
  -2.339681e+01  -2.084300e+02
   8.949907e+01  -6.124854e+01
   1.319734e+02  -1.302500e+01
   9.609952e+01   7.998535e+01
  -9.182637e-01   9.802701e+01
  -1.966257e+01   2.055386e+01
  -6.110760e+01  -2.431723e+01
  -4.611971e+01  -4.694437e+01
   4.958331e+01   5.914413e+01
   5.455995e+00  -3.243825e+01
  -2.834544e+01  -8.084257e+01
  -4.175080e+01  -8.963604e+01
   2.902796e+01  -1.922874e+01
   1.155866e+02   2.290792e+01
   1.062614e+02   6.366763e+01
   3.869545e+01   6.747330e+01
  -1.173211e+02   4.591707e+01
  -9.933568e+01  -1.466605e+01
   4.493421e+01  -3.212836e+01
   3.560609e+01   2.831728e+01
   3.016944e+01  -9.701127e+00
  -6.817900e+01   2.636579e+01
  -5.396560e+01  -5.802172e+00
   4.566677e+01   9.324941e+00
   9.567306e+01   4.157930e+01
   5.140217e+01   5.365846e+01
  -8.190516e+01   8.053304e+01
  -1.887620e+02   1.113046e+01
  -1.236663e+02  -3.206878e+01
  -3.251201e+01  -1.570622e+02
   7.849940e+01  -1.634251e+02
   1.106276e+02  -6.215317e+01
   8.121090e+01   1.818447e+01
  -3.121293e+01   2.055734e+01
  -2.492002e+01   7.075945e-01
   6.835193e+01   3.119847e+01
  -3.483885e+00   3.806507e+01
   2.992260e+01   1.478463e+02
  -1.070669e+01   7.910938e+01
  -1.819960e+01  -1.877918e+01
  -9.473826e+01  -1.303494e+02
  -4.250528e+01  -8.392459e+01
   3.560859e+01  -2.176290e+00
   1.218059e+02   5.711237e+01
   5.086370e+01   8.068437e+01
  -8.155738e+01   7.141789e+01
  -8.916978e+01  -4.990181e+01
  -6.791441e+00  -3.447606e+01
   6.249546e+01  -7.722807e+01
   5.912571e+01  -2.007866e+01
   7.111285e+00  -2.841772e+00
  -4.579411e+01   1.627737e+01
   3.100365e+01  -4.573101e+00
   2.832882e+01  -5.967375e+01
   7.756844e+01  -9.376888e+01
   9.154163e+01  -3.519190e+00
   7.705258e+00   1.044175e+02
  -6.862588e+01   1.151333e+02
  -3.076005e+00  -1.116724e+01
  -1.781558e+00  -1.843836e+01
   9.173398e+01  -5.670002e+01
   8.214187e+00   1.545860e+01
   6.718406e+01   9.606242e+01
  -1.598350e+01   3.005597e+01
  -7.009148e+01  -3.183036e+00
  -6.431607e+01   6.142707e+00
  -6.298467e+01   3.693781e+01
   7.593314e+00  -4.529297e+01
  -3.346624e+00   4.397677e+01
   4.109708e+01  -6.263888e+01
   9.382017e+00  -6.021487e+01
   4.322893e+01  -1.604024e+01
   2.379291e+01   5.045175e+01
  -4.201942e+01   3.372640e+01
  -3.450982e+01   3.764432e+01
  -6.021051e+01  -4.034143e+01
  -3.757594e+01  -7.100604e+01
   5.622728e+01  -2.561124e+01
   8.599197e+01   6.781202e+00
   7.096743e+01   8.061365e+01
   2.022145e+01   6.768507e+01
  -7.505742e+01  -2.569991e+01
  -1.631023e+01   8.117351e+00
   1.074213e+01   1.902195e+01
   4.295215e+01   1.708705e+01
  -6.957402e+00   2.282035e+01
  -1.086362e+02   2.310921e+01
