
 $NMID
 id='ANONYMOUS ', fmtdat='(2E16.6)'
 volume=1.0
 tramp=1.0
 $END
   2.937027e+03   1.757948e+02
   1.789877e+03   1.510793e+03
  -4.547995e+01   1.764813e+03
  -1.009602e+03   1.091663e+03
  -8.102699e+02   2.387558e+02
  -7.634800e+01  -1.189973e+02
   1.913012e+02   7.776082e+01
   4.834731e+01   4.702752e+02
  -4.114256e+02   4.597077e+02
  -5.153419e+02   1.102866e+02
  -3.395847e+02  -4.430618e+02
  -5.417714e+01  -5.085822e+02
   2.125044e+02  -1.080425e+02
   1.809705e+02   3.836232e+02
  -1.005304e+02   4.871585e+02
  -3.233684e+02   1.358448e+01
  -2.540114e+02  -4.111679e+02
   6.077839e+01  -5.570071e+02
   3.699336e+02  -2.150111e+02
   3.502785e+02   2.072591e+02
   1.361687e+02   3.138914e+02
  -7.338920e+01   2.110567e+02
  -1.205067e+02   5.412063e+01
   2.052232e+02   6.410573e+01
   2.575731e+02   3.377008e+02
  -9.022253e+00   3.698761e+02
  -4.136792e+02   1.556751e+02
  -5.554257e+02  -2.352591e+02
  -1.914614e+02  -3.503579e+02
   3.323206e+02  -1.636586e+02
   4.441057e+02   2.140481e+02
   1.330022e+02   2.879497e+02
  -2.155214e+02   3.314050e+02
  -4.339641e+02   2.854965e+01
  -2.525466e+02  -1.873741e+02
  -1.708608e-01  -2.730812e+02
   5.523394e+01  -9.597510e+01
  -3.472841e+01   1.206844e+02
  -1.870548e+02   1.399789e+02
  -1.980621e+02  -1.217000e+02
  -1.450325e+01  -4.356249e+02
   2.600883e+02  -3.868036e+02
   2.867396e+02   5.044799e+01
   7.173723e+01   2.942846e+02
  -1.809028e+02   1.167238e+02
  -1.291463e+02  -2.502575e+02
   1.344351e+02  -3.529122e+02
   4.131161e+02  -8.285775e+01
   3.809608e+02   3.047202e+02
   9.845977e+01   4.448878e+02
  -2.555395e+02   2.456271e+02
  -4.649260e+02  -9.597059e+01
  -2.816739e+02  -2.373968e+02
   7.697156e+01  -2.390345e+02
   2.872104e+02  -3.004586e+01
   1.889110e+02   1.316304e+01
  -3.799006e+01   2.776794e+01
   8.484606e+00  -5.220933e+01
   5.766076e+01  -4.354985e+01
   1.495297e+02   9.850663e+01
   4.531703e+01   2.164378e+02
  -1.899236e+02   2.463915e+02
  -2.809254e+02   1.089325e+02
  -2.136835e+02  -5.199123e+01
  -1.104516e+01  -2.970446e+02
   2.451534e+02  -3.292706e+02
   2.776912e+02  -1.354876e+02
   2.109573e+02   1.245798e+02
  -1.633826e+01   3.053007e+02
  -6.355274e+01   2.701342e+02
  -3.634144e+01   8.799488e+01
  -2.522118e+01   1.259524e+02
  -1.301095e+02   1.022326e+02
  -2.947938e+02   6.467145e+01
  -1.998045e+02  -1.260815e+02
  -8.320753e+01  -2.319275e+02
   9.108906e+00  -2.031125e+02
   1.702519e+02   2.397950e+01
   1.375275e+02   2.614153e+02
  -5.800446e+01   1.729610e+02
  -2.200742e+02   1.980728e+01
  -2.420139e+02  -1.098139e+02
  -1.560603e+02  -2.559540e+02
   3.582851e+01  -2.157708e+02
   1.479297e+02  -1.880623e+02
   1.140899e+02  -2.629032e+01
   1.325360e+02  -6.932553e+01
   2.437735e+02  -4.491147e+01
   3.911391e+02   7.960209e+01
   3.086027e+02   2.478330e+02
  -1.086317e+02   4.045013e+02
  -3.775665e+02   3.010076e+02
  -3.907473e+02   1.031422e+02
  -2.526989e+02  -1.304535e+02
  -1.760521e+01  -2.115560e+02
   4.870256e+01  -1.797266e+02
  -1.017538e+01  -5.244242e+01
  -1.234895e+02   3.860930e+01
  -1.152273e+02  -7.730233e+01
  -4.033277e+01  -1.718171e+02
   6.507947e+01  -6.482909e+01
   1.568306e+02   1.236600e+01
  -2.066423e+01   9.780634e+01
  -1.271457e+02   6.291679e+00
  -1.260476e+02  -1.862796e+02
   3.369962e+01  -3.506869e+02
   2.468634e+02  -2.310360e+02
   2.966532e+02   6.628795e+00
   2.800366e+02   2.751687e+02
   8.771597e+01   2.441384e+02
  -1.586522e+02   8.045589e+01
  -1.370533e+02   4.722284e+01
  -3.499960e+01  -5.923594e+01
   1.022295e+01   5.192140e+01
   5.571672e+01   9.852152e+01
  -1.441782e+02   9.084890e+01
  -1.782006e+02  -2.086060e+01
   4.776548e+01  -1.082654e+02
   1.148501e+02   4.403724e+01
   3.598013e+01   6.722048e+01
  -1.382655e+02   1.058830e+02
  -2.880195e+02  -3.632726e-01
  -2.091898e+02  -1.066148e+02
   1.485269e+01  -2.851745e+02
   2.472687e+02  -1.527928e+02
   2.026555e+02  -6.448510e+01
   1.272631e+02   4.703321e+01
   1.111596e+01   1.093821e+02
  -1.838506e+01  -1.262861e+01
   5.825439e+01  -4.086602e+01
   1.735153e+02   1.520082e+01
   1.247571e+02   7.808655e+01
   6.941036e+01   2.282903e+02
  -6.894517e+01   1.368986e+02
  -1.266225e+02  -7.059261e+00
  -4.074253e+01  -6.149339e+01
   1.793346e+01   7.198449e+01
   5.524875e+01   1.204279e+02
  -1.155751e+02   1.167286e+02
  -2.006427e+02   6.502720e+01
  -1.585945e+02  -1.076967e+02
  -6.428408e+01  -2.245642e+02
   1.596131e+02  -7.260772e+01
   1.523816e+02  -2.836785e+01
  -1.317597e+01   1.235623e+02
  -7.698941e+01   7.764743e+01
  -3.718908e+01   1.815347e+01
   6.595512e+00  -3.033659e+01
   4.333369e+01  -4.547348e+01
  -3.019155e+01   8.385343e+01
  -8.915677e+01   1.726165e+01
  -1.037070e+02  -8.960948e+01
  -3.530192e+01  -1.805956e+02
   1.335218e+02  -1.574356e+02
   2.881160e+02   2.053179e+01
   1.440169e+02   1.106897e+02
   4.026356e+01   2.503140e+02
  -6.625206e+01   1.320460e+02
  -1.266659e+02   2.809291e+01
  -7.685246e+01  -7.569196e+01
   5.858463e+01  -2.370435e+01
  -2.324495e+01  -4.480648e+00
  -9.444475e+01   4.238181e+01
  -1.094156e+02   2.514108e+01
   4.855375e+01  -8.255699e+01
   1.057551e+02  -7.409762e+01
   1.098989e+02   1.979732e+01
   1.850421e+01   1.393546e+02
  -1.349981e+02   3.057408e+01
  -1.516315e+02  -7.043399e+01
  -9.384017e+01  -1.792872e+02
   8.530394e+01  -1.867299e+02
   2.376461e+02  -9.652421e+01
   1.763973e+02   1.073100e+02
   2.165415e+01   1.363304e+02
  -4.776267e+01   1.394427e+02
   3.429615e+00   4.352022e+01
  -6.505047e+01  -7.654587e+00
  -8.520450e+00   6.799619e+01
  -1.257697e+02   1.091689e+02
  -1.141616e+02   5.629103e+00
  -1.393024e+02  -1.876755e+02
  -3.128886e+01  -2.093474e+02
   3.559370e+01  -1.993144e+02
   1.411451e+02   2.225698e+01
   1.231420e+02   1.126400e+02
   5.147392e+00   1.269125e+02
  -3.873898e+01   5.191479e+01
  -9.189890e+01  -2.787541e+01
   2.918266e+01  -7.160373e+01
  -2.537391e+01  -3.331114e+01
   9.642318e+00   1.719462e+01
  -8.819421e+01  -1.009862e+01
  -3.973808e+01  -7.401101e+01
   6.965946e+01  -3.705658e+01
   1.244547e+02   2.867736e+01
   1.069053e+02   7.392617e+01
   2.102633e+01   3.436601e+01
  -1.073709e+02   1.709032e+01
  -1.064488e+02   6.092411e+00
  -7.219322e+01  -6.445756e+01
   3.930382e+01  -2.714217e+01
   3.541444e+01  -5.262923e+01
   9.627807e-01   7.041324e+01
  -8.583962e+01   5.760023e+01
  -4.215368e+01  -1.132135e+01
  -5.460153e+01  -8.399957e+01
  -7.903300e+01  -4.887789e+01
  -8.420750e+01  -1.175536e+01
   1.087845e+01   4.762947e+00
  -3.114980e+01  -2.087944e+01
   2.284865e+01  -1.286713e+02
   7.564459e+01  -1.510008e+02
   2.015547e+02  -2.957909e+01
   1.430427e+02   8.443986e+01
  -1.581434e+01   1.092639e+02
  -2.129246e+01   3.596101e+01
  -1.310776e+01  -5.950576e+01
   8.077659e+01  -1.787647e+01
   1.745233e+02   7.792881e+01
   5.138533e+01   5.440011e+01
  -8.060185e+01   7.208784e+01
  -1.742910e+02   1.740115e+01
  -1.741060e+02  -2.689547e+01
   2.240056e+01  -1.150939e+02
   1.837921e+01  -7.695023e+01
   8.729019e+00  -6.057817e+01
  -5.263563e+01   4.167793e+01
  -1.002035e+02  -6.949307e+00
  -7.239652e+01  -1.113791e+02
   6.839672e+01  -1.385066e+02
   1.592353e+02  -4.639581e+01
   9.082387e+01   1.106503e+02
  -4.220969e+00   1.607899e+02
  -5.864485e+01   1.181526e+02
  -9.049647e+01  -6.843584e+01
   8.322057e+00  -7.983478e+01
   2.557824e+00  -9.981952e+01
   6.399667e+01  -5.447804e+01
   2.236722e+01   7.643946e+01
   2.660625e+01  -9.856179e+00
   3.598567e+00   1.315231e+01
   6.174966e+01   2.774726e+00
   8.867019e+01   8.482940e+01
   1.997014e+01   8.651634e+01
  -7.420341e+01   1.499747e+01
  -5.384961e+01  -2.071011e+01
  -1.429447e+02  -8.106219e+01
  -5.138165e+00   1.665208e+01
   5.046690e+01  -3.742711e+01
   9.495058e+00   1.480864e+01
   1.253671e+00   1.710036e+00
  -1.930999e+00   2.902146e+01
  -7.745001e+01   5.374653e+00
   1.802183e+01  -3.058924e-01
  -5.286537e+01   6.339981e-01
  -4.801917e+01  -1.596794e+01
  -5.782940e+01  -4.406289e+01
  -5.176930e+01  -6.496657e+01
   1.050886e+02  -1.191747e+02
   2.044866e+02  -5.310541e+01
   1.819095e+02   9.103032e+00
   1.841291e+01   1.138094e+02
  -4.929853e+01   1.461852e+02
  -1.058809e+02   9.942601e+00
  -3.000033e+01  -4.698982e+01
  -3.292618e+01  -3.796179e+01
  -1.253058e+01  -2.062564e+01
  -4.008713e+01   1.200290e+01
  -3.651321e+01  -5.972242e+01
   1.798967e+01  -5.899562e+01
   2.170679e+01  -4.686219e+01
   5.918136e+01   5.020735e+01
   8.031929e+01   3.829105e+01
  -1.034412e+01   1.070247e+02
  -4.262687e+01  -5.563126e-02
  -4.716927e+01  -1.665264e-01
  -9.262731e+01  -7.952854e+01
   8.066985e+01  -4.958404e+01
   6.554266e+01  -3.417244e+01
   4.448755e+01   7.863613e+01
  -2.402976e+01   9.645040e+01
  -6.558182e+01   6.030185e+01
   9.883226e+00  -5.844750e+01
   1.101640e+02   5.585252e+01
   5.354328e+01   2.728664e+00
  -4.682547e+01   3.447397e+01
  -1.152792e+02   5.977021e+01
  -6.897538e+01  -1.542747e+01
   1.235142e+01  -1.008819e+02
   6.068955e+01  -1.306434e+02
   8.858117e+01  -1.362592e+01
  -1.295251e+01   3.058158e+01
   3.022898e+01   3.259686e+01
  -6.715343e+01   2.044891e+01
  -7.191378e+01  -3.831994e+01
   3.028642e+01  -8.064243e+01
   4.640470e+01   3.970613e+01
   6.706196e+01   1.033843e+02
   2.266317e+01   9.505170e+00
   3.467539e+01  -3.289937e+01
  -9.053759e+00  -4.881578e+01
   1.640359e+01  -4.837348e+00
   2.371204e+00   7.629377e+00
  -4.463497e+00   5.761309e+01
  -4.862472e+01   7.790881e+00
  -1.612984e+01  -8.598209e+01
   8.070546e+01  -5.825971e+01
   5.062827e+01   2.349909e+01
   6.258344e+01   1.875743e+01
  -3.142127e+01   2.313693e+01
  -1.071998e+02  -3.050127e+01
  -3.515611e+01  -2.933733e+01
   4.752847e+01  -4.759074e+01
   4.384832e+01  -1.430684e+01
   4.119563e+01  -3.650354e+01
  -4.061918e+01  -1.327776e+01
  -1.866913e+01   2.372521e+00
   3.819661e+01  -2.702376e+01
   8.174793e+01  -1.001579e+01
