
 $NMID
 id='ANONYMOUS ', fmtdat='(2E16.6)'
 volume=1.0
 tramp=1.0
 $END
   3.794926e+03   2.500030e+01
   2.353112e+03   2.062194e+03
  -2.977631e+02   2.403343e+03
  -1.654270e+03   1.190673e+03
  -9.292704e+02  -1.515549e+02
   2.567476e+02  -3.593255e+02
   5.931296e+02   2.985041e+02
  -3.019697e+01   8.385369e+02
  -6.281108e+02   6.706757e+02
  -7.793856e+02   3.004397e+01
  -5.200750e+02  -7.072893e+02
   1.211676e+02  -7.484480e+02
   4.286563e+02  -1.560293e+02
   3.223751e+02   5.563607e+02
  -1.556815e+02   6.619927e+02
  -4.912953e+02   2.947639e+01
  -2.912877e+02  -6.051173e+02
   1.401593e+02  -6.696593e+02
   5.118262e+02  -1.982413e+02
   4.910896e+02   2.472030e+02
   8.299924e+01   3.891114e+02
  -2.190855e+02   2.509187e+02
  -1.342251e+02   1.558050e+01
   1.518899e+02   2.151245e+01
   2.989450e+02   1.390729e+02
   1.297232e+02   4.217130e+02
  -5.069255e+02   3.022748e+02
  -8.190946e+02  -1.925763e+02
  -2.834117e+02  -4.716536e+02
   3.623163e+02  -2.941925e+02
   5.991259e+02   1.174508e+02
   2.673967e+02   4.044312e+02
  -2.670937e+02   4.279787e+02
  -4.644934e+02   1.301767e+02
  -3.907294e+02  -1.878422e+02
  -1.114490e+02  -3.578754e+02
   1.628974e+02  -2.479659e+02
   7.902134e+01   1.240335e+02
  -1.793785e+02   3.225950e+02
  -3.182514e+02  -1.385319e+02
  -1.071132e+02  -5.684549e+02
   2.557253e+02  -5.802676e+02
   4.575220e+02  -1.236057e+01
   2.029015e+02   3.832882e+02
  -1.625661e+02   1.992304e+02
  -3.346202e+02  -2.889135e+02
   8.305704e+01  -4.434053e+02
   5.068882e+02  -1.202730e+02
   5.161086e+02   3.755653e+02
   1.558307e+02   5.797608e+02
  -3.124576e+02   2.866295e+02
  -5.781812e+02  -1.706316e+01
  -3.335720e+02  -3.570408e+02
   6.293990e+01  -3.588816e+02
   3.977119e+02  -7.081757e+01
   2.316568e+02   9.142262e+01
  -4.459079e+01   8.099715e+01
  -6.708161e+01  -8.005813e+01
   1.144269e+02  -1.330046e+02
   2.943943e+02   6.130281e+01
   1.245154e+02   2.387248e+02
  -1.084127e+02   2.553768e+02
  -3.542117e+02   1.040870e+02
  -2.245569e+02  -1.299136e+02
  -1.396861e+01  -2.358850e+02
   2.662701e+02  -3.856740e+02
   3.610092e+02  -2.385894e+02
   2.704224e+02   1.980562e+02
   7.303939e+01   3.959352e+02
  -7.987831e+01   3.527042e+02
  -5.308810e+01   1.684493e+02
  -3.994712e+01   5.054511e+01
  -5.399620e+01   1.173709e+02
  -2.259850e+02   1.527880e+02
  -2.566667e+02  -7.700859e+01
  -1.326776e+02  -3.245602e+02
   5.777898e+01  -2.054880e+02
   1.662106e+02  -8.455213e+00
   1.797304e+02   1.723395e+02
  -9.567576e+00   3.481979e+02
  -2.807133e+02   9.886626e+01
  -3.386978e+02  -1.454665e+02
  -1.478199e+02  -3.161475e+02
   1.083225e+02  -3.131846e+02
   2.094346e+02  -8.774287e+01
   1.532449e+02  -1.846649e+01
   1.080386e+02  -8.390361e+01
   2.437127e+02  -1.147604e+02
   3.484978e+02   7.443546e+01
   3.586597e+02   2.986681e+02
   2.547677e+00   4.327346e+02
  -3.358491e+02   4.001171e+02
  -5.197399e+02   2.177401e+02
  -2.985812e+02  -8.378728e+01
   3.289040e+01  -3.226823e+02
   1.245552e+02  -2.232765e+02
   2.998332e+01  -4.590187e+01
  -5.723440e+01   1.273430e+02
  -1.727313e+02  -1.645370e+01
   1.246904e+01  -1.995439e+02
   1.239376e+02  -1.530230e+02
   9.671033e+01   5.443212e+01
  -1.087785e+00   1.491439e+02
  -1.422813e+02   3.618619e+01
  -1.779147e+02  -2.540079e+02
   1.020966e+01  -2.935803e+02
   2.354367e+02  -1.565842e+02
   3.609017e+02   5.543954e+01
   3.068253e+02   2.657541e+02
   8.275967e+01   2.987766e+02
  -1.328958e+02   1.231053e+02
  -1.833070e+02   1.285432e+00
  -9.986107e+01  -3.588717e+01
   3.727503e+01   2.809039e+01
  -2.535665e+00   8.510328e+01
  -1.268455e+02   7.230853e+01
  -1.089697e+02  -4.223904e+01
  -6.849944e+01  -1.036581e+02
   1.965548e+01  -3.176041e+01
  -1.876254e+00   1.481302e+02
  -1.375216e+02   1.014361e+02
  -2.841987e+02  -2.131977e+01
  -2.303807e+02  -1.598392e+02
  -8.048138e+01  -2.548813e+02
   1.444226e+02  -2.225283e+02
   2.727860e+02  -1.090136e+02
   1.434344e+02   8.757907e+01
  -6.804687e+00   1.183599e+02
  -8.998850e+01  -2.246745e+01
   9.369902e+01  -1.175600e+02
   1.895397e+02  -1.130249e+02
   1.935917e+02   1.574710e+02
   1.138989e+02   1.755479e+02
  -7.426622e+01   1.986283e+02
  -1.527736e+02   2.470740e+01
  -6.289083e+01  -5.038750e+01
   9.957460e+01   6.858204e+01
   5.097660e+01   1.444759e+02
  -6.524345e+01   1.069855e+02
  -2.405189e+02   1.738248e+01
  -1.730805e+02  -7.107516e+01
   8.990537e+00  -1.589674e+02
   2.387709e+02  -1.890587e+02
   1.922353e+02   3.734812e+00
   5.947340e+01   9.310520e+01
  -3.939751e+01   1.087560e+02
  -1.006372e+02   2.791091e+01
  -7.517226e+00  -3.423310e+01
   6.250768e+01  -6.719398e+01
  -5.986008e+01   1.053472e+01
  -9.706345e+01  -4.388580e+01
  -1.089655e+02  -6.111914e+01
  -4.079647e+01  -1.427305e+02
   2.201178e+02  -1.571978e+02
   2.516989e+02   5.417960e+00
   2.249538e+02   1.396053e+02
   5.272889e+01   2.052570e+02
  -1.134168e+02   1.387566e+02
  -9.266396e+01  -1.751474e+01
  -1.066728e+02  -5.648998e+01
   5.114285e-01  -1.327898e+01
  -7.572057e+01  -1.924993e+01
  -8.564951e+01   2.147087e+01
  -8.154567e+01  -8.611380e+00
   2.567538e+01  -9.888760e+01
   1.038112e+02  -4.372135e+01
   1.154774e+02   4.908423e+01
  -4.761534e+01   1.210376e+02
  -1.403534e+02   1.009681e+02
  -1.655039e+02  -5.730064e+01
  -1.099633e+02  -2.498460e+02
   6.855330e+01  -2.598169e+02
   2.478854e+02  -1.055584e+02
   2.305421e+02   6.042017e+01
   1.582459e+02   1.936928e+02
  -1.801551e+01   1.376555e+02
  -8.216708e+01   8.841412e+01
  -1.118105e+02   6.480596e+01
  -4.233277e+01   1.635102e+02
  -1.301613e+02   1.151917e+02
  -1.129602e+02  -7.616011e+01
  -1.234935e+02  -1.243626e+02
  -5.186956e+01  -2.566830e+02
   1.013247e+02  -1.586922e+02
   1.446543e+02  -5.097570e+01
   1.171939e+02   8.397678e+01
  -1.441971e+00   1.237883e+02
  -7.193360e+01   9.492877e+01
  -7.370895e+01  -3.462010e+00
  -1.678955e+01  -3.065767e+01
   2.290997e+01  -2.702197e+01
  -2.163603e+01   1.410991e+01
  -8.959683e+01  -1.021139e+01
  -4.758392e+01  -3.076608e+01
   4.892259e+01  -1.326425e+01
   2.113575e+02  -7.588923e+01
   8.057000e+01   4.514420e+01
   1.709167e+00   6.186462e+01
  -1.602329e+02   8.497557e+01
  -1.250551e+02   5.735127e+01
   1.596550e+01  -4.703762e+01
   7.954162e+01  -3.925010e+01
   1.021711e+02  -1.532864e+00
   2.687320e+01   1.380866e+01
  -5.695725e+01   4.134569e+01
  -6.959111e+01   2.207697e+01
  -5.611363e+01  -4.364001e+01
   1.012971e+00  -2.812947e+01
  -4.230080e+01   1.960854e+01
  -6.392835e+01   3.713458e+01
  -3.887739e+01  -6.561219e+01
   1.631185e+01  -1.973129e+02
   8.264115e+01  -1.397718e+02
   2.103143e+02  -8.185760e+01
   1.570519e+02   9.680806e+01
   9.160529e+00   1.314498e+02
  -1.250066e+02   4.751877e+01
  -9.608979e+01   2.901219e+01
   8.786153e+01  -8.158280e+01
   1.376579e+02   7.721792e+01
   5.740505e+01   1.129356e+02
  -1.538529e+02   1.078993e+02
  -1.717628e+02  -2.338834e+01
  -1.521395e+02  -4.535952e+01
  -6.258470e+01  -2.157592e+01
   9.440432e+01  -5.117432e+01
   6.104856e+01  -8.635611e+00
  -1.021514e+01   8.304529e+01
  -8.311028e+01  -3.324828e+01
  -2.665977e+01  -6.775619e+01
   2.484827e+01  -1.494578e+02
   1.897387e+02  -7.767157e+01
   1.582767e+02   4.888820e+01
   9.088219e+00   1.851200e+02
  -7.161994e+01   1.677476e+02
  -8.746435e+01   7.846683e+00
  -4.434607e+01  -1.225154e+02
  -2.849323e+01  -7.352586e+01
   6.863074e+01  -2.709020e+01
   9.843394e+01   3.970113e+01
   3.624305e+01   1.535224e+01
   4.418851e+01  -5.547922e+01
   1.863724e+01   1.343633e+01
   5.855073e+01   8.922008e+01
   7.625196e+01   1.357622e+02
  -7.354907e+01   9.578100e+01
  -1.481065e+02   9.286453e+00
  -8.861652e+01  -7.301858e+01
  -7.388820e+01  -2.856840e+01
   6.103792e+01  -1.652618e+01
   1.172680e+02  -2.864067e+01
   4.153016e+01  -1.126103e+01
  -2.275764e+00  -1.165433e+01
   3.323153e+01  -9.091500e-01
   6.902026e+00   2.527462e+00
   9.805696e+00  -4.021876e+01
  -4.245646e+01   5.187398e+00
  -1.316327e+02   2.287888e+00
  -2.747847e+01  -1.230012e+02
   7.778234e+01  -1.031697e+02
   1.747001e+02  -5.701836e+01
   1.455994e+02   7.308150e+01
   1.557240e+01   1.600275e+02
  -6.096827e+01   1.631396e+02
  -1.691861e+02   7.559753e+01
  -1.000133e+02  -1.229848e+01
  -2.553627e+01  -4.984615e+01
   1.703549e+01  -2.542326e+01
  -3.928431e+01   1.924747e+01
  -5.829223e+01  -7.773328e+01
  -9.267275e+00  -1.340868e+02
   6.567216e+01  -7.017503e+01
   8.716821e+01   5.861100e+00
   1.451320e+02   1.183156e+02
   1.505899e+01   1.381435e+02
  -5.794607e+01   3.759981e+01
  -8.504807e+01  -9.920173e+01
  -2.078913e+01  -7.357226e+01
   8.151214e+01  -7.101323e+01
   9.698167e+01   5.047926e+01
   5.632858e+01   1.992413e+01
  -5.241979e+01   9.755662e+01
  -2.943102e+01   8.183916e+01
   1.407280e+01  -1.187980e+01
   7.666684e+01  -2.557273e+01
  -7.396055e+00  -1.330408e+00
  -1.002228e+02   5.619928e+01
  -1.366500e+02   2.857860e+01
  -7.850580e+01  -4.453232e+01
   3.654007e+01  -9.563149e+01
   4.345362e+01  -1.125832e+02
   6.326359e+01  -2.049760e+01
   1.003587e+01   7.531660e+01
  -9.148542e-01   5.052869e+01
  -6.983665e+01  -1.654681e+01
  -2.314171e+01  -1.981627e+01
   1.759547e+01  -4.667921e+01
   5.356060e+01   7.650168e+01
   3.870931e+01   1.590098e+01
  -2.711642e+01   1.084335e+01
   1.385044e+01  -7.188295e+00
  -3.876132e+01  -4.460059e+01
  -4.133474e+00   7.306052e+01
  -1.629544e+01   6.179201e+01
  -5.484074e+01   8.175863e+01
  -5.371374e+01  -3.813243e+01
  -8.879363e+01  -2.664952e+01
   1.492037e+01  -3.810462e+01
   6.645502e+01   6.880008e+01
   4.961349e+00   8.433926e+01
  -9.068674e+01   1.245936e+02
  -1.152886e+02   2.884856e+00
  -3.206982e+01  -4.587523e+01
   3.297441e+01  -3.755107e+01
   1.030271e+02  -3.875902e+01
   1.977730e+01   6.541468e+01
  -6.972519e+01  -1.373997e+01
  -2.689664e+01  -3.387348e+01
  -1.415243e+01  -2.713243e+01
   8.173655e+01  -3.097101e+01
