
 $NMID
 id='ANONYMOUS ', fmtdat='(2E16.6)'
 volume=1.0
 tramp=1.0
 $END
   4.571673e+03   1.165175e+02
   2.537335e+03   2.847662e+03
  -8.807994e+02   2.891281e+03
  -2.289170e+03   7.746703e+02
  -9.866091e+02  -8.315794e+02
   7.958227e+02  -6.752290e+02
   1.010154e+03   4.955536e+02
  -7.181763e+01   1.166037e+03
  -8.913283e+02   7.897805e+02
  -9.658175e+02  -1.478093e+02
  -4.497269e+02  -9.563352e+02
   2.781034e+02  -9.428169e+02
   7.574702e+02  -8.700348e+01
   4.213968e+02   7.845186e+02
  -2.754185e+02   7.677606e+02
  -6.276560e+02  -3.804611e+01
  -2.765022e+02  -7.106824e+02
   4.309309e+02  -5.710701e+02
   5.898825e+02  -9.158204e+01
   3.894808e+02   4.516737e+02
  -8.674344e+00   4.932893e+02
  -2.341801e+02   2.339019e+02
  -2.380242e+02  -4.755223e+00
   1.320790e+02  -1.417943e+02
   3.724072e+02   9.167240e+01
   1.992052e+02   4.371084e+02
  -4.722400e+02   4.853200e+02
  -8.978400e+02  -1.309121e+02
  -4.778381e+02  -5.995294e+02
   3.734332e+02  -5.242355e+02
   8.196311e+02   2.617971e+01
   3.959856e+02   4.836405e+02
  -3.107103e+02   5.812809e+02
  -6.031617e+02   1.825776e+02
  -4.415651e+02  -2.626387e+02
  -1.062865e+02  -4.419214e+02
   1.861484e+02  -2.695079e+02
   2.002277e+02   2.967492e+02
  -1.672719e+02   5.183988e+02
  -5.337782e+02   1.796523e+01
  -2.725029e+02  -6.979876e+02
   3.882838e+02  -7.777416e+02
   6.608284e+02  -4.420181e+01
   2.465281e+02   6.399875e+02
  -3.630518e+02   4.062780e+02
  -4.287291e+02  -3.045605e+02
   8.574824e+01  -5.728128e+02
   6.089074e+02  -1.862745e+02
   6.105863e+02   3.741001e+02
   1.144553e+02   5.885646e+02
  -4.108087e+02   3.290830e+02
  -6.400672e+02  -1.080468e+02
  -3.802071e+02  -4.118247e+02
   1.467684e+02  -3.350016e+02
   5.238266e+02  -1.232171e+02
   2.561868e+02   2.297416e+02
  -6.763862e+01   6.861977e+01
  -2.021150e+02  -1.992158e+02
   1.611514e+02  -2.211376e+02
   4.016084e+02   1.054072e+02
   1.144245e+02   2.811831e+02
  -1.875341e+02   3.023228e+02
  -3.313049e+02   8.803007e+01
  -2.239215e+02  -6.757891e+01
   3.827865e+01  -2.105087e+02
   1.761316e+02  -3.405934e+02
   2.723848e+02  -1.948998e+02
   3.362229e+02   1.200124e+02
   7.381094e+01   5.244613e+02
  -1.127542e+02   3.951005e+02
  -1.111691e+02   1.050680e+02
  -4.166745e+01  -4.155610e+01
  -5.752376e+01   1.096471e+02
  -1.382638e+02   1.463760e+02
  -2.810770e+02  -6.660424e+00
  -1.972985e+02  -3.277462e+02
   9.405009e+01  -2.943214e+02
   2.759356e+02  -6.397288e+01
   2.131653e+02   2.266526e+02
  -1.506476e+01   2.990735e+02
  -2.639111e+02   1.504029e+02
  -3.687359e+02  -1.993360e+02
  -1.906369e+02  -3.929029e+02
   8.629942e+01  -3.204369e+02
   2.571994e+02  -9.634341e+01
   1.543856e+02   2.093936e+01
   6.193942e+01  -2.589353e+01
   1.962939e+02  -1.134378e+02
   4.165059e+02   8.252887e+01
   3.161323e+02   3.030893e+02
  -1.833390e+01   4.499887e+02
  -3.533202e+02   3.993209e+02
  -5.112057e+02   1.718927e+02
  -3.577577e+02  -1.256416e+02
  -2.523960e+01  -3.159710e+02
   1.014055e+02  -2.793807e+02
   8.654770e+01   2.108532e+01
  -1.122869e+02   1.018238e+02
  -1.840168e+02  -5.043441e+01
  -5.019798e+01  -2.223893e+02
   1.315145e+02  -1.916520e+02
   2.796305e+02   6.083712e+01
  -8.729788e+01   2.556295e+02
  -2.291964e+02  -6.977781e+00
  -1.524287e+02  -2.348233e+02
   4.662559e+01  -2.692265e+02
   2.174411e+02  -1.491038e+02
   2.994815e+02   7.599088e+01
   2.677918e+02   2.225939e+02
   4.903367e+01   2.934343e+02
  -8.725257e+01   1.980576e+02
  -1.917871e+02   1.758757e+00
  -4.129530e+01  -2.549367e+01
   3.644718e+01   3.668106e+01
   2.988401e+01   1.283863e+02
  -9.449371e+01   1.679716e+02
  -2.081918e+02  -4.404893e+01
  -6.630391e+01  -4.699021e+01
   9.706831e+01   1.103816e+01
   2.651637e+01   5.260082e+01
  -1.004608e+02   9.723667e+01
  -3.026178e+02   1.189987e+01
  -2.746674e+02  -1.455439e+02
  -6.523122e+01  -2.627035e+02
   2.246840e+02  -3.122630e+02
   3.157806e+02  -1.218821e+02
   1.514252e+02   1.028123e+02
  -2.372233e+00   1.143233e+02
  -1.051767e+02   8.657951e+00
   2.764869e+00  -1.694269e+02
   2.159705e+02  -1.879133e+01
   2.292290e+02   1.063531e+02
   1.017771e+02   2.424499e+02
  -1.055215e+02   1.558026e+02
  -1.196723e+02  -1.443337e+01
  -9.362854e+01  -3.948524e+01
   3.760886e+01  -1.743337e+01
   4.011838e+01   7.061986e+01
  -7.000226e+01   6.308065e+01
  -1.502193e+02   7.966494e+01
  -1.804161e+02  -1.977900e+02
  -6.996358e+01  -2.136849e+02
   2.052240e+02  -1.829558e+02
   2.338770e+02  -2.943941e+01
   3.198120e+01   1.089153e+02
  -2.353518e+00   1.073849e+02
  -1.308510e+02   7.262600e+01
   3.826331e+01  -1.667517e+00
   3.756857e+01  -3.337757e+01
  -2.957715e+01   3.712382e+01
  -7.828925e+01  -5.321396e+01
  -6.209053e+01  -1.244548e+02
   4.937557e+00  -1.757245e+02
   9.846543e+01  -1.775107e+02
   2.729272e+02  -3.257346e+01
   1.967993e+02   1.485705e+02
   2.730074e+01   2.390307e+02
  -1.454705e+02   1.929602e+02
  -1.404701e+02   1.447118e+01
  -4.876048e+01  -4.436549e+01
  -1.699476e+01  -2.338222e+01
  -5.615665e+01  -3.207846e+01
  -6.877499e+01  -2.275032e+01
  -3.000265e+01  -9.908683e+01
   4.803262e+01  -8.755579e+01
   1.248965e+02  -1.130965e+02
   1.085655e+02   3.108682e+01
  -6.218466e+01   1.161462e+02
  -1.310588e+02   9.122365e+01
  -1.837183e+02  -3.352138e+01
  -7.731462e+01  -1.642795e+02
   1.228153e+02  -2.118046e+02
   2.605421e+02  -4.046019e+01
   2.464897e+02   1.313067e+02
   1.412469e+02   2.141720e+02
  -3.539943e+01   1.994897e+02
  -4.342027e+01   1.098114e+02
  -8.527901e+01   3.597461e+01
   4.479045e+01   8.792291e+01
  -8.415879e+01   7.375679e+01
  -1.458731e+02  -3.981002e+01
  -8.416969e+01  -1.488451e+02
  -8.113890e+01  -2.403480e+02
   7.706138e+01  -1.536052e+02
   2.469695e+02  -1.435532e+01
   1.543363e+02   7.014493e+01
   4.269421e+01   2.208350e+02
  -7.000668e+01   1.196610e+02
  -5.036607e+01  -9.355363e+00
  -3.300260e+01  -6.865148e+01
   8.002191e-01   3.284229e+01
  -4.620206e+01  -2.452124e+01
  -4.902383e+01   1.575447e+01
  -2.993954e+01  -1.065284e+02
   2.271015e+01  -1.309927e+01
   1.434333e+02   2.160717e+01
   1.259771e+02   1.047322e+02
   6.682677e+01   1.103349e+02
  -1.040859e+02   9.275669e+01
  -1.685994e+02  -3.741535e+01
  -9.101928e+01  -6.384951e+01
   8.064563e+01  -1.065944e+01
   1.113073e+02  -3.070353e+00
   8.295429e+00   1.153970e+02
  -5.706528e+01   1.544103e+01
  -4.927942e+01  -7.214406e+00
  -5.138369e+01  -3.453511e+01
  -4.460796e+01  -3.872364e+00
  -6.163770e+01  -2.624975e+01
  -7.390235e+01  -3.463669e+01
  -2.270373e+01  -7.799727e+01
   2.473541e+01  -1.110035e+02
   1.381240e+02  -8.211353e+01
   1.917988e+02   3.573396e+01
   1.074864e+02   4.333107e+01
  -2.631931e-01   1.439505e+02
  -1.249870e+02   4.785901e+01
  -1.277901e+01   3.892215e+01
   7.673197e+01  -2.189046e+01
   1.653554e+02   5.938114e+01
   5.055502e+01   1.229280e+02
  -8.583585e+01   1.622090e+02
  -1.927945e+02  -2.329241e+01
  -1.375814e+02  -1.043431e+01
  -6.425953e+01  -8.735202e+01
   1.191572e+02  -3.656464e+01
   4.327257e+00   2.109418e+01
   2.339914e+01   4.977278e+01
  -9.327799e+01   1.107216e+01
   1.111735e+00  -1.189028e+02
   7.984484e+01  -1.869112e+02
   1.869225e+02  -5.053575e+01
   1.021494e+02   1.198045e+02
  -2.968523e-01   2.177654e+02
  -1.101758e+02   1.676632e+02
  -1.504537e+02  -3.564533e-01
  -2.225872e+01  -1.095721e+02
   2.406735e+01  -1.458284e+02
   5.472708e+01   1.883088e+00
   5.235053e+01   2.602791e+01
  -3.083923e+01   2.873403e+01
   4.826432e+01  -4.818818e+01
  -3.726710e+01  -5.508132e+01
   1.627951e+01   7.344435e+01
   8.892160e+01   1.122671e+02
  -8.097337e+01   1.594790e+01
  -1.791125e+02  -2.788300e+01
  -1.210720e+02  -6.732321e+01
  -3.343495e+01  -5.753508e+01
   1.010180e+02  -9.568202e+01
   6.148404e+01   1.089386e+01
   2.648830e+01  -1.325462e+01
  -5.046890e+01   9.425824e+00
  -5.881661e+00   5.876993e+01
   2.108143e+00   1.234451e+01
  -3.248291e+01  -4.169979e+01
  -3.876115e+01  -2.991413e+01
  -7.067919e+01  -3.894091e+01
  -2.166032e+00  -4.943815e+01
   1.336475e+02  -1.103058e+02
   1.869120e+02  -9.273305e+01
   1.017478e+02   7.684824e+01
   4.326081e+01   1.688299e+02
  -7.831032e+01   9.784498e+01
  -8.473999e+01   5.084340e+01
  -7.416689e+01  -3.322452e+01
   1.305744e+01  -4.766998e+01
   1.260533e+01  -4.271610e+01
  -1.953424e+01   2.789401e+01
  -9.019893e+00  -5.038969e+01
   2.585978e+01  -1.032328e+02
   3.535757e+01  -8.402346e+01
   2.277597e+01   4.532823e+01
   8.730035e+01   1.128172e+02
   4.552122e+01   9.573911e+01
  -9.954497e+01   5.399086e+01
  -7.839468e+01  -1.232126e+02
  -1.747343e+01  -1.326102e+02
   8.079252e+01  -2.717076e+00
   8.651809e+01  -8.120214e+00
   5.151867e+01  -3.447751e+01
  -7.759483e+01   4.366993e+01
  -5.939275e+01  -2.080100e+00
   7.659290e+01   4.748037e+01
   9.114814e+01  -3.860217e+01
   5.380510e+00  -2.511032e+01
  -1.081636e+02   6.141622e+01
  -1.159465e+02   4.681577e+01
  -8.366850e+01   3.632963e+01
   6.720574e+01  -5.687072e+01
   7.210186e+01  -8.796783e+01
   5.765282e+01  -2.292890e+01
   4.694789e+01   3.839590e+01
  -6.139088e+00   2.019010e+00
  -5.406311e+01  -4.479480e+01
   6.572375e+00  -6.198266e+01
  -4.060348e+01  -3.576028e+01
   3.653691e+01   7.247454e+00
   4.146751e+01   6.043290e+00
   4.025905e+01   1.682095e+01
  -1.221561e+01  -1.788327e+01
   3.728835e+01   8.382349e+00
  -2.516255e+01   2.019632e+01
  -4.452240e+01   4.381628e+01
  -3.698776e+01  -2.185310e+01
  -6.363820e-02  -4.734589e+01
  -1.251461e+01  -1.050707e+02
   3.421997e+01  -6.173531e+01
   5.445388e+01   3.050914e+01
   3.268387e+01   4.443816e+01
  -1.049943e+02  -4.108053e+01
  -9.697765e+01  -3.055140e+01
  -2.278968e+01  -5.010295e+01
   5.422627e+01  -5.210377e+01
   9.857395e+01  -6.242380e+01
   5.341295e+01  -1.360979e+00
  -5.459622e+01   4.797005e+01
  -8.779136e+00   4.360762e+01
   2.730409e+01  -4.387566e+01
   7.185275e+01  -6.928885e+00
