
 $NMID
 id='ANONYMOUS ', fmtdat='(2E16.6)'
 volume=1.0
 tramp=1.0
 $END
  -3.824375e+03  -1.232144e+02
  -2.277375e+03  -2.198711e+03
   4.567836e+02  -2.324401e+03
   1.738082e+03  -9.145383e+02
   8.901301e+02   3.452462e+02
  -4.043541e+02   4.499202e+02
  -7.164731e+02  -3.186034e+02
   3.150522e-01  -8.244943e+02
   6.789416e+02  -6.779564e+02
   7.652831e+02   5.100787e+01
   4.148396e+02   6.984425e+02
  -1.201681e+02   7.141972e+02
  -4.977118e+02   1.347708e+02
  -3.292402e+02  -5.886843e+02
   2.605994e+02  -6.342017e+02
   5.211770e+02  -2.429398e+00
   2.726693e+02   6.257627e+02
  -2.120241e+02   5.811991e+02
  -5.234304e+02   1.479950e+02
  -3.765338e+02  -2.628211e+02
  -4.922040e+00  -3.818441e+02
   2.033517e+02  -2.754423e+02
   1.762333e+02  -4.245880e+01
  -1.725671e+02   3.364142e+00
  -3.043182e+02  -2.001757e+02
  -7.672379e+01  -4.230239e+02
   4.927044e+02  -2.817536e+02
   7.621679e+02   1.240684e+02
   3.575636e+02   5.035914e+02
  -3.491496e+02   4.242893e+02
  -6.432498e+02  -6.598068e+01
  -2.309453e+02  -4.307432e+02
   2.586721e+02  -5.028745e+02
   5.492510e+02  -1.353195e+02
   3.078359e+02   1.556737e+02
   7.884989e+01   3.456248e+02
  -1.667536e+02   2.693999e+02
  -1.182660e+02  -1.663145e+02
   2.304257e+02  -3.449102e+02
   3.681707e+02   1.070089e+02
   1.442093e+02   6.288992e+02
  -3.245976e+02   5.696225e+02
  -5.048735e+02  -3.401818e+01
  -2.356851e+02  -4.853547e+02
   1.955701e+02  -2.450169e+02
   2.547281e+02   3.021364e+02
  -9.285475e+01   4.757166e+02
  -4.863202e+02   8.736895e+01
  -5.520518e+02  -3.947412e+02
  -1.029483e+02  -5.271885e+02
   3.601947e+02  -2.751169e+02
   5.936722e+02   1.185415e+02
   3.177379e+02   3.007651e+02
  -1.098186e+02   2.683960e+02
  -3.635917e+02   4.866330e+01
  -1.521305e+02  -1.612858e+02
   4.189533e+01  -8.708514e+01
   1.538072e+02   1.039998e+02
  -1.575468e+02   1.169875e+02
  -2.431663e+02  -6.932353e+01
  -1.742330e+02  -2.799156e+02
   1.818658e+02  -2.743040e+02
   3.279776e+02  -1.366650e+02
   2.163289e+02   6.985434e+01
  -4.647646e+00   2.633599e+02
  -2.270223e+02   3.595605e+02
  -4.344234e+02   1.733632e+02
  -2.818977e+02  -1.727788e+02
  -6.546471e+01  -4.341082e+02
   9.894784e+01  -3.715632e+02
   7.007816e+01  -9.214590e+01
   2.518777e+01  -3.400225e+01
   2.351451e+01  -1.165285e+02
   1.715319e+02  -1.353899e+02
   2.781373e+02   1.199168e+02
   1.741739e+02   2.364340e+02
  -1.241257e+02   2.260010e+02
  -2.395961e+02   2.395934e+01
  -1.662099e+02  -2.546286e+02
   2.384002e+01  -3.011847e+02
   3.009531e+02  -8.254098e+01
   3.369459e+02   1.737693e+02
   1.711882e+02   3.209378e+02
  -1.006295e+02   2.682659e+02
  -2.010146e+02   1.507272e+02
  -1.088130e+02   4.984419e+01
  -1.354388e+02   2.151529e+01
  -2.392392e+02   4.381316e+01
  -3.795034e+02  -4.969345e+01
  -3.717278e+02  -2.689296e+02
   1.398029e+01  -4.415177e+02
   3.447671e+02  -3.878098e+02
   4.517753e+02  -1.895353e+02
   3.598643e+02   5.885638e+01
   2.309029e+01   2.784715e+02
  -8.036991e+01   2.519554e+02
  -1.081705e+02   2.654187e+01
   7.021269e+01  -6.126746e+01
   1.249973e+02   3.052911e+01
   2.836662e+01   1.736312e+02
  -1.616145e+02   1.506731e+02
  -1.298248e+02  -5.562331e+01
   5.821899e+01  -2.209303e+02
   1.359188e+02  -7.327233e+00
   1.208535e+02   2.580810e+02
  -7.443152e+01   3.478252e+02
  -2.624291e+02   2.172138e+02
  -3.842431e+02  -1.357903e+00
  -2.468194e+02  -2.037373e+02
  -1.285010e+02  -2.212550e+02
   1.299935e+02  -1.392014e+02
   1.964751e+02  -6.771446e+01
   7.515605e+00   3.890490e+01
  -3.130195e+01  -4.163411e+01
  -7.794516e+00  -9.131579e+01
   2.998752e+01  -9.558137e+01
   1.757766e+02   4.073231e+01
   6.111030e+01   5.179895e+01
  -1.273670e+02   1.043713e+01
  -4.891095e+01  -1.547977e+02
   9.784702e+01  -1.246868e+02
   3.032723e+02   8.545950e-01
   2.377786e+02   1.649349e+02
   2.358396e+01   2.612032e+02
  -1.990751e+02   2.022660e+02
  -2.836459e+02   9.149502e+01
  -7.523428e+01  -1.759304e+01
   6.897281e+01  -9.181963e+01
   6.573093e+01  -2.121828e+01
  -5.825542e+01   1.988968e+01
  -2.213285e+02   1.611766e+01
  -2.500500e+02  -1.141002e+02
  -6.994691e+01  -1.635590e+02
   8.402620e+01  -1.824263e+02
   1.535398e+02  -5.926304e+01
   3.159558e+01   3.750753e+01
   1.481010e+01   5.065403e-01
  -2.009424e+01  -8.412147e+01
   6.055768e+01  -9.116454e+01
   1.993963e+02   1.133427e+00
   1.525633e+02   9.909246e+01
   3.239497e+01   2.746339e+02
  -1.215112e+02   1.398660e+02
  -1.483641e+02   1.122824e+01
  -5.958105e+01  -1.161962e+02
   8.288780e+01  -1.010174e+02
   8.713863e+01   3.457732e+00
  -3.299910e+01   4.050880e+00
  -7.328370e+01   3.808812e+00
   1.778312e+01  -5.619447e+00
   9.290117e+01   7.240157e-01
   5.386350e+01   8.637107e+01
   6.164767e+00   1.395678e+02
  -9.833125e+01   1.506112e+02
  -2.306071e+02   1.479063e+01
  -1.825408e+02  -1.447502e+02
  -1.272912e+01  -2.498852e+02
   1.770709e+02  -1.488867e+02
   1.491813e+02  -5.169783e+01
   9.063107e+01   1.916171e+01
   2.148353e+01   4.944969e+01
   5.982330e+01  -4.866889e+00
   7.409355e+01  -6.234980e+00
  -8.556639e-01   4.279458e+01
  -3.955560e+01   1.210802e+02
  -1.069158e+02   3.169948e+01
  -1.037495e+02  -6.554110e+01
  -2.437924e+01  -9.013110e+01
   8.692781e+01  -6.324891e+01
   2.320566e+02   2.917148e+01
   8.744372e+01   1.646798e+02
  -1.465575e+02   1.653285e+02
  -2.492202e+02   6.045395e+01
  -2.260664e+02  -7.690311e+01
  -8.862236e+01  -1.539764e+02
   5.370730e+00  -1.613864e+02
   7.921725e+01  -7.025974e+01
   2.390489e+01  -7.712527e+01
   8.078364e+01  -4.578426e+01
   9.731282e+01  -7.103439e+01
   1.404185e+02   1.630730e+01
   1.460725e+02   1.375126e+02
   3.778647e+01   2.580545e+02
  -1.126027e+02   1.753448e+02
  -1.833997e+02   1.622586e+01
  -1.174303e+02  -1.028004e+02
  -3.062249e+01  -2.198933e+02
   6.215323e+01  -8.761869e+01
   3.197118e+01  -1.093810e+01
   5.321428e+01   7.107160e+01
   2.784157e+01   3.646871e+01
   1.313372e+01   2.382404e+01
   1.480999e+02   6.966484e+01
   3.828077e+01   5.017173e+01
  -6.193237e+01   1.103106e+02
  -1.371073e+02  -1.771593e+01
  -1.210185e+02  -5.459501e+01
  -3.997988e-01  -9.244025e+01
   6.970954e+01  -1.160277e+02
   1.495406e+02  -1.941455e+01
   5.654203e+01   2.684094e+01
  -3.090809e+01   3.642328e+01
  -3.214910e+01  -5.220687e+01
  -2.338719e+00  -8.796814e+01
   6.380006e+01  -2.347593e+01
   1.152335e+02   3.418897e+01
   4.233725e+01   7.244983e+00
   1.660143e+01   3.200607e+01
   7.783999e+01   1.124201e+01
   7.765846e+01  -1.143615e+01
  -6.017025e+00   3.477654e+01
  -2.943446e+01   1.625661e+02
  -1.253751e+02   1.328317e+02
  -1.946728e+02   3.177685e+01
  -1.310523e+02  -8.097152e+01
  -2.138669e+01  -1.468584e+02
   1.196940e+02  -8.340483e+01
   6.545262e+01   7.918553e+01
  -4.401341e+01   2.098963e+01
  -1.318746e+02  -4.325594e+01
  -6.100146e+01  -8.541925e+01
   6.403394e+01  -1.362960e+02
   1.400856e+02  -3.230331e+01
   1.138352e+02   4.600471e+01
   3.223875e+01   1.108316e+02
  -7.044079e+01   4.162149e+01
  -4.132875e+01  -1.104449e+01
   2.304159e+01   8.013421e-01
   7.911360e+01   1.491376e+01
   1.862979e+01   1.054950e+02
  -1.013877e+02   1.722897e+02
  -1.457840e+02   5.555583e+01
  -1.371704e+02  -1.242732e+02
  -1.936696e+01  -2.203025e+02
   8.140624e+01  -1.115436e+02
   1.374182e+02   5.839915e+01
   5.280995e+01   1.023919e+02
  -6.162916e+00   1.038698e+02
   5.347488e+00   9.554180e+00
  -4.286237e+01  -4.572710e+01
   3.612577e+00  -7.091719e-01
  -1.222843e+01   3.403687e+01
  -4.699064e+01  -1.998422e+01
  -6.091283e+01  -8.931544e+01
  -3.942103e+01  -7.127198e+01
  -1.099809e+01  -1.500885e+01
   9.818833e+01  -2.842593e+01
   1.245676e+02   5.949618e+01
  -2.090519e+01   5.230588e+00
  -1.123051e+02   2.556037e+01
  -9.896368e+01   5.580779e+01
  -2.277858e+01   2.974279e+01
  -1.706331e+01  -3.697200e+01
   2.576423e+01   8.398624e-01
  -4.539716e+00  -6.223074e+00
   4.909061e+01  -6.392317e+01
   3.029636e+01   3.500250e+01
   1.071430e+02   4.786123e+01
  -1.485093e+01   8.245885e+01
  -1.126020e+02   1.136476e+02
  -2.019775e+02   4.157624e+01
  -1.497792e+02  -5.329368e+01
  -6.412175e+01  -1.901402e+02
   1.477501e+02  -1.323154e+02
   1.165890e+02  -5.645616e+01
   8.579109e+01   8.625583e+01
   5.361463e+01  -1.871244e+01
  -9.953572e+00   8.790593e+00
   4.110709e+01   7.370077e+01
   6.612973e+01   7.059397e+00
   3.475122e+01   1.002882e+02
  -3.183641e+01   1.394163e+02
  -6.126897e+01   2.190566e+01
  -6.996316e+01  -9.178474e+01
   6.776700e+01  -1.143674e+02
   4.446370e+01  -2.818435e+01
   1.353288e+02   9.207997e+01
   3.323752e+01   9.558030e+01
  -4.228653e+01   3.234216e+01
  -9.329969e+01   1.882149e+01
  -4.965967e+01  -1.129789e+02
   1.408346e+00  -5.637289e+01
   2.151586e+01  -3.002711e+01
  -3.620160e+01  -8.630395e+00
  -3.813592e+01  -3.450128e+01
  -1.311818e+01  -5.446021e+01
   1.262906e+02  -5.366999e+01
   1.257329e+02  -2.209065e+01
   1.164574e+02   3.425271e+01
  -4.191737e+01   3.347459e+01
  -7.932033e+01   6.878356e+01
  -2.695373e+01   2.358707e+01
  -1.819509e+00  -5.748161e+01
  -3.194061e+01  -4.242862e+01
   2.614546e+01   1.094479e+01
   5.109298e+00   7.536385e+01
   4.080301e-01   1.057443e+01
   7.610257e+00   1.003350e+01
  -4.982274e+01   5.969157e+00
  -3.278544e+01  -3.068106e+01
  -3.596818e+01  -1.021912e+01
   2.672817e+01  -2.780392e+01
   5.474518e+01   2.357199e+01
   5.231273e+01  -7.097025e+01
   5.923530e+01  -1.196638e+01
   6.888676e+01   1.774736e+00
  -4.938048e+01   7.497778e+01
  -2.269650e+01  -7.263025e-01
  -5.546007e+01  -8.344532e+01
  -1.272860e+01  -8.494252e+01
   6.688271e+01   5.635693e-02
   5.155310e+01  -2.162009e+00
   7.497030e+01   5.611714e+01
  -3.098011e+01   1.416950e+01
  -2.547096e+01   4.045879e+01
  -3.626157e+01  -3.138201e+00
   1.066249e+01  -2.415832e+01
  -4.487533e+00   1.226880e+01
  -3.134801e+01  -1.310060e+01
  -7.884439e+01   9.080553e+01
