
 $NMID
 id='ANONYMOUS ', fmtdat='(2E16.6)'
 volume=1.0
 tramp=1.0
 $END
   3.946359e+03  -7.677185e+01
   2.498949e+03   2.228994e+03
  -3.836476e+02   2.621032e+03
  -1.789354e+03   1.146813e+03
  -1.044202e+03  -2.819821e+02
   3.436197e+02  -4.745437e+02
   7.297130e+02   2.661413e+02
   4.863193e+01   9.283428e+02
  -6.791046e+02   7.154026e+02
  -8.222354e+02  -3.353002e+01
  -5.005758e+02  -7.055493e+02
   1.267254e+02  -8.455083e+02
   4.680091e+02  -1.728534e+02
   3.331797e+02   6.311686e+02
  -1.721724e+02   7.347929e+02
  -5.312418e+02   2.846253e+00
  -2.769238e+02  -5.937867e+02
   2.649620e+02  -6.835571e+02
   5.670707e+02  -2.162442e+02
   4.465431e+02   2.948590e+02
   5.694082e+01   4.296955e+02
  -2.232513e+02   2.527025e+02
  -1.428259e+02   5.372904e+01
   1.479636e+02  -2.202673e+01
   3.671346e+02   1.619146e+02
   1.500393e+02   3.574680e+02
  -4.088413e+02   3.048143e+02
  -7.608992e+02  -1.467358e+02
  -3.870294e+02  -4.955419e+02
   3.154631e+02  -3.304624e+02
   6.137156e+02   7.434053e+01
   3.231011e+02   4.276330e+02
  -2.465047e+02   4.363179e+02
  -4.846369e+02   2.139101e+02
  -3.954993e+02  -2.346877e+02
  -1.001496e+02  -3.528332e+02
   9.056509e+01  -2.404693e+02
   1.115407e+02   1.652983e+02
  -1.372921e+02   3.295337e+02
  -3.275200e+02  -1.383275e+01
  -2.327891e+02  -5.767381e+02
   2.565418e+02  -5.962058e+02
   5.073581e+02   5.278288e+01
   2.770099e+02   4.612203e+02
  -2.577994e+02   2.550448e+02
  -3.287205e+02  -2.935776e+02
   6.121305e+01  -5.180517e+02
   5.268713e+02  -1.548026e+02
   5.710358e+02   3.886834e+02
   1.760338e+02   5.355114e+02
  -3.991693e+02   3.099953e+02
  -6.330570e+02  -6.222698e+01
  -3.406974e+02  -2.946199e+02
   1.180869e+02  -3.027855e+02
   4.093712e+02  -3.013064e+01
   2.672987e+02   7.849666e+01
  -5.332733e+01   9.008902e+01
  -8.373369e+01  -9.506670e+01
   8.121922e+01  -1.360945e+02
   3.357367e+02   8.922469e+01
   1.633593e+02   2.127540e+02
  -1.760178e+02   2.846496e+02
  -2.972448e+02   1.427086e+02
  -2.266935e+02  -1.300295e+02
   4.171856e+01  -2.848918e+02
   2.239994e+02  -3.366607e+02
   3.409003e+02  -2.243641e+02
   2.414573e+02   1.321211e+02
   1.263099e+02   4.167279e+02
  -8.657714e+01   4.102370e+02
  -1.245454e+02   1.528116e+02
  -4.741926e+01   3.105971e+00
  -1.087782e+02   9.385253e+01
  -2.060549e+02   7.801617e+01
  -2.419367e+02  -1.611927e+02
  -1.207800e+02  -3.061760e+02
   5.181852e+01  -2.350308e+02
   1.805232e+02   1.917892e+00
   2.195860e+02   2.417067e+02
   2.876302e+01   2.815854e+02
  -3.393403e+02   9.110302e+01
  -3.540526e+02  -1.243222e+02
  -2.017970e+02  -3.231882e+02
   1.138814e+02  -3.033531e+02
   2.108736e+02  -1.893904e+02
   1.109600e+02  -3.754936e+01
   1.214142e+02  -8.562777e+01
   2.419788e+02  -5.055494e+01
   4.299054e+02   6.586847e+01
   3.551315e+02   3.373128e+02
  -3.302470e+01   4.509618e+02
  -3.461864e+02   3.735258e+02
  -4.120426e+02   1.849214e+02
  -3.551999e+02  -6.406799e+01
  -5.807084e+01  -3.059515e+02
   1.279832e+02  -2.419639e+02
   1.157922e+02  -6.932068e+01
  -8.668788e+01   1.308489e+02
  -1.696740e+02   1.177302e+01
  -2.854944e+01  -2.057920e+02
   1.472155e+02  -1.415740e+02
   1.293044e+02  -7.524076e+00
  -6.891559e+00   1.901819e+02
  -1.777845e+02  -6.419311e+00
  -2.108841e+02  -2.397392e+02
   5.959512e+01  -3.766108e+02
   2.666502e+02  -1.995148e+02
   3.502649e+02   6.557033e+01
   2.602862e+02   2.337559e+02
   9.061054e+01   2.629701e+02
  -1.648902e+02   1.097829e+02
  -1.635860e+02  -3.565479e+01
  -4.710041e+01  -5.286912e+01
   2.308695e+01   1.790022e+01
   4.128202e+01   9.549490e+01
  -1.329068e+02   8.667299e+01
  -1.816890e+02  -3.760355e+01
  -3.088271e+01  -6.193174e+01
   4.784696e+01   6.089873e+01
   6.885272e+01   8.179335e+01
  -1.568159e+02   6.498542e+01
  -2.996834e+02   1.009348e+01
  -2.708056e+02  -1.969059e+02
  -4.728884e+01  -2.484052e+02
   2.092609e+02  -2.556184e+02
   2.696068e+02  -5.970263e+01
   1.268006e+02   3.832172e+01
  -2.922488e+01   8.104192e+01
  -3.713298e+01  -3.880626e+01
   5.367983e+01  -4.861797e+01
   2.291547e+02   3.081997e+01
   2.175485e+02   1.078288e+02
   7.146386e+01   2.199255e+02
  -1.068794e+02   1.218345e+02
  -1.436202e+02  -8.781024e+00
  -1.018963e+02  -7.185338e+01
  -1.212627e+01   4.260734e+01
   1.719858e+01   8.506765e+01
  -8.814287e+01   1.515486e+02
  -2.114606e+02   4.827805e+01
  -1.738962e+02  -1.068469e+02
  -6.935378e+01  -1.864385e+02
   1.445369e+02  -1.740171e+02
   1.772461e+02  -7.660892e+00
   4.072977e+01   1.237217e+02
  -5.093851e+01   1.026880e+02
  -1.551276e+02   2.489098e+01
  -1.431662e+01  -1.129092e+01
   1.712457e+01  -6.790243e+01
  -1.602049e+01   1.870063e+01
  -9.456715e+01  -7.041370e+00
  -9.840737e+01  -1.183221e+02
   2.257519e+01  -1.404514e+02
   1.319162e+02  -7.405431e+01
   2.733371e+02  -1.992292e+01
   1.970924e+02   1.510066e+02
   6.853592e+01   2.266103e+02
  -1.311208e+02   1.780163e+02
  -1.585377e+02   1.873340e+01
  -6.187369e+01  -5.352323e+01
  -2.325860e+01  -2.395921e+01
  -8.455627e+01   8.087146e+00
  -7.422623e+01   1.984469e+01
   2.105343e+01  -6.515578e+01
   3.502941e+01  -5.782206e+01
   1.391851e+02  -1.386361e+02
   1.347626e+01   2.332939e+01
   4.191121e+01   1.041241e+02
  -1.382277e+02   6.701479e+01
  -1.673694e+02  -9.019672e+01
  -1.008392e+02  -1.952043e+02
   1.705996e+02  -2.048485e+02
   2.365569e+02  -8.328423e+01
   2.644019e+02   1.176856e+02
   1.264546e+02   1.900207e+02
  -6.856980e+01   1.980926e+02
  -7.800456e+01   8.839546e+01
  -7.315049e+01   6.109369e+01
  -4.226614e+01   1.524106e+02
  -9.326651e+01   6.579343e+01
  -1.632246e+02  -2.042180e+01
  -1.526051e+02  -1.638574e+02
  -5.399355e+01  -2.317677e+02
   1.040024e+02  -1.531233e+02
   1.812957e+02  -8.369879e+01
   1.278963e+02   1.449238e+02
   4.989374e+00   1.602700e+02
  -7.031301e+01   5.727487e+01
  -3.380335e+01  -3.429437e+01
  -1.019882e+00  -7.630337e+01
   3.024694e+01  -5.899378e+01
  -2.882167e+01   6.825397e+01
  -7.385258e+01   1.372147e+00
  -3.501243e+01  -2.616616e+01
   5.380438e+01  -5.627303e+01
   1.587470e+02  -8.757586e+00
   1.189390e+02   5.479129e+01
   9.273327e+00   7.230328e+01
  -1.411787e+02   4.333673e+01
  -1.509029e+02  -8.123399e+00
  -7.167413e+01  -6.198927e+01
   8.717421e+01  -6.665817e+01
   7.274621e+01   2.206047e+01
  -2.696181e+01   7.498838e+01
  -7.630941e+01   9.431061e+01
  -5.646850e+01   2.745982e+01
  -4.888059e+00  -9.329183e+01
  -5.112375e+01  -6.071313e+01
  -3.647272e+01  -5.289807e+00
  -7.045357e+01  -5.264580e+01
  -9.311528e+01  -5.813389e+01
  -3.848750e+01  -1.832229e+02
   1.231207e+02  -1.283212e+02
   1.570044e+02  -3.510248e+01
   9.628031e+01   7.911773e+01
   6.236683e-01   1.303947e+02
  -8.068997e+01   2.483658e+01
  -1.201815e+02  -1.889907e+01
   7.310389e+01  -3.897465e+01
   1.412883e+02   6.123772e+00
   5.884478e+01   8.520258e+01
  -6.802885e+01   1.281611e+02
  -2.602884e+02   5.955783e+01
  -1.416596e+02  -2.157825e+01
  -5.179321e+01  -4.946329e+01
   2.901924e+01  -7.413308e+01
   1.103765e+01   2.528666e+01
  -3.220981e+01   1.518897e+01
  -1.308699e+02  -5.660057e+01
  -2.285356e+01  -1.655287e+02
   6.475097e+01  -1.458638e+02
   1.490479e+02  -7.940873e+01
   8.243068e+01   1.185204e+02
   2.066017e+01   1.817457e+02
  -1.011691e+02   9.667135e+01
  -1.277745e+02  -3.071808e+01
  -8.607257e+01  -1.631584e+02
   1.957456e+01  -7.222451e+01
   1.954268e+01   4.008604e-01
   7.126090e+01   4.133393e+01
   3.368347e+01   1.237506e+01
  -2.930735e+01   3.084002e+01
   2.588009e+01   1.995899e+01
   7.182282e+01   1.219926e+02
   1.127343e+02   1.074380e+02
  -9.469239e+01   3.605456e+01
  -1.391911e+02  -2.214025e+01
  -7.499468e+01  -4.506466e+01
   2.111749e+01  -3.030414e+01
  -3.606046e+00  -3.592751e+01
   1.039997e+02   1.993091e+00
   5.484703e+00   2.891475e+01
  -6.297727e+01  -3.311528e+01
   1.349353e+01   4.960901e+00
   5.431758e-01  -1.867836e+01
  -2.553862e+01   1.712362e-01
  -5.768397e+01   3.600836e+00
  -7.190241e+01  -4.622844e+01
  -6.044450e+01  -9.542420e+01
   8.482244e+01  -1.440747e+02
   2.479816e+02  -7.944671e+01
   1.348903e+02   9.882441e+01
   4.198179e+01   1.523648e+02
  -4.814629e+01   1.987009e+02
  -1.273857e+02   1.087168e+02
  -9.782649e+01   7.874103e+00
  -4.784739e+01  -2.796799e+01
  -3.796638e+01  -4.106225e+01
  -1.459114e+01   1.361107e+00
  -1.332454e+01  -6.029920e+01
  -1.518101e+01  -1.080751e+02
   4.703702e+01  -6.231014e+01
   6.984171e+01   1.873051e+01
   1.239541e+02   6.439334e+01
   5.112780e+01   7.334042e+01
  -1.304644e+02   2.905497e+01
  -6.563239e+01  -3.291504e+01
   7.483974e+00  -7.983027e+01
   3.945652e+01  -5.310322e+01
   1.103275e+02  -1.944125e+01
   2.497737e+01   6.054107e+01
  -1.188840e+01   7.534307e+01
  -7.082048e+01   1.905153e+01
  -1.745128e+00   1.896628e+01
   8.206011e+01   5.572598e+00
   3.175098e+00   7.972940e+01
  -1.039779e+02   9.729319e+01
  -9.809906e+01   1.072862e+01
  -2.625246e+01  -3.941172e+01
   3.362999e+01  -1.031081e+02
   4.934552e+01  -7.957434e+01
   8.488911e+01  -2.298669e+01
  -1.839109e+01   5.259682e+01
  -1.004870e+01   2.881056e+01
  -6.408447e+01   4.008269e+01
  -2.262852e+01  -3.859530e+01
   4.774428e+01  -1.677727e+01
   3.200188e+01  -3.455243e+01
   1.840667e+01   1.544136e+00
  -1.774009e+01   3.135488e+01
  -6.711385e+01  -1.918338e+01
   3.571165e+00   3.790933e+01
  -2.700583e+01   2.963669e+01
   4.201165e+01   5.327441e+01
  -5.180576e+00   1.711892e+01
  -3.505950e+01   5.934108e+00
  -1.211437e+01  -2.253010e+01
   4.813513e+01  -5.193560e+01
   1.182414e+02   5.020368e+01
   5.956600e+01   5.902868e+01
  -1.065369e+02   8.919045e+01
  -1.001596e+02   2.396476e+01
  -6.011710e+01  -9.866722e+01
   2.119710e+01  -2.469000e+01
   6.930052e+01  -2.373591e+01
   6.910740e+01  -3.317029e+01
  -7.376997e+01  -4.780337e+01
  -3.075188e+01  -1.800881e+01
   4.056367e+01  -4.548491e+01
   1.022622e+02  -1.063392e+01
