
 $NMID
 id='ANONYMOUS ', fmtdat='(2E16.6)'
 volume=1.0
 tramp=1.0
 $END
  -4.176739e+03  -1.912540e+02
  -2.363414e+03  -2.471450e+03
   6.484480e+02  -2.554015e+03
   1.933191e+03  -9.245250e+02
   8.678734e+02   3.783735e+02
  -5.277867e+02   3.251872e+02
  -7.814649e+02  -4.059612e+02
   3.068837e+01  -9.273504e+02
   8.228055e+02  -6.332631e+02
   8.920944e+02   1.201890e+02
   4.237185e+02   7.929036e+02
  -1.971172e+02   8.029318e+02
  -5.301922e+02   9.114316e+01
  -3.267269e+02  -7.020230e+02
   3.058216e+02  -6.775602e+02
   6.033612e+02   1.138615e+00
   2.825253e+02   6.179784e+02
  -2.238414e+02   6.292437e+02
  -6.228501e+02   1.557338e+02
  -4.215940e+02  -3.192840e+02
  -8.387362e+01  -3.997348e+02
   2.194535e+02  -2.434516e+02
   2.083061e+02  -2.443518e+00
  -1.708548e+02   3.879837e+01
  -3.726185e+02  -1.886324e+02
  -1.124682e+02  -4.848347e+02
   4.933852e+02  -2.836376e+02
   8.106009e+02   8.855225e+01
   3.029770e+02   5.320256e+02
  -4.144372e+02   4.204297e+02
  -6.905856e+02  -1.332236e+02
  -2.721776e+02  -4.855475e+02
   2.931728e+02  -5.045245e+02
   5.313666e+02  -1.329094e+02
   4.079346e+02   2.457315e+02
   5.218613e+01   4.751987e+02
  -1.849532e+02   2.693738e+02
  -1.188493e+02  -2.399687e+02
   1.745824e+02  -3.787693e+02
   4.095698e+02   1.124815e+02
   1.985549e+02   6.994360e+02
  -4.240796e+02   6.598328e+02
  -5.716611e+02  -8.436642e+01
  -2.207488e+02  -5.404903e+02
   3.143515e+02  -3.028569e+02
   3.325434e+02   3.532867e+02
  -1.538629e+02   5.343835e+02
  -6.137177e+02   7.245957e+01
  -6.264244e+02  -4.523725e+02
  -1.388724e+02  -5.881231e+02
   4.044766e+02  -2.833155e+02
   6.011403e+02   1.217386e+02
   3.893036e+02   3.556953e+02
  -1.578162e+02   3.225161e+02
  -4.590539e+02   5.423004e+01
  -2.087638e+02  -1.797968e+02
   5.444382e+01  -6.584111e+01
   1.685237e+02   1.179517e+02
  -1.604020e+02   1.502805e+02
  -3.258507e+02  -7.566786e+01
  -1.339106e+02  -2.302483e+02
   1.939057e+02  -2.623407e+02
   3.608644e+02  -9.017275e+01
   2.586073e+02   5.913100e+01
   5.257260e+01   2.721704e+02
  -2.564484e+02   3.737384e+02
  -3.366891e+02   2.369276e+02
  -3.236812e+02  -1.419597e+02
  -1.236571e+02  -4.732047e+02
   1.289149e+02  -3.721069e+02
   1.020025e+02  -1.145668e+02
   4.044542e+01  -5.830528e+01
   1.095221e+02  -1.121990e+02
   2.198439e+02  -5.622679e+01
   2.837692e+02   1.078541e+02
   1.283575e+02   3.134264e+02
  -7.537715e+01   2.511008e+02
  -2.350623e+02  -7.664227e+01
  -1.855093e+02  -3.106861e+02
   8.408037e+00  -3.379653e+02
   3.093451e+02  -1.265203e+02
   3.326089e+02   1.915569e+02
   1.906797e+02   3.583112e+02
  -1.263452e+02   3.213832e+02
  -2.187326e+02   1.385192e+02
  -1.430073e+02   6.616818e+01
  -1.181584e+02   9.536658e+01
  -1.949909e+02   3.334860e+01
  -4.329804e+02  -6.060610e+01
  -3.258572e+02  -2.909664e+02
   7.513227e+00  -4.765111e+02
   3.280551e+02  -4.193888e+02
   4.977344e+02  -1.978168e+02
   3.412714e+02   5.887803e+01
   1.238424e+02   3.067091e+02
  -1.446497e+02   2.480106e+02
  -1.078412e+02   2.767111e+01
   1.311499e+02  -1.486423e+01
   1.734136e+02  -1.183274e+00
   4.997520e+01   1.624825e+02
  -1.416061e+02   1.343509e+02
  -1.692436e+02  -1.355975e+02
   1.045327e+01  -2.116752e+02
   2.003021e+02  -3.562062e+01
   1.490149e+02   2.535757e+02
  -7.443490e+01   3.297375e+02
  -2.505714e+02   2.489375e+02
  -3.737146e+02  -7.797564e+01
  -3.001501e+02  -2.039220e+02
  -9.650084e+01  -2.625459e+02
   1.385047e+02  -1.566577e+02
   1.680394e+02   5.898382e+01
   4.478128e+01   4.815175e+01
  -3.448792e+01  -7.431060e+00
  -1.512891e+00  -1.517481e+02
   1.326929e+02  -8.598269e+01
   1.527614e+02   3.986098e+01
   8.781469e+01   1.515577e+02
  -8.247550e+01   2.055459e+00
  -6.906796e+01  -1.123495e+02
   1.410346e+02  -1.033076e+02
   2.968776e+02  -1.798720e+01
   2.393233e+02   1.699615e+02
   4.865198e+01   2.348280e+02
  -2.358519e+02   2.563803e+02
  -2.620379e+02   1.258666e+02
  -1.621357e+02  -2.873628e+01
   8.212307e+01  -8.817054e+01
   1.017182e+02  -2.478806e+01
  -8.255730e+01   1.197245e+02
  -2.269855e+02   9.118454e+01
  -1.911590e+02  -1.336848e+02
  -7.306086e+01  -1.700077e+02
   1.091651e+02  -1.894926e+02
   7.168515e+01   1.525568e+01
   1.370339e+02   7.571874e+01
   3.224936e+01   2.453867e-02
  -3.189268e+01  -5.875625e+01
   1.823425e+01  -1.180170e+02
   1.681624e+02  -6.596066e+01
   1.974942e+02   8.257803e+01
   3.266452e+01   1.876898e+02
  -1.650729e+02   1.800456e+02
  -1.923089e+02   1.106536e+01
  -6.712387e+01  -1.195267e+02
   9.251026e+01  -7.582423e+01
   7.602201e+01  -1.479389e+01
  -7.885165e+00   2.082988e+01
  -8.301633e+01   3.395052e+01
   8.206412e+00   9.997845e+00
   6.692042e+01   3.258551e+01
   1.298096e+02   1.282799e+02
   3.938585e+01   2.173363e+02
  -1.615470e+02   1.460199e+02
  -2.819652e+02   6.285319e+01
  -2.610313e+02  -1.190955e+02
  -9.377499e+01  -2.447837e+02
   6.348855e+01  -1.983820e+02
   1.542125e+02   2.162639e+00
   5.356945e+01   8.450355e+01
   5.183514e+01   4.574343e+01
   9.253443e+01   1.549125e+01
   1.217478e+02   1.831711e+01
   6.990605e+01  -6.332858e+00
  -4.458500e+01   8.207946e+01
  -9.229087e+01   3.923057e+01
  -7.796308e+01  -4.519903e+01
   3.750140e+01  -1.146258e+02
   1.366621e+02  -1.131394e+02
   1.739332e+02   1.955879e+00
   1.040467e+02   1.891723e+02
  -1.772132e+02   2.003076e+02
  -3.313449e+02   7.752675e+01
  -2.930601e+02  -1.231511e+02
  -1.598619e+02  -1.843520e+02
   1.041059e+02  -1.664385e+02
   8.689740e+01  -7.124903e+01
   5.890841e+01  -6.463514e+01
   8.832696e+01  -7.117689e+01
   1.126174e+02  -7.377983e+01
   1.643003e+02   4.048534e+01
   1.492681e+02   1.029245e+02
   7.139307e+01   1.797370e+02
  -1.282280e+02   2.024394e+02
  -1.273408e+02   8.154887e+01
  -1.710798e+02  -1.188102e+02
   4.204669e+00  -1.835900e+02
   1.064903e+02  -1.459158e+02
   7.219373e+01  -2.228243e+01
  -2.474231e+01   4.269470e+01
  -2.423654e+01   1.029918e+02
   1.486740e+01   4.815691e+01
   9.157195e+01   5.087225e-01
   6.933383e+01   1.688605e+01
  -1.164722e+02   6.728052e+01
  -1.804172e+02  -3.483107e+01
  -1.864003e+02  -9.124658e+01
  -5.033739e+01  -1.595676e+02
   1.343533e+02  -1.178337e+02
   1.414971e+02  -8.791983e+01
   9.980176e+01   3.344431e+01
  -4.707948e+01   5.595667e+01
  -3.239303e+01  -2.639678e+00
   1.123669e+01  -4.178642e+01
   2.193253e+01  -8.749935e+01
   9.861719e+01  -4.926219e+01
   2.701841e+01   4.552268e+01
   6.579293e+01   3.198236e+01
   4.255508e+01  -1.453709e+01
   4.963183e+01   4.025324e+01
   2.842816e+01   3.999108e+01
  -2.283030e+01   1.609111e+02
  -1.562017e+02   1.801995e+02
  -1.827966e+02   1.910217e+01
  -1.157175e+02  -1.241072e+02
   1.213854e+01  -8.038487e+01
   5.500288e+01  -7.106889e+01
   6.709657e+01   6.751919e+01
  -8.602225e+01  -2.394060e+01
  -1.607720e+02  -1.668627e+01
  -6.022453e+01  -8.413470e+01
   6.293758e+01  -1.747931e+02
   1.994419e+02  -6.554494e+01
   1.519098e+02   2.668885e+01
   3.524982e+01   1.078470e+02
  -7.778033e+01   9.341178e+01
  -5.149090e+00   2.768745e+01
   1.303799e+01  -7.759754e+00
   6.853817e+01   6.930089e+01
   2.646785e+01   8.343437e+01
  -6.981183e+01   1.679695e+02
  -1.834437e+02   7.113125e+01
  -1.098152e+02  -7.266050e+01
  -2.702859e+01  -1.838309e+02
   6.130193e+01  -1.187460e+02
   1.162300e+02   6.899414e+01
   9.832005e+01   8.538422e+01
   6.249805e-01   4.017165e+01
  -4.071209e+01   2.634499e+01
  -5.732088e+01   8.017937e+00
  -5.489643e+00  -6.424388e+01
   2.388316e+01   5.928552e+01
  -6.289874e+01   1.433137e+01
  -2.481642e+01  -1.145509e+02
  -1.425292e+01  -1.033982e+02
   3.506952e+01  -6.311055e+01
   1.102919e+02  -8.968222e+00
   1.302727e+02  -1.769293e+01
   5.685725e+01   5.837983e+01
  -7.600210e+01   3.840968e+01
  -8.255733e+01   4.017193e+01
  -1.685055e+01   2.033894e+01
   1.948347e+01  -1.101668e+01
  -3.599324e+00   5.787590e+00
  -1.663877e+01   7.228425e+00
   5.844414e+00   2.080545e+01
   9.730701e+01   2.899706e+00
   9.948368e+01   7.223384e+00
   4.520353e+01   9.025160e+01
  -4.595058e+01   1.125696e+02
  -1.897819e+02   3.144130e+01
  -1.372888e+02  -6.044067e+01
  -2.143202e+01  -1.491700e+02
   9.365569e+01  -1.538382e+02
   1.204839e+02  -7.007533e+01
   4.927496e+01   5.778300e+00
   3.550735e+01   6.567973e+01
  -4.488848e+01  -2.197218e+00
   3.914167e+01   7.588096e+00
   4.822904e+01   4.888068e+01
   5.173413e+00   4.753130e+01
  -5.657156e+01   1.035871e+02
  -8.227393e+01  -1.930387e+01
  -4.308307e+01  -7.524542e+01
   3.309727e+01  -1.040549e+02
   6.650219e+01  -1.801716e+01
   1.536853e+02   4.342486e+01
   1.651408e+01   5.576854e+01
  -9.656133e+01   9.016202e+01
  -1.441164e+02  -1.134049e+01
  -2.559758e+01  -7.013469e+01
   3.047273e+01  -3.252692e+01
   2.259253e+01   5.033199e-01
  -6.455917e+01   7.792466e+00
  -6.595071e+01   4.579601e+01
  -5.393371e+01  -2.388886e+01
   3.970179e+01  -4.913374e+01
   1.160204e+02  -5.526018e+01
   4.175830e+01   2.763945e+01
  -6.451495e+01   6.991685e+01
  -3.945918e+01   4.895669e+01
  -5.822845e+01   8.134461e+00
  -2.487110e+01  -8.865279e+01
   3.339818e+01  -5.869355e+01
   6.976366e+01   4.613466e+01
   5.450723e+01   8.823728e+01
   3.990020e+01   6.147532e+01
  -4.206021e+01  -6.034857e+00
  -6.135754e+01  -1.106643e+01
  -6.348157e+01  -1.083979e+01
  -1.386973e+00  -6.968931e+00
  -4.958979e+00  -3.250798e+01
   6.722687e+00  -6.353828e+01
   3.807883e+01  -9.689717e+01
   4.089232e+01  -1.120242e+01
   5.874899e+01   1.099653e+01
  -3.441734e+00  -8.087619e+00
  -4.103512e+01   5.704429e+01
  -3.784696e+01  -3.498744e+01
   1.115406e+01  -5.509318e+01
   7.540914e+01  -4.476066e+01
   7.844507e+01   1.627682e+01
   5.189455e+01   7.005247e+01
  -3.401609e+01   6.145274e+01
  -5.896680e+01   3.769468e+01
  -3.875897e+00   1.366791e+01
   1.272601e+01   5.390037e+01
  -3.983812e+01   3.648576e+01
  -3.836542e+01   2.156319e+01
  -4.045956e+01   5.176398e+00
