
 $NMID
 id='ANONYMOUS ', fmtdat='(2E16.6)'
 volume=1.0
 tramp=1.0
 $END
   4.644242e+03  -2.439837e+01
   2.711854e+03   2.853800e+03
  -8.376106e+02   3.024148e+03
  -2.272795e+03   9.295003e+02
  -9.974823e+02  -8.220461e+02
   7.880919e+02  -6.273403e+02
   9.987795e+02   4.786486e+02
  -5.064336e+01   1.125230e+03
  -9.043473e+02   8.613731e+02
  -1.033107e+03  -1.302225e+02
  -4.734499e+02  -9.672285e+02
   3.362294e+02  -9.228271e+02
   7.299878e+02  -1.198442e+02
   4.572224e+02   8.283568e+02
  -3.379364e+02   8.134382e+02
  -6.136535e+02   3.675703e+00
  -2.660430e+02  -7.348782e+02
   3.103866e+02  -6.637509e+02
   6.329028e+02  -7.332813e+01
   4.392597e+02   3.706582e+02
  -3.987364e+01   4.590807e+02
  -2.571399e+02   2.518230e+02
  -2.768195e+02   2.837702e+01
   1.085733e+02  -8.835439e+01
   4.062601e+02   1.275165e+02
   2.370904e+02   4.905873e+02
  -4.594338e+02   4.539345e+02
  -8.939093e+02  -9.416302e+01
  -5.054591e+02  -5.934673e+02
   4.274165e+02  -5.411369e+02
   7.956708e+02   2.887653e+01
   3.935729e+02   4.976742e+02
  -3.336494e+02   4.924548e+02
  -6.169676e+02   2.440493e+02
  -5.025624e+02  -2.545811e+02
  -7.078644e+01  -4.857789e+02
   2.117338e+02  -2.743127e+02
   2.273914e+02   2.445831e+02
  -1.255219e+02   5.140665e+02
  -5.525973e+02   2.027520e+01
  -2.539246e+02  -7.486335e+02
   3.706352e+02  -7.796115e+02
   6.606129e+02  -5.477351e+01
   2.946335e+02   6.258064e+02
  -3.205573e+02   3.325194e+02
  -4.338414e+02  -3.290929e+02
   7.567872e+01  -5.999937e+02
   5.663243e+02  -1.287713e+02
   5.653936e+02   4.455562e+02
   2.340318e+02   6.618513e+02
  -4.049152e+02   3.501089e+02
  -6.289382e+02  -9.041670e+01
  -4.407037e+02  -4.246108e+02
   2.073199e+02  -3.931948e+02
   5.424851e+02  -9.408599e+01
   2.716439e+02   2.234497e+02
  -1.295246e+02   1.466733e+02
  -1.491788e+02  -2.023381e+02
   1.726436e+02  -2.612447e+02
   3.633319e+02   7.675132e+01
   1.499495e+02   2.658228e+02
  -2.388086e+02   2.616562e+02
  -2.875167e+02   5.907788e+01
  -2.180277e+02  -1.123651e+02
   2.115931e+00  -1.713268e+02
   2.380871e+02  -3.487503e+02
   3.340113e+02  -2.924840e+02
   3.051446e+02   1.711189e+02
   1.170095e+02   4.815507e+02
  -6.795194e+01   4.131420e+02
  -1.506598e+02   1.257393e+02
   3.218736e+01  -3.924474e+01
  -8.935488e+01   1.070906e+02
  -1.675663e+02   1.593979e+02
  -3.157200e+02  -3.648753e+01
  -1.868923e+02  -2.423443e+02
   1.230206e+02  -2.880478e+02
   2.437464e+02  -1.525119e+00
   1.924568e+02   2.453937e+02
  -2.971929e+01   2.956750e+02
  -2.547936e+02   1.338725e+02
  -3.386239e+02  -1.386721e+02
  -1.508098e+02  -4.443002e+02
   5.620640e+01  -3.579201e+02
   2.784048e+02  -1.004596e+02
   1.110543e+02  -4.431894e+01
   6.580150e+01  -3.158794e+01
   2.395319e+02  -5.052575e+01
   4.127154e+02   9.898719e+01
   3.587213e+02   2.493054e+02
  -1.801153e+01   4.258349e+02
  -3.522738e+02   4.325919e+02
  -4.869705e+02   2.403275e+02
  -3.826132e+02  -6.056657e+01
  -4.766373e+01  -3.196170e+02
   1.641240e+02  -2.760302e+02
   1.565405e+02  -3.315712e+01
  -1.243686e+02   1.231366e+02
  -1.902058e+02   2.820927e+01
  -7.701180e+01  -2.701656e+02
   1.578209e+02  -1.534991e+02
   1.805476e+02   2.615867e+01
  -7.140164e+01   2.555002e+02
  -1.947064e+02   5.592559e+01
  -1.898401e+02  -2.551074e+02
  -1.248382e+01  -3.525381e+02
   2.373348e+02  -1.633139e+02
   3.339816e+02   7.187771e+01
   2.501795e+02   2.931718e+02
   1.306749e+02   3.042491e+02
  -1.315052e+02   2.321627e+02
  -1.647648e+02   3.689471e+01
  -5.758621e+01  -1.396532e+01
   9.673850e+01   1.383280e+01
   4.618095e+01   1.091644e+02
  -1.439148e+02   1.064809e+02
  -1.703300e+02   5.349436e+01
  -8.914333e+01  -6.952413e+01
   1.042425e+02  -5.477334e+01
   4.681183e+01   8.810384e+01
  -1.142154e+02   9.487757e+01
  -2.543393e+02  -4.786379e+01
  -2.410981e+02  -1.341036e+02
  -7.678491e+01  -2.942794e+02
   1.795173e+02  -2.452659e+02
   2.732595e+02  -9.484942e+01
   1.967836e+02   7.453267e+01
  -4.878098e+01   1.075521e+02
  -9.797989e+01   1.538828e+01
   1.357701e+01  -8.048020e+01
   2.095657e+02  -8.828906e+01
   2.783819e+02   1.686001e+02
   1.468612e+02   2.319517e+02
  -6.473567e+01   1.496508e+02
  -1.321458e+02  -2.413173e+01
  -9.031111e+01  -1.300468e+01
  -5.736415e+00   5.117963e+00
   5.762778e+01   9.933450e+01
  -5.946714e+01   1.192080e+02
  -2.136894e+02   3.725553e+01
  -2.263017e+02  -1.693142e+02
  -5.016083e+01  -2.078291e+02
   1.431519e+02  -1.910056e+02
   2.103370e+02   1.618689e+01
   2.629379e+01   1.492254e+02
  -5.749401e+01   8.692774e+01
  -6.052756e+01   1.120860e+01
  -4.433181e+00  -2.106539e+01
   5.780035e+01  -6.676072e+00
  -1.441776e+01  -9.168168e+00
  -1.057611e+02  -3.764655e+01
  -7.695621e+01  -8.203524e+01
  -7.813973e+00  -1.941222e+02
   1.698632e+02  -1.523009e+02
   2.129934e+02  -2.935250e+01
   1.949336e+02   1.261278e+02
   6.228174e+01   2.422705e+02
  -1.184545e+02   1.728297e+02
  -8.907525e+01   2.909020e+01
  -1.115775e+02   1.282683e+00
  -5.716482e+01  -5.985937e+01
  -1.198210e+01   5.654521e+01
  -7.032887e+01   2.684222e+01
  -2.969995e+01  -1.215189e+02
   3.052857e+01  -7.684565e+01
   1.528594e+02  -1.486558e+00
   1.330151e+02   5.079989e+01
  -6.757438e+01   1.432510e+02
  -1.292808e+02   7.538229e+01
  -2.078655e+02   2.994928e+01
  -8.762778e+01  -2.248342e+02
   8.327215e+01  -2.594326e+02
   3.014248e+02  -1.144663e+02
   2.989649e+02   1.155415e+02
   1.427593e+02   1.781721e+02
  -4.826859e+01   8.078514e+01
  -8.830152e+01   1.239521e+02
  -9.572173e+01   1.621336e+01
  -4.889450e+01   1.188259e+02
  -6.989559e+01   4.834493e+01
  -1.415225e+02  -4.150857e+01
  -1.322249e+02  -1.808157e+02
  -5.185475e+01  -2.210849e+02
   1.218999e+02  -1.457112e+02
   1.778721e+02  -1.823863e+01
   1.554954e+02   1.082972e+02
   1.794456e+01   1.533104e+02
  -9.357136e+01   6.154401e+01
  -4.686649e+01  -4.475517e+00
  -3.724175e+01  -5.640315e+01
   5.217973e+01   1.715898e+01
  -7.409187e+01  -1.021746e+01
  -6.014017e+01  -4.685622e+01
  -1.228419e+02  -2.244456e+01
   2.637370e+01   2.716772e+01
   9.203496e+01  -2.612799e+01
   1.714175e+02   1.520907e+01
   1.104295e+01   7.147467e+01
  -1.039373e+02   5.168030e+01
  -1.395529e+02   6.056575e+01
  -4.883547e+01  -3.811152e+01
   9.508283e+01  -7.374135e+01
   7.058097e+01   6.886351e+00
  -1.702637e+01   7.696469e+01
  -5.063763e+01   7.854305e+01
  -2.324376e+01   6.011071e+00
  -1.467451e+01  -9.372421e-01
  -1.883536e+01  -6.418523e+01
  -7.760614e+01   3.349385e+00
  -1.057004e+02   2.234194e+01
  -8.552337e+01  -7.957710e+01
   3.371629e+01  -1.590229e+02
   1.316119e+02  -1.306281e+02
   1.552061e+02  -5.339673e-01
   1.430413e+02   1.053930e+02
   1.762666e+01   1.182395e+02
  -6.008139e+01   6.192616e+01
  -1.914383e+01  -2.918500e+01
   4.266452e+01  -1.211029e+01
   8.458681e+01   4.759821e+01
   6.864871e+01   1.335927e+02
  -4.966704e+01   1.142214e+02
  -1.936681e+02   4.042610e+01
  -1.903526e+02  -4.992548e+01
   2.137991e+01  -1.022482e+02
   6.428925e+01  -5.413347e+01
  -1.459509e+01  -2.662961e+01
  -4.404190e+01   4.473947e+01
  -3.639645e+01  -4.900149e+01
  -4.670027e+01  -1.016110e+02
   1.029771e+02  -1.496643e+02
   1.228728e+02  -2.638812e+01
   1.592622e+02   5.677882e+01
   2.634579e+00   2.806405e+02
  -6.611174e+01   1.982033e+02
  -7.750129e+01  -8.949947e+01
  -7.539947e+01  -5.941638e+01
   4.490628e-01  -1.232062e+02
   2.771955e+01  -5.059470e+01
   5.565495e+01   2.913320e+01
   6.005716e+00  -4.736810e+00
  -1.277700e+00  -1.763536e+01
   2.168252e+01   8.811388e+01
   5.217396e+01   7.433731e+01
   1.353645e+01   9.985697e+01
  -2.353860e+01   2.330688e+01
  -1.398249e+02  -3.700265e+01
  -1.633168e+02  -8.107248e+01
  -2.339056e+01  -5.904108e+01
   1.147074e+02   1.415974e+01
   1.297594e+02   4.782785e+01
  -3.420594e+00   3.907646e+01
  -8.231944e+01  -2.503409e+01
  -3.327653e+01   5.676547e-01
  -2.654543e+01  -1.183602e+01
   2.668088e+01   3.847546e+01
  -1.132298e+02  -4.116438e+01
  -6.319699e+01   1.739745e+00
  -1.823657e+01  -9.663920e+01
   1.133543e+02  -1.033834e+02
   1.541233e+02  -9.354715e+01
   1.385289e+02   9.382491e+01
   5.492387e+01   1.453174e+02
  -1.031224e+02   1.449960e+02
  -5.336232e+01   5.121837e+00
  -7.636219e+01  -3.642395e+01
  -2.370580e+01  -1.082278e+02
  -1.763224e+01   9.691456e+00
   2.814881e+01  -2.480440e+01
  -3.251145e+01  -1.009754e+01
  -4.534432e+01  -1.186940e+02
  -1.340379e+01  -6.855043e+01
   7.975483e+01   4.037934e+01
   1.083626e+02   1.428574e+02
   6.115178e+01   1.106150e+02
  -4.499304e+01   2.664435e+01
  -7.751270e+01  -1.202869e+02
   1.763097e+01  -1.010586e+02
   1.236431e+02  -3.320964e+01
   1.236352e+02   1.667111e+01
   4.292035e+01   9.796256e+01
  -5.829383e+01   6.866070e+01
  -4.518482e+01   4.672465e+01
   4.672301e+01   2.240148e+01
   7.024754e+01  -9.017889e-01
   2.366199e+01   3.395193e+01
  -2.444756e+01   6.877893e+01
  -1.761053e+02   8.874790e+01
  -9.062537e+01  -7.441495e+01
  -9.531658e+00  -5.016274e+01
   8.523428e+00  -9.849596e+01
   6.413822e+01  -4.171592e+01
   5.343876e+00   4.420191e+01
  -9.955591e+01   3.833422e+01
  -2.035466e+01  -3.054257e+01
   1.790022e+01   7.646894e+00
  -3.073412e+00   1.351888e+01
   1.395088e+01   2.825924e+01
   3.077318e+01   3.358900e+01
   9.234238e+00   8.236292e+00
   1.802424e+01   3.659517e+01
  -2.360168e+01  -2.610592e+01
  -2.886342e+00   8.508411e+00
  -3.401721e+01   9.313521e+01
  -1.523695e+01  -2.499870e+01
  -1.027754e+01  -4.773972e+01
  -3.729447e+00  -4.514268e+01
   6.887226e+01  -9.344242e+00
   9.482624e+01   6.167923e+01
   5.343201e+00   2.805300e+01
  -2.216559e+01   3.483171e+01
  -5.508639e+01  -6.946332e-02
  -3.786356e+01  -4.752398e+01
   8.917174e+00  -6.152397e+00
   5.053811e+01   3.813743e+00
   4.576962e+01  -3.386251e+01
  -5.369580e+01   8.739846e+00
  -4.665295e+01   1.378589e+01
  -1.858102e+01  -1.693963e+01
   1.239636e+02  -1.260884e+01
