
 $NMID
 id='ANONYMOUS ', fmtdat='(2E16.6)'
 volume=1.0
 tramp=1.0
 $END
   4.068077e+03   8.569843e+00
   2.442275e+03   2.323341e+03
  -5.031084e+02   2.566370e+03
  -1.902336e+03   1.041536e+03
  -9.695259e+02  -3.534370e+02
   4.576838e+02  -4.081577e+02
   7.208051e+02   3.555794e+02
  -3.535520e+01   9.494716e+02
  -7.573334e+02   7.184501e+02
  -8.639598e+02  -8.469427e+01
  -4.327019e+02  -8.356457e+02
   1.990928e+02  -7.806065e+02
   5.439530e+02  -1.175224e+02
   3.434400e+02   6.007023e+02
  -2.828158e+02   6.273733e+02
  -5.638322e+02  -4.343874e+00
  -2.970259e+02  -5.736732e+02
   2.539666e+02  -6.411751e+02
   5.496305e+02  -1.561257e+02
   4.088198e+02   2.978103e+02
   9.194818e+01   4.514556e+02
  -2.265561e+02   2.650155e+02
  -1.340578e+02  -6.773229e+00
   1.472407e+02  -2.532613e+01
   3.294029e+02   1.931766e+02
   1.047475e+02   4.183098e+02
  -4.684384e+02   3.202276e+02
  -7.583802e+02  -8.471194e+01
  -3.550947e+02  -5.192418e+02
   3.652017e+02  -4.184533e+02
   7.121888e+02   4.388581e+01
   2.922294e+02   4.464061e+02
  -3.105116e+02   4.843827e+02
  -4.962339e+02   1.633838e+02
  -4.016524e+02  -1.987613e+02
  -4.693846e+01  -4.609663e+02
   1.052763e+02  -2.418643e+02
   8.956676e+01   2.018097e+02
  -1.795296e+02   3.690308e+02
  -3.617086e+02  -1.457932e+02
  -1.750469e+02  -6.317804e+02
   2.770875e+02  -5.816038e+02
   5.345084e+02  -1.847065e+01
   2.232847e+02   4.951534e+02
  -2.791806e+02   2.756627e+02
  -3.363818e+02  -2.900893e+02
   1.134930e+01  -5.381946e+02
   4.745272e+02  -1.047015e+02
   5.306754e+02   4.016080e+02
   2.173643e+02   5.044883e+02
  -3.214063e+02   3.238262e+02
  -6.473168e+02  -5.194918e+01
  -3.663469e+02  -3.705971e+02
   1.438655e+02  -2.961412e+02
   3.736253e+02  -8.597607e+01
   2.576431e+02   2.185967e+02
  -3.998684e+01   6.276363e+01
  -1.480308e+02  -1.429757e+02
   1.424760e+02  -1.254966e+02
   2.963476e+02   7.979500e+01
   1.411988e+02   2.815233e+02
  -2.669089e+02   2.709010e+02
  -3.701659e+02   1.167180e+02
  -2.465127e+02  -8.887485e+01
   3.003135e+01  -3.011154e+02
   2.917538e+02  -2.814116e+02
   3.399006e+02  -2.211141e+02
   2.547797e+02   1.675076e+02
   1.292020e+02   4.811191e+02
  -9.700921e+01   3.928201e+02
  -8.998323e+01   6.500864e+01
   2.488505e+01   3.382543e+01
  -8.813547e+01   1.399757e+02
  -2.306741e+02   1.402034e+02
  -2.547906e+02  -7.303732e+01
  -1.558715e+02  -2.073899e+02
   7.393253e+01  -2.302401e+02
   1.805000e+02  -3.181325e+01
   1.997229e+02   2.537711e+02
  -8.395919e+01   3.072823e+02
  -2.609870e+02   8.066806e+01
  -3.488290e+02  -1.785286e+02
  -1.937729e+02  -2.934557e+02
   6.506457e+01  -2.525947e+02
   2.066769e+02  -1.044508e+02
   1.771698e+02  -2.565654e+01
   1.189167e+02  -3.244507e+01
   2.460322e+02  -9.099328e+01
   3.615115e+02   8.172516e+01
   3.144209e+02   3.070626e+02
   1.033474e+01   4.405150e+02
  -3.510975e+02   4.045681e+02
  -5.013725e+02   2.141309e+02
  -3.165821e+02  -1.043010e+02
  -2.730501e+01  -3.517436e+02
   1.377915e+02  -2.913164e+02
   4.864046e+01  -7.833440e+01
  -5.596961e+01   8.805948e+01
  -2.082258e+02   1.584318e+00
  -5.705558e+01  -1.977095e+02
   1.493397e+02  -1.131546e+02
   1.210717e+02   8.550524e+01
  -1.949452e+01   1.782393e+02
  -2.048184e+02   4.691926e+01
  -1.978364e+02  -2.558275e+02
   1.743830e+01  -3.446837e+02
   2.248248e+02  -2.753550e+02
   3.054574e+02   4.674617e+01
   2.958065e+02   2.610124e+02
   9.874181e+01   3.082435e+02
  -1.319839e+02   1.731458e+02
  -1.774210e+02   3.285437e-01
  -2.499727e+01   7.329300e+00
   1.159827e+02   4.978889e+01
  -9.576215e+00   9.374793e+01
  -1.586927e+02   4.332224e+01
  -2.034450e+02  -3.062039e+01
  -3.301829e+01  -9.494075e+01
   1.035903e+02   1.770398e+01
   2.871814e+01   7.642794e+01
  -1.231225e+02   1.190996e+02
  -2.972353e+02   1.144084e+01
  -2.475160e+02  -2.020661e+02
  -1.561122e+01  -2.527027e+02
   1.550563e+02  -2.469937e+02
   2.674233e+02  -1.582233e+02
   1.881532e+02   4.613398e+01
  -3.793185e+01   9.579256e+01
  -1.062256e+02   2.469748e+01
   5.930691e+01  -8.354641e+01
   2.127247e+02  -8.392692e+01
   2.184312e+02   1.015923e+02
   8.832971e+01   2.181996e+02
  -9.389223e+01   1.139572e+02
  -2.253586e+02   1.052243e+01
  -6.208120e+01  -1.617627e+01
   6.699693e+01   9.080196e+00
   3.308304e+01   1.374487e+02
  -1.052674e+02   1.262597e+02
  -2.261966e+02   1.176079e+01
  -2.361705e+02  -1.426286e+02
  -5.506960e+01  -2.556677e+02
   1.836392e+02  -1.295887e+02
   1.923037e+02   4.443623e+01
   3.924926e+01   1.631347e+02
  -3.580316e+01   1.338831e+02
  -3.078113e+01   2.563774e+01
  -4.144059e+01   3.825974e+01
   6.193242e+01  -6.718665e+01
   8.408162e+00  -3.830330e+01
  -1.177646e+02  -1.813132e+01
  -1.026852e+02  -9.611026e+01
  -9.225352e+00  -2.142204e+02
   1.471143e+02  -1.670477e+02
   2.793810e+02  -2.917314e+01
   2.074042e+02   1.387910e+02
   3.041198e+01   2.584884e+02
  -1.091485e+02   1.532689e+02
  -1.277393e+02   1.253437e+01
  -5.197811e+01   3.313344e+00
  -2.815684e+01  -1.887941e+01
  -3.269919e+01  -9.562939e+00
  -1.065236e+02   9.145848e+00
  -1.568842e+01  -1.763687e+01
   1.149707e+02  -9.800310e+01
   1.451972e+02  -7.996374e+01
   8.207183e+01   2.927776e+01
  -8.345153e+00   1.061718e+02
  -1.283028e+02   1.011770e+02
  -2.482184e+02  -8.002481e+01
  -7.444142e+01  -2.004345e+02
   1.033102e+02  -2.212216e+02
   2.867080e+02  -1.108003e+02
   3.076012e+02   9.250960e+01
   1.405580e+02   1.377743e+02
   2.383726e+01   1.494810e+02
  -7.142353e+01   8.334417e+01
  -6.303626e+01   1.039540e+02
  -8.470978e+01   8.635947e+01
  -9.904840e+01   6.552041e+01
  -1.761301e+02  -1.448948e+01
  -8.925880e+01  -1.040277e+02
  -9.054318e+01  -2.664392e+02
   8.295164e+01  -1.897402e+02
   1.520468e+02  -4.341168e+01
   1.469504e+02   9.747092e+01
   5.558785e+00   1.533409e+02
  -9.957901e+01   1.164037e+02
  -4.124764e+01   3.440580e+00
   1.871804e+01   2.036545e+00
   1.194012e+01  -4.561836e+01
  -2.878524e+01  -2.009410e+01
  -9.009542e+01  -1.210522e+01
   3.812310e+00  -3.707689e+01
   5.885854e+01  -4.673677e+01
   1.611329e+02   7.697341e+00
   1.685501e+02   5.310635e+01
   1.537671e+01   6.202285e+01
  -1.218920e+02   4.308991e+01
  -1.341859e+02   4.003733e+00
  -5.799346e+01   5.595055e+00
   6.265567e+01  -6.304019e+01
   1.042876e+02   3.003296e+01
   6.046450e+01   8.943779e+01
  -3.591769e+01   1.013816e+02
   3.322713e+00   1.300302e+01
  -2.937769e+01  -8.434288e+01
  -3.916002e+01  -1.643309e+01
  -1.259758e+01   2.042996e+01
  -6.012064e+01   5.782859e+00
  -9.060370e-01  -4.033074e+01
   3.969999e+01  -1.483142e+02
   9.709399e+01  -1.487992e+02
   1.879812e+02  -2.225949e+01
   1.555167e+02   8.545862e+01
  -2.934867e+00   7.903820e+01
  -1.226792e+02   7.294102e+01
  -8.664197e+01  -2.811784e+01
   8.372094e+01  -6.388686e+00
   1.524634e+02   3.250388e+01
   5.992315e+01   8.984634e+01
  -5.444034e+01   1.228544e+02
  -1.994334e+02   8.018978e+01
  -1.356810e+02  -4.985206e+01
  -7.076540e+01  -9.801967e+01
   1.545060e+01  -8.606936e+01
   3.970496e+01   1.810475e+01
  -4.511056e+01   2.607073e+01
  -1.619840e+02  -4.358911e+01
  -4.457882e+01  -1.052533e+02
   7.930060e+01  -1.657309e+02
   1.735269e+02  -9.642974e+01
   1.806030e+02   8.601135e+01
   2.131313e+01   1.393455e+02
  -7.328653e+01   2.053056e+02
  -1.090454e+02  -1.888824e+01
  -7.650425e+01  -7.481024e+01
  -3.589092e+01  -1.422151e+02
   9.691631e+01  -2.331689e+01
   4.391796e+01   5.075284e+01
  -3.411734e+01   2.155108e+01
  -3.080388e+01  -3.690931e+00
   1.581926e+01   3.352868e+01
   3.374909e+01   8.251737e+01
   7.028747e+00   1.148069e+02
  -2.231827e+01  -4.731453e+00
  -1.360656e+02   2.821314e+01
  -1.139195e+02  -8.717554e+01
  -4.187980e+01  -5.465964e+01
   1.034817e+02  -1.578078e+01
   8.454110e+01  -1.968704e+01
  -2.062606e+01   4.585738e+01
   2.052258e+01   1.473459e+00
   8.703605e+00  -3.580271e+01
   1.772344e+01   1.933488e+00
  -3.872618e+01  -1.239196e+01
  -8.359752e+01   2.432338e+01
  -4.265366e+01  -4.125308e+01
   5.660644e+01  -1.173824e+01
   1.174608e+02  -1.274535e+02
   2.014388e+02  -6.569692e+01
   1.534134e+02   4.969388e+01
  -2.804659e+01   1.514254e+02
  -5.623068e+01   1.077583e+02
  -8.590861e+01   6.219717e+01
  -9.150078e+01  -4.201477e+01
  -1.234422e+01  -2.975994e+01
   2.028453e+01  -4.159746e+01
  -2.456476e+01  -2.585921e+01
  -5.298874e+01  -3.739631e+01
  -2.391660e+01  -6.265989e+01
   5.285992e+01  -3.899363e+01
   4.415513e+01  -2.216146e+01
   8.934016e+01   1.666714e+02
   2.260006e+01   1.366783e+02
  -8.150272e+01   6.045553e+01
  -1.193027e+02  -7.441833e+01
  -9.517782e+01  -1.125949e+02
   8.173674e+01  -8.433969e+00
   7.910904e+01  -1.219213e+01
   3.977336e+01   4.226931e+01
   2.780648e+01   1.002787e+02
  -2.389555e+00   4.730705e+01
   3.058410e+01   3.981668e+00
   5.891324e+00   6.349639e+00
   2.859166e+01  -4.735173e+00
  -3.809957e+01   3.336501e+01
  -8.135197e+01   6.495482e+01
  -4.273255e+01   6.961382e+01
   1.395282e+01  -1.144526e+02
   1.069700e+02  -1.313288e+02
   8.879082e+01   2.062535e+01
  -5.245615e+01   8.893974e+01
  -3.298575e+01   3.581258e+01
  -3.247091e+01  -4.519857e+01
  -7.380676e+01  -3.690018e+01
   5.494446e+01  -4.054447e+01
   7.592395e+01  -3.219080e+00
   3.841157e+01   5.188951e+01
   2.676965e+00  -4.036229e+00
  -3.249518e+01   2.864295e-01
  -6.930874e+00  -2.235401e+01
   3.796833e+01   1.685715e+01
  -3.374660e+01   9.033581e+01
  -1.920606e+01   3.981289e+01
   2.437825e+00  -3.848082e+01
  -2.327461e+01  -4.954942e+01
   8.177789e+01  -1.077582e+01
   6.151305e+01   6.348530e+01
   1.194525e+01   6.324327e+01
  -5.678699e+01   5.055191e+01
  -1.029559e+02  -1.307956e+01
  -2.135024e+01  -2.923720e+01
   1.755602e+01  -3.071558e+01
   4.196585e+01  -1.708679e+01
   6.135178e+01  -2.923157e+01
  -4.822225e+01   6.091527e+01
  -4.805255e+01   6.052514e+00
   5.840808e+01   1.625158e+01
   7.875470e+01   1.778944e+01
