
 $NMID
 id='ANONYMOUS ', fmtdat='(2E16.6)'
 volume=1.0
 tramp=1.0
 $END
   4.325667e+03  -5.311096e+01
   2.582664e+03   2.565778e+03
  -7.124175e+02   2.740085e+03
  -2.055927e+03   9.321672e+02
  -1.021005e+03  -5.714483e+02
   6.132078e+02  -5.649683e+02
   9.458822e+02   3.742432e+02
  -1.319515e+01   1.091473e+03
  -8.615359e+02   7.751523e+02
  -9.386299e+02  -9.305061e+01
  -5.172293e+02  -8.736109e+02
   2.750129e+02  -9.348590e+02
   6.342584e+02  -1.063790e+02
   3.800505e+02   7.016385e+02
  -2.223559e+02   7.450501e+02
  -6.015807e+02  -4.011736e+01
  -2.558422e+02  -6.890560e+02
   3.527020e+02  -6.312181e+02
   5.342814e+02  -8.912916e+01
   4.299105e+02   3.855787e+02
  -3.686525e+01   5.017559e+02
  -2.697789e+02   2.219745e+02
  -2.316969e+02   6.153128e+01
   1.123901e+02  -1.426997e+02
   4.193731e+02   1.083644e+02
   2.194815e+02   4.276987e+02
  -4.606725e+02   3.612688e+02
  -8.816823e+02  -2.908018e+01
  -4.005765e+02  -5.277737e+02
   3.748812e+02  -4.176255e+02
   6.841846e+02   2.474848e+01
   3.041827e+02   4.447294e+02
  -2.316343e+02   5.097261e+02
  -5.579697e+02   2.192715e+02
  -4.269161e+02  -2.438664e+02
  -9.880921e+01  -4.246353e+02
   1.906458e+02  -2.754427e+02
   1.664213e+02   2.067668e+02
  -2.139606e+02   3.967655e+02
  -4.694634e+02  -1.459704e+01
  -2.246851e+02  -6.623888e+02
   3.430429e+02  -6.766480e+02
   5.718833e+02  -5.576870e+01
   2.186100e+02   5.655323e+02
  -2.849321e+02   3.211855e+02
  -3.678569e+02  -3.025168e+02
   4.074423e+01  -5.555947e+02
   5.432892e+02  -1.397989e+02
   5.712532e+02   4.204633e+02
   2.196923e+02   6.966671e+02
  -4.207429e+02   3.529070e+02
  -6.343082e+02  -4.816727e+01
  -3.803177e+02  -3.734894e+02
   1.952765e+02  -3.957460e+02
   4.742233e+02  -1.173368e+02
   2.665395e+02   2.160823e+02
  -1.065041e+02   1.517294e+02
  -2.328550e+02  -1.339673e+02
   1.535892e+02  -1.914653e+02
   3.851390e+02   5.436850e+01
   1.614420e+02   3.288910e+02
  -2.155233e+02   2.565819e+02
  -3.110818e+02   6.728474e+01
  -2.441965e+02  -2.876616e+01
   1.120480e+01  -2.109420e+02
   1.987113e+02  -3.878350e+02
   3.224947e+02  -2.168452e+02
   2.821048e+02   1.199997e+02
   6.801627e+01   4.501141e+02
  -8.654880e+01   3.976091e+02
  -1.508078e+02   1.907611e+02
  -4.186652e+01  -2.230685e+01
  -4.198586e+01   1.252579e+02
  -1.840198e+02   1.385904e+02
  -2.662300e+02  -3.555814e+01
  -1.509437e+02  -2.840461e+02
   4.526226e+01  -2.423197e+02
   1.935157e+02  -9.844180e+00
   2.155926e+02   2.377402e+02
   3.830340e+01   2.645856e+02
  -2.597237e+02   1.149534e+02
  -3.923707e+02  -1.338250e+02
  -2.086873e+02  -3.621945e+02
   1.770946e+02  -3.004978e+02
   1.805867e+02  -1.406557e+02
   1.745034e+02   1.616793e+00
   1.445724e+02  -3.612991e+01
   2.994520e+02  -9.032043e+01
   4.384035e+02   8.697397e+01
   3.354501e+02   2.695946e+02
  -1.216348e+01   4.364345e+02
  -3.682286e+02   3.861820e+02
  -4.745685e+02   2.150380e+02
  -3.106217e+02  -6.396348e+01
  -6.351022e+01  -2.657967e+02
   1.337877e+02  -2.305705e+02
   5.347203e+01  -7.301803e+00
  -1.219712e+02   5.426583e+01
  -2.048379e+02   5.731818e+00
  -5.504175e+01  -1.937305e+02
   9.699803e+01  -2.248387e+02
   1.572791e+02   3.391613e+01
  -1.335633e+01   1.607710e+02
  -1.862486e+02   3.024204e+01
  -1.890533e+02  -1.991776e+02
  -6.212076e-01  -3.603398e+02
   2.446204e+02  -1.909276e+02
   3.516935e+02   1.791787e+01
   2.656035e+02   2.467788e+02
   1.183613e+02   2.834823e+02
  -1.273557e+02   1.970634e+02
  -1.455151e+02   5.681071e+01
  -7.996817e+01  -1.586164e+01
   5.863795e+01   7.615912e+00
   1.848159e+01   1.486955e+02
  -1.398834e+02   1.139895e+02
  -1.725234e+02  -4.359412e+00
  -9.143472e+01  -6.252684e+01
   5.744227e+01  -3.468074e+01
   7.101185e+01   6.296294e+01
  -1.396912e+02   5.325338e+01
  -2.604230e+02  -6.752057e+00
  -2.755197e+02  -1.645476e+02
  -7.324906e+01  -2.107082e+02
   2.374074e+02  -2.481527e+02
   2.895395e+02  -1.430634e+02
   1.873387e+02   7.753013e+01
  -1.887328e+01   1.588567e+02
  -7.823462e+01  -5.700914e+01
   1.449158e+01  -1.010661e+02
   1.939116e+02  -8.724712e+01
   1.911755e+02   1.022405e+02
   7.073097e+01   1.668651e+02
  -7.630614e+01   1.759472e+02
  -2.108760e+02   2.328304e+01
   1.348489e+01   6.371958e+00
  -1.088663e+01  -4.893591e+01
  -1.074324e+01   1.228431e+02
  -7.715197e+01   1.673071e+02
  -2.159329e+02  -3.503827e+00
  -2.323698e+02  -1.623671e+02
  -7.450942e+01  -2.445565e+02
   1.244388e+02  -1.838096e+02
   1.840961e+02   1.490202e+01
   8.097627e+01   1.637741e+02
  -9.588522e+01   1.387333e+02
  -1.084936e+02   1.406203e+01
   2.003133e+01  -3.057542e+01
   9.719347e+00   2.204424e+01
  -2.551363e+01   5.270749e+01
  -1.223171e+02  -4.568502e+01
  -1.311584e+02  -6.585878e+01
   4.594260e+00  -1.602537e+02
   8.841036e+01  -2.017729e+02
   2.857671e+02  -2.113979e+01
   1.845820e+02   1.994187e+02
   4.152815e+01   2.910806e+02
  -1.199706e+02   1.965767e+02
  -9.130850e+01   1.691539e+01
  -5.503088e+01  -5.863420e+01
  -2.192223e+01   1.257923e+01
  -3.863172e+01   2.532676e+01
  -9.099190e+01   5.388300e+00
  -4.953101e+01  -8.285412e+01
   7.742017e+01  -8.674971e+01
   1.178001e+02  -5.659319e+01
   9.163172e+01  -7.506710e-01
   2.481289e+01   1.404710e+02
  -1.514543e+02   1.204606e+02
  -2.012711e+02  -3.640718e+01
  -6.956787e+01  -2.150326e+02
   1.577980e+02  -2.599497e+02
   2.810804e+02  -9.923248e+01
   3.004871e+02   7.932389e+01
   1.010749e+02   1.774702e+02
  -5.820321e+01   1.665779e+02
  -8.816252e+01   1.110172e+02
  -1.391462e+02   8.463282e+01
  -4.864089e+01   7.034479e+01
  -9.776971e+01   7.005786e+01
  -1.289069e+02  -3.171928e+00
  -7.966517e+01  -1.498394e+02
  -6.352288e+01  -1.984377e+02
   7.913793e+01  -1.382889e+02
   1.987091e+02  -1.356703e+01
   1.432497e+02   1.086144e+02
  -1.326037e-01   1.446020e+02
  -8.154482e+01   7.564064e+01
  -6.544105e+01   6.660027e+00
  -3.588382e+01  -8.215810e+00
  -2.851029e+01  -6.365989e+01
  -2.548797e+01  -1.627520e+01
  -9.537070e+01  -4.400366e+01
  -1.105463e+02  -2.663773e+01
   2.613181e+01  -8.031478e+01
   1.553798e+02  -4.646817e+01
   1.763157e+02   6.148479e+01
   2.654373e+01   1.375466e+02
  -1.277569e+02   3.873859e+01
  -1.400675e+02   4.225016e+00
  -4.004581e+01  -3.216392e+01
   8.494166e+01  -8.940668e+01
   2.816761e+01   4.835803e+01
  -4.174837e+01   8.412058e+01
  -3.363572e+01   5.608698e+01
  -9.186916e+01   1.342527e+00
  -6.737797e+01  -4.067292e+01
  -2.973323e+01  -7.913809e+01
  -6.204105e+01   1.841503e+01
  -7.609663e+01  -1.840624e+01
  -4.938504e+01  -6.193350e+01
   8.354196e+00  -1.453658e+02
   9.299380e+01  -1.193325e+02
   1.405943e+02  -3.010313e+01
   1.102436e+02   1.150854e+02
   3.605858e+01   1.452134e+02
  -8.503150e+01   5.683112e+01
  -3.547306e+01   3.711844e+00
   1.124328e+02   1.043376e+01
   1.318521e+02   7.328433e+01
   7.398919e+01   7.164312e+01
  -8.616536e+01   7.660179e+01
  -1.507101e+02   1.188984e+02
  -1.725590e+02   4.205166e+00
  -6.382165e+01  -6.929934e+01
   1.761502e+01  -9.775037e+01
   6.121622e+01   9.327400e+00
  -9.328396e+01   6.138896e-01
  -7.859107e+01  -3.211990e+01
  -2.801351e+01  -1.545717e+02
   6.333438e+01  -1.804805e+02
   1.528285e+02  -7.461967e+01
   1.712091e+02   9.781282e+01
   7.706841e+01   1.875193e+02
  -8.226892e+01   1.851283e+02
  -3.362311e+01  -1.988676e+01
  -8.250016e+01  -7.053698e+01
   5.268761e+01  -7.277378e+01
   7.180870e+01  -4.044435e+00
   7.029110e+01   7.113639e+01
   2.098023e+01   1.232335e+01
   4.020193e+00  -3.670735e+01
   6.504370e+01   3.029741e+00
   6.688951e+01   2.168878e+01
  -8.416434e+00   1.160134e+02
  -4.933053e+01   3.372624e+01
  -1.450377e+02  -3.341206e+01
  -1.170863e+02  -1.303706e+02
  -1.478132e+01  -7.097080e+01
   8.009195e+01  -5.244509e+01
   8.167455e+01  -2.755517e+01
   4.334491e+01   1.261281e+01
   1.313502e+01   6.973155e+01
   4.833137e+00   3.674431e+01
  -1.067004e+01  -4.820175e+00
   1.043961e+01  -4.508935e+00
  -1.272624e+02  -1.740539e+01
  -6.465133e+01  -6.403220e+01
  -3.508464e+01  -8.032574e+01
   1.080781e+02  -1.405284e+02
   1.869948e+02  -3.190811e+01
   1.516116e+02   7.788394e+01
  -2.537394e+01   6.269075e+01
  -1.134504e+02   1.366400e+02
  -1.152209e+02   1.138328e+02
  -1.004466e+02   8.901467e+00
  -3.080089e+01  -1.790490e+01
  -3.891048e+01  -1.080788e+01
  -4.333240e+01  -3.458368e+00
  -8.731016e+01  -3.498352e+01
  -3.126556e+01  -1.178763e+02
  -1.369202e+00  -3.118452e+01
   1.172244e+02   1.543102e+01
   7.760365e+01   1.027841e+02
  -9.123079e+00   8.059900e+01
  -5.840513e+01   3.673526e+01
  -5.655423e+01  -7.924543e+01
  -4.997001e+01  -1.171069e+02
   1.034869e+02  -4.479900e+01
   9.301600e+01  -3.143979e+00
   4.083428e+00   2.390829e+01
  -6.153596e+01   4.338509e+01
  -2.035896e+01  -2.037608e-01
   4.035964e+01   3.433107e+01
   3.275559e+01   3.577298e+01
   1.546995e+00   4.125455e+01
  -4.882817e+01   6.403682e+01
  -1.220983e+02   1.009703e+02
  -4.441299e+01  -2.479362e+01
   2.389864e+01  -5.913970e+01
   3.667803e+01  -1.350347e+02
   4.868289e+01  -2.568763e+01
  -2.181053e+01   6.835172e+01
  -4.835572e+01   4.118979e+01
  -3.132932e+01  -5.528526e+01
  -1.664682e+01  -7.319401e+01
   2.920095e+01   1.254784e+01
   1.910297e+01  -2.353956e+00
   4.387392e+01  -7.382691e+00
  -3.016003e+01  -3.350769e+00
   1.850337e+01  -1.364899e+01
   5.530496e+00   8.632622e+00
   1.155009e+01   3.624948e+01
  -2.822901e+01   3.743185e+01
  -3.709184e+01   5.576187e+00
  -2.843411e+01  -7.047737e+01
  -1.726806e+00  -7.272256e+01
   1.040096e+00  -5.671377e-01
   5.629650e+01   9.353261e+01
  -1.805304e+01   7.650367e+01
  -5.071871e+01   2.571932e+01
  -8.905399e+01   1.680716e+00
  -5.288842e+01  -5.285806e+01
   3.708280e+01  -7.445547e+01
   9.826300e+01  -1.394297e+01
   3.019184e+01  -2.152440e+01
  -6.878105e+01  -9.724384e+00
  -5.297862e+01   3.063472e+01
   3.377546e+01  -6.287843e+01
   1.079018e+02  -2.368192e+01
