
 $NMID
 id='ANONYMOUS ', fmtdat='(2E16.6)'
 volume=1.0
 tramp=1.0
 $END
  -3.495453e+03   1.128977e+01
  -2.316337e+03  -1.862581e+03
   1.202058e+02  -2.323608e+03
   1.481394e+03  -1.179674e+03
   9.457868e+02   3.502269e+01
  -1.557537e+02   3.226796e+02
  -5.336943e+02  -2.151524e+02
  -7.781604e+01  -7.218824e+02
   5.950548e+02  -6.219501e+02
   7.198362e+02  -6.600538e+01
   4.641764e+02   6.039727e+02
  -8.431903e+01   7.311735e+02
  -3.988794e+02   1.281275e+02
  -3.156921e+02  -4.561720e+02
   1.902723e+02  -6.589739e+02
   4.281279e+02  -2.860918e+01
   2.747892e+02   5.340090e+02
  -2.435410e+02   6.297326e+02
  -4.980329e+02   2.246994e+02
  -4.333638e+02  -2.345364e+02
  -9.851419e+01  -3.932006e+02
   1.287084e+02  -2.644544e+02
   1.352933e+02  -5.969308e+01
  -1.490333e+02  -6.136881e+01
  -3.208419e+02  -2.122485e+02
   3.015899e+00  -3.733474e+02
   4.391970e+02  -2.536918e+02
   6.398186e+02   1.594286e+02
   2.390051e+02   4.137492e+02
  -2.910614e+02   2.705825e+02
  -5.435077e+02  -1.004765e+02
  -2.227690e+02  -4.324823e+02
   2.445949e+02  -3.924192e+02
   5.694566e+02  -1.426554e+02
   3.635690e+02   1.217138e+02
   9.603804e+01   3.946663e+02
  -5.552334e+01   2.041570e+02
   3.167814e+00  -1.525868e+02
   1.686027e+02  -2.549380e+02
   2.113571e+02   9.459082e+01
   9.677662e+01   5.446536e+02
  -2.904282e+02   5.053181e+02
  -4.364285e+02   5.427001e+00
  -2.104308e+02  -2.984709e+02
   2.405647e+02  -1.980170e+02
   2.531810e+02   3.156770e+02
  -1.247300e+02   4.271374e+02
  -4.551699e+02   1.048414e+02
  -5.181845e+02  -3.588484e+02
  -1.553817e+02  -4.971143e+02
   3.089671e+02  -3.157715e+02
   5.296606e+02   8.252613e+01
   3.449948e+02   3.262514e+02
  -6.853703e+01   2.675194e+02
  -3.184440e+02   9.639245e+01
  -2.262372e+02  -6.123444e+01
   2.836326e+01  -1.497550e+01
   1.043724e+02   7.245183e+01
  -8.320498e+01   1.312374e+02
  -2.586141e+02  -7.184189e+01
  -8.499283e+01  -2.165214e+02
   1.937567e+02  -2.552564e+02
   3.786626e+02  -1.238184e+02
   2.750989e+02   6.806886e+01
  -3.860696e+01   2.728168e+02
  -2.354779e+02   3.404105e+02
  -3.208586e+02   2.099110e+02
  -2.368043e+02  -1.651063e+02
  -4.353698e+01  -3.475736e+02
   1.201062e+02  -2.715824e+02
   6.767268e+01  -1.446438e+02
  -1.824321e+01  -1.776634e+01
   1.200939e+02  -1.061348e+02
   2.014103e+02  -3.533440e-01
   2.831418e+02   8.222290e+01
   1.171568e+02   2.686816e+02
  -1.121329e+02   1.889163e+02
  -2.101084e+02  -6.976641e+01
  -1.233003e+02  -2.425342e+02
   2.364019e+01  -2.438576e+02
   1.706657e+02  -7.888706e+01
   3.037452e+02   1.646679e+02
   1.739588e+02   3.181643e+02
  -5.499780e+01   2.306420e+02
  -2.163438e+02   1.384317e+02
  -1.325809e+02   3.285314e+01
  -1.972891e+02   9.109052e+01
  -2.838523e+02   7.484547e+01
  -4.085489e+02  -6.209416e+01
  -3.015223e+02  -2.713322e+02
   2.553585e+01  -3.758960e+02
   4.145056e+02  -4.504998e+02
   4.686556e+02  -1.993764e+02
   3.312415e+02   9.249439e+01
   1.562264e+01   2.625496e+02
  -1.522851e+02   2.090130e+02
  -1.133619e+01   4.633793e+01
   7.378864e+01  -9.507140e+01
   1.737816e+02   8.456802e+01
   6.441818e+01   9.972944e+01
  -8.359783e+01   1.176508e+02
  -1.048642e+02  -5.385133e+01
   3.770044e+01  -1.244279e+02
   1.546315e+02   9.857963e+00
   1.708402e+02   2.475570e+02
  -8.934290e+00   3.532306e+02
  -2.446869e+02   1.649636e+02
  -2.923811e+02  -1.361041e+01
  -2.334543e+02  -2.847101e+02
  -2.346468e+01  -2.337587e+02
   1.348002e+02  -1.396927e+02
   1.331476e+02   4.141523e+01
   6.043101e+01   1.412624e+01
  -4.528941e+01  -6.798635e+01
   6.083139e+00  -6.544768e+01
   1.257279e+02  -9.383623e+01
   1.299898e+02   3.615192e+01
   3.391627e+01   4.546326e+01
  -6.024559e+01  -4.727609e+00
  -8.873068e+01  -1.009697e+02
   1.825716e+02  -1.341311e+02
   2.408623e+02   1.267700e+01
   2.295469e+02   1.690053e+02
   3.737226e+01   2.444601e+02
  -1.779392e+02   2.252211e+02
  -2.293763e+02   1.006372e+02
  -1.188658e+02   1.854333e+00
   6.551875e+01  -9.665065e+01
   8.948679e+01   6.154953e+00
  -2.798459e+01   5.734094e+01
  -2.476892e+02   5.288648e+01
  -2.032411e+02  -1.201231e+02
  -3.006952e+01  -1.711439e+02
   4.354304e+01  -1.622906e+02
   8.804463e+01  -2.810254e+01
   1.853186e+01   3.578281e+01
  -9.877292e+01   1.266575e+01
  -3.486428e+01  -3.924928e+01
   7.088265e+01  -1.524353e+02
   1.882590e+02   2.177418e+01
   1.609794e+02   1.169968e+02
  -1.616106e+01   2.140550e+02
  -1.505914e+02   1.539121e+02
  -2.154732e+02   1.006005e+01
  -5.640420e+01  -1.360740e+02
   2.856864e+01  -1.403674e+02
   1.785287e+01   4.102636e+00
  -9.620641e+00   2.387551e+01
  -5.219312e+01   1.265780e+01
  -1.684251e+01  -2.029155e+01
   9.633188e+01  -5.655224e+01
   3.195970e+01   8.015394e+01
   7.088563e+01   1.945831e+02
  -1.678637e+02   1.693364e+02
  -1.991685e+02   1.136746e+00
  -1.949654e+02  -1.441037e+02
  -6.078728e+01  -2.119066e+02
   8.744887e+01  -1.853456e+02
   1.422414e+02   7.144102e+00
   4.856450e+01   2.526214e+01
   5.444025e+01   3.384911e+01
   7.419342e+01   9.885033e+00
   1.131369e+02  -5.342417e+01
   8.627762e+00   4.261607e+01
  -9.673889e+01   1.034460e+02
  -9.745292e+01   8.694048e+01
  -6.226258e+01  -6.269410e+01
  -1.354678e+00  -1.483036e+02
   1.444050e+02  -7.407310e+01
   2.001936e+02   9.429940e+01
   8.547761e+01   2.346835e+02
  -7.147843e+01   2.041762e+02
  -2.495939e+02   7.125228e+01
  -2.832577e+02  -7.880259e+01
  -1.348799e+02  -1.322381e+02
   2.094757e+01  -1.728124e+02
   7.487335e+01  -7.445526e+01
   4.571757e+01  -6.149892e+01
   1.089685e+02  -1.082864e+02
   1.015267e+02  -6.263680e+01
   1.150433e+02  -1.640082e+01
   1.092994e+02   1.696247e+02
   7.227160e+01   2.608040e+02
  -1.110606e+02   2.373770e+02
  -2.113416e+02   2.876276e+01
  -9.969027e+01  -1.167086e+02
  -1.701252e+01  -1.261323e+02
   3.824666e+01  -9.085963e+01
   9.367726e+01  -1.744631e+01
   4.271515e+00   6.077157e+01
  -5.325305e+01   4.962415e+01
   3.863780e+01  -2.464945e+01
   7.057040e+01   3.256309e+01
   5.624368e+01   5.435380e+01
  -7.244491e+01   3.203944e+01
  -1.855083e+02  -8.641347e+00
  -1.798109e+02  -4.600478e+01
  -2.136718e+01  -7.042301e+01
   1.852582e+02  -8.246399e+01
   1.624147e+02  -1.549263e+01
   2.527851e+01   2.398535e+01
  -1.903467e+01   8.488695e+01
  -6.635477e+01   1.333425e+00
  -5.472493e+01  -5.924491e+01
   7.827476e+01  -4.732985e+01
   5.888586e+01  -2.395786e+01
   5.632588e+01   7.478874e+01
   1.879683e+01   4.265104e+01
   4.224517e+01  -7.698251e-01
   6.311125e+01  -2.869928e+01
   3.671223e+01   8.021800e+01
  -3.846743e+01   1.808030e+02
  -9.420604e+01   1.325700e+02
  -1.350202e+02   5.967423e+01
  -1.307058e+02  -7.965411e+01
   5.391082e+01  -1.220631e+02
   6.243862e+01  -7.283270e+01
   9.888173e+01   1.859731e+01
   7.670132e+00   1.883852e+01
  -1.692045e+02  -1.452388e+01
  -2.672620e+01  -1.361915e+02
   8.374667e+01  -9.665827e+01
   1.770985e+02  -1.867337e+01
   1.384622e+02   2.161361e+01
   6.685822e+01   3.327796e+01
  -5.026145e+01   3.202385e+01
  -2.425549e+01   2.400814e+01
   1.133867e+02  -7.527566e+01
   9.214925e+01  -2.726814e+01
   1.739497e+01   7.788029e+01
  -1.389364e+02   1.586699e+02
  -1.721195e+02   6.578017e+01
  -1.523443e+02  -1.055882e+02
  -3.795129e-01  -2.031419e+02
   1.243711e+02  -1.603351e+02
   1.181606e+02   6.175995e+01
   4.797078e+01   1.127761e+02
  -1.949326e+01   1.363502e+02
  -5.648334e+01   4.880377e+00
  -4.261653e+01  -2.161467e+01
  -1.762451e+01  -1.993472e+01
  -2.787271e+01  -7.653957e-01
  -2.024324e+01   2.361281e+01
  -2.645739e+01  -7.010772e+01
  -5.186897e+01  -1.143566e+02
   4.950988e+01  -2.344259e+01
   1.279601e+02   2.899258e+01
   1.195692e+02   3.870336e+01
  -8.687840e+00   7.480590e+01
  -5.881878e+01   3.356281e+01
  -5.082621e+01   4.513956e+01
  -2.208380e+01   2.526441e+01
   8.401556e+01  -2.990777e+01
   5.419730e+01  -3.854370e+01
  -2.387926e+01   1.774029e+01
  -4.691758e+01   8.862591e+00
   9.585418e+01   3.384624e+01
   3.293148e+01   1.595205e+01
   3.279549e+01   5.608432e+01
  -1.241117e+02   1.156895e+02
  -1.516812e+02   1.916263e+01
  -1.543165e+02  -7.923246e+01
  -1.852057e+01  -1.434974e+02
   5.259079e+01  -1.302415e+02
   1.293310e+02  -4.744015e+01
   1.496611e+02   3.285675e+01
   3.306062e+01   2.461207e+01
   3.443972e+01   3.575978e+00
   2.398469e+01  -9.621954e-01
   2.301617e+00   3.617165e+01
  -1.992864e+01   1.141681e+02
  -7.679387e+01   5.469505e+01
  -3.325203e+01  -2.103468e+01
  -5.813095e+01  -1.386437e+02
  -3.655121e+01  -9.542651e+01
   1.078350e+02  -3.747865e+01
   1.304745e+02   1.060836e+02
  -1.129631e-01   1.639321e+02
  -3.649026e+01   8.060308e+01
  -6.806889e+01  -2.192994e+01
  -4.169511e+01  -2.040518e+01
   4.280618e+01  -5.900179e+00
   6.109599e+01  -8.626276e+00
  -3.453282e+01   3.745198e+01
  -7.895240e+01   5.837200e+01
  -3.443292e+01   4.315817e+01
   6.526478e+01  -4.328772e+01
   8.389463e+01  -1.933379e+01
   1.178825e+02   5.654136e+01
  -3.795986e+01   7.645170e+01
  -6.173902e+01   8.425856e+01
  -4.158165e+01  -3.422992e+01
  -3.664187e+01  -9.486998e+01
   2.594549e+01  -7.581532e+01
  -1.823793e+01  -9.659350e+00
  -1.443659e+01   3.625852e+01
  -2.720141e+01   5.605966e+00
  -5.942613e+01   2.833998e+01
  -6.142580e+01  -2.773824e+01
  -3.547076e+01  -2.160271e+00
  -4.392967e+01   1.635039e+01
  -1.121293e+01  -2.677361e+01
  -4.174912e+01  -7.986352e+01
   8.804378e+00  -5.460482e+01
   7.909621e+01  -5.269594e+00
  -4.621818e+00   5.782740e+01
   2.244018e+01   7.954724e+01
   2.200527e+00   5.915210e+01
  -1.182665e+02   9.310331e-01
  -2.415339e+01  -8.280906e+01
   8.104694e+01  -1.322055e+01
   5.901900e+01   4.661888e+01
   4.789119e+01   9.286557e+01
  -1.830542e+01   2.984242e+01
  -1.328498e+02   5.276219e+01
  -1.218410e+00  -1.570629e+01
  -1.378123e+00  -1.654685e+01
   4.888104e+01   8.138535e+00
  -1.110824e+02   2.979223e+01
  -7.392703e+01   5.367803e+01
