
 $NMID
 id='ANONYMOUS ', fmtdat='(2E16.6)'
 volume=1.0
 tramp=1.0
 $END
  -2.654492e+03  -8.034174e+01
  -1.777410e+03  -1.322064e+03
  -1.314485e+02  -1.670529e+03
   9.106535e+02  -1.181756e+03
   8.781979e+02  -3.646582e+02
   1.767423e+02   5.885071e+01
  -1.659743e+02  -7.286727e+01
  -7.356889e+01  -3.694270e+02
   2.852155e+02  -4.552175e+02
   5.816182e+02  -1.260333e+02
   3.961992e+02   3.414440e+02
   1.052605e+02   5.423697e+02
  -2.418555e+02   2.035624e+02
  -1.718984e+02  -3.267448e+02
   3.680034e+01  -4.254726e+02
   3.347402e+02  -7.019127e+01
   2.820865e+02   3.981492e+02
  -6.858337e+01   5.751580e+02
  -3.742902e+02   2.929779e+02
  -3.899516e+02  -5.508341e+01
  -1.080706e+02  -3.007136e+02
   5.409586e+01  -2.230597e+02
  -1.628269e+01  -6.076219e+01
  -1.555758e+02  -1.207219e+02
  -2.288321e+02  -2.554832e+02
   1.007011e+02  -3.390011e+02
   3.710766e+02  -8.048063e+01
   4.884816e+02   1.970607e+02
   1.021955e+02   2.954258e+02
  -3.090702e+02   1.048247e+02
  -4.197723e+02  -1.058558e+02
  -1.454685e+02  -3.253527e+02
   2.490727e+02  -2.870740e+02
   3.771726e+02  -8.904444e+01
   3.234420e+02   1.316182e+02
   7.631241e+01   2.120772e+02
   2.404896e+01   1.188058e+02
   8.936957e+01  -1.205785e+02
   1.797529e+02  -6.348646e+01
   1.276804e+02   1.143155e+02
  -7.554352e+01   3.979266e+02
  -2.050519e+02   3.539298e+02
  -2.673444e+02  -2.420769e+01
  -7.304614e+01  -2.257397e+02
   1.575992e+02  -5.922961e+01
   1.079997e+02   2.705594e+02
  -1.087249e+02   3.067576e+02
  -3.850107e+02   4.249833e+01
  -4.582104e+02  -3.156356e+02
  -1.204714e+02  -3.911232e+02
   2.762326e+02  -1.948281e+02
   4.717432e+02   9.614055e+01
   3.039947e+02   2.245300e+02
  -7.619404e+00   1.191201e+02
  -1.769767e+02   1.881373e+01
  -1.907036e+02  -2.590767e+01
  -1.464154e+01  -4.185076e+00
   6.515192e+01   3.786357e+01
  -7.558518e+01  -3.026898e+01
  -2.038482e+02  -5.079294e+01
  -6.784064e+01  -1.377064e+02
   1.109047e+02  -2.017935e+02
   3.301008e+02  -1.499362e+02
   2.447227e+02   1.208143e+02
  -6.511912e+00   3.214282e+02
  -3.028495e+02   3.203942e+02
  -3.579559e+02   1.300672e+02
  -1.430510e+02  -1.641964e+02
  -4.782743e+01  -3.259392e+02
   4.271204e+01  -2.612788e+02
   2.854928e+01  -1.760595e+02
   8.796317e+00  -1.733849e+02
   1.383795e+02  -1.267301e+02
   2.357180e+02  -3.300557e+01
   2.117394e+02   1.243980e+02
   4.162408e+01   2.001265e+02
  -1.009822e+02   1.191328e+02
  -1.405674e+02  -4.094617e+01
  -1.390876e+02  -1.774979e+02
   8.896246e+01  -2.023244e+02
   2.424484e+02  -5.165826e+01
   2.570636e+02   1.644205e+02
   1.861722e+02   2.359845e+02
  -4.902658e+01   2.296911e+02
  -1.858479e+02   1.717653e+02
  -1.072096e+02   5.437490e+01
  -1.248077e+02   3.629956e+01
  -2.289831e+02   6.274880e+01
  -3.569651e+02  -1.551830e+02
  -2.681026e+02  -2.848114e+02
   5.444298e+01  -3.774446e+02
   3.540040e+02  -3.070582e+02
   4.134900e+02  -1.594336e+02
   2.277167e+02   1.102883e+02
  -9.873948e+00   2.082814e+02
  -8.125969e+01   1.692145e+02
   2.009355e+01  -2.292295e+00
   1.364372e+02   2.492318e+01
   8.504606e+01   4.041075e+01
  -1.493798e+01   1.016611e+02
  -3.260238e+01   3.446024e+01
  -9.559612e+01  -7.911554e+01
   1.468327e+01  -9.441722e+01
   1.451676e+02   7.027567e+01
   9.503422e+01   2.071332e+02
   2.397407e+01   3.384412e+02
  -2.759925e+02   1.576391e+02
  -2.998498e+02  -9.212536e+01
  -2.791798e+02  -1.904377e+02
  -1.378161e+01  -2.415273e+02
   1.075593e+02  -1.652383e+02
   1.280351e+02   1.519924e+01
  -6.341816e+01   2.713526e+01
  -4.698185e+01  -2.708005e+01
   1.968260e+01  -1.272785e+02
   1.547106e+02  -1.719328e+01
   1.906978e+02   1.111821e+01
   5.092464e+01  -1.088467e+01
  -6.257856e+01  -1.165289e+01
  -3.572186e+01  -5.848111e+01
   1.469622e+02  -1.252937e+02
   3.037038e+02  -7.959568e-01
   2.330599e+02   1.354831e+02
  -1.101360e+01   1.928860e+02
  -1.831801e+02   2.121590e+02
  -2.502645e+02   6.602038e+01
  -1.110502e+02  -5.953918e+01
   5.388778e+01  -4.428198e+01
   5.521374e+01   8.705831e+00
  -9.350445e+00   6.042882e+01
  -1.441302e+02  -1.177766e+01
  -2.112794e+02  -1.267936e+02
  -3.542611e+01  -1.585163e+02
   8.346692e+01  -7.690411e+01
   1.120557e+02  -4.981069e+01
   7.977755e+01   5.602197e+01
  -6.463739e+01  -6.023958e+01
  -2.358260e+01  -1.051893e+02
   1.247588e+02  -1.066145e+02
   2.055195e+02  -4.949874e+01
   1.964846e+02   1.342411e+02
  -1.477037e+01   1.760170e+02
  -8.154626e+01   1.099946e+02
  -1.436715e+02   2.633146e+00
  -5.246558e+01  -7.073030e+01
   7.266802e+01  -5.444518e+01
   3.479636e+01   1.151661e+01
  -3.220710e+01   4.293089e+01
  -3.863377e+01   6.821879e+01
  -1.553935e+01  -3.572035e+01
   6.292543e+01  -6.104411e+00
   8.252937e+01   1.059495e+02
  -1.176204e+00   1.345449e+02
  -1.766262e+02   1.303024e+02
  -2.325939e+02   5.719671e+01
  -1.721095e+02  -1.751374e+02
  -4.711098e+01  -1.770398e+02
   1.367917e+02  -1.378002e+02
   1.689245e+02  -4.636738e+01
   4.972565e+01   4.110863e+01
   6.820986e+01  -2.995429e+01
   4.009972e+01   2.468511e+01
   1.194014e+02  -2.407223e+01
   4.415002e+01   6.249288e+00
  -5.921015e+01   1.312649e+02
  -1.400098e+02   5.796867e+01
  -1.050779e+02  -9.675882e+01
   3.101101e+00  -1.217787e+02
   1.061041e+02  -1.566305e+02
   2.258995e+02   8.725852e+01
   8.962289e+01   1.917357e+02
  -1.397606e+02   1.500839e+02
  -2.499486e+02   4.236177e-01
  -2.274229e+02  -9.377535e+01
  -9.880814e+01  -1.667829e+02
   4.301452e+01  -1.427772e+02
   1.058032e+02  -7.834810e+01
   5.839813e+01   1.128817e+01
   6.501245e+01  -1.402562e+02
   2.266706e+01  -7.377017e+01
   1.281245e+02   3.484580e+01
   1.472349e+02   1.377846e+02
   1.988543e+01   2.555085e+02
  -1.707979e+01   1.314453e+02
  -1.382717e+02  -6.770745e+00
  -9.235005e+01  -9.102495e+01
  -1.285518e+01  -1.012112e+02
   1.029432e+02  -6.816118e+01
   3.739338e+01   2.687975e+01
   2.850326e+01   3.321753e+01
  -6.912241e+00  -1.617736e+00
   6.155139e+01  -5.199133e+01
   4.406220e+01  -1.585771e+01
  -8.012290e+00   4.799299e+01
  -6.015566e+01   1.111053e+01
  -1.036306e+02  -4.602121e+00
  -1.643425e+02   6.109191e-01
  -2.795537e+01  -7.200787e+01
   1.398954e+02  -8.179647e+01
   1.131808e+02  -4.028576e+01
   3.414311e+01   5.722080e+01
  -9.598517e+01   3.795039e+01
  -5.157111e+01   2.336658e+01
   1.881754e+01  -8.754087e+01
   7.725249e+00  -5.569409e+01
   4.986867e+01  -3.755761e+01
   1.062220e+02   6.679520e+01
   9.823430e+01   8.021541e+01
   3.370060e+01  -6.046292e+01
   8.761570e+01   1.457034e+01
   5.899275e+01   1.080747e+02
  -8.411025e-01   1.221785e+02
  -6.697668e+01   1.230524e+02
  -1.838946e+02   3.604692e+01
  -1.390712e+02  -1.601727e+01
   2.060559e+01  -1.413035e+02
   9.374630e+01  -7.121454e+01
   4.819533e+01   4.901111e-01
  -4.304203e+01   3.473586e+01
  -1.650353e+02  -3.571030e+01
  -7.317376e+01  -9.661012e+01
   1.028092e+02  -1.287417e+02
   2.124898e+02  -1.814801e+01
   1.291910e+02   4.710601e+01
   3.930569e+01   1.238111e+02
  -4.674681e+01   5.992460e+01
  -2.086480e+01   1.517994e+01
   2.064391e+01  -3.326196e+01
   1.044808e+02   1.308115e+01
   1.394496e-01   5.601416e+01
  -4.287319e+01   1.161076e+02
  -1.353317e+02   7.865449e+01
  -8.152473e+01  -1.035884e+02
  -1.944290e+01  -1.311206e+02
   5.828822e+01  -9.962128e+01
   7.131670e+01   1.826955e+00
   4.241002e+01   1.311843e+02
  -2.105869e+01   7.300346e+01
  -7.125873e+01   3.617591e+01
  -2.726363e+00  -2.425227e+01
   6.768901e+00   4.458263e+00
   1.163385e+01   1.535467e+01
  -7.197376e+01  -4.213878e+01
  -3.407706e+01  -1.253837e+02
   3.273780e+00  -6.558292e+01
   5.436625e+01  -4.356214e+01
   9.148389e+01   8.299251e+01
   7.910831e+01   8.082486e+01
   8.684357e+00   5.592572e+01
  -9.391651e+01  -1.663788e+01
  -5.663157e+01   5.164301e+01
  -8.701166e+01  -3.047399e+01
   5.496906e+01   6.439870e+00
   6.707786e+01  -5.076344e+01
   1.416155e+01  -4.288435e+01
   4.535737e+01  -7.973413e+00
   6.612896e+01  -1.445914e+01
   8.138919e+01   1.265972e+01
  -3.315045e+00   1.001827e+02
  -6.631310e+01   1.147246e+02
  -1.611566e+02   4.564489e+01
  -1.334355e+02  -1.189156e+01
  -2.879322e+01  -1.386828e+02
   7.877850e+01  -1.172137e+02
   1.262506e+02  -4.303785e+01
   6.573743e+01  -1.115180e+01
   4.880331e+01   5.159965e+01
   4.954193e+01  -2.625408e+01
  -8.197703e+00   3.848309e+01
   3.752310e+01   1.338245e+01
  -2.935892e+00   9.051778e+01
  -4.640675e+01   9.591696e+01
  -4.933175e+01   2.885466e+01
  -7.779794e+01  -8.962617e+01
   1.220814e+01  -8.504968e+01
   8.737528e+01  -8.051551e+01
   9.913507e+01   8.667174e+01
   7.658645e+01   1.102811e+02
  -6.494447e+01   6.961671e+01
  -1.151888e+02  -1.319972e+01
  -3.351795e+01  -6.490250e+01
   9.887367e+00  -9.026865e+01
   3.630131e+01  -6.808862e+01
   4.798530e+01   1.935458e+01
  -6.632706e+01  -1.633077e+01
   1.575472e+01  -3.780289e+01
   5.619647e+01  -6.217068e+01
   1.332439e+02  -5.756368e+01
   1.021832e+02   7.061662e+01
  -7.120601e+01   4.191947e+01
  -7.514225e+01   5.969593e+01
  -5.343872e+01   2.642483e+01
  -1.373021e+00  -5.055062e+01
   5.956429e+01  -2.626119e+01
   4.385081e+01  -1.840564e+01
   1.886741e+00   9.755291e+01
  -7.371865e+01   5.364519e+01
  -5.457483e+01   1.471732e+01
  -5.082967e+01   4.570174e+01
  -5.591969e+01   2.997741e+01
  -1.775999e+01   3.187009e+01
   3.579679e+01   1.672647e+01
  -1.521761e+01  -5.235548e+00
  -5.619339e+00  -6.381619e+01
   3.072629e+01   3.654818e+01
   4.732808e+01   3.355466e+01
   6.802603e+01   7.466211e+01
  -6.322987e+01  -2.389953e+01
  -6.087428e+01  -4.098734e+01
   1.355695e+01  -3.265416e+01
   5.153594e+01  -2.359164e+01
   9.910930e+01   4.155757e+01
   3.222255e+01   2.617226e+01
  -4.683301e+01   1.865197e+01
  -6.538875e+01   8.148121e+01
  -2.648457e+01   2.334360e+01
   4.722840e+01   9.785675e+00
   6.847814e+01  -3.713312e+01
   3.777513e+01  -3.386022e+00
  -2.948137e+01   2.512717e+01
