
 $NMID
 id='ANONYMOUS ', fmtdat='(2E16.6)'
 volume=1.0
 tramp=1.0
 $END
  -3.963809e+03  -8.912802e+01
  -2.303592e+03  -2.334291e+03
   5.308745e+02  -2.420390e+03
   1.801186e+03  -9.335734e+02
   8.493914e+02   4.241994e+02
  -5.084718e+02   4.563251e+02
  -6.839425e+02  -3.962951e+02
   4.748277e+01  -8.895921e+02
   7.114810e+02  -6.924951e+02
   8.181031e+02   4.765273e+01
   4.109094e+02   6.941082e+02
  -1.942549e+02   7.837727e+02
  -5.433441e+02   6.184623e+01
  -3.736038e+02  -6.190157e+02
   2.401856e+02  -6.612533e+02
   5.265918e+02  -4.094752e+01
   2.543368e+02   5.727158e+02
  -2.528776e+02   6.021962e+02
  -5.236874e+02   1.525635e+02
  -3.789553e+02  -3.115630e+02
  -2.442100e+01  -4.473510e+02
   2.397151e+02  -2.689543e+02
   1.393578e+02  -3.061161e+01
  -1.696678e+02   2.340706e+01
  -3.625812e+02  -1.731866e+02
  -1.451728e+02  -4.849642e+02
   4.434129e+02  -2.952697e+02
   8.183193e+02   1.398227e+02
   3.926846e+02   5.246189e+02
  -3.788035e+02   3.808957e+02
  -7.335195e+02  -5.504105e+01
  -2.989292e+02  -4.828675e+02
   3.194458e+02  -4.816492e+02
   5.520244e+02  -1.362207e+02
   3.643314e+02   2.451932e+02
   5.685132e+01   4.202806e+02
  -1.724953e+02   1.916516e+02
  -8.909457e+01  -1.909957e+02
   2.010440e+02  -3.555671e+02
   3.784800e+02   1.012616e+02
   2.016869e+02   6.172451e+02
  -3.558379e+02   5.786334e+02
  -5.523392e+02   9.474156e+00
  -1.928027e+02  -4.613344e+02
   2.292346e+02  -2.005338e+02
   2.726364e+02   3.740318e+02
  -7.793491e+01   5.381052e+02
  -5.206043e+02   1.336291e+02
  -5.696646e+02  -3.990808e+02
  -1.506508e+02  -5.654547e+02
   3.845206e+02  -2.876162e+02
   5.876680e+02   6.565944e+01
   3.776938e+02   4.038750e+02
  -1.795317e+02   3.502054e+02
  -3.975881e+02   7.225157e+01
  -2.155051e+02  -1.482044e+02
   9.157194e+01  -1.087298e+02
   9.042989e+01   1.412912e+02
  -1.639346e+02   1.005865e+02
  -3.120160e+02  -6.244044e+01
  -1.436350e+02  -2.659304e+02
   1.527946e+02  -2.074039e+02
   3.787870e+02  -5.229900e+01
   1.920180e+02   5.839351e+01
   5.593270e+00   2.681597e+02
  -1.983046e+02   3.880831e+02
  -3.164247e+02   2.343705e+02
  -2.839725e+02  -1.779115e+02
  -7.168234e+01  -3.878219e+02
   8.427558e+01  -3.996230e+02
   9.653574e+01  -1.442161e+02
  -3.922256e+00  -5.640540e+01
   2.670128e+01  -1.419019e+02
   2.010904e+02  -1.412570e+02
   3.018106e+02   5.138777e+00
   1.229118e+02   2.573415e+02
  -1.053883e+02   2.418308e+02
  -2.343802e+02  -4.966775e+01
  -1.533370e+02  -2.467475e+02
  -3.793210e+01  -2.593262e+02
   2.628430e+02  -1.092116e+02
   3.664765e+02   1.993917e+02
   1.563849e+02   4.293506e+02
  -1.038300e+02   2.667295e+02
  -2.924816e+02   1.516337e+02
  -1.580027e+02  -2.253137e+01
  -1.360564e+02   1.105177e+02
  -2.037088e+02   1.126866e+02
  -3.880122e+02  -4.434104e+01
  -3.612603e+02  -2.631285e+02
   1.949706e+01  -4.174050e+02
   3.353915e+02  -4.160119e+02
   4.739489e+02  -2.103708e+02
   2.713131e+02   7.707451e+01
   3.478530e+01   2.547896e+02
  -1.637900e+02   2.185096e+02
  -7.856687e+00  -1.774739e+01
   1.371231e+02  -9.944481e+01
   1.727150e+02   2.763050e+01
   1.274026e+01   1.355493e+02
  -1.360235e+02   1.923442e+02
  -1.481733e+02  -4.137659e+01
   5.564673e+01  -1.735845e+02
   2.018010e+02  -2.397942e+01
   1.367933e+02   2.735921e+02
  -6.146812e+01   3.317816e+02
  -2.385123e+02   2.007531e+02
  -3.441594e+02  -7.855120e+01
  -2.437979e+02  -2.384164e+02
  -1.043231e+02  -2.924871e+02
   1.469583e+02  -1.602648e+02
   1.332436e+02   6.080852e+00
   4.168582e+01   5.593525e+01
  -6.389285e+01  -5.988985e+01
  -3.178268e+01  -1.372801e+02
   1.337619e+02  -6.531270e+01
   1.747053e+02  -4.727230e+00
   4.681156e+01   7.200195e+01
  -1.192601e+02  -1.238666e+01
  -9.826044e+01  -4.316501e+01
   1.407831e+02  -7.917136e+01
   2.534301e+02  -1.346157e+01
   2.212515e+02   1.303205e+02
   6.842470e+01   2.679740e+02
  -2.779039e+02   2.841641e+02
  -3.064647e+02   1.447202e+02
  -2.027172e+02  -6.123610e+01
   2.844275e+01  -7.894767e+01
   6.729772e+01  -1.077572e+01
   2.629585e-01   1.009320e+02
  -1.878967e+02   3.770531e+01
  -1.879080e+02  -7.412729e+01
  -3.787609e+01  -1.982052e+02
   2.411421e+01  -1.864727e+02
   1.457944e+02  -3.956083e+01
   1.602781e+02   3.224800e+01
   1.100664e+01  -2.008890e+00
  -5.092424e-01  -1.084253e+02
   5.937094e+01  -1.318506e+02
   2.112735e+02  -3.995680e+01
   1.706257e+02   1.128109e+02
   1.683364e+01   2.078418e+02
  -1.426531e+02   1.790000e+02
  -1.495972e+02  -1.814602e+01
  -5.936705e+01  -9.464927e+01
   1.242086e+02  -9.100678e+01
   7.198490e+01  -3.549277e+01
   7.055928e+01   7.527399e+01
  -3.873009e+01   2.434564e+01
   6.477526e+00   1.107278e+01
   6.599007e+01   3.464756e+01
   5.571196e+01   5.394665e+01
  -1.010019e+00   1.243252e+02
  -1.173356e+02   1.650476e+02
  -2.309133e+02   4.352448e+01
  -1.675971e+02  -1.354782e+02
  -7.542219e+01  -2.524043e+02
   1.053484e+02  -1.260782e+02
   1.466393e+02  -3.975965e+01
   6.683620e+01   3.837219e+01
   5.068173e+01   4.718695e+01
   5.177366e+01   1.894160e+01
   1.074912e+02   2.706469e+01
   9.297292e+01   3.645302e+01
  -2.143778e+01   5.944483e+01
  -1.264338e+02   1.109274e+02
  -1.167873e+02  -3.316025e+01
   2.093964e+01  -1.522576e+02
   1.445335e+02  -9.190344e+01
   1.702690e+02   8.225169e+01
   1.008717e+02   2.768694e+02
  -8.123955e+01   2.288870e+02
  -2.547842e+02   1.104886e+02
  -2.653841e+02  -9.053729e+01
  -1.072931e+02  -1.312106e+02
   7.671916e+01  -1.130689e+02
   8.903627e+01  -1.150715e+02
   8.733322e+01  -8.823577e+01
   4.158052e+01  -8.331386e+01
   1.035085e+02  -6.822437e+01
   1.305683e+02   3.202183e+00
   9.034509e+01   1.360134e+02
   1.725737e+01   1.974239e+02
  -8.483626e+01   1.897986e+02
  -1.479486e+02   3.857007e+01
  -1.480889e+02  -8.282348e+01
  -6.665323e+00  -1.408366e+02
   8.313721e+01  -1.349484e+02
   1.196200e+02   2.257362e+01
  -1.530021e+01   8.753113e+01
  -1.817865e+01  -6.121064e+00
   2.705296e+01   5.224874e+01
   7.217962e+01  -1.566243e+01
   6.742434e+01   7.772415e+01
  -2.244658e+01   3.767884e+01
  -1.332394e+02   7.898211e+01
  -1.315744e+02  -4.229976e+01
  -4.375173e+01  -1.267041e+02
   1.047635e+02  -7.492916e+01
   1.427561e+02  -2.074510e+01
   8.431008e+01   3.763643e+01
  -7.016589e+01   6.167043e+01
  -1.235600e+02  -4.806847e+01
  -6.668252e+01  -6.439467e+01
   9.161107e+01  -5.088157e+00
  -9.179634e+00   1.099849e+01
   1.064057e+02   3.553764e+01
   7.203658e+01   7.097818e+00
   7.873753e+01  -6.256785e+01
   2.889715e+01  -2.129759e+00
   2.709222e+01   5.582302e+01
  -1.370228e+01   1.298820e+02
  -8.670096e+01   1.362971e+02
  -1.673444e+02   7.510672e+01
  -1.646011e+02  -6.169135e+01
   1.425429e+01  -1.932179e+02
   8.920841e+01  -1.179715e+02
   5.428416e+01   2.357912e+01
  -4.772383e+00  -1.605305e+01
  -1.547911e+02  -4.565893e+01
  -5.586290e+01  -1.309910e+02
   5.565251e+01  -1.545847e+02
   1.793389e+02  -6.402524e+01
   1.422121e+02  -2.352201e+01
  -1.505938e+01   9.463821e+01
  -2.600868e+01   6.057183e+01
  -7.313499e+01  -5.027070e+00
   5.965924e+01  -2.641328e+01
   7.259302e+01   1.015096e+01
   7.000703e+01   1.546436e+02
  -8.855119e+01   1.098749e+02
  -2.065249e+02   6.756309e+01
  -1.264244e+02  -1.263215e+02
   1.337901e+01  -1.852799e+02
   4.462942e+01  -1.267177e+02
   9.558790e+01  -2.633506e+01
   1.671587e+01   9.540034e+01
   6.945634e+00   9.910422e+01
  -2.736550e+01  -5.068856e+00
  -1.074365e+00  -2.829076e+01
  -1.974917e+01   3.950576e+01
  -4.246463e+00  -2.258788e+01
   3.849088e+01   1.981049e+01
  -5.565469e+01  -3.856998e+01
  -1.544788e+01  -6.146130e+01
   3.281109e+01  -1.200891e+02
   1.119426e+02   6.503694e+01
   7.316760e+01   1.153803e+02
   9.141352e+01   8.520630e+01
  -1.135997e+02   5.552481e+00
  -4.860565e+01   4.485186e+01
   3.059615e+01   1.753349e+01
   1.239079e+00  -4.795547e+01
  -1.211229e+01   4.319033e+00
  -2.238231e+01  -2.072515e+01
   2.958125e+01  -1.353030e+01
   3.219667e+01  -4.107252e+01
   1.034839e+02   6.524393e+01
  -1.443810e+01   7.715299e+01
  -1.331580e+02   1.173168e+02
  -1.729208e+02   5.942773e+01
  -1.470774e+02  -4.666847e+01
  -1.847668e+01  -1.525055e+02
   9.704328e+01  -1.785850e+02
   5.371638e+01  -8.504458e+01
   7.774483e+01   5.411557e+01
  -1.812209e-01   2.008953e+01
  -6.144385e+01  -3.277503e+01
   6.806009e+01   6.806719e+01
   3.688797e+01   4.601794e+01
   3.211624e+01   1.094386e+02
  -3.646156e+01   1.050731e+02
  -1.050512e+02  -9.496663e+00
  -9.023384e+01  -1.284096e+02
  -5.271077e+01  -1.258154e+02
   1.139012e+02  -4.006960e+01
   1.010830e+02   8.769664e+01
   4.081296e+01   1.023925e+02
  -4.121965e+01   1.006666e+02
  -9.745122e+01  -2.955823e+01
  -1.584059e+01  -6.356845e+01
   6.055938e+01  -5.316910e+01
   3.451644e+01  -3.440725e+01
  -2.534407e+01  -5.271691e+01
  -8.891067e+01  -3.541237e+01
  -3.642279e+00  -4.669514e+00
   4.719959e+01  -8.129563e+01
   1.152042e+02  -9.349599e+01
   1.152928e+01   4.955979e+01
   3.340234e+01   4.727001e+01
  -4.922842e+01   5.855033e+01
  -3.971037e+01  -4.470667e-01
   4.722466e+01  -1.097259e+01
   3.953382e+01  -5.599916e+01
   5.170523e+01   2.775799e+01
   2.077097e+01   1.664505e+01
  -5.171069e+01   4.437381e+01
  -4.826312e+01  -1.485760e+01
  -5.527991e+01  -1.005123e+01
   3.244671e+01  -1.566564e+01
  -3.891484e+01   3.127432e+01
   3.183171e+01  -4.860021e+01
  -3.472454e+01  -6.657231e+01
   2.678909e+01  -3.371597e+01
   4.516718e+01  -5.829157e+00
   2.526137e+01   5.242970e+01
   6.279872e+01   8.084041e+01
  -6.095025e+01  -7.745081e+00
  -7.962036e+01  -1.473047e+01
  -8.112587e+00  -1.718077e+01
   3.487053e+01  -4.981539e+01
   1.212020e+02   4.193819e+00
   5.374192e+01   5.253108e+01
  -1.171054e+02   6.851750e+01
  -8.067021e+01   8.919068e-01
   3.958371e+01   7.337049e+01
  -5.664477e+00  -5.155454e+00
   1.341825e+01   7.883536e+01
  -3.205354e+01   7.066525e+01
  -1.072533e+02  -3.631063e+00
