
 $NMID
 id='ANONYMOUS ', fmtdat='(2E16.6)'
 volume=1.0
 tramp=1.0
 $END
  -6.041071e+07   8.849518e+05
  -3.681444e+07  -3.770097e+07
   7.936224e+06  -4.142572e+07
   2.990544e+07  -1.547638e+07
   1.772895e+07   8.171966e+06
  -3.815915e+06   1.012697e+07
  -1.061637e+07  -1.741787e+06
  -2.657242e+06  -1.067362e+07
   6.994073e+06  -9.691829e+06
   1.038919e+07  -1.841824e+06
   7.376012e+06   6.510947e+06
   8.804843e+05   8.942129e+06
  -4.100435e+06   2.982728e+06
  -2.621321e+06  -5.471074e+06
   4.130759e+06  -6.663695e+06
   8.399435e+06   1.568085e+06
   4.671886e+06   1.087599e+07
  -4.045399e+06   1.254982e+07
  -1.070447e+07   6.403395e+06
  -1.156834e+07  -1.925465e+06
  -7.377974e+06  -7.820332e+06
  -1.092100e+06  -9.423907e+06
   3.166187e+06  -6.855230e+06
   2.506448e+06  -2.976119e+06
  -6.912354e+05  -1.912588e+06
  -3.216638e+05  -3.949258e+06
   5.232584e+06  -4.525615e+06
   9.785341e+06  -7.451402e+05
   7.411975e+06   4.086167e+06
   6.119166e+05   5.219134e+06
  -3.490969e+06   2.828295e+06
  -2.463611e+06   3.930001e+05
   3.161914e+05  -5.573153e+05
   1.865179e+06  -4.355061e+05
   2.058473e+06   1.126713e+06
   9.105827e+05   3.743956e+06
  -1.678096e+06   4.116986e+06
  -3.531870e+06   2.414498e+05
  -2.136851e+06  -3.739721e+06
   6.640972e+05  -2.361926e+06
   4.426776e+05   2.198333e+06
  -2.520858e+06   2.257809e+06
  -2.556378e+06  -3.458282e+06
   2.748409e+06  -6.641975e+06
   7.699632e+06  -1.183816e+06
   5.661568e+06   7.435290e+06
  -2.025403e+06   9.242177e+06
  -7.898601e+06   2.666018e+06
  -7.214473e+06  -4.712597e+06
  -1.745692e+06  -6.319919e+06
   3.697751e+06  -2.687397e+06
   5.371788e+06   1.788227e+06
   2.348070e+06   3.754177e+06
  -2.668306e+06   2.297540e+06
  -4.802290e+06  -1.045995e+06
  -2.022869e+06  -2.946465e+06
   1.838627e+06  -1.458416e+06
   1.744209e+06   1.124170e+06
  -1.595211e+06   9.074266e+05
  -2.707681e+06  -2.121278e+06
   8.270873e+05  -3.948252e+06
   5.182397e+06  -2.098462e+06
   5.744264e+06   1.580143e+06
   2.445773e+06   4.320613e+06
  -1.808281e+06   5.495387e+06
  -5.024385e+06   5.017236e+06
  -6.331594e+06   1.916243e+06
  -4.841467e+06  -3.130181e+06
  -1.057768e+06  -6.343688e+06
   2.047314e+06  -4.912578e+06
   2.005392e+06  -1.101370e+06
   1.392132e+05   5.405895e+05
  -3.095124e+05  -8.113710e+05
   1.326442e+06  -1.865183e+06
   2.692503e+06  -4.528460e+05
   2.039489e+06   1.716029e+06
   1.320051e+05   1.999049e+06
  -1.388246e+06   1.742134e+05
  -1.564743e+06  -2.007050e+06
  -1.749011e+04  -2.891049e+06
   2.738190e+06  -1.734458e+06
   4.595225e+06   1.088242e+06
   3.447443e+06   3.826891e+06
   6.663561e+04   4.476932e+06
  -2.387818e+06   2.956423e+06
  -2.425405e+06   1.218179e+06
  -1.969815e+06   6.349593e+05
  -3.024579e+06   3.853954e+05
  -4.401553e+06  -8.728624e+05
  -3.472242e+06  -2.862998e+06
  -5.609193e+04  -4.148994e+06
   3.246325e+06  -3.858048e+06
   4.141197e+06  -2.114168e+06
   2.642504e+06   3.518920e+05
   3.416197e+05   2.171917e+06
  -1.029781e+06   1.941571e+06
  -5.624838e+05  -3.235826e+03
   1.072538e+06  -1.304842e+06
   1.940902e+06  -3.954215e+05
   9.648839e+05   1.222203e+06
  -5.027342e+05   1.094182e+06
  -3.639048e+05  -4.338126e+05
   1.220712e+06  -6.190468e+05
   1.931765e+06   1.554612e+06
   4.471374e+05   3.744282e+06
  -1.966908e+06   3.395400e+06
  -3.366224e+06   8.346845e+05
  -3.224461e+06  -1.713454e+06
  -2.052159e+06  -2.834171e+06
  -3.276797e+05  -2.557759e+06
   1.239528e+06  -1.423053e+06
   1.553474e+06  -2.184016e+05
   4.927502e+05   5.424201e+04
  -3.443509e+05  -7.652491e+05
   4.562709e+05  -1.377985e+06
   1.979614e+06  -5.696797e+05
   2.070523e+06   9.700039e+05
   3.479164e+05   1.479648e+06
  -1.209068e+06   5.406155e+05
  -8.443514e+05  -4.960759e+05
   9.191033e+05  -4.460406e+05
   2.153557e+06   4.732073e+05
   1.614806e+06   1.436174e+06
  -3.703247e+05   1.918248e+06
  -2.357794e+06   1.552044e+06
  -2.783378e+06   1.983963e+05
  -1.213011e+06  -1.318761e+06
   9.571621e+05  -1.541501e+06
   1.618123e+06  -1.891789e+05
   2.184316e+05   1.108510e+06
  -1.546262e+06   7.262063e+05
  -1.716282e+06  -8.461009e+05
  -2.611065e+05  -1.689512e+06
   1.173208e+06  -9.247021e+05
   1.262759e+06   4.034973e+05
   1.932378e+05   8.255316e+05
  -8.349910e+05   3.949189e+04
  -7.372640e+05  -1.078287e+06
   5.895406e+05  -1.427846e+06
   2.019439e+06  -5.262652e+05
   2.035506e+06   1.081279e+06
   3.508621e+05   2.102560e+06
  -1.498800e+06   1.632098e+06
  -1.754946e+06   1.604193e+05
  -4.704877e+05  -9.016055e+05
   6.945494e+05  -7.850883e+05
   6.093474e+05  -5.783325e+04
  -1.668546e+05   3.172591e+05
  -4.741672e+05   1.341664e+05
  -3.473161e+04  -8.059823e+04
   5.141070e+05   1.444545e+05
   4.999250e+05   7.520390e+05
  -2.703708e+05   1.212178e+06
  -1.426682e+06   8.655379e+05
  -2.087295e+06  -4.651065e+05
  -1.439015e+06  -1.983931e+06
   2.667743e+05  -2.415206e+06
   1.654013e+06  -1.344940e+06
   1.662909e+06   2.026605e+05
   7.719427e+05   8.985919e+05
   2.589664e+05   5.770717e+05
   5.036935e+05   1.599509e+05
   6.853042e+05   3.299514e+05
   9.565575e+04   8.029801e+05
  -9.189447e+05   8.816865e+05
  -1.457821e+06   2.622098e+05
  -9.928165e+05  -7.483673e+05
   3.228576e+05  -1.419757e+06
   1.754205e+06  -1.004670e+06
   2.228492e+06   5.459515e+05
   1.069612e+06   2.147785e+06
  -1.103556e+06   2.370066e+06
  -2.614556e+06   9.619713e+05
  -2.337236e+06  -7.637296e+05
  -8.654534e+05  -1.384772e+06
   2.794428e+05  -8.982843e+05
   3.761814e+05  -4.390089e+05
   1.738159e+04  -7.381986e+05
   7.845780e+04  -1.343418e+06
   6.991669e+05  -1.317847e+06
   1.323606e+06  -3.137212e+05
   1.331219e+06   1.099950e+06
   5.286516e+05   1.905111e+06
  -6.431972e+05   1.427466e+06
  -1.286977e+06  -3.769548e+04
  -7.832999e+05  -1.328680e+06
   4.534300e+05  -1.406911e+06
   1.228374e+06  -3.536771e+05
   8.246580e+05   7.795029e+05
  -1.789920e+05   1.126818e+06
  -6.133860e+05   7.830931e+05
  -1.239060e+05   3.988253e+05
   4.356874e+05   3.281770e+05
   5.890504e+04   3.778512e+05
  -1.178492e+06   1.875233e+05
  -2.095107e+06  -3.752584e+05
  -1.608947e+06  -1.089869e+06
   9.301619e+04  -1.476611e+06
   1.654375e+06  -1.139489e+06
   1.865247e+06  -2.219556e+05
   8.271894e+05   5.643174e+05
  -2.852418e+05   5.945633e+05
  -5.327656e+05   7.900108e+03
  -4.724388e+04  -4.483754e+05
   4.294046e+05  -2.563050e+05
   4.830519e+05   3.478962e+05
   2.776184e+05   7.074226e+05
   1.238156e+05   4.695064e+05
   1.420694e+05  -6.491929e+04
   2.642073e+05  -2.472868e+05
   2.658041e+05   2.440005e+05
  -1.423849e+05   9.678892e+05
  -9.188205e+05   1.061821e+06
  -1.407271e+06   1.922362e+05
  -8.857776e+05  -9.163363e+05
   4.241068e+05  -1.172839e+06
   1.282930e+06  -3.646793e+05
   7.296366e+05   5.707419e+05
  -7.271508e+05   6.323960e+05
  -1.577198e+06  -1.514164e+05
  -9.399692e+05  -9.073590e+05
   5.519326e+05  -9.576802e+05
   1.512845e+06  -3.906499e+05
   1.200715e+06   2.539760e+05
   1.006648e+05   5.125079e+05
  -6.654073e+05   2.387940e+05
  -3.974366e+05  -3.113246e+05
   5.681091e+05  -5.315319e+05
   1.181014e+06   6.271368e+04
   6.944432e+05   1.165265e+06
  -5.588646e+05   1.705142e+06
  -1.465997e+06   8.955132e+05
  -1.246531e+06  -7.549331e+05
  -1.843926e+05  -1.782327e+06
   7.621637e+05  -1.258788e+06
   9.198041e+05   2.213795e+05
   3.829464e+05   1.208299e+06
  -2.792461e+05   9.502211e+05
  -5.789121e+05   6.069293e+04
  -4.285465e+05  -3.828427e+05
  -1.253880e+05  -1.353918e+05
  -6.510564e+04   8.649253e+04
  -3.292751e+05  -3.130247e+05
  -5.167789e+05  -9.791802e+05
  -1.325586e+05  -1.080409e+06
   7.690351e+05  -3.862114e+05
   1.460137e+06   4.840493e+05
   1.227631e+06   8.604930e+05
   1.723731e+05   7.099949e+05
  -8.210716e+05   4.064660e+05
  -9.746127e+05   1.537533e+05
  -3.945094e+05  -7.371246e+04
   1.328876e+05  -2.253463e+05
   8.532353e+04  -1.903798e+05
  -2.127081e+05  -7.965305e+04
  -6.751306e+04  -1.275391e+05
   6.095366e+05  -2.408364e+05
   1.050836e+06   2.388328e+03
   5.009920e+05   6.914997e+05
  -7.976458e+05   1.195803e+06
  -1.731795e+06   7.899713e+05
  -1.466505e+06  -4.002122e+05
  -2.876460e+05  -1.396807e+06
   7.839423e+05  -1.392394e+06
   1.048306e+06  -5.688272e+05
   6.437420e+05   2.081673e+05
   1.544165e+05   3.566923e+05
  -2.296876e+04   8.893436e+04
   1.027700e+05   1.477928e+04
   2.785018e+05   3.881358e+05
   2.244929e+05   8.135725e+05
  -1.691439e+05   6.888989e+05
  -6.666518e+05  -8.928086e+04
  -7.642194e+05  -9.147372e+05
  -1.725488e+05  -1.029807e+06
   7.158394e+05  -2.925872e+05
   1.046157e+06   6.725438e+05
   3.833041e+05   1.088339e+06
  -6.995676e+05   7.152134e+05
  -1.142829e+06  -5.538257e+04
  -5.666263e+05  -6.429262e+05
   2.834701e+05  -7.256995e+05
   4.194086e+05  -3.856808e+05
  -1.993643e+05   2.111442e+03
  -6.370917e+05   4.571379e+04
  -1.644027e+05  -3.148614e+05
   8.271717e+05  -6.737256e+05
   1.305394e+06  -5.123999e+05
   8.149565e+05   2.068007e+05
  -8.862655e+04   8.884911e+05
  -5.898539e+05   8.829616e+05
  -4.675752e+05   2.033932e+05
  -7.686271e+04  -4.566956e+05
   2.258598e+05  -4.607779e+05
   3.441870e+05   1.047435e+05
   2.625767e+05   5.747560e+05
  -3.438327e+04   4.651386e+05
  -3.908139e+05  -2.441256e+04
  -4.963490e+05  -3.071415e+05
  -2.474081e+05  -1.224550e+05
   6.130011e+04   1.805964e+05
   9.373090e+04   1.124453e+05
  -6.892842e+04  -3.176587e+05
  -4.389892e+04  -5.861367e+05
   2.798310e+05  -2.950860e+05
   5.107153e+05   3.177826e+05
   2.362106e+05   6.299043e+05
  -3.818876e+05   3.355673e+05
  -6.919411e+05  -2.429148e+05
  -2.774131e+05  -5.519587e+05
   5.185250e+05  -3.772110e+05
   9.077129e+05   4.701806e+04
   4.949645e+05   3.724869e+05
  -2.871206e+05   4.358287e+05
  -6.448373e+05   2.748033e+05
  -2.846166e+05   3.197031e+04
   2.921956e+05  -9.973516e+04
   3.822654e+05   1.385364e+04
  -1.304061e+05   2.571516e+05
  -6.760971e+05   2.693608e+05
