
 $NMID
 id='ANONYMOUS ', fmtdat='(2E16.6)'
 volume=1.0
 tramp=1.0
 $END
   5.361071e+07  -1.364725e+06
   3.331133e+07   3.192997e+07
  -5.757545e+06   3.635822e+07
  -2.575809e+07   1.513127e+07
  -1.611745e+07  -5.770569e+06
   2.651475e+06  -9.053072e+06
   9.493106e+06   5.370498e+05
   3.240438e+06   9.196413e+06
  -5.461953e+06   9.418996e+06
  -9.204253e+06   2.433288e+06
  -6.957313e+06  -5.807572e+06
  -1.016095e+06  -8.383900e+06
   3.834738e+06  -2.719498e+06
   2.762857e+06   5.359354e+06
  -3.390720e+06   6.615699e+06
  -7.622315e+06  -9.462001e+05
  -4.618502e+06  -9.668520e+06
   3.267961e+06  -1.145390e+07
   9.539160e+06  -5.899195e+06
   1.035940e+07   1.779323e+06
   6.375797e+06   7.006198e+06
   7.825099e+05   8.092195e+06
  -2.485515e+06   5.696626e+06
  -1.383937e+06   2.706823e+06
   1.315967e+06   2.355898e+06
   2.479554e+05   4.267804e+06
  -5.366578e+06   4.379132e+06
  -9.507861e+06   5.756847e+05
  -6.908157e+06  -3.926875e+06
  -1.958104e+05  -4.896726e+06
   3.735136e+06  -2.468046e+06
   2.404888e+06   1.471121e+05
  -8.327627e+05   1.112911e+06
  -2.523702e+06   4.760268e+05
  -2.234377e+06  -1.612690e+06
  -5.907443e+05  -3.994136e+06
   1.757826e+06  -3.706748e+06
   2.993500e+06   1.864751e+05
   1.558373e+06   3.450709e+06
  -7.063676e+05   1.656346e+06
  -2.740075e+05  -2.578832e+06
   2.392009e+06  -2.384744e+06
   2.506046e+06   2.969353e+06
  -1.999280e+06   5.942204e+06
  -6.432694e+06   1.212861e+06
  -5.031667e+06  -6.389203e+06
   1.519633e+06  -8.140989e+06
   7.029369e+06  -2.505805e+06
   6.921774e+06   4.101434e+06
   2.074556e+06   5.848097e+06
  -3.303676e+06   2.844548e+06
  -5.285845e+06  -1.251942e+06
  -2.602811e+06  -3.319643e+06
   2.201046e+06  -2.258996e+06
   4.416925e+06   6.975266e+05
   2.021905e+06   2.543108e+06
  -1.595855e+06   1.388113e+06
  -1.788131e+06  -9.390676e+05
   1.137331e+06  -1.026683e+06
   2.466131e+06   1.423868e+06
  -2.882898e+05   3.196384e+06
  -4.202242e+06   2.002153e+06
  -5.113539e+06  -1.022181e+06
  -2.390234e+06  -3.699701e+06
   1.666605e+06  -5.154123e+06
   4.889010e+06  -4.818784e+06
   6.047130e+06  -1.774518e+06
   4.472937e+06   3.042593e+06
   1.018579e+06   6.039390e+06
  -1.645118e+06   4.776470e+06
  -1.643593e+06   1.388513e+06
  -2.692067e+05  -8.829151e+04
  -1.690581e+05   1.004503e+06
  -1.722165e+06   1.705925e+06
  -2.840415e+06   1.332721e+05
  -2.018557e+06  -2.034394e+06
   3.237470e+04  -2.229696e+06
   1.673040e+06  -2.207928e+05
   1.785804e+06   2.132106e+06
   3.696534e+04   2.984256e+06
  -2.755392e+06   1.660136e+06
  -4.417655e+06  -1.155800e+06
  -3.178482e+06  -3.633150e+06
  -2.701665e+04  -4.074918e+06
   2.122256e+06  -2.648817e+06
   2.094402e+06  -1.173524e+06
   1.765892e+06  -7.746001e+05
   2.930391e+06  -6.004518e+05
   4.389232e+06   6.293457e+05
   3.585993e+06   2.691704e+06
   2.369736e+05   4.171583e+06
  -3.172995e+06   4.017634e+06
  -4.212047e+06   2.199325e+06
  -2.689414e+06  -4.280943e+05
  -2.624583e+05  -2.279686e+06
   1.126022e+06  -1.960135e+06
   5.704684e+05   4.171494e+04
  -1.089661e+06   1.345120e+06
  -1.911022e+06   4.479847e+05
  -9.375064e+05  -1.189042e+06
   5.182731e+05  -1.153879e+06
   4.880540e+05   3.714615e+05
  -9.973463e+05   7.989323e+05
  -1.911214e+06  -1.111450e+06
  -8.638547e+05  -3.423258e+06
   1.366426e+06  -3.566808e+06
   3.104208e+06  -1.364895e+06
   3.471959e+06   1.299983e+06
   2.472438e+06   2.779680e+06
   5.462450e+05   2.693724e+06
  -1.251381e+06   1.521512e+06
  -1.616697e+06   2.519497e+05
  -5.050272e+05  -3.719792e+04
   3.849636e+05   7.545434e+05
  -3.719925e+05   1.359980e+06
  -1.898957e+06   6.352822e+05
  -2.082874e+06  -8.267998e+05
  -4.467047e+05  -1.414271e+06
   1.168250e+06  -6.224309e+05
   9.374505e+05   4.341622e+05
  -8.343676e+05   5.787259e+05
  -2.254286e+06  -2.375947e+05
  -1.857982e+06  -1.343611e+06
   1.841826e+05  -2.049138e+06
   2.323121e+06  -1.764623e+06
   2.830590e+06  -3.486934e+05
   1.270665e+06   1.252276e+06
  -8.922063e+05   1.535886e+06
  -1.565431e+06   2.276053e+05
  -2.215135e+05  -1.084007e+06
   1.523531e+06  -7.836121e+05
   1.774617e+06   7.463898e+05
   4.047139e+05   1.678027e+06
  -1.074735e+06   1.046272e+06
  -1.299198e+06  -2.612560e+05
  -2.928192e+05  -7.824645e+05
   7.926374e+05  -8.023789e+04
   7.663309e+05   1.048933e+06
  -5.596463e+05   1.456139e+06
  -2.034627e+06   5.882074e+05
  -2.094620e+06  -1.030142e+06
  -4.373875e+05  -2.105977e+06
   1.427179e+06  -1.710258e+06
   1.758896e+06  -2.617692e+05
   5.455194e+05   8.728392e+05
  -6.472405e+05   8.437224e+05
  -6.570557e+05   9.585791e+04
   9.988741e+04  -3.865390e+05
   5.083860e+05  -2.428656e+05
   1.558582e+05   6.721356e+04
  -4.417642e+05  -4.532349e+04
  -5.485931e+05  -6.545617e+05
   1.731368e+05  -1.210098e+06
   1.386310e+06  -9.442399e+05
   2.131570e+06   3.767686e+05
   1.534243e+06   1.951601e+06
  -1.708134e+05   2.482187e+06
  -1.623404e+06   1.493278e+06
  -1.745540e+06  -8.222850e+04
  -9.191978e+05  -9.151017e+05
  -3.449860e+05  -6.975995e+05
  -4.721888e+05  -2.377130e+05
  -6.219436e+05  -2.998115e+05
  -1.013177e+05  -7.640064e+05
   8.724721e+05  -9.387254e+05
   1.475674e+06  -3.674189e+05
   1.098124e+06   7.232369e+05
  -2.186740e+05   1.511768e+06
  -1.738044e+06   1.139723e+06
  -2.310976e+06  -4.446288e+05
  -1.211714e+06  -2.115631e+06
   9.635808e+05  -2.434254e+06
   2.561248e+06  -1.118978e+06
   2.423821e+06   6.049054e+05
   1.030968e+06   1.345929e+06
  -1.761242e+05   9.916871e+05
  -4.019854e+05   5.493413e+05
  -9.217417e+04   7.691353e+05
  -9.202597e+04   1.320899e+06
  -6.529824e+05   1.317975e+06
  -1.305881e+06   3.489060e+05
  -1.385550e+06  -1.076449e+06
  -6.076670e+05  -1.924185e+06
   6.060827e+05  -1.481946e+06
   1.314377e+06  -2.984932e+04
   8.614374e+05   1.284451e+06
  -3.558028e+05   1.432230e+06
  -1.162330e+06   4.540568e+05
  -8.395038e+05  -6.708049e+05
   8.712516e+04  -1.086302e+06
   5.094503e+05  -8.114923e+05
   6.850539e+04  -4.354107e+05
  -4.453915e+05  -3.400544e+05
  -6.534432e+04  -3.927434e+05
   1.161848e+06  -2.394258e+05
   2.102760e+06   2.938322e+05
   1.672413e+06   1.017311e+06
   4.457168e+03   1.454614e+06
  -1.583598e+06   1.193364e+06
  -1.859298e+06   3.323769e+05
  -8.660237e+05  -4.692941e+05
   2.488717e+05  -5.784143e+05
   5.171675e+05  -5.112732e+04
   3.309677e+04   4.213127e+05
  -4.545183e+05   2.713559e+05
  -4.984214e+05  -3.408118e+05
  -2.632465e+05  -7.388063e+05
  -9.836214e+04  -4.898406e+05
  -1.396682e+05   1.065338e+05
  -2.858350e+05   3.131887e+05
  -2.852836e+05  -2.308412e+05
   1.304080e+05  -1.013585e+06
   8.949553e+05  -1.104351e+06
   1.374665e+06  -1.996404e+05
   8.781594e+05   9.171597e+05
  -4.002421e+05   1.163748e+06
  -1.272818e+06   3.622686e+05
  -7.618627e+05  -5.732819e+05
   7.020118e+05  -6.798983e+05
   1.630230e+06   5.940628e+04
   1.057768e+06   8.585958e+05
  -4.659668e+05   1.027847e+06
  -1.523748e+06   5.326964e+05
  -1.271266e+06  -1.624714e+05
  -1.525206e+05  -5.242778e+05
   6.566889e+05  -2.932474e+05
   3.970487e+05   2.895624e+05
  -5.893043e+05   5.450668e+05
  -1.212496e+06  -5.887714e+04
  -7.110868e+05  -1.195862e+06
   5.684755e+05  -1.757522e+06
   1.502050e+06  -9.409215e+05
   1.305721e+06   7.478395e+05
   2.498437e+05   1.832633e+06
  -7.281558e+05   1.345490e+06
  -9.518315e+05  -1.576140e+05
  -4.706654e+05  -1.209961e+06
   2.000268e+05  -9.971215e+05
   5.722443e+05  -9.911120e+04
   4.869122e+05   3.749519e+05
   1.717727e+05   1.357267e+05
   4.703231e+04  -9.909090e+04
   2.923127e+05   2.966760e+05
   5.451616e+05   9.783566e+05
   2.221609e+05   1.099783e+06
  -7.225816e+05   4.206356e+05
  -1.523163e+06  -4.410777e+05
  -1.331644e+06  -8.262014e+05
  -2.055536e+05  -7.116896e+05
   8.638497e+05  -4.516712e+05
   1.003570e+06  -2.104322e+05
   3.717786e+05   4.761570e+04
  -1.429607e+05   2.360960e+05
  -3.369094e+04   2.092418e+05
   2.709406e+05   8.699076e+04
   5.635956e+04   1.347901e+05
  -6.686757e+05   2.617873e+05
  -1.074296e+06   1.733643e+04
  -4.683641e+05  -7.009310e+05
   8.278873e+05  -1.235024e+06
   1.727317e+06  -8.247706e+05
   1.466555e+06   4.029034e+05
   3.229660e+05   1.434678e+06
  -7.512695e+05   1.433248e+06
  -1.062493e+06   5.846098e+05
  -6.780662e+05  -2.163148e+05
  -1.497257e+05  -3.640090e+05
   6.545131e+04  -7.482156e+04
  -8.398099e+04   1.448799e+04
  -3.146848e+05  -3.701662e+05
  -2.734907e+05  -8.212912e+05
   1.626951e+05  -7.036707e+05
   7.014382e+05   9.823424e+04
   7.921664e+05   9.494192e+05
   1.588452e+05   1.057389e+06
  -7.613380e+05   2.863313e+05
  -1.087906e+06  -7.006110e+05
  -3.961667e+05  -1.108918e+06
   7.108510e+05  -7.235405e+05
   1.154586e+06   4.095313e+04
   5.677591e+05   6.189376e+05
  -2.756914e+05   7.120899e+05
  -3.852907e+05   3.896385e+05
   2.466257e+05  -2.250488e+03
   6.632124e+05  -6.136414e+04
   1.623647e+05   3.138474e+05
  -8.265781e+05   7.202661e+05
  -1.282697e+06   5.845906e+05
  -7.956321e+05  -1.672364e+05
   7.202497e+04  -8.988829e+05
   5.491157e+05  -8.981023e+05
   4.419150e+05  -1.845047e+05
   7.528684e+04   4.869322e+05
  -2.309398e+05   4.595146e+05
  -3.664346e+05  -1.315073e+05
  -2.802348e+05  -5.843928e+05
   3.923000e+04  -4.484775e+05
   4.035672e+05   2.947226e+04
   4.994901e+05   2.795646e+05
   2.514464e+05   9.706268e+04
  -4.377350e+04  -1.604109e+05
  -8.483654e+04  -5.651919e+04
   3.695666e+04   3.578789e+05
  -1.643236e+04   5.784230e+05
  -3.163398e+05   2.523253e+05
  -4.964039e+05  -3.645289e+05
  -1.989776e+05  -6.600220e+05
   4.043869e+05  -3.414182e+05
   6.982162e+05   2.592959e+05
   2.847097e+05   5.767559e+05
  -5.120868e+05   3.928536e+05
  -9.147934e+05  -4.450874e+04
  -5.072830e+05  -3.718524e+05
   2.889478e+05  -4.283812e+05
   6.522370e+05  -2.647373e+05
   2.651104e+05  -2.802780e+04
  -3.422134e+05   9.158801e+04
  -4.172578e+05  -3.927291e+04
   1.523729e+05  -2.984310e+05
   7.381400e+05  -3.056846e+05
