
 $NMID
 id='ANONYMOUS ', fmtdat='(2E16.6)'
 volume=1.0
 tramp=1.0
 $END
  -4.396936e+07  -7.320513e+05
  -2.660835e+07  -2.554459e+07
   4.630716e+06  -2.882790e+07
   2.064765e+07  -1.311908e+07
   1.340037e+07   3.310900e+06
  -1.595841e+06   7.274567e+06
  -7.842960e+06   4.797367e+05
  -3.424099e+06  -7.301684e+06
   3.907483e+06  -8.592148e+06
   7.620276e+06  -2.658772e+06
   5.936877e+06   5.131085e+06
   7.128845e+05   7.498436e+06
  -3.524751e+06   2.063563e+06
  -2.558640e+06  -5.298758e+06
   2.742642e+06  -6.275621e+06
   6.440889e+06   4.970821e+05
   4.012368e+06   8.150763e+06
  -2.708618e+06   9.676471e+06
  -8.091691e+06   4.709349e+06
  -8.496659e+06  -2.018086e+06
  -4.619599e+06  -6.099931e+06
   1.945600e+04  -6.227035e+06
   1.803767e+06  -3.940319e+06
  -2.631783e+04  -2.236117e+06
  -2.034248e+06  -2.990474e+06
   7.785142e+04  -4.661229e+06
   5.717694e+06  -3.840004e+06
   9.028907e+06   1.814437e+05
   5.885038e+06   4.030433e+06
  -6.722091e+05   4.364588e+06
  -4.148446e+06   1.688698e+06
  -2.257881e+06  -1.021315e+06
   1.586391e+06  -1.777573e+06
   3.379741e+06  -3.882185e+05
   2.343812e+06   2.303801e+06
  -2.458819e+04   4.238168e+06
  -1.977436e+06   3.000690e+06
  -2.180377e+06  -8.795564e+05
  -5.735748e+05  -3.073733e+06
   8.329635e+05  -6.592013e+05
  -9.179740e+04   3.060152e+06
  -2.303080e+06   2.408007e+06
  -2.233011e+06  -2.401142e+06
   1.305474e+06  -4.837919e+06
   4.744139e+06  -9.070555e+05
   3.807026e+06   5.199469e+06
  -1.253931e+06   6.530489e+06
  -5.931077e+06   1.911428e+06
  -6.249173e+06  -3.606642e+06
  -2.185850e+06  -5.257873e+06
   2.888324e+06  -2.825458e+06
   5.026549e+06   8.112611e+05
   2.704339e+06   2.806352e+06
  -1.687548e+06   2.009143e+06
  -3.788462e+06  -4.853798e+05
  -1.816849e+06  -2.062245e+06
   1.342844e+06  -1.161256e+06
   1.749649e+06   7.798152e+05
  -5.955650e+05   1.089254e+06
  -2.030338e+06  -6.318217e+05
  -2.317038e+05  -2.151354e+06
   2.968381e+06  -1.635940e+06
   4.154664e+06   5.209762e+05
   2.103414e+06   2.941621e+06
  -1.686282e+06   4.556223e+06
  -4.854260e+06   4.265083e+06
  -5.666417e+06   1.279216e+06
  -3.773845e+06  -3.092568e+06
  -6.530637e+05  -5.583473e+06
   1.317035e+06  -4.424179e+06
   1.179791e+06  -1.658352e+06
   4.013627e+05  -5.154566e+05
   8.490216e+05  -1.264642e+06
   2.332588e+06  -1.393486e+06
   3.017790e+06   4.490726e+05
   1.843793e+06   2.541859e+06
  -3.869735e+05   2.490004e+06
  -2.039271e+06   1.663304e+05
  -1.923885e+06  -2.373843e+06
   1.069554e+05  -3.058663e+06
   2.822778e+06  -1.384262e+06
   4.053741e+06   1.449910e+06
   2.596030e+06   3.469208e+06
  -2.160111e+05   3.477312e+06
  -1.854845e+06   2.106703e+06
  -1.673046e+06   1.010365e+06
  -1.510154e+06   8.730935e+05
  -2.807544e+06   7.380130e+05
  -4.297427e+06  -5.109073e+05
  -3.561932e+06  -2.605517e+06
  -2.618951e+05  -4.164769e+06
   3.240875e+06  -4.025355e+06
   4.358445e+06  -2.068502e+06
   2.682140e+06   6.692226e+05
   2.676179e+04   2.402959e+06
  -1.337170e+06   1.880352e+06
  -5.564863e+05  -1.381929e+05
   1.181320e+06  -1.315895e+06
   1.867729e+06  -3.911566e+05
   8.103835e+05   1.180966e+06
  -6.066038e+05   1.166249e+06
  -6.214131e+05  -3.362005e+05
   7.549351e+05  -9.789343e+05
   1.827182e+06   6.236448e+05
   1.236357e+06   3.010811e+06
  -7.442395e+05   3.680574e+06
  -2.795010e+06   1.893424e+06
  -3.687431e+06  -9.048547e+05
  -2.849802e+06  -2.790798e+06
  -6.908576e+05  -2.865863e+06
   1.320896e+06  -1.569139e+06
   1.681766e+06  -2.097927e+05
   5.070963e+05   3.770596e+04
  -3.908872e+05  -7.579180e+05
   3.373867e+05  -1.303464e+06
   1.809203e+06  -6.067530e+05
   2.023226e+06   7.516211e+05
   4.762251e+05   1.340370e+06
  -1.153979e+06   6.490223e+05
  -1.030026e+06  -4.210731e+05
   7.589309e+05  -7.231535e+05
   2.368687e+06   3.739462e+04
   2.096029e+06   1.310103e+06
  -4.569219e+04   2.195716e+06
  -2.343785e+06   1.904378e+06
  -2.870795e+06   3.938363e+05
  -1.256070e+06  -1.212778e+06
   8.793679e+05  -1.454574e+06
   1.482140e+06  -1.852680e+05
   1.552180e+05   1.051566e+06
  -1.522454e+06   7.640581e+05
  -1.787795e+06  -7.059034e+05
  -4.906464e+05  -1.663998e+06
   9.962957e+05  -1.127464e+06
   1.316161e+06   1.546782e+05
   3.632619e+05   7.429736e+05
  -7.538129e+05   8.912513e+04
  -7.546581e+05  -1.053308e+06
   5.905975e+05  -1.465260e+06
   2.070618e+06  -5.675716e+05
   2.100870e+06   1.057614e+06
   4.376285e+05   2.108169e+06
  -1.402991e+06   1.714820e+06
  -1.747021e+06   2.947218e+05
  -5.764390e+05  -8.541989e+05
   6.334437e+05  -8.685859e+05
   7.163747e+05  -9.390299e+04
  -4.456048e+04   4.831245e+05
  -5.775078e+05   3.590538e+05
  -3.184355e+05  -6.966660e+04
   3.453078e+05  -7.991106e+04
   5.880341e+05   5.402454e+05
  -9.228476e+04   1.192053e+06
  -1.362826e+06   9.785713e+05
  -2.152067e+06  -3.570787e+05
  -1.549873e+06  -1.961193e+06
   1.647038e+05  -2.528232e+06
   1.637394e+06  -1.582674e+06
   1.823425e+06   1.257378e+04
   1.045022e+06   9.653199e+05
   4.094991e+05   8.522284e+05
   4.133962e+05   3.473521e+05
   5.281225e+05   2.782624e+05
   8.615152e+04   7.076178e+05
  -8.368463e+05   9.689716e+05
  -1.500666e+06   4.439560e+05
  -1.196694e+06  -7.262967e+05
   1.460310e+05  -1.608042e+06
   1.752306e+06  -1.229195e+06
   2.375381e+06   4.155407e+05
   1.282495e+06   2.114893e+06
  -8.928420e+05   2.451618e+06
  -2.523377e+06   1.186753e+06
  -2.480103e+06  -5.162269e+05
  -1.161876e+06  -1.337127e+06
   9.676792e+04  -1.093485e+06
   4.600859e+05  -6.603802e+05
   2.206250e+05  -7.877955e+05
   1.658899e+05  -1.267369e+06
   6.458671e+05  -1.271523e+06
   1.283970e+06  -3.294624e+05
   1.387074e+06   1.099423e+06
   6.082827e+05   1.955539e+06
  -6.246410e+05   1.503975e+06
  -1.338619e+06   4.912385e+04
  -8.926375e+05  -1.259193e+06
   2.969773e+05  -1.435990e+06
   1.094700e+06  -5.248724e+05
   8.273116e+05   5.662793e+05
  -1.692633e+04   1.026554e+06
  -4.147347e+05   8.231647e+05
  -2.369773e+04   4.743605e+05
   4.371473e+05   3.653344e+05
   5.850164e+04   4.071161e+05
  -1.138657e+06   2.555303e+05
  -2.080370e+06  -2.759249e+05
  -1.691811e+06  -9.926490e+05
  -6.105562e+04  -1.421147e+06
   1.534182e+06  -1.182336e+06
   1.850495e+06  -3.797781e+05
   8.889702e+05   3.908280e+05
  -2.232706e+05   5.441306e+05
  -4.969045e+05   8.386525e+04
  -4.729737e+03  -3.793405e+05
   4.848724e+05  -2.633886e+05
   4.941466e+05   3.459574e+05
   2.101436e+05   7.712501e+05
   4.404242e+04   5.069936e+05
   1.411002e+05  -1.515179e+05
   3.290725e+05  -3.782415e+05
   3.044612e+05   2.227669e+05
  -1.533117e+05   1.053320e+06
  -9.036086e+05   1.112691e+06
  -1.330164e+06   1.575248e+05
  -8.224957e+05  -9.401982e+05
   4.116421e+05  -1.124523e+06
   1.256079e+06  -3.054757e+05
   7.652378e+05   6.004566e+05
  -6.925066e+05   6.998665e+05
  -1.674330e+06  -1.923566e+04
  -1.153343e+06  -8.408744e+05
   4.031062e+05  -1.085878e+06
   1.549808e+06  -6.321180e+05
   1.340578e+06   1.097705e+05
   1.892626e+05   5.425808e+05
  -6.563343e+05   3.267468e+05
  -3.818761e+05  -2.783667e+05
   6.315425e+05  -5.284513e+05
   1.232084e+06   1.070524e+05
   6.686271e+05   1.246112e+06
  -6.482006e+05   1.768647e+06
  -1.563637e+06   9.152596e+05
  -1.325261e+06  -7.861962e+05
  -2.444863e+05  -1.880174e+06
   7.400211e+05  -1.402157e+06
   9.769772e+05   1.212872e+05
   5.193983e+05   1.223972e+06
  -1.500951e+05   1.041189e+06
  -5.668020e+05   1.218233e+05
  -5.357195e+05  -3.876587e+05
  -2.183997e+05  -1.482401e+05
  -3.087066e+04   1.115898e+05
  -2.351249e+05  -2.811873e+05
  -5.305375e+05  -9.887617e+05
  -2.759792e+05  -1.125724e+06
   6.788140e+05  -4.308529e+05
   1.561033e+06   4.525006e+05
   1.404682e+06   8.385666e+05
   2.141876e+05   7.148639e+05
  -9.231829e+05   4.587714e+05
  -1.037605e+06   2.308764e+05
  -3.410320e+05  -2.764560e+04
   1.634447e+05  -2.368584e+05
  -1.736487e+04  -2.317136e+05
  -3.326652e+05  -1.123629e+05
  -3.757997e+04  -1.440420e+05
   7.415065e+05  -2.500684e+05
   1.090199e+06   5.534343e+03
   3.945933e+05   7.165929e+05
  -9.049744e+05   1.225639e+06
  -1.733070e+06   7.851745e+05
  -1.428338e+06  -4.572006e+05
  -2.989059e+05  -1.474273e+06
   7.628019e+05  -1.435473e+06
   1.089315e+06  -5.524891e+05
   7.005710e+05   2.538226e+05
   1.275436e+05   3.741960e+05
  -1.158801e+05   5.018171e+04
   6.493702e+04  -4.783429e+04
   3.406661e+05   3.611067e+05
   2.929927e+05   8.367346e+05
  -1.842480e+05   7.055720e+05
  -7.280096e+05  -1.406266e+05
  -7.706062e+05  -1.012079e+06
  -9.416491e+04  -1.078294e+06
   8.135388e+05  -2.382400e+05
   1.088628e+06   7.709619e+05
   3.591808e+05   1.133167e+06
  -7.424921e+05   6.934548e+05
  -1.151941e+06  -6.984127e+04
  -5.404703e+05  -6.049374e+05
   2.889722e+05  -6.773924e+05
   3.572582e+05  -3.782966e+05
  -2.968182e+05  -1.248462e+04
  -6.881891e+05   5.034620e+04
  -1.458530e+05  -3.137079e+05
   8.476827e+05  -7.310965e+05
   1.269188e+06  -6.120478e+05
   7.592569e+05   1.474673e+05
  -8.853853e+04   8.963325e+05
  -5.304081e+05   8.857238e+05
  -4.100425e+05   1.461571e+05
  -4.972872e+04  -5.171915e+05
   2.507316e+05  -4.417628e+05
   3.781955e+05   1.773576e+05
   2.726716e+05   5.999529e+05
  -5.962760e+04   4.202303e+05
  -4.104551e+05  -5.260922e+04
  -4.878953e+05  -2.634768e+05
  -2.515337e+05  -7.619553e+04
   1.896253e+04   1.343890e+05
   7.803283e+04  -7.130351e+03
   2.008846e+04  -3.967191e+05
   1.081406e+05  -5.522298e+05
   3.582305e+05  -1.815393e+05
   4.518212e+05   4.309033e+05
   1.231779e+05   6.880125e+05
  -4.383802e+05   3.246603e+05
  -6.831100e+05  -3.022178e+05
  -2.637220e+05  -6.091624e+05
   5.142450e+05  -3.863795e+05
   9.082039e+05   7.756105e+04
   4.994907e+05   3.871480e+05
  -3.028912e+05   4.014632e+05
  -6.599552e+05   2.219325e+05
  -2.382503e+05   1.510268e+04
   3.982300e+05  -6.012563e+04
   4.464548e+05   8.972826e+04
  -1.932352e+05   3.329821e+05
  -8.159162e+05   3.059824e+05
