
 $NMID
 id='ANONYMOUS ', fmtdat='(2E16.6)'
 volume=1.0
 tramp=1.0
 $END
   2.251329e+07  -6.638749e+05
   1.562655e+07   9.991819e+06
   6.452511e+05   1.434960e+07
  -9.539337e+06   1.008183e+07
  -8.456532e+06   1.381733e+06
  -7.546017e+05  -4.162931e+06
   4.689989e+06  -2.347387e+06
   3.770057e+06   3.605954e+06
  -8.740538e+05   6.530869e+06
  -4.278500e+06   3.062111e+06
  -3.820258e+06  -2.898059e+06
  -5.668784e+05  -4.859178e+06
   2.215356e+06  -1.025395e+06
   1.866234e+06   4.067802e+06
  -1.254356e+06   4.864324e+06
  -3.890779e+06   6.079305e+05
  -3.042326e+06  -4.447645e+06
   8.462876e+05  -5.785875e+06
   4.290035e+06  -2.839828e+06
   4.437056e+06   1.225539e+06
   1.892699e+06   3.110080e+06
  -2.699318e+05   2.402706e+06
   6.328770e+04   1.303143e+06
   1.877889e+06   1.798081e+06
   2.196081e+06   3.445747e+06
  -6.298337e+05   4.046451e+06
  -4.760245e+06   2.254782e+06
  -6.321645e+06  -8.666057e+05
  -3.449442e+06  -2.932290e+06
   1.334134e+06  -2.520989e+06
   3.487213e+06  -2.827326e+05
   1.285205e+06   1.791307e+06
  -2.439517e+06   1.918668e+06
  -3.703189e+06  -1.575605e+05
  -1.714984e+06  -2.766201e+06
   9.017509e+05  -3.473787e+06
   1.607656e+06  -1.456530e+06
   5.058015e+05   1.236750e+06
  -5.751156e+05   1.615352e+06
  -4.132014e+05  -7.336639e+05
   7.204386e+05  -2.874441e+06
   1.753976e+06  -1.968407e+06
   1.692333e+06   1.131481e+06
   2.538234e+05   2.799922e+06
  -1.605050e+06   1.031265e+06
  -2.022456e+06  -2.195575e+06
   3.027364e+04  -3.334698e+06
   3.146221e+06  -1.227229e+06
   4.346304e+06   2.009571e+06
   2.099874e+06   3.526849e+06
  -1.800034e+06   2.407683e+06
  -3.883211e+06  -1.267071e+04
  -2.505165e+06  -1.692279e+06
   6.158301e+05  -1.552620e+06
   2.367184e+06  -1.404866e+05
   1.428899e+06   1.000634e+06
  -6.616949e+05   7.795568e+05
  -1.432377e+06  -4.153650e+05
  -1.725279e+05  -1.186542e+06
   1.425352e+06  -6.469812e+05
   1.265744e+06   6.605868e+05
  -7.132774e+05   1.357190e+06
  -2.358741e+06   5.625698e+05
  -1.624598e+06  -1.324281e+06
   1.166995e+06  -2.886499e+06
   3.645969e+06  -2.705526e+06
   3.868756e+06  -5.343050e+05
   2.126091e+06   2.270951e+06
   2.364974e+05   3.772228e+06
  -5.404622e+05   3.250965e+06
  -5.250345e+05   1.840642e+06
  -7.563296e+05   1.070061e+06
  -1.613409e+06   1.018098e+06
  -2.457065e+06   4.661723e+05
  -2.370058e+06  -1.137021e+06
  -1.053990e+06  -2.569366e+06
   8.361008e+05  -2.166120e+06
   2.049487e+06   6.896902e+04
   1.611826e+06   2.240257e+06
  -2.885675e+05   2.479811e+06
  -2.227983e+06   7.432481e+05
  -2.674041e+06  -1.383102e+06
  -1.416736e+06  -2.355451e+06
   2.490425e+05  -1.957560e+06
   9.582655e+05  -1.118000e+06
   7.719359e+05  -7.591977e+05
   9.391295e+05  -9.034544e+05
   2.140577e+06  -7.870631e+05
   3.349591e+06   2.513353e+05
   2.827943e+06   1.981956e+06
   2.251099e+05   3.318647e+06
  -2.682789e+06   3.169422e+06
  -3.609962e+06   1.413396e+06
  -2.038414e+06  -8.264581e+05
   3.150943e+05  -1.971243e+06
   1.298679e+06  -1.327938e+06
   3.998170e+05   2.102021e+05
  -1.034277e+06   9.800426e+05
  -1.417358e+06   2.727548e+05
  -5.059987e+05  -8.805583e+05
   5.886327e+05  -9.278152e+05
   6.765001e+05   2.603964e+05
  -3.647369e+05   1.094392e+06
  -1.533905e+06   1.360359e+05
  -1.590651e+06  -2.047626e+06
  -1.068793e+05  -3.323674e+06
   2.071504e+06  -2.264827e+06
   3.360263e+06   3.521239e+05
   2.717719e+06   2.410574e+06
   6.442519e+05   2.556088e+06
  -1.169052e+06   1.273787e+06
  -1.411707e+06   8.303320e+04
  -4.110331e+05  -3.561567e+04
   3.185591e+05   6.060912e+05
  -1.981924e+05   9.810505e+05
  -1.317002e+06   4.882614e+05
  -1.575453e+06  -4.759663e+05
  -4.605531e+05  -9.874949e+05
   8.976763e+05  -5.640613e+05
   9.355883e+05   3.395668e+05
  -5.598597e+05   7.650876e+05
  -2.090674e+06   1.576966e+05
  -1.961574e+06  -1.099707e+06
  -6.792883e+04  -1.977537e+06
   1.952800e+06  -1.670637e+06
   2.360452e+06  -3.450295e+05
   1.004044e+06   9.183752e+05
  -6.526939e+05   1.070352e+06
  -1.068490e+06   1.334188e+05
  -6.304860e+04  -7.706703e+05
   1.200370e+06  -5.869061e+05
   1.458229e+06   5.172502e+05
   5.058776e+05   1.345661e+06
  -7.272455e+05   1.035824e+06
  -1.115096e+06   9.372817e+03
  -4.037557e+05  -5.653069e+05
   5.386741e+05  -9.924622e+04
   5.716367e+05   8.275814e+05
  -5.136669e+05   1.148502e+06
  -1.677268e+06   3.981575e+05
  -1.660715e+06  -8.851507e+05
  -3.413776e+05  -1.682882e+06
   1.096208e+06  -1.380543e+06
   1.399814e+06  -2.793899e+05
   5.155197e+05   6.718347e+05
  -4.905544e+05   7.339237e+05
  -6.436790e+05   5.983414e+04
  -3.073910e+03  -5.132306e+05
   5.783628e+05  -3.962130e+05
   4.439428e+05   1.154331e+05
  -2.033165e+05   2.410765e+05
  -5.484805e+05  -3.137303e+05
  -1.818927e+04  -9.530786e+05
   1.075290e+06  -8.153107e+05
   1.739562e+06   2.824141e+05
   1.235547e+06   1.587357e+06
  -1.554854e+05   2.074380e+06
  -1.365908e+06   1.361942e+06
  -1.580609e+06   3.655466e+04
  -9.694920e+05  -8.923386e+05
  -3.445851e+05  -9.065870e+05
  -2.100330e+05  -3.988856e+05
  -3.034954e+05  -1.661641e+05
  -5.623396e+04  -4.889007e+05
   6.483111e+05  -8.105215e+05
   1.257386e+06  -4.163954e+05
   1.060271e+06   6.358404e+05
  -8.136363e+04   1.423093e+06
  -1.454898e+06   1.064047e+06
  -1.975142e+06  -3.370263e+05
  -1.095599e+06  -1.712588e+06
   6.394090e+05  -1.990483e+06
   1.990555e+06  -1.030460e+06
   2.076932e+06   3.317110e+05
   1.088923e+06   1.107798e+06
  -1.955343e+04   1.027911e+06
  -4.849300e+05   6.414790e+05
  -3.497680e+05   6.026772e+05
  -2.131416e+05   9.153817e+05
  -4.956679e+05   9.544260e+05
  -9.893935e+05   2.390208e+05
  -1.091743e+06  -9.122352e+05
  -4.635948e+05  -1.599324e+06
   5.352837e+05  -1.215574e+06
   1.101891e+06  -4.986775e+04
   7.516650e+05   9.842329e+05
  -1.704618e+05   1.166757e+06
  -8.120363e+05   5.260127e+05
  -6.749758e+05  -3.178071e+05
  -9.060455e+04  -7.643704e+05
   2.164995e+05  -6.994959e+05
  -2.349712e+04  -4.444157e+05
  -3.245064e+05  -3.272771e+05
  -2.609714e+04  -3.420196e+05
   8.852706e+05  -2.204385e+05
   1.628800e+06   2.076553e+05
   1.371103e+06   7.759767e+05
   1.249319e+05   1.103979e+06
  -1.159056e+06   9.323968e+05
  -1.480318e+06   3.568058e+05
  -7.622922e+05  -2.212959e+05
   1.375911e+05  -3.956784e+05
   3.815223e+05  -1.111161e+05
  -2.506278e+04   2.411432e+05
  -4.300837e+05   1.863268e+05
  -3.855799e+05  -2.875637e+05
  -8.031436e+04  -6.433897e+05
   4.485991e+04  -4.094003e+05
  -1.326063e+05   1.755469e+05
  -3.412351e+05   3.643500e+05
  -2.609535e+05  -1.781961e+05
   1.797394e+05  -8.779691e+05
   7.415354e+05  -8.799073e+05
   9.833022e+05  -7.094354e+04
   5.640990e+05   7.659825e+05
  -3.388806e+05   8.351295e+05
  -9.623076e+05   1.632371e+05
  -6.003410e+05  -5.222299e+05
   5.528330e+05  -5.818760e+05
   1.406227e+06  -8.049027e+03
   1.041925e+06   6.894824e+05
  -2.693365e+05   9.587304e+05
  -1.307176e+06   6.112782e+05
  -1.173725e+06  -5.256651e+04
  -1.885235e+05  -4.693158e+05
   5.339822e+05  -3.000486e+05
   2.852990e+05   2.023235e+05
  -5.546108e+05   3.788368e+05
  -9.880117e+05  -1.631614e+05
  -4.507414e+05  -1.048123e+06
   6.376865e+05  -1.392552e+06
   1.326018e+06  -6.638402e+05
   1.063928e+06   6.941258e+05
   1.572839e+05   1.561564e+06
  -6.351174e+05   1.181515e+06
  -8.213034e+05  -6.527274e+04
  -4.625059e+05  -1.011852e+06
   7.546207e+04  -8.995610e+05
   4.501782e+05  -1.231149e+05
   4.821731e+05   3.441253e+05
   2.298308e+05   1.495040e+05
   7.880609e+03  -1.112439e+05
   1.143374e+05   1.861820e+05
   3.929955e+05   7.995623e+05
   2.752405e+05   9.497333e+05
  -4.888901e+05   3.658528e+05
  -1.286424e+06  -3.993505e+05
  -1.204374e+06  -7.187719e+05
  -1.741095e+05  -5.781600e+05
   8.202445e+05  -3.481774e+05
   8.794190e+05  -1.912806e+05
   2.370559e+05  -1.078033e+04
  -1.590289e+05   1.830875e+05
   7.152195e+04   2.318522e+05
   3.354131e+05   1.449848e+05
  -2.187231e+02   1.194594e+05
  -6.840026e+05   1.533512e+05
  -8.803148e+05  -4.795832e+04
  -2.060087e+05  -5.703309e+05
   8.284176e+05  -9.321439e+05
   1.381097e+06  -5.576317e+05
   1.066087e+06   4.355054e+05
   1.812855e+05   1.221064e+06
  -6.352807e+05   1.134702e+06
  -8.958860e+05   3.785932e+05
  -5.716152e+05  -2.641053e+05
  -6.527683e+04  -3.037354e+05
   1.508859e+05   1.020791e+04
  -3.754816e+04   8.725694e+04
  -3.047438e+05  -2.859560e+05
  -2.476908e+05  -6.932982e+05
   1.795415e+05  -5.551714e+05
   5.987746e+05   1.807877e+05
   5.577471e+05   8.861853e+05
  -2.443482e+04   8.663824e+05
  -7.033021e+05   1.040427e+05
  -8.399264e+05  -7.155046e+05
  -2.203334e+05  -9.257256e+05
   6.293326e+05  -4.961071e+05
   9.032962e+05   1.026418e+05
   3.926650e+05   4.581548e+05
  -2.419618e+05   4.853864e+05
  -2.452722e+05   2.914153e+05
   2.991454e+05   4.823659e+04
   5.777887e+05  -1.123942e+04
   9.139153e+04   2.459150e+05
  -7.119638e+05   5.831800e+05
  -1.006001e+06   5.180433e+05
  -5.617730e+05  -8.586506e+04
   9.833699e+04  -7.047541e+05
   4.009040e+05  -6.905825e+05
   2.736685e+05  -7.192541e+04
  -8.122108e+03   4.445302e+05
  -2.242487e+05   3.197508e+05
  -3.009613e+05  -2.090261e+05
  -1.972087e+05  -4.981504e+05
   6.906775e+04  -2.903178e+05
   3.283054e+05   7.768155e+04
   3.763071e+05   1.885334e+05
   2.065535e+05   3.530670e+04
   1.062126e+04  -6.459106e+04
  -7.318604e+04   9.145005e+04
  -1.066407e+05   3.491597e+05
  -2.035348e+05   3.756279e+05
  -3.201609e+05   3.512428e+04
  -2.767565e+05  -4.206621e+05
   1.664109e+04  -5.622302e+05
   3.915580e+05  -2.219199e+05
   5.077333e+05   2.985030e+05
   1.666615e+05   5.232824e+05
  -4.133906e+05   2.938249e+05
  -7.030697e+05  -1.107771e+05
  -3.794874e+05  -3.298481e+05
   2.540611e+05  -2.774691e+05
   5.241570e+05  -1.129686e+05
   1.509594e+05  -1.472943e+03
  -3.813604e+05  -1.370098e+04
  -3.779723e+05  -1.502408e+05
   2.207576e+05  -2.966584e+05
   7.549151e+05  -2.136487e+05
