
 $NMID
 id='ANONYMOUS ', fmtdat='(2E16.6)'
 volume=1.0
 tramp=1.0
 $END
  -1.690312e+07  -1.047346e+05
  -1.215677e+07  -6.643129e+06
  -1.293584e+06  -1.049772e+07
   7.033889e+06  -8.777747e+06
   7.135994e+06  -2.238275e+06
   1.171744e+06   3.335746e+06
  -3.920663e+06   2.620489e+06
  -3.675828e+06  -2.768100e+06
   3.446849e+05  -5.915467e+06
   3.506714e+06  -2.964483e+06
   3.127105e+06   2.483591e+06
   3.125943e+05   4.190814e+06
  -1.926316e+06   6.510240e+05
  -1.520939e+06  -3.827790e+06
   1.060119e+06  -4.430869e+06
   3.228440e+06  -7.210266e+05
   2.575081e+06   3.600801e+06
  -6.213270e+05   4.708667e+06
  -3.422047e+06   2.139980e+06
  -3.317047e+06  -1.237800e+06
  -1.020449e+06  -2.436078e+06
   4.816274e+05  -1.393604e+06
  -4.662910e+05  -5.824248e+05
  -2.297458e+06  -1.719525e+06
  -2.128831e+06  -3.643059e+06
   9.271674e+05  -3.876836e+06
   4.619597e+06  -1.658427e+06
   5.598275e+06   1.314742e+06
   2.690647e+06   2.809223e+06
  -1.631160e+06   2.002805e+06
  -3.352054e+06  -2.219520e+05
  -9.804270e+05  -2.058281e+06
   2.732234e+06  -1.885959e+06
   3.795118e+06   4.259739e+05
   1.460788e+06   2.959206e+06
  -1.267677e+06   3.256292e+06
  -1.586722e+06   9.882134e+05
  -2.654112e+04  -1.376782e+06
   9.590306e+05  -1.231883e+06
   3.001871e+05   1.121717e+06
  -9.903359e+05   2.813636e+06
  -1.687206e+06   1.784819e+06
  -1.490823e+06  -8.674238e+05
  -5.315593e+05  -2.251884e+06
   8.170989e+05  -9.580760e+05
   1.430903e+06   1.509795e+06
   1.226606e+05   2.479624e+06
  -2.472862e+06   8.942008e+05
  -3.755794e+06  -1.775761e+06
  -1.927997e+06  -3.151170e+06
   1.607929e+06  -2.219016e+06
   3.573497e+06  -4.148305e+04
   2.376259e+06   1.492124e+06
  -3.988102e+05   1.393537e+06
  -1.990945e+06   1.971475e+05
  -1.274014e+06  -7.796134e+05
   5.184853e+05  -6.449414e+05
   1.329230e+06   3.762421e+05
   3.327983e+05   1.206527e+06
  -1.270005e+06   9.224684e+05
  -1.490041e+06  -2.984523e+05
   1.746268e+05  -1.224307e+06
   1.891422e+06  -7.361942e+05
   1.428030e+06   9.651794e+05
  -1.158581e+06   2.401335e+06
  -3.450641e+06   2.151592e+06
  -3.430448e+06   1.752146e+05
  -1.602405e+06  -2.157832e+06
   3.439401e+04  -3.314415e+06
   4.698854e+05  -2.913387e+06
   4.140334e+05  -1.860369e+06
   8.771977e+05  -1.196066e+06
   1.854803e+06  -9.112450e+05
   2.524349e+06  -1.398823e+05
   2.174474e+06   1.412635e+06
   7.576362e+05   2.629711e+06
  -1.037287e+06   2.061217e+06
  -2.056254e+06  -2.035997e+05
  -1.450256e+06  -2.270028e+06
   4.337561e+05  -2.323104e+06
   2.110706e+06  -4.873091e+05
   2.264408e+06   1.483082e+06
   1.007549e+06   2.133324e+06
  -3.507644e+05   1.551472e+06
  -7.779570e+05   8.113046e+05
  -5.658200e+05   6.527933e+05
  -8.209746e+05   8.707077e+05
  -1.994638e+06   7.155388e+05
  -3.091505e+06  -3.154284e+05
  -2.558832e+06  -1.930803e+06
  -8.584692e+04  -3.108615e+06
   2.663814e+06  -2.845377e+06
   3.477145e+06  -1.104128e+06
   1.844777e+06   9.510627e+05
  -4.817617e+05   1.854539e+06
  -1.345782e+06   1.137255e+06
  -3.526493e+05  -2.468623e+05
   1.037304e+06  -8.541760e+05
   1.312467e+06  -1.840292e+05
   3.902355e+05   8.257718e+05
  -6.220468e+05   8.445740e+05
  -6.816471e+05  -2.647846e+05
   3.001063e+05  -1.107393e+06
   1.452279e+06  -2.770059e+05
   1.598502e+06   1.847256e+06
   2.079112e+05   3.223680e+06
  -1.957338e+06   2.280660e+06
  -3.256371e+06  -3.301272e+05
  -2.594883e+06  -2.410469e+06
  -5.380650e+05  -2.500720e+06
   1.179504e+06  -1.154016e+06
   1.346831e+06   4.257432e+03
   3.846825e+05   5.109429e+04
  -2.761868e+05  -5.795912e+05
   2.018681e+05  -8.886349e+05
   1.208754e+06  -4.033170e+05
   1.438503e+06   4.674431e+05
   4.158361e+05   9.130771e+05
  -8.536749e+05   5.066500e+05
  -8.992423e+05  -3.538270e+05
   5.346403e+05  -7.551735e+05
   2.023113e+06  -1.317828e+05
   1.886956e+06   1.116817e+06
   2.495500e+04   1.923341e+06
  -1.914782e+06   1.536365e+06
  -2.241764e+06   2.413231e+05
  -9.015448e+05  -8.815174e+05
   6.380191e+05  -9.438380e+05
   9.665340e+05  -7.528720e+04
   6.929084e+03   7.017859e+05
  -1.141000e+06   4.935989e+05
  -1.352138e+06  -5.251835e+05
  -4.576048e+05  -1.281330e+06
   6.958797e+05  -9.828036e+05
   1.061483e+06  -9.345488e+03
   3.916770e+05   5.336155e+05
  -4.870725e+05   7.998676e+04
  -4.924183e+05  -7.926072e+05
   5.391259e+05  -1.048118e+06
   1.592742e+06  -2.895467e+05
   1.513408e+06   9.060247e+05
   2.506065e+05   1.586626e+06
  -1.070752e+06   1.250713e+06
  -1.320012e+06   2.204958e+05
  -4.729541e+05  -6.441705e+05
   4.821973e+05  -6.797680e+05
   6.282641e+05  -2.651283e+04
  -2.200921e+03   5.219104e+05
  -5.931632e+05   3.865527e+05
  -4.746282e+05  -1.414594e+05
   1.720517e+05  -2.750052e+05
   5.245246e+05   2.739365e+05
   1.059720e+04   8.903042e+05
  -1.031852e+06   7.314734e+05
  -1.622173e+06  -3.303028e+05
  -1.092972e+06  -1.539037e+06
   2.331687e+05  -1.951639e+06
   1.347427e+06  -1.252936e+06
   1.518838e+06   1.000131e+04
   9.176584e+05   9.092555e+05
   2.963587e+05   9.345825e+05
   1.434644e+05   4.228883e+05
   2.375365e+05   1.505224e+05
   2.846510e+04   4.340737e+05
  -6.297938e+05   7.442255e+05
  -1.209572e+06   3.623143e+05
  -1.002005e+06  -6.514945e+05
   1.168699e+05  -1.372139e+06
   1.418000e+06  -9.665555e+05
   1.859198e+06   3.920175e+05
   9.815424e+05   1.650332e+06
  -6.506022e+05   1.845552e+06
  -1.891623e+06   9.124956e+05
  -1.958903e+06  -3.630744e+05
  -1.028273e+06  -1.088509e+06
   3.675035e+04  -1.010016e+06
   5.149416e+05  -6.203192e+05
   4.079702e+05  -5.440522e+05
   2.631761e+05  -8.169266e+05
   4.950631e+05  -8.524150e+05
   9.228437e+05  -1.762995e+05
   9.803827e+05   9.069229e+05
   3.643560e+05   1.526011e+06
  -5.596461e+05   1.120913e+06
  -1.042814e+06   7.630218e+03
  -6.767915e+05  -9.418379e+05
   1.826054e+05  -1.089579e+06
   7.574862e+05  -4.941905e+05
   6.211589e+05   2.789578e+05
   8.826950e+04   6.981995e+05
  -1.912985e+05   6.575468e+05
   1.955818e+04   4.372103e+05
   2.830845e+05   3.304301e+05
   4.722420e+03   3.264664e+05
  -8.278238e+05   1.767522e+05
  -1.503659e+06  -2.535972e+05
  -1.257967e+06  -7.729249e+05
  -9.837596e+04  -1.025732e+06
   1.098364e+06  -8.216883e+05
   1.397785e+06  -2.934178e+05
   7.197837e+05   2.060112e+05
  -1.312097e+05   3.511185e+05
  -3.552045e+05   1.033423e+05
   4.315799e+04  -2.043660e+05
   4.235155e+05  -1.500573e+05
   3.462888e+05   2.875591e+05
   2.170623e+04   6.147435e+05
  -8.412448e+04   3.836171e+05
   1.363497e+05  -1.772100e+05
   3.579432e+05  -3.492264e+05
   2.431432e+05   1.762575e+05
  -2.200433e+05   8.267015e+05
  -7.339324e+05   7.914801e+05
  -8.969660e+05   9.169664e+03
  -4.674551e+05  -7.442936e+05
   3.534639e+05  -7.470644e+05
   8.936584e+05  -8.811102e+04
   5.379394e+05   5.256426e+05
  -5.389315e+05   5.298980e+05
  -1.337046e+06  -3.841115e+04
  -9.871096e+05  -6.889887e+05
   2.702884e+05  -9.149232e+05
   1.266843e+06  -5.566314e+05
   1.128514e+06   8.165028e+04
   1.708007e+05   4.573221e+05
  -5.135772e+05   2.727031e+05
  -2.521506e+05  -1.940665e+05
   5.503953e+05  -3.192474e+05
   9.198521e+05   2.163959e+05
   3.540680e+05   1.015997e+06
  -6.900033e+05   1.272165e+06
  -1.291697e+06   5.480212e+05
  -9.702656e+05  -7.119025e+05
  -7.469112e+04  -1.486042e+06
   6.531946e+05  -1.100670e+06
   7.782482e+05   8.193556e+04
   4.092441e+05   9.744720e+05
  -8.992462e+04   8.598007e+05
  -4.245016e+05   1.061289e+05
  -4.557961e+05  -3.510073e+05
  -2.277320e+05  -1.581791e+05
  -5.899650e+03   1.106691e+05
  -7.500499e+04  -1.669782e+05
  -3.263242e+05  -7.664752e+05
  -2.390341e+05  -9.144208e+05
   4.534891e+05  -3.293535e+05
   1.200599e+06   4.352621e+05
   1.125708e+06   7.336478e+05
   1.414330e+05   5.495310e+05
  -8.077569e+05   2.887894e+05
  -8.460792e+05   1.476347e+05
  -2.099444e+05   1.117584e+04
   1.652647e+05  -1.633285e+05
  -7.745029e+04  -2.339824e+05
  -3.316956e+05  -1.656820e+05
   1.461457e+04  -1.136006e+05
   6.761916e+05  -1.029281e+05
   8.249222e+05   9.319787e+04
   1.345636e+05   5.420992e+05
  -8.460538e+05   8.253480e+05
  -1.312758e+06   4.447302e+05
  -9.561344e+05  -4.727093e+05
  -1.037887e+05  -1.163639e+06
   6.466490e+05  -1.032610e+06
   8.616154e+05  -2.989868e+05
   5.290344e+05   2.890619e+05
   3.734250e+04   2.886573e+05
  -1.605371e+05  -3.104200e+04
   3.308172e+04  -9.602937e+04
   2.845045e+05   2.779011e+05
   2.094780e+05   6.658487e+05
  -2.002408e+05   5.098070e+05
  -5.594844e+05  -2.145491e+05
  -4.691173e+05  -8.765898e+05
   8.922100e+04  -8.121150e+05
   6.803434e+05  -4.233098e+04
   7.490696e+05   7.347197e+05
   1.484320e+05   8.816829e+05
  -6.203260e+05   4.208760e+05
  -8.356273e+05  -1.466518e+05
  -3.361736e+05  -4.359108e+05
   2.494872e+05  -4.263138e+05
   2.276667e+05  -2.588698e+05
  -2.986327e+05  -6.840342e+04
  -5.502061e+05  -2.102254e+04
  -6.758147e+04  -2.322472e+05
   6.997236e+05  -5.177461e+05
   9.576565e+05  -4.546492e+05
   5.067027e+05   9.226718e+04
  -1.285754e+05   6.517285e+05
  -3.943926e+05   6.241368e+05
  -2.415678e+05   4.114191e+04
   4.013150e+04  -4.262275e+05
   2.303811e+05  -2.796751e+05
   2.737993e+05   2.292223e+05
   1.585140e+05   4.798651e+05
  -8.352729e+04   2.541351e+05
  -3.045541e+05  -9.709762e+04
  -3.397496e+05  -1.838872e+05
  -1.932016e+05  -3.256112e+04
  -2.149682e+04   4.631385e+04
   7.432701e+04  -1.109538e+05
   1.425626e+05  -3.341521e+05
   2.442766e+05  -3.233976e+05
   3.133849e+05   1.522230e+04
   2.158162e+05   4.303137e+05
  -7.499732e+04   5.307322e+05
  -3.887833e+05   1.805533e+05
  -4.514220e+05  -3.180546e+05
  -1.215668e+05  -5.083419e+05
   3.989449e+05  -2.538147e+05
   6.463246e+05   1.472237e+05
   3.358439e+05   3.301628e+05
  -2.529068e+05   2.355020e+05
  -4.943377e+05   6.405094e+04
  -1.283816e+05  -8.540923e+03
   3.776684e+05   4.703298e+04
   3.556300e+05   1.806816e+05
  -2.393137e+05   2.797715e+05
  -7.483796e+05   1.617242e+05
