
 $NMID
 id='ANONYMOUS ', fmtdat='(2E16.6)'
 volume=1.0
 tramp=1.0
 $END
   1.485989e+03   8.940280e+01
   1.001308e+03   9.886783e+02
  -1.491678e+02   9.891609e+02
  -7.727895e+02   4.603337e+02
  -2.121960e+02  -3.590344e+01
   2.838834e+02  -2.624749e+02
   3.747324e+02   8.154311e+01
  -1.210521e+01   3.677179e+02
  -3.278569e+02   3.807677e+02
  -2.875670e+02   3.369481e+01
  -1.590488e+02  -2.950683e+02
   9.525352e+01  -4.234853e+02
   2.154470e+02  -6.892697e+00
   1.103065e+02   2.965142e+02
  -9.156946e+01   2.817365e+02
  -2.239431e+02   3.098458e-01
  -1.066710e+02  -2.151771e+02
   9.539177e+01  -1.952358e+02
   2.040045e+02  -5.862822e+01
   1.484187e+02   1.588836e+02
  -2.512366e+01   1.781295e+02
  -1.095476e+02   9.463585e+01
  -7.544310e+01  -9.808334e-01
   4.083098e+01  -1.742155e+01
   1.211537e+02   4.849210e+01
   4.129718e+01   1.644205e+02
  -1.691847e+02   1.371280e+02
  -2.718270e+02  -3.845569e+01
  -1.403683e+02  -2.071200e+02
   1.550797e+02  -1.712300e+02
   2.600251e+02   4.603648e+01
   1.210407e+02   1.859942e+02
  -1.140867e+02   1.923523e+02
  -2.206363e+02   4.774982e+01
  -1.449480e+02  -9.485143e+01
  -6.241436e+00  -1.827538e+02
   1.007336e+02  -1.121181e+02
   6.644234e+01   8.405906e+01
  -8.239150e+01   1.732391e+02
  -1.821368e+02  -4.802838e+00
  -8.345161e+01  -2.627627e+02
   1.455594e+02  -2.597793e+02
   2.423776e+02   2.661512e+01
   8.215176e+01   2.374009e+02
  -1.344610e+02   1.209138e+02
  -1.508717e+02  -1.291861e+02
   3.819650e+01  -2.047863e+02
   2.140676e+02  -2.260187e+01
   1.998446e+02   1.842131e+02
   2.242910e+01   2.231209e+02
  -1.740341e+02   1.043392e+02
  -2.379017e+02  -6.471110e+01
  -1.152807e+02  -1.686438e+02
   8.228186e+01  -1.406593e+02
   1.736773e+02  -3.637159e+00
   7.811079e+01   9.473578e+01
  -5.831917e+01   4.196139e+01
  -5.322448e+01  -7.287074e+01
   7.278621e+01  -7.805845e+01
   1.322504e+02   3.857807e+01
   3.949869e+01   1.232693e+02
  -9.199791e+01   8.657256e+01
  -1.248666e+02   1.276070e+00
  -5.892401e+01  -4.803626e+01
   2.920256e+01  -7.546443e+01
   9.857449e+01  -9.621373e+01
   1.320804e+02  -5.496409e+01
   9.613815e+01   6.654889e+01
  -8.270725e-01   1.619153e+02
  -7.156574e+01   1.310159e+02
  -5.214689e+01   3.202204e+01
  -1.226744e-01  -3.990061e+00
  -1.465445e+01   3.590050e+01
  -8.629844e+01   4.304001e+01
  -1.159940e+02  -3.535273e+01
  -5.292706e+01  -1.172564e+02
   4.164823e+01  -1.025248e+02
   9.052076e+01  -2.626300e+00
   6.661906e+01   9.491128e+01
  -1.282442e+01   1.140702e+02
  -9.955551e+01   3.948028e+01
  -1.239906e+02  -7.855887e+01
  -5.338354e+01  -1.502252e+02
   5.649413e+01  -1.146561e+02
   9.666618e+01  -2.703742e+01
   6.248685e+01   1.680325e+01
   4.201431e+01  -2.970670e+00
   9.190490e+01  -1.103979e+01
   1.447113e+02   4.668502e+01
   1.063599e+02   1.316584e+02
  -2.588751e+01   1.694506e+02
  -1.534817e+02   1.335809e+02
  -1.919671e+02   4.918323e+01
  -1.253289e+02  -5.271854e+01
  -9.352865e+00  -1.126763e+02
   6.269757e+01  -8.893979e+01
   4.013149e+01  -4.413202e+00
  -4.496263e+01   3.904756e+01
  -7.812615e+01  -1.155677e+01
  -1.433059e+01  -7.696794e+01
   6.900314e+01  -5.456744e+01
   6.423038e+01   3.614270e+01
  -2.155125e+01   7.159817e+01
  -8.085799e+01  -3.478184e+00
  -4.786097e+01  -1.060580e+02
   3.554617e+01  -1.280274e+02
   1.004991e+02  -5.780454e+01
   1.199620e+02   4.066769e+01
   9.312702e+01   1.039318e+02
   2.330168e+01   1.090349e+02
  -5.533732e+01   6.169399e+01
  -7.485970e+01   4.925859e-01
  -2.254840e+01  -1.971665e+01
   2.853625e+01   1.511997e+01
   7.177837e+00   5.195550e+01
  -5.607200e+01   3.701471e+01
  -7.344091e+01  -1.204922e+01
  -2.151601e+01  -3.291651e+01
   3.130297e+01  -5.759577e+00
   1.764996e+01   2.766008e+01
  -5.086914e+01   2.527613e+01
  -1.055017e+02  -1.357081e+01
  -9.182882e+01  -6.368278e+01
  -1.100361e+01  -9.932150e+01
   8.160216e+01  -9.263848e+01
   1.155550e+02  -3.633726e+01
   6.605345e+01   2.959307e+01
  -1.256164e+01   4.393343e+01
  -3.609247e+01  -3.173894e-01
   1.587545e+01  -3.820768e+01
   7.824074e+01  -1.206155e+01
   7.818283e+01   5.338075e+01
   1.696256e+01   8.602064e+01
  -4.509531e+01   5.603079e+01
  -5.861735e+01   3.337503e+00
  -2.696964e+01  -1.883462e+01
   9.445384e+00   1.487734e+00
   9.988148e+00   3.437567e+01
  -3.275183e+01   3.956169e+01
  -7.803137e+01   6.402631e-01
  -6.853784e+01  -5.794036e+01
   3.134382e+00  -8.578921e+01
   7.440428e+01  -5.424379e+01
   7.709621e+01   1.011938e+01
   1.784696e+01   5.059985e+01
  -3.499022e+01   4.142813e+01
  -3.630550e+01   7.754676e+00
  -5.975218e+00  -1.087918e+01
   9.085249e+00  -6.773782e+00
  -4.500885e+00   1.764199e+00
  -2.701947e+01  -6.589618e+00
  -3.019883e+01  -3.388057e+01
   1.792578e-01  -6.028525e+01
   5.431321e+01  -5.360212e+01
   9.168301e+01  -3.038433e-01
   7.308268e+01   6.817821e+01
   5.407685e+00   9.674952e+01
  -5.258383e+01   6.195348e+01
  -5.684837e+01   3.776167e+00
  -2.649632e+01  -2.606293e+01
  -9.574336e+00  -1.541372e+01
  -2.188826e+01   1.387917e+00
  -3.057162e+01  -2.738393e+00
  -1.299983e+01  -2.100129e+01
   1.973479e+01  -2.958278e+01
   3.887677e+01  -1.460275e+01
   2.787811e+01   1.586261e+01
  -1.131347e+01   3.727118e+01
  -5.651341e+01   2.362604e+01
  -7.040494e+01  -2.782334e+01
  -2.662339e+01  -8.010620e+01
   5.302376e+01  -8.158678e+01
   1.072088e+02  -2.381204e+01
   9.400713e+01   4.680782e+01
   3.157740e+01   7.550602e+01
  -2.289534e+01   5.589661e+01
  -4.018095e+01   2.703754e+01
  -3.396345e+01   2.121736e+01
  -3.121193e+01   3.038666e+01
  -3.980874e+01   2.373484e+01
  -4.719677e+01  -1.446992e+01
  -3.587542e+01  -6.407775e+01
   2.386504e-01  -8.737343e+01
   4.530122e+01  -6.051628e+01
   6.682799e+01   1.335949e+00
   4.567480e+01   5.360608e+01
  -3.379933e-01   6.191364e+01
  -3.051329e+01   3.185244e+01
  -2.430094e+01  -2.328789e+00
  -1.699059e+00  -1.573689e+01
   4.121540e+00  -1.247163e+01
  -1.324669e+01  -1.016877e+01
  -2.862096e+01  -1.496273e+01
  -1.508514e+01  -1.916849e+01
   2.560486e+01  -1.249581e+01
   6.023432e+01   5.859269e+00
   5.411575e+01   2.628533e+01
   5.234698e+00   3.450450e+01
  -4.643096e+01   2.296173e+01
  -5.548783e+01  -4.580627e-01
  -1.796554e+01  -1.580704e+01
   2.315273e+01  -9.572516e+00
   2.722368e+01   1.129220e+01
  -1.090863e+00   2.547230e+01
  -2.489839e+01   1.812997e+01
  -2.450584e+01  -4.204757e+00
  -1.402954e+01  -2.108642e+01
  -1.333303e+01  -1.865578e+01
  -2.181461e+01  -5.427903e+00
  -2.393356e+01  -4.373195e+00
  -9.765800e+00  -2.592635e+01
   1.874332e+01  -5.112722e+01
   4.936543e+01  -4.613124e+01
   6.225276e+01  -4.916833e+00
   4.171297e+01   3.858810e+01
  -2.898526e+00   4.557185e+01
  -3.421450e+01   1.731554e+01
  -2.061638e+01  -9.028860e+00
   2.413816e+01  -3.147331e+00
   4.949235e+01   2.579445e+01
   2.215644e+01   4.599664e+01
  -3.746086e+01   3.781220e+01
  -7.514242e+01   7.905638e+00
  -5.922367e+01  -2.278172e+01
  -9.155027e+00  -3.545918e+01
   2.697760e+01  -2.361254e+01
   1.951406e+01  -1.267070e-01
  -1.501028e+01   8.933405e+00
  -3.220130e+01  -1.160840e+01
  -6.243707e+00  -4.515166e+01
   4.213247e+01  -5.307920e+01
   6.609430e+01  -1.468497e+01
   4.170865e+01   4.530274e+01
  -8.343121e+00   7.611531e+01
  -4.223287e+01   5.014021e+01
  -4.071132e+01  -9.213941e+00
  -1.697361e+01  -4.979832e+01
   6.699658e+00  -4.206581e+01
   1.915272e+01  -6.352741e+00
   1.906124e+01   1.418764e+01
   1.015466e+01   4.787785e+00
   2.605126e+00  -7.490963e+00
   6.562319e+00   6.449325e+00
   1.666658e+01   3.621329e+01
   1.125830e+01   4.411387e+01
  -1.946051e+01   1.573738e+01
  -5.096454e+01  -2.153932e+01
  -4.678659e+01  -3.421691e+01
  -4.627271e+00  -2.111819e+01
   3.501269e+01  -4.936380e+00
   3.479192e+01   1.713962e+00
   4.389154e+00   4.507485e+00
  -1.571149e+01   7.911188e+00
  -7.008230e+00   6.654410e+00
   7.016420e+00  -4.203610e-01
  -2.440984e+00  -5.291860e+00
  -2.738300e+01  -6.054331e+00
  -3.208579e+01  -1.349318e+01
   1.783469e+00  -3.044721e+01
   5.053888e+01  -3.709759e+01
   7.289692e+01  -1.239780e+01
   5.055048e+01   3.353274e+01
   2.318589e+00   6.329160e+01
  -3.713112e+01   5.292096e+01
  -4.668007e+01   1.654903e+01
  -3.047805e+01  -1.147559e+01
  -8.560684e+00  -1.415024e+01
   1.279842e+00  -3.581143e+00
  -3.464352e+00  -2.864876e+00
  -1.013167e+01  -1.904116e+01
  -4.167453e+00  -3.465281e+01
   1.493125e+01  -2.534756e+01
   3.060278e+01   1.087200e+01
   2.435937e+01   4.511578e+01
  -4.274240e+00   4.384216e+01
  -3.353608e+01   6.276115e+00
  -3.643172e+01  -3.285602e+01
  -7.652617e+00  -4.049347e+01
   2.736661e+01  -1.752087e+01
   3.568247e+01   9.082356e+00
   1.158611e+01   2.018137e+01
  -1.524188e+01   1.698424e+01
  -1.350535e+01   9.089823e+00
   1.230690e+01   2.322980e+00
   2.568364e+01   1.462853e+00
   3.912828e+00   9.778096e+00
  -3.317126e+01   2.002481e+01
  -4.661159e+01   1.557797e+01
  -2.380217e+01  -8.119354e+00
   9.706872e+00  -3.077409e+01
   2.403429e+01  -2.754075e+01
   1.444303e+01  -2.301788e-01
  -2.434104e+00   2.145617e+01
  -1.231474e+01   1.500372e+01
  -1.302994e+01  -9.079410e+00
  -7.127532e+00  -2.258638e+01
   2.878141e+00  -1.294567e+01
   1.177684e+01   4.810207e+00
   1.352095e+01   1.041088e+01
   7.612994e+00   1.891420e+00
   4.190264e-01  -5.399614e+00
  -2.900869e+00   1.733199e-01
  -4.897865e+00   1.265339e+01
  -8.675767e+00   1.505365e+01
  -1.194780e+01   2.298768e-01
  -8.101195e+00  -1.917550e+01
   4.532236e+00  -2.295782e+01
   1.805760e+01  -5.215613e+00
   1.976150e+01   1.790595e+01
   3.386525e+00   2.481506e+01
  -2.140578e+01   1.053097e+01
  -3.266138e+01  -9.735807e+00
  -1.737669e+01  -1.849302e+01
   1.178438e+01  -1.352712e+01
   2.519846e+01  -4.812895e+00
   9.532997e+00  -1.037788e+00
  -1.394560e+01  -3.199074e+00
  -1.348262e+01  -8.185089e+00
   1.364376e+01  -1.038453e+01
   3.617386e+01  -2.966399e+00
