
 $NMID
 id='ANONYMOUS ', fmtdat='(2E16.6)'
 volume=1.0
 tramp=1.0
 $END
  -3.663507e+03  -2.282425e+02
  -2.382704e+03  -2.335016e+03
   5.296907e+02  -2.314007e+03
   1.774547e+03  -1.083580e+03
   8.230055e+02   2.499055e+02
  -4.157232e+02   5.480156e+02
  -7.763940e+02  -4.321002e+02
  -4.780100e+01  -9.243806e+02
   7.697112e+02  -6.936805e+02
   8.392388e+02  -1.190699e+00
   4.137035e+02   7.337336e+02
  -1.729576e+02   8.252387e+02
  -5.065956e+02   1.444880e+02
  -2.795318e+02  -6.133581e+02
   2.410546e+02  -6.774962e+02
   5.529125e+02   1.506794e+01
   2.935500e+02   6.261008e+02
  -2.883734e+02   5.918198e+02
  -5.523533e+02   1.343794e+02
  -3.666642e+02  -3.347130e+02
   1.998212e+01  -4.192748e+02
   2.357470e+02  -2.334948e+02
   1.575799e+02  -2.033968e+01
  -1.491956e+02   8.234381e+01
  -4.168114e+02  -1.280358e+02
  -1.483537e+02  -4.187718e+02
   4.532869e+02  -3.554292e+02
   7.793870e+02   1.034222e+02
   3.493250e+02   5.233837e+02
  -4.282207e+02   4.226955e+02
  -7.011862e+02  -7.494047e+01
  -2.972615e+02  -4.843516e+02
   2.822826e+02  -4.411715e+02
   5.303809e+02  -1.624494e+02
   3.625738e+02   1.967903e+02
   5.137599e+01   4.226689e+02
  -1.859546e+02   2.507043e+02
  -1.379326e+02  -2.067689e+02
   1.969884e+02  -4.034302e+02
   4.248645e+02   3.056364e+01
   2.078680e+02   6.487007e+02
  -3.335620e+02   6.582671e+02
  -5.778627e+02  -3.000609e+01
  -2.074101e+02  -5.549510e+02
   3.162932e+02  -3.001594e+02
   3.793329e+02   3.230981e+02
  -7.823971e+01   5.349464e+02
  -5.433502e+02   1.202913e+02
  -5.702371e+02  -4.076462e+02
  -1.412421e+02  -5.672193e+02
   3.879509e+02  -3.253119e+02
   6.103631e+02   8.246834e+01
   3.489397e+02   3.679146e+02
  -1.592478e+02   3.343532e+02
  -4.232216e+02   4.059446e+01
  -2.225627e+02  -1.861317e+02
   1.170807e+02  -9.530176e+01
   1.378658e+02   1.412575e+02
  -1.483198e+02   1.627696e+02
  -3.115095e+02  -7.786594e+01
  -1.206469e+02  -2.779036e+02
   1.938041e+02  -2.339600e+02
   3.107188e+02  -5.927122e+01
   1.904214e+02   9.127906e+01
  -2.209764e+01   2.216256e+02
  -2.254030e+02   3.081868e+02
  -3.450720e+02   1.887841e+02
  -2.802560e+02  -1.573206e+02
  -4.779413e+01  -4.311403e+02
   1.422249e+02  -3.608003e+02
   1.270038e+02  -9.276031e+01
   1.899466e+01   1.751713e+01
   4.072477e+01  -8.700063e+01
   1.957659e+02  -1.268427e+02
   2.726032e+02   5.910965e+01
   1.453948e+02   2.725185e+02
  -8.001846e+01   2.500249e+02
  -2.192571e+02   1.249251e+00
  -1.816103e+02  -2.411246e+02
   1.572272e+01  -2.834018e+02
   2.520696e+02  -1.071402e+02
   3.374421e+02   1.616971e+02
   1.762610e+02   3.344280e+02
  -9.250087e+01   2.887942e+02
  -2.148050e+02   1.116236e+02
  -1.457635e+02   8.783356e-01
  -9.660331e+01   2.715443e+01
  -2.171528e+02   5.991221e+01
  -3.766941e+02  -4.814334e+01
  -3.154341e+02  -2.662768e+02
  -4.725574e-01  -4.202668e+02
   3.420406e+02  -3.954657e+02
   4.687823e+02  -1.887548e+02
   3.215560e+02   9.773304e+01
   4.606582e+01   2.854244e+02
  -1.351830e+02   2.391747e+02
  -8.019281e+01   2.477673e+01
   1.057619e+02  -1.049068e+02
   1.852810e+02   5.297249e+00
   4.410198e+01   1.829199e+02
  -1.549009e+02   1.590027e+02
  -1.658080e+02  -5.957998e+01
   2.135237e+01  -1.832130e+02
   1.822377e+02  -2.955031e+01
   1.448578e+02   2.343303e+02
  -3.852076e+01   3.294241e+02
  -2.199714e+02   1.803709e+02
  -3.045639e+02  -6.543037e+01
  -2.589591e+02  -2.355862e+02
  -8.849116e+01  -2.586501e+02
   1.115000e+02  -1.535051e+02
   1.749786e+02  -1.343567e+01
   6.021489e+01   3.799209e+01
  -6.666981e+01  -3.486131e+01
  -3.015533e+01  -1.205616e+02
   1.178989e+02  -9.390788e+01
   1.712506e+02   1.672376e+01
   5.453846e+01   7.300734e+01
  -7.944144e+01   1.485939e+01
  -5.509102e+01  -7.259576e+01
   1.159522e+02  -8.221781e+01
   2.652162e+02   4.733234e+00
   2.455792e+02   1.360843e+02
   5.312455e+01   2.396616e+02
  -1.762020e+02   2.406067e+02
  -2.679936e+02   1.130213e+02
  -1.595145e+02  -5.206662e+01
   2.502429e+01  -1.031315e+02
   8.716185e+01  -5.079344e+00
  -3.114797e+01   9.799529e+01
  -1.853709e+02   5.504472e+01
  -2.003094e+02  -1.009750e+02
  -6.157464e+01  -2.003061e+02
   9.426367e+01  -1.487144e+02
   1.396368e+02  -2.201259e+01
   6.661651e+01   4.593235e+01
  -2.947636e+01   7.121567e+00
  -3.928708e+01  -7.688716e+01
   6.424475e+01  -1.067787e+02
   1.848812e+02  -2.856647e+01
   1.794761e+02   1.148316e+02
   1.780603e+01   2.047558e+02
  -1.587943e+02   1.529677e+02
  -1.849616e+02   1.593880e+00
  -5.965234e+01  -1.142670e+02
   6.820265e+01  -1.092168e+02
   8.499212e+01  -2.729280e+01
   2.190864e+01   2.985387e+01
  -2.016014e+01   2.222370e+01
   4.806304e+00  -6.606381e+00
   6.094779e+01   5.079570e+00
   8.166390e+01   7.312692e+01
   1.811602e+01   1.467292e+02
  -1.131686e+02   1.431180e+02
  -2.177586e+02   2.528400e+01
  -1.904571e+02  -1.407593e+02
  -3.795865e+01  -2.228634e+02
   1.063231e+02  -1.576884e+02
   1.302464e+02  -2.227220e+01
   6.425321e+01   5.511732e+01
   2.504915e+01   3.597118e+01
   4.943562e+01  -1.104383e+01
   7.353751e+01  -6.610163e+00
   3.754357e+01   4.485070e+01
  -4.006255e+01   8.040028e+01
  -9.300587e+01   5.066092e+01
  -7.609012e+01  -3.352728e+01
   1.325698e+01  -1.020358e+02
   1.302297e+02  -8.017263e+01
   1.831687e+02   4.700659e+01
   9.433420e+01   1.875947e+02
  -9.909213e+01   2.122143e+02
  -2.491541e+02   8.798705e+01
  -2.395971e+02  -8.238417e+01
  -9.844593e+01  -1.669025e+02
   4.032553e+01  -1.378652e+02
   9.062428e+01  -7.625679e+01
   7.491028e+01  -6.081226e+01
   6.221722e+01  -8.038196e+01
   8.533236e+01  -6.589807e+01
   1.170755e+02   2.173758e+01
   1.061160e+02   1.435176e+02
   2.470959e+01   2.105074e+02
  -9.427727e+01   1.601448e+02
  -1.661034e+02   1.740015e+01
  -1.293193e+02  -1.166641e+02
  -1.790878e+01  -1.524804e+02
   6.548728e+01  -8.956346e+01
   5.973996e+01  -2.692818e+00
   7.010991e+00   4.011421e+01
  -9.004951e+00   3.437168e+01
   3.312036e+01   1.864841e+01
   7.277437e+01   2.070126e+01
   4.145968e+01   3.417819e+01
  -5.802016e+01   3.394801e+01
  -1.449306e+02   3.460107e+00
  -1.325712e+02  -4.738781e+01
  -1.484700e+01  -8.284113e+01
   1.117503e+02  -6.881624e+01
   1.356229e+02  -1.166767e+01
   4.613993e+01   3.834449e+01
  -5.524654e+01   3.412119e+01
  -7.005301e+01  -1.717940e+01
  -6.464064e+00  -6.079255e+01
   5.203197e+01  -5.131397e+01
   5.818766e+01   1.455759e+00
   3.983589e+01   4.468959e+01
   3.931452e+01   3.965203e+01
   5.586715e+01   5.504369e+00
   5.979290e+01   2.540876e+00
   3.071179e+01   6.031296e+01
  -3.150667e+01   1.304753e+02
  -1.068824e+02   1.274435e+02
  -1.490544e+02   2.983874e+01
  -1.106995e+02  -8.344884e+01
  -3.995246e+00  -1.148594e+02
   8.013581e+01  -5.418077e+01
   5.462051e+01   1.581480e+01
  -5.579562e+01   1.817917e+01
  -1.278648e+02  -4.171540e+01
  -6.987508e+01  -9.982921e+01
   7.578831e+01  -1.030264e+02
   1.776343e+02  -4.726155e+01
   1.507105e+02   3.146492e+01
   3.377949e+01   8.053380e+01
  -5.718224e+01   6.669522e+01
  -4.582753e+01   8.590363e+00
   3.500799e+01  -2.450700e+01
   8.207828e+01   1.975989e+01
   2.823300e+01   1.080460e+02
  -8.619977e+01   1.408919e+02
  -1.549169e+02   5.556066e+01
  -1.155563e+02  -9.494219e+01
  -6.617904e+00  -1.841919e+02
   8.258076e+01  -1.340443e+02
   9.948277e+01   6.770787e+00
   5.729143e+01   1.112535e+02
  -1.726280e+00   1.018068e+02
  -4.307801e+01   2.118981e+01
  -4.911797e+01  -2.832407e+01
  -2.574146e+01  -8.582493e+00
  -5.702628e+00   1.892299e+01
  -2.005725e+01  -1.367680e+01
  -5.062761e+01  -8.296420e+01
  -3.741599e+01  -1.036747e+02
   4.374959e+01  -4.346840e+01
   1.274735e+02   3.749908e+01
   1.203272e+02   6.804847e+01
   1.727262e+01   4.726789e+01
  -8.118518e+01   2.024554e+01
  -8.348755e+01   6.745684e+00
  -1.228511e+01  -7.068205e+00
   3.527425e+01  -2.191391e+01
   1.451082e+01  -1.925634e+01
  -1.845117e+01  -2.554000e-01
   5.383946e+00   9.080441e+00
   6.847753e+01   5.387646e+00
   8.508886e+01   2.254507e+01
   8.555841e+00   7.262160e+01
  -1.094368e+02   1.034241e+02
  -1.714068e+02   5.290387e+01
  -1.296491e+02  -6.227331e+01
  -2.160026e+01  -1.488328e+02
   7.445907e+01  -1.369972e+02
   1.053517e+02  -5.259024e+01
   7.377128e+01   2.069916e+01
   2.302940e+01   3.244930e+01
  -1.948748e+00   7.756383e+00
   9.828062e+00   4.282370e+00
   2.959696e+01   4.323646e+01
   1.920817e+01   8.354119e+01
  -2.812575e+01   6.549437e+01
  -7.451173e+01  -1.834012e+01
  -6.959996e+01  -1.009734e+02
  -2.487890e+00  -1.039046e+02
   7.641210e+01  -2.169996e+01
   9.470076e+01   7.033850e+01
   2.912477e+01   9.624282e+01
  -6.168599e+01   5.161949e+01
  -9.057770e+01  -1.115397e+01
  -3.624086e+01  -4.693086e+01
   3.078268e+01  -4.816678e+01
   2.986722e+01  -2.689240e+01
  -3.095385e+01  -6.449002e-01
  -6.420334e+01   5.808262e+00
  -1.347699e+01  -2.229332e+01
   7.434453e+01  -5.954347e+01
   1.077343e+02  -5.346148e+01
   5.872629e+01   1.051194e+01
  -1.576579e+01   7.581386e+01
  -4.922745e+01   7.313210e+01
  -3.267460e+01   5.529873e+00
   1.225060e-01  -5.124851e+01
   2.362209e+01  -3.935478e+01
   3.218719e+01   1.711687e+01
   2.388236e+01   5.026631e+01
  -2.042357e+00   3.055681e+01
  -2.985651e+01  -8.247427e+00
  -3.688951e+01  -2.018425e+01
  -1.969155e+01  -1.955830e+00
   1.164563e+00   1.253266e+01
   7.614105e+00  -2.389035e+00
   7.173705e+00  -3.286552e+01
   1.532791e+01  -4.044689e+01
   2.919499e+01  -6.813488e+00
   2.762090e+01   4.125920e+01
  -1.747649e+00   5.604162e+01
  -4.079624e+01   1.924715e+01
  -5.182417e+01  -3.555843e+01
  -1.362690e+01  -5.741988e+01
   4.975272e+01  -3.071973e+01
   8.061775e+01   1.441480e+01
   4.430435e+01   3.999123e+01
  -2.682904e+01   3.632684e+01
  -5.927359e+01   1.867952e+01
  -2.164861e+01   4.322951e+00
   3.458820e+01   2.844760e+00
   3.423886e+01   1.510713e+01
  -2.941878e+01   2.807774e+01
  -8.479227e+01   1.643389e+01
