
 $NMID
 id='ANONYMOUS ', fmtdat='(2E16.6)'
 volume=1.0
 tramp=1.0
 $END
  -3.343950e+03  -4.675035e+01
  -2.402456e+03  -1.923996e+03
   9.206821e+01  -2.413960e+03
   1.416828e+03  -1.306558e+03
   1.126339e+03  -8.900415e+01
  -5.845193e+00   4.512226e+02
  -4.907609e+02  -1.248274e+02
  -4.843371e+01  -6.790030e+02
   5.700458e+02  -6.169116e+02
   7.681552e+02  -3.520715e+01
   5.084669e+02   6.132407e+02
   1.042383e+01   6.605970e+02
  -4.706488e+02   2.023201e+02
  -3.736158e+02  -4.819455e+02
   1.426949e+02  -6.196201e+02
   5.291781e+02  -5.865056e+01
   3.162534e+02   5.456300e+02
  -1.428129e+02   6.546402e+02
  -5.751809e+02   2.353702e+02
  -5.002835e+02  -2.157863e+02
  -1.524482e+02  -4.536211e+02
   1.287306e+02  -2.723930e+02
   9.388116e+01  -1.026056e+02
  -1.509511e+02  -8.557681e+01
  -2.746219e+02  -2.513951e+02
   6.521085e+00  -3.677104e+02
   4.872124e+02  -1.881171e+02
   6.586494e+02   1.674659e+02
   2.504368e+02   4.103693e+02
  -3.550941e+02   2.428456e+02
  -5.345671e+02  -1.208436e+02
  -2.339537e+02  -4.255520e+02
   2.594163e+02  -4.003477e+02
   5.114626e+02  -1.386496e+02
   3.566161e+02   2.046966e+02
   7.715635e+01   3.554037e+02
  -6.213229e+01   2.114084e+02
   2.519738e+00  -1.263214e+02
   1.760458e+02  -1.869401e+02
   2.368663e+02   1.564894e+02
   2.751330e+01   5.338206e+02
  -2.841759e+02   4.775259e+02
  -3.818360e+02  -2.127797e+01
  -1.358690e+02  -3.674098e+02
   1.886640e+02  -1.869357e+02
   2.126058e+02   2.966424e+02
  -1.044126e+02   4.377633e+02
  -4.790178e+02   8.061025e+01
  -5.212330e+02  -3.945967e+02
  -1.677121e+02  -5.334797e+02
   3.165502e+02  -2.885463e+02
   5.496581e+02   7.180355e+01
   3.642510e+02   2.829125e+02
  -5.635612e+01   2.534052e+02
  -3.160147e+02   8.106202e+01
  -2.277099e+02  -5.498292e+01
   1.398360e+01  -3.274678e+01
   7.223310e+01   7.485658e+01
  -1.146278e+02   8.991342e+01
  -2.686569e+02  -5.596138e+01
  -1.397491e+02  -2.308077e+02
   1.811414e+02  -2.673118e+02
   3.768132e+02  -1.230541e+02
   2.669067e+02   1.147178e+02
  -4.005572e+01   3.181122e+02
  -2.990327e+02   3.562668e+02
  -3.561805e+02   1.656518e+02
  -2.292359e+02  -1.545771e+02
  -5.725686e+01  -3.677300e+02
   3.457272e+01  -3.347148e+02
   3.775351e+01  -1.705033e+02
   5.042536e+01  -8.372583e+01
   1.363737e+02  -9.699253e+01
   2.353381e+02  -5.353463e+01
   2.294211e+02   1.159794e+02
   8.857751e+01   2.581608e+02
  -1.008009e+02   1.977319e+02
  -2.045686e+02  -4.211365e+01
  -1.455919e+02  -2.558077e+02
   5.605746e+01  -2.668381e+02
   2.697082e+02  -7.286917e+01
   3.310078e+02   1.809945e+02
   1.681770e+02   3.250453e+02
  -7.216593e+01   2.908864e+02
  -1.940629e+02   1.569892e+02
  -1.597548e+02   6.953392e+01
  -1.518148e+02   5.678922e+01
  -2.831148e+02   2.813480e+01
  -4.197328e+02  -1.088655e+02
  -3.210870e+02  -3.164704e+02
   4.021678e+01  -4.507529e+02
   4.051825e+02  -3.998781e+02
   5.008537e+02  -1.677329e+02
   2.960930e+02   1.135724e+02
   1.661321e+01   2.678871e+02
  -1.120014e+02   2.129849e+02
  -2.903602e+01   3.470887e+01
   1.168800e+02  -6.064928e+01
   1.482176e+02   2.846517e+01
   2.192672e+01   1.553491e+02
  -1.216545e+02   1.209443e+02
  -1.245768e+02  -5.585757e+01
   2.874505e+01  -1.479155e+02
   1.765040e+02  -3.907112e+00
   1.583175e+02   2.536350e+02
  -3.064358e+01   3.624981e+02
  -2.589646e+02   2.099850e+02
  -3.667669e+02  -7.615372e+01
  -2.828479e+02  -2.783257e+02
  -6.128295e+01  -2.835495e+02
   1.323578e+02  -1.457539e+02
   1.608369e+02  -9.307951e+00
   4.366318e+01   1.315269e+01
  -4.947765e+01  -6.019337e+01
   4.411456e+00  -1.128483e+02
   1.309475e+02  -6.469778e+01
   1.555877e+02   3.135528e+01
   3.228087e+01   5.973932e+01
  -8.838665e+01  -1.277954e+01
  -4.123704e+01  -9.749485e+01
   1.551389e+02  -8.844451e+01
   3.118029e+02   2.983568e+01
   2.624390e+02   1.832649e+02
   2.450835e+01   2.738902e+02
  -2.184619e+02   2.389518e+02
  -2.827132e+02   9.562872e+01
  -1.473088e+02  -5.123826e+01
   2.928125e+01  -8.417628e+01
   6.830147e+01   2.936114e+00
  -5.341674e+01   8.195123e+01
  -1.906566e+02   3.289621e+01
  -1.928332e+02  -1.099017e+02
  -5.523995e+01  -1.964705e+02
   9.312222e+01  -1.410641e+02
   1.292230e+02  -1.779707e+01
   4.940549e+01   3.653290e+01
  -3.882114e+01  -2.273371e+01
  -2.258697e+01  -1.126828e+02
   1.033093e+02  -1.192110e+02
   2.178174e+02  -8.327160e+00
   1.855845e+02   1.449232e+02
   6.989685e+00   2.197510e+02
  -1.650523e+02   1.544751e+02
  -1.820993e+02   5.469845e+00
  -5.645808e+01  -1.029978e+02
   6.512080e+01  -9.834570e+01
   7.238760e+01  -2.274925e+01
   1.775858e+00   2.573123e+01
  -3.570531e+01   6.904996e+00
   1.325567e+01  -2.419104e+01
   9.216008e+01   5.827287e+00
   1.032083e+02   1.017175e+02
   2.085366e+00   1.815414e+02
  -1.552958e+02   1.515388e+02
  -2.489031e+02   1.959772e+00
  -1.958069e+02  -1.701239e+02
  -3.259156e+01  -2.378238e+02
   1.094750e+02  -1.644357e+02
   1.366222e+02  -3.216257e+01
   7.630493e+01   4.406645e+01
   3.607518e+01   2.951943e+01
   6.046387e+01  -1.194647e+01
   9.197071e+01   3.155461e-01
   5.397844e+01   6.426642e+01
  -4.776832e+01   1.073195e+02
  -1.305289e+02   6.262238e+01
  -1.063907e+02  -5.155391e+01
   2.524175e+01  -1.353334e+02
   1.720378e+02  -9.108392e+01
   2.115113e+02   7.101787e+01
   8.583970e+01   2.228286e+02
  -1.281647e+02   2.294591e+02
  -2.750561e+02   8.206330e+01
  -2.503796e+02  -9.586898e+01
  -1.016814e+02  -1.756181e+02
   4.026569e+01  -1.409679e+02
   9.023919e+01  -8.176138e+01
   7.458625e+01  -7.346903e+01
   6.724525e+01  -9.838109e+01
   1.003686e+02  -7.879434e+01
   1.369585e+02   2.588915e+01
   1.160736e+02   1.655155e+02
   1.662906e+01   2.343049e+02
  -1.115099e+02   1.674732e+02
  -1.768144e+02   4.581080e+00
  -1.262376e+02  -1.370695e+02
  -4.087698e+00  -1.635805e+02
   8.092266e+01  -8.305434e+01
   6.521095e+01   1.484993e+01
  -3.949235e+00   5.419759e+01
  -2.617069e+01   3.648690e+01
   2.984466e+01   1.457810e+01
   8.697473e+01   2.270292e+01
   4.972810e+01   4.382651e+01
  -7.685958e+01   3.890914e+01
  -1.788210e+02  -7.232395e+00
  -1.476526e+02  -6.909774e+01
   1.821544e+00  -1.004860e+02
   1.401287e+02  -7.229363e+01
   1.509269e+02  -2.206410e+00
   4.505369e+01   5.275787e+01
  -6.287581e+01   4.347616e+01
  -7.935009e+01  -2.144950e+01
  -1.592318e+01  -7.724564e+01
   5.004596e+01  -6.563145e+01
   6.882500e+01   2.057822e+00
   5.543779e+01   5.531156e+01
   4.787376e+01   4.403862e+01
   5.954123e+01  -7.725804e-01
   6.931597e+01  -1.682064e-02
   4.496520e+01   7.646379e+01
  -3.125411e+01   1.596898e+02
  -1.323686e+02   1.503846e+02
  -1.867805e+02   3.128092e+01
  -1.336520e+02  -1.015013e+02
  -4.434299e-01  -1.392151e+02
   9.796036e+01  -7.159701e+01
   6.701641e+01   1.101799e+01
  -5.728542e+01   2.045484e+01
  -1.355636e+02  -4.282772e+01
  -7.091742e+01  -1.070946e+02
   8.721666e+01  -1.073318e+02
   1.940020e+02  -4.025654e+01
   1.589096e+02   4.443151e+01
   2.800057e+01   8.661243e+01
  -6.914126e+01   6.052127e+01
  -5.054660e+01  -3.041028e+00
   4.351388e+01  -3.212527e+01
   9.779776e+01   2.127692e+01
   4.074903e+01   1.204452e+02
  -8.479414e+01   1.605554e+02
  -1.648982e+02   7.117045e+01
  -1.292354e+02  -9.560249e+01
  -1.347630e+01  -1.983024e+02
   8.636953e+01  -1.436822e+02
   1.056909e+02   1.302215e+01
   5.460954e+01   1.243973e+02
  -1.373288e+01   1.055565e+02
  -5.245158e+01   1.442790e+01
  -4.687204e+01  -3.413425e+01
  -1.805959e+01  -8.165981e+00
  -5.552172e+00   1.805795e+01
  -2.949945e+01  -2.178299e+01
  -5.810082e+01  -9.344990e+01
  -3.239363e+01  -1.091642e+02
   5.855110e+01  -4.298049e+01
   1.410482e+02   4.122733e+01
   1.263369e+02   7.457904e+01
   1.688556e+01   5.552244e+01
  -8.495570e+01   2.511678e+01
  -8.892651e+01   4.752166e+00
  -1.628621e+01  -1.121219e+01
   3.626720e+01  -2.082074e+01
   1.904106e+01  -1.332848e+01
  -1.656241e+01   3.013177e+00
   2.907532e+00   5.777350e+00
   6.944714e+01   6.894162e-01
   9.592290e+01   2.415989e+01
   2.085463e+01   8.372226e+01
  -1.128535e+02   1.201850e+02
  -1.952395e+02   6.616029e+01
  -1.566559e+02  -6.253006e+01
  -3.081065e+01  -1.653768e+02
   8.571177e+01  -1.597230e+02
   1.223600e+02  -6.572770e+01
   8.414834e+01   2.286805e+01
   2.757921e+01   4.210817e+01
   1.854174e+00   1.533454e+01
   1.225012e+01   9.860412e+00
   2.795557e+01   5.172185e+01
   1.487474e+01   9.474063e+01
  -3.281627e+01   7.321765e+01
  -8.207346e+01  -1.833593e+01
  -8.222767e+01  -1.083132e+02
  -1.351816e+01  -1.157089e+02
   7.861456e+01  -3.277567e+01
   1.098868e+02   6.768348e+01
   4.166428e+01   1.056220e+02
  -6.565992e+01   6.494907e+01
  -1.063906e+02  -8.089283e+00
  -4.636995e+01  -5.812531e+01
   3.538575e+01  -6.168808e+01
   4.075670e+01  -3.004607e+01
  -2.733600e+01   4.530092e+00
  -6.993969e+01   7.722388e+00
  -1.778217e+01  -2.842812e+01
   8.221351e+01  -6.639687e+01
   1.254380e+02  -5.233283e+01
   7.299083e+01   2.021652e+01
  -1.596473e+01   8.915839e+01
  -6.250797e+01   8.502348e+01
  -4.823224e+01   1.127619e+01
  -7.345618e+00  -5.557304e+01
   2.531406e+01  -5.021265e+01
   3.837684e+01   1.056112e+01
   2.892959e+01   5.516089e+01
  -1.189365e+00   4.070392e+01
  -3.379185e+01  -4.900109e+00
  -4.253686e+01  -2.557184e+01
  -2.221272e+01  -4.825728e+00
   1.815954e+00   1.955863e+01
   5.901004e+00   6.668749e+00
  -2.480702e+00  -3.521389e+01
   4.196155e+00  -5.511574e+01
   2.941962e+01  -2.118874e+01
   4.178177e+01   3.837124e+01
   1.228789e+01   6.272808e+01
  -4.139704e+01   2.547011e+01
  -6.344131e+01  -3.606261e+01
  -1.903451e+01  -6.270326e+01
   5.918142e+01  -3.543466e+01
   9.616443e+01   1.458650e+01
   5.171195e+01   4.652064e+01
  -3.105321e+01   4.682324e+01
  -6.882999e+01   2.726305e+01
  -2.981209e+01   5.629836e+00
   3.080489e+01  -3.264549e+00
   3.550127e+01   8.158187e+00
  -2.513785e+01   2.742718e+01
  -8.298389e+01   2.133335e+01
