
 $NMID
 id='ANONYMOUS ', fmtdat='(2E16.6)'
 volume=1.0
 tramp=1.0
 $END
   3.447247e+03  -5.817386e+01
   2.400331e+03   1.833392e+03
  -7.563888e+01   2.318246e+03
  -1.599495e+03   1.536627e+03
  -9.616624e+02   9.322513e+01
  -2.630177e+01  -4.318226e+02
   5.543211e+02   7.495284e+01
   1.834464e+02   8.099116e+02
  -5.582589e+02   8.557700e+02
  -8.342801e+02   1.331690e+02
  -5.107630e+02  -6.155830e+02
   7.364606e+01  -7.791682e+02
   4.509246e+02  -2.050091e+02
   4.088607e+02   5.491321e+02
  -1.593801e+02   6.446828e+02
  -4.800498e+02   7.059403e+01
  -3.192395e+02  -6.014978e+02
   2.188660e+02  -6.838219e+02
   6.302053e+02  -2.287308e+02
   5.083580e+02   2.474847e+02
   1.061944e+02   4.272005e+02
  -1.953890e+02   2.687350e+02
  -1.186196e+02   6.481918e+01
   1.738043e+02   4.090824e+01
   3.134828e+02   2.267609e+02
   5.472708e+01   4.029008e+02
  -4.765935e+02   2.757232e+02
  -7.374373e+02  -1.488734e+02
  -3.320840e+02  -4.608730e+02
   3.399096e+02  -3.441304e+02
   6.223238e+02   9.454328e+01
   2.787433e+02   4.360753e+02
  -2.645807e+02   4.374919e+02
  -5.381948e+02   1.636817e+02
  -4.020434e+02  -2.054678e+02
  -9.634250e+01  -4.080173e+02
   1.096106e+02  -2.465410e+02
   5.089419e+01   1.301583e+02
  -1.751650e+02   2.717096e+02
  -3.103852e+02  -9.586506e+01
  -9.942016e+01  -5.723175e+02
   2.996703e+02  -5.563675e+02
   4.594993e+02   8.184344e+00
   1.789981e+02   4.413205e+02
  -2.309798e+02   2.327288e+02
  -2.729598e+02  -3.167726e+02
   1.049956e+02  -4.928514e+02
   5.249911e+02  -9.860175e+01
   5.569429e+02   4.208352e+02
   1.542736e+02   5.860163e+02
  -3.616010e+02   3.193030e+02
  -5.982997e+02  -8.839234e+01
  -3.763629e+02  -3.472291e+02
   9.020640e+01  -3.140198e+02
   3.665767e+02  -7.692443e+01
   2.403318e+02   1.077201e+02
  -4.394978e+01   6.470954e+01
  -9.380345e+01  -1.003357e+02
   1.371296e+02  -1.327181e+02
   3.106270e+02   4.541869e+01
   1.594180e+02   2.512315e+02
  -1.849329e+02   2.841148e+02
  -3.815871e+02   1.266141e+02
  -2.648612e+02  -1.154153e+02
   4.650097e+01  -3.234989e+02
   3.207572e+02  -3.704644e+02
   3.965905e+02  -1.675988e+02
   2.602479e+02   1.842794e+02
   4.439373e+01   4.122532e+02
  -7.668410e+01   3.556861e+02
  -5.991414e+01   1.620505e+02
  -3.611604e+01   7.635046e+01
  -1.235688e+02   1.109189e+02
  -2.555433e+02   7.175927e+01
  -2.668988e+02  -1.166024e+02
  -1.092089e+02  -2.816010e+02
   9.980787e+01  -2.262534e+02
   2.159728e+02   2.441482e+01
   1.645034e+02   2.560298e+02
  -3.211612e+01   2.852274e+02
  -2.665530e+02   9.157451e+01
  -3.532945e+02  -1.828812e+02
  -1.941824e+02  -3.490236e+02
   7.294526e+01  -3.124018e+02
   2.127345e+02  -1.597426e+02
   1.736812e+02  -6.090300e+01
   1.546741e+02  -6.365235e+01
   2.942965e+02  -4.486522e+01
   4.456592e+02   1.087251e+02
   3.457092e+02   3.406799e+02
  -3.632290e+01   4.862221e+02
  -4.275296e+02   4.293872e+02
  -5.326662e+02   1.831533e+02
  -3.251075e+02  -1.169686e+02
  -2.491108e+01  -2.917667e+02
   1.183402e+02  -2.343719e+02
   3.549610e+01  -3.742051e+01
  -1.292134e+02   7.006162e+01
  -1.698771e+02  -2.972647e+01
  -2.606993e+01  -1.779600e+02
   1.460432e+02  -1.447308e+02
   1.483060e+02   5.684360e+01
  -2.735212e+01   1.639711e+02
  -1.910946e+02   9.159543e+00
  -1.653305e+02  -2.668763e+02
   3.964040e+01  -3.791202e+02
   2.747233e+02  -2.162387e+02
   3.827260e+02   7.999585e+01
   2.950186e+02   2.887257e+02
   6.549045e+01   2.969814e+02
  -1.414687e+02   1.545220e+02
  -1.722129e+02   6.548836e+00
  -4.244003e+01  -2.198766e+01
   6.394650e+01   6.126766e+01
   4.152807e+00   1.279391e+02
  -1.398724e+02   8.106385e+01
  -1.722480e+02  -2.723628e+01
  -4.105726e+01  -6.565817e+01
   8.903497e+01   6.655057e+00
   4.183117e+01   9.481060e+01
  -1.597705e+02   8.791374e+01
  -3.193243e+02  -2.906761e+01
  -2.696079e+02  -1.840033e+02
  -2.810396e+01  -2.819796e+02
   2.228685e+02  -2.548324e+02
   2.948192e+02  -1.072625e+02
   1.583569e+02   5.378754e+01
  -2.897083e+01   9.434208e+01
  -7.425616e+01  -2.984882e-01
   5.446391e+01  -8.939194e+01
   2.032003e+02  -3.759264e+01
   2.056383e+02   1.172351e+02
   5.668935e+01   2.095362e+02
  -1.018270e+02   1.490124e+02
  -1.383995e+02   1.849011e+01
  -5.290167e+01  -3.836970e+01
   4.027764e+01   2.194232e+01
   2.478900e+01   1.133806e+02
  -1.059321e+02   1.209885e+02
  -2.274232e+02   8.307730e+00
  -1.963256e+02  -1.505787e+02
  -7.171077e+00  -2.300711e+02
   1.778874e+02  -1.625328e+02
   1.966276e+02  -4.991083e+00
   5.997173e+01   1.095923e+02
  -7.069852e+01   1.041728e+02
  -7.721224e+01   2.571977e+01
  -1.899650e+00  -2.345461e+01
   3.481125e+01  -5.102787e+00
  -1.782601e+01   2.467715e+01
  -9.749922e+01  -8.008611e+00
  -1.067598e+02  -1.060484e+02
  -3.309750e+00  -1.883609e+02
   1.589561e+02  -1.604872e+02
   2.588726e+02  -6.606951e+00
   2.054986e+02   1.755130e+02
   3.428375e+01   2.513253e+02
  -1.163602e+02   1.742273e+02
  -1.413673e+02   3.179830e+01
  -7.732145e+01  -4.922635e+01
  -3.745936e+01  -3.147356e+01
  -6.690006e+01   1.328385e+01
  -9.860686e+01   3.709889e-01
  -5.487640e+01  -6.757068e+01
   5.268882e+01  -1.112740e+02
   1.325358e+02  -6.434466e+01
   1.066406e+02   5.115540e+01
  -2.466458e+01   1.347964e+02
  -1.716544e+02   8.973854e+01
  -2.134336e+02  -7.362169e+01
  -8.718872e+01  -2.279802e+02
   1.342471e+02  -2.351649e+02
   2.870636e+02  -8.261963e+01
   2.620971e+02   1.019630e+02
   1.056720e+02   1.834923e+02
  -4.307127e+01   1.460636e+02
  -9.495852e+01   8.474295e+01
  -7.727920e+01   7.810607e+01
  -6.996938e+01   1.050704e+02
  -1.048369e+02   8.359174e+01
  -1.439104e+02  -2.771086e+01
  -1.225185e+02  -1.743653e+02
  -1.804545e+01  -2.459383e+02
   1.169875e+02  -1.750725e+02
   1.857039e+02  -4.191058e+00
   1.320249e+02   1.431406e+02
   4.326844e+00   1.689224e+02
  -8.287953e+01   8.468979e+01
  -6.504465e+01  -1.464575e+01
   4.895541e+00  -5.233897e+01
   2.412361e+01  -3.431621e+01
  -3.550523e+01  -1.575603e+01
  -9.237842e+01  -2.733022e+01
  -5.101778e+01  -4.846103e+01
   8.051014e+01  -4.055951e+01
   1.851929e+02   7.989678e+00
   1.532207e+02   7.052534e+01
  -7.925171e-01   1.014546e+02
  -1.439306e+02   7.268936e+01
  -1.550249e+02   2.172458e+00
  -4.409135e+01  -5.241279e+01
   6.852830e+01  -4.142978e+01
   8.299000e+01   2.505961e+01
   1.272951e+01   8.028531e+01
  -5.646725e+01   6.644444e+01
  -7.250174e+01  -3.703249e+00
  -5.549834e+01  -5.805000e+01
  -4.828657e+01  -4.651140e+01
  -6.181684e+01  -7.571884e-01
  -7.121756e+01  -1.950523e+00
  -4.366658e+01  -8.059686e+01
   3.559688e+01  -1.657927e+02
   1.384725e+02  -1.543769e+02
   1.934982e+02  -2.953196e+01
   1.385830e+02   1.079857e+02
   1.148969e+00   1.440795e+02
  -1.002316e+02   7.104177e+01
  -6.747245e+01  -1.369700e+01
   6.236412e+01  -1.893741e+01
   1.432184e+02   5.072709e+01
   7.324534e+01   1.169903e+02
  -9.405462e+01   1.144146e+02
  -2.067849e+02   4.241068e+01
  -1.692961e+02  -4.713466e+01
  -3.132099e+01  -9.270223e+01
   7.148011e+01  -6.652482e+01
   5.303359e+01  -2.475141e-01
  -4.454254e+01   3.094967e+01
  -1.002624e+02  -2.428068e+01
  -3.830297e+01  -1.268773e+02
   9.398754e+01  -1.662116e+02
   1.757130e+02  -6.976137e+01
   1.334822e+02   1.052241e+02
   9.580227e+00   2.094313e+02
  -9.292101e+01   1.485628e+02
  -1.097327e+02  -1.641409e+01
  -5.565864e+01  -1.311669e+02
   1.367767e+01  -1.091210e+02
   5.368767e+01  -1.258589e+01
   5.026675e+01   3.707746e+01
   2.134056e+01   7.778076e+00
   5.733719e+00  -2.092400e+01
   2.791886e+01   2.236200e+01
   5.899239e+01   9.970727e+01
   3.542969e+01   1.161836e+02
  -5.890118e+01   4.432707e+01
  -1.474926e+02  -4.544998e+01
  -1.332000e+02  -7.872352e+01
  -1.657838e+01  -5.625886e+01
   9.161989e+01  -2.388296e+01
   9.358310e+01  -3.785315e+00
   1.408730e+01   1.169826e+01
  -4.065728e+01   2.159857e+01
  -1.921009e+01   1.375521e+01
   1.960849e+01  -3.314732e+00
  -3.245422e+00  -5.766955e+00
  -7.501689e+01  -8.035130e-01
  -1.003931e+02  -2.715083e+01
  -1.723071e+01  -9.047282e+01
   1.236416e+02  -1.259086e+02
   2.057185e+02  -6.421024e+01
   1.610516e+02   7.233007e+01
   2.885964e+01   1.762916e+02
  -9.083724e+01   1.651396e+02
  -1.273937e+02   6.566186e+01
  -8.727509e+01  -2.419773e+01
  -2.856449e+01  -4.182289e+01
  -2.195160e+00  -1.364006e+01
  -1.412260e+01  -8.915120e+00
  -3.142608e+01  -5.396653e+01
  -1.661087e+01  -1.001547e+02
   3.557073e+01  -7.781028e+01
   8.760673e+01   1.983282e+01
   8.521476e+01   1.160231e+02
   1.030407e+01   1.224509e+02
  -8.529414e+01   3.151221e+01
  -1.139567e+02  -7.525651e+01
  -3.956093e+01  -1.113718e+02
   7.155141e+01  -6.415458e+01
   1.103282e+02   1.228058e+01
   4.515335e+01   6.037389e+01
  -3.896943e+01   6.094824e+01
  -4.141945e+01   2.940759e+01
   3.131988e+01  -3.408317e+00
   7.419249e+01  -5.770927e+00
   1.698760e+01   3.048737e+01
  -8.788511e+01   6.907974e+01
  -1.310743e+02   5.470330e+01
  -7.475886e+01  -2.107519e+01
   1.671413e+01  -9.332701e+01
   6.290718e+01  -8.879243e+01
   4.747017e+01  -1.129282e+01
   7.050311e+00   5.725837e+01
  -2.483712e+01   4.988939e+01
  -3.766311e+01  -1.381122e+01
  -2.818726e+01  -5.776319e+01
   2.425141e+00  -3.979376e+01
   3.487378e+01   7.910247e+00
   4.250122e+01   2.721358e+01
   2.152108e+01   4.229798e+00
  -1.990048e+00  -2.036119e+01
  -5.887482e+00  -6.178175e+00
   6.488964e-01   3.597213e+01
  -7.772383e+00   5.425088e+01
  -3.152387e+01   1.786848e+01
  -3.930957e+01  -4.292266e+01
  -6.794010e+00  -6.532073e+01
   4.626748e+01  -2.378540e+01
   6.529236e+01   4.126320e+01
   1.813884e+01   6.745008e+01
  -6.236083e+01   3.628425e+01
  -1.003921e+02  -1.677191e+01
  -5.448037e+01  -4.831195e+01
   3.205739e+01  -4.679501e+01
   7.180599e+01  -2.697150e+01
   3.001898e+01  -6.694070e+00
  -3.454135e+01   9.238320e-01
  -3.831925e+01  -1.102075e+01
   2.814702e+01  -2.993042e+01
   9.004032e+01  -2.235011e+01
