
 $NMID
 id='ANONYMOUS ', fmtdat='(2E16.6)'
 volume=1.0
 tramp=1.0
 $END
   1.302193e+03   8.394639e+01
   8.474749e+02   5.597666e+02
   5.020863e+01   5.093012e+02
  -3.115013e+02   3.661459e+02
  -2.707551e+02   1.500471e+02
  -4.285944e+01   1.654135e+01
  -3.141393e+01  -9.846213e+01
   5.968839e+01   1.430904e+02
  -2.163390e+02   1.717655e+02
  -1.946103e+02  -2.110166e+01
  -1.621874e+02  -1.141423e+02
  -1.101065e+02  -2.157885e+02
  -1.786450e+01  -3.011170e+01
   7.364560e+01   2.204548e+02
  -3.915919e+01   1.798965e+02
  -1.133754e+02   1.551148e+01
  -7.531296e+01  -2.400087e+02
   6.322692e+01  -2.345459e+02
   1.458665e+02  -1.444927e+02
   1.618557e+02  -3.263328e+01
   7.407016e+01   9.353346e+01
  -4.693109e+01   9.297989e+01
  -1.857818e+01   7.741801e+01
   1.068250e+02   9.049643e+01
   1.112314e+02   1.328310e+02
  -3.040459e+01   1.105581e+02
  -2.093301e+02   4.654886e+01
  -2.412710e+02  -9.670945e+01
  -3.606784e+01  -1.393069e+02
   1.526388e+02  -6.007053e+01
   1.742382e+02   5.403658e+01
   3.944809e+01   1.282638e+02
  -1.118002e+02   1.233638e+02
  -1.492558e+02   4.053865e+01
  -1.038733e+02  -5.173872e+01
  -1.440743e+01  -9.790366e+01
  -1.888617e+01  -4.765428e+01
  -3.757507e+01   2.056135e+01
  -7.243616e+01   4.514022e+01
  -6.635363e+01  -6.584022e+01
   1.199865e+01  -1.880969e+02
   7.295805e+01  -1.666483e+02
   1.081069e+02  -9.518206e+00
   5.656736e+01   1.028581e+02
  -3.424893e+01   5.439519e+01
  -4.683161e+01  -9.560746e+01
   5.495256e+01  -1.408000e+02
   1.726691e+02  -7.009853e+00
   1.795106e+02   1.532727e+02
   5.351880e+01   2.014382e+02
  -1.195378e+02   9.969801e+01
  -2.007933e+02  -3.004437e+01
  -1.287440e+02  -9.417295e+01
   1.337151e+01  -7.909522e+01
   1.012380e+02  -2.890956e+01
   7.775974e+01   3.924962e+00
   1.062416e+01   4.111506e+00
  -7.865160e+00  -9.119122e+00
   3.803587e+01  -1.084365e+01
   7.811288e+01   2.017687e+01
   3.891969e+01   7.098555e+01
  -6.386087e+01   9.518750e+01
  -1.397382e+02   5.192504e+01
  -1.075059e+02  -5.007165e+01
   1.839286e+01  -1.398919e+02
   1.363794e+02  -1.412421e+02
   1.557868e+02  -4.325595e+01
   8.361375e+01   8.028726e+01
   5.579393e+00   1.389076e+02
  -1.516020e+01   1.149741e+02
  -4.512660e-01   6.804523e+01
  -1.170097e+01   5.353728e+01
  -6.460983e+01   5.505783e+01
  -1.085988e+02   2.036611e+01
  -9.510167e+01  -5.286355e+01
  -2.923970e+01  -1.032322e+02
   3.860505e+01  -6.981454e+01
   6.468412e+01   2.629146e+01
   3.293442e+01   9.878438e+01
  -3.475612e+01   8.890771e+01
  -9.723938e+01   3.431934e+00
  -1.067157e+02  -8.340546e+01
  -5.347412e+01  -1.205956e+02
   2.303003e+01  -1.016021e+02
   6.544007e+01  -5.918850e+01
   6.001545e+01  -3.399278e+01
   6.548559e+01  -2.629920e+01
   1.168800e+02  -6.324959e+00
   1.634710e+02   5.282998e+01
   1.208061e+02   1.284384e+02
  -1.753104e+01   1.742628e+02
  -1.638930e+02   1.482076e+02
  -1.981601e+02   5.334144e+01
  -1.114317e+02  -4.799151e+01
   8.351370e-02  -9.653665e+01
   4.025682e+01  -7.223824e+01
   3.080577e-01  -1.820015e+01
  -4.870048e+01   1.642751e+00
  -4.222000e+01  -2.491815e+01
   1.087794e+01  -5.430582e+01
   5.283022e+01  -2.871066e+01
   3.748787e+01   2.768332e+01
  -1.741077e+01   4.834935e+01
  -6.346546e+01  -7.127493e+00
  -5.312505e+01  -9.878339e+01
   1.877610e+01  -1.347502e+02
   1.061068e+02  -7.652604e+01
   1.459659e+02   3.542897e+01
   1.057997e+02   1.171092e+02
   1.363364e+01   1.142004e+02
  -5.659730e+01   5.150300e+01
  -5.762655e+01  -1.697907e+00
  -1.241808e+01  -1.791448e+00
   1.458166e+01   3.134396e+01
  -1.161473e+01   4.518339e+01
  -5.406342e+01   1.771462e+01
  -5.537718e+01  -1.996657e+01
  -6.555718e+00  -2.340010e+01
   3.493154e+01   1.158448e+01
   1.067702e+01   4.324331e+01
  -6.836759e+01   3.178470e+01
  -1.257430e+02  -2.222721e+01
  -9.609346e+01  -8.313007e+01
   6.033255e+00  -1.093601e+02
   9.820751e+01  -8.372202e+01
   1.100209e+02  -2.445269e+01
   4.826879e+01   2.500052e+01
  -1.613909e+01   2.891352e+01
  -2.124843e+01  -4.087702e+00
   2.824813e+01  -2.640709e+01
   7.463451e+01  -1.371961e+00
   6.776708e+01   5.182751e+01
   1.173715e+01   7.778424e+01
  -4.381145e+01   4.941608e+01
  -5.317223e+01  -4.005702e-01
  -1.715685e+01  -1.727109e+01
   1.792640e+01   1.185257e+01
   6.462176e+00   4.782775e+01
  -4.725304e+01   4.329046e+01
  -8.828677e+01  -7.628801e+00
  -6.624373e+01  -6.552610e+01
   8.252696e+00  -8.440971e+01
   7.037807e+01  -5.150332e+01
   6.892119e+01   4.348305e+00
   1.687743e+01   3.991914e+01
  -2.803475e+01   3.457189e+01
  -2.783103e+01   5.642007e+00
   1.589421e+00  -1.182055e+01
   1.661983e+01  -2.238502e+00
  -3.057850e+00   1.260962e+01
  -3.542215e+01   9.446724e-01
  -3.984790e+01  -3.982465e+01
   6.527603e-01  -7.177617e+01
   6.183179e+01  -5.673373e+01
   9.583329e+01   5.946298e+00
   7.088749e+01   7.081285e+01
   7.040753e+00   9.098412e+01
  -4.615518e+01   5.960849e+01
  -5.404584e+01   9.573071e+00
  -2.946433e+01  -1.846806e+01
  -1.286292e+01  -1.249475e+01
  -2.327378e+01   3.222469e+00
  -3.817670e+01  -4.810393e-01
  -2.441419e+01  -2.737594e+01
   1.883823e+01  -4.480835e+01
   5.488729e+01  -2.637145e+01
   4.616606e+01   2.198375e+01
  -1.166996e+01   5.410222e+01
  -7.325868e+01   2.926908e+01
  -8.290749e+01  -3.736528e+01
  -2.276371e+01  -9.219324e+01
   6.511330e+01  -8.465862e+01
   1.152987e+02  -1.952035e+01
   9.423118e+01   4.840769e+01
   3.010539e+01   7.243699e+01
  -2.274320e+01   5.358432e+01
  -3.788193e+01   2.866982e+01
  -2.875475e+01   2.543291e+01
  -2.670800e+01   3.663851e+01
  -4.012696e+01   2.999638e+01
  -5.280748e+01  -1.177100e+01
  -4.126527e+01  -6.658638e+01
  -9.056974e-01  -9.134636e+01
   4.626840e+01  -6.123352e+01
   6.672494e+01   4.091629e+00
   4.374780e+01   5.660779e+01
  -3.691146e+00   6.248725e+01
  -3.465695e+01   2.823609e+01
  -2.566838e+01  -9.846276e+00
   4.306838e+00  -2.340359e+01
   1.412982e+01  -1.435598e+01
  -1.005644e+01  -5.094454e+00
  -3.577094e+01  -9.447353e+00
  -2.106057e+01  -1.918814e+01
   3.265216e+01  -1.622023e+01
   7.502231e+01   5.865435e+00
   5.908835e+01   3.287713e+01
  -5.060029e+00   4.301056e+01
  -6.028548e+01   2.659635e+01
  -6.075023e+01  -4.288192e+00
  -1.604675e+01  -2.425221e+01
   2.647897e+01  -1.683560e+01
   3.259788e+01   1.083507e+01
   7.347850e+00   3.242126e+01
  -2.006645e+01   2.683457e+01
  -2.995499e+01  -6.122622e-01
  -2.525832e+01  -2.249306e+01
  -1.963739e+01  -1.991020e+01
  -2.160676e+01  -3.799146e+00
  -2.562019e+01  -4.032489e+00
  -1.649001e+01  -3.172879e+01
   1.507870e+01  -6.155063e+01
   5.760333e+01  -5.629632e+01
   7.858220e+01  -8.937914e+00
   5.316135e+01   4.347058e+01
  -3.756158e+00   5.771782e+01
  -4.262805e+01   2.935999e+01
  -2.803271e+01  -4.963898e+00
   2.257408e+01  -8.636794e+00
   5.260340e+01   1.863370e+01
   2.506720e+01   4.485073e+01
  -3.785592e+01   4.165543e+01
  -7.847177e+01   1.025540e+01
  -6.181650e+01  -2.408252e+01
  -8.339468e+00  -3.691329e+01
   3.004227e+01  -2.240616e+01
   2.212868e+01   2.738080e+00
  -1.504515e+01   1.224647e+01
  -3.587827e+01  -8.493056e+00
  -1.401791e+01  -4.436315e+01
   3.299812e+01  -5.826106e+01
   6.241940e+01  -2.461366e+01
   4.748675e+01   3.790354e+01
   1.726529e+00   7.585797e+01
  -3.719124e+01   5.356747e+01
  -4.261454e+01  -8.154604e+00
  -1.837033e+01  -5.125591e+01
   1.100385e+01  -4.199491e+01
   2.421655e+01  -4.253819e+00
   1.754103e+01   1.547871e+01
   4.687308e+00   4.841511e+00
   1.826664e+00  -6.120880e+00
   1.265987e+01   9.505334e+00
   2.171352e+01   3.762367e+01
   9.138726e+00   4.311306e+01
  -2.500690e+01   1.603889e+01
  -5.324321e+01  -1.796285e+01
  -4.611987e+01  -3.104222e+01
  -6.265230e+00  -2.222263e+01
   3.084920e+01  -8.267859e+00
   3.350406e+01   7.895157e-01
   7.401629e+00   5.782198e+00
  -1.362071e+01   7.417646e+00
  -9.884927e+00   3.410292e+00
   3.590977e+00  -2.677953e+00
  -4.546876e-01  -3.636285e+00
  -2.293106e+01  -1.867334e+00
  -3.404654e+01  -1.013997e+01
  -8.187051e+00  -3.090754e+01
   4.248011e+01  -4.309254e+01
   7.597857e+01  -2.235357e+01
   6.181721e+01   2.562232e+01
   1.063146e+01   6.411148e+01
  -3.740763e+01   6.148607e+01
  -5.113319e+01   2.468279e+01
  -3.317398e+01  -1.043863e+01
  -9.361728e+00  -1.789188e+01
  -9.020103e-02  -6.592197e+00
  -5.315479e+00  -3.576066e+00
  -1.058630e+01  -1.978381e+01
  -4.370371e+00  -3.679552e+01
   1.315651e+01  -2.859964e+01
   2.993165e+01   6.779483e+00
   2.940093e+01   4.149706e+01
   4.581103e+00   4.443604e+01
  -2.915402e+01   1.253135e+01
  -4.117545e+01  -2.683944e+01
  -1.550873e+01  -4.236360e+01
   2.646434e+01  -2.612214e+01
   4.324667e+01   4.290172e+00
   1.939327e+01   2.586190e+01
  -1.510597e+01   2.688486e+01
  -1.946296e+01   1.259171e+01
   7.428549e+00  -1.875812e+00
   2.619364e+01  -2.790668e+00
   6.894459e+00   1.098116e+01
  -3.331390e+01   2.382393e+01
  -5.155228e+01   1.675838e+01
  -3.014266e+01  -1.049168e+01
   7.125814e+00  -3.518812e+01
   2.686243e+01  -3.285459e+01
   2.019925e+01  -5.263144e+00
   2.521531e+00   2.026549e+01
  -1.071737e+01   1.880353e+01
  -1.428277e+01  -4.352029e+00
  -9.745935e+00  -2.223822e+01
   1.593668e+00  -1.701546e+01
   1.376382e+01   2.242829e+00
   1.700280e+01   1.197777e+01
   8.744327e+00   3.849845e+00
  -1.476205e+00  -7.679234e+00
  -3.210511e+00  -4.791238e+00
   1.416227e+00   1.140445e+01
   4.268919e-01   2.142453e+01
  -1.015665e+01   1.058468e+01
  -1.728978e+01  -1.252637e+01
  -7.100231e+00  -2.361965e+01
   1.509624e+01  -1.095331e+01
   2.520814e+01   1.235972e+01
   7.986472e+00   2.343637e+01
  -2.347786e+01   1.336269e+01
  -3.793063e+01  -5.934752e+00
  -1.992044e+01  -1.845793e+01
   1.277344e+01  -1.846144e+01
   2.750756e+01  -1.083053e+01
   1.292243e+01  -2.425050e+00
  -9.949442e+00   1.374207e+00
  -1.266825e+01  -1.853236e+00
   8.440322e+00  -8.087643e+00
   2.916775e+01  -5.970389e+00
