
 $NMID
 id='ANONYMOUS ', fmtdat='(2E16.6)'
 volume=1.0
 tramp=1.0
 $END
  -1.021074e+03  -5.004583e+01
  -5.542514e+02  -6.445601e+02
  -6.133265e+01  -6.835903e+02
   2.765505e+02  -2.575657e+02
   1.226295e+02  -7.990941e+01
   4.079860e+01   1.486898e+02
  -2.124749e+02  -2.717940e+01
  -1.364247e+01  -2.776734e+02
   2.483428e+02  -1.959943e+02
   1.829219e+02   7.804358e+01
   1.383109e+02   1.209811e+02
   2.059617e+01   1.120970e+02
  -8.403355e+01   5.116159e+01
  -3.789988e+01  -1.988526e+02
   7.815505e+01  -2.044363e+02
   2.278733e+02  -5.722936e+01
   7.407681e+01   1.096551e+02
  -4.092729e+01   1.693240e+02
  -1.276512e+02   6.993858e+01
  -1.051284e+02  -6.955399e+01
  -7.860301e-01  -1.401443e+02
   1.824753e+01  -6.663736e+01
   1.178013e+01  -2.269782e+01
  -3.266427e+01  -3.876299e+00
  -5.369909e+01  -6.435003e+01
   6.725613e-01  -9.723409e+01
   1.349752e+02  -5.937199e+01
   1.661816e+02   3.955631e+01
   6.140041e+01   1.282042e+02
  -9.838610e+01   7.718868e+01
  -1.341682e+02  -2.248422e+01
  -5.215692e+01  -1.275015e+02
   8.447460e+01  -1.015991e+02
   1.507233e+02  -2.450660e+01
   7.781210e+01   6.619154e+01
   3.455543e+00   9.594582e+01
  -4.675296e+01   5.296888e+01
  -5.268168e+00  -5.126482e+01
   5.777576e+01  -7.972125e+01
   9.541850e+01   2.189917e+01
   2.964507e+01   1.346155e+02
  -8.228151e+01   1.362193e+02
  -1.271787e+02  -7.083463e+00
  -2.707926e+01  -9.999717e+01
   7.264537e+01  -4.439712e+01
   6.900796e+01   9.507143e+01
  -4.459555e+01   1.288426e+02
  -1.486141e+02   2.380295e+01
  -1.347684e+02  -1.182553e+02
  -2.757828e+01  -1.477735e+02
   1.036595e+02  -6.842238e+01
   1.474272e+02   3.643811e+01
   7.937763e+01   9.377937e+01
  -4.020176e+01   6.983854e+01
  -9.771819e+01   1.473035e+00
  -5.063410e+01  -3.690769e+01
   1.874942e+01  -7.831416e+00
   1.685140e+01   3.563379e+01
  -4.410220e+01   2.454673e+01
  -7.266833e+01  -3.349355e+01
  -2.145086e+01  -7.065511e+01
   5.866808e+01  -5.298257e+01
   9.150931e+01  -9.657159e+00
   5.702095e+01   3.063963e+01
  -1.263407e+01   6.575227e+01
  -7.622771e+01   7.887052e+01
  -9.901136e+01   3.673387e+01
  -6.369566e+01  -4.661283e+01
  -1.285841e-01  -9.824387e+01
   3.374377e+01  -7.557253e+01
   1.884709e+01  -2.622890e+01
   1.140602e+00  -1.686942e+01
   2.139492e+01  -3.624684e+01
   5.777030e+01  -2.187077e+01
   6.210411e+01   3.612414e+01
   2.225256e+01   7.570766e+01
  -2.675409e+01   5.062283e+01
  -4.726680e+01  -1.813544e+01
  -2.992692e+01  -6.687377e+01
   1.768661e+01  -6.290279e+01
   6.105292e+01  -1.065650e+01
   7.220302e+01   5.397106e+01
   3.039882e+01   8.515819e+01
  -2.978846e+01   6.441117e+01
  -5.366793e+01   1.910576e+01
  -3.943556e+01   2.515451e+00
  -3.495227e+01   9.317808e+00
  -6.787656e+01   4.871117e+00
  -9.997378e+01  -3.799235e+01
  -6.726925e+01  -9.215262e+01
   2.805450e+01  -1.179644e+02
   1.148994e+02  -9.038022e+01
   1.327649e+02  -2.541500e+01
   7.545484e+01   4.157867e+01
   9.890521e-01   7.226383e+01
  -3.742457e+01   5.185890e+01
  -1.285336e+01   4.610865e+00
   3.217642e+01  -1.682862e+01
   4.322006e+01   1.295954e+01
   3.965077e+00   4.305637e+01
  -3.823082e+01   2.748741e+01
  -3.413042e+01  -2.279757e+01
   1.396530e+01  -3.896022e+01
   5.015714e+01   6.539463e+00
   3.312601e+01   7.167385e+01
  -2.071473e+01   8.976893e+01
  -7.092643e+01   4.347552e+01
  -8.613405e+01  -3.045143e+01
  -6.114864e+01  -7.702327e+01
  -8.697601e+00  -7.385276e+01
   3.682511e+01  -3.465287e+01
   4.386257e+01   2.146703e+00
   1.428444e+01   5.728350e+00
  -8.430529e+00  -1.626123e+01
   6.304085e+00  -2.907033e+01
   3.760008e+01  -1.103331e+01
   3.981036e+01   1.666498e+01
   5.268377e+00   1.974672e+01
  -2.408342e+01  -4.539847e+00
  -8.442758e+00  -2.577242e+01
   4.140084e+01  -1.622605e+01
   7.603205e+01   1.804642e+01
   5.849785e+01   5.298317e+01
  -2.933069e+00   6.718715e+01
  -6.172057e+01   5.188514e+01
  -7.352891e+01   1.470238e+01
  -3.459923e+01  -1.833827e+01
   1.174410e+01  -2.045488e+01
   1.798168e+01   4.768664e+00
  -1.786447e+01   2.151803e+01
  -5.202939e+01   1.148255e+00
  -4.511428e+01  -3.918390e+01
  -3.267403e+00  -5.661608e+01
   3.394858e+01  -3.360477e+01
   3.707185e+01   2.854000e+00
   1.278759e+01   1.526621e+01
  -8.808524e+00  -3.019890e+00
  -2.459006e+00  -2.587603e+01
   2.901936e+01  -2.420604e+01
   5.396998e+01   6.478923e+00
   3.954861e+01   4.351895e+01
  -9.792948e+00   5.570452e+01
  -5.150512e+01   3.150401e+01
  -4.751567e+01  -9.631813e+00
  -7.612894e+00  -3.333727e+01
   2.531458e+01  -2.472577e+01
   2.389179e+01  -9.800374e-01
   2.262378e+00   1.072876e+01
  -8.902721e+00   3.821795e+00
   9.087821e-01  -4.063452e+00
   1.740471e+01   4.430082e+00
   1.868483e+01   2.774062e+01
  -4.939837e+00   4.339423e+01
  -4.117129e+01   3.066627e+01
  -6.086569e+01  -1.062215e+01
  -4.323904e+01  -5.252537e+01
   2.769943e+00  -6.275951e+01
   3.851806e+01  -3.635683e+01
   3.938554e+01   8.804003e-01
   1.666400e+01   1.808848e+01
   5.350005e+00   1.067076e+01
   1.414926e+01  -1.866212e+00
   2.234294e+01   1.835023e+00
   1.101619e+01   1.520821e+01
  -1.357201e+01   2.307569e+01
  -2.950048e+01   1.080098e+01
  -2.037070e+01  -1.267726e+01
   1.064557e+01  -2.733280e+01
   4.162337e+01  -1.275098e+01
   4.749109e+01   2.644566e+01
   1.314640e+01   5.919446e+01
  -4.106979e+01   5.224430e+01
  -7.554173e+01   9.521588e+00
  -6.184963e+01  -3.580308e+01
  -1.750089e+01  -5.018739e+01
   2.005058e+01  -3.468386e+01
   2.839205e+01  -1.635991e+01
   2.155216e+01  -1.357073e+01
   1.970778e+01  -2.059694e+01
   2.750100e+01  -1.514085e+01
   3.307524e+01   1.188775e+01
   2.245645e+01   4.600782e+01
  -5.014872e+00   5.956338e+01
  -3.432731e+01   3.812385e+01
  -4.448570e+01  -5.096993e+00
  -2.677397e+01  -3.862295e+01
   4.324292e+00  -4.125149e+01
   2.280067e+01  -1.889312e+01
   1.646183e+01   4.682092e+00
  -9.897483e-01   1.323362e+01
  -6.200843e+00   9.548314e+00
   6.280917e+00   6.031972e+00
   1.862878e+01   8.635804e+00
   9.927913e+00   1.223376e+01
  -1.871233e+01   8.065773e+00
  -4.207047e+01  -6.011319e+00
  -3.487759e+01  -2.171170e+01
   1.156177e+00  -2.635272e+01
   3.509513e+01  -1.455143e+01
   3.747618e+01   4.450940e+00
   1.026603e+01   1.448282e+01
  -1.612454e+01   7.404790e+00
  -1.751166e+01  -8.867944e+00
   6.704541e-01  -1.837524e+01
   1.577501e+01  -1.248004e+01
   1.597700e+01   3.337415e+00
   1.011819e+01   1.425916e+01
   9.692146e+00   1.223757e+01
   1.520235e+01   3.836916e+00
   1.680292e+01   4.040286e+00
   6.976251e+00   1.947553e+01
  -1.374444e+01   3.586230e+01
  -3.608823e+01   3.089608e+01
  -4.435972e+01   1.507493e+00
  -2.848712e+01  -2.803430e+01
   3.008189e+00  -3.207735e+01
   2.386157e+01  -1.220805e+01
   1.418535e+01   5.298686e+00
  -1.580062e+01   8.652757e-01
  -3.211556e+01  -1.880558e+01
  -1.327363e+01  -3.197628e+01
   2.666131e+01  -2.523910e+01
   5.143654e+01  -3.776344e+00
   4.028997e+01   1.713028e+01
   5.956916e+00   2.437897e+01
  -1.846653e+01   1.537106e+01
  -1.334650e+01  -2.609746e-02
   9.473923e+00  -5.072545e+00
   2.058051e+01   8.503857e+00
   3.441477e+00   2.913636e+01
  -2.782427e+01   3.297664e+01
  -4.295843e+01   8.343528e+00
  -2.677495e+01  -2.924421e+01
   6.306856e+00  -4.867531e+01
   2.895369e+01  -3.209480e+01
   2.715089e+01   6.299803e+00
   9.528816e+00   3.288772e+01
  -7.436506e+00   2.753672e+01
  -1.423279e+01   3.303856e+00
  -1.136418e+01  -1.094096e+01
  -4.765282e+00  -4.559942e+00
  -1.367153e+00   4.103689e+00
  -4.871787e+00  -5.110510e+00
  -9.566462e+00  -2.491397e+01
  -3.720594e+00  -2.947537e+01
   1.544496e+01  -8.911235e+00
   3.295768e+01   1.714157e+01
   2.847332e+01   2.523181e+01
   1.857277e+00   1.442062e+01
  -2.271223e+01   1.570584e+00
  -2.270411e+01  -3.017743e+00
  -3.334426e+00  -3.323480e+00
   1.039633e+01  -4.092988e+00
   5.565676e+00  -3.664946e+00
  -3.808264e+00  -1.371882e-01
   1.357518e+00   3.087091e+00
   1.746277e+01   4.771635e+00
   2.150843e+01   1.029170e+01
  -3.203083e-01   2.046720e+01
  -3.362888e+01   2.369065e+01
  -4.966921e+01   7.339136e+00
  -3.437939e+01  -2.238782e+01
  -3.460542e-01  -4.204459e+01
   2.732411e+01  -3.527551e+01
   3.309961e+01  -1.027679e+01
   2.047275e+01   9.756716e+00
   4.622659e+00   1.149327e+01
  -1.843425e+00   3.460571e+00
   1.484005e+00   2.245879e+00
   5.239925e+00   1.319036e+01
   8.088388e-01   2.340234e+01
  -1.075955e+01   1.623033e+01
  -1.942291e+01  -8.380795e+00
  -1.506194e+01  -3.045517e+01
   2.588812e+00  -2.860715e+01
   2.061938e+01  -3.722065e+00
   2.283688e+01   2.179021e+01
   5.087925e+00   2.690126e+01
  -1.789210e+01   1.185557e+01
  -2.426587e+01  -6.703249e+00
  -8.790148e+00  -1.504902e+01
   1.005906e+01  -1.275637e+01
   1.011251e+01  -6.001615e+00
  -6.990927e+00  -5.619190e-01
  -1.704317e+01  -7.116115e-01
  -3.323849e+00  -7.031901e+00
   2.203809e+01  -1.328431e+01
   3.165676e+01  -9.247297e+00
   1.634403e+01   6.120533e+00
  -7.246286e+00   1.999744e+01
  -1.731747e+01   1.746081e+01
  -1.019907e+01   1.143804e-01
   2.212128e+00  -1.362738e+01
   8.709005e+00  -9.920231e+00
   8.328623e+00   5.440203e+00
   4.002797e+00   1.450516e+01
  -2.254314e+00   8.747343e+00
  -7.548680e+00  -3.047578e+00
  -8.885535e+00  -7.252997e+00
  -5.339702e+00  -1.925586e+00
  -5.965047e-01   3.513890e+00
   2.133704e+00   2.944232e-01
   3.187019e+00  -8.313654e+00
   5.420179e+00  -1.095561e+01
   7.834653e+00  -1.818526e+00
   6.421157e+00   1.154249e+01
  -1.489252e+00   1.507127e+01
  -1.086362e+01   4.161360e+00
  -1.229858e+01  -1.112751e+01
  -1.368846e+00  -1.561438e+01
   1.465895e+01  -5.946515e+00
   2.116631e+01   7.487086e+00
   1.029158e+01   1.313801e+01
  -8.507048e+00   9.295311e+00
  -1.666056e+01   3.032439e+00
  -6.782200e+00   4.419467e-01
   7.719709e+00   1.863681e+00
   7.649758e+00   4.581866e+00
  -8.639206e+00   5.404213e+00
  -2.226405e+01   3.862259e-01
