
 $NMID
 id='ANONYMOUS ', fmtdat='(2E16.6)'
 volume=1.0
 tramp=1.0
 $END
  -1.622939e+02   3.692635e+01
  -1.423300e+02  -1.075844e+02
   1.943711e+01  -6.888833e+01
  -3.605121e+00   2.820592e+01
  -6.481523e+01  -6.170430e+00
  -4.558503e+01  -3.166664e+00
  -3.892536e+01  -1.007309e+01
   5.004392e+00   6.367647e+00
  -1.392365e+01  -1.800663e+01
  -1.772162e+01  -3.945143e+01
   5.671605e+00  -6.543332e+00
  -4.010756e+01   3.264521e+01
  -4.105469e+01  -1.368957e+01
   1.482615e+01  -4.181398e+01
  -2.867772e+00  -1.233635e+01
  -2.944747e+01   1.533319e+01
  -2.013724e+00  -1.056979e+01
  -1.053753e+01   1.018455e+01
  -4.961785e+01   4.951719e+00
  -5.568693e+00  -2.414118e+01
   3.200798e+01  -5.279204e+00
   3.990553e-01   3.680343e+01
  -9.393411e+00   3.603897e+00
  -2.451086e+01   1.101875e+01
  -1.903899e+00  -2.819892e+01
   2.822573e+01  -1.765510e+01
   1.470311e+01   1.363468e+01
  -1.354889e+01   1.196405e+01
  -9.250634e+00   8.245971e+00
  -1.222099e+01  -5.548196e+00
   1.837108e+01  -2.050860e+01
   7.913674e+00  -1.827671e+01
  -6.190371e-01   2.261246e+01
   3.779486e+00   1.234511e+01
  -1.397475e+01  -8.714589e+00
  -6.950248e+00  -8.446033e+00
  -1.020742e-01   3.096297e+00
   1.782212e+01   2.698678e+00
   1.534251e+01   6.673969e+00
  -5.285267e+00   1.094154e-01
  -1.145323e+01  -1.168100e+01
   6.086374e-01  -7.214851e-01
   2.678058e+00  -7.323069e+00
   7.980315e+00   1.459300e+00
  -2.120666e+00   6.706429e+00
  -9.490307e+00   1.524950e+00
  -2.765089e-01  -4.429459e+00
   2.787188e+00  -3.866292e+00
  -2.580565e+00  -3.705876e+00
   8.440078e-01   4.469654e-02
   4.666384e+00   2.645440e+00
   2.474629e+00   3.203824e+00
  -5.647185e-02   9.706214e-02
  -1.150166e+00  -1.816281e+00
  -3.053208e+00  -1.095837e+00
  -2.053050e+00  -5.985258e-01
   7.111184e-01  -1.399992e+00
   1.117124e+00  -2.234799e+00
  -1.964797e-01  -2.218377e+00
   6.436688e-01  -9.009169e-01
   2.186372e+00  -2.246509e-01
   5.280544e-01   7.797233e-01
  -3.332960e+00   1.492952e+00
  -5.363891e+00   1.145846e+00
  -3.246137e+00  -1.546949e+00
  -4.632923e-01  -4.311919e+00
   4.032519e-01  -4.631665e+00
   9.046209e-02  -1.893248e+00
   6.469549e-01   6.225033e-01
   1.134706e+00   1.507080e+00
   1.073255e+00  -4.670885e-03
  -5.073097e-01  -2.629990e-01
  -6.007877e-01   1.351277e+00
  -3.809640e-01   3.097696e+00
  -1.537968e+00   2.742085e+00
  -4.597684e+00  -1.210950e-02
  -5.112161e+00  -3.297995e+00
  -2.441316e-01  -3.728823e+00
   4.299758e+00  -1.357831e+00
   3.892562e+00   2.646557e+00
   7.139269e-01   4.424557e+00
  -3.909115e+00   5.359412e+00
  -6.537627e+00   3.590729e+00
  -3.921264e+00  -2.350245e+00
  -5.072300e-01  -4.082743e+00
   4.149005e-01   5.118724e-01
  -1.192059e+00  -3.119046e-01
  -2.546360e-01  -8.668502e-01
   1.321700e+00  -5.127695e+00
   5.885682e+00  -4.167719e+00
   7.409199e+00   3.753821e+00
   2.106675e+00   9.835661e+00
  -3.700698e+00   7.876647e+00
  -7.224813e+00   1.765686e+00
  -5.968454e+00  -6.905651e+00
  -1.420867e+00  -6.359759e+00
   6.117796e+00  -9.556424e-01
   4.693554e+00   2.350891e+00
  -6.233155e-01   4.647443e+00
  -2.737557e+00   1.306254e+00
  -7.175806e-01  -1.336342e+00
   2.136871e+00  -1.814521e+00
   2.176719e+00   1.415011e+00
  -2.555768e+00   4.715845e+00
  -7.325541e+00   2.161031e+00
  -5.875445e+00  -4.713801e+00
  -7.141444e-01  -7.731118e+00
   5.691013e+00  -6.132675e+00
   7.332052e+00   1.723346e-01
   3.992028e+00   4.581093e+00
  -8.006394e-01   3.773727e+00
  -2.541809e+00   1.153252e+00
  -1.322724e+00  -4.969696e-01
   5.397388e-01  -7.942850e-01
   1.115372e+00   5.641740e-01
  -5.964257e-01   1.088117e+00
  -2.007231e+00  -1.821223e-01
  -6.281056e-01  -2.771394e+00
   2.857239e+00  -3.328585e+00
   5.025069e+00   2.710048e-01
   3.396382e+00   5.391507e+00
  -1.910872e+00   7.668591e+00
  -6.813583e+00   4.144731e+00
  -7.320180e+00  -3.030511e+00
  -3.045892e+00  -7.540850e+00
   2.833320e+00  -6.077867e+00
   4.901324e+00  -9.270062e-01
   2.545734e+00   2.596392e+00
  -1.000857e+00   1.436347e+00
  -1.915564e+00  -1.664496e+00
   8.415214e-01  -2.922065e+00
   3.797275e+00  -7.790118e-01
   3.396371e+00   2.669615e+00
  -2.032170e-01   3.170045e+00
  -3.380662e+00   6.601766e-01
  -2.435915e+00  -2.450532e+00
   1.601237e+00  -3.240504e+00
   4.961000e+00  -3.155269e-01
   3.941587e+00   3.929986e+00
  -1.049999e+00   5.666033e+00
  -5.432049e+00   3.083392e+00
  -5.504384e+00  -1.848715e+00
  -1.869297e+00  -4.389480e+00
   1.717029e+00  -2.991295e+00
   2.130882e+00  -2.233153e-01
   3.412541e-02   1.120268e+00
  -1.205388e+00  -3.753060e-01
   6.009903e-01  -1.920316e+00
   3.410873e+00  -2.621118e-01
   2.928883e+00   3.285116e+00
  -1.333120e+00   4.601647e+00
  -5.392070e+00   2.609479e+00
  -5.992707e+00  -2.865525e+00
  -1.217375e+00  -6.346325e+00
   4.317394e+00  -5.014704e+00
   6.158860e+00  -8.132054e-02
   3.956974e+00   4.236283e+00
  -5.743843e-01   5.080719e+00
  -3.083333e+00   1.662565e+00
  -2.975694e+00  -1.192729e+00
  -6.215210e-02  -7.787130e-01
   7.042541e-01   8.945425e-01
  -1.624854e+00   2.377587e+00
  -3.361834e+00   2.031441e-01
  -2.218741e+00  -3.232807e+00
   1.560474e+00  -5.646325e+00
   5.410647e+00  -2.501765e+00
   4.538062e+00   4.050945e+00
  -1.306370e+00   6.874022e+00
  -5.919426e+00   3.784559e+00
  -7.125174e+00  -2.494907e+00
  -2.152922e+00  -7.151413e+00
   3.976206e+00  -6.086845e+00
   5.736597e+00  -1.517407e+00
   3.510491e+00   1.275208e+00
   6.952815e-01   1.974267e+00
  -1.914883e-01   1.495254e+00
   1.570919e+00   8.984503e-01
   2.702950e+00   2.161647e+00
   7.742753e-01   3.958555e+00
  -3.692186e+00   3.537361e+00
  -6.508994e+00  -4.162983e-02
  -4.745232e+00  -4.287788e+00
   3.386061e-01  -5.772448e+00
   4.565597e+00  -3.203139e+00
   5.057317e+00   1.418553e+00
   1.801828e+00   4.642167e+00
  -2.071616e+00   3.735041e+00
  -3.486709e+00   7.525011e-02
  -1.968674e+00  -2.697430e+00
   2.738519e-01  -2.292773e+00
   5.018700e-01   2.501214e-02
  -9.492868e-01   1.128792e+00
  -1.190356e+00  -5.558841e-01
   1.116225e+00  -3.019654e+00
   4.100859e+00  -2.743495e+00
   4.467620e+00   9.463953e-01
   1.376768e+00   4.714201e+00
  -2.962648e+00   4.692523e+00
  -4.665817e+00   8.647333e-01
  -2.809030e+00  -3.272728e+00
   1.006456e+00  -3.925675e+00
   3.778190e+00  -1.215489e+00
   3.526867e+00   2.024541e+00
   4.954716e-01   3.018610e+00
  -2.151082e+00   1.297041e+00
  -1.974571e+00  -5.529836e-01
  -1.885140e-03  -2.814661e-01
   1.023388e+00   1.838992e+00
  -7.201961e-01   2.781156e+00
  -3.423512e+00   6.583212e-01
  -4.002027e+00  -3.673534e+00
  -3.088044e-01  -6.435839e+00
   4.935581e+00  -4.548130e+00
   6.468681e+00   1.236089e+00
   2.851356e+00   5.872299e+00
  -2.689445e+00   5.799636e+00
  -5.167337e+00   8.871712e-01
  -2.260365e+00  -3.907252e+00
   2.271710e+00  -4.249384e+00
   3.613965e+00  -5.649861e-01
   1.233087e+00   3.043937e+00
  -2.108382e+00   3.398723e+00
  -2.575314e+00   3.627502e-01
  -5.489687e-01  -2.254811e+00
   1.940274e+00  -1.521471e+00
   2.142179e+00   1.773507e+00
  -4.806362e-01   3.994593e+00
  -4.134499e+00   2.416199e+00
  -5.587751e+00  -2.307860e+00
  -2.927950e+00  -6.208756e+00
   2.409592e+00  -5.655416e+00
   6.074198e+00  -9.206734e-01
   5.127279e+00   3.521597e+00
   8.029205e-01   4.102454e+00
  -2.941443e+00   1.392333e+00
  -2.907015e+00  -1.276748e+00
  -2.847494e-01  -1.438729e+00
   1.309092e+00  -6.001157e-02
   2.677325e-01   6.721018e-01
  -1.425154e+00  -4.249435e-01
  -9.640396e-01  -1.945961e+00
   1.971167e+00  -1.977175e+00
   4.381918e+00  -1.438446e-02
   3.285854e+00   2.642916e+00
  -7.896432e-01   4.056025e+00
  -4.307002e+00   2.997413e+00
  -4.343641e+00   4.577257e-02
  -1.612786e+00  -2.579917e+00
   1.307984e+00  -2.912821e+00
   1.841435e+00  -9.792639e-01
   5.241343e-01   9.123439e-01
  -8.976506e-01   6.877694e-01
  -4.484422e-01  -1.108165e+00
   1.316588e+00  -1.843059e+00
   2.489441e+00   2.638108e-01
   9.864337e-01   3.502793e+00
  -2.364121e+00   3.840288e+00
  -4.417447e+00   4.755382e-02
  -2.760214e+00  -4.981714e+00
   1.408328e+00  -6.191449e+00
   4.665487e+00  -2.368400e+00
   4.465449e+00   2.741829e+00
   1.282492e+00   4.840968e+00
  -1.826308e+00   2.809757e+00
  -2.433341e+00  -3.128980e-01
  -5.940750e-01  -1.537682e+00
   1.369846e+00  -2.234526e-01
   1.065887e+00   1.439930e+00
  -1.434989e+00   1.453348e+00
  -3.339523e+00  -2.758263e-01
  -2.011810e+00  -2.155530e+00
   1.775560e+00  -2.185541e+00
   4.112708e+00  -1.837536e-01
   2.460890e+00   2.444304e+00
  -1.816171e+00   3.021197e+00
  -4.477397e+00   9.028896e-01
  -3.086649e+00  -2.322710e+00
   6.910261e-01  -3.879246e+00
   3.274885e+00  -2.240000e+00
   2.632801e+00   1.133038e+00
   3.031434e-01   2.852276e+00
  -1.192992e+00   1.354995e+00
  -4.698430e-01  -1.454676e+00
   1.159856e+00  -2.214141e+00
   1.712843e+00   3.503338e-01
   4.077836e-01   3.356035e+00
  -1.505915e+00   3.682392e+00
  -2.418705e+00   7.040238e-01
  -1.700335e+00  -2.627098e+00
   7.871707e-02  -3.054512e+00
   1.500244e+00  -6.558013e-01
   1.439210e+00   2.032556e+00
  -4.372448e-01   2.251763e+00
  -2.339006e+00   3.662562e-01
  -2.279448e+00  -1.548269e+00
  -3.560224e-01  -2.027726e+00
   1.792676e+00  -9.828590e-01
   1.731282e+00   2.679733e-01
   6.773729e-02   2.717842e-01
  -1.207919e+00  -4.005423e-01
  -4.223433e-01  -8.509106e-01
   1.489307e+00  -2.374108e-01
   2.071947e+00   1.089160e+00
   2.321979e-01   1.735282e+00
  -2.081755e+00   6.427761e-01
  -2.201876e+00  -1.287978e+00
   2.753811e-01  -2.258052e+00
   2.795398e+00  -1.335045e+00
   2.780175e+00   1.171838e+00
   3.004029e-01   3.305708e+00
  -2.346916e+00   2.985172e+00
  -2.701603e+00   3.109191e-01
  -1.002546e+00  -2.287691e+00
   7.029378e-01  -2.392284e+00
   1.040015e+00  -2.025524e-01
  -1.067567e-01   1.772048e+00
  -1.321026e+00   1.205880e+00
  -1.082302e+00  -1.310481e+00
   3.362475e-01  -2.846769e+00
