
 $NMID
 id='ANONYMOUS ', fmtdat='(2E16.6)'
 volume=1.0
 tramp=1.0
 $END
  -3.719361e+03  -7.292568e+01
  -2.371095e+03  -1.973700e+03
   3.095439e+02  -2.111607e+03
   1.624394e+03  -1.135692e+03
   9.020700e+02   1.891159e+02
  -3.100974e+02   2.877440e+02
  -5.931200e+02  -2.295709e+02
   3.375398e+01  -6.926017e+02
   5.656611e+02  -6.848231e+02
   8.640601e+02  -7.621489e+00
   3.958667e+02   7.820954e+02
  -1.495610e+02   6.982918e+02
  -4.794458e+02   6.552520e+01
  -3.785039e+02  -5.372376e+02
   1.687761e+02  -5.881536e+02
   4.957898e+02   1.043431e+01
   2.578387e+02   5.271276e+02
  -2.502492e+02   5.954563e+02
  -5.282848e+02   1.698360e+02
  -4.112531e+02  -2.212137e+02
  -6.022784e+01  -3.528146e+02
   2.106460e+02  -2.755751e+02
   1.422566e+02  -3.881321e+01
  -1.510849e+02  -1.098127e+01
  -3.519341e+02  -1.642546e+02
  -1.317029e+02  -3.514615e+02
   4.381808e+02  -2.818050e+02
   6.908861e+02   1.198159e+02
   3.290222e+02   4.130138e+02
  -3.624194e+02   3.328160e+02
  -6.173843e+02  -8.199347e+01
  -2.684105e+02  -4.017596e+02
   2.698717e+02  -4.373166e+02
   4.989545e+02  -1.533344e+02
   3.413188e+02   2.021257e+02
   8.218129e+01   3.843305e+02
  -1.075592e+02   2.213468e+02
  -7.233199e+01  -1.536414e+02
   1.513533e+02  -3.124334e+02
   3.297726e+02   5.859097e+01
   1.556069e+02   5.718541e+02
  -2.644285e+02   5.659838e+02
  -4.714155e+02   2.797896e+01
  -2.208913e+02  -4.376338e+02
   2.069701e+02  -2.504978e+02
   2.982686e+02   2.672443e+02
  -7.514588e+01   4.513585e+02
  -4.969742e+02   1.067801e+02
  -5.487341e+02  -3.748612e+02
  -1.677193e+02  -5.296882e+02
   3.341481e+02  -3.081005e+02
   5.725064e+02   5.279788e+01
   3.593466e+02   2.912294e+02
  -9.381262e+01   2.732367e+02
  -3.522958e+02   6.627381e+01
  -2.165687e+02  -9.914612e+01
   6.764943e+01  -5.463138e+01
   1.105639e+02   1.038450e+02
  -1.188837e+02   1.239802e+02
  -2.804222e+02  -5.485896e+01
  -1.356018e+02  -2.344663e+02
   1.633906e+02  -2.385872e+02
   3.118674e+02  -9.846882e+01
   2.087380e+02   7.991627e+01
  -2.123785e+01   2.443211e+02
  -2.235055e+02   3.183501e+02
  -3.090349e+02   1.810143e+02
  -2.420129e+02  -1.366749e+02
  -7.208754e+01  -3.746940e+02
   6.284494e+01  -3.296478e+02
   7.033078e+01  -1.246167e+02
   3.096376e+01  -3.293226e+01
   8.003910e+01  -9.755024e+01
   2.044255e+02  -1.040880e+02
   2.480370e+02   6.470097e+01
   1.298653e+02   2.447588e+02
  -6.653889e+01   2.208631e+02
  -1.949040e+02   1.468715e+00
  -1.639852e+02  -2.137460e+02
   1.353926e+01  -2.487311e+02
   2.281188e+02  -9.148318e+01
   3.101594e+02   1.442379e+02
   1.716435e+02   2.915099e+02
  -6.703582e+01   2.657323e+02
  -1.860342e+02   1.278417e+02
  -1.392265e+02   2.828323e+01
  -1.028854e+02   3.908412e+01
  -2.229902e+02   4.940131e+01
  -3.705896e+02  -5.541211e+01
  -3.076989e+02  -2.547246e+02
   4.594920e+00  -4.082296e+02
   3.407032e+02  -3.861175e+02
   4.481913e+02  -1.884468e+02
   2.933501e+02   8.709360e+01
   3.972875e+01   2.619325e+02
  -9.910967e+01   2.211603e+02
  -4.544197e+01   3.317929e+01
   1.040476e+02  -7.788423e+01
   1.530056e+02   1.426102e+01
   2.872487e+01   1.596558e+02
  -1.320292e+02   1.361070e+02
  -1.384381e+02  -5.331566e+01
   2.004545e+01  -1.606085e+02
   1.712382e+02  -2.469443e+01
   1.549282e+02   2.234565e+02
  -1.768286e+01   3.264154e+02
  -2.149058e+02   1.923504e+02
  -3.188995e+02  -4.890226e+01
  -2.645151e+02  -2.241573e+02
  -8.006727e+01  -2.479334e+02
   1.084228e+02  -1.461371e+02
   1.537578e+02  -2.024759e+01
   4.489016e+01   2.189644e+01
  -5.868810e+01  -3.942558e+01
  -1.647718e+01  -1.082101e+02
   1.140372e+02  -8.353941e+01
   1.546238e+02   1.096123e+01
   4.598417e+01   5.932244e+01
  -7.427958e+01   7.858197e+00
  -4.690791e+01  -7.212896e+01
   1.204586e+02  -8.261727e+01
   2.674466e+02   2.429642e+00
   2.451992e+02   1.362902e+02
   4.977921e+01   2.396933e+02
  -1.747621e+02   2.373529e+02
  -2.574696e+02   1.132277e+02
  -1.502601e+02  -4.161290e+01
   1.917136e+01  -9.163498e+01
   7.306057e+01  -7.667021e+00
  -3.430638e+01   8.435184e+01
  -1.734121e+02   4.979034e+01
  -1.894145e+02  -8.860187e+01
  -6.558724e+01  -1.820893e+02
   8.000351e+01  -1.410134e+02
   1.255167e+02  -2.684342e+01
   5.736482e+01   3.618339e+01
  -3.279131e+01  -2.195550e+00
  -3.617079e+01  -8.459762e+01
   6.923626e+01  -1.114651e+02
   1.844993e+02  -3.188818e+01
   1.762739e+02   1.084724e+02
   2.414851e+01   1.968219e+02
  -1.401965e+02   1.528098e+02
  -1.691347e+02   1.390430e+01
  -6.054406e+01  -9.804055e+01
   5.472897e+01  -1.004067e+02
   7.078938e+01  -2.813044e+01
   1.253080e+01   2.469751e+01
  -2.371795e+01   1.459609e+01
   1.010930e+01  -1.586901e+01
   7.438900e+01   1.489020e+00
   9.109693e+01   7.800203e+01
   1.569662e+01   1.548806e+02
  -1.204366e+02   1.470475e+02
  -2.172225e+02   2.553657e+01
  -1.860774e+02  -1.340361e+02
  -4.436874e+01  -2.130858e+02
   9.010234e+01  -1.555242e+02
   1.196647e+02  -3.212262e+01
   6.747630e+01   4.409438e+01
   2.907499e+01   2.960037e+01
   4.911628e+01  -1.382817e+01
   7.563487e+01  -9.194450e+00
   4.595696e+01   4.638292e+01
  -3.518884e+01   9.122529e+01
  -1.011757e+02   6.226921e+01
  -9.085071e+01  -3.269334e+01
   8.219551e+00  -1.138458e+02
   1.343245e+02  -9.070166e+01
   1.837103e+02   4.316624e+01
   9.289555e+01   1.858096e+02
  -9.468566e+01   2.111946e+02
  -2.362094e+02   9.142404e+01
  -2.295231e+02  -7.235808e+01
  -1.024067e+02  -1.539240e+02
   2.802908e+01  -1.301008e+02
   7.896834e+01  -7.614492e+01
   6.726412e+01  -6.540594e+01
   5.717920e+01  -8.650441e+01
   8.218937e+01  -7.195411e+01
   1.176059e+02   1.726523e+01
   1.097909e+02   1.401318e+02
   2.918037e+01   2.064272e+02
  -8.916821e+01   1.563482e+02
  -1.609376e+02   1.690703e+01
  -1.256791e+02  -1.131891e+02
  -1.707693e+01  -1.471193e+02
   6.485798e+01  -8.367311e+01
   5.827435e+01   3.572726e+00
   3.296855e+00   4.435689e+01
  -1.453456e+01   3.309265e+01
   3.056578e+01   1.304745e+01
   7.522609e+01   1.673741e+01
   4.299166e+01   3.540338e+01
  -6.268655e+01   3.771993e+01
  -1.515533e+02   4.964273e+00
  -1.327229e+02  -4.939285e+01
  -9.437515e+00  -8.658862e+01
   1.149257e+02  -7.251997e+01
   1.342720e+02  -1.315329e+01
   4.542396e+01   4.131234e+01
  -5.350001e+01   4.021894e+01
  -7.149478e+01  -1.382772e+01
  -1.410238e+01  -6.427489e+01
   4.592292e+01  -5.768332e+01
   6.094187e+01  -1.061168e+00
   4.712833e+01   4.589098e+01
   4.153301e+01   3.883284e+01
   5.221652e+01   1.052337e+00
   5.853340e+01  -1.374003e+00
   3.632801e+01   6.106709e+01
  -2.441546e+01   1.346208e+02
  -1.060605e+02   1.328689e+02
  -1.550096e+02   3.500549e+01
  -1.169685e+02  -8.258728e+01
  -5.865282e+00  -1.208983e+02
   8.226899e+01  -6.447171e+01
   5.954471e+01   1.061265e+01
  -5.013625e+01   2.421483e+01
  -1.235126e+02  -3.010884e+01
  -7.001044e+01  -9.168883e+01
   7.051596e+01  -1.014690e+02
   1.699962e+02  -4.828623e+01
   1.444513e+02   2.990577e+01
   3.110602e+01   7.780895e+01
  -5.765319e+01   6.185410e+01
  -4.592460e+01   3.922355e+00
   3.514259e+01  -2.810924e+01
   8.509982e+01   1.596663e+01
   3.650228e+01   1.058240e+02
  -7.503891e+01   1.441346e+02
  -1.488284e+02   6.494031e+01
  -1.197889e+02  -8.512382e+01
  -1.791807e+01  -1.793540e+02
   7.311029e+01  -1.342539e+02
   9.703139e+01   3.942097e+00
   5.854136e+01   1.065743e+02
  -1.445770e+00   9.647963e+01
  -4.295553e+01   1.880585e+01
  -4.596872e+01  -2.632235e+01
  -2.053578e+01  -5.831634e+00
  -4.057908e+00   1.868321e+01
  -2.371718e+01  -1.412558e+01
  -5.528851e+01  -7.866417e+01
  -3.854887e+01  -9.736559e+01
   4.460839e+01  -4.316351e+01
   1.263452e+02   2.988327e+01
   1.181040e+02   6.066246e+01
   1.811754e+01   4.739013e+01
  -7.616972e+01   2.538898e+01
  -7.949328e+01   9.907897e+00
  -1.341531e+01  -6.876211e+00
   3.134143e+01  -2.094721e+01
   1.287079e+01  -1.612469e+01
  -1.781409e+01   1.553067e+00
   4.148319e+00   6.784670e+00
   6.481633e+01   5.925560e-01
   8.487434e+01   1.818697e+01
   1.562939e+01   7.140827e+01
  -9.960272e+01   1.075654e+02
  -1.681516e+02   6.249276e+01
  -1.361532e+02  -5.217170e+01
  -3.196203e+01  -1.458342e+02
   6.806335e+01  -1.430147e+02
   1.052031e+02  -6.109951e+01
   7.691519e+01   1.680731e+01
   2.618208e+01   3.423844e+01
  -3.317873e-01   1.112365e+01
   9.790811e+00   6.187311e+00
   2.974391e+01   4.331183e+01
   2.154986e+01   8.302633e+01
  -2.419735e+01   6.686269e+01
  -7.373429e+01  -1.246172e+01
  -7.574394e+01  -9.232985e+01
  -1.327183e+01  -9.998533e+01
   6.895376e+01  -2.789805e+01
   9.545052e+01   5.874205e+01
   3.570771e+01   9.053169e+01
  -5.612159e+01   5.576553e+01
  -9.041675e+01  -4.973290e+00
  -3.971951e+01  -4.713388e+01
   2.821920e+01  -5.276784e+01
   3.144409e+01  -2.808687e+01
  -2.637026e+01   3.517850e+00
  -6.148186e+01   9.820640e+00
  -1.622063e+01  -2.230311e+01
   6.883500e+01  -6.181770e+01
   1.059802e+02  -5.454175e+01
   6.300247e+01   1.118679e+01
  -9.882165e+00   7.772216e+01
  -4.846126e+01   7.661565e+01
  -3.859916e+01   9.969517e+00
  -7.111793e+00  -4.934334e+01
   2.055413e+01  -4.284025e+01
   3.398738e+01   1.124216e+01
   2.738839e+01   4.766233e+01
   2.486196e-01   3.298018e+01
  -3.039033e+01  -4.500759e+00
  -3.859221e+01  -1.894380e+01
  -2.032510e+01  -2.080653e+00
   1.933295e+00   1.372918e+01
   6.761441e+00   2.463957e-01
   1.394734e+00  -3.135129e+01
   7.533439e+00  -4.294465e+01
   2.640933e+01  -1.300649e+01
   3.327378e+01   3.453851e+01
   6.851335e+00   5.285843e+01
  -3.717342e+01   2.152516e+01
  -5.427386e+01  -2.998653e+01
  -1.688779e+01  -5.406437e+01
   4.943262e+01  -3.310053e+01
   8.267224e+01   9.103617e+00
   4.667638e+01   3.836825e+01
  -2.432568e+01   4.070876e+01
  -5.805585e+01   2.485304e+01
  -2.424785e+01   6.054642e+00
   2.893203e+01  -1.560337e+00
   3.189034e+01   9.110278e+00
  -2.381803e+01   2.652169e+01
  -7.607825e+01   2.081267e+01
