
 $NMID
 id='ANONYMOUS ', fmtdat='(2E16.6)'
 volume=1.0
 tramp=1.0
 $END
   2.602458e+03  -8.606534e+01
   1.705058e+03   9.794058e+02
  -5.967339e+01   1.427343e+03
  -8.638907e+02   1.201744e+03
  -7.283678e+02   3.199027e+02
  -2.322749e+02   8.138920e+01
   6.536357e+01   1.088850e+02
  -6.028333e+00   3.642746e+02
  -3.135544e+02   3.916231e+02
  -4.151423e+02   1.482998e+02
  -2.954344e+02  -2.740973e+02
  -4.396453e+01  -5.114118e+02
   1.635559e+02  -1.296277e+02
   1.652338e+02   3.436534e+02
  -3.992067e+01   4.624174e+02
  -2.795235e+02   9.020558e+01
  -2.551887e+02  -3.924920e+02
   5.479453e+01  -5.369086e+02
   3.977423e+02  -2.507022e+02
   4.214011e+02   1.140983e+02
   1.556018e+02   2.835419e+02
  -4.137582e+01   2.141078e+02
  -9.723654e+00   9.397811e+01
   2.078225e+02   1.587505e+02
   2.302151e+02   3.305941e+02
  -7.743134e+01   3.396099e+02
  -4.387552e+02   6.168009e+01
  -4.967257e+02  -2.399860e+02
  -1.333297e+02  -2.866710e+02
   3.061364e+02  -8.241819e+01
   3.888288e+02   1.873223e+02
   1.058677e+02   3.150881e+02
  -2.505238e+02   2.686076e+02
  -3.997466e+02   9.467081e+01
  -2.683116e+02  -1.157912e+02
  -7.775450e+01  -2.321879e+02
  -3.908984e+01  -1.503848e+02
  -1.171334e+02   4.101102e+01
  -1.878653e+02   6.504234e+01
  -1.099928e+02  -1.618154e+02
   7.154372e+01  -4.152838e+02
   2.078275e+02  -3.520847e+02
   2.245906e+02  -1.254909e+01
   7.682095e+01   2.167901e+02
  -8.903275e+01   7.883508e+01
  -9.525358e+01  -2.438671e+02
   1.168192e+02  -3.222555e+02
   3.824234e+02  -3.078949e+01
   4.278270e+02   3.426626e+02
   1.513090e+02   4.406114e+02
  -2.590200e+02   2.179578e+02
  -4.640185e+02  -7.493869e+01
  -3.127096e+02  -2.076667e+02
   1.699511e+01  -1.746649e+02
   2.345549e+02  -8.824305e+01
   2.081226e+02  -3.162375e+01
   5.674835e+01  -1.185958e+01
  -1.097971e+01  -1.263952e+01
   6.976343e+01  -8.476309e+00
   1.688472e+02   4.066104e+01
   1.127546e+02   1.432578e+02
  -1.111457e+02   2.194644e+02
  -3.122597e+02   1.487838e+02
  -2.750657e+02  -8.578649e+01
   6.421824e+00  -3.264740e+02
   2.999816e+02  -3.622167e+02
   3.665873e+02  -1.410699e+02
   2.051374e+02   1.631166e+02
   2.258349e+01   3.218437e+02
  -2.259115e+01   2.764824e+02
   1.675620e+01   1.650540e+02
  -1.067513e+01   1.237042e+02
  -1.418276e+02   1.226361e+02
  -2.560711e+02   4.235232e+01
  -2.285965e+02  -1.293054e+02
  -6.630265e+01  -2.443093e+02
   1.091829e+02  -1.602369e+02
   1.778979e+02   7.243508e+01
   9.979638e+01   2.511319e+02
  -7.785448e+01   2.218155e+02
  -2.402572e+02   2.241998e+01
  -2.698824e+02  -1.830904e+02
  -1.400577e+02  -2.679740e+02
   4.083137e+01  -2.332161e+02
   1.380883e+02  -1.564890e+02
   1.407474e+02  -1.058241e+02
   1.641263e+02  -7.845662e+01
   2.917652e+02  -2.320568e+01
   4.070888e+02   1.089268e+02
   3.079237e+02   2.941989e+02
  -3.394575e+01   4.220773e+02
  -3.814182e+02   3.802260e+02
  -4.614295e+02   1.579348e+02
  -2.544161e+02  -1.046556e+02
   4.378149e+00  -2.259596e+02
   8.475670e+01  -1.604538e+02
  -1.592884e+01  -2.884445e+01
  -1.252182e+02   1.503224e+01
  -1.067538e+02  -5.745994e+01
   1.254783e+01  -1.245158e+02
   1.077992e+02  -7.283046e+01
   8.916654e+01   5.621628e+01
  -2.984199e+01   1.098678e+02
  -1.460047e+02  -1.059741e+01
  -1.449947e+02  -2.198803e+02
   1.455285e+01  -3.223049e+02
   2.393214e+02  -2.047460e+02
   3.587966e+02   5.793939e+01
   2.706807e+02   2.635806e+02
   4.433165e+01   2.743182e+02
  -1.318456e+02   1.331748e+02
  -1.361038e+02   2.142521e+00
  -2.643288e+01  -6.231377e+00
   3.877888e+01   6.962202e+01
  -2.139642e+01   1.079573e+02
  -1.247425e+02   5.053112e+01
  -1.316910e+02  -3.667632e+01
  -1.837829e+01  -5.112092e+01
   8.435801e+01   2.364676e+01
   3.216395e+01   1.027819e+02
  -1.586941e+02   8.912356e+01
  -3.073111e+02  -3.289940e+01
  -2.482073e+02  -1.865071e+02
  -6.300452e+00  -2.668124e+02
   2.212134e+02  -2.165188e+02
   2.594568e+02  -7.413320e+01
   1.186801e+02   5.019352e+01
  -3.457918e+01   6.505909e+01
  -5.189308e+01  -1.275707e+01
   6.367833e+01  -6.986013e+01
   1.796802e+02  -1.679658e+01
   1.736774e+02   1.089886e+02
   4.526004e+01   1.798315e+02
  -9.187635e+01   1.240870e+02
  -1.214298e+02   9.908477e+00
  -3.732178e+01  -3.597136e+01
   4.980365e+01   2.907192e+01
   2.417678e+01   1.185357e+02
  -1.087400e+02   1.170247e+02
  -2.164483e+02   1.076027e+00
  -1.738675e+02  -1.421406e+02
   4.323768e-01  -2.019108e+02
   1.555333e+02  -1.378419e+02
   1.636291e+02  -7.061000e+00
   4.647772e+01   8.795014e+01
  -6.257269e+01   8.663783e+01
  -6.542123e+01   1.935160e+01
   6.151218e+00  -2.808589e+01
   4.524305e+01  -8.156156e+00
  -4.876522e+00   3.261314e+01
  -9.229721e+01   9.262006e+00
  -1.102833e+02  -9.181521e+01
  -9.337988e+00  -1.796014e+02
   1.476287e+02  -1.499460e+02
   2.361325e+02  -8.321019e-02
   1.820032e+02   1.623472e+02
   3.070568e+01   2.194745e+02
  -9.837537e+01   1.484374e+02
  -1.240709e+02   3.025538e+01
  -7.237023e+01  -3.760592e+01
  -3.322518e+01  -2.426508e+01
  -5.465422e+01   1.662416e+01
  -9.146475e+01   8.627623e+00
  -6.634475e+01  -5.904480e+01
   3.419501e+01  -1.135751e+02
   1.295284e+02  -7.496169e+01
   1.161237e+02   4.614548e+01
  -1.890351e+01   1.355821e+02
  -1.743754e+02   8.843173e+01
  -2.089870e+02  -7.558024e+01
  -7.341997e+01  -2.206028e+02
   1.385875e+02  -2.171826e+02
   2.701107e+02  -7.060359e+01
   2.353328e+02   9.671208e+01
   8.871389e+01   1.676219e+02
  -4.506371e+01   1.332817e+02
  -8.815336e+01   7.486041e+01
  -6.606351e+01   6.444612e+01
  -5.394864e+01   9.030088e+01
  -8.669874e+01   7.818743e+01
  -1.277901e+02  -1.760577e+01
  -1.132631e+02  -1.514203e+02
  -2.082040e+01  -2.199022e+02
   1.004435e+02  -1.574683e+02
   1.634318e+02  -3.067133e+00
   1.178160e+02   1.297021e+02
   3.169589e+00   1.524462e+02
  -7.939643e+01   7.383896e+01
  -6.469367e+01  -2.134672e+01
   6.968889e+00  -5.891347e+01
   3.521727e+01  -3.711508e+01
  -2.084052e+01  -8.347219e+00
  -8.614342e+01  -1.312931e+01
  -5.500360e+01  -3.901963e+01
   7.387100e+01  -4.164105e+01
   1.789721e+02   2.257141e+00
   1.445773e+02   6.761258e+01
  -7.815296e+00   1.013941e+02
  -1.407049e+02   7.172729e+01
  -1.447249e+02  -8.250972e-01
  -4.085420e+01  -5.652464e+01
   6.106250e+01  -4.672281e+01
   7.975686e+01   1.861159e+01
   2.483904e+01   7.604665e+01
  -4.043130e+01   6.846902e+01
  -6.972658e+01   4.563593e+00
  -6.324526e+01  -4.952345e+01
  -4.960932e+01  -4.340860e+01
  -5.184767e+01  -2.976619e+00
  -6.287262e+01  -2.800600e+00
  -4.679480e+01  -7.342859e+01
   2.551854e+01  -1.522611e+02
   1.297792e+02  -1.451061e+02
   1.866615e+02  -3.333163e+01
   1.329293e+02   9.604218e+01
  -5.195577e-01   1.374372e+02
  -9.669494e+01   7.476597e+01
  -6.557141e+01  -8.185447e+00
   5.475403e+01  -2.207422e+01
   1.297560e+02   3.875113e+01
   6.707402e+01   1.039398e+02
  -8.446947e+01   1.049655e+02
  -1.859676e+02   3.701771e+01
  -1.507378e+02  -4.622204e+01
  -2.578035e+01  -8.381806e+01
   6.552090e+01  -5.539450e+01
   4.834127e+01   4.721702e+00
  -3.800900e+01   3.110681e+01
  -8.885887e+01  -1.787826e+01
  -4.080611e+01  -1.096782e+02
   7.048953e+01  -1.504483e+02
   1.476558e+02  -7.157511e+01
   1.236483e+02   8.445788e+01
   1.979339e+01   1.851555e+02
  -7.961518e+01   1.370353e+02
  -1.045111e+02  -1.180490e+01
  -5.352810e+01  -1.192862e+02
   1.851346e+01  -1.015692e+02
   5.448748e+01  -1.402787e+01
   4.111067e+01   3.229150e+01
   1.078336e+01   7.797549e+00
   5.820883e+00  -1.620603e+01
   3.465120e+01   2.112961e+01
   5.805226e+01   8.676154e+01
   2.690986e+01   1.004838e+02
  -5.804165e+01   4.083230e+01
  -1.293270e+02  -3.531103e+01
  -1.150493e+02  -6.775561e+01
  -1.907691e+01  -5.389004e+01
   7.331648e+01  -2.631874e+01
   8.323888e+01  -4.012797e+00
   2.198227e+01   1.312976e+01
  -2.992506e+01   2.037761e+01
  -2.221004e+01   1.045742e+01
   9.432582e+00  -4.924598e+00
  -1.400539e+00  -4.974962e+00
  -5.871319e+01   2.305089e+00
  -8.892452e+01  -1.849467e+01
  -2.811162e+01  -7.581573e+01
   9.631556e+01  -1.148677e+02
   1.824037e+02  -6.984423e+01
   1.543268e+02   5.014779e+01
   3.546607e+01   1.527807e+02
  -7.974672e+01   1.546935e+02
  -1.167384e+02   6.786251e+01
  -7.917726e+01  -1.923774e+01
  -2.522354e+01  -4.094707e+01
  -2.981702e+00  -1.592331e+01
  -1.390290e+01  -9.414244e+00
  -2.751659e+01  -4.789336e+01
  -1.482563e+01  -8.823599e+01
   2.799520e+01  -6.996384e+01
   7.375998e+01   1.170787e+01
   7.868514e+01   9.370713e+01
   2.004595e+01   1.052366e+02
  -6.640051e+01   3.610073e+01
  -1.021542e+02  -5.590670e+01
  -4.326350e+01  -9.882630e+01
   5.970330e+01  -6.773445e+01
   1.039750e+02   4.256319e+00
   4.929086e+01   6.123677e+01
  -3.284153e+01   6.793572e+01
  -4.411769e+01   3.141953e+01
   1.940616e+01  -8.479461e+00
   6.470699e+01  -1.155962e+01
   1.998816e+01   2.664365e+01
  -7.516986e+01   6.439773e+01
  -1.207041e+02   5.088961e+01
  -7.429558e+01  -1.784500e+01
   1.074706e+01  -8.393599e+01
   5.816812e+01  -8.399048e+01
   4.724703e+01  -1.739440e+01
   9.631743e+00   4.837429e+01
  -2.160445e+01   4.968659e+01
  -3.548075e+01  -5.555286e+00
  -2.894194e+01  -5.220212e+01
  -1.197379e+00  -4.302986e+01
   3.250572e+01   1.947745e+00
   4.340830e+01   2.637272e+01
   2.183787e+01   7.649590e+00
  -5.725446e+00  -2.044820e+01
  -8.490643e+00  -1.309560e+01
   7.604195e+00   2.768657e+01
   7.284252e+00   5.375864e+01
  -2.214428e+01   2.843129e+01
  -4.541432e+01  -2.733396e+01
  -2.227813e+01  -5.633654e+01
   3.477739e+01  -2.886851e+01
   6.378132e+01   2.589183e+01
   2.307716e+01   5.497115e+01
  -5.464911e+01   3.617110e+01
  -9.200956e+01  -7.420417e+00
  -5.018516e+01  -4.073512e+01
   2.743877e+01  -4.736208e+01
   6.372324e+01  -3.202026e+01
   3.127305e+01  -8.172991e+00
  -2.187769e+01   6.978012e+00
  -2.987999e+01   1.981794e-01
   1.766968e+01  -2.019161e+01
   6.784144e+01  -2.086594e+01
