
 $NMID
 id='ANONYMOUS ', fmtdat='(2E16.6)'
 volume=1.0
 tramp=1.0
 $END
  -2.750791e+03  -2.848566e+02
  -1.891534e+03  -1.156302e+03
   8.520413e+01  -1.618074e+03
   9.470692e+02  -1.208763e+03
   7.087816e+02  -3.486921e+02
   2.069592e+02  -1.263490e+02
  -1.577402e+02  -1.376706e+02
  -6.042616e+00  -4.107348e+02
   3.750203e+02  -5.276499e+02
   5.070737e+02  -1.573218e+02
   3.254290e+02   4.572418e+02
   3.411728e+01   5.139669e+02
  -1.845902e+02   9.544163e+01
  -1.804383e+02  -4.009006e+02
   7.919319e+01  -4.971123e+02
   3.018484e+02  -6.789800e+01
   2.305106e+02   4.208625e+02
  -9.834357e+01   5.657224e+02
  -4.166276e+02   3.067403e+02
  -4.429708e+02  -6.373390e+01
  -2.017188e+02  -3.168223e+02
   4.164288e+01  -2.691108e+02
   2.429444e+01  -1.248504e+02
  -1.931524e+02  -1.798909e+02
  -2.414404e+02  -3.330629e+02
   9.267308e+01  -3.280199e+02
   4.908964e+02  -9.012774e+01
   5.449042e+02   2.307705e+02
   1.453749e+02   2.963234e+02
  -3.492972e+02   9.715637e+01
  -4.152272e+02  -2.004986e+02
  -1.099184e+02  -3.156657e+02
   2.765922e+02  -3.013860e+02
   3.959042e+02  -7.077160e+01
   2.641802e+02   1.429560e+02
   8.422711e+01   2.612444e+02
   2.476801e+01   1.529457e+02
   1.065432e+02  -3.264814e+01
   1.748157e+02  -7.751892e+01
   9.920717e+01   1.601520e+02
  -5.658701e+01   4.037226e+02
  -1.990894e+02   3.291241e+02
  -2.206923e+02   6.565355e+00
  -7.957631e+01  -2.113588e+02
   9.084898e+01  -7.452043e+01
   9.611448e+01   2.497048e+02
  -1.259135e+02   3.222211e+02
  -3.949823e+02   2.086094e+01
  -4.385374e+02  -3.562500e+02
  -1.527500e+02  -4.520099e+02
   2.596163e+02  -2.329388e+02
   4.687290e+02   5.627640e+01
   3.261815e+02   1.956786e+02
  -1.592552e+00   1.706847e+02
  -2.212647e+02   9.635451e+01
  -2.036235e+02   4.362361e+01
  -6.084542e+01   2.145744e+01
   2.396492e+00   9.712131e+00
  -8.220033e+01  -9.823439e+00
  -1.784977e+02  -6.556383e+01
  -1.033879e+02  -1.593103e+02
   1.431852e+02  -2.196098e+02
   3.463089e+02  -1.366437e+02
   2.823422e+02   1.023667e+02
  -2.794368e+01   3.410837e+02
  -3.264170e+02   3.685258e+02
  -3.772617e+02   1.349632e+02
  -2.049950e+02  -1.787735e+02
  -2.401335e+01  -3.406326e+02
   1.954994e+01  -2.938094e+02
  -1.130613e+01  -1.797698e+02
   2.777900e+01  -1.327878e+02
   1.620530e+02  -1.262942e+02
   2.694608e+02  -4.206096e+01
   2.335423e+02   1.316586e+02
   7.078308e+01   2.481164e+02
  -1.033817e+02   1.666108e+02
  -1.738608e+02  -6.747187e+01
  -9.715635e+01  -2.524416e+02
   7.962418e+01  -2.266537e+02
   2.412400e+02  -2.276497e+01
   2.709022e+02   1.904498e+02
   1.417940e+02   2.772948e+02
  -3.923510e+01   2.360531e+02
  -1.421842e+02   1.514703e+02
  -1.466130e+02   1.000001e+02
  -1.688110e+02   7.650804e+01
  -2.912826e+02   1.519143e+01
  -4.020375e+02  -1.244979e+02
  -2.993719e+02  -3.100509e+02
   4.306337e+01  -4.282925e+02
   3.973176e+02  -3.749242e+02
   4.805504e+02  -1.511462e+02
   2.667243e+02   1.099748e+02
  -5.231698e+00   2.313144e+02
  -8.903942e+01   1.713962e+02
   1.231169e+01   3.778590e+01
   1.298173e+02  -9.365966e+00
   1.085237e+02   5.811624e+01
  -1.530885e+01   1.242765e+02
  -1.107873e+02   7.431263e+01
  -8.354928e+01  -5.762613e+01
   3.927613e+01  -1.103502e+02
   1.510996e+02   1.781806e+01
   1.363820e+02   2.332679e+02
  -3.235804e+01   3.335005e+02
  -2.523096e+02   2.020346e+02
  -3.603113e+02  -7.279398e+01
  -2.640677e+02  -2.786990e+02
  -3.763253e+01  -2.782462e+02
   1.342253e+02  -1.281300e+02
   1.357834e+02   1.370739e+00
   2.581402e+01   4.093877e+00
  -3.702960e+01  -7.211391e+01
   2.539956e+01  -1.053496e+02
   1.289017e+02  -4.484441e+01
   1.332974e+02   3.991644e+01
   1.569238e+01   4.979051e+01
  -8.788497e+01  -2.764062e+01
  -3.147198e+01  -1.043882e+02
   1.649991e+02  -8.534856e+01
   3.146238e+02   4.232052e+01
   2.497402e+02   1.979316e+02
  -7.508215e-01   2.736236e+02
  -2.326360e+02   2.161569e+02
  -2.678538e+02   6.942751e+01
  -1.207463e+02  -5.384771e+01
   3.519868e+01  -6.540662e+01
   5.032745e+01   1.405590e+01
  -6.707151e+01   7.022878e+01
  -1.811960e+02   1.477053e+01
  -1.721797e+02  -1.125234e+02
  -4.346890e+01  -1.832728e+02
   9.128615e+01  -1.262849e+02
   1.195748e+02  -1.076406e+01
   3.660689e+01   3.522748e+01
  -4.684846e+01  -3.096202e+01
  -1.715811e+01  -1.209923e+02
   1.178613e+02  -1.177719e+02
   2.233650e+02   2.815726e+00
   1.746179e+02   1.511428e+02
  -5.545013e+00   2.118819e+02
  -1.621533e+02   1.431071e+02
  -1.684177e+02   6.292360e+00
  -4.901633e+01  -9.090924e+01
   6.093605e+01  -8.737954e+01
   6.464177e+01  -1.925873e+01
  -6.075317e+00   2.538597e+01
  -4.452670e+01   3.240197e+00
   6.762074e+00  -3.395091e+01
   9.421440e+01  -3.431074e+00
   1.099957e+02   9.981891e+01
   4.390182e+00   1.830736e+02
  -1.553516e+02   1.462336e+02
  -2.420329e+02  -8.333380e+00
  -1.817766e+02  -1.706622e+02
  -2.515026e+01  -2.252108e+02
   1.042710e+02  -1.499702e+02
   1.270601e+02  -2.888042e+01
   7.403711e+01   4.142247e+01
   3.470454e+01   2.614828e+01
   5.817219e+01  -1.465278e+01
   9.323217e+01  -6.504092e+00
   6.412940e+01   6.191120e+01
  -4.074246e+01   1.160735e+02
  -1.342800e+02   7.351469e+01
  -1.173421e+02  -5.111094e+01
   2.313937e+01  -1.395056e+02
   1.786850e+02  -8.881495e+01
   2.084257e+02   7.883751e+01
   6.957253e+01   2.232002e+02
  -1.427194e+02   2.165357e+02
  -2.717293e+02   6.603138e+01
  -2.341091e+02  -1.020412e+02
  -8.722186e+01  -1.710809e+02
   4.538285e+01  -1.340355e+02
   8.898459e+01  -7.494745e+01
   7.004795e+01  -6.645772e+01
   6.029142e+01  -9.315984e+01
   9.332105e+01  -7.809194e+01
   1.318184e+02   2.306548e+01
   1.125190e+02   1.605061e+02
   1.515809e+01   2.267909e+02
  -1.079647e+02   1.583075e+02
  -1.675307e+02  -1.093438e+00
  -1.162741e+02  -1.343442e+02
   1.017180e+00  -1.539216e+02
   8.103675e+01  -7.251619e+01
   6.252941e+01   2.303814e+01
  -9.932273e+00   5.952762e+01
  -3.560155e+01   3.723174e+01
   2.211498e+01   9.409536e+00
   8.567227e+01   1.521487e+01
   5.159009e+01   3.997902e+01
  -7.821902e+01   3.933745e+01
  -1.812203e+02  -7.945724e+00
  -1.441333e+02  -7.324312e+01
   1.036815e+01  -1.038201e+02
   1.443511e+02  -7.038319e+01
   1.480150e+02   3.360111e+00
   4.191432e+01   5.723029e+01
  -6.228290e+01   4.542084e+01
  -8.067445e+01  -2.040364e+01
  -2.334633e+01  -7.682686e+01
   4.337832e+01  -6.771958e+01
   7.136005e+01  -2.542775e+00
   6.285169e+01   5.141951e+01
   4.982662e+01   4.401785e+01
   5.459583e+01   3.203411e+00
   6.581699e+01   4.570662e+00
   4.625383e+01   7.729842e+01
  -3.026196e+01   1.561217e+02
  -1.354194e+02   1.459956e+02
  -1.894999e+02   3.038613e+01
  -1.320133e+02  -1.001523e+02
   2.520169e+00  -1.392979e+02
   9.754342e+01  -7.390727e+01
   6.489239e+01   9.925083e+00
  -5.566292e+01   2.233047e+01
  -1.302757e+02  -4.118113e+01
  -6.678555e+01  -1.070980e+02
   8.613735e+01  -1.059178e+02
   1.887840e+02  -3.457438e+01
   1.527260e+02   4.926497e+01
   2.506223e+01   8.509709e+01
  -6.799054e+01   5.412848e+01
  -4.855617e+01  -5.807449e+00
   4.126441e+01  -2.969810e+01
   9.155280e+01   2.124074e+01
   3.773035e+01   1.129693e+02
  -7.808305e+01   1.515540e+02
  -1.528181e+02   6.932825e+01
  -1.219833e+02  -8.856652e+01
  -1.426039e+01  -1.883390e+02
   8.273856e+01  -1.370023e+02
   1.029277e+02   1.494843e+01
   4.999966e+01   1.223882e+02
  -2.079175e+01   1.020115e+02
  -5.554532e+01   1.222172e+01
  -4.237921e+01  -3.421463e+01
  -1.218579e+01  -8.976809e+00
  -6.438558e+00   1.481854e+01
  -3.405072e+01  -2.413533e+01
  -5.655897e+01  -9.063863e+01
  -2.462735e+01  -1.032355e+02
   6.113037e+01  -4.024395e+01
   1.322659e+02   3.889975e+01
   1.160405e+02   7.182155e+01
   1.739513e+01   5.552373e+01
  -7.568603e+01   2.511856e+01
  -8.412605e+01   2.149682e+00
  -2.100253e+01  -1.349459e+01
   3.100845e+01  -1.950805e+01
   2.195844e+01  -1.009062e+01
  -1.018610e+01   4.239604e+00
   2.286041e+00   5.047121e+00
   6.102120e+01   3.724561e-01
   8.992069e+01   2.310486e+01
   2.461757e+01   7.879961e+01
  -1.034684e+02   1.137950e+02
  -1.888644e+02   6.532810e+01
  -1.563023e+02  -5.572559e+01
  -3.278345e+01  -1.573546e+02
   8.426865e+01  -1.574696e+02
   1.206541e+02  -6.883703e+01
   8.216144e+01   1.964125e+01
   2.764367e+01   4.189379e+01
   4.651933e+00   1.722583e+01
   1.420336e+01   1.148289e+01
   2.630681e+01   5.110975e+01
   1.265024e+01   9.146819e+01
  -3.032234e+01   7.085066e+01
  -7.542665e+01  -1.451879e+01
  -7.847219e+01  -9.837575e+01
  -1.783154e+01  -1.079895e+02
   6.925323e+01  -3.463538e+01
   1.035296e+02   5.985895e+01
   4.224222e+01   1.018397e+02
  -6.204004e+01   6.782444e+01
  -1.056086e+02  -5.941019e+00
  -4.938433e+01  -6.199096e+01
   3.344314e+01  -6.741524e+01
   4.407710e+01  -3.119842e+01
  -2.035551e+01   7.031750e+00
  -6.521157e+01   9.116477e+00
  -1.900924e+01  -2.780665e+01
   7.747240e+01  -6.324134e+01
   1.230845e+02  -4.790108e+01
   7.434423e+01   2.064241e+01
  -1.346432e+01   8.513880e+01
  -6.208253e+01   8.274539e+01
  -4.933957e+01   1.443095e+01
  -8.628179e+00  -5.118800e+01
   2.448060e+01  -5.079134e+01
   3.757945e+01   6.782206e+00
   2.908123e+01   5.440017e+01
   2.416874e-01   4.393176e+01
  -3.306219e+01  -2.771516e+00
  -4.332997e+01  -2.759615e+01
  -2.232341e+01  -7.423426e+00
   4.064069e+00   2.158924e+01
   6.774236e+00   1.295287e+01
  -7.886151e+00  -3.006096e+01
  -5.780109e+00  -5.656193e+01
   2.399290e+01  -2.918732e+01
   4.636520e+01   2.860576e+01
   2.175008e+01   5.747135e+01
  -3.581933e+01   2.785417e+01
  -6.375714e+01  -2.867054e+01
  -2.112994e+01  -5.694786e+01
   5.768739e+01  -3.542056e+01
   9.412771e+01   1.064033e+01
   5.019052e+01   4.375322e+01
  -2.931490e+01   4.799310e+01
  -6.568621e+01   3.037004e+01
  -3.158377e+01   6.642778e+00
   2.309471e+01  -6.504253e+00
   3.062905e+01   1.725612e+00
  -1.915527e+01   2.126980e+01
  -7.057516e+01   1.942171e+01
