
 $NMID
 id='ANONYMOUS ', fmtdat='(2E16.6)'
 volume=1.0
 tramp=1.0
 $END
   1.622088e+02   3.584050e+00
   7.832074e+01  -3.805525e+01
  -4.264482e+01   7.956362e+01
  -2.799506e+01   6.127377e+01
   4.372363e+01  -3.814208e+01
   1.378249e+01  -4.944915e+01
   1.261452e+01   3.783178e+01
   8.510369e+00   1.573292e+01
  -2.839370e+01   1.378927e+01
  -3.255731e+01  -1.574398e+01
  -3.575827e+01   7.986387e+00
   1.766180e+01  -4.671290e+00
  -1.030827e+01  -9.060077e+00
  -3.754951e+01   3.245546e+01
  -4.121483e+01   4.223278e+01
  -1.468728e+01   1.123081e+01
  -6.877736e+00  -2.206301e+01
   1.787407e+01   2.585693e+00
   1.916508e+01   1.247312e+01
  -1.662380e+01   2.654409e+01
  -2.066042e+01   4.861291e+00
  -2.222414e+01  -4.094685e+01
   2.132516e+01  -3.483564e+01
   1.610855e+01  -2.589852e+00
  -9.950677e+00   3.407330e+01
  -2.774200e+01   1.113289e+01
  -1.606967e+01  -1.690157e+01
   7.458100e+00  -2.758825e+01
   1.528432e+01  -2.000189e+01
   9.109330e+00   8.288170e+00
  -6.096074e+00   3.332350e+01
  -9.459164e+00   8.840664e+00
  -6.564533e+00  -1.919226e+01
   1.333390e+00  -2.274720e+01
   1.170502e+01   7.862041e+00
   8.478548e+00   1.778406e+01
  -3.475049e-01   9.142987e+00
  -1.304921e+01  -4.096195e+00
  -1.353848e+01  -8.565949e+00
   2.391649e+00  -7.371758e+00
   1.128629e+01   6.171223e+00
   6.130658e+00   1.007331e+01
  -9.537759e+00   1.132810e+01
  -5.656358e+00  -2.718902e+00
  -1.254323e+00  -7.088863e+00
   1.126321e+01  -3.579657e+00
   1.096155e+01   3.525131e+00
  -3.240547e-01   1.058382e+01
  -1.106228e+01   4.847440e+00
  -1.269774e+01  -3.116295e+00
  -1.716724e+00  -5.364380e+00
   7.430939e+00  -9.072403e-01
   4.182953e+00   2.785040e+00
  -3.078975e+00   3.984461e+00
  -3.337074e+00   3.342222e-01
  -9.126339e-01  -2.381187e+00
   1.733793e+00  -9.252071e-01
   2.102829e+00   1.258118e+00
   2.611330e+00   4.368267e-01
   1.554400e+00  -1.186526e+00
   4.446290e-01  -7.456723e-01
  -2.830168e-01   9.949226e-01
   1.793604e-01   1.628704e+00
   1.789063e+00   2.670705e+00
   2.843949e+00   4.127688e+00
  -1.315987e-01   3.974218e+00
  -5.180294e+00  -8.324049e-01
  -4.755677e+00  -5.929904e+00
   2.493033e+00  -5.966421e+00
   7.741319e+00   1.344995e+00
   2.749893e+00   7.394790e+00
  -4.609860e+00   5.048656e+00
  -5.495243e+00  -4.164368e+00
   1.470465e+00  -8.739417e+00
   5.679662e+00  -2.622889e+00
   4.711635e+00   4.774552e+00
   1.115640e-02   4.713973e+00
  -1.908015e+00   1.336964e-01
  -9.722857e-01  -9.337518e-01
   3.279050e-01  -1.731124e-01
   1.612892e-02  -4.576113e-01
   1.188095e+00  -7.616852e-02
   1.349244e+00   8.990553e-01
  -3.462707e-01   2.803885e+00
  -1.871159e+00  -8.610978e-01
  -2.046284e+00  -5.516442e+00
   3.089455e+00  -4.607539e+00
   4.367488e+00   2.233441e+00
   1.225957e+00   6.950224e+00
  -4.891269e+00   2.838441e+00
  -4.755223e+00  -3.173512e+00
  -3.255293e-01  -5.275704e+00
   3.262041e+00  -2.894465e+00
   4.472533e+00   1.526088e+00
   3.668092e+00   5.103504e+00
  -1.930233e+00   4.198134e+00
  -5.575672e+00  -5.587304e-01
  -3.056008e+00  -4.371845e+00
   4.290442e+00  -3.462948e+00
   5.749333e+00   2.171770e+00
  -2.720392e-01   5.134367e+00
  -5.811697e+00   2.156457e+00
  -4.109849e+00  -2.606287e+00
   1.661039e+00  -3.983343e+00
   5.223195e+00  -9.943088e-01
   2.897844e+00   1.793943e+00
  -1.503591e-01   2.570628e+00
  -2.472933e+00   1.507032e+00
  -2.733606e+00   4.638153e-01
  -1.677374e+00  -1.882101e+00
   1.196697e+00  -3.012588e+00
   3.424619e+00  -1.779192e-01
   9.829841e-01   3.192294e+00
  -3.428666e+00   2.587305e+00
  -3.918912e+00  -2.377992e+00
   9.916070e-01  -4.894480e+00
   4.904887e+00  -1.389696e+00
   3.392558e+00   3.716518e+00
  -1.716813e+00   4.580471e+00
  -4.653431e+00   9.653898e-01
  -3.185237e+00  -3.005910e+00
   4.639739e-01  -4.390915e+00
   3.601656e+00  -3.021092e+00
   4.173053e+00   9.748651e-01
   1.207495e+00   4.338734e+00
  -3.201552e+00   3.545725e+00
  -4.409389e+00  -1.611469e+00
  -9.990289e-02  -5.120195e+00
   4.430897e+00  -2.692896e+00
   4.012874e+00   2.717068e+00
  -1.053925e+00   4.519846e+00
  -4.112162e+00   9.883170e-01
  -2.115636e+00  -2.950901e+00
   1.691834e+00  -3.465306e+00
   3.177360e+00  -4.742168e-01
   1.676948e+00   2.518072e+00
  -6.717831e-01   3.060497e+00
  -2.475257e+00   1.074129e+00
  -2.494325e+00  -2.069177e+00
  -1.922994e-01  -3.640979e+00
   2.808322e+00  -1.736510e+00
   2.963534e+00   2.184954e+00
  -1.375835e-01   3.949294e+00
  -3.089826e+00   1.504129e+00
  -2.956489e+00  -2.093648e+00
   3.079028e-01  -3.122217e+00
   2.547760e+00  -1.055783e+00
   1.719633e+00   1.767565e+00
  -9.005477e-01   2.773406e+00
  -3.244855e+00   6.994135e-01
  -2.079501e+00  -2.596832e+00
   9.311395e-01  -3.439029e+00
   3.385642e+00  -3.337178e-01
   2.098854e+00   3.506774e+00
  -2.094165e+00   3.842330e+00
  -4.614891e+00  -6.538477e-02
  -2.922313e+00  -4.014979e+00
   1.254699e+00  -3.630137e+00
   3.377356e+00   1.884366e-01
   1.644721e+00   2.360925e+00
  -1.259829e+00   1.691872e+00
  -2.117434e+00  -2.303134e-01
  -3.242414e-01  -1.168820e+00
   6.758542e-01  -1.071690e+00
   1.221676e+00  -2.984118e-01
   4.423291e-01   1.612512e+00
  -1.138769e+00   2.242760e+00
  -2.425186e+00   4.867688e-02
  -1.013028e+00  -2.813297e+00
   2.159496e+00  -3.041602e+00
   3.948257e+00   7.407767e-01
   1.459334e+00   3.560402e+00
  -2.365178e+00   3.558589e+00
  -3.533474e+00  -3.800293e-01
  -1.493854e+00  -2.909545e+00
   1.425589e+00  -2.153912e+00
   1.911521e+00   7.540544e-01
   7.085984e-01   2.201005e+00
  -8.050727e-01   1.105968e+00
  -1.284545e+00  -8.022369e-01
  -3.558634e-01  -1.439461e+00
   1.407178e+00  -3.927077e-01
   1.995600e+00   1.241997e+00
   6.380087e-01   2.491247e+00
  -1.913720e+00   1.861496e+00
  -3.059156e+00  -4.612094e-01
  -1.740678e+00  -2.505436e+00
   9.606477e-01  -2.340472e+00
   2.362642e+00  -2.477563e-01
   1.423575e+00   1.822478e+00
  -5.669473e-01   1.953916e+00
  -1.408260e+00   1.804917e-01
  -4.082423e-01  -1.390477e+00
   8.969007e-01  -1.008971e+00
   9.296075e-01   1.054389e+00
  -7.908259e-01   2.289198e+00
  -2.451503e+00   6.967448e-01
  -1.871579e+00  -2.128301e+00
   9.797400e-01  -3.052830e+00
   2.996720e+00  -9.278204e-01
   1.887313e+00   2.015209e+00
  -8.421463e-01   2.778050e+00
  -2.358891e+00   1.012316e+00
  -1.692725e+00  -1.297604e+00
   5.986919e-02  -1.885215e+00
   1.160232e+00  -1.051192e+00
   1.233550e+00   1.755110e-01
   4.888787e-01   1.111691e+00
  -3.738108e-01   9.646885e-01
  -9.396448e-01  -2.319218e-01
  -1.181270e-01  -1.250016e+00
   1.252755e+00  -6.413462e-01
   1.028235e+00   1.490053e+00
  -9.772158e-01   2.462471e+00
  -2.837152e+00   2.934774e-01
  -1.622381e+00  -2.840411e+00
   1.573525e+00  -3.338126e+00
   3.333946e+00  -2.415236e-01
   1.841467e+00   2.775816e+00
  -1.030069e+00   2.859915e+00
  -2.379943e+00   4.843057e-01
  -1.626410e+00  -1.727889e+00
   2.507297e-01  -2.094746e+00
   1.281809e+00  -6.429872e-01
   1.022431e+00   8.427944e-01
  -1.566049e-01   1.055018e+00
  -1.021129e+00  -8.029016e-02
  -3.732668e-01  -1.336013e+00
   1.372641e+00  -1.110839e+00
   2.099314e+00   6.329214e-01
   6.824459e-01   2.435001e+00
  -1.922945e+00   2.319803e+00
  -2.994029e+00   7.680065e-02
  -1.689053e+00  -2.476262e+00
   9.070405e-01  -2.943693e+00
   2.483271e+00  -1.066476e+00
   1.940030e+00   1.401754e+00
  -4.063929e-03   2.180543e+00
  -1.551454e+00   8.083095e-01
  -1.117084e+00  -9.745289e-01
   7.204088e-01  -1.117064e+00
   1.421377e+00   4.885187e-01
   4.598426e-02   1.709944e+00
  -1.876240e+00   7.901725e-01
  -1.924139e+00  -1.385603e+00
   2.654553e-01  -2.423151e+00
   2.301107e+00  -1.220657e+00
   2.311611e+00   9.462054e-01
   5.727301e-01   2.163378e+00
  -1.073467e+00   1.820151e+00
  -1.736510e+00   4.171982e-01
  -1.317304e+00  -1.045031e+00
   1.212210e-02  -1.569126e+00
   1.163794e+00  -7.139942e-01
   1.095157e+00   7.927700e-01
  -2.104695e-01   1.359418e+00
  -1.109988e+00   5.235064e-02
  -1.614502e-01  -1.376301e+00
   1.454506e+00  -8.770630e-01
   1.378026e+00   1.201389e+00
  -3.923571e-01   2.315282e+00
  -2.265847e+00   1.000220e+00
  -1.887275e+00  -1.468131e+00
   1.498029e-01  -2.377409e+00
   1.917886e+00  -1.211737e+00
   1.931541e+00   6.024411e-01
   6.075454e-01   1.556991e+00
  -8.783705e-01   1.248176e+00
  -1.202083e+00   2.059926e-01
  -3.434547e-01  -5.984884e-01
   6.227389e-01  -5.774425e-01
   4.748188e-01   2.113156e-01
  -4.540100e-01   6.949164e-01
  -1.078237e+00   4.784833e-02
  -5.741867e-01  -1.094079e+00
   7.538604e-01  -1.412162e+00
   1.669288e+00  -2.728235e-01
   1.330153e+00   1.280917e+00
  -2.335646e-01   1.961932e+00
  -1.708692e+00   9.548086e-01
  -1.784671e+00  -7.515282e-01
  -4.570529e-01  -1.938094e+00
   1.105625e+00  -1.446389e+00
   1.470439e+00   2.365892e-01
   2.828707e-01   1.248694e+00
  -6.524260e-01   6.640210e-01
  -3.012893e-01  -6.444610e-01
   6.722527e-01  -7.472689e-01
   7.684397e-01   5.182921e-01
  -2.655291e-01   1.397521e+00
  -1.373808e+00   7.120796e-01
  -1.250436e+00  -8.336300e-01
  -1.080995e-01  -1.698446e+00
   1.040823e+00  -1.213184e+00
   1.492975e+00  -1.701413e-02
   9.414036e-01   9.659780e-01
  -8.889119e-02   1.457756e+00
  -1.092716e+00   9.342822e-01
  -1.234215e+00  -2.731125e-01
  -5.867649e-01  -1.164376e+00
   4.365171e-01  -8.876053e-01
   4.575439e-01   1.058823e-01
  -1.945064e-01   3.199213e-01
  -5.167671e-01  -4.704072e-01
   2.553398e-01  -9.163949e-01
   1.289065e+00  -2.280015e-01
   1.243000e+00   1.185881e+00
  -4.391151e-02   1.866153e+00
  -1.613574e+00   1.011838e+00
  -1.852616e+00  -5.359725e-01
  -6.983369e-01  -1.613780e+00
   7.150227e-01  -1.290560e+00
   1.280487e+00  -2.385413e-01
   6.355569e-01   8.016160e-01
  -3.577618e-01   8.117034e-01
  -6.736933e-01   2.907061e-02
  -1.508637e-01  -5.620537e-01
   5.017033e-01  -2.449296e-01
   3.804369e-01   5.403554e-01
  -4.128513e-01   8.078022e-01
