
 $NMID
 id='ANONYMOUS ', fmtdat='(2E16.6)'
 volume=1.0
 tramp=1.0
 $END
   4.920290e+03  -7.491435e+01
   2.835070e+03   2.668689e+03
  -8.880941e+02   3.115939e+03
  -2.458467e+03   1.099445e+03
  -1.087397e+03  -6.961474e+02
   9.070735e+02  -6.909026e+02
   9.421539e+02   4.619613e+02
  -5.441932e+01   1.091436e+03
  -9.224873e+02   8.879924e+02
  -1.035682e+03  -8.517731e+01
  -6.002179e+02  -9.179109e+02
   3.085428e+02  -9.674344e+02
   7.671694e+02  -8.649800e+01
   4.248987e+02   8.093344e+02
  -3.565022e+02   8.850426e+02
  -7.504590e+02   1.692394e+01
  -3.576158e+02  -7.490540e+02
   3.487115e+02  -6.879330e+02
   6.146633e+02  -1.069583e+02
   4.598145e+02   4.182174e+02
   2.282217e+01   5.059428e+02
  -2.985307e+02   2.698227e+02
  -2.689104e+02  -5.176416e+00
   1.507106e+02  -1.401011e+02
   4.637119e+02   1.382844e+02
   2.415463e+02   5.375775e+02
  -5.356186e+02   5.208506e+02
  -9.707385e+02  -1.288148e+02
  -4.988100e+02  -6.827835e+02
   4.973001e+02  -5.650439e+02
   8.800828e+02   5.622260e+01
   4.081205e+02   5.908686e+02
  -3.573458e+02   6.079554e+02
  -6.690494e+02   2.170951e+02
  -4.705791e+02  -2.749418e+02
  -4.989142e+01  -5.723799e+02
   2.681812e+02  -3.140045e+02
   2.176292e+02   2.696572e+02
  -2.325989e+02   5.321444e+02
  -5.764201e+02  -3.720279e+01
  -2.900070e+02  -8.311370e+02
   4.152852e+02  -8.451470e+02
   7.696183e+02   2.207276e+01
   3.248955e+02   6.897014e+02
  -3.713424e+02   3.824173e+02
  -4.840275e+02  -3.854452e+02
   7.975988e+01  -6.420039e+02
   6.556276e+02  -1.437877e+02
   6.860093e+02   4.862810e+02
   1.829731e+02   6.807096e+02
  -4.454895e+02   4.005781e+02
  -7.257150e+02  -9.437757e+01
  -4.208373e+02  -4.608309e+02
   1.986590e+02  -4.292009e+02
   5.269212e+02  -4.757632e+01
   2.688060e+02   2.576678e+02
  -1.579508e+02   1.387278e+02
  -1.698195e+02  -1.892811e+02
   2.010160e+02  -2.297676e+02
   3.959654e+02   8.803302e+01
   1.411859e+02   3.477979e+02
  -2.407789e+02   2.814024e+02
  -3.561544e+02   6.315962e+01
  -2.015919e+02  -9.386044e+01
   2.248936e+01  -2.329431e+02
   2.312311e+02  -3.625500e+02
   3.836794e+02  -2.592412e+02
   3.498342e+02   1.516103e+02
   9.719441e+01   5.072967e+02
  -1.450981e+02   4.416626e+02
  -1.490713e+02   1.172021e+02
  -1.975855e+01  -1.928497e+01
  -3.323171e+01   1.103885e+02
  -2.197367e+02   1.623699e+02
  -3.281287e+02  -5.835689e+01
  -1.874723e+02  -3.129935e+02
   8.283671e+01  -2.948854e+02
   2.599404e+02  -1.612603e+01
   2.243655e+02   2.673098e+02
  -9.328486e+00   3.331540e+02
  -3.002876e+02   1.396949e+02
  -4.108444e+02  -1.851145e+02
  -2.130657e+02  -4.078686e+02
   1.253922e+02  -3.597059e+02
   2.720222e+02  -1.332577e+02
   1.699416e+02   1.043874e+01
   9.787257e+01  -2.989365e+01
   2.516488e+02  -8.485696e+01
   4.533224e+02   4.991578e+01
   3.873340e+02   3.143913e+02
   1.072014e+01   5.051841e+02
  -4.047339e+02   4.736929e+02
  -5.595459e+02   2.324636e+02
  -3.906996e+02  -1.145416e+02
  -6.553829e+01  -3.512954e+02
   1.605228e+02  -3.003827e+02
   1.088332e+02  -2.683522e+01
  -1.230929e+02   1.365884e+02
  -2.326788e+02  -5.919557e+00
  -6.077817e+01  -2.371258e+02
   1.976609e+02  -2.046420e+02
   2.159693e+02   7.666662e+01
  -2.025965e+01   2.336174e+02
  -2.279017e+02   4.257464e+01
  -1.860081e+02  -2.819217e+02
   3.577256e+01  -3.909406e+02
   2.513075e+02  -2.143462e+02
   3.559183e+02   6.401321e+01
   3.130630e+02   2.585901e+02
   1.192367e+02   2.955563e+02
  -1.207930e+02   1.859880e+02
  -2.050350e+02   2.306931e+01
  -6.991236e+01  -4.349107e+01
   8.483438e+01   4.185786e+01
   4.119590e+01   1.501958e+02
  -1.410673e+02   1.231222e+02
  -2.100879e+02  -1.250606e+01
  -7.263910e+01  -8.810581e+01
   8.893339e+01  -2.718529e+01
   6.693008e+01   7.449393e+01
  -1.277075e+02   9.530134e+01
  -3.059074e+02   8.217566e+00
  -2.958255e+02  -1.413480e+02
  -8.012495e+01  -2.776694e+02
   1.957356e+02  -2.992517e+02
   3.206606e+02  -1.518687e+02
   1.991371e+02   5.810990e+01
  -2.868853e+01   1.311275e+02
  -1.137390e+02   1.112049e+01
   2.853266e+01  -1.228580e+02
   2.234470e+02  -7.669008e+01
   2.498665e+02   1.124675e+02
   8.548930e+01   2.376890e+02
  -1.052113e+02   1.833892e+02
  -1.671020e+02   3.615896e+01
  -8.730272e+01  -4.873026e+01
   2.744003e+01  -1.170023e+01
   4.890553e+01   8.463461e+01
  -6.568753e+01   1.267422e+02
  -2.117396e+02   4.178951e+01
  -2.160594e+02  -1.292691e+02
  -3.077061e+01  -2.426976e+02
   1.823258e+02  -1.849975e+02
   2.205529e+02  -3.684820e+00
   7.471747e+01   1.359100e+02
  -7.801066e+01   1.314468e+02
  -1.004360e+02   3.598595e+01
  -2.814436e+01  -3.220911e+01
   1.875576e+01  -2.749503e+01
  -1.062747e+01   2.408955e+00
  -7.341550e+01  -9.990949e+00
  -9.443512e+01  -8.564091e+01
  -2.086387e+01  -1.715883e+02
   1.335599e+02  -1.736950e+02
   2.588917e+02  -3.740226e+01
   2.294202e+02   1.617942e+02
   5.035626e+01   2.669545e+02
  -1.214082e+02   1.920305e+02
  -1.521548e+02   2.844774e+01
  -7.598854e+01  -6.609880e+01
  -2.905674e+01  -4.145853e+01
  -5.725442e+01   1.398056e+01
  -8.417680e+01   9.651203e+00
  -4.240807e+01  -4.950143e+01
   4.574723e+01  -9.039370e+01
   1.045296e+02  -5.977718e+01
   8.804971e+01   3.434387e+01
  -1.177523e+01   1.168184e+02
  -1.489993e+02   9.693641e+01
  -2.184068e+02  -4.810760e+01
  -1.200923e+02  -2.196920e+02
   1.100895e+02  -2.596234e+02
   2.962526e+02  -1.157174e+02
   2.923635e+02   9.183577e+01
   1.270058e+02   1.990450e+02
  -4.135604e+01   1.684138e+02
  -1.059114e+02   9.580155e+01
  -8.990927e+01   7.535384e+01
  -7.454994e+01   9.745558e+01
  -1.003526e+02   8.184572e+01
  -1.397176e+02  -2.064015e+01
  -1.314611e+02  -1.660280e+02
  -3.780234e+01  -2.503757e+02
   1.062377e+02  -1.962731e+02
   1.976218e+02  -2.951807e+01
   1.579772e+02   1.327406e+02
   2.659054e+01   1.814425e+02
  -7.285554e+01   1.105708e+02
  -6.823857e+01   7.539372e+00
  -9.929254e+00  -4.489534e+01
   5.630783e+00  -3.968650e+01
  -4.338488e+01  -2.267688e+01
  -8.668105e+01  -2.619179e+01
  -4.841590e+01  -4.197215e+01
   6.713067e+01  -4.140829e+01
   1.697043e+02  -7.076009e+00
   1.587741e+02   5.094771e+01
   2.405516e+01   9.398617e+01
  -1.255605e+02   8.242908e+01
  -1.579043e+02   1.928684e+01
  -5.554434e+01  -4.016897e+01
   6.359447e+01  -3.866741e+01
   8.152065e+01   2.014847e+01
   6.609375e+00   7.222429e+01
  -6.195877e+01   6.131049e+01
  -6.781206e+01  -2.074337e+00
  -4.617155e+01  -5.403279e+01
  -4.745945e+01  -4.665630e+01
  -6.828648e+01  -4.279111e+00
  -7.153496e+01  -8.504497e-01
  -3.567964e+01  -7.119557e+01
   3.647496e+01  -1.557691e+02
   1.237186e+02  -1.524834e+02
   1.746706e+02  -3.701787e+01
   1.318964e+02   9.667367e+01
   6.792303e+00   1.337436e+02
  -9.270098e+01   6.316252e+01
  -6.300052e+01  -1.796104e+01
   6.839178e+01  -2.056372e+01
   1.536148e+02   5.023364e+01
   8.408652e+01   1.193440e+02
  -9.028121e+01   1.248934e+02
  -2.126913e+02   5.925718e+01
  -1.823032e+02  -3.593826e+01
  -4.381441e+01  -9.738634e+01
   6.634186e+01  -8.145691e+01
   5.580943e+01  -1.130734e+01
  -4.009773e+01   2.879873e+01
  -9.833529e+01  -2.512273e+01
  -3.563382e+01  -1.312735e+02
   1.021841e+02  -1.695904e+02
   1.867086e+02  -6.638569e+01
   1.405772e+02   1.137619e+02
   1.027712e+01   2.198476e+02
  -9.631366e+01   1.601950e+02
  -1.173250e+02  -6.677100e+00
  -6.947500e+01  -1.310024e+02
  -1.311208e+00  -1.204345e+02
   4.879772e+01  -2.506454e+01
   5.930017e+01   3.389258e+01
   3.244624e+01   1.004047e+01
   5.914480e+00  -2.391403e+01
   2.098384e+01   1.399015e+01
   6.039071e+01   9.630783e+01
   4.899567e+01   1.222009e+02
  -4.770400e+01   5.209424e+01
  -1.516404e+02  -4.262166e+01
  -1.458891e+02  -7.790837e+01
  -2.154623e+01  -5.390685e+01
   9.783017e+01  -2.397726e+01
   9.896079e+01  -9.523179e+00
   1.162157e+01   6.764238e+00
  -4.346299e+01   2.498813e+01
  -1.469643e+01   2.150182e+01
   2.528325e+01  -9.507455e-01
  -6.570331e+00  -1.032235e+01
  -8.369194e+01  -4.136690e+00
  -1.006781e+02  -2.542800e+01
  -6.301207e+00  -8.763831e+01
   1.322362e+02  -1.249791e+02
   2.013377e+02  -6.274419e+01
   1.508593e+02   7.541259e+01
   2.684150e+01   1.769198e+02
  -8.367845e+01   1.614905e+02
  -1.216203e+02   6.251466e+01
  -8.710109e+01  -2.170195e+01
  -2.728226e+01  -3.506923e+01
   3.382090e+00  -6.737897e+00
  -1.199729e+01  -2.962793e+00
  -3.898953e+01  -4.892814e+01
  -2.769371e+01  -9.824818e+01
   3.136680e+01  -7.923873e+01
   8.937358e+01   1.947590e+01
   8.328041e+01   1.191713e+02
   2.023246e+00   1.232860e+02
  -9.099902e+01   2.415757e+01
  -1.102576e+02  -8.544611e+01
  -3.207201e+01  -1.132935e+02
   7.254133e+01  -5.769129e+01
   1.037566e+02   1.494422e+01
   3.979087e+01   5.349922e+01
  -3.578759e+01   5.341315e+01
  -3.146285e+01   3.009816e+01
   4.009818e+01   5.242583e-01
   7.693416e+01  -7.638026e+00
   1.578390e+01   2.585470e+01
  -8.708233e+01   7.276478e+01
  -1.252789e+02   6.794951e+01
  -6.837826e+01  -9.066143e+00
   1.634836e+01  -9.010789e+01
   5.450745e+01  -8.870213e+01
   3.747513e+01  -7.661331e+00
   1.709249e+00   6.045257e+01
  -2.635237e+01   4.599791e+01
  -3.890340e+01  -2.092703e+01
  -2.946854e+01  -5.872713e+01
   2.928125e+00  -3.471758e+01
   3.695605e+01   9.681808e+00
   4.422513e+01   2.178065e+01
   2.285481e+01   1.023785e+00
  -7.793921e-01  -1.278794e+01
  -8.622723e+00   6.542521e+00
  -1.097072e+01   3.980895e+01
  -2.240419e+01   4.462555e+01
  -3.549530e+01   3.515962e+00
  -2.782083e+01  -5.107028e+01
   8.400232e+00  -6.512039e+01
   4.991626e+01  -1.969186e+01
   5.805176e+01   4.474507e+01
   1.263850e+01   6.932191e+01
  -5.954852e+01   3.647126e+01
  -9.526966e+01  -1.747827e+01
  -5.352254e+01  -4.796507e+01
   2.988970e+01  -4.347255e+01
   6.911827e+01  -2.257273e+01
   2.498894e+01  -6.586187e+00
  -4.223840e+01  -6.062083e+00
  -4.117026e+01  -2.114640e+01
   3.696007e+01  -3.563643e+01
   1.045684e+02  -2.004591e+01
