
 $NMID
 id='ANONYMOUS ', fmtdat='(2E16.6)'
 volume=1.0
 tramp=1.0
 $END
  -2.490195e+03   7.600799e+01
  -1.582383e+03  -1.385971e+03
   1.393408e+02  -1.688083e+03
   1.240405e+03  -7.155467e+02
   7.632516e+02  -6.680665e+01
  -1.615047e+02   2.145377e+02
  -3.792944e+02  -1.385271e+02
  -9.328623e+01  -5.855524e+02
   4.505348e+02  -4.171558e+02
   5.326152e+02   1.825963e+01
   2.673143e+02   4.335732e+02
  -8.952951e+01   5.138932e+02
  -3.582046e+02   1.351976e+02
  -1.960197e+02  -3.731847e+02
   1.193091e+02  -4.491099e+02
   3.108877e+02  -9.106892e+01
   2.167621e+02   3.871316e+02
  -1.205180e+02   4.340802e+02
  -3.464131e+02   2.028432e+02
  -3.001009e+02  -1.769055e+02
  -6.538381e+01  -3.137809e+02
   1.022455e+02  -2.052426e+02
   1.144566e+02  -2.899159e+01
  -6.472131e+01   1.119348e+01
  -2.433556e+02  -8.323002e+01
  -9.573425e+01  -2.623310e+02
   2.788538e+02  -2.123618e+02
   4.876639e+02   5.162832e+01
   2.413470e+02   2.928110e+02
  -2.371401e+02   2.344179e+02
  -4.309675e+02  -1.951940e+01
  -2.118978e+02  -2.946601e+02
   1.883969e+02  -3.104375e+02
   3.686440e+02  -1.428609e+02
   2.747382e+02   1.274175e+02
   7.174927e+01   2.800180e+02
  -8.813056e+01   1.905503e+02
  -6.613495e+01  -8.046146e+01
   9.089009e+01  -2.189829e+02
   2.295410e+02  -1.929966e+00
   1.302039e+02   3.723478e+02
  -1.534488e+02   4.092672e+02
  -3.268143e+02   4.614168e+01
  -1.594504e+02  -2.792927e+02
   1.450603e+02  -1.870851e+02
   2.273207e+02   1.606559e+02
  -5.289077e+00   3.294267e+02
  -3.174334e+02   1.130593e+02
  -3.893907e+02  -2.110249e+02
  -1.485635e+02  -3.518572e+02
   2.040149e+02  -2.355518e+02
   3.828640e+02   3.551866e+00
   2.621046e+02   1.902355e+02
  -3.942032e+01   2.150392e+02
  -2.386159e+02   8.124411e+01
  -1.741073e+02  -6.137957e+01
   1.780235e+01  -6.225506e+01
   7.376658e+01   4.507981e+01
  -6.307979e+01   8.622030e+01
  -1.845636e+02  -1.889106e+01
  -1.060925e+02  -1.566434e+02
   1.001937e+02  -1.830003e+02
   2.213126e+02  -8.692168e+01
   1.617257e+02   5.688075e+01
  -4.640425e-01   1.863468e+02
  -1.498873e+02   2.379909e+02
  -2.207110e+02   1.390279e+02
  -1.879205e+02  -8.188422e+01
  -7.746022e+01  -2.531855e+02
   2.293553e+01  -2.364276e+02
   4.327549e+01  -1.069391e+02
   2.458290e+01  -4.457606e+01
   5.808649e+01  -7.912369e+01
   1.436433e+02  -7.267608e+01
   1.790035e+02   4.943926e+01
   1.014527e+02   1.722324e+02
  -3.616483e+01   1.505015e+02
  -1.270400e+02  -1.129844e+00
  -1.149860e+02  -1.403409e+02
  -1.735991e+00  -1.618849e+02
   1.489214e+02  -6.307650e+01
   2.200128e+02   8.459207e+01
   1.419239e+02   1.965238e+02
  -2.236996e+01   1.987882e+02
  -1.200851e+02   1.149292e+02
  -1.045852e+02   4.053911e+01
  -8.543877e+01   3.253927e+01
  -1.661927e+02   4.112677e+01
  -2.683933e+02  -2.127552e+01
  -2.308266e+02  -1.680097e+02
  -1.604503e+01  -2.934782e+02
   2.221832e+02  -2.958077e+02
   3.119010e+02  -1.549404e+02
   2.181800e+02   4.947874e+01
   5.291134e+01   1.843989e+02
  -5.528414e+01   1.635438e+02
  -3.415746e+01   3.123857e+01
   5.692877e+01  -5.381269e+01
   1.030573e+02   4.802828e-01
   3.760924e+01   1.019738e+02
  -6.875889e+01   9.674986e+01
  -8.936851e+01  -2.586919e+01
   5.870865e+00  -1.017420e+02
   1.142046e+02  -1.634802e+01
   1.200108e+02   1.530860e+02
   6.303075e+00   2.322750e+02
  -1.424489e+02   1.517717e+02
  -2.301787e+02  -1.314107e+01
  -2.027492e+02  -1.416880e+02
  -7.638595e+01  -1.709019e+02
   6.237037e+01  -1.112357e+02
   1.050351e+02  -2.487964e+01
   3.677124e+01   1.010316e+01
  -4.005896e+01  -2.811233e+01
  -1.979030e+01  -7.810409e+01
   6.998224e+01  -6.532804e+01
   1.066726e+02  -1.504688e+00
   3.824479e+01   3.548082e+01
  -4.660961e+01   3.848906e+00
  -3.255195e+01  -5.197506e+01
   8.330425e+01  -6.309261e+01
   1.896168e+02  -7.933185e+00
   1.792191e+02   8.399999e+01
   4.831791e+01   1.618049e+02
  -1.063638e+02   1.719515e+02
  -1.692481e+02   9.438269e+01
  -1.044080e+02  -1.575348e+01
   9.750873e+00  -6.041704e+01
   5.220989e+01  -7.194854e+00
  -1.843605e+01   6.184190e+01
  -1.206332e+02   4.539954e+01
  -1.413352e+02  -5.054328e+01
  -5.749324e+01  -1.229500e+02
   4.913382e+01  -1.013174e+02
   8.626485e+01  -2.392700e+01
   4.011069e+01   2.137377e+01
  -2.375411e+01  -3.704472e+00
  -2.787900e+01  -5.993924e+01
   4.453972e+01  -7.993032e+01
   1.270043e+02  -2.783905e+01
   1.276544e+02   6.876458e+01
   2.651016e+01   1.350500e+02
  -9.113065e+01   1.117639e+02
  -1.200659e+02   1.733616e+01
  -4.892573e+01  -6.536997e+01
   3.418541e+01  -7.375538e+01
   5.014626e+01  -2.456513e+01
   1.042166e+01   1.489513e+01
  -1.644417e+01   9.755719e+00
   7.051459e+00  -1.243125e+01
   5.478681e+01  -2.729192e+00
   7.065049e+01   5.188017e+01
   2.009325e+01   1.112323e+02
  -7.738527e+01   1.116939e+02
  -1.533253e+02   3.053616e+01
  -1.416424e+02  -8.590128e+01
  -4.545579e+01  -1.497466e+02
   5.491616e+01  -1.163030e+02
   8.567842e+01  -2.877639e+01
   5.098387e+01   2.795156e+01
   2.199057e+01   1.937414e+01
   3.324683e+01  -1.308694e+01
   5.484889e+01  -1.104967e+01
   3.749321e+01   3.084956e+01
  -1.966395e+01   6.709979e+01
  -6.950499e+01   4.904219e+01
  -6.528689e+01  -1.893912e+01
   2.389658e+00  -8.054374e+01
   9.413596e+01  -6.867046e+01
   1.347964e+02   2.516011e+01
   7.407638e+01   1.317894e+02
  -5.898113e+01   1.567036e+02
  -1.676669e+02   7.574113e+01
  -1.710515e+02  -4.254345e+01
  -8.055330e+01  -1.083849e+02
   1.691169e+01  -9.639337e+01
   5.724582e+01  -5.780367e+01
   4.627856e+01  -4.709877e+01
   3.436750e+01  -6.149422e+01
   5.250951e+01  -5.445521e+01
   8.379228e+01   4.527293e+00
   8.620472e+01   9.184746e+01
   3.277464e+01   1.457339e+02
  -5.444794e+01   1.190161e+02
  -1.135301e+02   2.395975e+01
  -9.701283e+01  -7.251124e+01
  -2.253645e+01  -1.045840e+02
   3.988968e+01  -6.429512e+01
   4.131636e+01  -1.259643e+00
   4.580355e+00   3.075598e+01
  -9.543489e+00   2.362508e+01
   2.147817e+01   7.228144e+00
   5.450165e+01   8.272033e+00
   3.343914e+01   2.318589e+01
  -4.209391e+01   2.869774e+01
  -1.075874e+02   8.451956e+00
  -9.658185e+01  -3.017367e+01
  -9.806251e+00  -5.978296e+01
   7.902111e+01  -5.417753e+01
   9.466507e+01  -1.445265e+01
   3.362525e+01   2.599446e+01
  -3.604022e+01   2.937910e+01
  -5.092342e+01  -7.037798e+00
  -1.259148e+01  -4.506428e+01
   3.019609e+01  -4.353779e+01
   4.372281e+01  -4.236741e+00
   3.669249e+01   3.064092e+01
   3.209119e+01   2.648872e+01
   3.787547e+01  -9.322975e-01
   4.280928e+01  -2.475805e+00
   2.967571e+01   4.354233e+01
  -1.290479e+01   9.863328e+01
  -7.427335e+01   9.884952e+01
  -1.128883e+02   2.856323e+01
  -8.677584e+01  -5.644630e+01
  -5.369891e+00  -8.623778e+01
   5.970704e+01  -4.822342e+01
   4.247769e+01   6.277632e+00
  -3.879030e+01   1.880420e+01
  -9.344730e+01  -1.856002e+01
  -5.473004e+01  -6.595610e+01
   4.840625e+01  -7.916960e+01
   1.231213e+02  -4.456435e+01
   1.084826e+02   1.482991e+01
   2.900088e+01   5.598695e+01
  -3.612771e+01   4.915055e+01
  -3.261583e+01   6.461724e+00
   2.220920e+01  -2.147282e+01
   6.037041e+01   7.210018e+00
   3.177715e+01   7.455108e+01
  -4.537391e+01   1.084541e+02
  -1.033370e+02   5.538178e+01
  -9.170543e+01  -5.501533e+01
  -2.357171e+01  -1.288640e+02
   4.485951e+01  -1.012567e+02
   6.913572e+01  -3.272200e+00
   4.696985e+01   7.187028e+01
   4.630257e+00   6.717780e+01
  -2.753970e+01   1.446431e+01
  -3.195337e+01  -1.588795e+01
  -1.446912e+01  -1.922043e+00
  -2.509106e+00   1.354439e+01
  -1.757105e+01  -1.015137e+01
  -4.241089e+01  -5.430572e+01
  -3.177912e+01  -6.717567e+01
   2.937356e+01  -3.248705e+01
   9.156307e+01   1.442218e+01
   8.842484e+01   3.649100e+01
   1.704658e+01   3.282907e+01
  -5.230842e+01   2.238677e+01
  -5.664141e+01   1.078706e+01
  -1.035113e+01  -5.219062e+00
   2.196508e+01  -1.670852e+01
   9.641610e+00  -1.118816e+01
  -1.176972e+01   2.767121e+00
   3.419403e+00   3.917952e+00
   4.642783e+01  -4.221875e+00
   6.238896e+01   8.800215e+00
   1.616480e+01   5.182648e+01
  -6.510884e+01   8.335574e+01
  -1.173673e+02   5.310138e+01
  -1.005783e+02  -3.100093e+01
  -3.037291e+01  -1.017577e+02
   4.124303e+01  -1.037192e+02
   7.110566e+01  -4.828107e+01
   5.423721e+01   6.428097e+00
   1.954712e+01   2.070577e+01
   7.134243e-01   6.843625e+00
   8.427530e+00   3.768207e+00
   2.433363e+01   2.879812e+01
   2.021724e+01   5.712942e+01
  -1.336045e+01   4.873949e+01
  -5.258786e+01  -4.150827e+00
  -5.817855e+01  -6.160302e+01
  -1.378102e+01  -7.165080e+01
   4.894382e+01  -2.405256e+01
   7.187709e+01   3.860134e+01
   2.895149e+01   6.540626e+01
  -3.976680e+01   4.329709e+01
  -6.642832e+01  -1.113780e+00
  -3.003716e+01  -3.422115e+01
   1.938384e+01  -3.999617e+01
   2.203889e+01  -2.128403e+01
  -1.884914e+01   3.779227e+00
  -4.331684e+01   9.712684e+00
  -1.171351e+01  -1.493509e+01
   4.709567e+01  -4.669084e+01
   7.290616e+01  -4.393697e+01
   4.545969e+01   4.257455e+00
  -2.612177e+00   5.555667e+01
  -2.989272e+01   5.815286e+01
  -2.689693e+01   1.076445e+01
  -8.378704e+00  -3.423443e+01
   1.164263e+01  -3.255366e+01
   2.472481e+01   5.502706e+00
   2.229466e+01   3.313459e+01
   2.099853e+00   2.480195e+01
  -2.183315e+01  -1.194338e+00
  -2.842039e+01  -1.210067e+01
  -1.453592e+01  -7.005038e-01
   1.381547e+00   1.077201e+01
   3.375679e+00   1.224510e+00
  -1.806514e+00  -2.296800e+01
   2.805887e+00  -3.294396e+01
   1.897081e+01  -1.183852e+01
   2.618147e+01   2.383515e+01
   7.318235e+00   3.880418e+01
  -2.647199e+01   1.745162e+01
  -4.151066e+01  -1.979257e+01
  -1.537057e+01  -3.876845e+01
   3.388995e+01  -2.624458e+01
   6.012054e+01   2.263412e+00
   3.602019e+01   2.444348e+01
  -1.484495e+01   3.013924e+01
  -4.022654e+01   2.144102e+01
  -1.748950e+01   6.425843e+00
   2.043671e+01  -2.400586e+00
   2.350795e+01   4.805253e+00
  -1.561725e+01   2.095282e+01
  -5.423897e+01   2.016953e+01
