
 $NMID
 id='ANONYMOUS ', fmtdat='(2E16.6)'
 volume=1.0
 tramp=1.0
 $END
   3.135191e+03   6.593142e+01
   2.011601e+03   1.733397e+03
  -2.573360e+02   1.929923e+03
  -1.310909e+03   8.683570e+02
  -6.559807e+02   6.910125e+01
   1.487089e+02  -2.821190e+02
   4.515492e+02   1.954432e+02
  -2.136586e+01   6.505053e+02
  -5.293896e+02   5.970971e+02
  -5.890376e+02  -1.023427e+02
  -4.029417e+02  -5.378966e+02
   7.290581e+01  -6.278114e+02
   3.925300e+02  -7.744456e+01
   2.196133e+02   5.067512e+02
  -1.831270e+02   5.169879e+02
  -4.586569e+02  -1.445107e+01
  -2.398469e+02  -4.629963e+02
   1.878774e+02  -4.923912e+02
   3.993814e+02  -1.277006e+02
   2.966272e+02   2.259393e+02
   7.732449e+01   3.595894e+02
  -1.224548e+02   2.008374e+02
  -1.068846e+02   4.799483e+01
   1.431528e+02   3.942121e+01
   2.498318e+02   1.725984e+02
   2.446775e+01   2.977444e+02
  -4.074930e+02   1.841015e+02
  -5.463064e+02  -1.315535e+02
  -2.117794e+02  -3.515721e+02
   3.105991e+02  -2.472815e+02
   4.687227e+02   9.093535e+01
   1.826753e+02   3.270465e+02
  -2.227034e+02   3.163255e+02
  -4.010822e+02   1.184083e+02
  -2.586956e+02  -1.379802e+02
  -4.041626e+01  -2.828792e+02
   8.479412e+01  -1.716069e+02
   7.490741e+00   1.193756e+02
  -1.622590e+02   2.129418e+02
  -2.307055e+02  -6.898662e+01
  -6.887351e+01  -4.513769e+02
   2.082505e+02  -4.423416e+02
   3.304374e+02  -1.016167e+01
   1.264275e+02   3.002004e+02
  -1.614502e+02   1.580784e+02
  -1.803811e+02  -2.153377e+02
   9.063947e+01  -3.342688e+02
   3.663644e+02  -5.517831e+01
   3.777433e+02   3.105736e+02
   9.455365e+01   4.100903e+02
  -2.665558e+02   2.193720e+02
  -4.225116e+02  -6.461058e+01
  -2.602536e+02  -2.382921e+02
   6.724154e+01  -2.169941e+02
   2.617217e+02  -5.423640e+01
   1.695711e+02   7.751492e+01
  -2.869404e+01   5.184221e+01
  -6.535641e+01  -6.087899e+01
   9.064330e+01  -8.051715e+01
   2.062079e+02   4.581544e+01
   9.850263e+01   1.848874e+02
  -1.391267e+02   1.972277e+02
  -2.711638e+02   7.689639e+01
  -1.857129e+02  -9.513943e+01
   3.459252e+01  -2.349420e+02
   2.315655e+02  -2.584746e+02
   2.905232e+02  -1.109950e+02
   1.936356e+02   1.378328e+02
   3.165740e+01   3.000807e+02
  -6.299125e+01   2.602175e+02
  -5.236162e+01   1.174219e+02
  -3.014949e+01   4.949919e+01
  -8.641101e+01   7.472745e+01
  -1.792245e+02   5.250433e+01
  -1.925874e+02  -8.360395e+01
  -8.042687e+01  -2.100602e+02
   7.743032e+01  -1.695384e+02
   1.654851e+02   2.493653e+01
   1.218219e+02   2.036412e+02
  -3.832711e+01   2.159303e+02
  -2.098631e+02   5.852723e+01
  -2.576974e+02  -1.485793e+02
  -1.309176e+02  -2.573740e+02
   6.191530e+01  -2.179436e+02
   1.573737e+02  -1.084919e+02
   1.247959e+02  -4.468046e+01
   1.116650e+02  -4.315484e+01
   2.150979e+02  -2.544502e+01
   3.202049e+02   8.594224e+01
   2.456225e+02   2.506407e+02
  -2.980084e+01   3.532353e+02
  -3.114778e+02   3.070552e+02
  -3.930202e+02   1.273723e+02
  -2.443500e+02  -9.066314e+01
  -2.070212e+01  -2.121191e+02
   8.897936e+01  -1.712561e+02
   3.072375e+01  -3.360427e+01
  -8.774722e+01   4.183983e+01
  -1.138120e+02  -2.646020e+01
  -1.106847e+01  -1.241832e+02
   1.054285e+02  -9.660519e+01
   1.025468e+02   4.585936e+01
  -2.214946e+01   1.193980e+02
  -1.344805e+02   5.682365e+00
  -1.170482e+02  -1.939790e+02
   2.758949e+01  -2.762945e+02
   1.983546e+02  -1.594929e+02
   2.780471e+02   6.113683e+01
   2.138909e+02   2.190064e+02
   4.504010e+01   2.234459e+02
  -1.057683e+02   1.120134e+02
  -1.254388e+02  -4.940877e-03
  -3.030388e+01  -1.933079e+01
   4.304826e+01   4.469798e+01
  -2.039210e+00   9.416073e+01
  -1.038309e+02   5.808826e+01
  -1.242935e+02  -2.259465e+01
  -2.836320e+01  -5.184738e+01
   6.757686e+01   1.439635e+00
   3.538336e+01   6.981693e+01
  -1.139482e+02   6.878470e+01
  -2.383129e+02  -1.931203e+01
  -2.058756e+02  -1.410102e+02
  -2.213935e+01  -2.163871e+02
   1.724727e+02  -1.886050e+02
   2.262268e+02  -7.050311e+01
   1.164878e+02   4.618857e+01
  -2.751729e+01   6.444291e+01
  -5.701313e+01  -1.141240e+01
   4.580233e+01  -7.128717e+01
   1.584236e+02  -2.308503e+01
   1.566321e+02   9.573427e+01
   4.112025e+01   1.631470e+02
  -8.023364e+01   1.149517e+02
  -1.097243e+02   1.217146e+01
  -4.492369e+01  -3.689152e+01
   2.957233e+01   6.733295e+00
   2.282667e+01   8.098634e+01
  -7.419609e+01   9.237739e+01
  -1.669885e+02   7.286068e+00
  -1.440784e+02  -1.149587e+02
  -1.593477e+00  -1.735878e+02
   1.366422e+02  -1.179909e+02
   1.474542e+02   1.944845e+00
   4.247478e+01   8.547969e+01
  -5.719990e+01   7.813258e+01
  -6.321204e+01   1.676949e+01
  -4.960909e+00  -2.252232e+01
   2.850505e+01  -9.178751e+00
  -5.383665e+00   1.599605e+01
  -6.567250e+01  -3.001868e+00
  -7.725933e+01  -7.458216e+01
  -4.144818e+00  -1.375640e+02
   1.159907e+02  -1.172345e+02
   1.896516e+02  -1.569560e+00
   1.482930e+02   1.331853e+02
   1.909270e+01   1.852824e+02
  -9.053407e+01   1.228333e+02
  -1.051833e+02   1.537944e+01
  -5.396671e+01  -4.447446e+01
  -2.138708e+01  -2.819563e+01
  -4.142838e+01   1.117967e+01
  -6.695095e+01   7.048756e+00
  -4.182485e+01  -4.262264e+01
   3.151595e+01  -8.079069e+01
   9.306638e+01  -5.074767e+01
   8.029241e+01   3.436337e+01
  -1.394729e+01   9.728080e+01
  -1.274411e+02   6.305212e+01
  -1.603405e+02  -5.904221e+01
  -6.163632e+01  -1.719357e+02
   1.071852e+02  -1.714461e+02
   2.201699e+02  -5.291169e+01
   1.960633e+02   8.448348e+01
   7.320081e+01   1.426288e+02
  -4.022914e+01   1.116623e+02
  -7.745002e+01   6.091755e+01
  -6.148422e+01   5.230701e+01
  -5.206061e+01   7.400978e+01
  -7.691939e+01   6.221359e+01
  -1.073955e+02  -1.908319e+01
  -9.320620e+01  -1.311115e+02
  -1.423509e+01  -1.884183e+02
   8.921723e+01  -1.359129e+02
   1.415583e+02  -6.008733e+00
   1.007451e+02   1.068119e+02
   4.781365e+00   1.276865e+02
  -6.043300e+01   6.456669e+01
  -4.798215e+01  -1.160291e+01
   4.047221e+00  -4.212741e+01
   2.051371e+01  -2.843003e+01
  -2.154891e+01  -1.060568e+01
  -6.475421e+01  -1.548356e+01
  -3.816079e+01  -3.191770e+01
   5.660303e+01  -2.997116e+01
   1.355108e+02   4.724002e+00
   1.149829e+02   5.341901e+01
   1.664601e+00   7.878989e+01
  -1.069350e+02   5.657433e+01
  -1.185566e+02   1.643279e+00
  -3.721340e+01  -4.037206e+01
   4.832146e+01  -3.239528e+01
   6.224291e+01   1.727346e+01
   1.140447e+01   5.895024e+01
  -4.168902e+01   4.965830e+01
  -5.596567e+01  -2.004101e+00
  -4.317749e+01  -4.405779e+01
  -3.504958e+01  -3.769289e+01
  -4.281635e+01  -4.333710e+00
  -4.961597e+01  -2.887516e+00
  -2.988475e+01  -5.789485e+01
   2.779463e+01  -1.191293e+02
   1.018089e+02  -1.111637e+02
   1.403651e+02  -2.102226e+01
   1.003280e+02   7.772769e+01
   1.947511e+00   1.030908e+02
  -6.975388e+01   5.083595e+01
  -4.602422e+01  -8.708445e+00
   4.646504e+01  -1.069948e+01
   1.030863e+02   4.066958e+01
   5.124548e+01   8.873331e+01
  -7.105012e+01   8.550688e+01
  -1.529845e+02   2.992393e+01
  -1.244789e+02  -3.806959e+01
  -2.252675e+01  -7.143565e+01
   5.240891e+01  -4.974591e+01
   3.769219e+01   6.284832e-01
  -3.321059e+01   2.229260e+01
  -7.117597e+01  -2.047485e+01
  -2.334744e+01  -9.538947e+01
   7.334722e+01  -1.209036e+02
   1.306076e+02  -4.757210e+01
   9.724090e+01   7.987170e+01
   4.881736e+00   1.538607e+02
  -7.069891e+01   1.083722e+02
  -8.163744e+01  -1.186781e+01
  -3.894671e+01  -9.614048e+01
   1.391516e+01  -8.120495e+01
   4.211587e+01  -1.088579e+01
   3.686211e+01   2.752988e+01
   1.476330e+01   8.450339e+00
   4.455471e+00  -1.224179e+01
   2.082277e+01   1.749598e+01
   4.159263e+01   7.269639e+01
   2.330348e+01   8.500451e+01
  -4.390598e+01   3.278883e+01
  -1.064592e+02  -3.424416e+01
  -9.601543e+01  -6.036877e+01
  -1.218639e+01  -4.345117e+01
   6.668213e+01  -1.701418e+01
   6.925343e+01  -5.883205e-02
   1.135105e+01   1.084791e+01
  -2.985417e+01   1.624300e+01
  -1.511960e+01   9.502982e+00
   1.338920e+01  -3.224726e+00
  -3.065679e+00  -5.978441e+00
  -5.530133e+01  -3.360919e+00
  -7.280680e+01  -2.195085e+01
  -1.014897e+01  -6.543189e+01
   9.362092e+01  -8.889365e+01
   1.521922e+02  -4.394138e+01
   1.172208e+02   5.392355e+01
   1.911056e+01   1.286175e+02
  -6.862430e+01   1.205112e+02
  -9.513429e+01   4.819590e+01
  -6.510344e+01  -1.754855e+01
  -2.094662e+01  -3.048789e+01
  -9.233018e-01  -9.886671e+00
  -1.001869e+01  -6.787880e+00
  -2.354077e+01  -4.019703e+01
  -1.295117e+01  -7.376370e+01
   2.533490e+01  -5.670853e+01
   6.247717e+01   1.513764e+01
   5.924936e+01   8.461895e+01
   4.737843e+00   8.771853e+01
  -6.232774e+01   1.982136e+01
  -8.020741e+01  -5.863738e+01
  -2.528631e+01  -8.381923e+01
   5.412522e+01  -4.707127e+01
   8.057780e+01   1.038533e+01
   3.250821e+01   4.550335e+01
  -2.853593e+01   4.487149e+01
  -2.971344e+01   2.107024e+01
   2.416330e+01  -2.646683e+00
   5.624014e+01  -4.015533e+00
   1.422928e+01   2.216013e+01
  -6.377632e+01   5.020153e+01
  -9.683746e+01   4.064073e+01
  -5.523472e+01  -1.322075e+01
   1.351356e+01  -6.550693e+01
   4.792156e+01  -6.279113e+01
   3.442003e+01  -6.652869e+00
   1.709903e+00   4.319745e+01
  -2.250966e+01   3.637947e+01
  -2.975032e+01  -1.234964e+01
  -2.007881e+01  -4.520641e+01
   3.088220e+00  -3.014688e+01
   2.637242e+01   7.256520e+00
   3.146504e+01   2.158580e+01
   1.584891e+01   3.160370e+00
  -1.607124e+00  -1.599310e+01
  -4.464392e+00  -5.149018e+00
   1.949425e-01   2.672297e+01
  -5.642145e+00   4.073617e+01
  -2.288251e+01   1.398129e+01
  -2.881087e+01  -3.062567e+01
  -5.119736e+00  -4.696038e+01
   3.342374e+01  -1.712008e+01
   4.685084e+01   2.959039e+01
   1.177720e+01   4.882586e+01
  -4.685565e+01   2.644454e+01
  -7.368507e+01  -1.282490e+01
  -3.908930e+01  -3.703343e+01
   2.466248e+01  -3.597326e+01
   5.404057e+01  -1.995994e+01
   2.381246e+01  -3.716826e+00
  -2.379445e+01   1.984881e+00
  -2.751388e+01  -7.219149e+00
   2.051991e+01  -2.045540e+01
   6.556156e+01  -1.341822e+01
