
 $NMID
 id='ANONYMOUS ', fmtdat='(2E16.6)'
 volume=1.0
 tramp=1.0
 $END
  -3.781088e+03   1.796783e+02
  -2.477886e+03  -2.082402e+03
   2.461822e+02  -2.325567e+03
   1.904896e+03  -1.290110e+03
   9.417032e+02   1.665454e+01
  -3.045822e+02   4.043000e+02
  -7.270083e+02  -2.406708e+02
   2.546575e+01  -8.576446e+02
   6.814658e+02  -7.720506e+02
   6.927921e+02  -4.930946e+01
   4.147908e+02   6.836261e+02
  -8.784869e+01   9.394252e+02
  -4.402652e+02   2.299387e+02
  -4.109552e+02  -6.055382e+02
   1.499275e+02  -7.222319e+02
   5.322932e+02  -1.607649e+01
   3.232743e+02   5.413448e+02
  -2.033877e+02   6.804829e+02
  -5.349550e+02   1.575774e+02
  -4.297612e+02  -3.060957e+02
  -8.425774e+01  -4.212248e+02
   1.910143e+02  -2.578068e+02
   1.575426e+02  -4.537379e+01
  -1.637085e+02   2.060274e+01
  -3.849745e+02  -2.109740e+02
  -9.944812e+01  -4.287510e+02
   4.511090e+02  -3.327649e+02
   7.519120e+02   9.810772e+01
   3.824308e+02   4.718537e+02
  -3.343399e+02   3.535269e+02
  -6.441281e+02  -1.010620e+02
  -2.967379e+02  -4.331345e+02
   2.570506e+02  -4.600471e+02
   5.349083e+02  -1.851355e+02
   3.971332e+02   1.876649e+02
   1.126952e+02   3.918230e+02
  -1.091735e+02   2.384136e+02
  -5.687230e+01  -1.753092e+02
   1.906352e+02  -3.258061e+02
   3.423824e+02   7.626202e+01
   1.548611e+02   6.210036e+02
  -2.743718e+02   6.358180e+02
  -4.879224e+02   3.160805e+01
  -2.251664e+02  -4.531888e+02
   2.097818e+02  -2.588039e+02
   3.022616e+02   2.860035e+02
  -6.486804e+01   4.779586e+02
  -4.936636e+02   1.278592e+02
  -5.677876e+02  -3.800781e+02
  -1.917324e+02  -5.474153e+02
   3.310265e+02  -3.238472e+02
   5.998615e+02   5.115995e+01
   3.901708e+02   3.223230e+02
  -9.672286e+01   3.243316e+02
  -4.030148e+02   9.285749e+01
  -2.688096e+02  -1.212209e+02
   5.243174e+01  -9.546117e+01
   1.264358e+02   8.552959e+01
  -1.094772e+02   1.406256e+02
  -2.973544e+02  -3.063556e+01
  -1.609230e+02  -2.379607e+02
   1.619065e+02  -2.735743e+02
   3.420203e+02  -1.343658e+02
   2.448146e+02   7.818158e+01
  -1.431423e+01   2.857992e+02
  -2.573057e+02   3.763287e+02
  -3.609066e+02   2.117598e+02
  -2.781890e+02  -1.572337e+02
  -8.023258e+01  -4.275237e+02
   6.861140e+01  -3.740928e+02
   7.581635e+01  -1.430402e+02
   3.602528e+01  -3.939389e+01
   9.211049e+01  -1.043081e+02
   2.224723e+02  -1.062518e+02
   2.651976e+02   7.526634e+01
   1.332689e+02   2.653829e+02
  -7.958487e+01   2.335177e+02
  -2.166816e+02  -8.026946e+00
  -1.789950e+02  -2.456984e+02
   2.249271e+01  -2.902632e+02
   2.655163e+02  -1.197329e+02
   3.626868e+02   1.562969e+02
   2.067229e+02   3.363643e+02
  -6.477550e+01   3.144711e+02
  -2.041178e+02   1.595726e+02
  -1.562331e+02   4.723373e+01
  -1.212153e+02   5.255612e+01
  -2.564277e+02   6.545801e+01
  -4.281715e+02  -5.538754e+01
  -3.601628e+02  -2.841214e+02
  -1.394194e+01  -4.539398e+02
   3.643629e+02  -4.379914e+02
   4.971142e+02  -2.234741e+02
   3.303123e+02   7.850571e+01
   5.248148e+01   2.808608e+02
  -1.016507e+02   2.480803e+02
  -4.794462e+01   4.750620e+01
   1.089974e+02  -8.205559e+01
   1.653845e+02   7.686903e+00
   3.693666e+01   1.687227e+02
  -1.365879e+02   1.560173e+02
  -1.548687e+02  -4.456223e+01
   1.112650e+01  -1.708841e+02
   1.810188e+02  -3.522215e+01
   1.778459e+02   2.337797e+02
  -2.646517e+00   3.611322e+02
  -2.318645e+02   2.296800e+02
  -3.615022e+02  -4.042266e+01
  -3.077317e+02  -2.502088e+02
  -9.645698e+01  -2.858593e+02
   1.215917e+02  -1.664192e+02
   1.753812e+02  -1.730010e+01
   5.020002e+01   2.749727e+01
  -6.877209e+01  -5.068263e+01
  -2.221347e+01  -1.307170e+02
   1.254892e+02  -9.830878e+01
   1.743829e+02   1.156993e+01
   5.611977e+01   6.580314e+01
  -7.898506e+01   8.247190e+00
  -5.209893e+01  -8.165881e+01
   1.340468e+02  -9.601487e+01
   3.019638e+02  -3.558267e+00
   2.819999e+02   1.478905e+02
   6.435852e+01   2.703567e+02
  -1.911168e+02   2.725487e+02
  -2.881790e+02   1.319138e+02
  -1.687798e+02  -4.551050e+01
   2.386692e+01  -1.011234e+02
   8.448746e+01  -2.355225e+00
  -3.979036e+01   1.029054e+02
  -2.013587e+02   6.001945e+01
  -2.223340e+02  -1.014647e+02
  -8.147281e+01  -2.100146e+02
   8.698748e+01  -1.631015e+02
   1.432969e+02  -3.293364e+01
   6.839026e+01   3.911515e+01
  -3.571711e+01  -4.727817e+00
  -4.309476e+01  -9.827862e+01
   7.646258e+01  -1.292454e+02
   2.114298e+02  -3.888647e+01
   2.068789e+02   1.216629e+02
   3.403792e+01   2.242929e+02
  -1.570516e+02   1.769148e+02
  -1.942367e+02   2.014576e+01
  -7.082380e+01  -1.079094e+02
   6.295814e+01  -1.122028e+02
   8.218699e+01  -3.150844e+01
   1.302592e+01   2.849894e+01
  -3.306746e+01   1.740195e+01
   4.266844e+00  -1.816498e+01
   8.239959e+01  -1.846567e+00
   1.085252e+02   8.467947e+01
   2.510102e+01   1.730692e+02
  -1.321027e+02   1.670146e+02
  -2.478035e+02   3.260606e+01
  -2.151717e+02  -1.502077e+02
  -5.262648e+01  -2.419271e+02
   1.016587e+02  -1.790313e+02
   1.363468e+02  -3.726523e+01
   7.759104e+01   5.013782e+01
   3.294134e+01   3.282957e+01
   5.484199e+01  -1.969147e+01
   8.678243e+01  -1.573178e+01
   5.671150e+01   5.007565e+01
  -3.413948e+01   1.047620e+02
  -1.127577e+02   7.281169e+01
  -1.032581e+02  -3.546095e+01
   9.767525e+00  -1.262595e+02
   1.567063e+02  -1.001505e+02
   2.161475e+02   5.223788e+01
   1.067131e+02   2.150048e+02
  -1.128008e+02   2.434536e+02
  -2.780081e+02   1.064039e+02
  -2.678243e+02  -8.125355e+01
  -1.167226e+02  -1.770254e+02
   3.675567e+01  -1.520783e+02
   9.251012e+01  -8.914280e+01
   7.276266e+01  -7.447276e+01
   5.671423e+01  -9.865200e+01
   8.784298e+01  -8.661489e+01
   1.370225e+02   1.000304e+01
   1.362781e+02   1.511379e+02
   4.629214e+01   2.353022e+02
  -9.354904e+01   1.862883e+02
  -1.819971e+02   2.903775e+01
  -1.468365e+02  -1.232766e+02
  -2.405983e+01  -1.665109e+02
   7.136845e+01  -9.546643e+01
   6.638009e+01   5.076385e+00
   3.842952e+00   5.265763e+01
  -1.848000e+01   3.927381e+01
   3.195927e+01   1.360870e+01
   8.538389e+01   1.508568e+01
   5.262121e+01   3.663472e+01
  -6.711855e+01   4.346450e+01
  -1.716284e+02   1.140518e+01
  -1.542669e+02  -4.900382e+01
  -1.506242e+01  -9.540939e+01
   1.277696e+02  -8.548317e+01
   1.517850e+02  -2.058547e+01
   5.232693e+01   4.420014e+01
  -6.028852e+01   4.777636e+01
  -8.354555e+01  -1.298448e+01
  -2.042559e+01  -7.403313e+01
   4.961140e+01  -7.040455e+01
   7.179169e+01  -6.194712e+00
   5.899015e+01   4.968588e+01
   5.013684e+01   4.340316e+01
   5.823803e+01   6.163789e-01
   6.610242e+01  -2.567157e+00
   4.586665e+01   6.954283e+01
  -2.004489e+01   1.546766e+02
  -1.149325e+02   1.538615e+02
  -1.749839e+02   4.456295e+01
  -1.358409e+02  -8.571591e+01
  -1.193641e+01  -1.291486e+02
   8.722063e+01  -6.952149e+01
   6.104188e+01   9.482389e+00
  -6.208441e+01   2.155164e+01
  -1.441403e+02  -3.893270e+01
  -8.201568e+01  -1.080306e+02
   7.997139e+01  -1.205415e+02
   1.966821e+02  -6.142783e+01
   1.702580e+02   2.951952e+01
   4.199748e+01   8.867443e+01
  -6.076675e+01   7.388104e+01
  -5.084677e+01   7.417115e+00
   3.904807e+01  -3.210774e+01
   9.645665e+01   1.649152e+01
   4.448597e+01   1.201299e+02
  -8.030795e+01   1.669447e+02
  -1.656606e+02   7.888190e+01
  -1.374070e+02  -9.266399e+01
  -2.446167e+01  -2.024670e+02
   8.082248e+01  -1.531905e+02
   1.112057e+02   3.926740e+00
   6.807809e+01   1.221165e+02
  -2.576450e+00   1.121927e+02
  -5.180738e+01   2.398328e+01
  -5.454663e+01  -2.891267e+01
  -2.353932e+01  -8.062054e+00
  -3.872969e+00   1.842759e+01
  -2.731674e+01  -1.782408e+01
  -6.465284e+01  -8.825902e+01
  -4.588514e+01  -1.081192e+02
   4.986465e+01  -4.886437e+01
   1.443396e+02   3.074704e+01
   1.358683e+02   6.543610e+01
   2.192190e+01   5.356069e+01
  -8.674133e+01   3.075612e+01
  -9.166672e+01   1.143850e+01
  -1.617083e+01  -1.032786e+01
   3.651764e+01  -2.595558e+01
   1.727746e+01  -1.765306e+01
  -1.748827e+01   3.471853e+00
   6.172863e+00   7.450872e+00
   7.447843e+01  -1.396555e+00
   9.761288e+01   2.009471e+01
   1.983248e+01   8.435077e+01
  -1.115576e+02   1.279035e+02
  -1.915198e+02   7.617037e+01
  -1.578624e+02  -5.671844e+01
  -4.112385e+01  -1.656059e+02
   7.266219e+01  -1.644046e+02
   1.165906e+02  -7.267315e+01
   8.686727e+01   1.551451e+01
   3.091714e+01   3.626132e+01
   1.063918e+00   1.128667e+01
   1.249100e+01   6.128975e+00
   3.604046e+01   4.826319e+01
   2.782287e+01   9.391060e+01
  -2.503470e+01   7.707111e+01
  -8.396928e+01  -1.181232e+01
  -8.849608e+01  -1.029633e+02
  -1.640528e+01  -1.135934e+02
   7.979007e+01  -3.307514e+01
   1.113564e+02   6.632086e+01
   4.170424e+01   1.046833e+02
  -6.513669e+01   6.613588e+01
  -1.046998e+02  -4.123412e+00
  -4.612130e+01  -5.411432e+01
   3.207887e+01  -6.117269e+01
   3.530674e+01  -3.158361e+01
  -3.128072e+01   6.166688e+00
  -7.176968e+01   1.335470e+01
  -2.041946e+01  -2.560163e+01
   7.630764e+01  -7.327596e+01
   1.193627e+02  -6.599286e+01
   7.205756e+01   1.016741e+01
  -9.845817e+00   8.831628e+01
  -5.439228e+01   8.826885e+01
  -4.425068e+01   1.153023e+01
  -8.158627e+00  -5.778069e+01
   2.464019e+01  -5.067510e+01
   4.090439e+01   1.274565e+01
   3.262266e+01   5.613040e+01
  -3.941630e-01   3.923478e+01
  -3.595471e+01  -5.192205e+00
  -4.444780e+01  -2.234184e+01
  -2.193865e+01  -1.943722e+00
   3.541634e+00   1.781293e+01
   7.218565e+00   2.356288e+00
  -1.193122e+00  -3.584925e+01
   5.500411e+00  -5.117719e+01
   2.927827e+01  -1.716210e+01
   3.948264e+01   3.871644e+01
   9.657778e+00   6.131753e+01
  -4.289157e+01   2.638125e+01
  -6.457220e+01  -3.333895e+01
  -2.175444e+01  -6.304902e+01
   5.635543e+01  -4.109141e+01
   9.638779e+01   6.869641e+00
   5.563038e+01   4.249907e+01
  -2.679916e+01   4.853701e+01
  -6.692862e+01   3.151156e+01
  -2.919358e+01   7.600024e+00
   3.221306e+01  -4.316155e+00
   3.741376e+01   7.408785e+00
  -2.505701e+01   2.975403e+01
  -8.555429e+01   2.542320e+01
