
 $NMID
 id='ANONYMOUS ', fmtdat='(2E16.6)'
 volume=1.0
 tramp=1.0
 $END
  -3.093666e+03   1.568790e+02
  -2.054337e+03  -1.531220e+03
   1.910640e+02  -1.916695e+03
   1.366553e+03  -9.925825e+02
   9.208630e+02  -2.517559e+02
   2.303115e+01   5.004232e+01
  -3.680669e+02  -1.141977e+02
  -5.861308e+01  -5.502960e+02
   4.341706e+02  -5.512453e+02
   6.216589e+02  -6.277324e+01
   4.378462e+02   5.724973e+02
  -1.615781e+02   6.096731e+02
  -3.534837e+02   1.631257e+02
  -2.141263e+02  -4.327079e+02
   1.809510e+02  -5.671140e+02
   4.137122e+02  -5.426605e+01
   2.718388e+02   4.707744e+02
  -8.524731e+01   6.040372e+02
  -4.324485e+02   2.486959e+02
  -4.020786e+02  -1.811277e+02
  -1.219784e+02  -3.613149e+02
   1.031573e+02  -2.602276e+02
   6.995280e+01  -8.022524e+01
  -1.497701e+02  -8.827482e+01
  -2.704657e+02  -2.155035e+02
  -2.382345e+01  -3.280922e+02
   4.470487e+02  -1.853429e+02
   6.422170e+02   1.205590e+02
   2.618650e+02   3.344316e+02
  -3.055436e+02   2.052609e+02
  -5.164848e+02  -1.212790e+02
  -2.070661e+02  -3.457343e+02
   2.725005e+02  -3.781094e+02
   4.668386e+02  -1.336510e+02
   3.443648e+02   1.738530e+02
   8.964498e+01   3.218553e+02
  -2.099241e+01   2.042140e+02
   2.431902e+01  -1.012009e+02
   1.529764e+02  -1.872819e+02
   2.071594e+02   1.105308e+02
   5.538635e+01   4.921932e+02
  -2.135559e+02   4.637862e+02
  -3.232546e+02   3.686595e+01
  -1.508964e+02  -3.056009e+02
   1.213597e+02  -1.748062e+02
   1.853255e+02   2.310396e+02
  -7.135860e+01   3.762036e+02
  -4.227477e+02   9.049432e+01
  -4.943974e+02  -3.295022e+02
  -1.831605e+02  -4.788369e+02
   2.784124e+02  -2.939433e+02
   5.189498e+02   2.009724e+01
   3.574101e+02   2.344648e+02
  -2.902814e+01   2.382508e+02
  -2.866982e+02   1.052694e+02
  -2.259745e+02  -2.202159e+01
  -1.030820e+01  -2.821357e+01
   5.944010e+01   5.213005e+01
  -9.201071e+01   7.225037e+01
  -2.338109e+02  -3.903901e+01
  -1.349406e+02  -1.936968e+02
   1.435105e+02  -2.462956e+02
   3.277145e+02  -1.372088e+02
   2.445496e+02   8.181108e+01
  -2.325912e+01   2.912880e+02
  -2.614475e+02   3.470452e+02
  -3.254891e+02   1.714397e+02
  -2.233538e+02  -1.370610e+02
  -6.826524e+01  -3.462193e+02
   2.422398e+01  -3.194871e+02
   3.386016e+01  -1.653604e+02
   4.014919e+01  -8.417248e+01
   1.155839e+02  -1.017547e+02
   2.181228e+02  -6.862838e+01
   2.335576e+02   9.136475e+01
   1.114821e+02   2.383349e+02
  -6.997753e+01   1.984385e+02
  -1.828696e+02  -2.014482e+01
  -1.443360e+02  -2.244551e+02
   3.182505e+01  -2.401780e+02
   2.310251e+02  -7.065257e+01
   3.008465e+02   1.502216e+02
   1.718776e+02   2.757281e+02
  -3.739439e+01   2.550024e+02
  -1.502799e+02   1.537773e+02
  -1.341270e+02   8.112115e+01
  -1.339879e+02   7.068611e+01
  -2.590876e+02   4.629906e+01
  -3.912366e+02  -6.955936e+01
  -3.177848e+02  -2.624302e+02
   1.856894e+00  -4.113228e+02
   3.422166e+02  -3.942802e+02
   4.481603e+02  -1.894263e+02
   2.792705e+02   7.960892e+01
   3.103078e+01   2.400434e+02
  -8.040929e+01   1.982780e+02
  -1.711817e+01   3.798478e+01
   1.055001e+02  -4.767360e+01
   1.287561e+02   2.377052e+01
   2.089720e+01   1.367270e+02
  -1.016527e+02   1.115274e+02
  -1.088022e+02  -4.089272e+01
   1.704283e+01  -1.293396e+02
   1.511624e+02  -1.337560e+01
   1.545249e+02   2.167654e+02
  -4.964078e+00   3.324869e+02
  -2.214505e+02   2.117614e+02
  -3.414508e+02  -4.661927e+01
  -2.745487e+02  -2.423280e+02
  -6.860082e+01  -2.589622e+02
   1.150500e+02  -1.365228e+02
   1.409784e+02  -1.030859e+01
   3.162095e+01   1.065377e+01
  -5.289175e+01  -5.881248e+01
  -1.583053e+00  -1.117249e+02
   1.178326e+02  -7.311645e+01
   1.469364e+02   1.535694e+01
   3.861477e+01   5.050814e+01
  -7.569470e+01  -4.950355e+00
  -4.165024e+01  -8.343781e+01
   1.369426e+02  -8.884337e+01
   2.911972e+02   8.331927e+00
   2.580233e+02   1.540920e+02
   4.103149e+01   2.546583e+02
  -1.914381e+02   2.367099e+02
  -2.605521e+02   1.050138e+02
  -1.398273e+02  -4.018696e+01
   2.556950e+01  -7.918435e+01
   6.672442e+01   6.558964e-01
  -4.348571e+01   8.031181e+01
  -1.760396e+02   4.233271e+01
  -1.887833e+02  -8.874538e+01
  -6.709784e+01  -1.767572e+02
   7.586815e+01  -1.364035e+02
   1.195697e+02  -2.673110e+01
   4.939672e+01   2.882256e+01
  -3.768770e+01  -1.827288e+01
  -2.979872e+01  -1.011477e+02
   8.639542e+01  -1.164725e+02
   2.007959e+02  -2.368486e+01
   1.831729e+02   1.192209e+02
   2.433831e+01   2.022822e+02
  -1.404152e+02   1.572612e+02
  -1.697952e+02   2.279865e+01
  -6.343764e+01  -8.885842e+01
   5.088237e+01  -9.774584e+01
   6.658964e+01  -3.008067e+01
   5.461445e+00   2.301259e+01
  -3.257133e+01   1.145477e+01
   9.254014e+00  -2.266629e+01
   8.606279e+01  -2.826762e+00
   1.047133e+02   8.523798e+01
   1.610073e+01   1.691273e+02
  -1.332867e+02   1.540958e+02
  -2.299967e+02   2.183535e+01
  -1.916799e+02  -1.419926e+02
  -4.654407e+01  -2.165968e+02
   8.790290e+01  -1.594531e+02
   1.212830e+02  -3.811668e+01
   7.385247e+01   3.905759e+01
   3.361171e+01   2.772876e+01
   5.084392e+01  -1.489021e+01
   8.172611e+01  -1.106830e+01
   5.598155e+01   5.186890e+01
  -3.224143e+01   1.035863e+02
  -1.149445e+02   7.089656e+01
  -1.062167e+02  -3.824291e+01
   1.010723e+01  -1.276985e+02
   1.546044e+02  -9.697826e+01
   2.022034e+02   5.239974e+01
   9.277213e+01   2.023867e+02
  -1.082565e+02   2.236768e+02
  -2.527878e+02   9.595780e+01
  -2.407921e+02  -7.443530e+01
  -1.071999e+02  -1.617234e+02
   2.962493e+01  -1.378845e+02
   8.245636e+01  -8.085808e+01
   6.708648e+01  -6.812838e+01
   5.278966e+01  -9.178308e+01
   8.125125e+01  -7.977880e+01
   1.251629e+02   1.273555e+01
   1.197866e+02   1.437639e+02
   3.467820e+01   2.152556e+02
  -8.935074e+01   1.626214e+02
  -1.623634e+02   1.702128e+01
  -1.265271e+02  -1.165133e+02
  -1.704963e+01  -1.488486e+02
   6.634756e+01  -8.079670e+01
   5.945663e+01   1.061037e+01
  -4.659042e-01   5.163217e+01
  -2.314149e+01   3.563804e+01
   2.603818e+01   9.075868e+00
   8.017204e+01   1.067933e+01
   4.934892e+01   3.331994e+01
  -6.702505e+01   3.989270e+01
  -1.646558e+02   6.069350e+00
  -1.398323e+02  -5.315580e+01
  -2.537171e+00  -9.285517e+01
   1.279803e+02  -7.617850e+01
   1.418840e+02  -1.133084e+01
   4.559641e+01   4.770660e+01
  -5.767535e+01   4.741654e+01
  -7.955149e+01  -1.165137e+01
  -2.390577e+01  -6.963299e+01
   4.170371e+01  -6.681861e+01
   6.729015e+01  -7.019764e+00
   5.832509e+01   4.521588e+01
   4.802184e+01   3.910737e+01
   5.392787e+01  -5.260793e-01
   6.353841e+01  -4.599245e-01
   4.544097e+01   6.981206e+01
  -2.206363e+01   1.491558e+02
  -1.176645e+02   1.450227e+02
  -1.728056e+02   3.862359e+01
  -1.280974e+02  -8.669013e+01
  -5.933502e+00  -1.295902e+02
   8.742772e+01  -7.334305e+01
   6.224601e+01   6.292425e+00
  -5.268584e+01   2.512747e+01
  -1.294185e+02  -2.809102e+01
  -7.415121e+01  -9.449117e+01
   7.234649e+01  -1.077776e+02
   1.771968e+02  -5.248175e+01
   1.511074e+02   3.066187e+01
   3.308685e+01   7.995121e+01
  -5.872948e+01   6.105419e+01
  -4.627610e+01   6.387584e-01
   3.755198e+01  -3.094810e+01
   8.962293e+01   1.612084e+01
   4.278957e+01   1.103898e+02
  -6.941709e+01   1.536331e+02
  -1.487717e+02   7.560550e+01
  -1.279846e+02  -8.067638e+01
  -2.847144e+01  -1.840515e+02
   6.917236e+01  -1.422176e+02
   1.006142e+02   7.294743e-01
   6.203915e+01   1.093918e+02
  -3.524340e+00   9.997631e+01
  -4.668010e+01   1.980753e+01
  -4.529380e+01  -2.661393e+01
  -1.747325e+01  -6.497888e+00
  -4.841617e+00   1.612406e+01
  -2.924272e+01  -1.868222e+01
  -5.904808e+01  -8.194949e+01
  -3.636507e+01  -9.757232e+01
   4.992912e+01  -4.284374e+01
   1.304747e+02   2.856758e+01
   1.208367e+02   5.996347e+01
   2.099343e+01   5.010350e+01
  -7.518847e+01   2.889230e+01
  -8.307732e+01   9.773135e+00
  -1.872773e+01  -1.005155e+01
   3.080238e+01  -2.242979e+01
   1.820355e+01  -1.404843e+01
  -1.288583e+01   3.363819e+00
   3.944070e+00   5.105490e+00
   6.386496e+01  -3.109761e+00
   9.011658e+01   1.721279e+01
   2.517827e+01   7.622801e+01
  -9.646235e+01   1.175729e+02
  -1.772942e+02   7.330991e+01
  -1.504904e+02  -4.695034e+01
  -3.979743e+01  -1.499171e+02
   6.971866e+01  -1.534116e+02
   1.100303e+02  -7.029443e+01
   7.975691e+01   1.403982e+01
   2.796921e+01   3.659724e+01
   2.428773e+00   1.449090e+01
   1.229745e+01   8.798578e+00
   3.001161e+01   4.597667e+01
   2.101797e+01   8.604260e+01
  -2.410358e+01   6.981022e+01
  -7.517653e+01  -1.015194e+01
  -8.159523e+01  -9.216010e+01
  -2.009550e+01  -1.036744e+02
   6.831047e+01  -3.406403e+01
   1.026213e+02   5.618209e+01
   4.243659e+01   9.588718e+01
  -5.832025e+01   6.461697e+01
  -1.000062e+02  -2.474140e+00
  -4.705643e+01  -5.427557e+01
   2.923431e+01  -6.236762e+01
   3.735461e+01  -3.151127e+01
  -2.339355e+01   6.288200e+00
  -6.359201e+01   1.237293e+01
  -1.873237e+01  -2.402904e+01
   7.110004e+01  -6.535129e+01
   1.125516e+02  -5.647551e+01
   6.879517e+01   1.205700e+01
  -8.642867e+00   8.126173e+01
  -5.164902e+01   8.211174e+01
  -4.299791e+01   1.456956e+01
  -9.924893e+00  -5.001745e+01
   2.016101e+01  -4.821510e+01
   3.610758e+01   7.333628e+00
   3.084679e+01   5.007059e+01
   2.217385e+00   3.861039e+01
  -3.195009e+01  -2.341851e+00
  -4.212469e+01  -2.168317e+01
  -2.159295e+01  -3.482763e+00
   3.184114e+00   1.841910e+01
   6.095251e+00   6.558279e+00
  -5.166345e+00  -3.167637e+01
  -7.982380e-01  -5.122443e+01
   2.536596e+01  -2.254163e+01
   4.153701e+01   3.091781e+01
   1.592372e+01   5.588874e+01
  -3.648058e+01   2.652116e+01
  -6.104988e+01  -2.770842e+01
  -2.178588e+01  -5.572627e+01
   5.237166e+01  -3.690188e+01
   8.986526e+01   6.138148e+00
   5.121548e+01   3.896432e+01
  -2.494569e+01   4.584300e+01
  -6.178540e+01   3.120091e+01
  -2.876945e+01   8.266905e+00
   2.560170e+01  -5.670692e+00
   3.176208e+01   2.874237e+00
  -2.065773e+01   2.447307e+01
  -7.331752e+01   2.402914e+01
