
 $NMID
 id='ANONYMOUS ', fmtdat='(2E16.6)'
 volume=1.0
 tramp=1.0
 $END
   4.784047e+03   1.241771e+01
   2.839564e+03   2.905920e+03
  -6.831890e+02   3.184118e+03
  -2.261843e+03   1.028066e+03
  -9.888219e+02  -8.954443e+02
   8.714544e+02  -6.990182e+02
   1.062512e+03   4.836350e+02
   3.770501e+01   1.181840e+03
  -8.911374e+02   8.284831e+02
  -9.857965e+02  -1.400304e+02
  -4.846063e+02  -8.544573e+02
   2.383306e+02  -9.281061e+02
   6.993489e+02  -1.370564e+02
   4.722918e+02   8.539178e+02
  -3.324802e+02   8.552005e+02
  -6.798296e+02  -5.857208e+01
  -3.273875e+02  -7.147902e+02
   3.964615e+02  -7.142368e+02
   6.896810e+02  -7.977249e+01
   4.200924e+02   3.978053e+02
  -1.915140e+01   4.938506e+02
  -2.570391e+02   2.807808e+02
  -2.596389e+02   2.452913e+01
   9.025570e+01  -1.008826e+02
   4.284252e+02   9.966289e+01
   2.505743e+02   4.796970e+02
  -4.738014e+02   4.834640e+02
  -9.264837e+02  -6.688172e+01
  -4.952582e+02  -6.197537e+02
   4.432645e+02  -5.937594e+02
   8.236295e+02   1.781192e+00
   4.143315e+02   5.472479e+02
  -2.674263e+02   5.698640e+02
  -6.077158e+02   2.456890e+02
  -4.646101e+02  -2.363079e+02
  -7.054451e+01  -5.468876e+02
   2.499180e+02  -3.355260e+02
   2.099957e+02   2.432792e+02
  -1.793800e+02   5.201739e+02
  -5.280988e+02   1.626408e+01
  -2.841665e+02  -7.387188e+02
   3.515512e+02  -7.774681e+02
   6.745207e+02  -4.238801e+00
   2.634129e+02   6.023792e+02
  -3.546235e+02   3.574700e+02
  -4.482855e+02  -3.479723e+02
   6.502334e+01  -5.981455e+02
   6.045835e+02  -1.703356e+02
   6.596676e+02   4.191727e+02
   1.959202e+02   6.191239e+02
  -4.020305e+02   3.807267e+02
  -6.815227e+02  -5.887895e+01
  -4.171608e+02  -4.122164e+02
   1.655389e+02  -4.093252e+02
   4.959887e+02  -6.096625e+01
   2.686418e+02   2.359972e+02
  -1.437361e+02   1.338347e+02
  -1.706772e+02  -1.823028e+02
   1.854502e+02  -2.316481e+02
   3.916906e+02   7.397587e+01
   1.556299e+02   3.385256e+02
  -2.202263e+02   2.853774e+02
  -3.378623e+02   6.942971e+01
  -1.863109e+02  -9.001477e+01
   2.707059e+01  -2.173098e+02
   2.152503e+02  -3.304584e+02
   3.572596e+02  -2.375309e+02
   3.337681e+02   1.373038e+02
   9.767297e+01   4.743335e+02
  -1.432569e+02   4.261197e+02
  -1.580597e+02   1.187352e+02
  -2.671093e+01  -3.259263e+01
  -1.764160e+01   7.644474e+01
  -1.809763e+02   1.419449e+02
  -2.920267e+02  -3.946514e+01
  -1.800992e+02  -2.754623e+02
   6.690061e+01  -2.713998e+02
   2.402995e+02  -1.349236e+01
   2.116124e+02   2.532856e+02
  -8.955397e+00   3.133630e+02
  -2.865589e+02   1.312697e+02
  -3.922684e+02  -1.791652e+02
  -2.030241e+02  -3.846885e+02
   1.126886e+02  -3.393415e+02
   2.554235e+02  -1.298562e+02
   1.676185e+02   9.114686e-01
   9.950241e+01  -3.011950e+01
   2.409981e+02  -6.920316e+01
   4.266677e+02   5.800871e+01
   3.630841e+02   3.019915e+02
   8.081741e+00   4.726470e+02
  -3.781882e+02   4.426936e+02
  -5.242640e+02   2.207068e+02
  -3.729686e+02  -9.782253e+01
  -6.849833e+01  -3.201300e+02
   1.479889e+02  -2.844750e+02
   1.043712e+02  -3.836108e+01
  -1.070001e+02   1.259882e+02
  -2.165313e+02   7.968429e+00
  -6.605399e+01  -2.087447e+02
   1.733603e+02  -1.922349e+02
   2.018925e+02   6.340102e+01
  -1.267545e+01   2.124352e+02
  -2.113261e+02   4.274640e+01
  -1.813230e+02  -2.601276e+02
   2.712407e+01  -3.658727e+02
   2.375553e+02  -2.002767e+02
   3.382760e+02   6.241311e+01
   2.957126e+02   2.405610e+02
   1.084535e+02   2.722506e+02
  -1.186203e+02   1.726645e+02
  -1.985924e+02   2.401820e+01
  -7.047682e+01  -4.186181e+01
   8.107603e+01   3.236813e+01
   4.836876e+01   1.337014e+02
  -1.213425e+02   1.139412e+02
  -1.940289e+02  -8.302073e+00
  -7.367787e+01  -7.922770e+01
   7.699737e+01  -2.461877e+01
   6.073005e+01   6.940519e+01
  -1.185459e+02   8.782980e+01
  -2.829634e+02   5.122606e+00
  -2.720627e+02  -1.345554e+02
  -7.145182e+01  -2.606035e+02
   1.825591e+02  -2.800733e+02
   2.968228e+02  -1.436401e+02
   1.862247e+02   5.274202e+01
  -2.251155e+01   1.246545e+02
  -1.023609e+02   1.610540e+01
   2.664424e+01  -1.107036e+02
   2.068600e+02  -7.327171e+01
   2.330587e+02   1.000047e+02
   8.119593e+01   2.194978e+02
  -9.658626e+01   1.744903e+02
  -1.547295e+02   4.099712e+01
  -8.147443e+01  -3.873993e+01
   2.263876e+01  -7.538101e+00
   3.925027e+01   7.859387e+01
  -6.834433e+01   1.159758e+02
  -2.029296e+02   3.601639e+01
  -2.047987e+02  -1.251167e+02
  -2.952973e+01  -2.330138e+02
   1.724970e+02  -1.796210e+02
   2.121369e+02  -7.243702e+00
   7.700547e+01   1.278751e+02
  -6.867080e+01   1.250866e+02
  -9.315906e+01   3.649778e+01
  -2.815880e+01  -2.690441e+01
   1.597264e+01  -2.308691e+01
  -9.802906e+00   1.541526e+00
  -6.756744e+01  -1.278979e+01
  -8.612376e+01  -8.126220e+01
  -1.695278e+01  -1.572152e+02
   1.261665e+02  -1.571943e+02
   2.420664e+02  -3.228843e+01
   2.146443e+02   1.522195e+02
   4.650979e+01   2.508569e+02
  -1.169802e+02   1.818808e+02
  -1.471969e+02   2.947102e+01
  -7.417828e+01  -6.103710e+01
  -2.840124e+01  -4.197235e+01
  -5.367302e+01   9.491876e+00
  -7.950125e+01   5.467815e+00
  -3.865513e+01  -4.856177e+01
   4.551779e+01  -8.364840e+01
   9.950881e+01  -5.153264e+01
   7.968272e+01   3.344906e+01
  -1.565495e+01   1.079055e+02
  -1.404454e+02   8.775580e+01
  -2.006219e+02  -4.623660e+01
  -1.097628e+02  -2.051354e+02
   1.003137e+02  -2.419009e+02
   2.753648e+02  -1.092425e+02
   2.749618e+02   8.477192e+01
   1.225886e+02   1.866655e+02
  -3.792792e+01   1.586298e+02
  -1.011530e+02   9.029681e+01
  -8.660426e+01   7.215486e+01
  -7.087630e+01   9.246384e+01
  -9.407747e+01   7.480072e+01
  -1.310916e+02  -2.226649e+01
  -1.230403e+02  -1.570658e+02
  -3.411183e+01  -2.342061e+02
   1.007878e+02  -1.830314e+02
   1.847368e+02  -2.691161e+01
   1.466974e+02   1.246520e+02
   2.441310e+01   1.685865e+02
  -6.747472e+01   9.997358e+01
  -6.237072e+01   4.012430e+00
  -7.757904e+00  -4.173434e+01
   6.446720e+00  -3.459876e+01
  -4.011362e+01  -1.991450e+01
  -8.150273e+01  -2.565444e+01
  -4.568888e+01  -4.038214e+01
   6.320945e+01  -3.814215e+01
   1.595777e+02  -5.079403e+00
   1.484902e+02   4.789849e+01
   2.101338e+01   8.669934e+01
  -1.193525e+02   7.618779e+01
  -1.476733e+02   1.795276e+01
  -4.950024e+01  -3.750908e+01
   6.228255e+01  -3.628825e+01
   7.718698e+01   2.004677e+01
   4.948569e+00   7.070275e+01
  -5.978749e+01   5.989325e+01
  -6.445787e+01  -2.742715e+00
  -4.364392e+01  -5.262975e+01
  -4.538498e+01  -4.348351e+01
  -6.494979e+01  -1.717586e+00
  -6.799171e+01   4.971412e-01
  -3.362937e+01  -6.911810e+01
   3.458974e+01  -1.497896e+02
   1.162719e+02  -1.445825e+02
   1.640597e+02  -3.329370e+01
   1.255123e+02   9.197012e+01
   9.156129e+00   1.247904e+02
  -8.549013e+01   5.821137e+01
  -6.004267e+01  -1.650301e+01
   6.277880e+01  -1.808047e+01
   1.452664e+02   4.692898e+01
   8.254942e+01   1.105657e+02
  -8.079031e+01   1.169941e+02
  -1.978245e+02   5.834149e+01
  -1.713856e+02  -2.923230e+01
  -4.225546e+01  -8.739542e+01
   6.047006e+01  -7.492600e+01
   4.953990e+01  -1.087416e+01
  -4.056391e+01   2.599303e+01
  -9.331444e+01  -2.496883e+01
  -3.166358e+01  -1.255866e+02
   9.889122e+01  -1.616078e+02
   1.772066e+02  -6.327347e+01
   1.323598e+02   1.082260e+02
   1.027198e+01   2.087210e+02
  -8.819817e+01   1.518842e+02
  -1.076256e+02  -5.632561e+00
  -6.456507e+01  -1.215246e+02
  -2.679438e+00  -1.105192e+02
   4.435037e+01  -2.183331e+01
   5.524961e+01   3.134598e+01
   3.023721e+01   8.483709e+00
   4.789875e+00  -2.105698e+01
   1.898378e+01   1.629119e+01
   5.639883e+01   9.207120e+01
   4.545530e+01   1.131088e+02
  -4.638771e+01   4.625585e+01
  -1.443694e+02  -4.095393e+01
  -1.374498e+02  -7.272960e+01
  -1.873207e+01  -5.062322e+01
   9.354961e+01  -2.319661e+01
   9.334413e+01  -8.760110e+00
   1.035535e+01   7.450520e+00
  -4.143329e+01   2.374930e+01
  -1.429337e+01   1.913597e+01
   2.338000e+01  -1.649955e+00
  -6.754152e+00  -9.124647e+00
  -7.941182e+01  -3.429797e+00
  -9.534579e+01  -2.533655e+01
  -5.734740e+00  -8.534471e+01
   1.263560e+02  -1.196269e+02
   1.924772e+02  -5.893482e+01
   1.437887e+02   7.273981e+01
   2.436864e+01   1.684282e+02
  -8.097899e+01   1.531751e+02
  -1.156244e+02   5.875117e+01
  -8.165864e+01  -2.206653e+01
  -2.515815e+01  -3.522310e+01
   3.305099e+00  -7.835024e+00
  -1.056909e+01  -3.065083e+00
  -3.507546e+01  -4.594365e+01
  -2.470326e+01  -9.269175e+01
   3.003967e+01  -7.457436e+01
   8.460522e+01   1.978387e+01
   7.922168e+01   1.144241e+02
   1.698424e+00   1.172849e+02
  -8.812074e+01   2.175582e+01
  -1.069630e+02  -8.299309e+01
  -3.078222e+01  -1.090087e+02
   7.116207e+01  -5.499245e+01
   1.011255e+02   1.503209e+01
   3.881292e+01   5.141534e+01
  -3.442064e+01   5.007771e+01
  -3.035794e+01   2.699271e+01
   3.825160e+01  -3.808497e-01
   7.341587e+01  -6.236544e+00
   1.546989e+01   2.622791e+01
  -8.173309e+01   6.924818e+01
  -1.178081e+02   6.257350e+01
  -6.408224e+01  -1.064312e+01
   1.676618e+01  -8.502008e+01
   5.340932e+01  -8.144054e+01
   3.640018e+01  -4.780232e+00
   2.018662e-01   5.869650e+01
  -2.772355e+01   4.411836e+01
  -3.866381e+01  -1.987083e+01
  -2.750594e+01  -5.645898e+01
   4.126163e+00  -3.420622e+01
   3.530715e+01   8.515788e+00
   4.062780e+01   2.119007e+01
   2.042404e+01   1.129988e+00
  -9.652882e-02  -1.368898e+01
  -6.130872e+00   4.618781e+00
  -8.206158e+00   3.856425e+01
  -2.047650e+01   4.507692e+01
  -3.429293e+01   4.800383e+00
  -2.756231e+01  -4.937495e+01
   7.198247e+00  -6.330332e+01
   4.746544e+01  -1.855076e+01
   5.555702e+01   4.397770e+01
   1.191933e+01   6.647171e+01
  -5.704123e+01   3.367683e+01
  -9.029526e+01  -1.808019e+01
  -4.962136e+01  -4.605425e+01
   2.988378e+01  -4.081849e+01
   6.633601e+01  -2.056627e+01
   2.330940e+01  -4.999570e+00
  -4.106260e+01  -4.369034e+00
  -4.032077e+01  -1.947941e+01
   3.390893e+01  -3.488888e+01
   9.872127e+01  -2.116658e+01
