
 $NMID
 id='ANONYMOUS ', fmtdat='(2E16.6)'
 volume=1.0
 tramp=1.0
 $END
   1.985727e+03   1.367863e+01
   1.036930e+03   1.154069e+03
  -1.975779e+02   1.406038e+03
  -1.072217e+03   5.169071e+02
  -3.439791e+02  -3.341700e+02
   3.178613e+02  -3.024702e+02
   4.643661e+02   1.612616e+02
  -1.506449e+02   5.246954e+02
  -3.696223e+02   4.333282e+02
  -4.519809e+02   3.814484e+01
  -2.241590e+02  -3.459660e+02
   2.312748e+01  -4.231007e+02
   3.044490e+02  -1.946484e+02
   2.104407e+02   2.558162e+02
  -7.977710e+01   3.610081e+02
  -2.484938e+02   2.457990e+01
  -1.329075e+02  -3.259614e+02
   1.224052e+02  -2.957504e+02
   2.498702e+02  -4.801737e+01
   1.837683e+02   1.735435e+02
   4.477763e+01   1.712493e+02
  -8.584629e+01   1.177791e+02
  -1.159050e+02  -1.558041e+01
   2.407402e+01  -4.477072e+01
   1.829096e+02   1.691816e+01
   1.496850e+02   1.950341e+02
  -1.889848e+02   2.207022e+02
  -3.823095e+02   2.150394e+00
  -2.129329e+02  -2.290086e+02
   1.318283e+02  -2.272266e+02
   3.442710e+02  -1.018185e+01
   1.928420e+02   2.025024e+02
  -9.328342e+01   2.529136e+02
  -2.409130e+02   1.281298e+02
  -2.166910e+02  -9.166313e+01
  -7.093018e+01  -2.242431e+02
   6.576859e+01  -1.462012e+02
   7.901156e+01   8.293690e+01
  -3.940897e+01   2.096645e+02
  -1.977274e+02   2.019329e+01
  -1.313966e+02  -3.092895e+02
   1.260899e+02  -3.377453e+02
   2.922246e+02  -2.864342e+01
   1.519592e+02   2.522508e+02
  -1.234362e+02   1.649527e+02
  -1.970701e+02  -1.206283e+02
   7.648948e+00  -2.463388e+02
   2.443228e+02  -8.171127e+01
   2.856329e+02   1.572802e+02
   1.024251e+02   2.507921e+02
  -1.533580e+02   1.646410e+02
  -2.901749e+02  -1.398701e+01
  -2.001051e+02  -1.654926e+02
   5.178067e+01  -1.829327e+02
   2.158159e+02  -5.520879e+01
   1.382956e+02   7.411071e+01
  -4.497954e+01   5.938845e+01
  -8.289874e+01  -5.822243e+01
   5.754918e+01  -9.791109e+01
   1.657530e+02   1.758737e+00
   9.374950e+01   1.189097e+02
  -6.633228e+01   1.374738e+02
  -1.461568e+02   7.395994e+01
  -1.103865e+02  -1.350850e+01
  -2.442171e+01  -1.110513e+02
   6.741901e+01  -1.806491e+02
   1.413695e+02  -1.331895e+02
   1.465590e+02   3.931389e+01
   6.590865e+01   1.873300e+02
  -2.509284e+01   1.739462e+02
  -4.188464e+01   5.815919e+01
  -1.050134e+01   3.397890e+00
  -1.860440e+01   4.359931e+01
  -8.179575e+01   6.148248e+01
  -1.216143e+02  -1.349312e+01
  -8.154689e+01  -1.065663e+02
   1.381242e+01  -1.119349e+02
   9.263634e+01  -2.067263e+01
   1.049660e+02   8.752108e+01
   2.838453e+01   1.305398e+02
  -1.022684e+02   7.586152e+01
  -1.817358e+02  -4.312953e+01
  -1.240582e+02  -1.421542e+02
   2.066570e+01  -1.444663e+02
   1.037400e+02  -7.347693e+01
   7.188945e+01  -1.431882e+01
   2.792576e+01  -2.419925e+01
   8.482028e+01  -4.795754e+01
   1.803075e+02  -1.103484e+01
   1.797976e+02   9.209225e+01
   3.948467e+01   1.930418e+02
  -1.266415e+02   2.104687e+02
  -1.965790e+02   1.289850e+02
  -1.479735e+02  -1.008555e+01
  -4.287776e+01  -1.261438e+02
   3.246006e+01  -1.239257e+02
   2.574164e+01  -1.722684e+01
  -4.323335e+01   6.298922e+01
  -8.743829e+01   1.777703e+01
  -3.773640e+01  -8.777343e+01
   5.749069e+01  -9.861307e+01
   8.416596e+01   9.798547e+00
   8.248362e+00   9.003858e+01
  -8.444127e+01   3.391460e+01
  -9.590686e+01  -9.854117e+01
  -1.514181e+01  -1.604399e+02
   8.832558e+01  -1.042048e+02
   1.517163e+02   2.628364e+00
   1.422435e+02   8.209716e+01
   6.233627e+01   1.054266e+02
  -3.892044e+01   7.677563e+01
  -7.847882e+01   2.309738e+01
  -2.798063e+01  -7.732450e+00
   3.735211e+01   1.428898e+01
   2.637040e+01   5.392292e+01
  -4.686058e+01   5.203144e+01
  -8.290392e+01   5.843444e+00
  -3.443619e+01  -2.793282e+01
   3.299996e+01  -1.193571e+01
   3.107263e+01   2.760776e+01
  -4.435626e+01   4.425724e+01
  -1.194629e+02   1.912843e+01
  -1.235355e+02  -3.908159e+01
  -4.634633e+01  -1.033532e+02
   5.941793e+01  -1.276003e+02
   1.153080e+02  -7.812698e+01
   8.001386e+01   1.029190e+01
  -3.157287e+00   5.184087e+01
  -4.192262e+01   9.310100e+00
   6.076957e+00  -5.151841e+01
   8.438491e+01  -4.389293e+01
   1.055513e+02   3.000546e+01
   4.917187e+01   8.817432e+01
  -2.756992e+01   7.694333e+01
  -5.984728e+01   2.369575e+01
  -3.443223e+01  -1.121539e+01
   1.062501e+01  -1.375844e+00
   2.251874e+01   3.379870e+01
  -2.072078e+01   5.425865e+01
  -8.243319e+01   2.832000e+01
  -9.350468e+01  -3.833118e+01
  -2.737707e+01  -9.409736e+01
   5.957150e+01  -8.541385e+01
   8.599654e+01  -1.742256e+01
   3.817621e+01   4.646213e+01
  -2.121882e+01   5.461967e+01
  -3.439468e+01   1.947136e+01
  -9.362520e+00  -9.660619e+00
   8.642681e+00  -8.337280e+00
  -4.721599e+00   5.708385e+00
  -3.433236e+01   1.109350e+00
  -4.748207e+01  -3.084382e+01
  -2.071378e+01  -7.034795e+01
   4.388276e+01  -7.861351e+01
   1.020191e+02  -3.090175e+01
   1.025262e+02   4.818213e+01
   3.867154e+01   9.975929e+01
  -3.400593e+01   8.352768e+01
  -5.628106e+01   2.261327e+01
  -3.317909e+01  -1.930139e+01
  -1.320156e+01  -1.360547e+01
  -2.104148e+01   1.025253e+01
  -3.459376e+01   1.130356e+01
  -2.236249e+01  -1.580845e+01
   1.199372e+01  -3.967283e+01
   4.012110e+01  -3.127932e+01
   3.985668e+01   8.558041e+00
   2.239226e+00   5.055007e+01
  -5.733800e+01   5.001992e+01
  -9.356085e+01  -6.705711e+00
  -6.377376e+01  -8.334849e+01
   2.697476e+01  -1.129441e+02
   1.108177e+02  -6.635166e+01
   1.236222e+02   1.560790e+01
   6.509035e+01   6.657495e+01
  -3.769553e+00   6.541959e+01
  -3.384484e+01   4.377212e+01
  -2.770625e+01   3.826523e+01
  -1.995153e+01   4.702103e+01
  -3.297961e+01   4.111753e+01
  -5.752768e+01   2.542159e+00
  -6.475737e+01  -5.593468e+01
  -3.270627e+01  -9.574574e+01
   2.839908e+01  -8.412281e+01
   7.504748e+01  -2.395628e+01
   6.873045e+01   4.307233e+01
   1.961534e+01   6.986453e+01
  -2.332903e+01   4.606746e+01
  -2.569519e+01   3.705408e+00
  -3.548910e+00  -1.918712e+01
   2.945848e+00  -1.507846e+01
  -1.837788e+01  -3.459441e+00
  -3.891844e+01  -2.887565e+00
  -2.476268e+01  -1.333068e+01
   2.367739e+01  -2.118280e+01
   6.805423e+01  -1.349600e+01
   6.596304e+01   1.026003e+01
   1.294743e+01   3.460351e+01
  -4.664300e+01   3.820316e+01
  -6.053873e+01   1.521654e+01
  -2.163348e+01  -1.402213e+01
   2.532614e+01  -1.967380e+01
   3.529702e+01   4.010921e+00
   8.951122e+00   3.096445e+01
  -1.956574e+01   3.120681e+01
  -2.768832e+01   4.936046e+00
  -2.355177e+01  -1.852458e+01
  -2.326681e+01  -1.505004e+01
  -2.801898e+01   4.659642e+00
  -2.990519e+01   6.204296e+00
  -2.176062e+01  -2.638028e+01
   1.948584e+00  -6.673824e+01
   3.918203e+01  -7.069328e+01
   6.891719e+01  -2.652450e+01
   5.977875e+01   3.033600e+01
   9.952360e+00   5.222737e+01
  -3.532995e+01   2.997497e+01
  -2.770264e+01  -4.788132e+00
   2.715112e+01  -1.469511e+01
   6.751874e+01   8.277548e+00
   4.445005e+01   4.160248e+01
  -2.538199e+01   5.651048e+01
  -8.024465e+01   3.919199e+01
  -7.542742e+01  -1.209325e+00
  -2.403390e+01  -3.529954e+01
   2.174500e+01  -3.579097e+01
   2.197720e+01  -5.729123e+00
  -1.501468e+01   1.706026e+01
  -4.314465e+01  -2.063346e+00
  -2.536527e+01  -5.128347e+01
   2.745765e+01  -7.758076e+01
   6.890034e+01  -4.160271e+01
   6.381258e+01   3.530591e+01
   2.007560e+01   8.705523e+01
  -2.615553e+01   6.951221e+01
  -4.617262e+01   3.596816e+00
  -3.547435e+01  -4.802564e+01
  -7.164516e+00  -4.664381e+01
   1.888547e+01  -1.216962e+01
   2.532059e+01   9.307856e+00
   1.200587e+01   1.557823e+00
   4.422339e-01  -8.662482e+00
   1.108477e+01   6.036314e+00
   3.212177e+01   3.483610e+01
   2.686472e+01   4.422619e+01
  -1.809978e+01   2.320959e+01
  -6.484579e+01  -5.901470e+00
  -6.277335e+01  -2.022999e+01
  -1.101346e+01  -2.033136e+01
   3.755309e+01  -1.698664e+01
   3.814883e+01  -1.008112e+01
   4.452324e+00   3.010033e+00
  -1.645167e+01   1.303892e+01
  -5.242768e+00   8.429711e+00
   9.653197e+00  -2.882117e+00
  -3.308977e+00  -3.013002e+00
  -3.450638e+01   5.103123e+00
  -4.420328e+01  -3.726381e+00
  -1.090248e+01  -3.703243e+01
   4.385038e+01  -6.226873e+01
   7.781925e+01  -4.164093e+01
   6.773620e+01   1.862192e+01
   2.400915e+01   6.924819e+01
  -2.236483e+01   7.114812e+01
  -4.454696e+01   3.313767e+01
  -3.593191e+01  -4.290215e+00
  -1.212140e+01  -1.364695e+01
   2.629434e+00  -3.101613e+00
  -3.538328e+00   6.497397e-01
  -1.883092e+01  -1.607781e+01
  -1.884960e+01  -3.727765e+01
   6.499724e+00  -3.435460e+01
   3.821722e+01   1.263256e+00
   4.363171e+01   4.171332e+01
   1.051001e+01   4.966005e+01
  -3.520032e+01   1.708669e+01
  -5.113126e+01  -2.554226e+01
  -2.118532e+01  -4.319118e+01
   2.530880e+01  -2.881302e+01
   4.292185e+01  -9.813997e-01
   1.939591e+01   2.011182e+01
  -1.156830e+01   2.455748e+01
  -1.174441e+01   1.259253e+01
   1.526058e+01  -5.439811e+00
   3.046195e+01  -9.765147e+00
   9.544595e+00   9.926261e+00
  -2.819803e+01   3.560627e+01
  -4.448432e+01   3.483185e+01
  -2.770871e+01  -2.818778e-01
   1.013218e+00  -3.711368e+01
   1.717826e+01  -3.765255e+01
   1.595287e+01  -4.131553e+00
   5.101556e+00   2.499090e+01
  -8.398644e+00   2.097830e+01
  -1.826341e+01  -5.114310e+00
  -1.618706e+01  -2.137312e+01
  -8.237548e-01  -1.434634e+01
   1.582943e+01   1.355208e+00
   1.866166e+01   6.178091e+00
   8.098793e+00  -1.085650e+00
  -2.140796e+00  -6.169751e+00
  -2.684493e+00   1.693590e+00
  -1.232368e-01   1.623859e+01
  -4.471736e+00   2.041451e+01
  -1.399713e+01   5.023643e+00
  -1.571530e+01  -1.834207e+01
  -1.685327e+00  -2.748625e+01
   1.944520e+01  -1.216100e+01
   2.790560e+01   1.426161e+01
   1.048881e+01   2.846398e+01
  -2.199721e+01   2.067220e+01
  -4.054057e+01   5.924524e-01
  -2.550017e+01  -1.578018e+01
   8.758504e+00  -2.045475e+01
   2.621132e+01  -1.435363e+01
   9.696105e+00  -3.519801e+00
  -1.733299e+01   2.082832e+00
  -1.854888e+01  -4.836709e+00
   1.098800e+01  -1.743857e+01
   3.927100e+01  -1.631379e+01
