
 $NMID
 id='ANONYMOUS ', fmtdat='(2E16.6)'
 volume=1.0
 tramp=1.0
 $END
   3.425065e+03  -1.428210e+02
   2.123721e+03   1.979979e+03
  -2.171646e+02   2.275436e+03
  -1.665864e+03   1.103661e+03
  -1.072213e+03   5.397863e+00
   1.372726e+02  -2.384738e+02
   4.281808e+02   2.631527e+02
   2.158476e+01   7.249097e+02
  -4.783969e+02   5.879952e+02
  -7.524217e+02   2.120980e+01
  -4.348066e+02  -5.748031e+02
   2.246581e+01  -6.017908e+02
   3.524943e+02  -1.613961e+02
   2.372470e+02   4.144518e+02
  -1.498497e+02   5.777415e+02
  -4.051442e+02   6.438297e+01
  -2.767104e+02  -4.259944e+02
   1.398104e+02  -5.784306e+02
   4.487321e+02  -2.124519e+02
   3.933933e+02   1.874280e+02
   9.929595e+01   3.238142e+02
  -1.202346e+02   2.535051e+02
  -8.993002e+01   3.226846e+01
   1.667574e+02   2.142689e+01
   3.438028e+02   2.340075e+02
   4.321467e+01   3.808081e+02
  -4.584363e+02   2.274498e+02
  -6.346695e+02  -1.336921e+02
  -2.336965e+02  -3.799236e+02
   3.506953e+02  -2.639101e+02
   5.521296e+02   8.931352e+01
   2.208565e+02   3.857832e+02
  -2.553865e+02   3.853448e+02
  -4.574509e+02   1.625225e+02
  -3.417278e+02  -1.481062e+02
  -8.579979e+01  -3.321990e+02
   6.130967e+01  -2.073842e+02
  -3.076172e+00   1.126043e+02
  -1.800242e+02   1.949789e+02
  -2.345159e+02  -1.230115e+02
  -5.822717e+01  -5.006742e+02
   2.598650e+02  -4.601394e+02
   3.762226e+02  -8.408019e+00
   1.478430e+02   3.484636e+02
  -1.678042e+02   1.737291e+02
  -2.224645e+02  -2.548050e+02
   7.848042e+01  -3.918694e+02
   4.345279e+02  -8.061453e+01
   4.988142e+02   3.495252e+02
   1.676968e+02   4.748688e+02
  -2.899168e+02   2.703702e+02
  -5.101413e+02  -4.772981e+01
  -3.291054e+02  -2.414413e+02
   6.602421e+01  -2.209362e+02
   2.949416e+02  -6.659909e+01
   1.998757e+02   5.059509e+01
  -1.771983e+01   3.229680e+01
  -6.069336e+01  -5.387487e+01
   9.821345e+01  -6.019989e+01
   2.181573e+02   5.325084e+01
   1.140777e+02   1.858098e+02
  -1.350481e+02   2.260781e+02
  -3.040514e+02   1.353878e+02
  -2.527663e+02  -6.565785e+01
  -1.793978e+01  -2.881260e+02
   2.409379e+02  -3.652297e+02
   3.515284e+02  -1.834484e+02
   2.535182e+02   1.439043e+02
   6.175638e+01   3.454865e+02
  -4.467722e+01   2.921480e+02
  -2.236281e+01   1.371549e+02
  -4.380488e-01   8.777878e+01
  -8.852327e+01   1.308572e+02
  -2.210709e+02   8.886836e+01
  -2.429788e+02  -9.025112e+01
  -1.110536e+02  -2.413898e+02
   7.479772e+01  -1.908600e+02
   1.791730e+02   3.148856e+01
   1.378226e+02   2.299903e+02
  -3.228174e+01   2.383826e+02
  -2.267892e+02   6.634281e+01
  -2.946778e+02  -1.560301e+02
  -1.659146e+02  -2.755513e+02
   4.383613e+01  -2.456753e+02
   1.537238e+02  -1.400381e+02
   1.344948e+02  -6.953553e+01
   1.264691e+02  -6.993844e+01
   2.485449e+02  -5.563782e+01
   3.899512e+02   5.922486e+01
   3.259908e+02   2.598388e+02
   1.697375e+01   4.146184e+02
  -3.246265e+02   3.986798e+02
  -4.447247e+02   1.941902e+02
  -2.892592e+02  -7.752883e+01
  -3.673451e+01  -2.372691e+02
   9.019194e+01  -1.899656e+02
   2.047480e+01  -2.959158e+01
  -1.123125e+02   4.893234e+01
  -1.356270e+02  -3.253817e+01
  -1.446395e+01  -1.434788e+02
   1.189240e+02  -1.076263e+02
   1.172684e+02   5.431971e+01
  -2.350992e+01   1.383246e+02
  -1.578989e+02   1.243988e+01
  -1.511102e+02  -2.127657e+02
   4.607886e+00  -3.184065e+02
   2.068109e+02  -2.014222e+02
   3.245791e+02   3.988778e+01
   2.702819e+02   2.252371e+02
   7.705055e+01   2.479049e+02
  -1.095844e+02   1.343928e+02
  -1.440283e+02   9.819344e+00
  -3.427913e+01  -1.514723e+01
   5.820811e+01   5.561156e+01
   1.127691e+01   1.117115e+02
  -1.111295e+02   7.243866e+01
  -1.441170e+02  -1.774600e+01
  -3.753042e+01  -5.117409e+01
   7.580893e+01   7.188578e+00
   4.239461e+01   8.334566e+01
  -1.293461e+02   8.620368e+01
  -2.751299e+02  -5.579634e+00
  -2.432530e+02  -1.412632e+02
  -4.021713e+01  -2.382462e+02
   1.773106e+02  -2.262938e+02
   2.432842e+02  -1.025903e+02
   1.311419e+02   3.902882e+01
  -2.524485e+01   7.882543e+01
  -6.405915e+01  -2.178297e-01
   4.290392e+01  -7.978820e+01
   1.702328e+02  -4.231229e+01
   1.788808e+02   8.731947e+01
   5.799287e+01   1.723270e+02
  -7.896068e+01   1.297833e+02
  -1.168020e+02   1.984502e+01
  -4.544310e+01  -3.479074e+01
   4.021865e+01   1.302631e+01
   3.343212e+01   9.684030e+01
  -7.881605e+01   1.129419e+02
  -1.904730e+02   2.198465e+01
  -1.740950e+02  -1.158080e+02
  -2.041915e+01  -1.915318e+02
   1.379414e+02  -1.433538e+02
   1.624372e+02  -1.427743e+01
   5.610163e+01   8.776433e+01
  -5.405557e+01   9.093690e+01
  -6.632402e+01   2.502762e+01
  -4.880309e+00  -2.430643e+01
   3.363314e+01  -1.123719e+01
  -4.394198e+00   2.481835e+01
  -8.020817e+01   9.331797e+00
  -1.047634e+02  -7.552829e+01
  -2.455226e+01  -1.617664e+02
   1.204693e+02  -1.531569e+02
   2.208206e+02  -2.574503e+01
   1.874657e+02   1.361055e+02
   4.406041e+01   2.096303e+02
  -8.920447e+01   1.507514e+02
  -1.183188e+02   3.083284e+01
  -6.642174e+01  -4.034575e+01
  -2.846352e+01  -2.703444e+01
  -4.820866e+01   1.540044e+01
  -7.915673e+01   1.218879e+01
  -5.411967e+01  -4.727154e+01
   3.077793e+01  -9.745471e+01
   1.082598e+02  -6.885800e+01
   1.004143e+02   3.347677e+01
  -7.042487e+00   1.196818e+02
  -1.435395e+02   9.441201e+01
  -1.941247e+02  -4.823866e+01
  -9.363094e+01  -1.941951e+02
   1.024499e+02  -2.135615e+02
   2.452205e+02  -8.862889e+01
   2.331821e+02   7.447930e+01
   1.002398e+02   1.533465e+02
  -3.210475e+01   1.286359e+02
  -7.927882e+01   7.547307e+01
  -6.226078e+01   6.625045e+01
  -4.933003e+01   8.929527e+01
  -7.792689e+01   7.781257e+01
  -1.196219e+02  -9.296044e+00
  -1.157660e+02  -1.347385e+02
  -3.607998e+01  -2.061763e+02
   8.252069e+01  -1.597330e+02
   1.557319e+02  -2.123076e+01
   1.243776e+02   1.094642e+02
   1.908516e+01   1.439574e+02
  -6.272171e+01   8.031463e+01
  -5.705589e+01  -7.274388e+00
   3.631956e-01  -4.768977e+01
   2.080860e+01  -3.371057e+01
  -2.785271e+01  -9.748500e+00
  -7.979539e+01  -1.250050e+01
  -4.872740e+01  -3.511547e+01
   6.474773e+01  -4.167667e+01
   1.594981e+02  -7.625128e+00
   1.367141e+02   5.137287e+01
   5.856030e+00   9.013678e+01
  -1.190425e+02   7.323880e+01
  -1.336281e+02   1.130891e+01
  -4.357884e+01  -4.271144e+01
   5.295728e+01  -4.058908e+01
   7.228783e+01   1.377669e+01
   2.001505e+01   6.541275e+01
  -3.993034e+01   6.160318e+01
  -6.253630e+01   6.722500e+00
  -5.493764e+01  -4.199737e+01
  -4.738542e+01  -3.758323e+01
  -5.328561e+01  -1.370574e+00
  -6.088052e+01   1.622890e-01
  -4.289533e+01  -6.492115e+01
   1.996836e+01  -1.414208e+02
   1.099581e+02  -1.399518e+02
   1.641540e+02  -3.906763e+01
   1.237034e+02   8.254277e+01
   7.071246e+00   1.236053e+02
  -8.333964e+01   6.733126e+01
  -5.812206e+01  -9.142068e+00
   5.394098e+01  -2.306438e+01
   1.270196e+02   3.272963e+01
   7.036930e+01   9.659914e+01
  -7.336763e+01   1.060413e+02
  -1.742245e+02   5.014892e+01
  -1.476950e+02  -3.052784e+01
  -3.313035e+01  -7.845064e+01
   5.594707e+01  -6.176588e+01
   4.568236e+01  -3.032804e+00
  -3.339831e+01   3.054608e+01
  -8.471630e+01  -1.215527e+01
  -4.289987e+01  -1.032450e+02
   6.331827e+01  -1.466735e+02
   1.401400e+02  -7.236814e+01
   1.212354e+02   7.709036e+01
   2.537314e+01   1.745422e+02
  -6.833891e+01   1.320517e+02
  -9.632027e+01  -5.324705e+00
  -5.605750e+01  -1.068248e+02
   7.566779e+00  -9.457345e+01
   4.623485e+01  -1.612235e+01
   4.230564e+01   2.744425e+01
   1.579198e+01   5.961383e+00
   5.633003e+00  -1.695381e+01
   2.960030e+01   1.730517e+01
   5.686639e+01   8.021595e+01
   3.380401e+01   9.599657e+01
  -4.878909e+01   4.191701e+01
  -1.251832e+02  -2.828230e+01
  -1.156469e+02  -5.773066e+01
  -2.060475e+01  -4.647401e+01
   7.144170e+01  -2.645802e+01
   7.891303e+01  -1.021968e+01
   1.718670e+01   7.915426e+00
  -2.997516e+01   2.070254e+01
  -1.698967e+01   1.374774e+01
   1.365215e+01  -3.398029e+00
  -2.725414e+00  -4.840860e+00
  -6.085961e+01   4.693839e+00
  -8.640895e+01  -1.368190e+01
  -2.426984e+01  -7.164111e+01
   9.146319e+01  -1.132776e+02
   1.669176e+02  -7.112968e+01
   1.403571e+02   4.470310e+01
   3.638639e+01   1.422586e+02
  -6.481458e+01   1.436454e+02
  -1.008108e+02   6.444462e+01
  -7.182087e+01  -1.285017e+01
  -2.445376e+01  -3.125985e+01
  -2.767589e+00  -9.928331e+00
  -1.413090e+01  -6.034780e+00
  -3.154097e+01  -4.257360e+01
  -2.220659e+01  -8.135561e+01
   2.171268e+01  -6.664858e+01
   7.051901e+01   8.814304e+00
   7.674448e+01   8.708368e+01
   1.861994e+01   9.851840e+01
  -6.507200e+01   3.208119e+01
  -9.816912e+01  -5.459866e+01
  -4.160831e+01  -9.230457e+01
   5.431419e+01  -6.164752e+01
   9.486742e+01   2.372357e+00
   4.496927e+01   5.109478e+01
  -2.796492e+01   5.806523e+01
  -3.502876e+01   2.839775e+01
   2.393932e+01  -7.492063e+00
   6.258195e+01  -1.269807e+01
   1.849801e+01   2.333698e+01
  -6.815326e+01   6.436342e+01
  -1.069076e+02   5.665964e+01
  -6.461608e+01  -9.322619e+00
   8.156545e+00  -7.656905e+01
   4.657679e+01  -7.843982e+01
   3.722171e+01  -1.489264e+01
   7.759887e+00   4.598512e+01
  -1.806459e+01   4.454669e+01
  -3.266945e+01  -6.998514e+00
  -2.909563e+01  -4.652634e+01
  -2.998114e+00  -3.564487e+01
   2.951147e+01   2.373103e+00
   3.952797e+01   2.015007e+01
   1.951737e+01   3.438280e+00
  -5.222290e+00  -1.730853e+01
  -8.072520e+00  -7.266189e+00
   3.670598e+00   2.732315e+01
   1.127277e+00   4.563005e+01
  -2.236819e+01   1.955066e+01
  -3.709023e+01  -2.971494e+01
  -1.286690e+01  -5.290305e+01
   3.637270e+01  -2.481710e+01
   5.878626e+01   2.735038e+01
   2.035792e+01   5.462370e+01
  -5.049226e+01   3.661509e+01
  -8.585309e+01  -5.014860e+00
  -4.894067e+01  -3.641314e+01
   2.266335e+01  -4.260480e+01
   5.638914e+01  -2.894567e+01
   2.440478e+01  -8.858287e+00
  -2.626004e+01   2.334048e+00
  -3.012398e+01  -6.225155e+00
   2.110308e+01  -2.546822e+01
   7.120679e+01  -2.349110e+01
