
 $NMID
 id='ANONYMOUS ', fmtdat='(2E16.6)'
 volume=1.0
 tramp=1.0
 $END
  -2.164732e+03   7.991245e+01
  -1.175635e+03  -1.212478e+03
   2.415894e+02  -1.252227e+03
   1.044618e+03  -4.203374e+02
   5.944767e+02   1.759473e+02
  -1.075884e+02   2.162369e+02
  -3.468097e+02  -1.138116e+02
   5.697652e+01  -4.690555e+02
   3.931696e+02  -2.839608e+02
   3.254094e+02   2.115600e+01
   2.832785e+02   3.209962e+02
  -7.264134e+01   4.071777e+02
  -2.312539e+02   7.664908e+01
  -1.275539e+02  -2.988086e+02
   6.647323e+01  -3.090613e+02
   2.477020e+02  -4.710499e+01
   1.499257e+02   2.702477e+02
  -1.171244e+02   3.445442e+02
  -2.837057e+02   1.311056e+02
  -2.400226e+02  -1.294190e+02
  -5.323621e+01  -2.340878e+02
   1.178479e+02  -1.567645e+02
   8.320497e+01  -2.909412e+01
  -8.774964e+01  -1.384363e+00
  -1.768992e+02  -1.006834e+02
  -4.802980e+01  -2.098905e+02
   2.415961e+02  -1.476333e+02
   3.816780e+02   7.882994e+01
   2.075300e+02   2.394238e+02
  -1.581549e+02   1.854022e+02
  -3.521811e+02  -2.672969e+01
  -1.507684e+02  -2.039188e+02
   1.401953e+02  -2.523709e+02
   2.473928e+02  -1.113545e+02
   2.161777e+02   9.470168e+01
   7.790059e+01   1.980437e+02
  -2.178248e+01   1.140593e+02
   4.946114e+00  -6.000111e+01
   9.594428e+01  -1.169287e+02
   1.440348e+02   6.924787e+01
   4.011342e+01   3.091196e+02
  -1.395932e+02   3.010227e+02
  -2.174516e+02   1.441018e+01
  -9.818553e+01  -2.023791e+02
   9.089078e+01  -1.111597e+02
   1.208316e+02   1.471409e+02
  -4.757779e+01   2.363957e+02
  -2.517114e+02   5.788013e+01
  -2.842847e+02  -1.938567e+02
  -1.053018e+02  -2.809078e+02
   1.632746e+02  -1.689904e+02
   3.015420e+02   2.225218e+01
   2.102816e+02   1.508598e+02
  -2.053745e+01   1.505544e+02
  -1.799487e+02   5.327419e+01
  -1.368604e+02  -3.709901e+01
   6.506806e+00  -2.830525e+01
   4.970459e+01   4.635845e+01
  -5.393591e+01   6.792636e+01
  -1.486061e+02  -1.255873e+01
  -8.747528e+01  -1.210371e+02
   8.573192e+01  -1.543024e+02
   1.962194e+02  -8.271064e+01
   1.431203e+02   5.219444e+01
  -1.602950e+01   1.805720e+02
  -1.547506e+02   2.197895e+02
  -1.946242e+02   1.134975e+02
  -1.392850e+02  -8.321052e+01
  -5.217638e+01  -2.175980e+02
   4.697898e+00  -1.972352e+02
   1.572536e+01  -9.491643e+01
   2.403456e+01  -4.575309e+01
   7.022683e+01  -6.181505e+01
   1.312977e+02  -4.543952e+01
   1.421953e+02   5.173275e+01
   6.920413e+01   1.436274e+02
  -4.345145e+01   1.231974e+02
  -1.183709e+02  -4.667736e+00
  -1.015484e+02  -1.286300e+02
   1.107198e+01  -1.525855e+02
   1.459948e+02  -5.554563e+01
   1.929290e+02   8.880218e+01
   1.056328e+02   1.770383e+02
  -3.674838e+01   1.601915e+02
  -1.034857e+02   8.447432e+01
  -7.572889e+01   3.762039e+01
  -6.635369e+01   4.443107e+01
  -1.494867e+02   3.949736e+01
  -2.409309e+02  -3.906145e+01
  -1.984078e+02  -1.648332e+02
   7.657386e-01  -2.536392e+02
   2.115698e+02  -2.354350e+02
   2.763384e+02  -1.141764e+02
   1.762622e+02   4.955836e+01
   2.510650e+01   1.527951e+02
  -4.815426e+01   1.258929e+02
  -1.570763e+01   2.413432e+01
   5.985736e+01  -2.916986e+01
   7.817931e+01   1.342969e+01
   1.167023e+01   8.438092e+01
  -6.790562e+01   6.978984e+01
  -6.897514e+01  -2.744795e+01
   1.188196e+01  -8.113358e+01
   9.464709e+01  -9.535336e+00
   9.461449e+01   1.279986e+02
   6.463225e-01   1.947147e+02
  -1.283846e+02   1.272748e+02
  -2.036467e+02  -1.982398e+01
  -1.697492e+02  -1.368301e+02
  -4.709881e+01  -1.553919e+02
   6.927929e+01  -8.782146e+01
   8.917565e+01  -9.175323e+00
   2.093944e+01   9.709669e+00
  -3.439735e+01  -3.163139e+01
  -3.458145e+00  -6.835123e+01
   7.061078e+01  -4.694386e+01
   8.827093e+01   9.342056e+00
   2.177775e+01   3.473826e+01
  -4.693671e+01   2.539816e+00
  -2.756597e+01  -4.768464e+01
   7.631718e+01  -5.825688e+01
   1.681156e+02  -6.590466e+00
   1.549112e+02   8.139853e+01
   3.366816e+01   1.510685e+02
  -1.044725e+02   1.494401e+02
  -1.523328e+02   7.093602e+01
  -8.603364e+01  -2.235163e+01
   1.251119e+01  -4.892004e+01
   3.821421e+01   1.610911e+00
  -2.857875e+01   5.210905e+01
  -1.085445e+02   2.741176e+01
  -1.138021e+02  -5.489114e+01
  -3.971764e+01  -1.087238e+02
   4.465010e+01  -8.332941e+01
   7.019105e+01  -1.598276e+01
   2.954083e+01   1.903818e+01
  -2.330435e+01  -8.585645e+00
  -2.207221e+01  -6.103183e+01
   4.676286e+01  -7.480633e+01
   1.199557e+02  -2.113924e+01
   1.145639e+02   6.745869e+01
   1.883780e+01   1.207300e+02
  -8.368449e+01   9.426970e+01
  -1.015770e+02   1.271237e+01
  -3.519471e+01  -5.248744e+01
   3.324245e+01  -5.574199e+01
   3.959195e+01  -1.599473e+01
   8.151028e-01   1.298712e+01
  -2.095991e+01   5.328724e+00
   5.225764e+00  -1.353239e+01
   5.108617e+01  -1.182464e+00
   6.231263e+01   5.044382e+01
   1.034972e+01   1.005597e+02
  -7.936547e+01   9.304313e+01
  -1.390998e+02   1.339559e+01
  -1.168771e+02  -8.669672e+01
  -2.755151e+01  -1.332773e+02
   5.497245e+01  -9.597742e+01
   7.366050e+01  -1.995932e+01
   4.431347e+01   2.408659e+01
   1.983508e+01   1.482154e+01
   3.007964e+01  -9.364687e+00
   4.899101e+01  -6.364020e+00
   3.356298e+01   3.030937e+01
  -1.928143e+01   6.034180e+01
  -6.630428e+01   4.176230e+01
  -6.175288e+01  -2.121288e+01
   5.507064e+00  -7.380365e+01
   9.043637e+01  -5.633131e+01
   1.208729e+02   3.166351e+01
   5.547140e+01   1.209822e+02
  -6.572835e+01   1.326960e+02
  -1.527779e+02   5.509973e+01
  -1.440401e+02  -4.568269e+01
  -6.253642e+01  -9.544953e+01
   1.791557e+01  -8.119981e+01
   4.732107e+01  -4.901741e+01
   3.706722e+01  -4.289424e+01
   3.047870e+01  -5.849411e+01
   5.034706e+01  -5.212105e+01
   7.900827e+01   3.160768e+00
   7.745117e+01   8.407944e+01
   2.594436e+01   1.312133e+02
  -5.199931e+01   1.018893e+02
  -9.920368e+01   1.306728e+01
  -7.750514e+01  -6.969775e+01
  -9.008936e+00  -8.986687e+01
   4.215580e+01  -4.813902e+01
   3.681560e+01   6.968517e+00
  -2.016998e-01   3.122562e+01
  -1.328372e+01   2.144223e+01
   1.632958e+01   6.398816e+00
   4.762088e+01   8.021565e+00
   2.870580e+01   2.163458e+01
  -3.978163e+01   2.528026e+01
  -9.726009e+01   4.750492e+00
  -8.366803e+01  -3.128159e+01
  -3.660111e+00  -5.583788e+01
   7.352360e+01  -4.622200e+01
   8.283623e+01  -7.114189e+00
   2.662719e+01   2.861032e+01
  -3.408880e+01   2.776677e+01
  -4.619117e+01  -9.106883e+00
  -1.240390e+01  -4.415678e+01
   2.620098e+01  -4.088268e+01
   4.040113e+01  -2.713902e+00
   3.472195e+01   2.947667e+01
   2.834376e+01   2.426501e+01
   3.136014e+01  -1.963025e+00
   3.712778e+01  -3.018537e+00
   2.816616e+01   4.021829e+01
  -9.171696e+00   8.967287e+01
  -6.513230e+01   8.789818e+01
  -1.005297e+02   2.415460e+01
  -7.718574e+01  -4.959817e+01
  -5.973970e+00  -7.256927e+01
   4.941518e+01  -3.800196e+01
   3.404059e+01   6.756473e+00
  -3.516934e+01   1.351885e+01
  -8.090490e+01  -2.119021e+01
  -4.677404e+01  -6.034541e+01
   4.271686e+01  -6.719309e+01
   1.071377e+02  -3.358452e+01
   9.183095e+01   1.698126e+01
   2.049903e+01   4.756577e+01
  -3.508350e+01   3.647785e+01
  -2.706931e+01  -6.320228e-01
   2.511046e+01  -1.992954e+01
   5.669126e+01   9.834482e+00
   2.575873e+01   6.826725e+01
  -4.419428e+01   9.371288e+01
  -9.078486e+01   4.419965e+01
  -7.460686e+01  -5.078255e+01
  -1.338675e+01  -1.105542e+02
   4.273599e+01  -8.198581e+01
   5.830461e+01   4.434451e+00
   3.451080e+01   6.676729e+01
  -3.535168e+00   5.784938e+01
  -2.850191e+01   9.037004e+00
  -2.768164e+01  -1.711245e+01
  -1.052658e+01  -3.167601e+00
  -2.044696e+00   1.056028e+01
  -1.701654e+01  -1.152326e+01
  -3.622020e+01  -5.053934e+01
  -2.277586e+01  -5.981894e+01
   3.093760e+01  -2.599190e+01
   8.068552e+01   1.754973e+01
   7.354995e+01   3.641606e+01
   1.094597e+01   3.006005e+01
  -4.732096e+01   1.695189e+01
  -4.920408e+01   5.452295e+00
  -7.771702e+00  -6.246197e+00
   2.098693e+01  -1.275747e+01
   1.009531e+01  -6.758851e+00
  -1.009693e+01   3.538579e+00
   1.983423e+00   2.989005e+00
   4.041220e+01  -2.747126e+00
   5.529888e+01   1.121646e+01
   1.283098e+01   4.921235e+01
  -6.188506e+01   7.405054e+01
  -1.087077e+02   4.383604e+01
  -9.027027e+01  -3.159676e+01
  -2.389065e+01  -9.323050e+01
   4.013322e+01  -9.287277e+01
   6.406257e+01  -4.157671e+01
   4.727257e+01   8.113356e+00
   1.740285e+01   1.994056e+01
   2.264137e+00   6.134522e+00
   8.556512e+00   3.436951e+00
   2.034348e+01   2.717002e+01
   1.482932e+01   5.290323e+01
  -1.449988e+01   4.348624e+01
  -4.752427e+01  -5.987658e+00
  -5.065519e+01  -5.713230e+01
  -1.028124e+01  -6.399698e+01
   4.511582e+01  -1.995808e+01
   6.406457e+01   3.615003e+01
   2.464821e+01   5.929765e+01
  -3.708540e+01   3.862944e+01
  -6.041215e+01  -1.784340e+00
  -2.683722e+01  -3.114640e+01
   1.814255e+01  -3.463596e+01
   2.032426e+01  -1.669368e+01
  -1.761300e+01   4.338734e+00
  -4.093697e+01   6.476407e+00
  -1.215776e+01  -1.655846e+01
   4.256842e+01  -4.214649e+01
   6.774837e+01  -3.632169e+01
   4.196089e+01   6.914079e+00
  -4.242333e+00   5.026887e+01
  -3.065489e+01   4.985260e+01
  -2.636040e+01   7.277635e+00
  -6.518135e+00  -3.192239e+01
   1.319846e+01  -2.907473e+01
   2.360359e+01   5.850252e+00
   1.891907e+01   3.089565e+01
  -2.603415e-01   2.226652e+01
  -2.043343e+01  -3.108996e+00
  -2.435321e+01  -1.338090e+01
  -1.051224e+01  -8.690813e-01
   2.992689e+00   1.236513e+01
   2.614643e+00   4.262746e+00
  -4.242726e+00  -1.957732e+01
   4.803839e-02  -3.094836e+01
   1.622744e+01  -1.280743e+01
   2.423387e+01   2.016155e+01
   7.169201e+00   3.431012e+01
  -2.408290e+01   1.509024e+01
  -3.730723e+01  -1.882831e+01
  -1.241417e+01  -3.579034e+01
   3.274054e+01  -2.367653e+01
   5.547802e+01   3.187153e+00
   3.197328e+01   2.353327e+01
  -1.463091e+01   2.791891e+01
  -3.736504e+01   1.871731e+01
  -1.651036e+01   4.670957e+00
   1.786436e+01  -3.123546e+00
   2.144721e+01   3.472042e+00
  -1.249234e+01   1.712259e+01
  -4.639384e+01   1.585728e+01
