
 $NMID
 id='ANONYMOUS ', fmtdat='(2E16.6)'
 volume=1.0
 tramp=1.0
 $END
  -4.391585e+03   9.442487e+00
  -2.633660e+03  -2.568756e+03
   6.030392e+02  -2.862832e+03
   1.992649e+03  -7.918837e+02
   1.101459e+03   4.927165e+02
  -8.295316e+02   5.146202e+02
  -1.041248e+03  -5.730402e+02
   7.369363e+01  -1.078754e+03
   8.383741e+02  -7.797748e+02
   9.207660e+02   7.727136e+01
   5.326796e+02   9.429927e+02
  -2.342106e+02   8.849413e+02
  -6.581791e+02   7.865639e+01
  -3.795114e+02  -6.697735e+02
   3.413444e+02  -8.201179e+02
   6.626070e+02   1.813696e+01
   3.106238e+02   7.514642e+02
  -3.706993e+02   6.792039e+02
  -5.790669e+02   9.560207e+01
  -3.834291e+02  -3.693428e+02
   4.900815e+00  -4.593856e+02
   2.857377e+02  -2.616612e+02
   2.464825e+02  -9.619968e+00
  -1.052124e+02   7.669701e+01
  -4.501278e+02  -1.064375e+02
  -2.059953e+02  -4.629836e+02
   4.948377e+02  -4.513313e+02
   9.052867e+02   8.823546e+01
   4.615862e+02   6.165661e+02
  -4.328607e+02   5.281681e+02
  -8.313876e+02  -4.637162e+01
  -3.799407e+02  -4.962087e+02
   3.142412e+02  -5.768255e+02
   6.227184e+02  -1.979849e+02
   4.495290e+02   2.574936e+02
   6.328030e+01   5.140460e+02
  -2.646129e+02   2.975034e+02
  -2.281378e+02  -2.474738e+02
   1.966960e+02  -4.961794e+02
   5.228751e+02   1.136229e+01
   2.855102e+02   7.592520e+02
  -3.659594e+02   7.646680e+02
  -6.794317e+02  -2.027388e+01
  -2.725685e+02  -6.294654e+02
   3.384695e+02  -3.527356e+02
   4.278081e+02   3.660234e+02
  -7.649775e+01   6.048038e+02
  -5.929993e+02   1.476026e+02
  -6.244238e+02  -4.307260e+02
  -1.726969e+02  -6.213294e+02
   3.949843e+02  -3.775348e+02
   6.598576e+02   7.095845e+01
   3.916416e+02   4.097084e+02
  -1.710469e+02   3.914026e+02
  -4.734189e+02   5.281876e+01
  -2.487929e+02  -2.259391e+02
   1.361803e+02  -1.220779e+02
   1.543674e+02   1.701282e+02
  -1.778158e+02   1.975183e+02
  -3.596445e+02  -9.616652e+01
  -1.310925e+02  -3.268445e+02
   2.203939e+02  -2.554113e+02
   3.278728e+02  -5.252726e+01
   1.847448e+02   8.651254e+01
  -1.727096e+01   2.069628e+02
  -2.002930e+02   3.257142e+02
  -3.402229e+02   2.403310e+02
  -3.199907e+02  -1.280034e+02
  -9.671745e+01  -4.574178e+02
   1.268146e+02  -4.087511e+02
   1.375134e+02  -1.130791e+02
   2.303180e+01   2.359545e+01
   3.397939e+01  -8.783156e+01
   1.982236e+02  -1.436062e+02
   2.905297e+02   4.671594e+01
   1.653407e+02   2.772069e+02
  -7.285384e+01   2.668833e+02
  -2.345253e+02   1.844580e+01
  -2.127978e+02  -2.434931e+02
  -7.613079e+00  -3.079909e+02
   2.669294e+02  -1.375404e+02
   3.820739e+02   1.561514e+02
   2.078337e+02   3.601128e+02
  -1.030872e+02   3.208239e+02
  -2.433553e+02   1.173151e+02
  -1.525721e+02  -1.259081e+01
  -8.507245e+01   2.643636e+01
  -2.224352e+02   7.284803e+01
  -4.015421e+02  -4.215094e+01
  -3.412976e+02  -2.807728e+02
  -8.999682e+00  -4.469085e+02
   3.532741e+02  -4.232411e+02
   4.940622e+02  -2.150666e+02
   3.513293e+02   8.752829e+01
   6.333613e+01   3.072501e+02
  -1.365421e+02   2.694159e+02
  -9.971016e+01   2.871167e+01
   1.124410e+02  -1.223744e+02
   2.151077e+02   8.059571e-01
   5.915991e+01   2.070866e+02
  -1.749282e+02   1.838852e+02
  -1.961056e+02  -6.400516e+01
   1.531310e+01  -2.048275e+02
   2.033116e+02  -3.531119e+01
   1.691685e+02   2.509751e+02
  -3.047270e+01   3.482354e+02
  -2.262119e+02   1.903130e+02
  -3.229719e+02  -5.755585e+01
  -2.855683e+02  -2.294604e+02
  -1.080600e+02  -2.652619e+02
   1.116327e+02  -1.736596e+02
   1.889599e+02  -2.979035e+01
   6.697447e+01   3.742761e+01
  -7.501302e+01  -3.008885e+01
  -3.826744e+01  -1.275109e+02
   1.255785e+02  -1.131151e+02
   1.898378e+02   2.384345e+00
   6.875084e+01   7.507914e+01
  -7.716993e+01   2.857305e+01
  -6.076906e+01  -6.145609e+01
   1.119911e+02  -8.547241e+01
   2.738732e+02  -1.194340e+01
   2.697972e+02   1.236310e+02
   7.824551e+01   2.501675e+02
  -1.724013e+02   2.724429e+02
  -2.902386e+02   1.414331e+02
  -1.848765e+02  -4.903069e+01
   2.164159e+01  -1.190167e+02
   1.027564e+02  -1.405495e+01
  -2.244741e+01   1.081833e+02
  -1.989607e+02   7.231356e+01
  -2.267049e+02  -9.577162e+01
  -8.114824e+01  -2.127808e+02
   9.143536e+01  -1.693461e+02
   1.497008e+02  -3.750982e+01
   7.972543e+01   4.263423e+01
  -2.374451e+01   1.282035e+01
  -4.407357e+01  -7.371068e+01
   5.915662e+01  -1.134177e+02
   1.918438e+02  -3.899471e+01
   1.968734e+02   1.142037e+02
   2.945369e+01   2.184726e+02
  -1.641496e+02   1.702602e+02
  -2.004945e+02   1.018000e+01
  -7.023652e+01  -1.166431e+02
   6.667310e+01  -1.177371e+02
   8.719664e+01  -3.701940e+01
   2.446483e+01   2.395386e+01
  -1.509007e+01   2.357386e+01
   1.237652e+01   3.148138e-01
   6.701129e+01   1.181166e+01
   8.336962e+01   7.638003e+01
   1.652728e+01   1.539459e+02
  -1.202156e+02   1.573462e+02
  -2.323663e+02   3.663218e+01
  -2.077379e+02  -1.448287e+02
  -4.777288e+01  -2.420390e+02
   1.082354e+02  -1.766674e+02
   1.371561e+02  -2.772864e+01
   7.155039e+01   5.924609e+01
   2.701635e+01   3.790716e+01
   5.195056e+01  -1.033709e+01
   7.569908e+01  -6.658910e+00
   3.761041e+01   4.426412e+01
  -4.153338e+01   8.004362e+01
  -9.543533e+01   5.242148e+01
  -8.070420e+01  -3.092312e+01
   9.632747e+00  -1.051479e+02
   1.357621e+02  -8.992666e+01
   1.987219e+02   3.982285e+01
   1.116429e+02   1.959269e+02
  -9.491825e+01   2.358126e+02
  -2.644348e+02   1.101535e+02
  -2.639307e+02  -7.700188e+01
  -1.183911e+02  -1.773657e+02
   3.299401e+01  -1.531037e+02
   9.427513e+01  -8.951901e+01
   8.186321e+01  -7.056633e+01
   6.756344e+01  -8.833589e+01
   9.009613e+01  -7.288032e+01
   1.259516e+02   1.901748e+01
   1.202174e+02   1.485339e+02
   3.664294e+01   2.234727e+02
  -9.345942e+01   1.766200e+02
  -1.766958e+02   2.911247e+01
  -1.428279e+02  -1.157838e+02
  -2.681117e+01  -1.601283e+02
   6.228857e+01  -9.795798e+01
   5.989682e+01  -7.286776e+00
   9.552457e+00   3.879500e+01
  -4.623081e+00   3.488691e+01
   3.732823e+01   2.069348e+01
   7.505857e+01   2.305507e+01
   4.186858e+01   3.513609e+01
  -5.905029e+01   3.428289e+01
  -1.493239e+02   5.443395e+00
  -1.401704e+02  -4.448986e+01
  -2.060544e+01  -8.309263e+01
   1.136899e+02  -7.406811e+01
   1.433123e+02  -1.781747e+01
   5.069162e+01   3.661329e+01
  -5.806159e+01   3.696565e+01
  -7.476971e+01  -1.537084e+01
  -7.061881e+00  -6.328793e+01
   5.473892e+01  -5.519484e+01
   6.005034e+01   4.049179e-01
   4.081698e+01   4.676355e+01
   4.324941e+01   4.039619e+01
   6.301115e+01   3.560309e+00
   6.572425e+01   2.189820e+00
   3.172807e+01   6.648546e+01
  -3.500012e+01   1.420241e+02
  -1.139134e+02   1.376979e+02
  -1.587114e+02   3.207281e+01
  -1.187237e+02  -8.928366e+01
  -5.545368e+00  -1.225663e+02
   8.442033e+01  -5.848634e+01
   5.777647e+01   1.649577e+01
  -6.008306e+01   2.105991e+01
  -1.379271e+02  -4.108694e+01
  -7.792138e+01  -1.044426e+02
   7.676680e+01  -1.128029e+02
   1.874235e+02  -5.737473e+01
   1.625250e+02   2.736939e+01
   4.098131e+01   8.486487e+01
  -5.730470e+01   7.263675e+01
  -4.807466e+01   1.002146e+01
   3.842516e+01  -2.614174e+01
   9.138488e+01   2.283247e+01
   3.449477e+01   1.204523e+02
  -9.190675e+01   1.565784e+02
  -1.706472e+02   6.329258e+01
  -1.303561e+02  -1.008806e+02
  -1.274515e+01  -1.986398e+02
   8.394147e+01  -1.468450e+02
   1.042128e+02   2.248740e+00
   6.373454e+01   1.143217e+02
   4.465235e+00   1.064904e+02
  -4.099877e+01   2.311378e+01
  -5.231851e+01  -2.854745e+01
  -2.944279e+01  -7.738991e+00
  -5.305616e+00   2.146950e+01
  -1.890661e+01  -1.304164e+01
  -5.514148e+01  -8.679894e+01
  -4.512844e+01  -1.093922e+02
   4.332816e+01  -4.654103e+01
   1.382028e+02   3.755183e+01
   1.324664e+02   6.876626e+01
   1.900793e+01   4.784772e+01
  -8.848401e+01   2.250013e+01
  -8.847291e+01   1.024874e+01
  -9.862707e+00  -5.137763e+00
   3.866501e+01  -2.294920e+01
   1.229406e+01  -2.082282e+01
  -2.249988e+01  -5.306752e-01
   7.702475e+00   8.784005e+00
   7.761796e+01   4.328096e+00
   9.242386e+01   2.448745e+01
   6.515831e+00   8.137206e+01
  -1.198279e+02   1.152080e+02
  -1.838708e+02   5.838508e+01
  -1.389931e+02  -6.768523e+01
  -2.587525e+01  -1.607886e+02
   7.576832e+01  -1.475255e+02
   1.109963e+02  -5.800194e+01
   7.957253e+01   1.914440e+01
   2.495359e+01   3.226769e+01
  -3.324807e+00   7.275750e+00
   1.022762e+01   3.572601e+00
   3.514112e+01   4.450282e+01
   2.568882e+01   8.840833e+01
  -2.759313e+01   7.097408e+01
  -8.100044e+01  -1.829421e+01
  -7.634537e+01  -1.082473e+02
  -1.879592e+00  -1.117255e+02
   8.431260e+01  -2.157715e+01
   1.025223e+02   7.833844e+01
   3.026482e+01   1.041472e+02
  -6.675745e+01   5.385642e+01
  -9.614121e+01  -1.283173e+01
  -3.775720e+01  -4.871224e+01
   3.193556e+01  -4.949179e+01
   2.906501e+01  -2.832157e+01
  -3.518455e+01  -9.356972e-01
  -6.836386e+01   7.275399e+00
  -1.338246e+01  -2.271815e+01
   7.879629e+01  -6.503479e+01
   1.128647e+02  -6.070078e+01
   6.102816e+01   9.071360e+00
  -1.547709e+01   8.198544e+01
  -4.993951e+01   7.977769e+01
  -3.442986e+01   6.010770e+00
  -1.667959e+00  -5.554179e+01
   2.414050e+01  -4.204372e+01
   3.596757e+01   1.867079e+01
   2.779823e+01   5.304906e+01
  -1.500128e+00   3.150749e+01
  -3.306902e+01  -7.973217e+00
  -4.038867e+01  -1.857465e+01
  -2.162110e+01   3.465767e-01
  -4.527061e-01   1.236522e+01
   6.795209e+00  -6.242487e+00
   9.061650e+00  -3.768577e+01
   2.020781e+01  -4.226832e+01
   3.326594e+01  -3.929631e+00
   2.665505e+01   4.686078e+01
  -6.962703e+00   6.030178e+01
  -4.596351e+01   1.863977e+01
  -5.407308e+01  -4.074918e+01
  -1.238222e+01  -6.360724e+01
   5.411414e+01  -3.401333e+01
   8.715755e+01   1.533244e+01
   4.926827e+01   4.351470e+01
  -2.689605e+01   4.007637e+01
  -6.317749e+01   2.149703e+01
  -2.353361e+01   6.390316e+00
   3.742351e+01   4.552416e+00
   3.692008e+01   1.742389e+01
  -3.324840e+01   3.172770e+01
  -9.440834e+01   1.938619e+01
