
 $NMID
 id='ANONYMOUS ', fmtdat='(2E16.6)'
 volume=1.0
 tramp=1.0
 $END
   3.543369e+03  -2.706778e+01
   2.346222e+03   2.439116e+03
  -5.144047e+02   2.405108e+03
  -1.690338e+03   1.000254e+03
  -1.055523e+03  -5.537608e+02
   4.446049e+02  -5.214851e+02
   6.799094e+02   2.817636e+02
   9.269986e+01   9.525999e+02
  -6.766525e+02   6.580207e+02
  -8.463060e+02  -9.743829e+01
  -5.370773e+02  -7.081631e+02
   1.846988e+02  -7.376996e+02
   5.569925e+02  -1.199918e+02
   3.647746e+02   5.854704e+02
  -2.715753e+02   6.677684e+02
  -5.568623e+02   2.767337e+01
  -3.644783e+02  -5.810519e+02
   1.992572e+02  -6.733568e+02
   5.933225e+02  -1.746885e+02
   4.478464e+02   3.231242e+02
   8.872867e+01   4.391952e+02
  -1.868118e+02   2.846748e+02
  -1.969458e+02   1.895825e+01
   9.903611e+01  -2.532635e+01
   2.880347e+02   1.404789e+02
   1.521225e+02   3.388156e+02
  -3.859500e+02   3.017209e+02
  -7.002453e+02  -7.379279e+01
  -3.491816e+02  -4.490050e+02
   3.206660e+02  -3.848382e+02
   6.123635e+02   1.137009e+01
   3.123144e+02   4.071983e+02
  -1.978546e+02   4.421228e+02
  -4.569121e+02   2.169627e+02
  -3.760549e+02  -1.727436e+02
  -1.006774e+02  -3.898798e+02
   1.261591e+02  -2.548234e+02
   1.248268e+02   1.701343e+02
  -1.303220e+02   3.485301e+02
  -3.500559e+02  -3.116702e+01
  -1.658325e+02  -5.608266e+02
   2.536019e+02  -5.469870e+02
   4.661432e+02  -4.365853e+00
   1.945038e+02   4.249497e+02
  -2.256058e+02   2.269374e+02
  -2.974006e+02  -2.795502e+02
   5.268234e+01  -4.496858e+02
   4.586101e+02  -1.114515e+02
   5.242407e+02   3.462667e+02
   1.713485e+02   5.058398e+02
  -3.069311e+02   3.092234e+02
  -5.482557e+02  -4.316344e+01
  -3.565043e+02  -3.083839e+02
   8.975319e+01  -3.096601e+02
   3.637059e+02  -7.826716e+01
   2.283178e+02   1.293152e+02
  -7.006494e+01   8.815845e+01
  -1.180260e+02  -1.031253e+02
   1.259436e+02  -1.489621e+02
   2.989704e+02   3.904154e+01
   1.438335e+02   2.399302e+02
  -1.716676e+02   2.484071e+02
  -3.178510e+02   9.712620e+01
  -2.011047e+02  -8.444051e+01
   3.062069e+01  -2.416443e+02
   2.246848e+02  -3.139947e+02
   3.120332e+02  -1.877201e+02
   2.582854e+02   1.247012e+02
   9.105146e+01   3.763343e+02
  -5.910689e+01   3.504476e+02
  -8.555664e+01   1.452317e+02
  -4.756438e+01   3.206679e+01
  -8.056026e+01   7.567194e+01
  -1.866520e+02   8.598913e+01
  -2.303690e+02  -5.932351e+01
  -1.266400e+02  -2.255545e+02
   5.520960e+01  -2.124689e+02
   1.856042e+02  -1.092664e+01
   1.709761e+02   2.037432e+02
   7.543522e-01   2.571202e+02
  -2.323748e+02   1.109648e+02
  -3.320947e+02  -1.383112e+02
  -1.838715e+02  -3.067717e+02
   7.315434e+01  -2.802845e+02
   1.987896e+02  -1.312628e+02
   1.441863e+02  -2.980203e+01
   1.017401e+02  -4.359616e+01
   2.252421e+02  -5.528274e+01
   3.719367e+02   6.083566e+01
   3.084165e+02   2.590705e+02
   1.999869e+00   4.027186e+02
  -3.246213e+02   3.787492e+02
  -4.384813e+02   1.855451e+02
  -2.959799e+02  -7.814205e+01
  -5.030909e+01  -2.553256e+02
   1.052451e+02  -2.227272e+02
   6.210339e+01  -3.378855e+01
  -8.873669e+01   8.857105e+01
  -1.609242e+02   3.439578e+00
  -4.980650e+01  -1.558373e+02
   1.176192e+02  -1.461986e+02
   1.437882e+02   4.093317e+01
  -7.162816e+00   1.582875e+02
  -1.628309e+02   3.058446e+01
  -1.554399e+02  -2.186468e+02
   1.206979e+01  -3.214358e+02
   2.056023e+02  -1.881731e+02
   3.070612e+02   5.141301e+01
   2.584501e+02   2.193565e+02
   8.311238e+01   2.373361e+02
  -1.020397e+02   1.373181e+02
  -1.516663e+02   1.587972e+01
  -4.643908e+01  -2.243380e+01
   6.021819e+01   4.177582e+01
   2.335935e+01   1.112904e+02
  -1.065398e+02   8.647459e+01
  -1.531198e+02  -7.740910e+00
  -5.070203e+01  -5.658703e+01
   6.920349e+01  -8.353190e+00
   4.754873e+01   6.932709e+01
  -1.140206e+02   8.173758e+01
  -2.605688e+02   2.458014e+00
  -2.441712e+02  -1.265815e+02
  -5.664224e+01  -2.315639e+02
   1.654172e+02  -2.355088e+02
   2.517021e+02  -1.157278e+02
   1.494233e+02   3.972490e+01
  -1.951400e+01   9.165967e+01
  -7.509960e+01   6.971107e+00
   3.184887e+01  -8.647224e+01
   1.718476e+02  -5.180393e+01
   1.886742e+02   8.723404e+01
   6.637762e+01   1.814786e+02
  -7.621398e+01   1.415630e+02
  -1.221186e+02   2.993917e+01
  -5.999847e+01  -3.152685e+01
   2.370147e+01   4.692007e+00
   2.823259e+01   8.161579e+01
  -6.999611e+01   1.049916e+02
  -1.807746e+02   2.666596e+01
  -1.751544e+02  -1.100010e+02
  -2.660934e+01  -1.964072e+02
   1.386525e+02  -1.536227e+02
   1.717442e+02  -1.746556e+01
   6.500547e+01   9.310594e+01
  -5.053699e+01   9.781169e+01
  -6.767669e+01   3.063902e+01
  -1.201006e+01  -1.882967e+01
   2.225459e+01  -1.145204e+01
  -1.035666e+01   1.314204e+01
  -7.106754e+01  -4.985548e+00
  -8.608232e+01  -7.734267e+01
  -1.415234e+01  -1.494289e+02
   1.182502e+02  -1.423005e+02
   2.143958e+02  -2.394278e+01
   1.843841e+02   1.359405e+02
   4.180156e+01   2.142289e+02
  -9.277033e+01   1.555538e+02
  -1.207349e+02   2.902143e+01
  -6.546855e+01  -4.565722e+01
  -2.965618e+01  -3.007900e+01
  -5.121769e+01   1.274013e+01
  -7.722890e+01   6.754269e+00
  -4.233370e+01  -4.782408e+01
   3.907945e+01  -8.633493e+01
   1.008421e+02  -5.490228e+01
   8.450995e+01   3.389227e+01
  -1.376397e+01   1.062983e+02
  -1.344899e+02   8.041333e+01
  -1.802858e+02  -4.612920e+01
  -8.970742e+01  -1.823359e+02
   9.570483e+01  -2.057519e+02
   2.374426e+02  -8.888106e+01
   2.304329e+02   7.196551e+01
   1.008200e+02   1.540966e+02
  -3.154250e+01   1.308086e+02
  -8.125132e+01   7.755169e+01
  -6.631411e+01   6.727088e+01
  -5.605482e+01   8.771969e+01
  -8.436300e+01   7.210835e+01
  -1.231987e+02  -1.699316e+01
  -1.145918e+02  -1.399386e+02
  -3.063431e+01  -2.079996e+02
   8.958662e+01  -1.596435e+02
   1.597413e+02  -2.081810e+01
   1.232359e+02   1.095494e+02
   1.679798e+01   1.430170e+02
  -6.071596e+01   7.963470e+01
  -5.243460e+01  -4.272994e+00
  -9.070613e-02  -4.054625e+01
   1.393894e+01  -2.886219e+01
  -3.179405e+01  -1.247142e+01
  -7.462011e+01  -1.869560e+01
  -4.230873e+01  -3.546953e+01
   6.027814e+01  -3.450534e+01
   1.471621e+02  -2.669876e+00
   1.303867e+02   4.697654e+01
   1.088869e+01   8.099304e+01
  -1.115897e+02   6.887267e+01
  -1.314188e+02   1.407644e+01
  -4.339543e+01  -3.793658e+01
   5.465308e+01  -3.734706e+01
   7.068736e+01   1.588833e+01
   1.075204e+01   6.574400e+01
  -4.895977e+01   5.776516e+01
  -6.076673e+01  -8.485094e-01
  -4.450786e+01  -4.782032e+01
  -4.037112e+01  -3.761124e+01
  -5.366434e+01   3.302219e+00
  -6.086892e+01   3.891066e+00
  -3.766159e+01  -6.388676e+01
   2.386479e+01  -1.396878e+02
   1.043394e+02  -1.342521e+02
   1.527250e+02  -3.259837e+01
   1.174636e+02   8.220079e+01
   1.077190e+01   1.149633e+02
  -7.494758e+01   5.840300e+01
  -5.418362e+01  -8.939696e+00
   5.144168e+01  -1.494395e+01
   1.220999e+02   3.918960e+01
   6.772586e+01   9.550228e+01
  -7.268203e+01   1.009373e+02
  -1.720059e+02   4.769682e+01
  -1.463829e+02  -2.945869e+01
  -3.295489e+01  -7.666644e+01
   5.496685e+01  -6.109855e+01
   4.263670e+01  -3.692811e+00
  -3.840327e+01   2.693966e+01
  -8.648530e+01  -1.955210e+01
  -3.524143e+01  -1.099343e+02
   7.802474e+01  -1.458037e+02
   1.502479e+02  -6.369093e+01
   1.180153e+02   8.647882e+01
   1.531029e+01   1.777704e+02
  -7.246525e+01   1.304336e+02
  -9.222387e+01  -6.475786e+00
  -5.354261e+01  -1.058111e+02
   2.986016e+00  -9.322578e+01
   4.180723e+01  -1.565395e+01
   4.552784e+01   2.774315e+01
   2.161575e+01   6.044042e+00
   3.981909e+00  -1.787184e+01
   2.143601e+01   1.649474e+01
   5.252184e+01   8.069430e+01
   3.729637e+01   9.653405e+01
  -4.483334e+01   3.968454e+01
  -1.268165e+02  -3.306457e+01
  -1.176233e+02  -6.127495e+01
  -1.563915e+01  -4.604270e+01
   7.918294e+01  -2.366890e+01
   7.962400e+01  -8.225014e+00
   1.032346e+01   8.270662e+00
  -3.402423e+01   2.066351e+01
  -1.243168e+01   1.410574e+01
   1.931642e+01  -3.004215e+00
  -5.236684e+00  -5.840211e+00
  -6.806007e+01   9.967419e-01
  -8.569972e+01  -1.989730e+01
  -1.184697e+01  -7.609114e+01
   1.048702e+02  -1.101765e+02
   1.697171e+02  -5.969877e+01
   1.330384e+02   5.705296e+01
   2.824931e+01   1.472121e+02
  -6.825860e+01   1.400999e+02
  -1.020564e+02   5.810674e+01
  -7.345437e+01  -1.695151e+01
  -2.470855e+01  -3.259338e+01
   2.514288e-02  -9.523963e+00
  -1.094640e+01  -4.629618e+00
  -3.090962e+01  -4.182461e+01
  -2.210648e+01  -8.248423e+01
   2.497020e+01  -6.740783e+01
   7.494439e+01   1.327507e+01
   7.511051e+01   9.552663e+01
   9.252468e+00   1.021677e+02
  -7.423084e+01   2.505695e+01
  -9.798279e+01  -6.544401e+01
  -3.337114e+01  -9.497553e+01
   6.044149e+01  -5.471805e+01
   9.232019e+01   7.805679e+00
   3.838921e+01   4.685430e+01
  -2.953394e+01   4.891973e+01
  -2.924784e+01   2.470688e+01
   3.095791e+01  -3.577685e+00
   6.445081e+01  -7.640801e+00
   1.559577e+01   2.461404e+01
  -7.050868e+01   6.288808e+01
  -1.051267e+02   5.430646e+01
  -5.974902e+01  -1.203167e+01
   1.300349e+01  -7.747597e+01
   4.926304e+01  -7.402180e+01
   3.716890e+01  -6.130794e+00
   4.363539e+00   5.184800e+01
  -2.324494e+01   4.178059e+01
  -3.535547e+01  -1.423266e+01
  -2.604510e+01  -4.930518e+01
   2.766533e+00  -3.203230e+01
   3.183658e+01   6.870385e+00
   3.648065e+01   1.999124e+01
   1.703098e+01   7.866519e-01
  -2.097394e+00  -1.644421e+01
  -3.995650e+00  -1.410964e+00
   2.217522e-01   3.340736e+01
  -8.950605e+00   4.573253e+01
  -2.829448e+01   1.277631e+01
  -3.202349e+01  -3.828467e+01
  -3.244921e+00  -5.621123e+01
   3.975329e+01  -2.049265e+01
   5.432001e+01   3.472068e+01
   1.557654e+01   5.790101e+01
  -5.085607e+01   3.289964e+01
  -8.368832e+01  -1.186650e+01
  -4.665182e+01  -3.997181e+01
   2.624842e+01  -3.997140e+01
   6.033112e+01  -2.292662e+01
   2.402629e+01  -4.366061e+00
  -3.242273e+01   2.028430e+00
  -3.514019e+01  -1.048537e+01
   2.452115e+01  -2.922642e+01
   7.988759e+01  -2.264937e+01
