
 $NMID
 id='ANONYMOUS ', fmtdat='(2E16.6)'
 volume=1.0
 tramp=1.0
 $END
   4.660193e+03  -2.185531e+02
   2.787998e+03   2.679722e+03
  -7.198934e+02   2.822253e+03
  -1.981418e+03   8.540284e+02
  -1.017643e+03  -5.699214e+02
   6.010034e+02  -5.132604e+02
   9.504721e+02   3.674505e+02
  -4.282561e+01   1.068995e+03
  -7.462765e+02   8.707495e+02
  -9.776979e+02   5.976063e+01
  -5.069798e+02  -8.294639e+02
   2.183455e+02  -9.020625e+02
   6.464431e+02  -6.142819e+01
   3.798889e+02   7.728262e+02
  -2.446397e+02   7.324433e+02
  -5.834298e+02  -2.130332e+01
  -2.833456e+02  -7.070362e+02
   3.406483e+02  -6.898829e+02
   6.087234e+02  -1.067332e+02
   3.897423e+02   3.521429e+02
   3.876217e+01   4.017905e+02
  -2.551164e+02   2.501887e+02
  -1.743553e+02   1.970531e+01
   1.016359e+02  -7.743411e+01
   4.426405e+02   1.186040e+02
   2.185438e+02   4.693936e+02
  -4.601707e+02   4.716214e+02
  -8.945229e+02  -4.927751e+01
  -4.857197e+02  -6.005966e+02
   3.938936e+02  -5.615731e+02
   7.693382e+02   2.935663e+01
   3.701893e+02   4.917491e+02
  -2.801750e+02   5.479357e+02
  -5.799107e+02   2.104242e+02
  -4.413786e+02  -2.049530e+02
  -9.137117e+01  -4.862883e+02
   2.056994e+02  -3.124156e+02
   1.836633e+02   2.259025e+02
  -1.892412e+02   4.774381e+02
  -5.045766e+02  -1.353432e+01
  -3.014554e+02  -7.484739e+02
   3.535022e+02  -7.672301e+02
   6.617314e+02   1.509553e+01
   2.857474e+02   6.203006e+02
  -3.417137e+02   3.433565e+02
  -4.386293e+02  -3.684156e+02
   6.604156e+01  -5.961831e+02
   5.943828e+02  -1.527742e+02
   6.301695e+02   4.214213e+02
   1.717027e+02   6.045693e+02
  -3.937373e+02   3.560011e+02
  -6.437416e+02  -7.076257e+01
  -3.884036e+02  -3.893773e+02
   1.506103e+02  -3.741335e+02
   4.515316e+02  -5.776088e+01
   2.432024e+02   1.984707e+02
  -1.379846e+02   9.943503e+01
  -1.610211e+02  -1.777118e+02
   1.801520e+02  -2.052505e+02
   3.856027e+02   7.935335e+01
   1.649700e+02   3.181793e+02
  -2.085664e+02   2.697995e+02
  -3.443453e+02   7.596496e+01
  -2.062669e+02  -7.839435e+01
   1.086251e+01  -2.187355e+02
   2.039803e+02  -3.420111e+02
   3.384848e+02  -2.506073e+02
   3.146312e+02   1.210858e+02
   1.031741e+02   4.498843e+02
  -1.079761e+02   4.017700e+02
  -1.223359e+02   1.126164e+02
  -2.028702e+01  -1.604847e+01
  -3.708389e+01   9.901354e+01
  -2.023698e+02   1.524109e+02
  -2.979206e+02  -4.330727e+01
  -1.756569e+02  -2.824713e+02
   6.862220e+01  -2.780599e+02
   2.396931e+02  -2.652332e+01
   2.217654e+02   2.385815e+02
   1.046930e+01   3.101553e+02
  -2.691139e+02   1.387998e+02
  -3.857976e+02  -1.612504e+02
  -2.077308e+02  -3.677224e+02
   1.017963e+02  -3.277871e+02
   2.413961e+02  -1.288941e+02
   1.512578e+02   1.638274e+00
   9.119649e+01  -4.137371e+01
   2.356378e+02  -8.883294e+01
   4.271434e+02   2.893826e+01
   3.686844e+02   2.824957e+02
   2.430919e+01   4.682547e+02
  -3.548448e+02   4.521840e+02
  -5.048013e+02   2.335559e+02
  -3.621010e+02  -8.389717e+01
  -7.033097e+01  -3.056736e+02
   1.267723e+02  -2.707963e+02
   8.518618e+01  -3.353400e+01
  -1.166575e+02   1.174355e+02
  -2.076188e+02  -1.291368e+00
  -5.451920e+01  -2.072790e+02
   1.700452e+02  -1.852707e+02
   1.898749e+02   6.532068e+01
  -1.849653e+01   2.105771e+02
  -2.081177e+02   4.102248e+01
  -1.807997e+02  -2.563326e+02
   1.758307e+01  -3.689415e+02
   2.260041e+02  -2.091143e+02
   3.365938e+02   4.984039e+01
   3.016721e+02   2.321148e+02
   1.159415e+02   2.675893e+02
  -1.105781e+02   1.723625e+02
  -1.899269e+02   2.873947e+01
  -6.638708e+01  -3.451894e+01
   7.562771e+01   3.493463e+01
   3.752706e+01   1.284842e+02
  -1.261699e+02   1.073902e+02
  -1.876551e+02  -9.534329e+00
  -6.203711e+01  -7.660244e+01
   8.489083e+01  -2.250137e+01
   6.204451e+01   7.119738e+01
  -1.206235e+02   9.217459e+01
  -2.855583e+02   1.230635e+01
  -2.739312e+02  -1.277164e+02
  -7.445184e+01  -2.560400e+02
   1.752337e+02  -2.783049e+02
   2.867645e+02  -1.461905e+02
   1.795427e+02   4.604179e+01
  -2.134038e+01   1.183290e+02
  -9.651978e+01   1.406622e+01
   2.835202e+01  -1.099372e+02
   2.005629e+02  -7.453168e+01
   2.254169e+02   9.537740e+01
   8.007090e+01   2.127892e+02
  -9.043100e+01   1.671418e+02
  -1.462105e+02   3.490185e+01
  -7.400758e+01  -4.037505e+01
   2.811309e+01  -3.541930e+00
   4.299540e+01   8.458376e+01
  -6.594639e+01   1.189391e+02
  -2.014776e+02   3.831579e+01
  -2.050742e+02  -1.176512e+02
  -3.433232e+01  -2.227743e+02
   1.624030e+02  -1.752359e+02
   2.011006e+02  -1.364035e+01
   7.153709e+01   1.156309e+02
  -6.605474e+01   1.166934e+02
  -8.590202e+01   3.354120e+01
  -2.086722e+01  -2.725424e+01
   2.037998e+01  -2.194946e+01
  -1.006732e+01   6.773874e+00
  -7.117496e+01  -6.096517e+00
  -9.352511e+01  -7.749530e+01
  -2.387799e+01  -1.603786e+02
   1.209933e+02  -1.650879e+02
   2.405962e+02  -4.172802e+01
   2.184593e+02   1.441163e+02
   5.489740e+01   2.454309e+02
  -1.077423e+02   1.821228e+02
  -1.415685e+02   3.479273e+01
  -7.601755e+01  -5.519718e+01
  -3.071816e+01  -3.670479e+01
  -5.429344e+01   1.195749e+01
  -7.888258e+01   7.232233e+00
  -4.180704e+01  -4.905877e+01
   4.030670e+01  -8.935278e+01
   1.000454e+02  -5.889894e+01
   8.763728e+01   3.243904e+01
  -6.264421e+00   1.129962e+02
  -1.382529e+02   9.724636e+01
  -2.050798e+02  -4.110882e+01
  -1.158233e+02  -2.018263e+02
   9.607200e+01  -2.426854e+02
   2.707002e+02  -1.121487e+02
   2.713174e+02   7.758765e+01
   1.230176e+02   1.787830e+02
  -3.358857e+01   1.549108e+02
  -9.567625e+01   9.202898e+01
  -8.128170e+01   7.517020e+01
  -6.691422e+01   9.466352e+01
  -9.185596e+01   7.794109e+01
  -1.309340e+02  -1.708284e+01
  -1.260726e+02  -1.511972e+02
  -4.131985e+01  -2.299294e+02
   9.153907e+01  -1.824960e+02
   1.788223e+02  -3.047947e+01
   1.470134e+02   1.187274e+02
   2.865289e+01   1.638668e+02
  -6.451241e+01   9.892930e+01
  -6.273811e+01   4.592651e+00
  -8.727149e+00  -4.252765e+01
   7.256945e+00  -3.591297e+01
  -3.896116e+01  -1.777876e+01
  -8.226480e+01  -1.977780e+01
  -4.778482e+01  -3.670471e+01
   6.195288e+01  -4.121087e+01
   1.593914e+02  -1.210711e+01
   1.482509e+02   4.427000e+01
   2.054304e+01   8.931233e+01
  -1.187982e+02   8.048011e+01
  -1.467414e+02   1.865101e+01
  -5.017489e+01  -4.080207e+01
   6.087560e+01  -3.993817e+01
   7.857000e+01   1.778370e+01
   1.052018e+01   6.968000e+01
  -5.403819e+01   6.065785e+01
  -6.362660e+01   6.298287e-01
  -4.692956e+01  -4.831532e+01
  -4.696471e+01  -4.062911e+01
  -6.332725e+01  -2.155687e-01
  -6.709749e+01   2.503607e+00
  -3.766221e+01  -6.583097e+01
   2.788585e+01  -1.480960e+02
   1.117563e+02  -1.475584e+02
   1.636496e+02  -3.946739e+01
   1.254841e+02   8.872263e+01
   8.079149e+00   1.272533e+02
  -8.744410e+01   6.230351e+01
  -6.078500e+01  -1.758920e+01
   6.257547e+01  -2.547957e+01
   1.451595e+02   3.848656e+01
   8.374456e+01   1.069643e+02
  -7.746127e+01   1.188347e+02
  -1.934253e+02   6.196622e+01
  -1.678296e+02  -2.660785e+01
  -4.118505e+01  -8.723268e+01
   6.058759e+01  -7.558264e+01
   5.045906e+01  -1.017495e+01
  -3.904542e+01   3.006116e+01
  -9.439756e+01  -1.827967e+01
  -3.842942e+01  -1.204233e+02
   8.808844e+01  -1.626073e+02
   1.694801e+02  -7.061364e+01
   1.339119e+02   9.905715e+01
   1.836094e+01   2.032889e+02
  -8.206917e+01   1.515397e+02
  -1.081897e+02  -3.172664e+00
  -6.814100e+01  -1.193478e+02
  -3.561834e+00  -1.098997e+02
   4.571147e+01  -2.230252e+01
   5.471972e+01   3.069567e+01
   2.728836e+01   7.464727e+00
   3.668688e+00  -2.314259e+01
   2.210678e+01   1.287176e+01
   6.066650e+01   8.886554e+01
   4.708195e+01   1.122169e+02
  -4.656412e+01   4.898554e+01
  -1.432922e+02  -3.590258e+01
  -1.357405e+02  -6.860103e+01
  -1.971368e+01  -4.994761e+01
   8.949241e+01  -2.561247e+01
   9.041677e+01  -1.174358e+01
   1.098375e+01   6.040774e+00
  -3.929224e+01   2.409812e+01
  -1.389054e+01   1.982458e+01
   2.271780e+01  -1.794694e+00
  -5.455859e+00  -8.933559e+00
  -7.678749e+01  -1.142993e+00
  -9.616355e+01  -2.091437e+01
  -1.246232e+01  -8.230946e+01
   1.174924e+02  -1.224066e+02
   1.878561e+02  -6.752887e+01
   1.463297e+02   6.379645e+01
   3.120103e+01   1.649336e+02
  -7.485050e+01   1.552146e+02
  -1.128270e+02   6.193184e+01
  -8.175893e+01  -2.063400e+01
  -2.635094e+01  -3.495744e+01
   2.672463e+00  -7.404137e+00
  -1.047899e+01  -2.656532e+00
  -3.551229e+01  -4.580996e+01
  -2.664214e+01  -9.219771e+01
   2.746755e+01  -7.445160e+01
   8.420914e+01   1.705842e+01
   8.295271e+01   1.092016e+02
   7.620693e+00   1.146930e+02
  -8.472541e+01   2.634158e+01
  -1.091705e+02  -7.437783e+01
  -3.697156e+01  -1.049188e+02
   6.591737e+01  -5.936094e+01
   1.006487e+02   7.900069e+00
   4.224427e+01   4.904842e+01
  -3.126375e+01   5.308277e+01
  -3.076913e+01   2.927563e+01
   3.502091e+01  -2.435235e+00
   7.130839e+01  -1.015092e+01
   1.713640e+01   2.463502e+01
  -7.715860e+01   7.100793e+01
  -1.145494e+02   6.551736e+01
  -6.466290e+01  -8.739981e+00
   1.284513e+01  -8.520893e+01
   5.006030e+01  -8.336833e+01
   3.652086e+01  -7.317240e+00
   3.882371e+00   5.724072e+01
  -2.314222e+01   4.508841e+01
  -3.653640e+01  -1.654130e+01
  -2.949692e+01  -5.319630e+01
   1.131168e-01  -3.254285e+01
   3.287690e+01   7.602502e+00
   4.122660e+01   1.945791e+01
   2.134247e+01  -7.611495e-02
  -1.494646e+00  -1.391603e+01
  -8.112871e+00   3.844466e+00
  -6.770903e+00   3.687149e+01
  -1.584145e+01   4.427213e+01
  -3.156910e+01   7.124232e+00
  -2.982232e+01  -4.554812e+01
   2.486807e+00  -6.176269e+01
   4.563106e+01  -2.117492e+01
   5.805848e+01   3.994763e+01
   1.602278e+01   6.569162e+01
  -5.478750e+01   3.743905e+01
  -9.078798e+01  -1.272381e+01
  -5.192710e+01  -4.315178e+01
   2.693075e+01  -4.148138e+01
   6.402842e+01  -2.275898e+01
   2.319796e+01  -5.616520e+00
  -3.940270e+01  -2.066075e+00
  -4.009275e+01  -1.595989e+01
   2.988063e+01  -3.343474e+01
   9.249955e+01  -2.344555e+01
