
 $NMID
 id='ANONYMOUS ', fmtdat='(2E16.6)'
 volume=1.0
 tramp=1.0
 $END
   4.856447e+03  -6.482771e+01
   2.871922e+03   2.851518e+03
  -6.575393e+02   2.967664e+03
  -2.334302e+03   1.063235e+03
  -1.201917e+03  -5.474664e+02
   7.740711e+02  -7.190922e+02
   9.059268e+02   3.557940e+02
   8.329459e+00   1.127336e+03
  -8.510496e+02   9.009237e+02
  -1.006304e+03  -8.688638e+01
  -5.255738e+02  -9.991852e+02
   2.753395e+02  -9.519785e+02
   7.032258e+02  -1.422002e+02
   4.871368e+02   7.414347e+02
  -2.203776e+02   8.439845e+02
  -6.892199e+02  -1.405290e+01
  -3.274236e+02  -7.590329e+02
   4.054172e+02  -7.413105e+02
   6.565414e+02  -7.812535e+01
   3.851555e+02   4.299523e+02
   3.892838e+01   4.902552e+02
  -2.659240e+02   2.926017e+02
  -2.469757e+02   4.228221e+01
   1.394088e+02  -1.150531e+02
   4.412430e+02   1.220001e+02
   2.499353e+02   4.473877e+02
  -4.533528e+02   4.659093e+02
  -8.886722e+02  -5.228325e+01
  -5.155060e+02  -6.000260e+02
   4.116183e+02  -5.785075e+02
   8.290298e+02  -4.069481e+00
   4.035244e+02   5.059378e+02
  -2.986860e+02   5.891263e+02
  -6.115960e+02   2.426558e+02
  -4.605277e+02  -2.213983e+02
  -9.497855e+01  -5.331602e+02
   2.610721e+02  -3.273868e+02
   2.209226e+02   2.512984e+02
  -1.793939e+02   5.110709e+02
  -5.432759e+02  -1.329418e+01
  -3.250472e+02  -7.989921e+02
   3.682025e+02  -8.354495e+02
   7.194334e+02  -9.458309e+00
   3.178047e+02   6.403326e+02
  -3.558039e+02   3.694999e+02
  -4.556597e+02  -3.709631e+02
   9.203693e+01  -6.186769e+02
   6.348890e+02  -1.622321e+02
   6.600413e+02   4.394158e+02
   1.850334e+02   6.343823e+02
  -4.081433e+02   3.864215e+02
  -6.819720e+02  -6.950688e+01
  -4.104200e+02  -4.199125e+02
   1.756472e+02  -3.993682e+02
   4.980002e+02  -5.000791e+01
   2.562408e+02   2.354765e+02
  -1.667949e+02   1.256359e+02
  -1.908181e+02  -1.855475e+02
   1.792450e+02  -2.316333e+02
   3.940030e+02   6.814724e+01
   1.562594e+02   3.249401e+02
  -2.265152e+02   2.727361e+02
  -3.465832e+02   6.443103e+01
  -1.906484e+02  -8.980212e+01
   2.589041e+01  -2.208046e+02
   2.113978e+02  -3.428364e+02
   3.490536e+02  -2.509604e+02
   3.307072e+02   1.347883e+02
   1.073653e+02   4.817506e+02
  -1.282738e+02   4.315732e+02
  -1.536822e+02   1.195499e+02
  -3.930830e+01  -2.473740e+01
  -3.846183e+01   9.287718e+01
  -2.000261e+02   1.517721e+02
  -3.080054e+02  -4.742321e+01
  -1.952971e+02  -2.924755e+02
   5.442092e+01  -2.886946e+02
   2.434704e+02  -3.350252e+01
   2.378261e+02   2.378909e+02
   1.908833e+01   3.136739e+02
  -2.786845e+02   1.461699e+02
  -4.063675e+02  -1.606794e+02
  -2.211489e+02  -3.766522e+02
   1.080596e+02  -3.389303e+02
   2.598039e+02  -1.287809e+02
   1.607858e+02   9.860501e+00
   8.689423e+01  -3.113848e+01
   2.331961e+02  -8.867621e+01
   4.309088e+02   4.043462e+01
   3.667052e+02   2.949372e+02
   1.005618e+01   4.752750e+02
  -3.744971e+02   4.474441e+02
  -5.191808e+02   2.283973e+02
  -3.671374e+02  -9.226993e+01
  -6.993921e+01  -3.205093e+02
   1.334049e+02  -2.847874e+02
   9.302069e+01  -3.566704e+01
  -1.137681e+02   1.247778e+02
  -2.113541e+02   1.166833e+00
  -5.622352e+01  -2.155423e+02
   1.780201e+02  -1.978973e+02
   1.996741e+02   6.525434e+01
  -1.701275e+01   2.169413e+02
  -2.113017e+02   4.293676e+01
  -1.791887e+02  -2.634415e+02
   2.613832e+01  -3.747684e+02
   2.368730e+02  -2.086760e+02
   3.442118e+02   5.830123e+01
   3.059002e+02   2.452983e+02
   1.161464e+02   2.801513e+02
  -1.168735e+02   1.773463e+02
  -1.974347e+02   2.645845e+01
  -6.769703e+01  -3.776997e+01
   8.031288e+01   3.702585e+01
   3.968422e+01   1.359176e+02
  -1.326487e+02   1.136788e+02
  -1.972489e+02  -9.538908e+00
  -6.708351e+01  -8.027683e+01
   8.431659e+01  -2.543689e+01
   6.233644e+01   7.008319e+01
  -1.226215e+02   9.179788e+01
  -2.900001e+02   1.056072e+01
  -2.813182e+02  -1.330708e+02
  -8.005275e+01  -2.662111e+02
   1.796966e+02  -2.891929e+02
   3.004992e+02  -1.499261e+02
   1.910777e+02   5.094675e+01
  -2.154361e+01   1.232363e+02
  -1.038120e+02   1.107977e+01
   2.765191e+01  -1.175469e+02
   2.113076e+02  -7.666306e+01
   2.383166e+02   1.025059e+02
   8.415311e+01   2.241767e+02
  -9.654609e+01   1.755187e+02
  -1.553773e+02   3.709002e+01
  -8.032167e+01  -4.277730e+01
   2.684907e+01  -7.447048e+00
   4.468962e+01   8.278795e+01
  -6.609770e+01   1.205413e+02
  -2.055774e+02   3.870082e+01
  -2.096708e+02  -1.235446e+02
  -3.264521e+01  -2.320513e+02
   1.719283e+02  -1.796054e+02
   2.104987e+02  -9.507883e+00
   7.411050e+01   1.233351e+02
  -7.015922e+01   1.214801e+02
  -9.095172e+01   3.436091e+01
  -2.331129e+01  -2.758919e+01
   1.934782e+01  -2.282793e+01
  -1.111759e+01   3.879408e+00
  -7.113873e+01  -9.781582e+00
  -8.962670e+01  -8.196727e+01
  -1.850917e+01  -1.628625e+02
   1.273838e+02  -1.660301e+02
   2.470623e+02  -3.824693e+01
   2.225876e+02   1.524945e+02
   5.300152e+01   2.556113e+02
  -1.132736e+02   1.864934e+02
  -1.462005e+02   3.135105e+01
  -7.644172e+01  -5.930155e+01
  -2.965216e+01  -3.693080e+01
  -5.492184e+01   1.368739e+01
  -8.072806e+01   6.829814e+00
  -4.140886e+01  -5.063133e+01
   4.449529e+01  -8.997428e+01
   1.033409e+02  -5.679759e+01
   8.741080e+01   3.334780e+01
  -9.816691e+00   1.129585e+02
  -1.430908e+02   9.525978e+01
  -2.090275e+02  -4.455334e+01
  -1.147331e+02  -2.077326e+02
   1.036043e+02  -2.475556e+02
   2.824296e+02  -1.119618e+02
   2.799657e+02   8.365742e+01
   1.242178e+02   1.861187e+02
  -3.704627e+01   1.610292e+02
  -9.904215e+01   9.574569e+01
  -8.361767e+01   7.710138e+01
  -6.892357e+01   9.629279e+01
  -9.582471e+01   7.970152e+01
  -1.366784e+02  -1.776373e+01
  -1.301448e+02  -1.570863e+02
  -4.011866e+01  -2.392047e+02
   9.903660e+01  -1.890722e+02
   1.883966e+02  -2.974537e+01
   1.523679e+02   1.258196e+02
   2.731238e+01   1.718153e+02
  -6.853208e+01   1.030612e+02
  -6.425495e+01   5.069155e+00
  -8.106331e+00  -4.287236e+01
   6.596715e+00  -3.595230e+01
  -4.114303e+01  -1.909854e+01
  -8.302718e+01  -2.285782e+01
  -4.582288e+01  -3.875736e+01
   6.520977e+01  -3.991299e+01
   1.624287e+02  -8.264030e+00
   1.505746e+02   4.766382e+01
   2.123554e+01   9.116285e+01
  -1.211854e+02   8.201019e+01
  -1.512113e+02   2.028617e+01
  -5.297673e+01  -4.015415e+01
   6.146120e+01  -4.073401e+01
   7.935593e+01   1.758021e+01
   8.290470e+00   7.112418e+01
  -5.824139e+01   6.187222e+01
  -6.596454e+01  -7.735777e-01
  -4.620371e+01  -5.191971e+01
  -4.601885e+01  -4.346708e+01
  -6.413581e+01  -1.074321e+00
  -6.852924e+01   2.161089e+00
  -3.761290e+01  -6.814460e+01
   2.961028e+01  -1.517777e+02
   1.142150e+02  -1.494202e+02
   1.670385e+02  -3.793686e+01
   1.291260e+02   9.086683e+01
   9.074815e+00   1.272209e+02
  -8.864943e+01   5.990248e+01
  -6.211988e+01  -1.797161e+01
   6.395863e+01  -2.195816e+01
   1.479715e+02   4.411830e+01
   8.440035e+01   1.105292e+02
  -8.117327e+01   1.188173e+02
  -1.993521e+02   5.974848e+01
  -1.719741e+02  -2.983888e+01
  -4.120420e+01  -9.011162e+01
   6.303038e+01  -7.683219e+01
   5.199624e+01  -9.547523e+00
  -4.069774e+01   3.043152e+01
  -9.754279e+01  -2.080534e+01
  -3.814126e+01  -1.260242e+02
   9.439398e+01  -1.671713e+02
   1.776143e+02  -6.997624e+01
   1.371710e+02   1.048177e+02
   1.465578e+01   2.097518e+02
  -8.808097e+01   1.543576e+02
  -1.111752e+02  -5.207808e+00
  -6.707203e+01  -1.240567e+02
  -7.387660e-01  -1.137645e+02
   4.862482e+01  -2.327668e+01
   5.745025e+01   3.226810e+01
   2.873217e+01   9.849603e+00
   2.900944e+00  -2.137978e+01
   2.043479e+01   1.430047e+01
   6.085302e+01   9.107507e+01
   4.855129e+01   1.150305e+02
  -4.763295e+01   4.992011e+01
  -1.481226e+02  -3.834407e+01
  -1.402227e+02  -7.281155e+01
  -1.871046e+01  -5.302556e+01
   9.499136e+01  -2.583268e+01
   9.434535e+01  -9.938777e+00
   9.989262e+00   8.388258e+00
  -4.231426e+01   2.569211e+01
  -1.421743e+01   2.016273e+01
   2.437566e+01  -2.403838e+00
  -6.350854e+00  -9.928223e+00
  -8.129226e+01  -2.289068e+00
  -9.921680e+01  -2.356974e+01
  -9.512267e+00  -8.675664e+01
   1.254038e+02  -1.256378e+02
   1.955300e+02  -6.572816e+01
   1.498174e+02   7.054676e+01
   3.025045e+01   1.723339e+02
  -7.883862e+01   1.590507e+02
  -1.180422e+02   6.200872e+01
  -8.595423e+01  -2.202060e+01
  -2.737070e+01  -3.603759e+01
   4.127874e+00  -7.571857e+00
  -9.780336e+00  -2.483274e+00
  -3.701105e+01  -4.663630e+01
  -2.807692e+01  -9.495650e+01
   2.911797e+01  -7.747862e+01
   8.799636e+01   1.777848e+01
   8.410758e+01   1.145938e+02
   3.865716e+00   1.199050e+02
  -9.006419e+01   2.554293e+01
  -1.110230e+02  -8.060432e+01
  -3.396367e+01  -1.101376e+02
   7.059537e+01  -5.936522e+01
   1.028820e+02   1.091040e+01
   4.085033e+01   5.106378e+01
  -3.376961e+01   5.303493e+01
  -3.105575e+01   2.914806e+01
   3.771707e+01  -1.793116e+00
   7.432546e+01  -9.407853e+00
   1.724690e+01   2.562527e+01
  -8.098813e+01   7.236632e+01
  -1.192414e+02   6.607990e+01
  -6.651685e+01  -1.078217e+01
   1.488017e+01  -8.874232e+01
   5.386699e+01  -8.489563e+01
   3.899080e+01  -5.014522e+00
   3.199767e+00   6.033427e+01
  -2.644497e+01   4.542302e+01
  -3.971742e+01  -1.994103e+01
  -2.933321e+01  -5.669497e+01
   3.450683e+00  -3.366876e+01
   3.625865e+01   9.015240e+00
   4.189672e+01   2.107257e+01
   2.028432e+01   4.461786e-01
  -1.526494e+00  -1.411241e+01
  -6.526628e+00   4.306079e+00
  -6.421914e+00   3.836465e+01
  -1.801275e+01   4.577664e+01
  -3.430062e+01   6.835992e+00
  -3.045275e+01  -4.800594e+01
   4.415197e+00  -6.420804e+01
   4.789246e+01  -2.115553e+01
   5.891950e+01   4.240262e+01
   1.510308e+01   6.769628e+01
  -5.698464e+01   3.716339e+01
  -9.315779e+01  -1.523667e+01
  -5.244159e+01  -4.605749e+01
   2.943019e+01  -4.302692e+01
   6.804504e+01  -2.226767e+01
   2.504524e+01  -4.316156e+00
  -4.084578e+01  -1.623911e+00
  -4.155114e+01  -1.692321e+01
   3.221372e+01  -3.438438e+01
   9.793600e+01  -2.229960e+01
