
 $NMID
 id='ANONYMOUS ', fmtdat='(2E16.6)'
 volume=1.0
 tramp=1.0
 $END
   4.868388e+03   2.923757e+02
   2.914621e+03   2.913947e+03
  -9.248893e+02   3.127161e+03
  -2.363135e+03   6.994210e+02
  -7.330799e+02  -8.628118e+02
   8.210427e+02  -6.734843e+02
   1.041536e+03   4.378662e+02
  -1.651126e+02   1.230891e+03
  -9.322640e+02   9.100975e+02
  -1.099159e+03  -2.841781e+02
  -4.653935e+02  -1.036131e+03
   3.432010e+02  -9.244258e+02
   7.830845e+02  -7.282828e+01
   4.573729e+02   8.066631e+02
  -3.634306e+02   8.455270e+02
  -6.489598e+02  -4.455089e+01
  -2.219848e+02  -7.832160e+02
   3.951861e+02  -6.658358e+02
   6.741204e+02  -5.553074e+01
   3.614916e+02   3.949983e+02
  -6.117346e+01   4.303299e+02
  -2.638343e+02   2.481650e+02
  -2.015299e+02   2.924335e+01
   1.214504e+02  -8.353714e+01
   4.169450e+02   9.612503e+01
   2.009526e+02   4.289995e+02
  -4.884128e+02   4.619568e+02
  -9.004204e+02  -4.951724e+01
  -4.852356e+02  -5.832348e+02
   4.051772e+02  -5.544941e+02
   7.992052e+02   1.200634e+01
   3.709085e+02   5.335085e+02
  -3.040256e+02   5.684770e+02
  -6.020913e+02   2.100346e+02
  -4.326404e+02  -2.484957e+02
  -7.456843e+01  -5.161067e+02
   2.193866e+02  -2.904197e+02
   1.719125e+02   2.463243e+02
  -2.004579e+02   4.675266e+02
  -4.951079e+02  -3.975577e+01
  -2.466921e+02  -7.231885e+02
   3.746698e+02  -7.314323e+02
   6.639084e+02   2.279017e+01
   2.629814e+02   5.841787e+02
  -3.162353e+02   3.138839e+02
  -3.914817e+02  -3.469259e+02
   8.225443e+01  -5.467614e+02
   5.846908e+02  -1.090425e+02
   6.090459e+02   4.429404e+02
   1.534632e+02   6.131395e+02
  -4.105054e+02   3.549172e+02
  -6.617649e+02  -9.244615e+01
  -3.874811e+02  -4.212395e+02
   1.676578e+02  -3.861815e+02
   4.608659e+02  -4.050116e+01
   2.324582e+02   2.177541e+02
  -1.404529e+02   9.525061e+01
  -1.382665e+02  -1.952373e+02
   2.098945e+02  -2.038967e+02
   3.910093e+02   1.051961e+02
   1.400269e+02   3.403076e+02
  -2.409482e+02   2.630690e+02
  -3.538027e+02   5.111545e+01
  -1.838375e+02  -9.350143e+01
   4.818857e+01  -2.100889e+02
   2.287415e+02  -3.168493e+02
   3.384685e+02  -2.213513e+02
   2.969635e+02   1.439159e+02
   7.699649e+01   4.629071e+02
  -1.383598e+02   4.011481e+02
  -1.494124e+02   9.480745e+01
  -3.116836e+01  -4.926712e+01
  -2.520350e+01   6.642884e+01
  -1.762880e+02   1.344945e+02
  -2.745615e+02  -4.634603e+01
  -1.578682e+02  -2.831907e+02
   8.878243e+01  -2.773947e+02
   2.583524e+02  -1.120258e+01
   2.179927e+02   2.694519e+02
  -1.457184e+01   3.271003e+02
  -2.909473e+02   1.241814e+02
  -3.816540e+02  -1.899162e+02
  -1.820662e+02  -3.822616e+02
   1.215068e+02  -3.155356e+02
   2.472714e+02  -1.051390e+02
   1.595523e+02   1.184585e+01
   9.983719e+01  -3.169830e+01
   2.323877e+02  -6.582762e+01
   3.994613e+02   6.637261e+01
   3.266485e+02   3.018142e+02
  -1.218305e+01   4.535687e+02
  -3.756591e+02   4.117723e+02
  -5.072571e+02   1.973991e+02
  -3.510114e+02  -1.027752e+02
  -5.411634e+01  -3.146913e+02
   1.465131e+02  -2.746090e+02
   9.641533e+01  -3.610735e+01
  -1.108440e+02   1.175047e+02
  -2.057832e+02  -6.011601e-01
  -5.219561e+01  -2.052514e+02
   1.753846e+02  -1.843072e+02
   1.929349e+02   6.291733e+01
  -1.687556e+01   2.037895e+02
  -2.009787e+02   3.405025e+01
  -1.595583e+02  -2.592188e+02
   4.505209e+01  -3.573235e+02
   2.432855e+02  -1.868700e+02
   3.304426e+02   7.747270e+01
   2.770315e+02   2.518977e+02
   9.115558e+01   2.737364e+02
  -1.219292e+02   1.673348e+02
  -1.894309e+02   2.005572e+01
  -6.536948e+01  -3.877664e+01
   7.020397e+01   3.481359e+01
   2.954691e+01   1.265546e+02
  -1.296743e+02   1.006197e+02
  -1.861645e+02  -1.688834e+01
  -6.059830e+01  -7.874929e+01
   8.286772e+01  -2.003664e+01
   5.886245e+01   7.111408e+01
  -1.211333e+02   8.303775e+01
  -2.824184e+02  -4.918743e+00
  -2.659655e+02  -1.443111e+02
  -5.971514e+01  -2.616162e+02
   1.943560e+02  -2.688660e+02
   3.005893e+02  -1.280640e+02
   1.825327e+02   6.113857e+01
  -2.396039e+01   1.226481e+02
  -9.643495e+01   1.320551e+01
   3.161762e+01  -1.044026e+02
   1.998688e+02  -6.000924e+01
   2.169436e+02   1.095760e+02
   6.787813e+01   2.176553e+02
  -9.965914e+01   1.633993e+02
  -1.505967e+02   2.941615e+01
  -7.710667e+01  -4.338295e+01
   2.381862e+01  -4.927688e+00
   3.728084e+01   8.096141e+01
  -7.022481e+01   1.107403e+02
  -1.995259e+02   2.548994e+01
  -1.956308e+02  -1.296615e+02
  -2.099240e+01  -2.253435e+02
   1.732043e+02  -1.666928e+02
   2.059616e+02  -2.466286e+00
   7.151725e+01   1.205702e+02
  -6.846478e+01   1.161645e+02
  -8.819945e+01   3.392486e+01
  -2.349923e+01  -2.421191e+01
   1.809783e+01  -2.079425e+01
  -9.667634e+00   1.612601e+00
  -6.692559e+01  -1.301504e+01
  -8.381503e+01  -8.087300e+01
  -1.301221e+01  -1.558137e+02
   1.285225e+02  -1.526166e+02
   2.387659e+02  -2.548709e+01
   2.055649e+02   1.560927e+02
   3.753237e+01   2.471123e+02
  -1.199033e+02   1.737055e+02
  -1.442908e+02   2.213935e+01
  -7.181949e+01  -6.338139e+01
  -2.705988e+01  -4.099437e+01
  -5.167229e+01   7.911274e+00
  -7.481126e+01   1.784107e+00
  -3.431321e+01  -5.116141e+01
   4.819098e+01  -8.414177e+01
   1.016347e+02  -4.847879e+01
   8.151011e+01   3.903421e+01
  -1.512180e+01   1.100455e+02
  -1.393170e+02   8.467906e+01
  -1.955317e+02  -5.130000e+01
  -9.999172e+01  -2.024895e+02
   1.066910e+02  -2.302219e+02
   2.693074e+02  -9.637535e+01
   2.603609e+02   8.945409e+01
   1.112138e+02   1.833775e+02
  -3.966174e+01   1.517636e+02
  -9.790226e+01   8.611314e+01
  -8.535904e+01   7.076444e+01
  -7.442076e+01   9.087736e+01
  -9.835563e+01   7.121249e+01
  -1.300010e+02  -2.911886e+01
  -1.144886e+02  -1.631057e+02
  -2.286833e+01  -2.325488e+02
   1.070612e+02  -1.725745e+02
   1.823543e+02  -1.523262e+01
   1.386360e+02   1.293036e+02
   1.753130e+01   1.654924e+02
  -7.018001e+01   9.488716e+01
  -6.253681e+01   1.324937e+00
  -7.088236e+00  -4.207673e+01
   8.096621e+00  -3.489252e+01
  -3.715940e+01  -2.017213e+01
  -7.802800e+01  -2.480393e+01
  -4.316261e+01  -3.822874e+01
   6.359458e+01  -3.473504e+01
   1.566134e+02  -7.676394e-01
   1.429305e+02   5.212341e+01
   1.514939e+01   8.808327e+01
  -1.226449e+02   7.267487e+01
  -1.482959e+02   1.199549e+01
  -4.885241e+01  -4.175639e+01
   6.295753e+01  -3.683163e+01
   7.761840e+01   2.022871e+01
   5.275319e+00   6.883609e+01
  -5.972991e+01   5.655188e+01
  -6.426748e+01  -4.669202e+00
  -4.156829e+01  -5.256350e+01
  -4.175806e+01  -4.344673e+01
  -6.165559e+01  -2.879974e+00
  -6.580613e+01  -1.073623e+00
  -3.206129e+01  -6.831581e+01
   3.720885e+01  -1.455971e+02
   1.185384e+02  -1.392945e+02
   1.629454e+02  -2.958583e+01
   1.208909e+02   9.390287e+01
   5.624550e+00   1.259404e+02
  -8.557359e+01   5.913686e+01
  -5.908388e+01  -1.631733e+01
   5.971932e+01  -1.882918e+01
   1.382940e+02   4.577180e+01
   7.665026e+01   1.080814e+02
  -8.097766e+01   1.118474e+02
  -1.924582e+02   5.175122e+01
  -1.640210e+02  -3.286704e+01
  -3.722377e+01  -8.569223e+01
   6.123546e+01  -7.035308e+01
   4.730264e+01  -9.226067e+00
  -4.176890e+01   2.341249e+01
  -9.054486e+01  -2.695798e+01
  -2.644551e+01  -1.217588e+02
   1.012747e+02  -1.529434e+02
   1.729791e+02  -5.616315e+01
   1.238099e+02   1.081640e+02
   2.784529e+00   2.021309e+02
  -9.053689e+01   1.440421e+02
  -1.048388e+02  -9.841724e+00
  -5.943480e+01  -1.213769e+02
   1.621307e+00  -1.082291e+02
   4.578424e+01  -1.987286e+01
   5.393944e+01   3.266948e+01
   2.852359e+01   9.205349e+00
   4.393597e+00  -2.102779e+01
   1.873859e+01   1.590213e+01
   5.362061e+01   9.192588e+01
   4.090013e+01   1.128901e+02
  -4.848424e+01   4.420627e+01
  -1.408001e+02  -4.537754e+01
  -1.310833e+02  -7.672803e+01
  -1.513556e+01  -5.050901e+01
   9.227014e+01  -1.924492e+01
   9.061415e+01  -5.573349e+00
   9.614743e+00   6.707767e+00
  -4.071494e+01   2.150057e+01
  -1.411865e+01   1.938482e+01
   2.248050e+01   1.527738e-01
  -6.478961e+00  -1.024380e+01
  -7.676966e+01  -8.484046e+00
  -9.129421e+01  -2.881059e+01
  -2.574082e+00  -8.156761e+01
   1.271213e+02  -1.101616e+02
   1.899426e+02  -5.065278e+01
   1.383781e+02   7.485082e+01
   1.793924e+01   1.655773e+02
  -8.582021e+01   1.486162e+02
  -1.173570e+02   5.428822e+01
  -8.125017e+01  -2.594662e+01
  -2.491083e+01  -3.788449e+01
   3.087386e+00  -9.578344e+00
  -9.188166e+00  -5.008181e+00
  -3.036063e+01  -4.830653e+01
  -1.856102e+01  -9.308518e+01
   3.306448e+01  -7.145312e+01
   8.225374e+01   2.412942e+01
   7.393736e+01   1.159213e+02
  -1.377092e+00   1.146080e+02
  -8.656091e+01   1.806214e+01
  -1.029201e+02  -8.421573e+01
  -2.797719e+01  -1.074226e+02
   7.143222e+01  -5.263731e+01
   1.007922e+02   1.626815e+01
   3.929052e+01   5.141115e+01
  -3.396504e+01   4.992624e+01
  -3.148834e+01   2.826991e+01
   3.545988e+01   3.020952e+00
   7.061027e+01  -2.612975e+00
   1.354566e+01   2.644955e+01
  -8.297096e+01   6.429616e+01
  -1.182282e+02   5.551481e+01
  -6.235537e+01  -1.433012e+01
   2.046496e+01  -8.307023e+01
   5.637309e+01  -7.644044e+01
   3.583992e+01  -1.033939e+00
  -2.965155e+00   5.881818e+01
  -2.936766e+01   4.178018e+01
  -3.646291e+01  -2.209258e+01
  -2.426712e+01  -5.675532e+01
   4.558571e+00  -3.265207e+01
   3.264074e+01   1.049557e+01
   3.863949e+01   2.213861e+01
   2.106589e+01   9.256975e-01
   1.151825e+00  -1.416210e+01
  -5.832242e+00   4.414441e+00
  -8.548936e+00   3.894158e+01
  -2.043897e+01   4.540892e+01
  -3.448361e+01   5.412924e+00
  -2.884726e+01  -4.856418e+01
   5.163427e+00  -6.257734e+01
   4.597450e+01  -1.824744e+01
   5.492213e+01   4.349831e+01
   1.201699e+01   6.491356e+01
  -5.618760e+01   3.123728e+01
  -8.855518e+01  -2.030019e+01
  -4.776100e+01  -4.653806e+01
   3.061576e+01  -3.877084e+01
   6.621761e+01  -1.757044e+01
   2.380452e+01  -3.241616e+00
  -3.952671e+01  -4.134101e+00
  -3.910053e+01  -1.834103e+01
   3.251915e+01  -3.142343e+01
   9.439924e+01  -1.711644e+01
