
 $NMID
 id='ANONYMOUS ', fmtdat='(2E16.6)'
 volume=1.0
 tramp=1.0
 $END
  -4.533806e+03   1.270576e+02
  -2.591386e+03  -2.767036e+03
   8.376493e+02  -2.854898e+03
   2.253775e+03  -9.867554e+02
   1.026752e+03   7.305431e+02
  -8.380992e+02   5.670381e+02
  -1.032149e+03  -4.140814e+02
   6.918272e+01  -1.142688e+03
   9.015870e+02  -7.783955e+02
   9.297582e+02   3.028836e+01
   5.370082e+02   9.364062e+02
  -2.344608e+02   1.017065e+03
  -7.321958e+02   1.313729e+02
  -4.635673e+02  -7.273574e+02
   2.480302e+02  -8.407397e+02
   7.081382e+02  -2.471791e+01
   2.841834e+02   7.162976e+02
  -3.272869e+02   6.803889e+02
  -6.098508e+02   3.705503e+01
  -4.098141e+02  -3.626664e+02
  -3.564335e+01  -4.396434e+02
   2.429378e+02  -3.061861e+02
   2.378382e+02  -6.278947e+01
  -1.070093e+02   1.078814e+02
  -4.559028e+02  -1.108315e+02
  -2.570040e+02  -4.636432e+02
   4.626299e+02  -4.700885e+02
   9.113672e+02   7.768895e+01
   4.863955e+02   5.958957e+02
  -4.295740e+02   5.239972e+02
  -8.129870e+02  -3.112817e+01
  -3.844800e+02  -5.245549e+02
   3.062165e+02  -5.450199e+02
   6.085104e+02  -2.026034e+02
   4.329110e+02   2.575638e+02
   7.190812e+01   5.275638e+02
  -2.371160e+02   3.202892e+02
  -2.087468e+02  -2.343570e+02
   1.782131e+02  -4.919429e+02
   5.115913e+02   2.740473e+00
   2.895230e+02   7.591498e+02
  -3.466918e+02   8.124260e+02
  -6.803163e+02   3.324143e+01
  -2.987602e+02  -6.199572e+02
   3.318592e+02  -3.672777e+02
   4.459676e+02   3.699161e+02
  -6.549915e+01   6.186686e+02
  -6.150705e+02   1.734807e+02
  -6.609759e+02  -4.254428e+02
  -2.018900e+02  -6.246685e+02
   3.911126e+02  -3.864641e+02
   6.782254e+02   6.327331e+01
   4.156779e+02   4.150254e+02
  -1.658962e+02   4.177999e+02
  -4.980533e+02   7.865803e+01
  -2.781409e+02  -2.241783e+02
   1.353199e+02  -1.340624e+02
   1.723268e+02   1.733632e+02
  -1.777851e+02   2.246716e+02
  -3.923984e+02  -7.384760e+01
  -1.672324e+02  -3.343226e+02
   2.139904e+02  -2.824439e+02
   3.467853e+02  -7.201295e+01
   2.012561e+02   8.495336e+01
  -1.722667e+01   2.150657e+02
  -2.052246e+02   3.331558e+02
  -3.368898e+02   2.420671e+02
  -3.134158e+02  -1.315656e+02
  -9.722895e+01  -4.624218e+02
   1.207387e+02  -4.102301e+02
   1.350555e+02  -1.128330e+02
   2.859443e+01   1.905563e+01
   4.278440e+01  -9.591392e+01
   2.072927e+02  -1.496607e+02
   3.026704e+02   4.703881e+01
   1.797661e+02   2.855538e+02
  -6.482790e+01   2.794124e+02
  -2.388882e+02   3.055888e+01
  -2.259220e+02  -2.369547e+02
  -1.316379e+01  -3.154665e+02
   2.729844e+02  -1.509402e+02
   4.010345e+02   1.520960e+02
   2.194232e+02   3.708860e+02
  -1.020932e+02   3.422591e+02
  -2.517991e+02   1.331464e+02
  -1.635662e+02  -9.480083e+00
  -9.375903e+01   2.677191e+01
  -2.321462e+02   8.155403e+01
  -4.221682e+02  -3.995449e+01
  -3.604086e+02  -2.915874e+02
  -1.183629e+01  -4.725384e+02
   3.685735e+02  -4.468647e+02
   5.135122e+02  -2.249906e+02
   3.667736e+02   9.411043e+01
   7.343436e+01   3.202171e+02
  -1.388085e+02   2.828769e+02
  -1.008137e+02   3.233353e+01
   1.115832e+02  -1.319198e+02
   2.232320e+02  -6.902385e+00
   7.006407e+01   2.165808e+02
  -1.750837e+02   2.031573e+02
  -2.063991e+02  -6.006770e+01
   1.228403e+01  -2.209081e+02
   2.160474e+02  -4.980092e+01
   1.880322e+02   2.615413e+02
  -2.142429e+01   3.740023e+02
  -2.336349e+02   2.068082e+02
  -3.397652e+02  -5.728894e+01
  -2.993035e+02  -2.357285e+02
  -1.124422e+02  -2.694970e+02
   1.144456e+02  -1.747897e+02
   1.936621e+02  -2.937044e+01
   6.440863e+01   3.887696e+01
  -8.415082e+01  -3.216550e+01
  -4.454895e+01  -1.357515e+02
   1.312066e+02  -1.202613e+02
   2.005518e+02   4.371644e+00
   7.048240e+01   8.228898e+01
  -8.661130e+01   2.937732e+01
  -6.870214e+01  -7.007347e+01
   1.183350e+02  -9.426997e+01
   2.894442e+02  -1.245454e+01
   2.804474e+02   1.300272e+02
   7.633300e+01   2.590363e+02
  -1.823565e+02   2.810522e+02
  -2.991966e+02   1.455019e+02
  -1.866506e+02  -5.224381e+01
   2.668182e+01  -1.252449e+02
   1.078090e+02  -1.457184e+01
  -2.429589e+01   1.155391e+02
  -2.091598e+02   7.778854e+01
  -2.368524e+02  -9.922844e+01
  -8.359077e+01  -2.213761e+02
   9.601292e+01  -1.744838e+02
   1.545843e+02  -3.754069e+01
   8.005723e+01   4.290198e+01
  -2.662181e+01   9.315040e+00
  -4.580962e+01  -8.032881e+01
   6.295536e+01  -1.207441e+02
   2.026107e+02  -4.311124e+01
   2.095604e+02   1.183827e+02
   3.491809e+01   2.305865e+02
  -1.700028e+02   1.819946e+02
  -2.096154e+02   1.119449e+01
  -7.288724e+01  -1.246843e+02
   7.258121e+01  -1.230040e+02
   9.166241e+01  -3.373600e+01
   2.122242e+01   3.012211e+01
  -2.177575e+01   2.297283e+01
   1.013061e+01  -6.545949e+00
   7.279587e+01   7.644275e+00
   9.246392e+01   8.138815e+01
   2.060401e+01   1.625341e+02
  -1.253215e+02   1.639763e+02
  -2.442290e+02   3.741336e+01
  -2.184169e+02  -1.495443e+02
  -5.102404e+01  -2.502185e+02
   1.126717e+02  -1.834452e+02
   1.442878e+02  -3.102444e+01
   7.342963e+01   5.902092e+01
   2.877012e+01   3.818695e+01
   5.565815e+01  -1.302424e+01
   8.287855e+01  -7.461598e+00
   4.260948e+01   4.901234e+01
  -4.245049e+01   8.796944e+01
  -1.000558e+02   5.782746e+01
  -8.409975e+01  -3.103390e+01
   9.629984e+00  -1.100038e+02
   1.395055e+02  -9.299411e+01
   2.070569e+02   4.322156e+01
   1.183582e+02   2.055812e+02
  -9.766153e+01   2.465972e+02
  -2.775701e+02   1.148855e+02
  -2.776694e+02  -8.007014e+01
  -1.248552e+02  -1.828952e+02
   3.514562e+01  -1.565159e+02
   9.689829e+01  -9.127169e+01
   8.175942e+01  -7.444275e+01
   6.726070e+01  -9.519855e+01
   9.282109e+01  -7.945784e+01
   1.319466e+02   1.678320e+01
   1.270532e+02   1.526896e+02
   4.125700e+01   2.331664e+02
  -9.414394e+01   1.864771e+02
  -1.831071e+02   3.229301e+01
  -1.499524e+02  -1.217115e+02
  -2.812024e+01  -1.696876e+02
   6.744287e+01  -1.027385e+02
   6.495793e+01  -4.675429e+00
   9.331176e+00   4.400793e+01
  -7.595367e+00   3.708124e+01
   3.855262e+01   1.938151e+01
   8.182514e+01   2.217788e+01
   4.732829e+01   3.753856e+01
  -6.242295e+01   3.891448e+01
  -1.602229e+02   8.612125e+00
  -1.494667e+02  -4.610523e+01
  -2.104273e+01  -8.915284e+01
   1.207843e+02  -7.956329e+01
   1.505076e+02  -1.771576e+01
   5.236358e+01   4.193771e+01
  -6.198990e+01   4.091264e+01
  -8.067553e+01  -1.802039e+01
  -1.072766e+01  -7.053217e+01
   5.572497e+01  -6.011500e+01
   6.458692e+01   1.296010e+00
   4.565050e+01   5.003258e+01
   4.495481e+01   4.085564e+01
   6.277146e+01  -1.935861e-01
   6.765577e+01  -2.843204e+00
   3.862861e+01   6.633730e+01
  -2.737384e+01   1.492593e+02
  -1.133479e+02   1.493609e+02
  -1.672916e+02   4.076333e+01
  -1.292895e+02  -8.961995e+01
  -8.424648e+00  -1.302158e+02
   9.015366e+01  -6.468425e+01
   6.342568e+01   1.702254e+01
  -6.305511e+01   2.567874e+01
  -1.471288e+02  -3.977068e+01
  -8.354282e+01  -1.096376e+02
   8.111699e+01  -1.207930e+02
   1.984808e+02  -6.167132e+01
   1.718691e+02   2.997759e+01
   4.255209e+01   9.160186e+01
  -6.199716e+01   7.880081e+01
  -5.319660e+01   1.096721e+01
   3.735539e+01  -3.018478e+01
   9.487821e+01   1.920863e+01
   3.841917e+01   1.227318e+02
  -9.206932e+01   1.638611e+02
  -1.753674e+02   6.830103e+01
  -1.357069e+02  -1.044518e+02
  -1.388804e+01  -2.084367e+02
   8.860573e+01  -1.533247e+02
   1.115330e+02   5.251057e+00
   6.784957e+01   1.234054e+02
   2.276553e+00   1.132251e+02
  -4.675379e+01   2.354892e+01
  -5.636220e+01  -3.145033e+01
  -2.884668e+01  -8.957023e+00
  -3.290017e+00   2.226948e+01
  -2.021013e+01  -1.313216e+01
  -5.996931e+01  -8.937579e+01
  -4.817067e+01  -1.131573e+02
   4.666971e+01  -4.941326e+01
   1.461458e+02   3.726825e+01
   1.383988e+02   7.133908e+01
   1.855834e+01   5.211350e+01
  -9.349204e+01   2.564707e+01
  -9.292548e+01   9.877725e+00
  -1.028217e+01  -8.491215e+00
   4.147081e+01  -2.560975e+01
   1.493741e+01  -1.999540e+01
  -2.234486e+01   2.473749e+00
   6.269210e+00   9.976904e+00
   7.791821e+01   2.147197e+00
   9.588098e+01   2.251967e+01
   1.009014e+01   8.407896e+01
  -1.208496e+02   1.222442e+02
  -1.906688e+02   6.418292e+01
  -1.473524e+02  -6.875011e+01
  -2.968227e+01  -1.682455e+02
   7.834851e+01  -1.556528e+02
   1.168082e+02  -6.121486e+01
   8.418853e+01   2.100304e+01
   2.622335e+01   3.539595e+01
  -4.423237e+00   8.452724e+00
   9.115203e+00   3.297201e+00
   3.570926e+01   4.515789e+01
   2.756859e+01   9.112617e+01
  -2.733414e+01   7.444085e+01
  -8.488398e+01  -1.728972e+01
  -8.272854e+01  -1.113775e+02
  -5.548446e+00  -1.175332e+02
   8.753721e+01  -2.640269e+01
   1.099692e+02   7.772244e+01
   3.515257e+01   1.079450e+02
  -6.841450e+01   5.867815e+01
  -1.013633e+02  -1.107350e+01
  -4.075100e+01  -5.111140e+01
   3.333894e+01  -5.303970e+01
   3.161235e+01  -2.915649e+01
  -3.548795e+01   1.750719e+00
  -7.188575e+01   9.653132e+00
  -1.685098e+01  -2.435696e+01
   7.893459e+01  -7.062388e+01
   1.165084e+02  -6.578675e+01
   6.554233e+01   8.357027e+00
  -1.335943e+01   8.539471e+01
  -5.055921e+01   8.366169e+01
  -3.616877e+01   6.931050e+00
  -2.381070e+00  -5.745295e+01
   2.531325e+01  -4.417940e+01
   3.787779e+01   1.867761e+01
   2.860742e+01   5.500249e+01
  -2.679167e+00   3.378010e+01
  -3.518101e+01  -7.681878e+00
  -4.178314e+01  -2.055531e+01
  -2.122304e+01  -1.847492e+00
   1.265213e+00   1.163045e+01
   8.322536e+00  -5.905020e+00
   9.272582e+00  -3.793438e+01
   2.020039e+01  -4.378183e+01
   3.465308e+01  -4.596495e+00
   2.990937e+01   4.941389e+01
  -4.892033e+00   6.482231e+01
  -4.803403e+01   2.165532e+01
  -5.955709e+01  -4.149205e+01
  -1.639971e+01  -6.704750e+01
   5.543608e+01  -3.738204e+01
   9.202283e+01   1.397417e+01
   5.252223e+01   4.437407e+01
  -2.815098e+01   4.181198e+01
  -6.618742e+01   2.247208e+01
  -2.390679e+01   5.343763e+00
   4.064374e+01   2.517357e+00
   4.063633e+01   1.692491e+01
  -3.225822e+01   3.410355e+01
  -9.661203e+01   2.286439e+01
