
 $NMID
 id='ANONYMOUS ', fmtdat='(2E16.6)'
 volume=1.0
 tramp=1.0
 $END
  -3.648401e+03   1.714693e+02
  -2.153089e+03  -1.982827e+03
   2.098958e+02  -2.399664e+03
   1.587087e+03  -1.142945e+03
   1.105425e+03   1.047693e+02
  -1.520110e+02   3.984159e+02
  -5.778547e+02  -3.037335e+02
  -3.372834e+00  -7.336148e+02
   5.445439e+02  -6.950308e+02
   6.639649e+02  -8.005590e+01
   4.357602e+02   5.845918e+02
  -2.649310e+01   8.398693e+02
  -4.202578e+02   2.458257e+02
  -2.906442e+02  -4.873927e+02
   1.353603e+02  -6.044641e+02
   4.568018e+02  -5.089677e+01
   2.335118e+02   5.208138e+02
  -2.057214e+02   5.716447e+02
  -4.826839e+02   1.992396e+02
  -4.256968e+02  -2.156629e+02
  -1.203694e+02  -3.617615e+02
   1.257201e+02  -2.383215e+02
   9.289885e+01  -5.423976e+01
  -1.694578e+02  -5.186474e+01
  -3.378236e+02  -1.970779e+02
  -1.033910e+02  -3.757987e+02
   4.204328e+02  -2.616545e+02
   6.910473e+02   1.077504e+02
   3.094788e+02   3.947856e+02
  -2.963457e+02   3.051247e+02
  -5.520266e+02  -4.673063e+01
  -2.400877e+02  -3.822174e+02
   2.497126e+02  -3.806480e+02
   4.559509e+02  -1.707007e+02
   3.542668e+02   1.683390e+02
   7.687570e+01   3.461299e+02
  -7.700145e+01   2.357371e+02
  -4.493554e+01  -1.223261e+02
   1.663946e+02  -2.631232e+02
   2.841623e+02   7.284245e+01
   1.225278e+02   5.409418e+02
  -2.495776e+02   5.404592e+02
  -4.170421e+02   3.264543e+01
  -1.779413e+02  -3.697491e+02
   1.815391e+02  -2.033322e+02
   2.399401e+02   2.673915e+02
  -7.519921e+01   4.293924e+02
  -4.565433e+02   8.994404e+01
  -5.054437e+02  -3.653353e+02
  -1.599858e+02  -4.987377e+02
   3.131016e+02  -2.789664e+02
   5.431897e+02   6.099710e+01
   3.546093e+02   2.835951e+02
  -7.184223e+01   2.821374e+02
  -3.413268e+02   9.843971e+01
  -2.407245e+02  -7.157880e+01
   2.031313e+01  -5.892204e+01
   8.223069e+01   7.521884e+01
  -1.145256e+02   1.099068e+02
  -2.712546e+02  -4.085300e+01
  -1.451936e+02  -2.233767e+02
   1.546853e+02  -2.576908e+02
   3.312108e+02  -1.265460e+02
   2.434929e+02   8.027996e+01
  -7.825784e+00   2.727386e+02
  -2.404457e+02   3.463811e+02
  -3.304480e+02   1.980208e+02
  -2.485182e+02  -1.177585e+02
  -7.428066e+01  -3.540482e+02
   4.923530e+01  -3.280346e+02
   5.422517e+01  -1.503847e+02
   2.675634e+01  -6.161123e+01
   8.641206e+01  -9.954287e+01
   2.060671e+02  -8.102630e+01
   2.421539e+02   8.618178e+01
   1.211935e+02   2.467584e+02
  -7.423083e+01   2.042063e+02
  -1.965701e+02  -1.975830e+01
  -1.608763e+02  -2.273321e+02
   2.333990e+01  -2.560874e+02
   2.385662e+02  -9.498291e+01
   3.217215e+02   1.391606e+02
   1.891114e+02   2.943448e+02
  -4.479444e+01   2.820785e+02
  -1.736048e+02   1.562910e+02
  -1.484893e+02   6.069328e+01
  -1.311462e+02   5.582689e+01
  -2.504447e+02   4.971551e+01
  -3.863912e+02  -6.333031e+01
  -3.184065e+02  -2.660655e+02
  -2.500035e+00  -4.166620e+02
   3.379827e+02  -3.968388e+02
   4.496861e+02  -1.937100e+02
   2.939776e+02   7.463494e+01
   4.528632e+01   2.459792e+02
  -8.929851e+01   2.074405e+02
  -2.698111e+01   3.480598e+01
   1.122807e+02  -6.272921e+01
   1.543020e+02   2.270258e+01
   2.901151e+01   1.619040e+02
  -1.274304e+02   1.347091e+02
  -1.404668e+02  -4.610489e+01
   1.277590e+01  -1.515178e+02
   1.670663e+02  -2.001219e+01
   1.599739e+02   2.241339e+02
  -1.321913e+01   3.308654e+02
  -2.227263e+02   1.976541e+02
  -3.316574e+02  -5.329450e+01
  -2.725483e+02  -2.329265e+02
  -8.053696e+01  -2.497450e+02
   1.097448e+02  -1.410384e+02
   1.537448e+02  -1.965020e+01
   4.564942e+01   1.150747e+01
  -5.584782e+01  -5.217399e+01
  -1.388676e+01  -1.104070e+02
   1.143616e+02  -7.441455e+01
   1.517864e+02   1.937691e+01
   3.983351e+01   5.733557e+01
  -8.133077e+01  -5.155844e+00
  -4.555099e+01  -8.877986e+01
   1.356757e+02  -9.001548e+01
   2.860536e+02   1.053878e+01
   2.503527e+02   1.499003e+02
   3.935801e+01   2.442891e+02
  -1.853237e+02   2.299822e+02
  -2.548060e+02   1.058167e+02
  -1.386946e+02  -3.955129e+01
   2.663273e+01  -8.395985e+01
   7.033409e+01  -2.928343e+00
  -4.209005e+01   8.304767e+01
  -1.779618e+02   4.478044e+01
  -1.876675e+02  -9.357529e+01
  -5.948929e+01  -1.845468e+02
   8.540362e+01  -1.382297e+02
   1.256823e+02  -2.171314e+01
   5.269753e+01   3.490004e+01
  -3.487344e+01  -1.322866e+01
  -2.839019e+01  -9.429609e+01
   8.545997e+01  -1.080955e+02
   1.981081e+02  -1.687794e+01
   1.776172e+02   1.212270e+02
   1.460652e+01   1.998446e+02
  -1.514613e+02   1.516889e+02
  -1.737417e+02   1.490732e+01
  -5.756649e+01  -9.515929e+01
   5.905080e+01  -9.958385e+01
   7.004805e+01  -2.934694e+01
   5.921747e+00   2.225223e+01
  -3.039304e+01   1.018905e+01
   1.031492e+01  -2.112763e+01
   8.096120e+01  -1.363225e-01
   9.803398e+01   8.349653e+01
   1.691448e+01   1.624329e+02
  -1.257930e+02   1.482859e+02
  -2.241257e+02   1.939916e+01
  -1.894291e+02  -1.434925e+02
  -4.247221e+01  -2.186769e+02
   9.649496e+01  -1.583335e+02
   1.271771e+02  -3.173498e+01
   7.162079e+01   4.444155e+01
   3.249283e+01   3.131352e+01
   5.207966e+01  -1.131903e+01
   8.153674e+01  -6.375201e+00
   4.860149e+01   5.286750e+01
  -3.866843e+01   9.626919e+01
  -1.113525e+02   6.168727e+01
  -9.636554e+01  -3.918662e+01
   1.362631e+01  -1.171267e+02
   1.488202e+02  -8.548609e+01
   1.955267e+02   5.684542e+01
   8.944384e+01   1.991150e+02
  -1.111546e+02   2.157127e+02
  -2.572250e+02   8.725211e+01
  -2.424081e+02  -8.002533e+01
  -1.019678e+02  -1.625506e+02
   3.510463e+01  -1.362387e+02
   8.441233e+01  -8.079001e+01
   6.805120e+01  -7.006812e+01
   5.743949e+01  -9.183672e+01
   8.613809e+01  -7.586551e+01
   1.238764e+02   1.725395e+01
   1.151351e+02   1.442712e+02
   3.184378e+01   2.128744e+02
  -8.860668e+01   1.613209e+02
  -1.610269e+02   1.865199e+01
  -1.261284e+02  -1.136413e+02
  -1.677462e+01  -1.465932e+02
   6.624245e+01  -8.033509e+01
   5.783682e+01   8.046487e+00
  -2.385659e+00   4.675257e+01
  -2.242371e+01   3.237443e+01
   2.822870e+01   1.120506e+01
   8.082855e+01   1.631004e+01
   4.864787e+01   3.689361e+01
  -6.569427e+01   3.804931e+01
  -1.610203e+02   1.963653e+00
  -1.375984e+02  -5.442537e+01
  -4.425174e+00  -8.928779e+01
   1.232053e+02  -7.057790e+01
   1.369818e+02  -8.367123e+00
   4.181110e+01   4.518089e+01
  -5.847601e+01   4.053560e+01
  -7.497885e+01  -1.763213e+01
  -1.614779e+01  -7.015024e+01
   4.579750e+01  -6.236867e+01
   6.383929e+01  -2.895148e+00
   5.207838e+01   4.622117e+01
   4.594387e+01   3.879972e+01
   5.661267e+01   4.870819e-01
   6.485575e+01   7.942849e-01
   4.310110e+01   6.908527e+01
  -2.443331e+01   1.469677e+02
  -1.171195e+02   1.429408e+02
  -1.710194e+02   3.662088e+01
  -1.268815e+02  -8.846726e+01
  -4.750945e+00  -1.283691e+02
   8.860674e+01  -6.787509e+01
   6.112526e+01   1.165733e+01
  -5.673759e+01   2.411256e+01
  -1.324304e+02  -3.538269e+01
  -7.230023e+01  -1.009696e+02
   7.684959e+01  -1.084131e+02
   1.794973e+02  -4.926104e+01
   1.508641e+02   3.321898e+01
   3.288573e+01   8.009406e+01
  -5.698690e+01   6.135472e+01
  -4.456263e+01   2.056917e+00
   3.761399e+01  -2.880826e+01
   8.800606e+01   1.803418e+01
   3.983220e+01   1.110459e+02
  -7.383516e+01   1.512000e+02
  -1.512400e+02   7.001443e+01
  -1.242663e+02  -8.573636e+01
  -1.956962e+01  -1.841751e+02
   7.584218e+01  -1.367779e+02
   9.947410e+01   7.647651e+00
   5.595717e+01   1.130654e+02
  -7.674624e+00   9.889305e+01
  -4.714731e+01   1.568790e+01
  -4.524576e+01  -2.972052e+01
  -1.833461e+01  -6.204116e+00
  -4.526088e+00   1.851034e+01
  -2.682824e+01  -1.814869e+01
  -5.715154e+01  -8.498361e+01
  -3.641525e+01  -1.006123e+02
   4.974005e+01  -4.150285e+01
   1.313441e+02   3.343404e+01
   1.209569e+02   6.277898e+01
   1.841051e+01   4.808159e+01
  -7.854319e+01   2.521987e+01
  -8.284492e+01   8.391874e+00
  -1.484872e+01  -9.559384e+00
   3.390703e+01  -2.172759e+01
   1.744640e+01  -1.362508e+01
  -1.542634e+01   4.687052e+00
   2.867214e+00   6.473193e+00
   6.387130e+01  -2.680212e+00
   8.803757e+01   1.752068e+01
   2.031323e+01   7.669414e+01
  -1.008001e+02   1.154842e+02
  -1.772672e+02   6.622969e+01
  -1.453762e+02  -5.527915e+01
  -3.297882e+01  -1.520932e+02
   7.406992e+01  -1.473427e+02
   1.095473e+02  -6.202802e+01
   7.532267e+01   1.757061e+01
   2.261332e+01   3.464897e+01
  -6.082715e-01   1.067920e+01
   1.215582e+01   5.569963e+00
   3.075983e+01   4.361956e+01
   2.023149e+01   8.434208e+01
  -2.603838e+01   6.788097e+01
  -7.547075e+01  -1.390184e+01
  -7.804095e+01  -9.766655e+01
  -1.384689e+01  -1.070224e+02
   7.364996e+01  -3.166781e+01
   1.041248e+02   6.198160e+01
   4.063865e+01   9.865095e+01
  -6.004444e+01   6.192211e+01
  -9.903132e+01  -5.787718e+00
  -4.399297e+01  -5.353835e+01
   3.130127e+01  -5.845100e+01
   3.626637e+01  -2.881501e+01
  -2.595183e+01   6.053025e+00
  -6.448777e+01   1.098031e+01
  -1.684930e+01  -2.465726e+01
   7.280484e+01  -6.495273e+01
   1.108467e+02  -5.550738e+01
   6.487859e+01   1.268213e+01
  -1.123236e+01   7.980164e+01
  -5.000408e+01   7.804780e+01
  -3.860366e+01   1.094768e+01
  -6.114792e+00  -4.938371e+01
   2.131897e+01  -4.350816e+01
   3.457162e+01   1.106200e+01
   2.803614e+01   4.906131e+01
   3.050800e-01   3.471905e+01
  -3.095798e+01  -4.918738e+00
  -3.920302e+01  -2.124445e+01
  -1.971679e+01  -2.469585e+00
   2.829008e+00   1.750660e+01
   6.122602e+00   4.581120e+00
  -9.250964e-01  -3.289558e+01
   6.081186e+00  -4.977193e+01
   2.878364e+01  -1.765401e+01
   3.816957e+01   3.774310e+01
   9.184081e+00   6.077616e+01
  -4.079575e+01   2.620347e+01
  -6.148720e+01  -3.237257e+01
  -2.062514e+01  -5.976141e+01
   5.258548e+01  -3.671357e+01
   8.902174e+01   8.837686e+00
   4.999017e+01   3.932533e+01
  -2.621465e+01   4.177326e+01
  -6.153654e+01   2.603533e+01
  -2.498217e+01   6.483945e+00
   3.158248e+01  -2.690991e+00
   3.515818e+01   7.716557e+00
  -2.255438e+01   2.718138e+01
  -7.717125e+01   2.340599e+01
