
 $NMID
 id='ANONYMOUS ', fmtdat='(2E16.6)'
 volume=1.0
 tramp=1.0
 $END
  -5.076515e+03  -3.467977e+01
  -2.736649e+03  -2.877465e+03
   6.899249e+02  -3.180927e+03
   2.351831e+03  -1.140112e+03
   1.041947e+03   6.874507e+02
  -6.944960e+02   7.914294e+02
  -9.549267e+02  -5.031063e+02
  -3.952540e+00  -1.254887e+03
   8.960605e+02  -8.150753e+02
   1.159331e+03   1.060084e+02
   5.392314e+02   8.948526e+02
  -2.824086e+02   1.005014e+03
  -7.940988e+02   1.409637e+02
  -4.179630e+02  -7.904066e+02
   3.029164e+02  -8.338711e+02
   6.974388e+02  -1.088049e+01
   2.995629e+02   7.587707e+02
  -3.685786e+02   7.129782e+02
  -6.602245e+02   8.034263e+01
  -4.387743e+02  -4.571329e+02
   3.889121e+00  -4.837661e+02
   2.606442e+02  -2.813112e+02
   2.412176e+02   1.503846e+01
  -1.235008e+02   1.409215e+02
  -4.703275e+02  -7.571264e+01
  -2.763808e+02  -4.510112e+02
   4.623525e+02  -4.452193e+02
   9.506237e+02   3.975668e+01
   5.098092e+02   6.007675e+02
  -4.094493e+02   5.621349e+02
  -8.249799e+02   1.730061e+01
  -3.984149e+02  -5.331757e+02
   3.017946e+02  -5.580557e+02
   6.363671e+02  -2.352856e+02
   4.620430e+02   2.654873e+02
   7.111090e+01   5.067272e+02
  -2.345087e+02   3.069276e+02
  -2.411474e+02  -2.623073e+02
   1.639024e+02  -5.291966e+02
   5.332756e+02  -9.747790e+00
   3.184476e+02   7.623779e+02
  -3.533603e+02   8.026029e+02
  -7.042322e+02   1.313191e+01
  -3.115914e+02  -6.496496e+02
   3.355251e+02  -3.854956e+02
   4.617003e+02   3.479522e+02
  -5.637307e+01   6.265366e+02
  -6.110936e+02   1.695632e+02
  -6.525657e+02  -4.415096e+02
  -1.720598e+02  -6.464826e+02
   4.306288e+02  -3.856556e+02
   6.906608e+02   8.410122e+01
   4.012780e+02   4.347609e+02
  -1.831849e+02   4.157942e+02
  -4.982460e+02   5.502425e+01
  -2.617499e+02  -2.418800e+02
   1.506582e+02  -1.362503e+02
   1.755765e+02   1.805449e+02
  -1.781515e+02   2.249397e+02
  -3.814627e+02  -8.190270e+01
  -1.485363e+02  -3.350176e+02
   2.225161e+02  -2.654193e+02
   3.365227e+02  -5.269125e+01
   1.841514e+02   8.245807e+01
  -2.165357e+01   1.924723e+02
  -1.955729e+02   3.191232e+02
  -3.303753e+02   2.528428e+02
  -3.199325e+02  -1.114348e+02
  -1.041933e+02  -4.541700e+02
   1.271760e+02  -4.090183e+02
   1.456565e+02  -1.046264e+02
   1.927964e+01   3.057863e+01
   1.417422e+01  -9.777529e+01
   1.868496e+02  -1.623574e+02
   3.043594e+02   4.007272e+01
   1.882799e+02   2.908544e+02
  -6.693804e+01   2.835613e+02
  -2.427962e+02   2.441699e+01
  -2.175703e+02  -2.390405e+02
  -1.682377e+00  -3.055011e+02
   2.699291e+02  -1.386280e+02
   3.792879e+02   1.527137e+02
   2.019494e+02   3.629246e+02
  -1.040330e+02   3.322837e+02
  -2.400375e+02   1.301385e+02
  -1.559998e+02  -8.885955e+00
  -8.920842e+01   2.632509e+01
  -2.256630e+02   8.185587e+01
  -4.086415e+02  -3.124187e+01
  -3.528996e+02  -2.768435e+02
  -1.678856e+01  -4.576396e+02
   3.493849e+02  -4.410633e+02
   4.973888e+02  -2.219763e+02
   3.615158e+02   8.971587e+01
   7.615325e+01   3.109038e+02
  -1.391756e+02   2.698298e+02
  -1.030653e+02   2.402453e+01
   1.048712e+02  -1.338363e+02
   2.212367e+02  -5.065720e+00
   6.928561e+01   2.146859e+02
  -1.699664e+02   1.938380e+02
  -2.018369e+02  -6.291947e+01
   1.058882e+01  -2.163364e+02
   2.076539e+02  -4.691285e+01
   1.762885e+02   2.534230e+02
  -2.628262e+01   3.589245e+02
  -2.232126e+02   1.956246e+02
  -3.188037e+02  -5.738338e+01
  -2.847452e+02  -2.270643e+02
  -1.156671e+02  -2.594409e+02
   1.033812e+02  -1.685787e+02
   1.883504e+02  -2.904988e+01
   7.043435e+01   3.467250e+01
  -7.736845e+01  -3.421808e+01
  -4.737500e+01  -1.310910e+02
   1.182315e+02  -1.127866e+02
   1.887993e+02   5.410764e+00
   7.025295e+01   7.457649e+01
  -7.641525e+01   2.095266e+01
  -5.833457e+01  -7.030546e+01
   1.164994e+02  -8.703248e+01
   2.750525e+02  -6.716720e+00
   2.649832e+02   1.257998e+02
   7.406921e+01   2.462770e+02
  -1.697847e+02   2.691634e+02
  -2.826683e+02   1.437240e+02
  -1.794771e+02  -4.493695e+01
   2.090420e+01  -1.190663e+02
   9.886270e+01  -1.769310e+01
  -2.431610e+01   1.059921e+02
  -1.967689e+02   7.200968e+01
  -2.206764e+02  -9.614425e+01
  -7.445770e+01  -2.115947e+02
   9.474710e+01  -1.643057e+02
   1.489899e+02  -3.168168e+01
   7.808901e+01   4.455666e+01
  -2.338542e+01   1.144089e+01
  -4.255065e+01  -7.300580e+01
   5.828361e+01  -1.095886e+02
   1.885727e+02  -3.622947e+01
   1.936431e+02   1.137214e+02
   2.833711e+01   2.162848e+02
  -1.637201e+02   1.687716e+02
  -1.990570e+02   7.894564e+00
  -6.845854e+01  -1.196804e+02
   6.825007e+01  -1.177137e+02
   8.585030e+01  -3.362995e+01
   2.104224e+01   2.496321e+01
  -1.739410e+01   1.887930e+01
   1.220751e+01  -6.877448e+00
   6.870282e+01   7.558328e+00
   8.610181e+01   7.605636e+01
   2.097585e+01   1.525585e+02
  -1.139896e+02   1.559028e+02
  -2.263554e+02   3.774586e+01
  -2.052584e+02  -1.417153e+02
  -4.868216e+01  -2.381883e+02
   1.066966e+02  -1.744901e+02
   1.377017e+02  -2.702310e+01
   7.031133e+01   5.876437e+01
   2.878906e+01   3.847031e+01
   5.342604e+01  -1.201376e+01
   7.748080e+01  -6.145153e+00
   3.496075e+01   4.639250e+01
  -4.389855e+01   8.045845e+01
  -9.530332e+01   5.193084e+01
  -7.838603e+01  -3.035748e+01
   9.174016e+00  -1.024364e+02
   1.290707e+02  -8.622351e+01
   1.918889e+02   4.011117e+01
   1.107969e+02   1.901946e+02
  -9.157151e+01   2.279981e+02
  -2.607720e+02   1.051631e+02
  -2.622053e+02  -7.723957e+01
  -1.157894e+02  -1.731323e+02
   3.566534e+01  -1.479416e+02
   9.474746e+01  -8.654417e+01
   8.058444e+01  -7.176494e+01
   6.743448e+01  -9.169393e+01
   9.084112e+01  -7.339222e+01
   1.252791e+02   2.149491e+01
   1.177142e+02   1.509339e+02
   3.526507e+01   2.236042e+02
  -9.157146e+01   1.747342e+02
  -1.735810e+02   2.764193e+01
  -1.411605e+02  -1.151940e+02
  -2.706088e+01  -1.580128e+02
   6.057634e+01  -9.579787e+01
   5.726797e+01  -6.407905e+00
   7.769238e+00   3.766874e+01
  -3.738461e+00   3.269999e+01
   4.070530e+01   1.995564e+01
   7.737362e+01   2.528379e+01
   4.046676e+01   3.857133e+01
  -6.368362e+01   3.584771e+01
  -1.533084e+02   3.918837e+00
  -1.408015e+02  -4.764238e+01
  -1.874604e+01  -8.564356e+01
   1.150158e+02  -7.500226e+01
   1.427549e+02  -1.781937e+01
   4.931097e+01   3.602825e+01
  -5.785374e+01   3.445833e+01
  -7.181305e+01  -1.844580e+01
  -2.469842e+00  -6.408677e+01
   5.788293e+01  -5.274640e+01
   5.927881e+01   4.125299e+00
   3.819977e+01   4.853797e+01
   4.199453e+01   3.966816e+01
   6.401705e+01   1.432556e+00
   6.713961e+01  -3.420118e-01
   3.303574e+01   6.533529e+01
  -3.287079e+01   1.441510e+02
  -1.110590e+02   1.426633e+02
  -1.579721e+02   3.705693e+01
  -1.224315e+02  -8.855881e+01
  -1.080124e+01  -1.261878e+02
   8.214530e+01  -6.217552e+01
   5.914906e+01   1.561397e+01
  -5.871465e+01   2.167667e+01
  -1.379240e+02  -4.182039e+01
  -7.720496e+01  -1.074271e+02
   7.923738e+01  -1.154288e+02
   1.903304e+02  -5.780066e+01
   1.644519e+02   2.945844e+01
   4.178880e+01   8.736067e+01
  -5.663233e+01   7.556824e+01
  -4.848580e+01   1.189708e+01
   3.630474e+01  -2.636848e+01
   8.918638e+01   2.082382e+01
   3.507694e+01   1.183595e+02
  -8.859141e+01   1.563426e+02
  -1.675366e+02   6.521227e+01
  -1.298241e+02  -9.819865e+01
  -1.425383e+01  -1.962082e+02
   8.190383e+01  -1.446816e+02
   1.026839e+02   3.909378e+00
   6.209149e+01   1.143344e+02
   2.686679e+00   1.043631e+02
  -4.210346e+01   1.982554e+01
  -5.205961e+01  -3.042627e+01
  -2.795866e+01  -6.828709e+00
  -3.835482e+00   2.373053e+01
  -1.838744e+01  -1.199009e+01
  -5.592461e+01  -8.756365e+01
  -4.625763e+01  -1.105563e+02
   4.280445e+01  -4.666300e+01
   1.385219e+02   3.827529e+01
   1.329124e+02   6.909560e+01
   1.892989e+01   4.738935e+01
  -8.880573e+01   2.216191e+01
  -8.844597e+01   1.065028e+01
  -8.961556e+00  -4.610293e+00
   3.983454e+01  -2.228245e+01
   1.239270e+01  -1.929770e+01
  -2.441872e+01   1.956588e+00
   4.283596e+00   1.027048e+01
   7.424493e+01   2.989696e+00
   9.076163e+01   2.116931e+01
   7.002774e+00   7.857777e+01
  -1.183583e+02   1.144615e+02
  -1.826346e+02   5.845839e+01
  -1.382788e+02  -6.822526e+01
  -2.511546e+01  -1.611347e+02
   7.651857e+01  -1.465471e+02
   1.106541e+02  -5.572704e+01
   7.754912e+01   2.068084e+01
   2.244338e+01   3.213638e+01
  -4.420612e+00   5.920356e+00
   1.072596e+01   2.269365e+00
   3.537577e+01   4.357174e+01
   2.492810e+01   8.769686e+01
  -2.856987e+01   7.051209e+01
  -8.131597e+01  -1.848997e+01
  -7.630173e+01  -1.085993e+02
  -2.324638e+00  -1.124216e+02
   8.396491e+01  -2.281158e+01
   1.034404e+02   7.687766e+01
   3.198825e+01   1.029809e+02
  -6.546872e+01   5.342394e+01
  -9.575885e+01  -1.235444e+01
  -3.747644e+01  -4.755667e+01
   3.221955e+01  -4.789399e+01
   2.873651e+01  -2.690338e+01
  -3.648144e+01  -2.886081e-01
  -6.947758e+01   6.710203e+00
  -1.348471e+01  -2.420495e+01
   7.871174e+01  -6.638290e+01
   1.116004e+02  -6.099281e+01
   5.981801e+01   9.469774e+00
  -1.540716e+01   8.136653e+01
  -4.788096e+01   7.805400e+01
  -3.228333e+01   4.845679e+00
  -9.787634e-01  -5.469127e+01
   2.305771e+01  -3.949581e+01
   3.401666e+01   2.015145e+01
   2.577219e+01   5.166881e+01
  -2.513985e+00   2.881050e+01
  -3.221378e+01  -9.769217e+00
  -3.841873e+01  -1.904287e+01
  -2.021099e+01   5.097785e-01
   8.220006e-03   1.236088e+01
   6.892233e+00  -6.430612e+00
   1.026216e+01  -3.800001e+01
   2.202760e+01  -4.225169e+01
   3.433539e+01  -2.736428e+00
   2.667773e+01   4.958465e+01
  -7.651015e+00   6.303834e+01
  -4.725709e+01   1.974930e+01
  -5.607412e+01  -4.167546e+01
  -1.441413e+01  -6.507327e+01
   5.303890e+01  -3.458632e+01
   8.701413e+01   1.522049e+01
   4.899588e+01   4.241497e+01
  -2.752323e+01   3.778024e+01
  -6.251473e+01   1.901394e+01
  -2.073144e+01   4.773288e+00
   4.088966e+01   4.658488e+00
   3.895395e+01   1.938796e+01
  -3.295246e+01   3.472931e+01
  -9.431807e+01   2.180973e+01
