
 $NMID
 id='ANONYMOUS ', fmtdat='(2E16.6)'
 volume=1.0
 tramp=1.0
 $END
   4.537520e+03  -4.624993e+01
   2.587941e+03   2.621399e+03
  -5.194622e+02   2.812424e+03
  -1.962249e+03   1.095356e+03
  -1.276970e+03  -6.403459e+02
   7.768804e+02  -5.229863e+02
   9.542829e+02   3.762049e+02
   1.382686e+01   9.749727e+02
  -7.601238e+02   7.670334e+02
  -1.049490e+03  -4.034290e+01
  -3.909843e+02  -8.735548e+02
   2.095699e+02  -9.396280e+02
   5.920847e+02  -1.328983e+02
   3.743127e+02   6.789639e+02
  -2.527176e+02   7.820591e+02
  -5.971565e+02   1.577011e+01
  -2.448714e+02  -7.008520e+02
   3.021075e+02  -6.482998e+02
   5.135538e+02  -9.259819e+01
   3.978134e+02   3.174949e+02
   2.882367e+01   4.057764e+02
  -2.257317e+02   2.555841e+02
  -1.937322e+02   2.414330e+01
   1.216163e+02  -4.959744e+01
   4.158331e+02   1.157734e+02
   1.982307e+02   4.238083e+02
  -4.570626e+02   4.174458e+02
  -8.350997e+02  -4.836085e+01
  -4.279305e+02  -5.190542e+02
   3.962142e+02  -4.584532e+02
   7.303051e+02   5.097791e+01
   3.329839e+02   4.903401e+02
  -3.125316e+02   5.015710e+02
  -5.729233e+02   1.856132e+02
  -4.112705e+02  -2.266626e+02
  -8.402862e+01  -4.913216e+02
   2.309227e+02  -3.191255e+02
   2.128216e+02   1.970238e+02
  -1.409255e+02   4.555013e+02
  -4.690035e+02   1.389612e-01
  -2.725262e+02  -6.968804e+02
   3.446323e+02  -7.137483e+02
   6.507979e+02   1.577087e+01
   2.648870e+02   6.030181e+02
  -3.284091e+02   3.408223e+02
  -4.254584e+02  -3.448457e+02
   7.328483e+01  -5.772922e+02
   5.799238e+02  -1.391993e+02
   5.967344e+02   4.204010e+02
   1.474227e+02   5.868562e+02
  -3.950031e+02   3.343669e+02
  -6.300717e+02  -8.496717e+01
  -3.664787e+02  -3.888143e+02
   1.654411e+02  -3.711938e+02
   4.518029e+02  -5.230967e+01
   2.408430e+02   2.097892e+02
  -1.348747e+02   1.216424e+02
  -1.624956e+02  -1.583801e+02
   1.578880e+02  -2.028890e+02
   3.470779e+02   6.861323e+01
   1.319068e+02   3.036268e+02
  -2.194970e+02   2.482657e+02
  -3.315855e+02   4.390873e+01
  -1.806828e+02  -1.031879e+02
   3.502344e+01  -2.087007e+02
   2.127873e+02  -2.970052e+02
   3.271731e+02  -2.067660e+02
   2.909725e+02   1.271139e+02
   7.567549e+01   4.219351e+02
  -1.331105e+02   3.726226e+02
  -1.403016e+02   1.025660e+02
  -2.796344e+01  -1.849051e+01
  -3.241848e+01   8.436154e+01
  -1.856034e+02   1.273529e+02
  -2.710608e+02  -5.620413e+01
  -1.512077e+02  -2.706707e+02
   7.377791e+01  -2.530259e+02
   2.195673e+02  -1.697547e+01
   1.910233e+02   2.230878e+02
   1.765205e-01   2.825076e+02
  -2.437859e+02   1.264727e+02
  -3.488762e+02  -1.458131e+02
  -1.892117e+02  -3.420929e+02
   1.016945e+02  -3.133227e+02
   2.361371e+02  -1.172523e+02
   1.542297e+02   1.541504e+01
   8.550539e+01  -1.711831e+01
   2.108698e+02  -6.370855e+01
   3.800541e+02   4.634740e+01
   3.210211e+02   2.754066e+02
  -2.870315e-01   4.320698e+02
  -3.448173e+02   3.981990e+02
  -4.713509e+02   1.912934e+02
  -3.290707e+02  -9.297893e+01
  -5.795225e+01  -2.909881e+02
   1.306359e+02  -2.572257e+02
   9.021766e+01  -3.160181e+01
  -1.007057e+02   1.128512e+02
  -1.928406e+02   1.290946e+00
  -5.033926e+01  -1.950162e+02
   1.641823e+02  -1.794884e+02
   1.812945e+02   5.773233e+01
  -1.862762e+01   1.935850e+02
  -1.906856e+02   3.312815e+01
  -1.476593e+02  -2.429670e+02
   4.884498e+01  -3.322662e+02
   2.267833e+02  -1.690672e+02
   3.005712e+02   7.222949e+01
   2.550687e+02   2.249974e+02
   9.404903e+01   2.472722e+02
  -1.018423e+02   1.580112e+02
  -1.728533e+02   2.869956e+01
  -6.435858e+01  -2.903198e+01
   6.512321e+01   3.376163e+01
   3.186636e+01   1.208980e+02
  -1.192255e+02   1.008012e+02
  -1.776159e+02  -1.037168e+01
  -6.285397e+01  -7.247610e+01
   7.278309e+01  -1.833289e+01
   5.161102e+01   6.722691e+01
  -1.145755e+02   7.649427e+01
  -2.610752e+02  -6.592791e+00
  -2.454693e+02  -1.317724e+02
  -6.024246e+01  -2.354685e+02
   1.694417e+02  -2.452557e+02
   2.706313e+02  -1.236447e+02
   1.684731e+02   4.738778e+01
  -2.162893e+01   1.079408e+02
  -9.266247e+01   9.599615e+00
   2.574234e+01  -1.011998e+02
   1.876648e+02  -6.160923e+01
   2.077064e+02   9.815712e+01
   6.776777e+01   2.019323e+02
  -9.114303e+01   1.517480e+02
  -1.388925e+02   2.629204e+01
  -6.900382e+01  -4.073862e+01
   2.449445e+01  -4.371437e+00
   3.589675e+01   7.472724e+01
  -6.425103e+01   1.031322e+02
  -1.856787e+02   2.744668e+01
  -1.834785e+02  -1.152272e+02
  -2.092203e+01  -2.080006e+02
   1.615122e+02  -1.580253e+02
   1.911375e+02  -4.539601e+00
   6.370969e+01   1.133490e+02
  -6.700177e+01   1.091059e+02
  -8.328619e+01   3.010841e+01
  -2.053600e+01  -2.388355e+01
   1.685868e+01  -1.709010e+01
  -1.155483e+01   5.943523e+00
  -6.513749e+01  -1.108130e+01
  -8.028414e+01  -7.760188e+01
  -1.529396e+01  -1.483527e+02
   1.153663e+02  -1.454477e+02
   2.207225e+02  -2.779723e+01
   1.946443e+02   1.420727e+02
   3.943844e+01   2.296670e+02
  -1.088272e+02   1.638490e+02
  -1.322869e+02   2.244745e+01
  -6.382688e+01  -5.820447e+01
  -2.416276e+01  -3.634455e+01
  -5.125905e+01   1.042538e+01
  -7.544659e+01   4.597433e+00
  -3.609312e+01  -4.567926e+01
   4.318043e+01  -7.891000e+01
   9.308533e+01  -4.844991e+01
   7.432705e+01   3.105337e+01
  -1.314891e+01   9.853168e+01
  -1.277144e+02   7.935680e+01
  -1.807774e+02  -4.475575e+01
  -9.656168e+01  -1.863697e+02
   9.610578e+01  -2.156106e+02
   2.503414e+02  -9.215759e+01
   2.437688e+02   8.239040e+01
   1.030660e+02   1.690711e+02
  -3.823588e+01   1.392467e+02
  -9.118713e+01   7.696977e+01
  -7.701320e+01   6.234879e+01
  -6.514538e+01   8.282266e+01
  -8.723229e+01   6.791707e+01
  -1.181435e+02  -2.184628e+01
  -1.079355e+02  -1.451636e+02
  -2.629813e+01  -2.125848e+02
   9.371161e+01  -1.628148e+02
   1.672723e+02  -2.082804e+01
   1.310828e+02   1.144154e+02
   1.969952e+01   1.527713e+02
  -6.300006e+01   9.147885e+01
  -5.712245e+01   5.590940e+00
  -6.535029e+00  -3.686368e+01
   6.619482e+00  -3.234288e+01
  -3.626925e+01  -1.942435e+01
  -7.384166e+01  -2.351270e+01
  -4.072242e+01  -3.566595e+01
   5.845879e+01  -3.275398e+01
   1.448357e+02  -1.324211e+00
   1.323108e+02   4.755238e+01
   1.480543e+01   8.097785e+01
  -1.120381e+02   6.708617e+01
  -1.356743e+02   1.130312e+01
  -4.450327e+01  -3.795223e+01
   5.798979e+01  -3.360496e+01
   7.125498e+01   1.826108e+01
   5.195470e+00   6.268402e+01
  -5.378374e+01   5.273042e+01
  -5.847689e+01  -1.413659e+00
  -3.969703e+01  -4.550573e+01
  -4.041441e+01  -4.022558e+01
  -5.794816e+01  -5.630737e+00
  -6.057659e+01  -3.428668e+00
  -2.926945e+01  -6.253994e+01
   3.408645e+01  -1.322820e+02
   1.102430e+02  -1.271231e+02
   1.521601e+02  -2.662040e+01
   1.109053e+02   8.775622e+01
   3.464117e-01   1.171146e+02
  -8.477174e+01   5.390109e+01
  -5.651251e+01  -1.738271e+01
   5.757044e+01  -1.955463e+01
   1.300034e+02   4.079727e+01
   7.029667e+01   9.920510e+01
  -7.693639e+01   1.033652e+02
  -1.794303e+02   4.829275e+01
  -1.528303e+02  -3.094345e+01
  -3.541147e+01  -8.225828e+01
   5.743475e+01  -6.896563e+01
   4.750442e+01  -9.457198e+00
  -3.487715e+01   2.484642e+01
  -8.470701e+01  -2.085644e+01
  -3.019832e+01  -1.124217e+02
   8.896319e+01  -1.457928e+02
   1.616676e+02  -5.674402e+01
   1.209324e+02   9.873701e+01
   7.586301e+00   1.895956e+02
  -8.407211e+01   1.372985e+02
  -1.009839e+02  -6.483720e+00
  -5.907812e+01  -1.122698e+02
  -3.817326e-01  -1.022599e+02
   4.242646e+01  -2.077359e+01
   5.107635e+01   2.881094e+01
   2.766731e+01   8.344034e+00
   4.725189e+00  -1.952517e+01
   1.715324e+01   1.373038e+01
   4.982365e+01   8.393988e+01
   3.956596e+01   1.044778e+02
  -4.261558e+01   4.315900e+01
  -1.301111e+02  -3.840849e+01
  -1.238361e+02  -6.861504e+01
  -1.731994e+01  -4.768735e+01
   8.398203e+01  -2.097047e+01
   8.473409e+01  -7.588780e+00
   1.058484e+01   6.793968e+00
  -3.685584e+01   2.215757e+01
  -1.352116e+01   1.892335e+01
   2.040939e+01  -7.379137e-01
  -5.789513e+00  -9.860426e+00
  -7.099039e+01  -6.023255e+00
  -8.607950e+01  -2.434216e+01
  -5.584608e+00  -7.601259e+01
   1.145578e+02  -1.058094e+02
   1.757508e+02  -5.140545e+01
   1.319007e+02   6.696360e+01
   2.193400e+01   1.533672e+02
  -7.612178e+01   1.389628e+02
  -1.084385e+02   5.257770e+01
  -7.643262e+01  -2.093071e+01
  -2.348210e+01  -3.275944e+01
   3.501378e+00  -8.320559e+00
  -8.492251e+00  -4.758367e+00
  -3.017931e+01  -4.326358e+01
  -2.042271e+01  -8.395933e+01
   2.855223e+01  -6.627941e+01
   7.663186e+01   1.877098e+01
   7.081554e+01   1.037930e+02
   8.986188e-01   1.071453e+02
  -7.976761e+01   2.188634e+01
  -9.696507e+01  -7.347473e+01
  -2.878345e+01  -9.920190e+01
   6.320435e+01  -5.171262e+01
   9.094741e+01   1.250500e+01
   3.505398e+01   4.698115e+01
  -3.164542e+01   4.624140e+01
  -2.863307e+01   2.513214e+01
   3.333202e+01   3.968513e-01
   6.571083e+01  -5.113635e+00
   1.315034e+01   2.300102e+01
  -7.547653e+01   6.023384e+01
  -1.082855e+02   5.365640e+01
  -5.827348e+01  -1.141929e+01
   1.637953e+01  -7.764979e+01
   4.981494e+01  -7.417564e+01
   3.392910e+01  -4.798626e+00
   1.072611e+00   5.254600e+01
  -2.348479e+01   3.963604e+01
  -3.309248e+01  -1.778426e+01
  -2.429432e+01  -5.046599e+01
   2.534231e+00  -3.007390e+01
   3.079817e+01   7.865886e+00
   3.724475e+01   1.923037e+01
   2.032937e+01   1.649484e+00
   6.657330e-01  -1.094367e+01
  -6.787030e+00   5.354974e+00
  -9.649452e+00   3.462747e+01
  -2.001331e+01   3.956942e+01
  -3.178505e+01   3.475400e+00
  -2.530919e+01  -4.535110e+01
   6.445378e+00  -5.817017e+01
   4.384816e+01  -1.762843e+01
   5.210502e+01   3.984534e+01
   1.244697e+01   6.104578e+01
  -5.123313e+01   3.120035e+01
  -8.277486e+01  -1.634714e+01
  -4.641088e+01  -4.169300e+01
   2.633283e+01  -3.651822e+01
   6.057018e+01  -1.831935e+01
   2.254803e+01  -4.889851e+00
  -3.558127e+01  -4.199011e+00
  -3.521011e+01  -1.646189e+01
   3.101538e+01  -2.913874e+01
   8.837250e+01  -1.684131e+01
