
 $NMID
 id='ANONYMOUS ', fmtdat='(2E16.6)'
 volume=1.0
 tramp=1.0
 $END
   3.863373e+03  -1.698051e+02
   2.366871e+03   2.219722e+03
  -3.963785e+02   2.484880e+03
  -1.731692e+03   9.867626e+02
  -1.118088e+03  -2.996170e+02
   4.755999e+02  -3.958382e+02
   7.568950e+02   2.764440e+02
  -3.633663e+01   7.932465e+02
  -6.332249e+02   7.215687e+02
  -8.077121e+02   4.436832e+01
  -4.278406e+02  -7.600826e+02
   1.178522e+02  -8.833391e+02
   4.802434e+02  -1.981917e+02
   3.097889e+02   5.873378e+02
  -2.361390e+02   6.565265e+02
  -4.965146e+02   3.336119e+01
  -2.305119e+02  -6.281276e+02
   2.642669e+02  -6.407646e+02
   5.154672e+02  -1.038120e+02
   3.799191e+02   2.842243e+02
   5.890280e+01   4.211549e+02
  -1.961847e+02   2.783613e+02
  -1.867724e+02   6.667784e+00
   1.591086e+02  -5.383522e+01
   3.833691e+02   1.595999e+02
   1.453536e+02   4.161317e+02
  -4.556303e+02   3.437753e+02
  -8.175044e+02  -8.607584e+01
  -3.980608e+02  -4.701330e+02
   3.690954e+02  -3.744225e+02
   6.680192e+02   7.042516e+01
   2.953759e+02   4.404496e+02
  -3.059498e+02   4.564124e+02
  -5.490621e+02   1.698245e+02
  -3.728835e+02  -2.189602e+02
  -7.861279e+01  -4.295675e+02
   1.467723e+02  -2.781936e+02
   1.200828e+02   1.730254e+02
  -1.687274e+02   3.731506e+02
  -3.960120e+02  -4.753907e+01
  -1.793401e+02  -6.516665e+02
   3.153007e+02  -6.601261e+02
   5.687434e+02  -5.561912e+00
   2.303017e+02   5.251449e+02
  -2.866106e+02   3.025246e+02
  -3.677357e+02  -3.265516e+02
   8.093660e+01  -5.474544e+02
   5.534440e+02  -1.393753e+02
   5.842216e+02   4.013557e+02
   1.527108e+02   5.768607e+02
  -3.856566e+02   3.225569e+02
  -6.170258e+02  -9.219005e+01
  -3.605329e+02  -3.684620e+02
   1.482015e+02  -3.395612e+02
   4.253154e+02  -6.677002e+01
   2.468788e+02   1.520949e+02
  -8.694468e+01   8.778670e+01
  -1.245305e+02  -1.230666e+02
   1.466262e+02  -1.512234e+02
   3.179683e+02   6.865998e+01
   1.363728e+02   2.719053e+02
  -1.941956e+02   2.539309e+02
  -3.346192e+02   8.799873e+01
  -2.140834e+02  -8.871056e+01
   1.821547e+01  -2.515720e+02
   2.308258e+02  -3.466458e+02
   3.460695e+02  -2.162738e+02
   2.881223e+02   1.378509e+02
   7.892355e+01   4.182912e+02
  -9.828060e+01   3.658238e+02
  -9.808121e+01   1.178345e+02
  -1.739996e+01   8.773903e+00
  -5.254566e+01   9.323028e+01
  -2.010423e+02   1.163640e+02
  -2.646432e+02  -6.253210e+01
  -1.352355e+02  -2.587596e+02
   8.271071e+01  -2.326207e+02
   2.144009e+02   5.795061e+00
   1.730283e+02   2.407984e+02
  -2.189802e+01   2.873877e+02
  -2.601412e+02   1.137119e+02
  -3.541411e+02  -1.611101e+02
  -1.936428e+02  -3.393477e+02
   7.957271e+01  -3.063893e+02
   2.127224e+02  -1.328679e+02
   1.503744e+02  -2.107339e+01
   1.038314e+02  -4.505714e+01
   2.402113e+02  -6.841141e+01
   4.028723e+02   5.866274e+01
   3.300938e+02   2.856019e+02
  -5.158636e+00   4.380598e+02
  -3.579038e+02   4.066822e+02
  -4.757601e+02   1.937996e+02
  -3.165247e+02  -9.094238e+01
  -4.261826e+01  -2.770734e+02
   1.238375e+02  -2.349748e+02
   6.531377e+01  -2.335465e+01
  -1.189835e+02   1.013638e+02
  -1.925614e+02  -1.043070e+01
  -4.470442e+01  -1.884528e+02
   1.551349e+02  -1.644888e+02
   1.682430e+02   5.643521e+01
  -2.167426e+01   1.840855e+02
  -1.929031e+02   3.015569e+01
  -1.633141e+02  -2.457315e+02
   3.166092e+01  -3.469515e+02
   2.347023e+02  -1.927081e+02
   3.293658e+02   6.480075e+01
   2.709754e+02   2.385333e+02
   8.153020e+01   2.576896e+02
  -1.174361e+02   1.512992e+02
  -1.663092e+02   1.881317e+01
  -4.553459e+01  -2.508456e+01
   7.090022e+01   4.572511e+01
   2.148151e+01   1.246164e+02
  -1.294562e+02   9.473451e+01
  -1.759430e+02  -1.645554e+01
  -5.138367e+01  -7.238180e+01
   8.418940e+01  -1.172849e+01
   5.427630e+01   7.961394e+01
  -1.276639e+02   9.061204e+01
  -2.842835e+02  -4.173568e+00
  -2.588978e+02  -1.477019e+02
  -5.090378e+01  -2.555180e+02
   1.880899e+02  -2.494445e+02
   2.764454e+02  -1.129163e+02
   1.587448e+02   5.402526e+01
  -2.878900e+01   1.007251e+02
  -8.582560e+01  -1.793728e-01
   3.792023e+01  -1.008685e+02
   1.939319e+02  -5.323266e+01
   2.070425e+02   1.050793e+02
   6.515816e+01   2.038997e+02
  -9.388046e+01   1.504204e+02
  -1.391881e+02   2.364027e+01
  -6.304265e+01  -4.132946e+01
   3.366435e+01   2.383132e+00
   3.701733e+01   8.772561e+01
  -7.657884e+01   1.126171e+02
  -2.008693e+02   2.594734e+01
  -1.888468e+02  -1.235218e+02
  -1.645312e+01  -2.144762e+02
   1.651478e+02  -1.609557e+02
   1.894145e+02  -7.088990e+00
   6.005196e+01   1.104434e+02
  -6.785209e+01   1.065531e+02
  -7.838700e+01   2.666278e+01
  -1.039819e+01  -2.744900e+01
   2.807505e+01  -1.490858e+01
  -7.946936e+00   1.562326e+01
  -7.332925e+01  -2.540975e+00
  -9.100785e+01  -8.096746e+01
  -1.714124e+01  -1.593082e+02
   1.231309e+02  -1.514641e+02
   2.297994e+02  -2.479890e+01
   2.000340e+02   1.477555e+02
   4.466052e+01   2.321773e+02
  -1.042565e+02   1.667187e+02
  -1.331801e+02   2.975515e+01
  -6.965260e+01  -5.045205e+01
  -2.789511e+01  -3.163824e+01
  -5.284492e+01   1.385857e+01
  -8.205398e+01   6.551090e+00
  -4.707275e+01  -4.922456e+01
   3.851445e+01  -8.903624e+01
   1.038195e+02  -5.800029e+01
   8.919463e+01   3.403936e+01
  -1.207102e+01   1.110182e+02
  -1.422524e+02   8.578186e+01
  -1.962542e+02  -5.047981e+01
  -9.813925e+01  -2.004183e+02
   1.067935e+02  -2.262568e+02
   2.638383e+02  -9.498108e+01
   2.528707e+02   8.446364e+01
   1.073369e+02   1.729407e+02
  -3.732340e+01   1.438475e+02
  -9.107965e+01   8.212090e+01
  -7.516603e+01   6.854041e+01
  -6.320239e+01   9.061225e+01
  -8.949258e+01   7.483465e+01
  -1.249503e+02  -1.983723e+01
  -1.145359e+02  -1.492987e+02
  -2.886671e+01  -2.186542e+02
   9.521372e+01  -1.648019e+02
   1.690915e+02  -1.689214e+01
   1.299380e+02   1.201172e+02
   1.462268e+01   1.549839e+02
  -7.005315e+01   8.779264e+01
  -6.098452e+01  -2.751950e+00
  -2.703076e+00  -4.553547e+01
   1.509416e+01  -3.662266e+01
  -3.247236e+01  -1.797843e+01
  -7.866641e+01  -2.009731e+01
  -4.590410e+01  -3.558257e+01
   6.335657e+01  -3.644399e+01
   1.573670e+02  -3.895894e+00
   1.406041e+02   5.116880e+01
   1.188550e+01   8.917493e+01
  -1.212797e+02   7.315061e+01
  -1.427908e+02   1.014844e+01
  -4.681270e+01  -4.488190e+01
   5.950607e+01  -3.962867e+01
   7.638080e+01   1.854581e+01
   1.236029e+01   6.821348e+01
  -4.990730e+01   5.780451e+01
  -6.112474e+01  -4.416102e-01
  -4.531344e+01  -4.656691e+01
  -4.366019e+01  -3.849088e+01
  -5.953618e+01  -2.985645e-01
  -6.591539e+01   9.013566e-01
  -3.892024e+01  -6.540662e+01
   2.779694e+01  -1.434759e+02
   1.141373e+02  -1.419564e+02
   1.648071e+02  -3.705371e+01
   1.241297e+02   8.807314e+01
   6.071412e+00   1.270230e+02
  -8.693675e+01   6.518315e+01
  -6.170625e+01  -1.304333e+01
   5.563393e+01  -2.251453e+01
   1.341106e+02   3.763608e+01
   7.567785e+01   1.017272e+02
  -7.671845e+01   1.088469e+02
  -1.852857e+02   5.068074e+01
  -1.588958e+02  -3.317113e+01
  -3.614765e+01  -8.469351e+01
   6.107669e+01  -6.787022e+01
   5.028430e+01  -5.662171e+00
  -3.585974e+01   2.844785e+01
  -8.864157e+01  -1.921625e+01
  -3.578787e+01  -1.137333e+02
   8.374888e+01  -1.506613e+02
   1.596380e+02  -6.293315e+01
   1.234759e+02   9.613309e+01
   1.155003e+01   1.916951e+02
  -8.402530e+01   1.394377e+02
  -1.043200e+02  -9.033892e+00
  -5.918835e+01  -1.179372e+02
   5.403167e+00  -1.053161e+02
   4.808939e+01  -1.950291e+01
   5.035721e+01   3.130838e+01
   2.280619e+01   9.245253e+00
   3.724939e+00  -1.921166e+01
   2.289548e+01   1.525321e+01
   5.614849e+01   8.623762e+01
   3.949163e+01   1.064161e+02
  -4.821358e+01   4.473008e+01
  -1.354927e+02  -3.712210e+01
  -1.263756e+02  -6.833159e+01
  -1.814082e+01  -4.886646e+01
   8.386141e+01  -2.271190e+01
   8.611146e+01  -8.217245e+00
   1.226944e+01   7.073947e+00
  -3.726315e+01   2.201075e+01
  -1.628259e+01   1.812489e+01
   1.835640e+01  -1.038377e+00
  -5.390588e+00  -8.608820e+00
  -7.118696e+01  -3.728295e+00
  -9.076458e+01  -2.317631e+01
  -1.273890e+01  -7.900331e+01
   1.120799e+02  -1.140667e+02
   1.817646e+02  -6.142712e+01
   1.417633e+02   6.233690e+01
   2.782575e+01   1.576970e+02
  -7.659878e+01   1.481010e+02
  -1.117872e+02   5.827156e+01
  -7.838478e+01  -2.171521e+01
  -2.383521e+01  -3.578930e+01
   2.863517e+00  -9.046088e+00
  -1.023031e+01  -4.026950e+00
  -3.205999e+01  -4.466208e+01
  -2.179689e+01  -8.744173e+01
   2.837939e+01  -6.964988e+01
   7.921612e+01   1.684335e+01
   7.684555e+01   1.031808e+02
   7.114551e+00   1.086476e+02
  -7.847907e+01   2.647983e+01
  -1.020282e+02  -6.880443e+01
  -3.519602e+01  -9.940081e+01
   6.212833e+01  -5.712212e+01
   9.637433e+01   8.078291e+00
   4.128067e+01   4.902268e+01
  -3.057372e+01   5.246669e+01
  -3.255640e+01   2.854020e+01
   3.006600e+01  -1.285531e+00
   6.656190e+01  -7.551639e+00
   1.604549e+01   2.421620e+01
  -7.571655e+01   6.425403e+01
  -1.128700e+02   5.650535e+01
  -6.367334e+01  -1.219450e+01
   1.437007e+01  -8.112510e+01
   5.136593e+01  -7.826833e+01
   3.634631e+01  -7.417169e+00
   2.173135e+00   5.257473e+01
  -2.337268e+01   4.134040e+01
  -3.353795e+01  -1.677251e+01
  -2.511995e+01  -5.172592e+01
   2.204284e+00  -3.234319e+01
   3.182022e+01   7.857543e+00
   3.909546e+01   2.067849e+01
   2.022451e+01   1.808247e+00
  -1.691795e+00  -1.401409e+01
  -7.489560e+00   1.346883e+00
  -4.636059e+00   3.419263e+01
  -1.257476e+01   4.417656e+01
  -3.006266e+01   1.015275e+01
  -3.221078e+01  -4.155968e+01
  -2.237899e+00  -5.965699e+01
   4.232781e+01  -2.259635e+01
   5.786628e+01   3.556470e+01
   1.765600e+01   6.104181e+01
  -5.234589e+01   3.506782e+01
  -8.775385e+01  -1.273149e+01
  -4.930418e+01  -4.192279e+01
   2.757011e+01  -4.060074e+01
   6.358211e+01  -2.217837e+01
   2.480206e+01  -4.910927e+00
  -3.474801e+01  -5.730326e-01
  -3.617355e+01  -1.266446e+01
   2.821401e+01  -2.827518e+01
   8.572633e+01  -1.893458e+01
