
 $NMID
 id='ANONYMOUS ', fmtdat='(2E16.6)'
 volume=1.0
 tramp=1.0
 $END
  -4.699321e+03  -3.254868e+02
  -2.694340e+03  -2.845913e+03
   9.030866e+02  -2.614204e+03
   2.264349e+03  -9.527885e+02
   9.641583e+02   7.356738e+02
  -9.102425e+02   3.864322e+02
  -1.037468e+03  -5.659801e+02
   5.314820e+01  -1.061593e+03
   9.271367e+02  -8.228571e+02
   9.645774e+02   1.139533e+02
   4.308411e+02   9.263356e+02
  -2.414749e+02   9.277750e+02
  -6.475592e+02  -1.065507e+01
  -3.570371e+02  -7.770151e+02
   3.403766e+02  -7.143730e+02
   6.937525e+02   3.673886e+01
   2.585691e+02   7.086542e+02
  -3.653580e+02   5.977851e+02
  -5.646751e+02   5.387350e+01
  -3.918147e+02  -3.681979e+02
   2.430694e+01  -4.191530e+02
   2.622322e+02  -2.746808e+02
   2.086762e+02  -1.235764e+01
  -1.003100e+02   7.882285e+01
  -4.297175e+02  -1.053983e+02
  -1.811743e+02  -4.525692e+02
   5.021067e+02  -4.417051e+02
   8.936466e+02   8.700006e+01
   4.285671e+02   5.964648e+02
  -4.253780e+02   5.180412e+02
  -7.970687e+02  -6.628240e+01
  -3.451980e+02  -5.199264e+02
   3.089959e+02  -5.309945e+02
   5.990944e+02  -1.923913e+02
   4.265714e+02   2.447512e+02
   4.314811e+01   4.941170e+02
  -2.411775e+02   2.679913e+02
  -1.773024e+02  -2.392395e+02
   2.006744e+02  -4.581886e+02
   4.753068e+02   1.913841e+01
   2.326385e+02   7.215741e+02
  -3.762259e+02   7.157056e+02
  -6.407628e+02  -2.644222e+01
  -2.347696e+02  -6.179758e+02
   3.427597e+02  -3.409336e+02
   4.121662e+02   3.565230e+02
  -9.063577e+01   5.856452e+02
  -5.819873e+02   1.346437e+02
  -5.859402e+02  -4.356347e+02
  -1.428874e+02  -6.105698e+02
   4.067296e+02  -3.455409e+02
   6.420799e+02   1.033720e+02
   3.552857e+02   4.171221e+02
  -1.973380e+02   3.730368e+02
  -4.709134e+02   2.357310e+01
  -2.251467e+02  -2.362524e+02
   1.557546e+02  -1.068442e+02
   1.523581e+02   1.892321e+02
  -1.938555e+02   2.002186e+02
  -3.740505e+02  -1.067250e+02
  -1.355638e+02  -3.343592e+02
   2.226708e+02  -2.536360e+02
   3.323570e+02  -4.608293e+01
   1.853621e+02   9.208634e+01
  -2.914368e+01   2.060434e+02
  -2.226938e+02   3.079368e+02
  -3.525451e+02   2.059560e+02
  -3.032463e+02  -1.582107e+02
  -5.749798e+01  -4.607569e+02
   1.592038e+02  -3.867152e+02
   1.441076e+02  -8.869395e+01
   1.122890e+01   3.381478e+01
   2.295868e+01  -8.734812e+01
   1.956053e+02  -1.396824e+02
   2.904136e+02   5.751057e+01
   1.571272e+02   2.891910e+02
  -9.105400e+01   2.652633e+02
  -2.455976e+02   1.521621e+00
  -1.991206e+02  -2.549686e+02
   2.230055e+01  -3.020200e+02
   2.745364e+02  -1.126862e+02
   3.554218e+02   1.778156e+02
   1.720609e+02   3.626372e+02
  -1.181761e+02   3.120816e+02
  -2.370849e+02   1.107406e+02
  -1.545878e+02  -1.683467e+01
  -9.749262e+01   1.555037e+01
  -2.270302e+02   4.989025e+01
  -3.862076e+02  -6.422336e+01
  -3.093448e+02  -2.889517e+02
   2.342355e+01  -4.363151e+02
   3.711185e+02  -3.947178e+02
   4.891223e+02  -1.761115e+02
   3.331585e+02   1.136004e+02
   4.556047e+01   3.067248e+02
  -1.445829e+02   2.518116e+02
  -9.754719e+01   2.010888e+01
   1.046981e+02  -1.142382e+02
   2.025687e+02   1.340633e+01
   5.234397e+01   2.108569e+02
  -1.754941e+02   1.748062e+02
  -1.922956e+02  -7.502886e+01
   1.883856e+01  -2.061615e+02
   2.001204e+02  -3.027669e+01
   1.550686e+02   2.537296e+02
  -5.050093e+01   3.412032e+02
  -2.334603e+02   1.735146e+02
  -3.083057e+02  -7.576832e+01
  -2.590744e+02  -2.404268e+02
  -9.031749e+01  -2.654895e+02
   1.137234e+02  -1.647813e+02
   1.865205e+02  -1.963238e+01
   7.097251e+01   4.131860e+01
  -6.509048e+01  -3.061888e+01
  -3.009793e+01  -1.249386e+02
   1.268649e+02  -9.994143e+01
   1.825951e+02   2.083281e+01
   5.802248e+01   8.351935e+01
  -8.252295e+01   2.122682e+01
  -5.536187e+01  -7.256218e+01
   1.218048e+02  -8.161768e+01
   2.721692e+02   9.667355e+00
   2.493585e+02   1.447071e+02
   5.120934e+01   2.509508e+02
  -1.867259e+02   2.518353e+02
  -2.854852e+02   1.169077e+02
  -1.720475e+02  -5.966214e+01
   2.699729e+01  -1.142422e+02
   9.620790e+01  -8.572326e+00
  -3.047267e+01   1.015379e+02
  -1.960073e+02   5.544934e+01
  -2.091622e+02  -1.088635e+02
  -5.855593e+01  -2.102190e+02
   1.042030e+02  -1.532649e+02
   1.474174e+02  -2.083177e+01
   7.004633e+01   4.906527e+01
  -2.817813e+01   9.126436e+00
  -3.881659e+01  -7.725198e+01
   6.643199e+01  -1.083561e+02
   1.907857e+02  -2.673371e+01
   1.856433e+02   1.232863e+02
   1.725803e+01   2.156256e+02
  -1.675081e+02   1.577236e+02
  -1.937689e+02  -2.825856e+00
  -6.078349e+01  -1.203752e+02
   7.346511e+01  -1.106627e+02
   8.949133e+01  -2.575209e+01
   2.201343e+01   3.129128e+01
  -2.046081e+01   2.416322e+01
   6.032703e+00  -2.561435e+00
   6.218609e+01   1.020517e+01
   7.945655e+01   7.574856e+01
   1.127502e+01   1.489071e+02
  -1.233794e+02   1.455894e+02
  -2.273497e+02   2.291367e+01
  -1.935151e+02  -1.519436e+02
  -3.247307e+01  -2.384573e+02
   1.165555e+02  -1.672116e+02
   1.364952e+02  -2.000804e+01
   6.686676e+01   6.318923e+01
   2.542763e+01   4.131374e+01
   5.125257e+01  -8.475129e+00
   7.410968e+01  -4.829520e+00
   3.346176e+01   4.677234e+01
  -4.623055e+01   7.918166e+01
  -9.529013e+01   4.673292e+01
  -7.533032e+01  -3.628561e+01
   1.415479e+01  -1.030499e+02
   1.320457e+02  -7.831475e+01
   1.854360e+02   5.147343e+01
   9.671490e+01   1.938539e+02
  -1.030924e+02   2.171659e+02
  -2.597605e+02   8.589791e+01
  -2.489015e+02  -9.215020e+01
  -1.016799e+02  -1.765929e+02
   4.374597e+01  -1.421425e+02
   9.727566e+01  -7.785143e+01
   8.314588e+01  -6.277090e+01
   7.218879e+01  -8.301606e+01
   9.376451e+01  -6.472936e+01
   1.200650e+02   3.109100e+01
   1.022960e+02   1.572993e+02
   1.560293e+01   2.210046e+02
  -1.048609e+02   1.621502e+02
  -1.735226e+02   1.216400e+01
  -1.312121e+02  -1.245290e+02
  -1.622631e+01  -1.586126e+02
   6.698749e+01  -9.234867e+01
   5.978481e+01  -4.096851e+00
   7.632237e+00   3.867587e+01
  -6.322422e+00   3.430865e+01
   3.623084e+01   2.210009e+01
   7.325697e+01   2.660181e+01
   3.845853e+01   3.794081e+01
  -6.276651e+01   3.230916e+01
  -1.500670e+02  -3.179918e+00
  -1.358776e+02  -5.524249e+01
  -1.347691e+01  -8.756147e+01
   1.188208e+02  -6.842259e+01
   1.441082e+02  -7.794064e+00
   4.903521e+01   4.184915e+01
  -5.827304e+01   3.463199e+01
  -7.200682e+01  -1.957121e+01
  -3.151705e+00  -6.266783e+01
   5.656108e+01  -4.959448e+01
   5.817433e+01   6.189117e+00
   3.647829e+01   4.913125e+01
   3.881819e+01   4.136209e+01
   6.034472e+01   5.851461e+00
   6.340511e+01   4.406616e+00
   2.787335e+01   6.502745e+01
  -3.988407e+01   1.359451e+02
  -1.167467e+02   1.296277e+02
  -1.567160e+02   2.568415e+01
  -1.134970e+02  -9.265846e+01
  -1.079872e+00  -1.229075e+02
   8.625259e+01  -5.695653e+01
   5.860749e+01   1.737487e+01
  -5.682018e+01   1.893590e+01
  -1.305564e+02  -4.495689e+01
  -6.856097e+01  -1.045248e+02
   8.230252e+01  -1.045673e+02
   1.859021e+02  -4.365985e+01
   1.551631e+02   3.778085e+01
   3.318408e+01   8.654229e+01
  -6.106471e+01   6.971295e+01
  -4.895308e+01   9.095588e+00
   3.514747e+01  -2.369791e+01
   8.287656e+01   2.376214e+01
   2.437791e+01   1.139060e+02
  -9.587176e+01   1.429065e+02
  -1.640288e+02   5.027559e+01
  -1.168168e+02  -1.049566e+02
  -2.210352e-02  -1.916922e+02
   8.946990e+01  -1.346526e+02
   1.010248e+02   1.150753e+01
   5.468088e+01   1.163139e+02
  -4.513610e+00   1.031539e+02
  -4.470933e+01   1.849481e+01
  -5.087449e+01  -3.241519e+01
  -2.708217e+01  -1.021892e+01
  -5.114230e+00   1.995992e+01
  -1.800387e+01  -1.396775e+01
  -4.951882e+01  -8.773149e+01
  -3.702495e+01  -1.099804e+02
   4.628905e+01  -4.448385e+01
   1.328388e+02   4.363753e+01
   1.247453e+02   7.548986e+01
   1.602664e+01   4.966082e+01
  -8.665577e+01   1.805817e+01
  -8.708975e+01   4.738912e+00
  -1.057124e+01  -6.659951e+00
   3.852173e+01  -2.092892e+01
   1.447399e+01  -1.920490e+01
  -2.114606e+01   4.770389e-03
   4.832296e+00   1.112103e+01
   7.123768e+01   8.995946e+00
   8.596403e+01   2.655028e+01
   2.262268e+00   7.543909e+01
  -1.207053e+02   1.023840e+02
  -1.800124e+02   4.608542e+01
  -1.301178e+02  -7.274340e+01
  -1.505958e+01  -1.571385e+02
   8.308564e+01  -1.387587e+02
   1.116058e+02  -4.882588e+01
   7.605032e+01   2.510446e+01
   2.208909e+01   3.448157e+01
  -3.782376e+00   7.607234e+00
   9.011938e+00   4.394220e+00
   2.965935e+01   4.554857e+01
   1.764427e+01   8.724916e+01
  -3.204682e+01   6.677273e+01
  -7.761465e+01  -2.278832e+01
  -6.809209e+01  -1.092243e+02
   3.119833e+00  -1.084499e+02
   8.132548e+01  -1.767898e+01
   9.485919e+01   7.883287e+01
   2.528471e+01   1.004628e+02
  -6.571239e+01   4.855314e+01
  -9.197437e+01  -1.612209e+01
  -3.478178e+01  -4.794615e+01
   3.272987e+01  -4.616347e+01
   3.001364e+01  -2.639197e+01
  -3.306188e+01  -3.241156e+00
  -6.624997e+01   2.792317e+00
  -1.217410e+01  -2.326107e+01
   7.936876e+01  -5.836727e+01
   1.127015e+02  -5.133800e+01
   5.895056e+01   1.313742e+01
  -1.998419e+01   7.784234e+01
  -5.322765e+01   7.303236e+01
  -3.268382e+01   3.629573e+00
   3.174870e+00  -5.247921e+01
   2.575102e+01  -3.793795e+01
   3.137503e+01   2.032383e+01
   2.114403e+01   5.215326e+01
  -3.801217e+00   2.969647e+01
  -3.006752e+01  -1.006908e+01
  -3.678525e+01  -2.112095e+01
  -2.101790e+01  -1.892171e+00
  -1.094801e+00   1.160142e+01
   7.600948e+00  -5.289638e+00
   1.116259e+01  -3.580046e+01
   2.116487e+01  -4.041914e+01
   3.229362e+01  -2.743355e+00
   2.535940e+01   4.739335e+01
  -6.990939e+00   5.942956e+01
  -4.484454e+01   1.701129e+01
  -5.241371e+01  -4.133080e+01
  -1.112653e+01  -6.150600e+01
   5.328651e+01  -2.948587e+01
   8.324486e+01   1.928921e+01
   4.438901e+01   4.369620e+01
  -2.933580e+01   3.568453e+01
  -6.209939e+01   1.583325e+01
  -2.136388e+01   3.981078e+00
   3.755212e+01   6.113385e+00
   3.519727e+01   1.896687e+01
  -3.370060e+01   2.896283e+01
  -9.115168e+01   1.363189e+01
