
 $NMID
 id='ANONYMOUS ', fmtdat='(2E16.6)'
 volume=1.0
 tramp=1.0
 $END
  -3.019915e+03  -1.919583e+02
  -1.886914e+03  -1.422385e+03
   2.130335e+02  -1.839401e+03
   1.141515e+03  -1.039238e+03
   7.026688e+02  -7.604601e+01
  -2.306456e+02   4.835580e+01
  -4.023882e+02  -2.865934e+02
  -1.108886e+01  -6.082215e+02
   4.906719e+02  -5.672599e+02
   5.627210e+02  -9.703262e+01
   3.726541e+02   5.456926e+02
  -6.520475e+00   5.487628e+02
  -3.043154e+02   3.250575e+01
  -1.815734e+02  -3.791875e+02
   1.188262e+02  -3.828243e+02
   3.914125e+02  -3.783140e+01
   2.635416e+02   4.711093e+02
  -9.631277e+01   5.621762e+02
  -4.294379e+02   1.980012e+02
  -4.209603e+02  -1.553686e+02
  -1.207209e+02  -3.714538e+02
   1.222307e+02  -2.239454e+02
   7.102740e+01  -7.156434e+01
  -1.719849e+02  -9.899440e+01
  -2.598935e+02  -2.561842e+02
   4.372715e+01  -3.579261e+02
   4.685358e+02  -1.489715e+02
   6.036893e+02   2.122117e+02
   1.865366e+02   3.587027e+02
  -3.168736e+02   1.624366e+02
  -4.589456e+02  -1.700611e+02
  -1.579922e+02  -3.218220e+02
   2.619516e+02  -3.284332e+02
   4.363590e+02  -9.832549e+01
   2.978893e+02   1.704051e+02
   6.665955e+01   2.768099e+02
  -7.346592e+00   1.353234e+02
   5.773873e+01  -1.102689e+02
   1.814035e+02  -1.338326e+02
   1.747081e+02   1.690852e+02
   4.753438e+00   4.934722e+02
  -2.121400e+02   4.085920e+02
  -2.832113e+02  -1.229973e+01
  -1.064058e+02  -2.747881e+02
   1.221556e+02  -1.088995e+02
   1.504279e+02   2.747125e+02
  -1.091287e+02   3.622881e+02
  -4.190633e+02   5.435150e+01
  -4.564993e+02  -3.447316e+02
  -1.481779e+02  -4.698272e+02
   2.880390e+02  -2.558676e+02
   4.902994e+02   6.914496e+01
   3.088911e+02   2.443263e+02
  -5.792849e+01   2.085995e+02
  -2.694179e+02   6.960465e+01
  -1.942675e+02  -2.764382e+01
  -9.849560e+00  -1.427522e+01
   2.817536e+01   4.826913e+01
  -1.140885e+02   5.127357e+01
  -2.274047e+02  -4.968742e+01
  -1.239562e+02  -1.882872e+02
   1.411051e+02  -2.477137e+02
   3.284207e+02  -1.507204e+02
   2.581074e+02   7.910815e+01
  -2.280116e+01   3.081868e+02
  -2.913919e+02   3.573464e+02
  -3.531431e+02   1.538679e+02
  -2.088505e+02  -1.618206e+02
  -2.727161e+01  -3.428195e+02
   3.775203e+01  -2.915736e+02
   4.137105e+00  -1.492585e+02
   7.732586e+00  -9.616283e+01
   1.181396e+02  -1.176199e+02
   2.427826e+02  -6.212626e+01
   2.406465e+02   1.138129e+02
   8.490114e+01   2.506009e+02
  -1.092667e+02   1.826600e+02
  -1.996162e+02  -5.275690e+01
  -1.258764e+02  -2.523775e+02
   6.712838e+01  -2.485582e+02
   2.495537e+02  -5.095291e+01
   2.876106e+02   1.753561e+02
   1.473177e+02   2.777555e+02
  -4.647831e+01   2.384247e+02
  -1.414657e+02   1.394678e+02
  -1.248799e+02   8.719096e+01
  -1.420420e+02   7.821829e+01
  -2.741734e+02   3.717490e+01
  -3.930037e+02  -9.339786e+01
  -2.995763e+02  -2.830490e+02
   2.887994e+01  -4.094245e+02
   3.660389e+02  -3.720675e+02
   4.519136e+02  -1.576000e+02
   2.617799e+02   1.021066e+02
   2.594466e+00   2.371725e+02
  -9.641981e+01   1.756273e+02
  -1.140330e+01   1.970240e+01
   1.208903e+02  -4.272552e+01
   1.310535e+02   4.428347e+01
   5.169745e+00   1.426649e+02
  -1.185198e+02   9.533753e+01
  -1.090039e+02  -5.687226e+01
   2.739124e+01  -1.277870e+02
   1.547911e+02   1.865986e+00
   1.437572e+02   2.250130e+02
  -2.380202e+01   3.250927e+02
  -2.380229e+02   1.958503e+02
  -3.440658e+02  -6.731999e+01
  -2.615534e+02  -2.635798e+02
  -4.611982e+01  -2.705372e+02
   1.321327e+02  -1.304241e+02
   1.459633e+02   3.651004e+00
   3.149491e+01   1.819066e+01
  -4.794385e+01  -5.810654e+01
   8.189063e+00  -1.073954e+02
   1.223157e+02  -5.941225e+01
   1.371243e+02   3.107404e+01
   2.025709e+01   5.693803e+01
  -8.895374e+01  -1.017728e+01
  -4.028633e+01  -9.277094e+01
   1.488031e+02  -9.132915e+01
   2.985559e+02   1.899835e+01
   2.468647e+02   1.725874e+02
   1.376546e+01   2.639079e+02
  -2.149982e+02   2.242598e+02
  -2.630045e+02   7.906880e+01
  -1.256668e+02  -5.633206e+01
   3.661735e+01  -7.585209e+01
   6.217554e+01   1.032844e+01
  -5.520390e+01   7.829166e+01
  -1.788075e+02   2.646124e+01
  -1.765680e+02  -1.042600e+02
  -4.834176e+01  -1.787021e+02
   8.862809e+01  -1.246148e+02
   1.195516e+02  -1.090511e+01
   3.942131e+01   3.664928e+01
  -4.657192e+01  -2.316319e+01
  -2.667641e+01  -1.108720e+02
   1.005257e+02  -1.161624e+02
   2.103017e+02  -8.618987e+00
   1.741692e+02   1.362496e+02
   2.550510e+00   2.042662e+02
  -1.553488e+02   1.431679e+02
  -1.660222e+02   6.481943e+00
  -4.779800e+01  -9.337725e+01
   6.284517e+01  -9.040790e+01
   6.741772e+01  -1.973471e+01
  -1.689756e+00   2.955842e+01
  -4.098956e+01   1.181437e+01
   3.605957e+00  -2.594487e+01
   8.349847e+01  -6.185602e+00
   1.022200e+02   8.548068e+01
   1.068858e+01   1.689710e+02
  -1.402855e+02   1.454380e+02
  -2.314214e+02   4.638900e+00
  -1.810000e+02  -1.572933e+02
  -2.976845e+01  -2.192573e+02
   1.011644e+02  -1.508271e+02
   1.245369e+02  -2.831154e+01
   7.112912e+01   4.395671e+01
   3.082705e+01   2.864708e+01
   5.198472e+01  -1.378238e+01
   8.401183e+01  -8.018791e+00
   5.521201e+01   5.485265e+01
  -3.801585e+01   1.031962e+02
  -1.212122e+02   6.656697e+01
  -1.069387e+02  -4.557882e+01
   1.728419e+01  -1.295642e+02
   1.639212e+02  -8.866425e+01
   2.032890e+02   6.551303e+01
   8.056969e+01   2.078806e+02
  -1.235630e+02   2.128719e+02
  -2.588590e+02   7.678627e+01
  -2.319041e+02  -8.716595e+01
  -9.197654e+01  -1.607003e+02
   3.942616e+01  -1.315374e+02
   8.390028e+01  -7.718971e+01
   6.522936e+01  -6.715266e+01
   5.521306e+01  -9.014906e+01
   8.691484e+01  -7.521808e+01
   1.247915e+02   1.998564e+01
   1.094140e+02   1.499403e+02
   1.918976e+01   2.147179e+02
  -9.936684e+01   1.523109e+02
  -1.607637e+02   1.758547e+00
  -1.156361e+02  -1.269835e+02
  -3.502964e+00  -1.487752e+02
   7.616579e+01  -7.329710e+01
   6.235364e+01   1.800518e+01
  -3.838444e+00   5.551341e+01
  -2.833672e+01   3.736580e+01
   2.322389e+01   1.170753e+01
   7.998825e+01   1.538354e+01
   4.784377e+01   3.745312e+01
  -7.258311e+01   3.888189e+01
  -1.705746e+02  -2.671969e+00
  -1.397192e+02  -6.544205e+01
   4.482046e+00  -9.945145e+01
   1.351772e+02  -7.199979e+01
   1.434402e+02  -1.511711e+00
   4.285434e+01   5.272224e+01
  -5.881928e+01   4.345274e+01
  -7.610189e+01  -1.852444e+01
  -1.927616e+01  -7.110193e+01
   4.328822e+01  -6.136109e+01
   6.511287e+01  -5.020603e-01
   5.478062e+01   4.841040e+01
   4.506163e+01   3.951659e+01
   5.315869e+01  -9.826340e-01
   6.371710e+01  -6.843385e-01
   4.448973e+01   6.952601e+01
  -2.527150e+01   1.482974e+02
  -1.218594e+02   1.432748e+02
  -1.754011e+02   3.463007e+01
  -1.268976e+02  -9.152497e+01
  -2.270048e+00  -1.316885e+02
   8.998510e+01  -7.081968e+01
   6.166183e+01   9.394687e+00
  -5.441973e+01   2.270718e+01
  -1.286521e+02  -3.645561e+01
  -6.891756e+01  -1.009982e+02
   7.878189e+01  -1.049083e+02
   1.799929e+02  -4.155305e+01
   1.483817e+02   3.976392e+01
   2.781594e+01   8.011147e+01
  -6.216544e+01   5.506869e+01
  -4.655245e+01  -3.282595e+00
   3.771576e+01  -2.914784e+01
   8.690725e+01   1.915499e+01
   3.839133e+01   1.078702e+02
  -7.186471e+01   1.444481e+02
  -1.451851e+02   6.514261e+01
  -1.176972e+02  -8.524711e+01
  -1.521667e+01  -1.794488e+02
   7.812369e+01  -1.309229e+02
   9.916668e+01   1.264839e+01
   5.103714e+01   1.159783e+02
  -1.550629e+01   9.886646e+01
  -5.105704e+01   1.377826e+01
  -4.215613e+01  -3.222363e+01
  -1.437330e+01  -8.524358e+00
  -6.640750e+00   1.641852e+01
  -3.186275e+01  -1.983477e+01
  -5.595221e+01  -8.602732e+01
  -2.771133e+01  -1.013010e+02
   5.639717e+01  -4.121149e+01
   1.292617e+02   3.608056e+01
   1.148708e+02   6.763475e+01
   1.674055e+01   5.140572e+01
  -7.588818e+01   2.368504e+01
  -8.231543e+01   4.320142e+00
  -1.821499e+01  -1.109757e+01
   3.212633e+01  -2.027499e+01
   2.053734e+01  -1.276003e+01
  -1.185967e+01   3.062251e+00
   1.820376e+00   5.463771e+00
   6.040278e+01  -1.144585e+00
   8.805312e+01   1.821951e+01
   2.469848e+01   7.388178e+01
  -9.692442e+01   1.123150e+02
  -1.770517e+02   6.752182e+01
  -1.467542e+02  -5.077570e+01
  -3.227778e+01  -1.502733e+02
   7.636716e+01  -1.496490e+02
   1.112149e+02  -6.372996e+01
   7.618916e+01   1.989414e+01
   2.504204e+01   3.880340e+01
   2.919414e+00   1.374991e+01
   1.304343e+01   8.320410e+00
   2.647619e+01   4.699403e+01
   1.399368e+01   8.659128e+01
  -2.856334e+01   6.732987e+01
  -7.325802e+01  -1.485942e+01
  -7.602948e+01  -9.588042e+01
  -1.622795e+01  -1.044134e+02
   6.862453e+01  -3.245017e+01
   1.016761e+02   5.801641e+01
   4.226500e+01   9.633983e+01
  -5.817823e+01   6.344992e+01
  -1.003908e+02  -4.114612e+00
  -4.684216e+01  -5.491106e+01
   3.146004e+01  -6.130714e+01
   4.027978e+01  -3.028764e+01
  -2.203236e+01   5.430893e+00
  -6.400235e+01   9.615917e+00
  -1.795977e+01  -2.522816e+01
   7.466463e+01  -6.193097e+01
   1.162471e+02  -4.975616e+01
   6.815497e+01   1.706762e+01
  -1.374229e+01   8.103239e+01
  -5.625039e+01   7.857693e+01
  -4.254213e+01   1.228159e+01
  -5.796836e+00  -4.898696e+01
   2.267178e+01  -4.515713e+01
   3.427630e+01   9.904640e+00
   2.671061e+01   5.132207e+01
  -2.549407e-01   3.844975e+01
  -3.202124e+01  -4.614978e+00
  -4.149229e+01  -2.485463e+01
  -2.042709e+01  -5.657242e+00
   5.491832e+00   1.916132e+01
   8.703777e+00   9.460617e+00
  -4.504701e+00  -2.883927e+01
  -2.756155e+00  -5.034197e+01
   2.311298e+01  -2.319267e+01
   4.100525e+01   3.076215e+01
   1.652579e+01   5.607635e+01
  -3.639319e+01   2.635650e+01
  -6.138096e+01  -2.822340e+01
  -2.120895e+01  -5.531605e+01
   5.323495e+01  -3.485895e+01
   8.891131e+01   8.839913e+00
   4.808844e+01   3.985407e+01
  -2.782644e+01   4.358155e+01
  -6.224114e+01   2.778859e+01
  -2.746542e+01   7.265662e+00
   2.616355e+01  -3.556038e+00
   3.072440e+01   4.903231e+00
  -2.162623e+01   2.257577e+01
  -7.261227e+01   1.895970e+01
