
 $NMID
 id='ANONYMOUS ', fmtdat='(2E16.6)'
 volume=1.0
 tramp=1.0
 $END
   3.639140e+03   8.021390e+00
   2.125017e+03   1.673335e+03
  -1.081334e+02   2.039584e+03
  -1.289343e+03   1.156356e+03
  -9.895067e+02   4.749522e+01
  -1.075323e+01  -1.179003e+02
   2.852932e+02   1.706196e+02
   5.746335e+01   6.228774e+02
  -4.052331e+02   6.338763e+02
  -7.126263e+02   7.595680e+00
  -3.816951e+02  -5.536306e+02
  -1.345427e+01  -6.799209e+02
   2.614866e+02  -1.937740e+02
   1.603288e+02   4.270291e+02
  -7.424300e+01   5.360348e+02
  -2.785487e+02   1.172414e+02
  -2.382564e+02  -4.768757e+02
   1.249963e+02  -6.723696e+02
   4.524542e+02  -2.833488e+02
   4.746957e+02   1.787789e+02
   1.400069e+02   3.754876e+02
  -1.280042e+02   2.334673e+02
  -7.397005e+01   8.876747e+01
   1.841475e+02   1.393552e+02
   2.578517e+02   3.250608e+02
  -5.808468e+01   3.305227e+02
  -4.768297e+02   8.042031e+01
  -5.644608e+02  -2.399061e+02
  -1.868011e+02  -3.247659e+02
   3.154021e+02  -1.340892e+02
   4.563440e+02   1.581877e+02
   1.435067e+02   3.510280e+02
  -2.871203e+02   3.152984e+02
  -4.490046e+02   1.029433e+02
  -3.156877e+02  -1.678933e+02
  -8.909651e+01  -3.023867e+02
  -1.132426e+01  -1.652821e+02
  -8.632564e+01   6.255419e+01
  -1.738092e+02   8.948532e+01
  -1.279977e+02  -1.844518e+02
   5.422343e+01  -4.592632e+02
   2.296839e+02  -3.750910e+02
   2.617318e+02   1.080944e+01
   1.090556e+02   2.516948e+02
  -8.923144e+01   8.630259e+01
  -1.169386e+02  -2.672770e+02
   1.179351e+02  -3.421781e+02
   4.148891e+02  -3.583345e+01
   4.803871e+02   3.605282e+02
   1.808956e+02   4.803998e+02
  -2.701512e+02   2.672555e+02
  -5.127300e+02  -4.409204e+01
  -3.708442e+02  -2.205878e+02
  -2.029114e+00  -2.147391e+02
   2.585334e+02  -1.138805e+02
   2.325936e+02  -3.004738e+01
   5.268031e+01  -5.814837e+00
  -1.974175e+01  -2.340811e+01
   9.476036e+01  -2.025926e+01
   2.131724e+02   5.518407e+01
   1.213093e+02   1.768364e+02
  -1.589794e+02   2.385345e+02
  -3.701542e+02   1.393064e+02
  -2.880880e+02  -1.086394e+02
   3.923110e+01  -3.466657e+02
   3.388804e+02  -3.778945e+02
   3.871902e+02  -1.502691e+02
   2.169968e+02   1.729577e+02
   3.522620e+01   3.563704e+02
  -2.387290e+01   3.228811e+02
  -1.282668e+01   1.977062e+02
  -5.638453e+01   1.283770e+02
  -1.752963e+02   1.070626e+02
  -2.685594e+02   2.260088e+01
  -2.345001e+02  -1.455097e+02
  -7.721624e+01  -2.640833e+02
   1.069630e+02  -1.891832e+02
   1.973098e+02   5.086315e+01
   1.281570e+02   2.589848e+02
  -7.264586e+01   2.553847e+02
  -2.712765e+02   4.364239e+01
  -3.082621e+02  -2.040539e+02
  -1.521477e+02  -3.133258e+02
   6.077587e+01  -2.652417e+02
   1.627364e+02  -1.595341e+02
   1.522831e+02  -1.007107e+02
   1.760002e+02  -8.221277e+01
   3.113017e+02  -2.285453e+01
   4.275046e+02   1.322599e+02
   3.092639e+02   3.322087e+02
  -5.466407e+01   4.509640e+02
  -4.162157e+02   3.871073e+02
  -4.969137e+02   1.531272e+02
  -2.773163e+02  -1.155686e+02
   1.239476e+00  -2.487785e+02
   9.860047e+01  -1.868933e+02
  -3.693675e+00  -3.744050e+01
  -1.276570e+02   2.697075e+01
  -1.207760e+02  -4.276845e+01
   3.029397e+00  -1.297973e+02
   1.108126e+02  -9.193598e+01
   9.269370e+01   4.836007e+01
  -3.568822e+01   1.135351e+02
  -1.555409e+02  -1.660022e+01
  -1.411016e+02  -2.483904e+02
   3.663882e+01  -3.534329e+02
   2.701886e+02  -2.072233e+02
   3.836388e+02   8.495906e+01
   2.817979e+02   2.954435e+02
   4.152978e+01   2.910331e+02
  -1.440833e+02   1.349078e+02
  -1.498099e+02   2.428536e+00
  -3.192856e+01  -2.386306e+00
   4.177978e+01   7.376909e+01
  -1.863546e+01   1.093912e+02
  -1.288630e+02   5.013401e+01
  -1.399811e+02  -3.598089e+01
  -2.309689e+01  -4.902123e+01
   8.478681e+01   2.728143e+01
   3.188317e+01   1.066142e+02
  -1.664903e+02   8.926618e+01
  -3.225582e+02  -3.981795e+01
  -2.624068e+02  -2.008977e+02
  -7.900189e+00  -2.832454e+02
   2.369109e+02  -2.283882e+02
   2.824629e+02  -7.737313e+01
   1.329479e+02   5.520900e+01
  -3.552833e+01   7.273281e+01
  -5.823344e+01  -1.002104e+01
   6.486550e+01  -7.249026e+01
   1.899402e+02  -1.734811e+01
   1.837955e+02   1.158975e+02
   4.795279e+01   1.914639e+02
  -9.512783e+01   1.323879e+02
  -1.253788e+02   1.281970e+01
  -3.965147e+01  -3.302871e+01
   4.709961e+01   3.636341e+01
   1.782962e+01   1.278263e+02
  -1.209672e+02   1.218954e+02
  -2.323647e+02  -2.548073e+00
  -1.861746e+02  -1.551028e+02
  -9.261947e-01  -2.192045e+02
   1.662914e+02  -1.515777e+02
   1.780930e+02  -1.174748e+01
   5.512253e+01   9.137042e+01
  -6.115521e+01   9.261165e+01
  -6.693850e+01   2.503247e+01
   5.236001e+00  -2.283639e+01
   4.311508e+01  -4.949136e+00
  -1.060766e+01   3.011108e+01
  -9.857720e+01  -5.352526e-02
  -1.115462e+02  -1.047901e+02
  -1.327457e+00  -1.904866e+02
   1.637339e+02  -1.542648e+02
   2.544039e+02   6.111930e+00
   1.937455e+02   1.787254e+02
   2.982811e+01   2.396047e+02
  -1.094251e+02   1.619212e+02
  -1.370015e+02   3.097948e+01
  -8.161136e+01  -4.343232e+01
  -4.031423e+01  -2.904536e+01
  -6.110837e+01   1.232983e+01
  -9.489825e+01   1.499280e+00
  -6.080961e+01  -6.904555e+01
   4.891819e+01  -1.188690e+02
   1.431512e+02  -6.985027e+01
   1.200001e+02   5.796239e+01
  -2.836529e+01   1.457176e+02
  -1.895871e+02   8.993340e+01
  -2.199694e+02  -8.412291e+01
  -7.357524e+01  -2.341511e+02
   1.488807e+02  -2.295570e+02
   2.852828e+02  -7.435313e+01
   2.481698e+02   1.033676e+02
   9.547746e+01   1.779621e+02
  -4.452580e+01   1.410706e+02
  -9.125305e+01   8.035369e+01
  -7.196221e+01   7.279184e+01
  -6.301745e+01   1.008473e+02
  -9.943323e+01   8.338790e+01
  -1.408422e+02  -2.419169e+01
  -1.199320e+02  -1.695686e+02
  -1.508430e+01  -2.402151e+02
   1.159559e+02  -1.674411e+02
   1.779795e+02   2.523231e+00
   1.211093e+02   1.447710e+02
  -4.299156e+00   1.643006e+02
  -8.770512e+01   7.539163e+01
  -6.635479e+01  -2.623040e+01
   9.909396e+00  -6.233392e+01
   3.561354e+01  -3.765267e+01
  -2.493372e+01  -1.131984e+01
  -8.979816e+01  -2.067255e+01
  -5.269905e+01  -4.530170e+01
   8.308389e+01  -3.994763e+01
   1.903057e+02   1.114674e+01
   1.513946e+02   7.666316e+01
  -1.007126e+01   1.060638e+02
  -1.504065e+02   7.284087e+01
  -1.539087e+02  -1.452576e+00
  -4.199960e+01  -5.783386e+01
   6.684642e+01  -4.711381e+01
   8.405363e+01   2.216007e+01
   2.116190e+01   8.355627e+01
  -4.927509e+01   7.371202e+01
  -7.571897e+01   1.738682e+00
  -6.389196e+01  -5.773748e+01
  -5.013701e+01  -4.811176e+01
  -5.740108e+01  -1.072453e+00
  -7.118111e+01  -1.671755e+00
  -5.002263e+01  -8.142960e+01
   3.185112e+01  -1.667142e+02
   1.432269e+02  -1.538520e+02
   1.998413e+02  -2.907782e+01
   1.388082e+02   1.074602e+02
  -3.267521e+00   1.448398e+02
  -1.029352e+02   7.413915e+01
  -6.816088e+01  -1.110386e+01
   5.931259e+01  -2.021400e+01
   1.373268e+02   4.646353e+01
   7.022107e+01   1.119279e+02
  -9.039417e+01   1.080520e+02
  -1.974291e+02   3.488755e+01
  -1.588301e+02  -4.994616e+01
  -2.466345e+01  -8.537403e+01
   7.165396e+01  -5.347199e+01
   4.900061e+01   8.055445e+00
  -4.735257e+01   3.164260e+01
  -1.006917e+02  -2.426724e+01
  -4.160942e+01  -1.223912e+02
   8.445038e+01  -1.625635e+02
   1.649452e+02  -7.397704e+01
   1.302039e+02   9.489068e+01
   1.348468e+01   2.004038e+02
  -8.866532e+01   1.447074e+02
  -1.078041e+02  -1.657234e+01
  -5.154906e+01  -1.292733e+02
   2.076986e+01  -1.063254e+02
   5.595152e+01  -1.136790e+01
   4.362841e+01   3.580154e+01
   1.410496e+01   7.003954e+00
   7.840766e+00  -1.791789e+01
   3.542459e+01   2.555229e+01
   5.909957e+01   9.763292e+01
   2.637644e+01   1.100743e+02
  -6.461143e+01   4.144042e+01
  -1.415505e+02  -4.300030e+01
  -1.240586e+02  -7.696635e+01
  -1.683911e+01  -5.893990e+01
   8.376024e+01  -2.683791e+01
   9.076194e+01  -2.352636e+00
   2.074365e+01   1.487966e+01
  -3.476939e+01   2.155096e+01
  -2.266379e+01   1.130913e+01
   1.252992e+01  -3.652742e+00
  -2.867710e+00  -3.703506e+00
  -6.803602e+01   6.864668e-01
  -9.862185e+01  -2.604036e+01
  -2.669089e+01  -8.775645e+01
   1.114618e+02  -1.242616e+02
   2.019299e+02  -6.962216e+01
   1.659238e+02   6.097540e+01
   3.419885e+01   1.676648e+02
  -8.916931e+01   1.654398e+02
  -1.267507e+02   7.069053e+01
  -8.535750e+01  -2.221831e+01
  -2.767411e+01  -4.453746e+01
  -3.853831e+00  -1.745311e+01
  -1.499737e+01  -1.086040e+01
  -2.853026e+01  -5.346925e+01
  -1.365508e+01  -9.758380e+01
   3.388286e+01  -7.620194e+01
   8.329750e+01   1.618794e+01
   8.570402e+01   1.076838e+02
   1.782595e+01   1.179314e+02
  -7.800252e+01   3.711787e+01
  -1.141173e+02  -6.581327e+01
  -4.513171e+01  -1.100119e+02
   6.884276e+01  -7.158266e+01
   1.143079e+02   7.380482e+00
   5.120115e+01   6.524535e+01
  -3.806520e+01   6.890755e+01
  -4.687707e+01   3.065521e+01
   2.502607e+01  -7.993185e+00
   7.278970e+01  -8.156931e+00
   2.047689e+01   3.186063e+01
  -8.484125e+01   6.859514e+01
  -1.325810e+02   5.062044e+01
  -7.844545e+01  -2.390301e+01
   1.664214e+01  -9.268687e+01
   6.810420e+01  -8.830484e+01
   5.351146e+01  -1.354014e+01
   8.864734e+00   5.685866e+01
  -2.731974e+01   5.486961e+01
  -4.096243e+01  -8.143336e+00
  -3.028398e+01  -5.875266e+01
   1.890387e+00  -4.663847e+01
   3.636517e+01   3.812266e+00
   4.486726e+01   2.968756e+01
   2.171802e+01   7.306434e+00
  -4.507947e+00  -2.371818e+01
  -5.217365e+00  -1.339390e+01
   9.713185e+00   3.346430e+01
   4.709432e+00   6.148755e+01
  -2.812325e+01   3.066291e+01
  -4.993087e+01  -3.284113e+01
  -2.162847e+01  -6.367321e+01
   3.975941e+01  -3.020935e+01
   6.864851e+01   3.194485e+01
   2.274467e+01   6.199939e+01
  -6.121271e+01   3.745762e+01
  -1.003112e+02  -1.220207e+01
  -5.330338e+01  -4.652486e+01
   3.222341e+01  -4.990147e+01
   7.090011e+01  -3.119243e+01
   3.266218e+01  -6.576379e+00
  -2.765792e+01   6.711106e+00
  -3.501534e+01  -3.139007e+00
   2.118876e+01  -2.507600e+01
   7.859860e+01  -2.300315e+01
