
 $NMID
 id='ANONYMOUS ', fmtdat='(2E16.6)'
 volume=1.0
 tramp=1.0
 $END
   3.422374e+03   2.279746e+02
   2.021415e+03   1.645985e+03
  -1.090996e+02   2.013749e+03
  -1.289681e+03   1.268876e+03
  -9.207784e+02   7.789681e+01
  -2.640484e+00  -3.199823e+02
   3.483967e+02   1.220224e+02
  -6.004405e+01   5.876070e+02
  -4.638398e+02   6.708128e+02
  -7.147781e+02  -6.387425e+00
  -4.975655e+02  -5.439239e+02
   1.336492e+01  -7.243625e+02
   3.343844e+02  -1.854250e+02
   2.848993e+02   4.284276e+02
  -1.253224e+02   5.649298e+02
  -4.739555e+02   1.034164e+02
  -2.626161e+02  -5.029733e+02
   1.471972e+02  -5.815749e+02
   4.215163e+02  -2.009505e+02
   3.734247e+02   1.589315e+02
   9.546349e+01   3.510742e+02
  -1.592084e+02   2.334131e+02
  -9.647756e+01   8.190617e+01
   1.449145e+02   6.288885e+01
   2.907791e+02   2.246263e+02
   2.706077e+01   3.509714e+02
  -4.371377e+02   1.975381e+02
  -6.125740e+02  -1.469988e+02
  -2.513141e+02  -3.345537e+02
   2.699701e+02  -2.060499e+02
   4.822839e+02   1.010175e+02
   1.946795e+02   3.133823e+02
  -2.362506e+02   3.511611e+02
  -4.353976e+02   1.172631e+02
  -3.180740e+02  -1.660126e+02
  -7.807822e+01  -3.195560e+02
   5.411195e+01  -1.829251e+02
   1.616906e+01   1.126940e+02
  -1.473498e+02   1.969860e+02
  -2.288780e+02  -1.002930e+02
  -9.177610e+01  -5.023869e+02
   2.360592e+02  -4.653973e+02
   3.436004e+02  -6.772552e+00
   1.364586e+02   3.383023e+02
  -1.685259e+02   1.732965e+02
  -2.071310e+02  -2.796305e+02
   9.804587e+01  -4.155616e+02
   4.356539e+02  -8.915107e+01
   4.620554e+02   3.366148e+02
   1.474461e+02   4.691416e+02
  -2.708046e+02   2.590323e+02
  -4.669856e+02  -5.871104e+01
  -2.977669e+02  -2.455027e+02
   6.016280e+01  -2.228568e+02
   2.884392e+02  -6.762760e+01
   2.080292e+02   5.967567e+01
  -1.349389e+01   5.228566e+01
  -7.852140e+01  -4.698404e+01
   8.010026e+01  -8.132117e+01
   2.237769e+02   2.933328e+01
   1.253846e+02   1.880999e+02
  -1.464456e+02   2.354288e+02
  -3.194416e+02   1.146983e+02
  -2.298033e+02  -1.018916e+02
   3.303528e+01  -2.868954e+02
   2.572783e+02  -3.199257e+02
   3.090009e+02  -1.494028e+02
   2.060970e+02   1.306141e+02
   6.646037e+01   3.176375e+02
  -6.368397e+00   2.969879e+02
  -1.269445e+01   1.680796e+02
  -3.945811e+01   1.014101e+02
  -1.360298e+02   1.088082e+02
  -2.349661e+02   5.497972e+01
  -2.260021e+02  -1.044556e+02
  -8.894355e+01  -2.336540e+02
   8.035040e+01  -1.793710e+02
   1.727784e+02   2.741174e+01
   1.298476e+02   2.125204e+02
  -3.612159e+01   2.306111e+02
  -2.254438e+02   7.215654e+01
  -2.963310e+02  -1.432154e+02
  -1.702248e+02  -2.758070e+02
   4.429192e+01  -2.601505e+02
   1.609043e+02  -1.458591e+02
   1.345821e+02  -6.068449e+01
   1.268870e+02  -5.413267e+01
   2.468356e+02  -4.303084e+01
   3.786237e+02   6.980970e+01
   2.999305e+02   2.668876e+02
  -1.781926e+01   4.085841e+02
  -3.452896e+02   3.745867e+02
  -4.331895e+02   1.651782e+02
  -2.623867e+02  -9.127656e+01
  -2.254133e+01  -2.354562e+02
   8.213973e+01  -1.830797e+02
   1.617246e+01  -2.542944e+01
  -1.078282e+02   5.173355e+01
  -1.279482e+02  -2.937960e+01
  -1.619044e+01  -1.407043e+02
   1.084437e+02  -1.084535e+02
   1.068439e+02   4.794601e+01
  -2.535644e+01   1.309154e+02
  -1.534962e+02   7.485367e+00
  -1.469747e+02  -2.162474e+02
   1.310461e+01  -3.217964e+02
   2.194889e+02  -1.971799e+02
   3.298815e+02   5.092736e+01
   2.634012e+02   2.371695e+02
   6.258915e+01   2.532578e+02
  -1.166096e+02   1.329758e+02
  -1.412275e+02   7.455684e+00
  -3.247734e+01  -1.487867e+01
   5.210573e+01   5.566891e+01
   7.285779e-01   1.108602e+02
  -1.166783e+02   7.061493e+01
  -1.411797e+02  -2.153567e+01
  -3.187349e+01  -5.494528e+01
   7.727139e+01   6.537712e+00
   3.722166e+01   8.630041e+01
  -1.371613e+02   8.760481e+01
  -2.802538e+02  -1.075148e+01
  -2.429295e+02  -1.503529e+02
  -3.594261e+01  -2.437507e+02
   1.819527e+02  -2.257734e+02
   2.456884e+02  -1.003650e+02
   1.312441e+02   3.851612e+01
  -2.547017e+01   7.479651e+01
  -6.285719e+01  -5.037108e+00
   4.655862e+01  -8.179520e+01
   1.752021e+02  -3.920492e+01
   1.824837e+02   9.385817e+01
   5.817001e+01   1.772325e+02
  -8.096830e+01   1.295877e+02
  -1.174365e+02   1.697581e+01
  -4.363688e+01  -3.476211e+01
   4.136812e+01   1.721432e+01
   3.055424e+01   1.009643e+02
  -8.481827e+01   1.139282e+02
  -1.947411e+02   2.009512e+01
  -1.735151e+02  -1.181671e+02
  -1.612873e+01  -1.926592e+02
   1.410523e+02  -1.426306e+02
   1.601315e+02  -1.215786e+01
   4.901482e+01   8.750888e+01
  -5.979767e+01   8.663870e+01
  -6.569461e+01   1.955951e+01
   6.146452e-01  -2.622881e+01
   3.641011e+01  -9.139805e+00
  -8.190851e+00   2.391571e+01
  -8.255419e+01   2.170917e+00
  -9.805229e+01  -8.442929e+01
  -1.175701e+01  -1.631271e+02
   1.297710e+02  -1.446945e+02
   2.200885e+02  -1.454282e+01
   1.808382e+02   1.426632e+02
   3.981496e+01   2.109849e+02
  -8.937536e+01   1.507392e+02
  -1.172125e+02   3.089323e+01
  -6.785899e+01  -3.981991e+01
  -3.033555e+01  -2.486852e+01
  -5.245097e+01   1.617645e+01
  -8.282552e+01   9.267517e+00
  -5.402541e+01  -5.189494e+01
   3.464223e+01  -9.835468e+01
   1.113309e+02  -6.538503e+01
   9.938813e+01   3.762991e+01
  -1.099642e+01   1.195306e+02
  -1.479984e+02   8.880030e+01
  -1.925039e+02  -5.512194e+01
  -8.705382e+01  -1.941324e+02
   1.074974e+02  -2.080205e+02
   2.457717e+02  -8.154046e+01
   2.283035e+02   7.860687e+01
   9.505377e+01   1.534004e+02
  -3.424443e+01   1.262831e+02
  -7.964305e+01   7.473751e+01
  -6.167847e+01   6.650454e+01
  -5.104707e+01   9.018302e+01
  -8.202452e+01   7.733432e+01
  -1.235781e+02  -1.257693e+01
  -1.156421e+02  -1.379919e+02
  -3.190780e+01  -2.072414e+02
   8.754449e+01  -1.575341e+02
   1.578062e+02  -1.720402e+01
   1.215836e+02   1.128516e+02
   1.239912e+01   1.450527e+02
  -6.980620e+01   7.898856e+01
  -6.072611e+01  -9.554104e+00
   1.153118e+00  -4.946412e+01
   2.356616e+01  -3.526242e+01
  -2.559873e+01  -1.231639e+01
  -7.847769e+01  -1.554608e+01
  -4.726129e+01  -3.595914e+01
   6.563765e+01  -3.828689e+01
   1.586029e+02  -2.662403e+00
   1.338242e+02   5.428818e+01
   3.009404e+00   9.012396e+01
  -1.202021e+02   7.164626e+01
  -1.335459e+02   8.553830e+00
  -4.340275e+01  -4.634914e+01
   5.221858e+01  -4.343363e+01
   7.182657e+01   1.387343e+01
   2.012121e+01   6.728861e+01
  -3.922258e+01   6.169229e+01
  -6.154476e+01   3.807600e+00
  -5.307971e+01  -4.499072e+01
  -4.385758e+01  -3.796113e+01
  -4.989946e+01   5.444321e-01
  -5.945540e+01   1.578101e+00
  -4.408250e+01  -6.395531e+01
   1.830405e+01  -1.387648e+02
   1.094362e+02  -1.356542e+02
   1.644025e+02  -3.582055e+01
   1.224398e+02   8.148341e+01
   4.902771e+00   1.196569e+02
  -8.437670e+01   6.483786e+01
  -5.820546e+01  -8.496139e+00
   5.271696e+01  -2.101350e+01
   1.236203e+02   3.339507e+01
   6.727768e+01   9.444407e+01
  -7.310243e+01   1.015616e+02
  -1.706123e+02   4.472004e+01
  -1.430660e+02  -3.510458e+01
  -2.955925e+01  -7.993609e+01
   5.815221e+01  -5.885370e+01
   4.583540e+01   1.664462e+00
  -3.512501e+01   3.308730e+01
  -8.606783e+01  -1.351039e+01
  -4.121762e+01  -1.059552e+02
   6.717843e+01  -1.473830e+02
   1.426863e+02  -7.070293e+01
   1.194966e+02   7.975682e+01
   2.090978e+01   1.756123e+02
  -7.141014e+01   1.310699e+02
  -9.596521e+01  -7.279829e+00
  -5.395722e+01  -1.082047e+02
   9.372973e+00  -9.501568e+01
   4.745945e+01  -1.614587e+01
   4.304743e+01   2.761396e+01
   1.541509e+01   6.967805e+00
   3.690962e+00  -1.587430e+01
   2.742841e+01   1.721799e+01
   5.592263e+01   7.862535e+01
   3.368100e+01   9.488680e+01
  -4.937072e+01   4.165246e+01
  -1.259114e+02  -2.923870e+01
  -1.150850e+02  -6.114168e+01
  -1.800331e+01  -5.054131e+01
   7.404080e+01  -2.757319e+01
   7.960709e+01  -7.687718e+00
   1.620563e+01   1.081785e+01
  -3.064125e+01   2.126041e+01
  -1.637556e+01   1.255438e+01
   1.447927e+01  -3.990945e+00
  -3.036736e+00  -5.293835e+00
  -6.205649e+01   2.606764e+00
  -8.642612e+01  -1.749837e+01
  -2.212576e+01  -7.433367e+01
   9.496864e+01  -1.128412e+02
   1.707413e+02  -6.787392e+01
   1.434116e+02   4.866721e+01
   3.750973e+01   1.457421e+02
  -6.659221e+01   1.459096e+02
  -1.052614e+02   6.495019e+01
  -7.685818e+01  -1.405521e+01
  -2.714275e+01  -3.334548e+01
  -2.219912e+00  -1.180734e+01
  -1.195493e+01  -7.445888e+00
  -2.978798e+01  -4.393408e+01
  -2.089010e+01  -8.266876e+01
   2.371336e+01  -6.736781e+01
   7.328818e+01   9.474982e+00
   7.824956e+01   8.900108e+01
   1.763427e+01   1.011721e+02
  -6.742238e+01   3.443039e+01
  -9.931657e+01  -5.294528e+01
  -4.142078e+01  -9.135195e+01
   5.422390e+01  -6.143457e+01
   9.298038e+01   1.690240e+00
   4.262583e+01   4.949766e+01
  -2.908644e+01   5.620406e+01
  -3.507762e+01   2.797531e+01
   2.372979e+01  -5.923837e+00
   6.188628e+01  -1.075604e+01
   1.800488e+01   2.352425e+01
  -6.870455e+01   6.209791e+01
  -1.085597e+02   5.308656e+01
  -6.664819e+01  -1.244302e+01
   7.599293e+00  -7.851935e+01
   4.909861e+01  -7.904339e+01
   4.131865e+01  -1.444840e+01
   1.010241e+01   4.675578e+01
  -1.876669e+01   4.425193e+01
  -3.400748e+01  -8.392562e+00
  -2.825005e+01  -4.779203e+01
  -5.246421e-01  -3.527051e+01
   3.109752e+01   3.964139e+00
   3.925915e+01   2.186729e+01
   1.862169e+01   3.619166e+00
  -4.872361e+00  -1.761715e+01
  -7.334338e+00  -6.724556e+00
   3.289673e+00   2.877483e+01
  -5.439962e-01   4.651299e+01
  -2.413203e+01   1.885812e+01
  -3.765918e+01  -3.200887e+01
  -1.250835e+01  -5.478948e+01
   3.680536e+01  -2.521338e+01
   5.909885e+01   2.796100e+01
   2.104108e+01   5.476960e+01
  -4.992749e+01   3.583688e+01
  -8.583436e+01  -6.232665e+00
  -4.888675e+01  -3.735764e+01
   2.400441e+01  -4.285447e+01
   5.874735e+01  -2.853621e+01
   2.634843e+01  -7.927631e+00
  -2.577414e+01   3.632475e+00
  -3.026859e+01  -4.936480e+00
   2.145802e+01  -2.405985e+01
   7.188532e+01  -2.178316e+01
