
 $NMID
 id='ANONYMOUS ', fmtdat='(2E16.6)'
 volume=1.0
 tramp=1.0
 $END
  -4.508364e+03   1.770853e+02
  -2.511562e+03  -2.942093e+03
   8.622298e+02  -2.733307e+03
   2.122333e+03  -7.463560e+02
   9.054107e+02   6.233609e+02
  -6.775101e+02   5.487722e+02
  -7.918678e+02  -6.322481e+02
  -4.521805e+01  -1.171927e+03
   8.939216e+02  -7.295449e+02
   9.689429e+02   1.981942e+02
   4.312621e+02   8.968761e+02
  -3.006358e+02   8.791334e+02
  -6.621284e+02   1.407434e+02
  -4.439332e+02  -6.729665e+02
   2.846544e+02  -7.775121e+02
   6.672987e+02   2.208360e+01
   2.960815e+02   7.006646e+02
  -3.729475e+02   6.707613e+02
  -6.772051e+02   1.424475e+02
  -4.028110e+02  -3.695489e+02
   3.449093e+01  -4.938067e+02
   2.712567e+02  -2.457041e+02
   2.212466e+02  -1.099951e+01
  -1.248085e+02   8.306214e+01
  -4.318835e+02  -1.389606e+02
  -1.651254e+02  -4.435768e+02
   5.047980e+02  -3.675176e+02
   8.780560e+02   1.336266e+02
   4.191654e+02   5.609895e+02
  -4.027954e+02   4.622921e+02
  -7.580674e+02  -6.538429e+01
  -3.319112e+02  -5.193773e+02
   3.224528e+02  -5.013427e+02
   5.854999e+02  -1.759852e+02
   4.195972e+02   2.471420e+02
   5.777661e+01   4.862028e+02
  -1.972843e+02   2.723786e+02
  -1.563707e+02  -2.441381e+02
   1.818117e+02  -4.554793e+02
   4.534458e+02   2.341824e+01
   2.472495e+02   7.070246e+02
  -3.288439e+02   7.285690e+02
  -6.254850e+02   8.510690e+00
  -2.890492e+02  -5.710601e+02
   2.748218e+02  -3.360327e+02
   3.884116e+02   3.187900e+02
  -5.854812e+01   5.553947e+02
  -5.672951e+02   1.329635e+02
  -6.251077e+02  -4.412305e+02
  -1.668227e+02  -6.286548e+02
   4.201731e+02  -3.710179e+02
   6.766222e+02   8.616661e+01
   3.908014e+02   4.182148e+02
  -1.707861e+02   3.875517e+02
  -4.696998e+02   5.601810e+01
  -2.580960e+02  -2.086425e+02
   1.155682e+02  -1.215466e+02
   1.452904e+02   1.393558e+02
  -1.667363e+02   1.799362e+02
  -3.525606e+02  -7.376120e+01
  -1.421175e+02  -2.986984e+02
   2.145909e+02  -2.650226e+02
   3.460285e+02  -8.224573e+01
   2.008000e+02   8.110969e+01
  -4.050547e+01   2.272084e+02
  -2.492360e+02   3.314322e+02
  -3.636723e+02   2.149190e+02
  -2.991214e+02  -1.573568e+02
  -6.331911e+01  -4.680692e+02
   1.418109e+02  -4.090490e+02
   1.388841e+02  -1.182285e+02
   2.592579e+01   1.633103e+01
   4.144017e+01  -8.732022e+01
   2.067548e+02  -1.390507e+02
   3.018522e+02   5.018574e+01
   1.738259e+02   2.875471e+02
  -7.577009e+01   2.836408e+02
  -2.422485e+02   2.268429e+01
  -2.034072e+02  -2.515507e+02
   1.833609e+01  -3.072319e+02
   2.766764e+02  -1.142283e+02
   3.629014e+02   1.833640e+02
   1.799767e+02   3.673672e+02
  -1.087225e+02   3.133442e+02
  -2.385098e+02   1.230646e+02
  -1.641886e+02   1.101839e+01
  -1.128084e+02   3.181398e+01
  -2.424497e+02   5.080694e+01
  -4.077000e+02  -7.529022e+01
  -3.381491e+02  -3.032694e+02
   2.512725e+00  -4.575081e+02
   3.741992e+02  -4.266621e+02
   5.129416e+02  -2.087254e+02
   3.580562e+02   9.456395e+01
   5.866016e+01   3.049796e+02
  -1.411693e+02   2.617101e+02
  -8.553426e+01   3.037391e+01
   1.183125e+02  -1.100963e+02
   2.092267e+02   4.962905e+00
   5.650621e+01   2.004466e+02
  -1.657665e+02   1.782830e+02
  -1.854025e+02  -5.570008e+01
   1.808552e+01  -1.906750e+02
   2.010979e+02  -2.939776e+01
   1.674090e+02   2.571138e+02
  -3.820397e+01   3.646619e+02
  -2.466915e+02   2.034569e+02
  -3.422934e+02  -6.704342e+01
  -2.861977e+02  -2.550311e+02
  -9.600571e+01  -2.785695e+02
   1.163015e+02  -1.650923e+02
   1.808606e+02  -2.029022e+01
   6.142874e+01   2.823234e+01
  -6.613254e+01  -4.928428e+01
  -2.328779e+01  -1.333260e+02
   1.330712e+02  -9.891577e+01
   1.871261e+02   1.942031e+01
   6.087128e+01   7.676244e+01
  -8.329707e+01   1.401209e+01
  -5.707170e+01  -7.788381e+01
   1.304732e+02  -8.668960e+01
   2.956505e+02   8.213117e+00
   2.731515e+02   1.524250e+02
   5.610314e+01   2.667779e+02
  -2.006213e+02   2.669250e+02
  -3.004541e+02   1.250167e+02
  -1.768193e+02  -5.785818e+01
   2.793693e+01  -1.150116e+02
   9.518469e+01  -8.650915e+00
  -3.540279e+01   1.042491e+02
  -2.042521e+02   5.751226e+01
  -2.204841e+02  -1.125652e+02
  -6.870990e+01  -2.217362e+02
   1.033230e+02  -1.653224e+02
   1.549104e+02  -2.595091e+01
   7.626772e+01   4.877880e+01
  -2.897963e+01   5.537417e+00
  -4.004078e+01  -8.592278e+01
   7.266335e+01  -1.154254e+02
   2.027366e+02  -2.627991e+01
   1.950827e+02   1.298725e+02
   1.870855e+01   2.246360e+02
  -1.733899e+02   1.661606e+02
  -2.030156e+02   2.859311e+00
  -6.854798e+01  -1.215631e+02
   7.042830e+01  -1.176315e+02
   8.969039e+01  -3.223512e+01
   2.290030e+01   2.746512e+01
  -2.070917e+01   2.003577e+01
   9.089090e+00  -7.253911e+00
   7.094858e+01   9.510900e+00
   8.909301e+01   8.422771e+01
   1.391130e+01   1.615592e+02
  -1.296190e+02   1.539681e+02
  -2.377936e+02   2.478973e+01
  -2.038820e+02  -1.548649e+02
  -4.113132e+01  -2.446619e+02
   1.130302e+02  -1.762140e+02
   1.405119e+02  -2.862766e+01
   7.399711e+01   5.736667e+01
   3.239501e+01   3.797282e+01
   5.656230e+01  -1.094149e+01
   8.240300e+01  -4.842127e+00
   4.269271e+01   5.363210e+01
  -4.508173e+01   9.079426e+01
  -1.071829e+02   5.386566e+01
  -8.791646e+01  -4.057375e+01
   1.608079e+01  -1.135412e+02
   1.470407e+02  -8.306541e+01
   1.995477e+02   5.901761e+01
   9.621852e+01   2.088988e+02
  -1.157513e+02   2.300273e+02
  -2.768384e+02   8.974633e+01
  -2.636794e+02  -9.716001e+01
  -1.086438e+02  -1.874916e+02
   4.577715e+01  -1.524789e+02
   1.029715e+02  -8.380598e+01
   8.639200e+01  -6.903050e+01
   7.187525e+01  -9.228464e+01
   9.771994e+01  -7.465277e+01
   1.336144e+02   2.682186e+01
   1.191560e+02   1.644843e+02
   2.469405e+01   2.370087e+02
  -1.071662e+02   1.774865e+02
  -1.824559e+02   1.826633e+01
  -1.389175e+02  -1.281208e+02
  -1.827386e+01  -1.648310e+02
   6.896463e+01  -9.444754e+01
   6.076410e+01  -1.084585e+00
   4.755865e+00   4.205578e+01
  -9.970145e+00   3.435528e+01
   3.791372e+01   2.023612e+01
   8.160100e+01   2.704410e+01
   4.542104e+01   4.227071e+01
  -6.693983e+01   3.742316e+01
  -1.644587e+02  -1.046918e+00
  -1.487971e+02  -5.775149e+01
  -1.515877e+01  -9.378696e+01
   1.269116e+02  -7.526553e+01
   1.524624e+02  -1.151551e+01
   5.152224e+01   4.252475e+01
  -6.127067e+01   3.634198e+01
  -7.644125e+01  -2.136953e+01
  -4.661200e+00  -6.899524e+01
   6.060070e+01  -5.558206e+01
   6.597797e+01   5.593616e+00
   4.382274e+01   5.294887e+01
   4.345706e+01   4.363128e+01
   6.358588e+01   4.645782e+00
   6.848143e+01   4.464514e+00
   3.399455e+01   7.263503e+01
  -3.880399e+01   1.504573e+02
  -1.246851e+02   1.437390e+02
  -1.713106e+02   3.114006e+01
  -1.272530e+02  -9.715184e+01
  -6.918768e+00  -1.330571e+02
   8.846989e+01  -6.536909e+01
   6.207004e+01   1.469612e+01
  -5.947234e+01   1.916764e+01
  -1.392711e+02  -4.803801e+01
  -7.470820e+01  -1.139948e+02
   8.711659e+01  -1.160441e+02
   1.998455e+02  -4.964876e+01
   1.682475e+02   4.005097e+01
   3.730325e+01   9.177008e+01
  -6.296039e+01   7.187389e+01
  -4.922910e+01   7.488688e+00
   4.057377e+01  -2.533317e+01
   9.125832e+01   2.664732e+01
   3.008918e+01   1.236036e+02
  -9.730200e+01   1.568648e+02
  -1.733053e+02   6.059496e+01
  -1.291452e+02  -1.062776e+02
  -8.030562e+00  -2.041610e+02
   9.071678e+01  -1.475811e+02
   1.091862e+02   8.394793e+00
   6.206694e+01   1.226863e+02
  -3.249007e+00   1.100332e+02
  -4.827884e+01   2.007807e+01
  -5.360441e+01  -3.300393e+01
  -2.627165e+01  -8.822120e+00
  -3.708827e+00   2.200188e+01
  -2.056755e+01  -1.530365e+01
  -5.601773e+01  -9.261370e+01
  -4.185929e+01  -1.144003e+02
   4.878822e+01  -4.596367e+01
   1.417103e+02   4.387819e+01
   1.327361e+02   7.612007e+01
   1.764390e+01   5.106320e+01
  -9.031375e+01   2.044791e+01
  -9.082951e+01   6.627099e+00
  -1.164906e+01  -6.591115e+00
   3.889132e+01  -2.176027e+01
   1.418580e+01  -1.949842e+01
  -2.183592e+01   1.018961e-02
   6.227564e+00   9.713851e+00
   7.616878e+01   6.228532e+00
   9.287025e+01   2.561709e+01
   6.594649e+00   8.039644e+01
  -1.237537e+02   1.132823e+02
  -1.910147e+02   5.647566e+01
  -1.432761e+02  -7.134208e+01
  -2.207407e+01  -1.674411e+02
   8.539147e+01  -1.535615e+02
   1.191726e+02  -5.788934e+01
   8.207567e+01   2.466610e+01
   2.429203e+01   3.712237e+01
  -2.894604e+00   7.752399e+00
   1.194436e+01   3.418547e+00
   3.480886e+01   4.839815e+01
   2.224580e+01   9.460496e+01
  -3.160602e+01   7.376025e+01
  -8.320812e+01  -2.090935e+01
  -7.701464e+01  -1.126008e+02
  -2.449657e+00  -1.141014e+02
   8.424823e+01  -2.193590e+01
   1.035173e+02   7.880132e+01
   3.088919e+01   1.055361e+02
  -6.863372e+01   5.538294e+01
  -9.969407e+01  -1.337170e+01
  -3.936080e+01  -5.190142e+01
   3.415829e+01  -5.285661e+01
   3.257397e+01  -2.921792e+01
  -3.473594e+01  -4.500929e-01
  -7.117857e+01   5.978496e+00
  -1.477898e+01  -2.552996e+01
   8.259826e+01  -6.618025e+01
   1.196246e+02  -5.809670e+01
   6.462094e+01   1.328730e+01
  -1.886454e+01   8.429378e+01
  -5.618689e+01   7.891878e+01
  -3.648827e+01   3.249876e+00
   2.000590e+00  -5.782559e+01
   2.863180e+01  -4.181497e+01
   3.664564e+01   2.216046e+01
   2.499046e+01   5.741688e+01
  -4.176038e+00   3.294597e+01
  -3.388752e+01  -1.067730e+01
  -4.082757e+01  -2.252873e+01
  -2.216446e+01  -5.700925e-01
  -2.244210e-01   1.503919e+01
   6.994603e+00  -3.647715e+00
   7.303911e+00  -3.865064e+01
   1.723843e+01  -4.643699e+01
   3.287155e+01  -7.814539e+00
   3.096198e+01   4.580532e+01
  -1.770302e+00   6.156061e+01
  -4.521720e+01   2.015998e+01
  -5.723916e+01  -4.057709e+01
  -1.388574e+01  -6.407989e+01
   5.736063e+01  -3.316322e+01
   9.159042e+01   1.823481e+01
   4.925633e+01   4.714497e+01
  -3.202779e+01   4.192791e+01
  -6.874498e+01   2.018419e+01
  -2.587964e+01   3.003479e+00
   3.800481e+01   1.626745e+00
   3.822269e+01   1.635349e+01
  -3.234458e+01   3.131842e+01
  -9.358915e+01   1.777777e+01
