
 $NMID
 id='ANONYMOUS ', fmtdat='(2E16.6)'
 volume=1.0
 tramp=1.0
 $END
   3.383270e+03   7.544847e+01
   2.095899e+03   2.104360e+03
  -4.532816e+02   2.291085e+03
  -1.446353e+03   1.028069e+03
  -1.176341e+03  -1.911797e+02
   2.861365e+02  -3.790598e+02
   6.785480e+02   3.914504e+02
   3.603289e+01   8.036469e+02
  -7.177030e+02   6.946441e+02
  -7.666878e+02  -5.691410e+01
  -4.532664e+02  -7.136168e+02
   1.947759e+02  -7.606744e+02
   4.210404e+02  -1.773722e+02
   3.184642e+02   5.358995e+02
  -1.926327e+02   6.295394e+02
  -5.031206e+02   3.634946e+01
  -2.572339e+02  -6.334384e+02
   2.654660e+02  -5.956703e+02
   5.267483e+02  -1.642760e+02
   4.065828e+02   2.871796e+02
   7.523068e+01   4.476420e+02
  -1.664093e+02   2.385159e+02
  -1.485166e+02   1.845397e+01
   1.570223e+02  -1.618262e+01
   3.292646e+02   1.656013e+02
   6.180066e+01   3.881401e+02
  -4.551395e+02   2.842951e+02
  -6.952012e+02  -1.134112e+02
  -3.108069e+02  -4.198851e+02
   3.397594e+02  -3.248154e+02
   6.113321e+02   8.520234e+01
   2.552587e+02   4.079619e+02
  -2.709394e+02   4.459390e+02
  -5.024046e+02   1.700169e+02
  -3.805553e+02  -1.846793e+02
  -9.530626e+01  -3.807441e+02
   7.938680e+01  -2.300871e+02
   5.193186e+01   1.336164e+02
  -1.588324e+02   2.583925e+02
  -2.907718e+02  -8.484429e+01
  -1.107661e+02  -5.602763e+02
   2.727339e+02  -5.588809e+02
   4.590209e+02  -2.604705e+01
   2.182861e+02   4.009724e+02
  -1.833881e+02   2.301102e+02
  -2.642186e+02  -2.710325e+02
   8.830030e+01  -4.443819e+02
   4.890921e+02  -7.583232e+01
   5.325439e+02   3.935542e+02
   1.572852e+02   5.388130e+02
  -3.415190e+02   3.091643e+02
  -5.776342e+02  -5.133769e+01
  -3.681682e+02  -3.003609e+02
   7.878896e+01  -2.965089e+02
   3.524688e+02  -9.426864e+01
   2.326040e+02   9.120277e+01
  -4.790266e+01   6.610954e+01
  -1.034617e+02  -8.971546e+01
   1.200294e+02  -1.234367e+02
   2.911402e+02   4.840499e+01
   1.482661e+02   2.393609e+02
  -1.760192e+02   2.582443e+02
  -3.567858e+02   1.132391e+02
  -2.514092e+02  -9.369393e+01
   1.982544e+01  -2.882921e+02
   2.643363e+02  -3.702924e+02
   3.594164e+02  -2.130993e+02
   2.748123e+02   1.384437e+02
   8.793648e+01   4.067973e+02
  -5.424396e+01   3.763162e+02
  -7.124144e+01   1.655242e+02
  -4.763936e+01   5.206944e+01
  -1.068409e+02   9.331542e+01
  -2.279986e+02   8.922777e+01
  -2.644240e+02  -7.924330e+01
  -1.361471e+02  -2.605697e+02
   7.010424e+01  -2.391243e+02
   2.061010e+02  -5.931752e+00
   1.725814e+02   2.306729e+02
  -1.986664e+01   2.735503e+02
  -2.478853e+02   9.104756e+01
  -3.275794e+02  -1.670700e+02
  -1.805891e+02  -3.222956e+02
   6.499973e+01  -2.849253e+02
   1.894920e+02  -1.406338e+02
   1.503655e+02  -5.443310e+01
   1.322781e+02  -6.201262e+01
   2.671150e+02  -5.466881e+01
   4.128978e+02   8.214405e+01
   3.303565e+02   3.045909e+02
  -1.497958e+01   4.478006e+02
  -3.761091e+02   4.046983e+02
  -4.873106e+02   1.846147e+02
  -3.115583e+02  -9.349249e+01
  -3.848617e+01  -2.670766e+02
   1.039315e+02  -2.245397e+02
   4.185347e+01  -4.272537e+01
  -1.110219e+02   6.373942e+01
  -1.567185e+02  -2.172928e+01
  -2.811370e+01  -1.657383e+02
   1.345100e+02  -1.395577e+02
   1.430273e+02   4.922017e+01
  -1.849821e+01   1.585558e+02
  -1.716421e+02   1.605934e+01
  -1.560688e+02  -2.454571e+02
   2.583737e+01  -3.553300e+02
   2.425652e+02  -2.078797e+02
   3.532885e+02   6.270475e+01
   2.893168e+02   2.582293e+02
   8.355437e+01   2.769331e+02
  -1.179281e+02   1.545154e+02
  -1.621488e+02   1.771708e+01
  -4.768139e+01  -1.651568e+01
   5.580198e+01   5.662534e+01
   6.592941e+00   1.225752e+02
  -1.279264e+02   8.344286e+01
  -1.628478e+02  -2.052737e+01
  -4.234322e+01  -6.400558e+01
   8.318325e+01  -9.197784e-01
   4.541219e+01   8.623790e+01
  -1.434794e+02   9.068543e+01
  -3.026349e+02  -1.014033e+01
  -2.680810e+02  -1.601591e+02
  -4.443170e+01  -2.687658e+02
   2.012032e+02  -2.564486e+02
   2.819192e+02  -1.153780e+02
   1.579448e+02   4.803729e+01
  -2.458225e+01   9.249984e+01
  -7.529257e+01  -3.455872e-01
   4.563901e+01  -9.072110e+01
   1.934275e+02  -4.284271e+01
   2.045948e+02   1.072595e+02
   6.502474e+01   2.007683e+02
  -9.264356e+01   1.487668e+02
  -1.385561e+02   2.385627e+01
  -6.067168e+01  -3.915630e+01
   3.605470e+01   8.473909e+00
   3.302954e+01   9.665154e+01
  -8.722970e+01   1.167937e+02
  -2.086760e+02   2.168722e+01
  -1.877829e+02  -1.293124e+02
  -1.414388e+01  -2.156201e+02
   1.608984e+02  -1.609257e+02
   1.821681e+02  -1.286400e+01
   5.892418e+01   1.019964e+02
  -6.217732e+01   1.038642e+02
  -7.339800e+01   2.933804e+01
  -7.809097e+00  -2.499330e+01
   3.030220e+01  -1.435829e+01
  -8.853391e+00   1.595924e+01
  -7.987666e+01  -3.796763e+00
  -9.681956e+01  -8.805079e+01
  -1.226391e+01  -1.688293e+02
   1.366143e+02  -1.523128e+02
   2.387071e+02  -1.535030e+01
   1.995205e+02   1.567464e+02
   4.209201e+01   2.348476e+02
  -1.037461e+02   1.674985e+02
  -1.336891e+02   3.293737e+01
  -7.664363e+01  -4.658392e+01
  -3.488796e+01  -3.026400e+01
  -5.683806e+01   1.387266e+01
  -8.704873e+01   5.782387e+00
  -5.340511e+01  -5.843214e+01
   4.030835e+01  -1.035789e+02
   1.187825e+02  -6.535028e+01
   1.039173e+02   4.206270e+01
  -1.318617e+01   1.239987e+02
  -1.562154e+02   8.751359e+01
  -2.043671e+02  -6.280139e+01
  -8.952853e+01  -2.101857e+02
   1.220862e+02  -2.240501e+02
   2.722095e+02  -8.524041e+01
   2.526971e+02   9.072823e+01
   1.044056e+02   1.740149e+02
  -3.834953e+01   1.439025e+02
  -9.118041e+01   8.478389e+01
  -7.439485e+01   7.430220e+01
  -6.277922e+01   9.936848e+01
  -9.375281e+01   8.288110e+01
  -1.370376e+02  -1.913063e+01
  -1.272869e+02  -1.587821e+02
  -3.309811e+01  -2.330995e+02
   1.013261e+02  -1.745541e+02
   1.779005e+02  -1.751259e+01
   1.347665e+02   1.250016e+02
   1.467931e+01   1.583679e+02
  -7.171021e+01   8.628367e+01
  -6.074370e+01  -7.676759e+00
   1.157083e+00  -4.900711e+01
   1.985838e+01  -3.517424e+01
  -3.191673e+01  -1.394885e+01
  -8.329984e+01  -1.923917e+01
  -4.837803e+01  -3.988228e+01
   7.022945e+01  -4.070968e+01
   1.704398e+02  -2.130139e+00
   1.483611e+02   5.871946e+01
   8.902711e+00   9.739188e+01
  -1.293761e+02   7.882778e+01
  -1.489370e+02   1.240684e+01
  -4.932414e+01  -4.585903e+01
   5.937168e+01  -4.282720e+01
   7.865342e+01   1.780120e+01
   1.484131e+01   7.345740e+01
  -5.215014e+01   6.538756e+01
  -7.009373e+01   9.671978e-01
  -5.473873e+01  -5.274438e+01
  -4.705408e+01  -4.505010e+01
  -5.854546e+01  -2.227869e+00
  -6.693782e+01  -1.169613e+00
  -4.211341e+01  -7.295019e+01
   2.907320e+01  -1.547703e+02
   1.231599e+02  -1.491990e+02
   1.768301e+02  -3.657713e+01
   1.324002e+02   9.277068e+01
   9.006652e+00   1.318538e+02
  -8.659111e+01   6.881687e+01
  -6.071528e+01  -1.048097e+01
   5.798717e+01  -1.962441e+01
   1.360558e+02   4.287642e+01
   7.470029e+01   1.082949e+02
  -8.123383e+01   1.129332e+02
  -1.905687e+02   4.913094e+01
  -1.603088e+02  -3.715953e+01
  -3.372468e+01  -8.495266e+01
   6.289276e+01  -6.297940e+01
   4.771466e+01  -5.614966e-02
  -4.248882e+01   3.050459e+01
  -9.533841e+01  -2.161572e+01
  -3.959155e+01  -1.193602e+02
   8.354905e+01  -1.584358e+02
   1.632553e+02  -7.022275e+01
   1.299171e+02   9.375007e+01
   1.710514e+01   1.957588e+02
  -8.254214e+01   1.451765e+02
  -1.062869e+02  -6.997874e+00
  -6.027383e+01  -1.191634e+02
   7.294790e+00  -1.060986e+02
   5.010115e+01  -1.849343e+01
   4.914046e+01   3.140550e+01
   2.027357e+01   7.688892e+00
   4.472862e+00  -1.975961e+01
   2.764777e+01   1.754231e+01
   6.029645e+01   8.973167e+01
   3.878858e+01   1.091478e+02
  -5.252834e+01   4.650244e+01
  -1.394013e+02  -3.611216e+01
  -1.279934e+02  -6.949299e+01
  -1.881274e+01  -5.233511e+01
   8.341137e+01  -2.539043e+01
   8.651278e+01  -7.567250e+00
   1.398121e+01   9.082522e+00
  -3.558469e+01   2.193304e+01
  -1.544369e+01   1.589868e+01
   1.850011e+01  -2.102232e+00
  -5.146438e+00  -6.938725e+00
  -7.215773e+01  -8.903482e-01
  -9.456388e+01  -2.224659e+01
  -1.726962e+01  -8.148396e+01
   1.123193e+02  -1.197244e+02
   1.893387e+02  -6.748188e+01
   1.525909e+02   6.039754e+01
   3.425360e+01   1.634964e+02
  -7.813203e+01   1.588100e+02
  -1.181608e+02   6.689318e+01
  -8.454868e+01  -1.943097e+01
  -2.803084e+01  -3.778115e+01
  -2.475457e-01  -1.125724e+01
  -1.280471e+01  -6.172641e+00
  -3.379026e+01  -4.871969e+01
  -2.232975e+01  -9.347260e+01
   2.952423e+01  -7.460092e+01
   8.295066e+01   1.499630e+01
   8.276508e+01   1.048649e+02
   1.157587e+01   1.131086e+02
  -7.951676e+01   3.150502e+01
  -1.075289e+02  -6.701760e+01
  -3.898882e+01  -1.035628e+02
   6.463422e+01  -6.390690e+01
   1.024122e+02   5.890168e+00
   4.399178e+01   5.398285e+01
  -3.343869e+01   5.928487e+01
  -3.658935e+01   3.056450e+01
   3.016397e+01  -4.089208e+00
   7.055654e+01  -9.952364e+00
   1.871832e+01   2.593898e+01
  -7.877927e+01   6.800350e+01
  -1.209493e+02   5.851249e+01
  -7.086322e+01  -1.419421e+01
   1.327170e+01  -8.666764e+01
   5.703579e+01  -8.438539e+01
   4.397182e+01  -1.015422e+01
   6.096949e+00   5.582122e+01
  -2.529378e+01   4.751590e+01
  -3.894279e+01  -1.431826e+01
  -2.966980e+01  -5.562732e+01
   1.377335e+00  -3.780253e+01
   3.455165e+01   6.514450e+00
   4.230351e+01   2.320974e+01
   2.074809e+01   1.769152e+00
  -3.120965e+00  -1.915107e+01
  -6.123188e+00  -4.276569e+00
   2.054344e+00   3.424281e+01
  -4.533705e+00   5.072700e+01
  -2.883957e+01   1.838887e+01
  -3.946458e+01  -3.653988e+01
  -1.017238e+01  -5.939894e+01
   4.130308e+01  -2.551673e+01
   6.190786e+01   3.255628e+01
   1.924372e+01   6.040743e+01
  -5.665117e+01   3.698168e+01
  -9.373017e+01  -1.078534e+01
  -5.200885e+01  -4.382735e+01
   2.866759e+01  -4.658312e+01
   6.681860e+01  -2.853288e+01
   2.942583e+01  -6.852961e+00
  -3.024775e+01   2.748182e+00
  -3.499465e+01  -8.005545e+00
   2.542016e+01  -2.707625e+01
   8.296680e+01  -2.116642e+01
