
 $NMID
 id='ANONYMOUS ', fmtdat='(2E16.6)'
 volume=1.0
 tramp=1.0
 $END
  -4.762278e+03   1.779030e+02
  -2.636929e+03  -2.791769e+03
   8.749810e+02  -2.812582e+03
   2.074367e+03  -1.103939e+03
   8.997498e+02   5.930898e+02
  -6.574775e+02   5.932218e+02
  -8.984366e+02  -3.840257e+02
  -9.069194e+01  -1.076909e+03
   7.846488e+02  -8.335324e+02
   8.550068e+02  -3.276480e+01
   4.390714e+02   8.375932e+02
  -1.650856e+02   9.661950e+02
  -6.283799e+02   2.254898e+02
  -4.193990e+02  -6.592013e+02
   2.219478e+02  -7.874783e+02
   6.300886e+02  -2.002017e+00
   3.365925e+02   7.472024e+02
  -2.777379e+02   7.063580e+02
  -6.246691e+02   1.428174e+02
  -4.078486e+02  -3.244540e+02
  -3.199589e+01  -4.063840e+02
   2.580747e+02  -3.076911e+02
   2.239829e+02  -2.831450e+01
  -9.786137e+01   1.081233e+02
  -4.077631e+02  -8.482830e+01
  -2.197076e+02  -4.335699e+02
   4.395672e+02  -4.328941e+02
   8.586442e+02   6.771273e+01
   4.465237e+02   5.689467e+02
  -3.901111e+02   4.880655e+02
  -7.548409e+02  -2.526643e+01
  -3.714796e+02  -5.164258e+02
   2.649857e+02  -5.138325e+02
   5.711815e+02  -2.266421e+02
   4.140727e+02   2.049339e+02
   9.413141e+01   4.741538e+02
  -1.851094e+02   3.024467e+02
  -1.929014e+02  -2.035693e+02
   1.567885e+02  -4.538384e+02
   4.656970e+02   4.665549e+00
   2.623811e+02   6.846740e+02
  -3.315198e+02   7.182614e+02
  -6.304897e+02   2.724467e+00
  -2.683160e+02  -6.068988e+02
   3.258301e+02  -3.649545e+02
   4.207184e+02   3.281424e+02
  -5.658919e+01   5.860882e+02
  -5.782364e+02   1.625901e+02
  -6.162883e+02  -4.127622e+02
  -1.679394e+02  -6.066157e+02
   3.949914e+02  -3.623327e+02
   6.514105e+02   7.890614e+01
   3.905375e+02   4.062656e+02
  -1.658069e+02   3.886169e+02
  -4.714853e+02   5.680231e+01
  -2.501888e+02  -2.178956e+02
   1.447865e+02  -1.177177e+02
   1.684918e+02   1.809445e+02
  -1.821178e+02   2.311457e+02
  -3.913077e+02  -6.024063e+01
  -1.610660e+02  -3.278934e+02
   2.225582e+02  -2.918912e+02
   3.489318e+02  -8.059640e+01
   1.882753e+02   8.976001e+01
  -3.649429e+01   2.181733e+02
  -2.081558e+02   3.211142e+02
  -3.151639e+02   2.317982e+02
  -2.886312e+02  -1.196537e+02
  -9.651164e+01  -4.398571e+02
   1.022594e+02  -4.020797e+02
   1.224210e+02  -1.208559e+02
   2.781023e+01   1.480325e+01
   3.983397e+01  -9.072721e+01
   1.952724e+02  -1.469334e+02
   2.898035e+02   3.987054e+01
   1.742729e+02   2.748268e+02
  -6.452835e+01   2.703023e+02
  -2.294424e+02   1.968020e+01
  -2.066036e+02  -2.406528e+02
   9.302723e-02  -3.006584e+02
   2.648263e+02  -1.251278e+02
   3.762338e+02   1.610609e+02
   2.074411e+02   3.568230e+02
  -8.989984e+01   3.204951e+02
  -2.341975e+02   1.335714e+02
  -1.608046e+02   6.561211e+00
  -9.945409e+01   3.973599e+01
  -2.350047e+02   7.743137e+01
  -4.172021e+02  -4.743204e+01
  -3.568837e+02  -2.929036e+02
  -9.329609e+00  -4.662761e+02
   3.695868e+02  -4.379430e+02
   5.079529e+02  -2.136297e+02
   3.495906e+02   9.424072e+01
   6.090643e+01   3.052541e+02
  -1.346562e+02   2.648253e+02
  -8.441978e+01   3.212925e+01
   1.103857e+02  -1.165275e+02
   2.053778e+02   1.881917e+00
   5.852308e+01   2.017109e+02
  -1.663526e+02   1.801674e+02
  -1.909658e+02  -6.278320e+01
   1.742465e+01  -2.060784e+02
   2.133656e+02  -3.879343e+01
   1.836052e+02   2.582829e+02
  -2.780742e+01   3.666419e+02
  -2.407802e+02   2.036739e+02
  -3.387243e+02  -5.670732e+01
  -2.859901e+02  -2.342217e+02
  -1.015047e+02  -2.627298e+02
   1.084269e+02  -1.668991e+02
   1.765907e+02  -2.916826e+01
   5.853234e+01   2.827622e+01
  -7.317756e+01  -3.947723e+01
  -3.253278e+01  -1.277603e+02
   1.278099e+02  -1.047177e+02
   1.857600e+02   9.427877e+00
   5.963140e+01   7.220415e+01
  -8.495895e+01   1.467301e+01
  -5.692313e+01  -7.768983e+01
   1.293170e+02  -9.086070e+01
   2.902598e+02  -1.596133e+00
   2.689661e+02   1.394759e+02
   6.424670e+01   2.575878e+02
  -1.807651e+02   2.690030e+02
  -2.842189e+02   1.360039e+02
  -1.764182e+02  -4.807106e+01
   1.826251e+01  -1.135432e+02
   8.969606e+01  -1.187975e+01
  -3.167147e+01   1.035832e+02
  -1.977736e+02   6.292286e+01
  -2.188579e+02  -1.040720e+02
  -7.249383e+01  -2.141802e+02
   9.635351e+01  -1.627995e+02
   1.479495e+02  -2.972675e+01
   7.187543e+01   4.188574e+01
  -2.970004e+01   1.901581e+00
  -3.922562e+01  -8.517298e+01
   7.237711e+01  -1.155321e+02
   2.024392e+02  -3.160266e+01
   1.979434e+02   1.237499e+02
   2.547017e+01   2.235155e+02
  -1.658705e+02   1.700543e+02
  -1.982836e+02   7.339271e+00
  -6.746080e+01  -1.167216e+02
   6.690499e+01  -1.108748e+02
   8.220338e+01  -2.678496e+01
   1.575611e+01   2.701232e+01
  -2.275648e+01   1.409636e+01
   1.230896e+01  -1.318367e+01
   7.520716e+01   8.819028e+00
   9.170788e+01   8.535176e+01
   1.620523e+01   1.616359e+02
  -1.279721e+02   1.564392e+02
  -2.389591e+02   3.152596e+01
  -2.091302e+02  -1.466582e+02
  -4.705065e+01  -2.408116e+02
   1.079056e+02  -1.781098e+02
   1.367933e+02  -3.321654e+01
   6.862592e+01   5.276915e+01
   2.873659e+01   3.347686e+01
   5.742082e+01  -1.676722e+01
   8.614755e+01  -7.695436e+00
   4.643235e+01   5.266403e+01
  -4.183419e+01   9.271049e+01
  -1.035087e+02   5.886045e+01
  -8.669644e+01  -3.576780e+01
   1.169774e+01  -1.133076e+02
   1.384950e+02  -8.968887e+01
   1.973309e+02   4.873527e+01
   1.062066e+02   2.030963e+02
  -1.023371e+02   2.339121e+02
  -2.695977e+02   1.003036e+02
  -2.646321e+02  -8.589236e+01
  -1.144629e+02  -1.798024e+02
   3.839764e+01  -1.491758e+02
   9.512832e+01  -8.509716e+01
   7.869026e+01  -7.173010e+01
   6.640291e+01  -9.455755e+01
   9.444451e+01  -7.749195e+01
   1.322307e+02   2.017462e+01
   1.225033e+02   1.548299e+02
   3.356986e+01   2.298927e+02
  -9.839572e+01   1.778510e+02
  -1.799067e+02   2.468215e+01
  -1.423291e+02  -1.221806e+02
  -2.183871e+01  -1.637022e+02
   6.871354e+01  -9.661774e+01
   6.155730e+01  -3.017311e+00
   4.172906e+00   4.119703e+01
  -1.069913e+01   3.251439e+01
   3.934380e+01   1.659842e+01
   8.436004e+01   2.322449e+01
   4.818960e+01   4.077073e+01
  -6.379644e+01   3.980413e+01
  -1.608047e+02   4.845264e+00
  -1.467718e+02  -5.089531e+01
  -1.739424e+01  -8.948959e+01
   1.211405e+02  -7.554099e+01
   1.472034e+02  -1.400807e+01
   4.935071e+01   4.162101e+01
  -6.174257e+01   3.778243e+01
  -7.817531e+01  -2.059184e+01
  -8.672787e+00  -7.105091e+01
   5.654135e+01  -5.917749e+01
   6.479635e+01   2.643498e+00
   4.539084e+01   5.063069e+01
   4.446312e+01   4.041622e+01
   6.183864e+01  -8.170420e-01
   6.676998e+01  -1.926954e+00
   3.737460e+01   6.718994e+01
  -2.932257e+01   1.476431e+02
  -1.134569e+02   1.444520e+02
  -1.644807e+02   3.625697e+01
  -1.255974e+02  -9.038055e+01
  -7.462220e+00  -1.277137e+02
   8.812980e+01  -6.320678e+01
   6.281277e+01   1.536719e+01
  -5.872578e+01   2.292901e+01
  -1.399342e+02  -3.969072e+01
  -7.837257e+01  -1.050422e+02
   8.010542e+01  -1.125826e+02
   1.917749e+02  -5.381880e+01
   1.632800e+02   3.308223e+01
   3.578573e+01   8.853494e+01
  -6.442058e+01   7.317229e+01
  -5.250390e+01   7.138692e+00
   3.761991e+01  -3.144587e+01
   9.250342e+01   1.774682e+01
   3.619388e+01   1.187278e+02
  -8.979624e+01   1.591129e+02
  -1.687838e+02   6.645985e+01
  -1.298451e+02  -1.012270e+02
  -1.332617e+01  -2.015190e+02
   8.416358e+01  -1.469839e+02
   1.057323e+02   6.972677e+00
   6.280386e+01   1.194870e+02
  -9.900899e-01   1.069871e+02
  -4.758509e+01   1.915686e+01
  -5.406892e+01  -3.262554e+01
  -2.526347e+01  -9.175826e+00
  -1.190252e+00   2.150813e+01
  -2.015717e+01  -1.335509e+01
  -5.968686e+01  -8.775761e+01
  -4.694405e+01  -1.108859e+02
   4.648794e+01  -4.860062e+01
   1.428236e+02   3.630012e+01
   1.345128e+02   6.991977e+01
   1.837293e+01   5.125885e+01
  -8.966173e+01   2.485469e+01
  -8.911074e+01   9.398908e+00
  -9.835221e+00  -7.671301e+00
   3.931156e+01  -2.339813e+01
   1.332107e+01  -1.780296e+01
  -2.269477e+01   3.473853e+00
   5.298070e+00   1.032775e+01
   7.518213e+01   2.584114e+00
   9.266911e+01   2.154100e+01
   8.989251e+00   8.055331e+01
  -1.189007e+02   1.179817e+02
  -1.871698e+02   6.260345e+01
  -1.444375e+02  -6.667241e+01
  -2.859825e+01  -1.651272e+02
   7.777720e+01  -1.540494e+02
   1.154081e+02  -6.064496e+01
   8.300746e+01   2.181566e+01
   2.610120e+01   3.645444e+01
  -3.499485e+00   8.891331e+00
   9.602415e+00   3.341113e+00
   3.447827e+01   4.549137e+01
   2.537118e+01   9.139382e+01
  -2.812532e+01   7.412196e+01
  -8.344235e+01  -1.665727e+01
  -8.135094e+01  -1.081283e+02
  -7.366474e+00  -1.134132e+02
   8.231871e+01  -2.594850e+01
   1.054457e+02   7.318935e+01
   3.458426e+01   1.020490e+02
  -6.542891e+01   5.609806e+01
  -9.818471e+01  -9.987562e+00
  -3.987191e+01  -4.907193e+01
   3.232418e+01  -5.188276e+01
   3.116951e+01  -2.859890e+01
  -3.423996e+01   1.255358e+00
  -7.004462e+01   8.136733e+00
  -1.658011e+01  -2.533974e+01
   7.738738e+01  -6.906477e+01
   1.150287e+02  -6.225783e+01
   6.573204e+01   1.056302e+01
  -1.247108e+01   8.436256e+01
  -5.045049e+01   8.177897e+01
  -3.693001e+01   7.196060e+00
  -3.275467e+00  -5.525091e+01
   2.385401e+01  -4.270953e+01
   3.563674e+01   1.810142e+01
   2.660071e+01   5.337166e+01
  -3.018297e+00   3.244381e+01
  -3.356512e+01  -8.436149e+00
  -3.980654e+01  -2.071982e+01
  -2.055239e+01  -1.110818e+00
   5.986406e-01   1.352008e+01
   6.304784e+00  -3.485754e+00
   5.889718e+00  -3.709381e+01
   1.641133e+01  -4.500269e+01
   3.296907e+01  -7.740989e+00
   3.140674e+01   4.574346e+01
  -1.608132e+00   6.217547e+01
  -4.562908e+01   2.105287e+01
  -5.881222e+01  -4.002703e+01
  -1.616443e+01  -6.434402e+01
   5.523623e+01  -3.484211e+01
   9.042762e+01   1.515834e+01
   4.979724e+01   4.405403e+01
  -2.997097e+01   4.058993e+01
  -6.644120e+01   2.086213e+01
  -2.399987e+01   3.506002e+00
   3.934169e+01   4.610568e-01
   3.968147e+01   1.482444e+01
  -3.018990e+01   3.219400e+01
  -9.183317e+01   2.186991e+01
