
 $NMID
 id='ANONYMOUS ', fmtdat='(2E16.6)'
 volume=1.0
 tramp=1.0
 $END
   3.859095e+03  -7.220147e+01
   2.240713e+03   2.327066e+03
  -5.037958e+02   2.281244e+03
  -1.700715e+03   9.526859e+02
  -8.030178e+02  -2.110565e+02
   4.106430e+02  -3.241212e+02
   5.869269e+02   3.053947e+02
   5.223974e+01   8.493768e+02
  -6.089521e+02   7.458109e+02
  -6.681112e+02  -1.162697e+00
  -3.866513e+02  -6.453123e+02
   7.216441e+01  -7.514759e+02
   4.438307e+02  -6.199135e+01
   2.756197e+02   6.257962e+02
  -1.972287e+02   6.146544e+02
  -4.971821e+02   7.236953e+01
  -2.131137e+02  -5.444474e+02
   2.039812e+02  -5.515084e+02
   4.250119e+02  -1.413742e+02
   3.660764e+02   2.318599e+02
   8.538665e+01   3.539046e+02
  -1.807668e+02   2.592095e+02
  -1.466701e+02   6.116647e+01
   1.321061e+02  -4.566383e-01
   3.528170e+02   1.862427e+02
   1.189909e+02   4.008366e+02
  -4.523893e+02   3.616867e+02
  -7.143240e+02  -6.461529e+01
  -3.455031e+02  -4.326389e+02
   3.471092e+02  -3.537031e+02
   6.048652e+02   5.655148e+01
   2.519801e+02   3.975299e+02
  -2.606824e+02   4.290747e+02
  -4.956257e+02   1.798427e+02
  -3.594685e+02  -2.055539e+02
  -6.940741e+01  -4.189708e+02
   1.460443e+02  -2.467428e+02
   8.962730e+01   1.589884e+02
  -1.819870e+02   3.333178e+02
  -3.623886e+02  -5.555221e+01
  -1.697518e+02  -5.995097e+02
   2.834556e+02  -6.032170e+02
   4.962381e+02  -1.849962e+01
   2.169583e+02   4.657036e+02
  -2.413436e+02   2.708182e+02
  -3.262314e+02  -2.943517e+02
   6.662029e+01  -4.938950e+02
   5.069924e+02  -1.198720e+02
   5.367107e+02   3.884362e+02
   1.439387e+02   5.451510e+02
  -3.564072e+02   2.952640e+02
  -5.561691e+02  -9.024327e+01
  -3.165559e+02  -3.224616e+02
   1.227692e+02  -2.841911e+02
   3.554246e+02  -4.914573e+01
   2.048472e+02   1.302677e+02
  -7.013491e+01   7.260684e+01
  -1.047099e+02  -1.047690e+02
   1.196937e+02  -1.331972e+02
   2.760061e+02   5.062579e+01
   1.352415e+02   2.379373e+02
  -1.604775e+02   2.439966e+02
  -3.168820e+02   1.016914e+02
  -2.254903e+02  -7.920599e+01
   6.534936e+00  -2.453265e+02
   2.237229e+02  -3.221216e+02
   3.174530e+02  -1.898707e+02
   2.398455e+02   1.223647e+02
   5.735303e+01   3.575501e+02
  -6.747166e+01   3.141501e+02
  -5.028087e+01   1.170221e+02
  -9.575970e-01   3.798359e+01
  -6.689457e+01   1.100526e+02
  -2.117721e+02   1.121010e+02
  -2.583072e+02  -6.926792e+01
  -1.253401e+02  -2.549359e+02
   8.285111e+01  -2.177510e+02
   2.027016e+02   2.041906e+01
   1.548643e+02   2.364360e+02
  -3.675147e+01   2.588272e+02
  -2.482758e+02   8.143425e+01
  -3.180927e+02  -1.583672e+02
  -1.676482e+02  -3.033077e+02
   7.174260e+01  -2.731684e+02
   1.836636e+02  -1.330129e+02
   1.340500e+02  -3.380794e+01
   1.077446e+02  -4.405722e+01
   2.324062e+02  -5.712860e+01
   3.799899e+02   5.061224e+01
   3.154478e+02   2.575173e+02
   8.299581e+00   4.175518e+02
  -3.311478e+02   3.962505e+02
  -4.550503e+02   1.916424e+02
  -3.069973e+02  -9.077672e+01
  -4.600928e+01  -2.684296e+02
   1.076164e+02  -2.214450e+02
   5.215128e+01  -2.948281e+01
  -1.084279e+02   7.717500e+01
  -1.655499e+02  -2.454518e+01
  -2.935620e+01  -1.767306e+02
   1.482586e+02  -1.426638e+02
   1.541744e+02   6.407767e+01
  -1.985117e+01   1.771302e+02
  -1.811092e+02   3.084736e+01
  -1.629738e+02  -2.281450e+02
   1.390012e+01  -3.327690e+02
   2.122184e+02  -1.947579e+02
   3.149604e+02   4.830921e+01
   2.654124e+02   2.228026e+02
   8.467581e+01   2.461556e+02
  -1.051161e+02   1.444412e+02
  -1.541612e+02   1.658018e+01
  -4.513645e+01  -2.381819e+01
   6.140671e+01   4.389731e+01
   1.698970e+01   1.175155e+02
  -1.187270e+02   8.730139e+01
  -1.597573e+02  -1.678915e+01
  -4.443664e+01  -6.718666e+01
   8.172405e+01  -7.786524e+00
   5.077680e+01   8.115163e+01
  -1.261931e+02   9.106308e+01
  -2.769523e+02  -1.813308e+00
  -2.493125e+02  -1.417981e+02
  -4.705552e+01  -2.441290e+02
   1.785286e+02  -2.362144e+02
   2.567641e+02  -1.078137e+02
   1.442817e+02   4.645227e+01
  -2.698911e+01   8.989971e+01
  -7.556124e+01  -1.084578e+00
   4.038368e+01  -9.286882e+01
   1.832914e+02  -4.894570e+01
   1.939054e+02   9.908855e+01
   5.965755e+01   1.934628e+02
  -9.030152e+01   1.432257e+02
  -1.323558e+02   2.010413e+01
  -5.692121e+01  -4.344086e+01
   3.694522e+01   2.199774e+00
   3.770499e+01   8.946290e+01
  -7.524067e+01   1.133463e+02
  -1.954039e+02   2.557821e+01
  -1.816075e+02  -1.202212e+02
  -1.519313e+01  -2.050885e+02
   1.576158e+02  -1.513849e+02
   1.789499e+02  -4.593883e+00
   5.406651e+01   1.060652e+02
  -6.870826e+01   1.008692e+02
  -7.750533e+01   2.226101e+01
  -7.593266e+00  -3.096617e+01
   3.231135e+01  -1.650440e+01
  -5.392152e+00   1.864287e+01
  -7.494584e+01   3.397460e+00
  -9.493616e+01  -7.637894e+01
  -1.883484e+01  -1.576104e+02
   1.219332e+02  -1.508798e+02
   2.241261e+02  -2.464112e+01
   1.922305e+02   1.416490e+02
   4.199330e+01   2.218255e+02
  -9.766448e+01   1.596799e+02
  -1.244037e+02   2.991571e+01
  -6.576612e+01  -4.640830e+01
  -2.709319e+01  -2.953085e+01
  -5.186490e+01   1.676627e+01
  -8.354332e+01   1.177072e+01
  -5.268564e+01  -4.682289e+01
   3.280150e+01  -9.383737e+01
   1.015855e+02  -6.464112e+01
   9.214617e+01   3.190941e+01
  -7.476477e+00   1.130678e+02
  -1.385401e+02   8.884323e+01
  -1.930320e+02  -4.850051e+01
  -9.727735e+01  -1.930838e+02
   1.016435e+02  -2.152927e+02
   2.516588e+02  -8.837934e+01
   2.386364e+02   8.011174e+01
   9.896999e+01   1.614841e+02
  -3.763574e+01   1.327483e+02
  -8.503911e+01   7.567028e+01
  -6.697486e+01   6.405443e+01
  -5.580192e+01   8.826524e+01
  -8.419944e+01   7.585299e+01
  -1.222991e+02  -1.470746e+01
  -1.141875e+02  -1.419285e+02
  -3.145672e+01  -2.127040e+02
   8.971614e+01  -1.624980e+02
   1.630091e+02  -1.936277e+01
   1.278228e+02   1.146081e+02
   1.715345e+01   1.500267e+02
  -6.707921e+01   8.572357e+01
  -6.013710e+01  -3.626803e+00
  -1.966760e+00  -4.667420e+01
   1.787013e+01  -3.618235e+01
  -2.977975e+01  -1.346839e+01
  -7.937075e+01  -1.417234e+01
  -4.865448e+01  -3.406888e+01
   6.157768e+01  -4.081828e+01
   1.568248e+02  -9.408368e+00
   1.395471e+02   4.924163e+01
   1.143468e+01   9.008372e+01
  -1.182324e+02   7.408856e+01
  -1.375082e+02   1.068860e+01
  -4.446887e+01  -4.331490e+01
   5.699753e+01  -3.812564e+01
   7.353712e+01   1.820773e+01
   1.333421e+01   6.640795e+01
  -4.721849e+01   5.668942e+01
  -6.112875e+01   4.055871e-01
  -4.704575e+01  -4.469144e+01
  -4.223978e+01  -3.698510e+01
  -5.453051e+01   4.764053e-01
  -6.209236e+01   2.187537e+00
  -4.088677e+01  -6.188410e+01
   2.090205e+01  -1.387849e+02
   1.064631e+02  -1.395195e+02
   1.600264e+02  -4.027452e+01
   1.229136e+02   8.079147e+01
   8.824981e+00   1.213859e+02
  -8.249836e+01   6.429364e+01
  -5.817307e+01  -1.140264e+01
   5.641905e+01  -2.282695e+01
   1.320156e+02   3.541142e+01
   7.397592e+01   9.983080e+01
  -7.528407e+01   1.091291e+02
  -1.802816e+02   5.269517e+01
  -1.535411e+02  -3.040464e+01
  -3.508292e+01  -8.226768e+01
   5.796927e+01  -6.781011e+01
   4.847191e+01  -7.572637e+00
  -3.253860e+01   2.832075e+01
  -8.368388e+01  -1.377279e+01
  -3.690190e+01  -1.045069e+02
   7.384529e+01  -1.448237e+02
   1.484469e+02  -6.588788e+01
   1.202827e+02   8.633198e+01
   1.678851e+01   1.822762e+02
  -7.738161e+01   1.356025e+02
  -1.016513e+02  -7.048569e+00
  -5.904677e+01  -1.135272e+02
   6.242657e+00  -1.020076e+02
   4.905787e+01  -1.897946e+01
   4.870444e+01   3.020857e+01
   1.964192e+01   9.179303e+00
   2.405590e+00  -1.808218e+01
   2.393077e+01   1.390014e+01
   5.665041e+01   8.027478e+01
   3.891679e+01   9.980538e+01
  -4.623500e+01   4.376754e+01
  -1.290232e+02  -3.160294e+01
  -1.198833e+02  -6.233592e+01
  -1.793519e+01  -4.722198e+01
   7.817090e+01  -2.409780e+01
   8.137644e+01  -8.390684e+00
   1.308330e+01   8.221156e+00
  -3.444895e+01   2.170979e+01
  -1.662265e+01   1.544523e+01
   1.612749e+01  -3.507558e+00
  -3.435231e+00  -8.339809e+00
  -6.407900e+01  -5.877310e-01
  -8.531118e+01  -1.806110e+01
  -1.647318e+01  -7.317007e+01
   1.004665e+02  -1.106904e+02
   1.707296e+02  -6.377436e+01
   1.383223e+02   5.402240e+01
   3.203771e+01   1.484880e+02
  -6.903194e+01   1.435006e+02
  -1.053034e+02   5.935812e+01
  -7.533457e+01  -1.803010e+01
  -2.421403e+01  -3.283799e+01
   1.173610e+00  -7.717726e+00
  -1.079753e+01  -2.912279e+00
  -3.183352e+01  -4.233877e+01
  -2.335486e+01  -8.446944e+01
   2.377137e+01  -6.891655e+01
   7.443348e+01   1.210372e+01
   7.659371e+01   9.437817e+01
   1.288969e+01   1.026986e+02
  -7.071261e+01   2.872523e+01
  -9.749462e+01  -6.018729e+01
  -3.624926e+01  -9.221609e+01
   5.731862e+01  -5.617682e+01
   9.193338e+01   5.263852e+00
   3.996934e+01   4.744538e+01
  -2.929343e+01   5.334499e+01
  -3.154804e+01   2.950208e+01
   2.823470e+01  -1.972694e+00
   6.360214e+01  -8.840910e+00
   1.573637e+01   2.356593e+01
  -7.217008e+01   6.389699e+01
  -1.092812e+02   5.687167e+01
  -6.412343e+01  -9.913679e+00
   9.533817e+00  -7.732661e+01
   4.582377e+01  -7.638297e+01
   3.360612e+01  -1.038902e+01
   3.209595e+00   4.686964e+01
  -2.084470e+01   3.833385e+01
  -3.156446e+01  -1.530780e+01
  -2.472879e+01  -4.909468e+01
   1.273000e+00  -3.168174e+01
   3.098423e+01   6.890916e+00
   3.867426e+01   2.105387e+01
   1.946409e+01   3.219179e+00
  -3.593599e+00  -1.371173e+01
  -9.136340e+00  -1.124828e+00
  -3.890343e+00   3.047329e+01
  -9.339330e+00   4.216432e+01
  -2.716389e+01   1.154748e+01
  -3.244788e+01  -3.754662e+01
  -4.790287e+00  -5.619090e+01
   3.971552e+01  -2.304280e+01
   5.667174e+01   3.120054e+01
   1.820491e+01   5.668089e+01
  -5.010579e+01   3.462847e+01
  -8.441822e+01  -9.062686e+00
  -4.753991e+01  -3.829192e+01
   2.543901e+01  -3.966836e+01
   5.927450e+01  -2.339668e+01
   2.304312e+01  -5.545715e+00
  -3.244039e+01   4.684883e-01
  -3.447836e+01  -1.100006e+01
   2.456991e+01  -2.770151e+01
   7.840572e+01  -2.044291e+01
