
 $NMID
 id='ANONYMOUS ', fmtdat='(2E16.6)'
 volume=1.0
 tramp=1.0
 $END
  -3.450176e+03  -1.166993e+02
  -2.008354e+03  -1.809692e+03
   3.428996e+02  -1.975243e+03
   1.337945e+03  -9.007106e+02
   7.466349e+02   4.635166e+01
  -9.811785e+01   1.379653e+02
  -3.863644e+02  -3.273711e+02
   6.278870e+01  -6.341945e+02
   6.362286e+02  -4.988958e+02
   5.956899e+02   7.321606e+01
   3.571892e+02   5.487166e+02
   2.084895e+01   6.579057e+02
  -3.588607e+02   1.732485e+02
  -2.060471e+02  -4.486171e+02
   1.609274e+02  -5.337555e+02
   3.815255e+02  -2.955867e+01
   2.443691e+02   4.933812e+02
  -2.009747e+02   5.325652e+02
  -4.594803e+02   1.877414e+02
  -4.263956e+02  -1.954113e+02
  -1.187328e+02  -3.253665e+02
   1.372506e+02  -2.551451e+02
   1.307328e+02  -7.285027e+01
  -1.686031e+02  -7.770523e+01
  -3.233527e+02  -2.461516e+02
  -4.109598e+01  -3.452132e+02
   4.689465e+02  -1.940777e+02
   6.566150e+02   1.624532e+02
   2.592427e+02   4.052957e+02
  -3.388303e+02   2.451068e+02
  -5.317186e+02  -1.264765e+02
  -2.000690e+02  -3.916041e+02
   2.736522e+02  -3.483262e+02
   4.667475e+02  -1.249915e+02
   3.068698e+02   1.799355e+02
   5.941421e+01   3.304829e+02
  -8.113735e+01   1.838894e+02
   2.181996e+00  -1.460158e+02
   1.900180e+02  -2.340305e+02
   2.597107e+02   1.117937e+02
   6.415377e+01   5.125569e+02
  -2.569331e+02   4.745355e+02
  -3.822588e+02   2.389572e+00
  -1.525492e+02  -3.630056e+02
   1.725387e+02  -1.983986e+02
   2.330910e+02   2.518374e+02
  -7.023724e+01   4.182500e+02
  -4.356465e+02   9.648333e+01
  -4.992810e+02  -3.520758e+02
  -1.594046e+02  -5.042404e+02
   3.223315e+02  -2.811003e+02
   5.424288e+02   8.288896e+01
   3.305981e+02   2.998294e+02
  -9.947460e+01   2.621274e+02
  -3.356245e+02   6.603049e+01
  -2.115797e+02  -7.744473e+01
   3.009316e+01  -4.441435e+01
   6.478176e+01   6.650453e+01
  -1.198630e+02   7.745834e+01
  -2.456388e+02  -5.434950e+01
  -1.163678e+02  -1.995175e+02
   1.584614e+02  -2.294775e+02
   3.218864e+02  -1.234584e+02
   2.408539e+02   7.311700e+01
  -1.482349e+01   2.791412e+02
  -2.693775e+02   3.522700e+02
  -3.605284e+02   1.756004e+02
  -2.407417e+02  -1.579944e+02
  -2.976330e+01  -3.726349e+02
   8.415625e+01  -3.082240e+02
   4.486922e+01  -1.192782e+02
  -6.623521e+00  -5.291635e+01
   7.218758e+01  -1.146453e+02
   2.212689e+02  -9.648153e+01
   2.584797e+02   8.858038e+01
   1.118688e+02   2.600507e+02
  -9.953002e+01   2.078868e+02
  -2.037812e+02  -3.942812e+01
  -1.353695e+02  -2.541482e+02
   5.647522e+01  -2.574699e+02
   2.496800e+02  -6.354911e+01
   2.991769e+02   1.732377e+02
   1.598831e+02   2.967650e+02
  -5.682540e+01   2.589576e+02
  -1.686342e+02   1.403856e+02
  -1.464008e+02   6.322714e+01
  -1.352420e+02   5.934330e+01
  -2.559281e+02   3.894375e+01
  -3.885984e+02  -8.606619e+01
  -3.119946e+02  -2.820003e+02
   9.077657e+00  -4.208787e+02
   3.564205e+02  -3.887317e+02
   4.694828e+02  -1.773386e+02
   2.937107e+02   9.542098e+01
   2.306879e+01   2.534888e+02
  -1.093662e+02   1.990943e+02
  -2.966163e+01   2.458978e+01
   1.169312e+02  -6.058530e+01
   1.465591e+02   3.363841e+01
   1.408005e+01   1.559770e+02
  -1.322663e+02   1.174140e+02
  -1.288970e+02  -6.036851e+01
   2.543599e+01  -1.501637e+02
   1.683879e+02  -1.406356e+01
   1.516051e+02   2.248442e+02
  -2.209234e+01   3.289771e+02
  -2.308468e+02   1.990295e+02
  -3.369315e+02  -5.673674e+01
  -2.666975e+02  -2.494345e+02
  -6.143910e+01  -2.683588e+02
   1.272532e+02  -1.425906e+02
   1.548589e+02  -5.805664e+00
   3.756806e+01   2.243354e+01
  -5.655744e+01  -5.290514e+01
  -3.512166e+00  -1.131496e+02
   1.236759e+02  -6.955387e+01
   1.509225e+02   2.879536e+01
   3.189284e+01   6.266204e+01
  -8.779481e+01  -6.435324e+00
  -4.728861e+01  -9.299585e+01
   1.395742e+02  -9.218524e+01
   2.924562e+02   1.621296e+01
   2.500201e+02   1.651756e+02
   2.508496e+01   2.586413e+02
  -2.064411e+02   2.283493e+02
  -2.656643e+02   8.662083e+01
  -1.336172e+02  -5.841624e+01
   3.573658e+01  -8.614951e+01
   6.934670e+01   6.268703e+00
  -5.163604e+01   8.643423e+01
  -1.850086e+02   3.561379e+01
  -1.859045e+02  -1.081396e+02
  -5.112011e+01  -1.936689e+02
   9.546707e+01  -1.382783e+02
   1.329028e+02  -1.497088e+01
   5.293597e+01   4.235308e+01
  -4.078077e+01  -1.187895e+01
  -3.204648e+01  -1.007595e+02
   9.084878e+01  -1.135499e+02
   2.076604e+02  -1.128215e+01
   1.792523e+02   1.359051e+02
   4.422690e+00   2.098797e+02
  -1.638766e+02   1.471391e+02
  -1.782196e+02   1.732326e+00
  -5.252651e+01  -1.048591e+02
   6.730629e+01  -9.906980e+01
   7.587576e+01  -2.117007e+01
   5.788664e+00   3.191895e+01
  -3.621921e+01   1.525590e+01
   2.880356e+00  -2.331610e+01
   7.864358e+01  -5.012582e+00
   9.892330e+01   8.259468e+01
   1.424228e+01   1.653925e+02
  -1.327310e+02   1.481480e+02
  -2.290980e+02   1.183756e+01
  -1.862650e+02  -1.537558e+02
  -3.276081e+01  -2.230319e+02
   1.033789e+02  -1.545534e+02
   1.272981e+02  -2.542734e+01
   6.824505e+01   4.905037e+01
   2.847509e+01   3.099466e+01
   5.064805e+01  -1.708744e+01
   8.308136e+01  -1.240293e+01
   5.472642e+01   5.036819e+01
  -3.417808e+01   1.009396e+02
  -1.114742e+02   6.681911e+01
  -9.899053e+01  -3.917946e+01
   1.546966e+01  -1.212283e+02
   1.539638e+02  -8.436117e+01
   1.979246e+02   6.573086e+01
   8.376487e+01   2.096648e+02
  -1.233656e+02   2.174426e+02
  -2.672501e+02   7.779152e+01
  -2.431950e+02  -9.443667e+01
  -9.372152e+01  -1.719768e+02
   4.686123e+01  -1.373641e+02
   9.355866e+01  -7.433793e+01
   7.161252e+01  -6.123696e+01
   5.729857e+01  -8.594972e+01
   8.618483e+01  -7.386358e+01
   1.229575e+02   1.980977e+01
   1.091477e+02   1.504985e+02
   2.075208e+01   2.182384e+02
  -9.871624e+01   1.591763e+02
  -1.638215e+02   8.702114e+00
  -1.216195e+02  -1.246186e+02
  -9.350840e+00  -1.527555e+02
   7.260906e+01  -8.047769e+01
   6.151971e+01   1.163096e+01
  -2.223504e+00   5.195260e+01
  -2.520659e+01   3.647774e+01
   2.571791e+01   1.232211e+01
   8.154526e+01   1.576428e+01
   5.100346e+01   3.755488e+01
  -6.621600e+01   3.999534e+01
  -1.659728e+02   9.403178e-01
  -1.426223e+02  -6.031572e+01
  -4.310072e+00  -9.560195e+01
   1.286658e+02  -7.077934e+01
   1.432264e+02  -3.023866e+00
   4.449855e+01   4.940848e+01
  -5.932808e+01   3.932530e+01
  -7.661375e+01  -2.121947e+01
  -1.615062e+01  -7.099472e+01
   4.764782e+01  -5.948340e+01
   6.556300e+01   6.987119e-01
   5.163048e+01   4.875125e+01
   4.355912e+01   4.139151e+01
   5.302644e+01   2.890149e+00
   6.159062e+01   1.416589e+00
   3.954479e+01   6.614586e+01
  -2.763196e+01   1.415829e+02
  -1.184271e+02   1.375509e+02
  -1.697119e+02   3.312415e+01
  -1.243862e+02  -8.989522e+01
  -2.969068e+00  -1.281047e+02
   8.922096e+01  -6.674729e+01
   6.152937e+01   1.140791e+01
  -5.569175e+01   2.089263e+01
  -1.311619e+02  -4.106401e+01
  -7.020728e+01  -1.052649e+02
   8.142828e+01  -1.073152e+02
   1.854031e+02  -4.249338e+01
   1.537403e+02   4.105414e+01
   3.075353e+01   8.420162e+01
  -6.188375e+01   6.122391e+01
  -4.788976e+01   1.194617e+00
   3.547701e+01  -2.795633e+01
   8.423740e+01   1.907233e+01
   3.371150e+01   1.086509e+02
  -7.829066e+01   1.445332e+02
  -1.505309e+02   6.174532e+01
  -1.183302e+02  -9.133771e+01
  -1.122146e+01  -1.854435e+02
   8.347232e+01  -1.343899e+02
   1.035083e+02   1.226100e+01
   5.424628e+01   1.182782e+02
  -1.359897e+01   1.027727e+02
  -5.244469e+01   1.644151e+01
  -4.647309e+01  -3.237057e+01
  -1.711949e+01  -9.952505e+00
  -4.099583e+00   1.636804e+01
  -2.695568e+01  -1.846442e+01
  -5.493285e+01  -8.588125e+01
  -3.215746e+01  -1.027716e+02
   5.206061e+01  -4.186895e+01
   1.297713e+02   3.760989e+01
   1.180100e+02   6.905362e+01
   1.738844e+01   5.046511e+01
  -7.816227e+01   2.176344e+01
  -8.358240e+01   3.735266e+00
  -1.662727e+01  -1.070620e+01
   3.352078e+01  -2.045225e+01
   1.952558e+01  -1.378389e+01
  -1.334804e+01   3.120475e+00
   2.815507e+00   7.441425e+00
   6.194809e+01   1.564895e+00
   8.589282e+01   1.990768e+01
   1.856937e+01   7.323432e+01
  -1.018299e+02   1.085140e+02
  -1.765931e+02   6.139360e+01
  -1.425887e+02  -5.625020e+01
  -2.856594e+01  -1.515545e+02
   7.852518e+01  -1.466283e+02
   1.126928e+02  -5.965838e+01
   7.667303e+01   2.170114e+01
   2.282684e+01   3.779261e+01
  -9.870638e-01   1.140826e+01
   1.134716e+01   5.655804e+00
   2.865987e+01   4.511394e+01
   1.733503e+01   8.594061e+01
  -2.737617e+01   6.736381e+01
  -7.304703e+01  -1.577832e+01
  -7.339930e+01  -9.701040e+01
  -1.158092e+01  -1.029612e+02
   7.031471e+01  -2.743337e+01
   9.764624e+01   6.294913e+01
   3.619720e+01   9.629718e+01
  -6.032670e+01   5.871667e+01
  -9.739848e+01  -7.933122e+00
  -4.289578e+01  -5.392818e+01
   3.209985e+01  -5.787184e+01
   3.753648e+01  -2.846157e+01
  -2.509553e+01   4.803709e+00
  -6.518116e+01   8.668207e+00
  -1.795234e+01  -2.577275e+01
   7.418662e+01  -6.318995e+01
   1.145519e+02  -5.197773e+01
   6.678505e+01   1.460090e+01
  -1.346130e+01   7.903980e+01
  -5.363918e+01   7.626171e+01
  -3.848562e+01   9.907653e+00
  -1.967226e+00  -4.884889e+01
   2.442995e+01  -4.176606e+01
   3.333375e+01   1.388079e+01
   2.401576e+01   5.205625e+01
  -2.619776e+00   3.610537e+01
  -3.188967e+01  -6.085518e+00
  -3.991013e+01  -2.376283e+01
  -2.103461e+01  -4.773335e+00
   2.736814e+00   1.619216e+01
   7.895960e+00   3.899156e+00
   5.226320e-01  -3.223641e+01
   4.898279e+00  -4.819604e+01
   2.647842e+01  -1.720507e+01
   3.778012e+01   3.541318e+01
   1.144447e+01   5.697376e+01
  -3.754928e+01   2.431404e+01
  -5.901065e+01  -3.077809e+01
  -1.925671e+01  -5.621130e+01
   5.262982e+01  -3.339817e+01
   8.745457e+01   1.141851e+01
   4.745867e+01   4.108858e+01
  -2.812989e+01   4.206338e+01
  -6.246422e+01   2.444881e+01
  -2.633040e+01   5.017164e+00
   2.896174e+01  -2.334138e+00
   3.244114e+01   8.295665e+00
  -2.377226e+01   2.470473e+01
  -7.656609e+01   1.773625e+01
