
 $NMID
 id='ANONYMOUS ', fmtdat='(2E16.6)'
 volume=1.0
 tramp=1.0
 $END
   3.158673e+03   3.150565e+02
   2.164561e+03   1.493123e+03
  -5.806402e+01   2.084554e+03
  -1.150285e+03   1.312742e+03
  -8.297534e+02   8.578839e+01
   1.550355e+02  -2.834789e+02
   4.140877e+02   1.012961e+02
   3.707256e+01   5.880794e+02
  -5.851538e+02   5.181193e+02
  -6.663888e+02   1.259524e+02
  -3.246700e+02  -5.212226e+02
  -1.297480e+01  -5.695035e+02
   3.876058e+02  -1.048732e+02
   2.921584e+02   4.265753e+02
  -1.513650e+02   5.245415e+02
  -4.208816e+02  -1.192565e+01
  -3.082770e+02  -4.888205e+02
   9.739984e+01  -5.610242e+02
   3.904189e+02  -2.067524e+02
   4.280563e+02   1.848988e+02
   1.254358e+02   3.864505e+02
  -8.269080e+01   2.305238e+02
  -7.565383e+01   2.539975e+01
   1.391853e+02   5.077773e+01
   2.703275e+02   2.442698e+02
   1.723857e+01   3.424755e+02
  -4.446224e+02   1.942184e+02
  -5.982125e+02  -1.744254e+02
  -2.159900e+02  -3.975877e+02
   3.757100e+02  -2.108827e+02
   5.487390e+02   1.111764e+02
   2.109732e+02   3.850508e+02
  -2.573853e+02   3.426469e+02
  -4.547656e+02   1.276106e+02
  -2.964217e+02  -1.939121e+02
  -5.418964e+01  -3.238277e+02
   8.455830e+01  -1.883535e+02
  -2.036027e+00   1.288240e+02
  -1.860486e+02   2.319765e+02
  -2.427915e+02  -1.125579e+02
  -4.068979e+01  -5.146232e+02
   2.822867e+02  -4.546808e+02
   3.749492e+02   1.900488e+01
   1.060369e+02   3.663628e+02
  -2.075082e+02   1.905741e+02
  -2.434918e+02  -2.647416e+02
   9.078587e+01  -4.193883e+02
   4.597899e+02  -8.746358e+01
   5.054024e+02   3.600690e+02
   1.476570e+02   5.023620e+02
  -3.209270e+02   2.820663e+02
  -5.318382e+02  -6.723287e+01
  -3.270557e+02  -2.749089e+02
   8.335272e+01  -2.449127e+02
   3.029998e+02  -6.315372e+01
   1.902427e+02   7.192862e+01
  -3.361980e+01   4.223819e+01
  -6.542931e+01  -6.572069e+01
   1.059963e+02  -8.052494e+01
   2.242846e+02   4.515058e+01
   1.059936e+02   1.934521e+02
  -1.522412e+02   2.309576e+02
  -3.134857e+02   1.231254e+02
  -2.425780e+02  -8.415939e+01
   6.542335e+00  -2.894434e+02
   2.628386e+02  -3.444752e+02
   3.549845e+02  -1.558594e+02
   2.360117e+02   1.634976e+02
   3.324743e+01   3.548728e+02
  -6.947608e+01   2.940046e+02
  -3.721703e+01   1.352809e+02
  -1.177500e+01   8.522826e+01
  -1.071882e+02   1.251383e+02
  -2.421450e+02   7.472008e+01
  -2.474996e+02  -1.154312e+02
  -8.926733e+01  -2.643245e+02
   1.081600e+02  -1.959158e+02
   1.957306e+02   4.309198e+01
   1.257693e+02   2.446163e+02
  -5.377989e+01   2.456317e+02
  -2.378106e+02   6.324375e+01
  -2.911978e+02  -1.637747e+02
  -1.580310e+02  -2.849514e+02
   5.533600e+01  -2.525818e+02
   1.642665e+02  -1.361774e+02
   1.390352e+02  -6.450708e+01
   1.285782e+02  -5.920923e+01
   2.475904e+02  -3.589747e+01
   3.763607e+02   8.434799e+01
   2.968340e+02   2.758285e+02
  -1.664463e+01   4.142913e+02
  -3.507428e+02   3.792749e+02
  -4.555972e+02   1.652749e+02
  -2.846660e+02  -1.073491e+02
  -3.106477e+01  -2.574755e+02
   9.736569e+01  -1.962588e+02
   2.502089e+01  -2.565315e+01
  -1.101381e+02   5.339308e+01
  -1.374435e+02  -3.971592e+01
  -9.455410e+00  -1.541794e+02
   1.268338e+02  -1.128723e+02
   1.189350e+02   5.887842e+01
  -2.791531e+01   1.435780e+02
  -1.642269e+02   1.104051e+01
  -1.488434e+02  -2.206755e+02
   1.868388e+01  -3.233745e+02
   2.213750e+02  -1.968623e+02
   3.275224e+02   5.232034e+01
   2.626850e+02   2.378536e+02
   6.496259e+01   2.565026e+02
  -1.178662e+02   1.356298e+02
  -1.453818e+02   4.245899e+00
  -3.341183e+01  -2.292722e+01
   5.660395e+01   5.239373e+01
   5.899105e+00   1.147035e+02
  -1.163550e+02   7.521045e+01
  -1.446137e+02  -2.163721e+01
  -3.387635e+01  -5.916685e+01
   7.991494e+01   4.749962e+00
   4.317150e+01   8.884763e+01
  -1.338931e+02   9.048630e+01
  -2.828095e+02  -1.152784e+01
  -2.470275e+02  -1.548168e+02
  -3.401757e+01  -2.473490e+02
   1.908495e+02  -2.234833e+02
   2.534302e+02  -9.206276e+01
   1.301321e+02   4.679117e+01
  -3.334945e+01   7.680364e+01
  -6.828593e+01  -8.513293e+00
   4.728043e+01  -8.541157e+01
   1.784490e+02  -3.834267e+01
   1.826171e+02   9.888312e+01
   5.388707e+01   1.823325e+02
  -8.694864e+01   1.303602e+02
  -1.223697e+02   1.281561e+01
  -4.531429e+01  -4.171261e+01
   4.333904e+01   1.207534e+01
   3.427896e+01   1.002234e+02
  -8.282606e+01   1.151517e+02
  -1.958482e+02   1.947155e+01
  -1.742954e+02  -1.215085e+02
  -1.307561e+01  -1.961094e+02
   1.474663e+02  -1.421334e+02
   1.660302e+02  -6.954411e+00
   5.032099e+01   9.569517e+01
  -6.410456e+01   9.355473e+01
  -7.318003e+01   2.091080e+01
  -5.438668e+00  -3.010065e+01
   3.514653e+01  -1.322551e+01
  -4.977120e+00   2.412209e+01
  -8.146704e+01   5.659980e+00
  -1.018054e+02  -8.347044e+01
  -1.582391e+01  -1.685254e+02
   1.311733e+02  -1.523002e+02
   2.271222e+02  -1.546769e+01
   1.859625e+02   1.483881e+02
   3.734872e+01   2.168751e+02
  -9.372256e+01   1.508175e+02
  -1.192390e+02   2.697261e+01
  -6.424878e+01  -4.329707e+01
  -2.782695e+01  -2.703738e+01
  -4.999216e+01   1.805926e+01
  -8.204287e+01   1.366581e+01
  -5.375684e+01  -4.566117e+01
   3.209799e+01  -9.634764e+01
   1.067822e+02  -6.670897e+01
   9.651379e+01   3.640966e+01
  -1.300581e+01   1.202548e+02
  -1.478424e+02   8.869484e+01
  -1.926803e+02  -5.730135e+01
  -8.725411e+01  -1.992383e+02
   1.090912e+02  -2.092403e+02
   2.495204e+02  -7.875216e+01
   2.314181e+02   8.365352e+01
   9.348223e+01   1.568757e+02
  -3.852479e+01   1.275533e+02
  -8.341692e+01   7.307592e+01
  -6.454359e+01   6.393010e+01
  -5.360851e+01   8.673151e+01
  -8.415719e+01   7.396194e+01
  -1.226675e+02  -1.593164e+01
  -1.112831e+02  -1.432194e+02
  -2.456227e+01  -2.123441e+02
   9.487103e+01  -1.590421e+02
   1.620503e+02  -1.301047e+01
   1.229760e+02   1.197375e+02
   1.278272e+01   1.503845e+02
  -7.014599e+01   8.147084e+01
  -6.231372e+01  -8.667205e+00
  -1.340628e+00  -4.937365e+01
   2.240766e+01  -3.634753e+01
  -2.460879e+01  -1.421756e+01
  -7.693922e+01  -1.730165e+01
  -4.675546e+01  -3.676585e+01
   6.639532e+01  -3.792631e+01
   1.613811e+02  -2.465917e-02
   1.375041e+02   5.872453e+01
   3.815029e+00   9.339735e+01
  -1.235238e+02   7.112835e+01
  -1.378981e+02   6.469411e+00
  -4.559101e+01  -4.556843e+01
   5.253603e+01  -3.946086e+01
   7.094811e+01   1.600250e+01
   1.683053e+01   6.381664e+01
  -4.272375e+01   5.537819e+01
  -6.191394e+01   3.241194e-01
  -5.039349e+01  -4.512430e+01
  -4.168068e+01  -3.863085e+01
  -4.955825e+01  -2.185963e+00
  -5.910792e+01  -4.109893e-01
  -4.073456e+01  -6.292853e+01
   2.343334e+01  -1.370121e+02
   1.132809e+02  -1.350310e+02
   1.641563e+02  -3.452682e+01
   1.199782e+02   8.530032e+01
   2.941441e+00   1.239325e+02
  -8.432606e+01   6.614867e+01
  -5.684268e+01  -9.348182e+00
   5.392871e+01  -2.030389e+01
   1.233543e+02   3.766556e+01
   6.468732e+01   9.957622e+01
  -7.855156e+01   1.037926e+02
  -1.767581e+02   4.369370e+01
  -1.480118e+02  -3.761490e+01
  -3.158410e+01  -8.234989e+01
   5.825119e+01  -6.241285e+01
   4.697999e+01  -2.997634e+00
  -3.319320e+01   2.778666e+01
  -8.242251e+01  -1.688397e+01
  -3.521424e+01  -1.057175e+02
   7.390224e+01  -1.429372e+02
   1.465971e+02  -6.345331e+01
   1.182606e+02   8.642445e+01
   1.597967e+01   1.794643e+02
  -7.636804e+01   1.321711e+02
  -9.857516e+01  -7.906711e+00
  -5.481801e+01  -1.102947e+02
   8.568157e+00  -9.729072e+01
   4.656773e+01  -1.690984e+01
   4.362827e+01   2.865226e+01
   1.796393e+01   7.854695e+00
   6.269828e+00  -1.599641e+01
   2.741485e+01   1.792772e+01
   5.319604e+01   8.228936e+01
   3.092195e+01   9.903604e+01
  -5.036216e+01   4.246680e+01
  -1.258464e+02  -3.259241e+01
  -1.159734e+02  -6.420670e+01
  -1.977475e+01  -4.973915e+01
   7.347667e+01  -2.453937e+01
   8.081373e+01  -6.566978e+00
   1.724174e+01   9.351399e+00
  -3.149402e+01   2.001122e+01
  -1.837459e+01   1.362909e+01
   1.330968e+01  -2.341399e+00
  -2.760075e+00  -5.697253e+00
  -6.138759e+01   1.041432e-01
  -8.579753e+01  -1.926397e+01
  -2.015926e+01  -7.293154e+01
   9.808942e+01  -1.079876e+02
   1.717297e+02  -6.257391e+01
   1.396868e+02   5.131391e+01
   3.099415e+01   1.446254e+02
  -7.111580e+01   1.430366e+02
  -1.052779e+02   6.303355e+01
  -7.422557e+01  -1.413807e+01
  -2.569171e+01  -3.255935e+01
  -3.445599e+00  -1.154007e+01
  -1.390109e+01  -8.418162e+00
  -2.996567e+01  -4.584424e+01
  -1.882578e+01  -8.417543e+01
   2.589598e+01  -6.651893e+01
   7.275026e+01   1.291848e+01
   7.460435e+01   9.226797e+01
   1.381665e+01   1.002216e+02
  -6.771906e+01   2.863761e+01
  -9.543775e+01  -5.904331e+01
  -3.628285e+01  -9.259654e+01
   5.715616e+01  -5.701876e+01
   9.303616e+01   7.114475e+00
   4.123348e+01   5.168578e+01
  -3.018385e+01   5.565541e+01
  -3.530106e+01   2.773986e+01
   2.449986e+01  -4.296495e+00
   6.243581e+01  -8.696291e+00
   1.690833e+01   2.381821e+01
  -7.171874e+01   6.117492e+01
  -1.109981e+02   5.259777e+01
  -6.658870e+01  -1.184018e+01
   9.623190e+00  -7.750001e+01
   4.929311e+01  -7.904358e+01
   3.848608e+01  -1.536027e+01
   6.948935e+00   4.516170e+01
  -1.885223e+01   4.289653e+01
  -3.145584e+01  -9.593117e+00
  -2.618759e+01  -4.836598e+01
  -4.374075e-01  -3.524763e+01
   3.069644e+01   4.671546e+00
   3.976992e+01   2.237720e+01
   2.004197e+01   4.162952e+00
  -4.057772e+00  -1.697900e+01
  -7.747374e+00  -5.968686e+00
   1.660323e+00   2.930090e+01
  -2.255076e+00   4.604112e+01
  -2.414627e+01   1.776240e+01
  -3.563899e+01  -3.234679e+01
  -1.023541e+01  -5.359546e+01
   3.680179e+01  -2.293987e+01
   5.637122e+01   2.968933e+01
   1.758879e+01   5.461241e+01
  -5.144903e+01   3.362129e+01
  -8.510528e+01  -9.232768e+00
  -4.750134e+01  -3.909645e+01
   2.487580e+01  -4.239671e+01
   5.912670e+01  -2.715938e+01
   2.618836e+01  -7.889206e+00
  -2.610198e+01   1.424487e+00
  -2.980429e+01  -7.317468e+00
   2.370241e+01  -2.417403e+01
   7.437949e+01  -1.920673e+01
