
 $NMID
 id='ANONYMOUS ', fmtdat='(2E16.6)'
 volume=1.0
 tramp=1.0
 $END
   3.865610e+03  -1.729505e+02
   2.374151e+03   2.236608e+03
  -3.379416e+02   2.565940e+03
  -1.758249e+03   1.188295e+03
  -1.042602e+03  -2.198994e+02
   3.185666e+02  -2.761533e+02
   6.163577e+02   3.519849e+02
  -5.604111e+01   8.371548e+02
  -5.794205e+02   6.764285e+02
  -8.765621e+02  -3.118816e+00
  -5.098624e+02  -6.534282e+02
   1.275095e+02  -8.345403e+02
   4.926968e+02  -1.871350e+02
   3.201992e+02   5.383231e+02
  -2.090734e+02   6.591368e+02
  -5.573439e+02   4.014884e+01
  -2.500741e+02  -5.734076e+02
   2.285440e+02  -6.007070e+02
   5.064323e+02  -1.645492e+02
   4.222519e+02   2.809645e+02
   7.863693e+01   3.750514e+02
  -1.628425e+02   2.560253e+02
  -1.584678e+02   1.680072e+01
   1.499401e+02  -2.034719e+01
   3.335704e+02   1.797267e+02
   1.013403e+02   3.828244e+02
  -4.832873e+02   2.763761e+02
  -6.879185e+02  -1.494589e+02
  -3.054515e+02  -4.593174e+02
   3.738217e+02  -2.972909e+02
   6.320291e+02   1.037790e+02
   2.631801e+02   4.451129e+02
  -2.842256e+02   4.373384e+02
  -5.284408e+02   1.793773e+02
  -3.876793e+02  -1.971556e+02
  -9.299864e+01  -3.931132e+02
   1.150469e+02  -2.502660e+02
   6.958895e+01   1.272372e+02
  -1.372911e+02   2.911829e+02
  -2.934606e+02  -5.829107e+01
  -1.287218e+02  -5.502281e+02
   2.449440e+02  -5.508543e+02
   4.643273e+02  -1.394351e+01
   2.190354e+02   4.071146e+02
  -1.709399e+02   2.114601e+02
  -2.687982e+02  -2.724108e+02
   5.892255e+01  -4.380177e+02
   4.766609e+02  -8.300812e+01
   5.458887e+02   3.863560e+02
   1.846922e+02   5.402735e+02
  -3.321766e+02   3.170526e+02
  -5.879678e+02  -6.060520e+01
  -3.777487e+02  -3.146924e+02
   8.186448e+01  -3.006397e+02
   3.561899e+02  -7.952297e+01
   2.339296e+02   1.027114e+02
  -4.267473e+01   6.734688e+01
  -9.399298e+01  -8.805446e+01
   1.162236e+02  -1.171631e+02
   2.713078e+02   4.189314e+01
   1.377350e+02   2.134585e+02
  -1.581990e+02   2.347280e+02
  -3.246495e+02   1.122389e+02
  -2.315915e+02  -7.719192e+01
   2.457104e+01  -2.696437e+02
   2.698695e+02  -3.485358e+02
   3.669779e+02  -1.851509e+02
   2.675106e+02   1.588177e+02
   6.086218e+01   4.030967e+02
  -8.219872e+01   3.519994e+02
  -8.333188e+01   1.432970e+02
  -4.284693e+01   4.581253e+01
  -9.357763e+01   9.447764e+01
  -2.110103e+02   8.529464e+01
  -2.465406e+02  -8.497386e+01
  -1.241801e+02  -2.592449e+02
   7.449279e+01  -2.266221e+02
   2.031654e+02   4.731713e+00
   1.674522e+02   2.347925e+02
  -2.542886e+01   2.748908e+02
  -2.500831e+02   9.802627e+01
  -3.301533e+02  -1.625285e+02
  -1.811344e+02  -3.225957e+02
   6.488886e+01  -2.905114e+02
   1.873614e+02  -1.467247e+02
   1.540995e+02  -4.831860e+01
   1.350865e+02  -5.177101e+01
   2.635848e+02  -4.901284e+01
   4.000708e+02   7.709646e+01
   3.165849e+02   2.889155e+02
  -1.667004e+01   4.433991e+02
  -3.644199e+02   4.054009e+02
  -4.767074e+02   1.884089e+02
  -3.089310e+02  -9.650396e+01
  -4.461845e+01  -2.739378e+02
   1.049656e+02  -2.282472e+02
   4.555745e+01  -3.988691e+01
  -1.050469e+02   7.044689e+01
  -1.567153e+02  -1.665971e+01
  -3.141782e+01  -1.609375e+02
   1.316415e+02  -1.409736e+02
   1.435144e+02   4.501126e+01
  -1.249307e+01   1.520141e+02
  -1.674915e+02   2.033408e+01
  -1.593647e+02  -2.299432e+02
   1.738541e+01  -3.402767e+02
   2.330751e+02  -2.081501e+02
   3.464323e+02   5.246809e+01
   2.838303e+02   2.463035e+02
   8.153579e+01   2.708963e+02
  -1.171526e+02   1.532120e+02
  -1.589559e+02   1.576064e+01
  -4.607958e+01  -1.966140e+01
   5.700355e+01   5.274571e+01
   1.094306e+01   1.200122e+02
  -1.211557e+02   8.263193e+01
  -1.584457e+02  -1.931743e+01
  -4.548249e+01  -6.225591e+01
   7.788135e+01  -1.684777e+00
   4.593273e+01   8.227026e+01
  -1.335305e+02   8.685324e+01
  -2.886558e+02  -1.129456e+01
  -2.579384e+02  -1.552336e+02
  -4.226928e+01  -2.577222e+02
   1.968443e+02  -2.439270e+02
   2.753987e+02  -1.080093e+02
   1.531329e+02   4.826439e+01
  -2.582250e+01   9.147787e+01
  -7.578974e+01   2.388187e+00
   4.203670e+01  -8.636913e+01
   1.866052e+02  -4.294191e+01
   1.981317e+02   1.014091e+02
   6.354697e+01   1.941247e+02
  -8.976479e+01   1.458140e+02
  -1.348962e+02   2.416197e+01
  -6.042564e+01  -3.886835e+01
   3.432094e+01   7.038963e+00
   3.404872e+01   9.325234e+01
  -8.025916e+01   1.128151e+02
  -1.995143e+02   2.038071e+01
  -1.841016e+02  -1.251899e+02
  -1.715124e+01  -2.076872e+02
   1.571624e+02  -1.549583e+02
   1.827750e+02  -1.124900e+01
   6.225319e+01   1.019148e+02
  -6.182877e+01   1.047862e+02
  -7.680603e+01   3.092686e+01
  -1.094208e+01  -2.452628e+01
   2.894147e+01  -1.496382e+01
  -9.323097e+00   1.734111e+01
  -8.102985e+01  -1.340463e+00
  -9.749390e+01  -8.634744e+01
  -1.212729e+01  -1.685084e+02
   1.356395e+02  -1.538102e+02
   2.340784e+02  -1.674381e+01
   1.945322e+02   1.540963e+02
   3.940834e+01   2.316043e+02
  -1.016685e+02   1.646186e+02
  -1.301162e+02   3.028636e+01
  -7.189634e+01  -4.826409e+01
  -3.198046e+01  -3.196391e+01
  -5.433851e+01   1.513808e+01
  -8.556325e+01   8.748256e+00
  -5.203585e+01  -5.354926e+01
   3.978435e+01  -1.010181e+02
   1.151025e+02  -6.562660e+01
   1.018223e+02   3.904588e+01
  -1.108808e+01   1.226607e+02
  -1.501142e+02   9.064099e+01
  -1.996601e+02  -5.482810e+01
  -9.097786e+01  -2.039578e+02
   1.148859e+02  -2.195213e+02
   2.632536e+02  -8.470334e+01
   2.470408e+02   8.974633e+01
   1.003491e+02   1.726085e+02
  -4.327495e+01   1.405360e+02
  -9.464963e+01   7.977523e+01
  -7.542941e+01   6.762978e+01
  -6.128387e+01   9.167175e+01
  -9.044225e+01   7.660630e+01
  -1.308168e+02  -2.094997e+01
  -1.200081e+02  -1.557341e+02
  -2.832877e+01  -2.283597e+02
   1.004128e+02  -1.713666e+02
   1.739278e+02  -1.667311e+01
   1.324961e+02   1.246819e+02
   1.625067e+01   1.578642e+02
  -6.875816e+01   8.544421e+01
  -5.936373e+01  -8.071307e+00
   5.271943e-01  -4.741846e+01
   1.868040e+01  -3.188221e+01
  -3.254292e+01  -1.107615e+01
  -8.329546e+01  -1.813022e+01
  -4.850091e+01  -3.961552e+01
   6.825376e+01  -3.954165e+01
   1.663739e+02  -5.681714e-01
   1.437213e+02   5.841576e+01
   6.030663e+00   9.448502e+01
  -1.295958e+02   7.493103e+01
  -1.472986e+02   1.056778e+01
  -4.756539e+01  -4.505831e+01
   6.009656e+01  -4.099751e+01
   7.768016e+01   1.824371e+01
   1.325535e+01   7.175876e+01
  -5.314939e+01   6.255258e+01
  -6.996880e+01  -4.995487e-01
  -5.371122e+01  -5.201478e+01
  -4.561528e+01  -4.338332e+01
  -5.654678e+01  -1.733782e+00
  -6.426596e+01  -9.369861e-01
  -4.018412e+01  -7.209303e+01
   2.872049e+01  -1.525690e+02
   1.206834e+02  -1.463562e+02
   1.737356e+02  -3.482455e+01
   1.301368e+02   9.361760e+01
   8.098084e+00   1.327117e+02
  -8.697684e+01   6.996810e+01
  -6.192806e+01  -9.339157e+00
   5.551024e+01  -2.043432e+01
   1.317723e+02   3.981240e+01
   7.096449e+01   1.041276e+02
  -8.235940e+01   1.094970e+02
  -1.885761e+02   4.788230e+01
  -1.574234e+02  -3.769147e+01
  -3.204279e+01  -8.609465e+01
   6.326938e+01  -6.544797e+01
   4.853396e+01  -2.858089e+00
  -3.957191e+01   2.862050e+01
  -9.104809e+01  -2.114383e+01
  -3.609949e+01  -1.164607e+02
   8.399778e+01  -1.538290e+02
   1.609300e+02  -6.613485e+01
   1.272177e+02   9.454667e+01
   1.651079e+01   1.926176e+02
  -8.063820e+01   1.413816e+02
  -1.033786e+02  -7.525909e+00
  -5.898372e+01  -1.155889e+02
   6.078784e+00  -1.018093e+02
   4.783600e+01  -1.702559e+01
   4.758808e+01   3.056017e+01
   2.041493e+01   7.164536e+00
   4.856958e+00  -1.922689e+01
   2.650235e+01   1.743994e+01
   5.768344e+01   8.744978e+01
   3.677749e+01   1.057575e+02
  -5.165211e+01   4.453155e+01
  -1.359245e+02  -3.611450e+01
  -1.244670e+02  -6.864711e+01
  -1.744349e+01  -5.142210e+01
   8.277682e+01  -2.449712e+01
   8.541985e+01  -6.760149e+00
   1.368530e+01   9.445833e+00
  -3.579483e+01   2.135567e+01
  -1.631326e+01   1.488147e+01
   1.814924e+01  -2.879206e+00
  -3.702249e+00  -7.497870e+00
  -6.847525e+01  -1.142822e+00
  -9.049787e+01  -2.127774e+01
  -1.567654e+01  -7.817133e+01
   1.097008e+02  -1.145306e+02
   1.835470e+02  -6.342570e+01
   1.462816e+02   6.038313e+01
   3.058369e+01   1.590817e+02
  -7.806031e+01   1.528362e+02
  -1.154493e+02   6.301294e+01
  -8.169394e+01  -2.014693e+01
  -2.646750e+01  -3.727304e+01
   5.865859e-01  -1.143519e+01
  -1.145999e+01  -6.514768e+00
  -3.205527e+01  -4.731287e+01
  -2.191061e+01  -9.020357e+01
   2.757452e+01  -7.194969e+01
   7.932887e+01   1.475753e+01
   7.982630e+01   1.016785e+02
   1.139036e+01   1.089994e+02
  -7.670057e+01   2.837354e+01
  -1.030623e+02  -6.796126e+01
  -3.549971e+01  -1.018637e+02
   6.502364e+01  -6.031812e+01
   1.005560e+02   9.072506e+00
   4.256091e+01   5.504681e+01
  -3.304829e+01   5.811914e+01
  -3.561003e+01   2.929493e+01
   2.924311e+01  -4.043673e+00
   6.798470e+01  -8.601089e+00
   1.743100e+01   2.640966e+01
  -7.722396e+01   6.670209e+01
  -1.177290e+02   5.698237e+01
  -6.914012e+01  -1.350330e+01
   1.227322e+01  -8.339129e+01
   5.435922e+01  -8.152474e+01
   4.134805e+01  -1.047338e+01
   4.453604e+00   5.271765e+01
  -2.538689e+01   4.524834e+01
  -3.734143e+01  -1.424328e+01
  -2.776911e+01  -5.431668e+01
   1.997328e+00  -3.746575e+01
   3.329794e+01   5.804150e+00
   4.064593e+01   2.252926e+01
   2.081204e+01   1.951015e+00
  -1.767500e+00  -1.896720e+01
  -4.830102e+00  -4.742302e+00
   2.264666e+00   3.391044e+01
  -4.897448e+00   5.050641e+01
  -2.809963e+01   1.823533e+01
  -3.754157e+01  -3.635524e+01
  -8.840753e+00  -5.797491e+01
   4.037191e+01  -2.330163e+01
   5.936423e+01   3.365681e+01
   1.738134e+01   5.926935e+01
  -5.580773e+01   3.492230e+01
  -9.107140e+01  -1.174259e+01
  -5.018517e+01  -4.296288e+01
   2.815258e+01  -4.503655e+01
   6.502742e+01  -2.744894e+01
   2.813807e+01  -6.205421e+00
  -3.034625e+01   3.015797e+00
  -3.508589e+01  -8.348295e+00
   2.444611e+01  -2.765831e+01
   8.142945e+01  -2.186618e+01
