
 $NMID
 id='ANONYMOUS ', fmtdat='(2E16.6)'
 volume=1.0
 tramp=1.0
 $END
   4.702288e+03  -6.250675e+01
   2.336130e+03   2.771384e+03
  -6.310451e+02   2.554039e+03
  -2.191164e+03   9.856135e+02
  -9.570460e+02  -6.386299e+02
   7.157438e+02  -3.978350e+02
   9.107970e+02   3.896116e+02
   2.184791e+01   1.024978e+03
  -7.726153e+02   7.688505e+02
  -8.812201e+02  -6.280636e+01
  -4.379027e+02  -8.291501e+02
   1.827325e+02  -9.432266e+02
   5.807664e+02  -1.626957e+02
   3.927142e+02   7.677597e+02
  -2.137879e+02   7.759370e+02
  -6.472621e+02  -8.704693e+00
  -3.405858e+02  -6.957199e+02
   3.030913e+02  -6.622907e+02
   6.449446e+02  -1.075772e+02
   4.314489e+02   3.576038e+02
   4.032573e+01   3.537133e+02
  -2.043058e+02   2.703022e+02
  -1.902094e+02   3.132235e+01
   1.064747e+02  -9.949569e+01
   3.973230e+02   1.234673e+02
   2.424679e+02   4.002859e+02
  -4.103402e+02   4.036877e+02
  -8.330551e+02  -5.966611e+01
  -4.266237e+02  -5.337051e+02
   3.919260e+02  -4.222041e+02
   7.678775e+02   8.781210e+01
   3.422189e+02   4.809025e+02
  -2.852706e+02   4.815125e+02
  -5.489110e+02   1.791819e+02
  -4.140424e+02  -2.294764e+02
  -5.727818e+01  -4.683438e+02
   2.090180e+02  -2.995576e+02
   2.003916e+02   2.092846e+02
  -1.515396e+02   4.629079e+02
  -4.514672e+02  -2.107961e+01
  -2.553205e+02  -6.931367e+02
   3.085329e+02  -7.138338e+02
   6.138541e+02  -1.217208e+01
   2.728188e+02   5.725673e+02
  -2.736384e+02   3.130828e+02
  -3.624828e+02  -3.358141e+02
   7.900892e+01  -5.463835e+02
   5.542118e+02  -1.144755e+02
   5.852041e+02   4.453318e+02
   1.519159e+02   6.057375e+02
  -4.067251e+02   3.318279e+02
  -6.469231e+02  -1.032742e+02
  -3.744850e+02  -3.982854e+02
   1.651603e+02  -3.630999e+02
   4.582623e+02  -5.152341e+01
   2.501917e+02   1.983903e+02
  -1.242419e+02   1.145969e+02
  -1.635839e+02  -1.466149e+02
   1.448994e+02  -1.912559e+02
   3.463305e+02   6.325257e+01
   1.550450e+02   2.973574e+02
  -2.001799e+02   2.609923e+02
  -3.451478e+02   6.147572e+01
  -2.059009e+02  -1.100433e+02
   3.864436e+01  -2.359524e+02
   2.408518e+02  -3.123832e+02
   3.403460e+02  -1.970930e+02
   2.806831e+02   1.435459e+02
   7.422674e+01   4.301480e+02
  -1.108598e+02   3.835195e+02
  -1.235083e+02   1.225146e+02
  -3.961473e+01  -3.821344e+00
  -5.797804e+01   8.050433e+01
  -1.983384e+02   1.175419e+02
  -2.737011e+02  -5.487773e+01
  -1.562701e+02  -2.610048e+02
   6.804328e+01  -2.471033e+02
   2.201732e+02  -9.845445e+00
   1.926337e+02   2.306477e+02
  -1.244841e+01   2.837011e+02
  -2.657476e+02   1.131878e+02
  -3.587755e+02  -1.636840e+02
  -1.804925e+02  -3.469249e+02
   1.078265e+02  -3.039172e+02
   2.291272e+02  -1.236734e+02
   1.490926e+02  -3.846791e+00
   9.187676e+01  -3.303306e+01
   2.284701e+02  -6.533114e+01
   4.048407e+02   5.664696e+01
   3.354130e+02   2.807447e+02
  -2.676619e+00   4.424534e+02
  -3.613335e+02   4.179659e+02
  -4.887391e+02   2.057790e+02
  -3.351598e+02  -8.998165e+01
  -5.816668e+01  -2.994395e+02
   1.236393e+02  -2.607338e+02
   8.000245e+01  -3.462317e+01
  -1.072925e+02   1.077683e+02
  -1.977129e+02  -2.683255e+00
  -5.433210e+01  -2.006649e+02
   1.601668e+02  -1.801676e+02
   1.839093e+02   5.576565e+01
  -1.213911e+01   1.959399e+02
  -1.969176e+02   3.734162e+01
  -1.653193e+02  -2.484548e+02
   3.512305e+01  -3.503837e+02
   2.322739e+02  -1.906919e+02
   3.208964e+02   6.789150e+01
   2.666257e+02   2.396750e+02
   8.975794e+01   2.581898e+02
  -1.090429e+02   1.526796e+02
  -1.709340e+02   1.578070e+01
  -5.444875e+01  -3.206975e+01
   6.973962e+01   4.334219e+01
   2.675489e+01   1.309020e+02
  -1.269673e+02   1.023063e+02
  -1.795013e+02  -1.398690e+01
  -5.730921e+01  -7.397373e+01
   7.935095e+01  -1.494475e+01
   5.124106e+01   7.511211e+01
  -1.271573e+02   8.597693e+01
  -2.813199e+02  -4.491471e+00
  -2.607133e+02  -1.435670e+02
  -5.924906e+01  -2.563324e+02
   1.844297e+02  -2.601727e+02
   2.857321e+02  -1.243377e+02
   1.725539e+02   5.387825e+01
  -2.516895e+01   1.104674e+02
  -9.302656e+01   6.576356e+00
   3.443284e+01  -1.033547e+02
   2.003477e+02  -5.812418e+01
   2.154702e+02   1.068049e+02
   6.634742e+01   2.122089e+02
  -9.877285e+01   1.597608e+02
  -1.458224e+02   2.895775e+01
  -7.077236e+01  -4.220135e+01
   2.679232e+01  -4.451567e+00
   3.682090e+01   8.150006e+01
  -6.962718e+01   1.123433e+02
  -1.956325e+02   3.016267e+01
  -1.929213e+02  -1.227257e+02
  -2.428996e+01  -2.187724e+02
   1.649492e+02  -1.640640e+02
   1.967227e+02  -3.360218e+00
   6.578539e+01   1.175264e+02
  -6.998709e+01   1.105911e+02
  -8.557532e+01   2.655586e+01
  -1.772515e+01  -2.812762e+01
   2.269884e+01  -1.789364e+01
  -9.943855e+00   1.002399e+01
  -7.156956e+01  -8.395747e+00
  -8.757663e+01  -8.275470e+01
  -1.278519e+01  -1.580158e+02
   1.275031e+02  -1.528709e+02
   2.329433e+02  -2.597885e+01
   1.997120e+02   1.507415e+02
   3.946861e+01   2.382049e+02
  -1.093383e+02   1.699014e+02
  -1.328211e+02   2.473142e+01
  -6.622692e+01  -5.760565e+01
  -2.590369e+01  -3.552352e+01
  -5.357561e+01   1.441276e+01
  -8.210307e+01   9.495246e+00
  -4.367980e+01  -4.789913e+01
   3.931351e+01  -8.811811e+01
   9.915188e+01  -5.862206e+01
   8.431816e+01   3.146789e+01
  -1.239384e+01   1.071627e+02
  -1.369772e+02   8.473973e+01
  -1.926728e+02  -5.088985e+01
  -9.956208e+01  -2.019253e+02
   1.067539e+02  -2.277620e+02
   2.669320e+02  -9.291121e+01
   2.573956e+02   8.961320e+01
   1.077571e+02   1.786188e+02
  -4.212826e+01   1.456636e+02
  -9.621819e+01   8.017457e+01
  -7.845814e+01   6.570011e+01
  -6.492214e+01   8.990623e+01
  -9.119048e+01   7.516061e+01
  -1.279738e+02  -2.038773e+01
  -1.181890e+02  -1.530870e+02
  -3.049158e+01  -2.269693e+02
   9.858375e+01  -1.743881e+02
   1.770336e+02  -2.247521e+01
   1.385353e+02   1.215117e+02
   2.021219e+01   1.604762e+02
  -6.802036e+01   9.248090e+01
  -6.130194e+01  -1.102924e-01
  -4.701187e+00  -4.276803e+01
   1.231665e+01  -3.323701e+01
  -3.357568e+01  -1.686231e+01
  -7.751755e+01  -2.207732e+01
  -4.507717e+01  -3.745497e+01
   6.135596e+01  -3.574362e+01
   1.545585e+02  -2.435194e+00
   1.408726e+02   5.052549e+01
   1.549013e+01   8.744964e+01
  -1.183768e+02   7.354434e+01
  -1.430055e+02   1.288326e+01
  -4.813119e+01  -4.253015e+01
   5.971698e+01  -3.918218e+01
   7.683232e+01   1.857717e+01
   1.007367e+01   6.955807e+01
  -5.385630e+01   5.972209e+01
  -6.338093e+01  -4.602265e-01
  -4.497629e+01  -4.898733e+01
  -4.286613e+01  -4.138146e+01
  -5.914042e+01  -2.488453e+00
  -6.455487e+01  -3.523310e-01
  -3.635579e+01  -6.576055e+01
   2.925395e+01  -1.421382e+02
   1.120319e+02  -1.381773e+02
   1.608295e+02  -3.426550e+01
   1.222876e+02   8.673105e+01
   8.324619e+00   1.218173e+02
  -8.299708e+01   6.006389e+01
  -5.818542e+01  -1.302289e+01
   5.838459e+01  -1.785273e+01
   1.350308e+02   4.384144e+01
   7.377738e+01   1.064989e+02
  -8.113218e+01   1.115669e+02
  -1.902303e+02   5.194237e+01
  -1.618384e+02  -3.417552e+01
  -3.751528e+01  -8.848308e+01
   6.016487e+01  -7.276319e+01
   4.950856e+01  -8.873457e+00
  -3.657607e+01   2.764379e+01
  -8.771739e+01  -1.998600e+01
  -3.177634e+01  -1.158763e+02
   8.982372e+01  -1.524716e+02
   1.645027e+02  -6.160663e+01
   1.242634e+02   9.986749e+01
   9.314465e+00   1.951445e+02
  -8.570079e+01   1.411057e+02
  -1.044318e+02  -8.583258e+00
  -5.962345e+01  -1.174638e+02
   3.930278e+00  -1.052729e+02
   4.815593e+01  -2.011762e+01
   5.300001e+01   3.090161e+01
   2.456842e+01   9.879966e+00
   1.331955e+00  -1.824327e+01
   1.849394e+01   1.557640e+01
   5.504562e+01   8.565522e+01
   4.261645e+01   1.059257e+02
  -4.572933e+01   4.434865e+01
  -1.369560e+02  -3.802225e+01
  -1.286884e+02  -7.021804e+01
  -1.720714e+01  -5.069568e+01
   8.735614e+01  -2.295776e+01
   8.761418e+01  -6.817551e+00
   1.094703e+01   8.791323e+00
  -3.788203e+01   2.248308e+01
  -1.423304e+01   1.722493e+01
   2.010903e+01  -2.448602e+00
  -6.553684e+00  -9.735202e+00
  -7.305503e+01  -4.738372e+00
  -8.875320e+01  -2.467434e+01
  -6.627574e+00  -7.952500e+01
   1.176376e+02  -1.116493e+02
   1.828110e+02  -5.619812e+01
   1.394072e+02   6.716788e+01
   2.562738e+01   1.594662e+02
  -7.793604e+01   1.471181e+02
  -1.134015e+02   5.737590e+01
  -8.073006e+01  -2.119217e+01
  -2.498658e+01  -3.496402e+01
   3.819377e+00  -8.985402e+00
  -8.915193e+00  -4.615308e+00
  -3.243606e+01  -4.565263e+01
  -2.297756e+01  -8.929779e+01
   2.857338e+01  -7.105176e+01
   8.064131e+01   1.797173e+01
   7.676544e+01   1.066819e+02
   4.341242e+00   1.106442e+02
  -8.107529e+01   2.343373e+01
  -1.004218e+02  -7.448083e+01
  -2.975276e+01  -1.021974e+02
   6.633880e+01  -5.482510e+01
   9.559339e+01   1.193158e+01
   3.734477e+01   5.050054e+01
  -3.241867e+01   5.130691e+01
  -2.986719e+01   2.745270e+01
   3.453612e+01  -1.225303e+00
   6.915735e+01  -7.221146e+00
   1.600565e+01   2.505682e+01
  -7.660638e+01   6.591970e+01
  -1.134364e+02   5.883175e+01
  -6.371997e+01  -1.086142e+01
   1.467293e+01  -8.084289e+01
   5.225519e+01  -7.707746e+01
   3.680917e+01  -4.768118e+00
   8.328614e-01   5.485278e+01
  -2.666657e+01   4.113305e+01
  -3.633225e+01  -1.913985e+01
  -2.555022e+01  -5.353050e+01
   3.733964e+00  -3.191686e+01
   3.292064e+01   9.325433e+00
   3.877740e+01   2.146591e+01
   2.053383e+01   1.301517e+00
  -3.224958e-01  -1.407569e+01
  -6.563859e+00   3.000647e+00
  -7.026869e+00   3.670252e+01
  -1.728177e+01   4.474892e+01
  -3.242212e+01   7.349349e+00
  -2.974006e+01  -4.520744e+01
   2.664004e+00  -6.031128e+01
   4.476959e+01  -1.954693e+01
   5.589955e+01   3.953323e+01
   1.379876e+01   6.239146e+01
  -5.480628e+01   3.313801e+01
  -8.785053e+01  -1.560428e+01
  -4.780895e+01  -4.389506e+01
   2.944080e+01  -4.036774e+01
   6.468058e+01  -2.051403e+01
   2.412850e+01  -3.568792e+00
  -3.680858e+01  -1.059409e+00
  -3.719145e+01  -1.484312e+01
   3.032307e+01  -3.006228e+01
   8.961951e+01  -1.819358e+01
