
 $NMID
 id='ANONYMOUS ', fmtdat='(2E16.6)'
 volume=1.0
 tramp=1.0
 $END
  -3.691803e+03   7.638230e+01
  -2.092709e+03  -2.097891e+03
   5.270683e+02  -2.059678e+03
   1.676665e+03  -7.437987e+02
   9.227714e+02   2.438970e+02
  -2.962077e+02   2.585922e+02
  -5.959836e+02  -2.818896e+02
  -7.623908e+00  -7.413415e+02
   6.328959e+02  -7.521687e+02
   6.305401e+02   3.362440e+01
   3.584247e+02   6.426493e+02
  -9.200102e+01   7.066180e+02
  -3.921174e+02   8.129888e+01
  -2.809298e+02  -5.327668e+02
   1.484077e+02  -6.242207e+02
   4.081996e+02  -6.625395e+00
   1.811166e+02   5.307701e+02
  -2.204776e+02   5.273547e+02
  -4.243038e+02   1.291945e+02
  -3.310162e+02  -2.047643e+02
  -6.460016e+01  -3.676992e+02
   1.253605e+02  -2.346156e+02
   1.448026e+02  -3.772627e+01
  -1.304588e+02   8.872880e+00
  -3.334964e+02  -1.786351e+02
  -1.023937e+02  -3.884716e+02
   4.227255e+02  -2.847654e+02
   6.951690e+02   8.458598e+01
   3.350405e+02   4.151810e+02
  -3.376252e+02   3.455748e+02
  -5.782720e+02  -1.018396e+02
  -2.375930e+02  -3.962132e+02
   2.763516e+02  -3.949466e+02
   4.841088e+02  -1.313626e+02
   3.271701e+02   1.701580e+02
   6.653091e+01   3.831895e+02
  -1.109913e+02   2.344477e+02
  -5.544147e+01  -1.440723e+02
   1.587053e+02  -2.788319e+02
   2.932057e+02   6.959903e+01
   1.232910e+02   5.451911e+02
  -2.675968e+02   5.278998e+02
  -4.614381e+02  -4.462847e+00
  -1.942656e+02  -4.201039e+02
   2.077348e+02  -2.285859e+02
   2.769850e+02   2.776426e+02
  -7.366294e+01   4.446675e+02
  -4.658492e+02   1.069924e+02
  -5.102456e+02  -3.534578e+02
  -1.525745e+02  -5.080494e+02
   3.153187e+02  -2.986782e+02
   5.260548e+02   7.082759e+01
   3.091197e+02   3.181177e+02
  -1.146880e+02   2.872257e+02
  -3.463558e+02   4.873963e+01
  -2.003707e+02  -1.370698e+02
   6.783635e+01  -8.061320e+01
   9.700675e+01   9.811333e+01
  -1.270574e+02   1.311738e+02
  -2.779371e+02  -4.348822e+01
  -1.323172e+02  -2.288294e+02
   1.640280e+02  -2.474165e+02
   3.190392e+02  -1.137646e+02
   2.230811e+02   8.054856e+01
  -1.867172e+01   2.661356e+02
  -2.443168e+02   3.351912e+02
  -3.334885e+02   1.703081e+02
  -2.405025e+02  -1.599335e+02
  -4.618514e+01  -3.767780e+02
   7.938799e+01  -3.076701e+02
   6.007339e+01  -1.088244e+02
   9.481823e+00  -4.087453e+01
   7.249119e+01  -1.081380e+02
   2.082244e+02  -9.420354e+01
   2.478790e+02   8.283081e+01
   1.153536e+02   2.450745e+02
  -8.578761e+01   1.967320e+02
  -2.005740e+02  -2.768804e+01
  -1.525718e+02  -2.303907e+02
   3.528387e+01  -2.501953e+02
   2.459362e+02  -8.149644e+01
   3.149958e+02   1.563480e+02
   1.655796e+02   3.004294e+02
  -7.240410e+01   2.650652e+02
  -1.857701e+02   1.205291e+02
  -1.359181e+02   3.490107e+01
  -1.040911e+02   5.147934e+01
  -2.291430e+02   6.056551e+01
  -3.769964e+02  -5.985473e+01
  -3.103705e+02  -2.698156e+02
   2.178343e+00  -4.135062e+02
   3.332810e+02  -3.823426e+02
   4.447624e+02  -1.771051e+02
   2.936065e+02   9.140907e+01
   3.682943e+01   2.517116e+02
  -1.016192e+02   2.034309e+02
  -4.268120e+01   2.275306e+01
   1.086259e+02  -7.099773e+01
   1.540391e+02   2.952019e+01
   2.873611e+01   1.687653e+02
  -1.357248e+02   1.313031e+02
  -1.458279e+02  -6.251859e+01
   1.541810e+01  -1.635276e+02
   1.697814e+02  -2.246503e+01
   1.566967e+02   2.209928e+02
  -1.503434e+01   3.191285e+02
  -2.153207e+02   1.878536e+02
  -3.162749e+02  -5.359777e+01
  -2.552755e+02  -2.280692e+02
  -6.640860e+01  -2.479543e+02
   1.167041e+02  -1.376417e+02
   1.518055e+02  -7.325161e+00
   3.881173e+01   2.800936e+01
  -6.013060e+01  -4.331255e+01
  -1.282534e+01  -1.130253e+02
   1.176717e+02  -8.003192e+01
   1.535328e+02   1.980735e+01
   4.142372e+01   6.352016e+01
  -7.998006e+01   4.742174e+00
  -4.987670e+01  -7.918853e+01
   1.236507e+02  -8.604275e+01
   2.746081e+02   7.206150e+00
   2.473425e+02   1.460423e+02
   4.069197e+01   2.445976e+02
  -1.880777e+02   2.292259e+02
  -2.608417e+02   9.623273e+01
  -1.393116e+02  -5.307652e+01
   3.428836e+01  -8.647358e+01
   7.776120e+01   7.988941e+00
  -4.210934e+01   9.349373e+01
  -1.839192e+02   4.345535e+01
  -1.922889e+02  -1.030238e+02
  -5.842891e+01  -1.905352e+02
   9.034206e+01  -1.376241e+02
   1.311569e+02  -1.721683e+01
   5.506224e+01   4.207962e+01
  -3.768051e+01  -4.774549e+00
  -3.616745e+01  -9.049705e+01
   7.683245e+01  -1.122854e+02
   1.928842e+02  -2.366954e+01
   1.765787e+02   1.200675e+02
   1.490428e+01   2.025666e+02
  -1.516175e+02   1.490123e+02
  -1.735854e+02   5.533191e+00
  -5.567253e+01  -1.026996e+02
   6.374588e+01  -9.807315e+01
   7.641375e+01  -2.094444e+01
   9.495275e+00   3.114759e+01
  -3.358757e+01   1.567639e+01
   7.448046e-01  -1.919205e+01
   7.302938e+01  -3.208066e+00
   9.579296e+01   7.738139e+01
   1.830784e+01   1.560772e+02
  -1.238197e+02   1.449718e+02
  -2.218869e+02   1.945899e+01
  -1.847990e+02  -1.421379e+02
  -3.566547e+01  -2.157405e+02
   9.887899e+01  -1.518287e+02
   1.207470e+02  -2.660028e+01
   6.286220e+01   4.730334e+01
   2.500444e+01   2.978884e+01
   4.837891e+01  -1.574415e+01
   7.728350e+01  -1.261874e+01
   5.029005e+01   4.484947e+01
  -3.173397e+01   9.079562e+01
  -1.005059e+02   6.140567e+01
  -8.991231e+01  -3.360030e+01
   1.085499e+01  -1.112741e+02
   1.398299e+02  -8.334873e+01
   1.880755e+02   5.524596e+01
   8.754004e+01   1.974754e+02
  -1.092843e+02   2.129002e+02
  -2.533514e+02   8.201091e+01
  -2.372320e+02  -8.646674e+01
  -9.702630e+01  -1.652970e+02
   3.986311e+01  -1.337583e+02
   8.794468e+01  -7.357092e+01
   6.918109e+01  -6.127494e+01
   5.545662e+01  -8.482121e+01
   8.294669e+01  -7.307008e+01
   1.205027e+02   1.653901e+01
   1.103041e+02   1.414846e+02
   2.602774e+01   2.092087e+02
  -9.308504e+01   1.572241e+02
  -1.611371e+02   1.541794e+01
  -1.226212e+02  -1.153596e+02
  -1.343487e+01  -1.484734e+02
   6.720001e+01  -8.390967e+01
   5.871003e+01   4.152117e+00
   1.315904e+00   4.630848e+01
  -1.809940e+01   3.567647e+01
   2.849614e+01   1.348441e+01
   7.691225e+01   1.429248e+01
   4.716914e+01   3.303633e+01
  -6.030438e+01   3.788161e+01
  -1.527148e+02   5.682616e+00
  -1.346117e+02  -5.063542e+01
  -8.836872e+00  -8.818567e+01
   1.176828e+02  -7.085066e+01
   1.363769e+02  -8.095190e+00
   4.545009e+01   4.544406e+01
  -5.474210e+01   4.079975e+01
  -7.360226e+01  -1.548140e+01
  -1.668063e+01  -6.516721e+01
   4.367603e+01  -5.758981e+01
   6.022357e+01  -1.354412e+00
   4.776457e+01   4.545520e+01
   4.186596e+01   3.953558e+01
   5.140464e+01   2.392055e+00
   5.775035e+01  -9.267346e-01
   3.657871e+01   5.981190e+01
  -2.431181e+01   1.326328e+02
  -1.071351e+02   1.319234e+02
  -1.560212e+02   3.513802e+01
  -1.170706e+02  -8.053913e+01
  -5.180057e+00  -1.178808e+02
   8.161192e+01  -6.203041e+01
   5.627597e+01   1.053670e+01
  -5.429730e+01   2.042997e+01
  -1.264023e+02  -3.572797e+01
  -7.000073e+01  -9.724581e+01
   7.386436e+01  -1.048035e+02
   1.752573e+02  -4.771279e+01
   1.489114e+02   3.340242e+01
   3.319849e+01   8.149711e+01
  -5.730274e+01   6.355292e+01
  -4.638535e+01   4.094028e+00
   3.317674e+01  -2.744887e+01
   8.120995e+01   1.782072e+01
   3.207937e+01   1.064387e+02
  -7.731262e+01   1.410121e+02
  -1.472902e+02   5.924486e+01
  -1.157326e+02  -8.948789e+01
  -1.314678e+01  -1.798835e+02
   7.738523e+01  -1.320534e+02
   9.906497e+01   6.977573e+00
   5.708722e+01   1.095891e+02
  -5.566217e+00   9.902360e+01
  -4.645086e+01   1.958494e+01
  -4.653757e+01  -2.820426e+01
  -1.975435e+01  -9.308952e+00
  -3.759184e+00   1.548357e+01
  -2.314410e+01  -1.608733e+01
  -5.241807e+01  -8.001798e+01
  -3.419314e+01  -9.769122e+01
   4.686382e+01  -4.129641e+01
   1.248856e+02   3.399812e+01
   1.155615e+02   6.427263e+01
   1.737703e+01   4.750938e+01
  -7.608528e+01   2.164299e+01
  -8.019333e+01   5.181775e+00
  -1.411071e+01  -9.266285e+00
   3.304225e+01  -2.038453e+01
   1.668501e+01  -1.451034e+01
  -1.477837e+01   2.231647e+00
   4.548351e+00   6.920524e+00
   6.394186e+01   1.472243e+00
   8.414622e+01   2.016287e+01
   1.499245e+01   7.274638e+01
  -1.010687e+02   1.065845e+02
  -1.692741e+02   5.958291e+01
  -1.353702e+02  -5.484757e+01
  -2.934761e+01  -1.461698e+02
   7.045109e+01  -1.410951e+02
   1.057702e+02  -5.904019e+01
   7.606187e+01   1.755368e+01
   2.564556e+01   3.374594e+01
  -1.828228e-02   1.057333e+01
   1.027794e+01   6.357453e+00
   2.897889e+01   4.363779e+01
   1.976423e+01   8.251485e+01
  -2.490957e+01   6.555174e+01
  -7.123891e+01  -1.371863e+01
  -7.115273e+01  -9.250105e+01
  -9.699811e+00  -9.818546e+01
   6.872307e+01  -2.459868e+01
   9.215785e+01   6.240489e+01
   3.189099e+01   9.235732e+01
  -5.848573e+01   5.462002e+01
  -9.108083e+01  -7.780559e+00
  -3.947766e+01  -4.898690e+01
   2.909487e+01  -5.245398e+01
   3.230308e+01  -2.710727e+01
  -2.655183e+01   2.997243e+00
  -6.254822e+01   8.193964e+00
  -1.686930e+01  -2.291032e+01
   6.915117e+01  -6.016982e+01
   1.064672e+02  -5.256593e+01
   6.219497e+01   1.090265e+01
  -1.184322e+01   7.488063e+01
  -4.953288e+01   7.330635e+01
  -3.636107e+01   8.409868e+00
  -3.036222e+00  -4.868686e+01
   2.285762e+01  -4.070427e+01
   3.299899e+01   1.398445e+01
   2.450932e+01   4.971332e+01
  -1.828692e+00   3.309602e+01
  -3.065371e+01  -6.574982e+00
  -3.829121e+01  -2.170083e+01
  -2.011882e+01  -3.912843e+00
   2.354149e+00   1.362380e+01
   8.376496e+00   9.292172e-01
   3.700332e+00  -3.092562e+01
   8.862138e+00  -4.255292e+01
   2.653600e+01  -1.204426e+01
   3.236715e+01   3.632410e+01
   5.519220e+00   5.423558e+01
  -3.824795e+01   2.135384e+01
  -5.476060e+01  -3.158296e+01
  -1.625987e+01  -5.548557e+01
   5.074005e+01  -3.264205e+01
   8.337605e+01   1.130389e+01
   4.600742e+01   4.017175e+01
  -2.626774e+01   4.058221e+01
  -6.010533e+01   2.313125e+01
  -2.535187e+01   4.680724e+00
   2.894297e+01  -1.599550e+00
   3.216568e+01   9.166260e+00
  -2.417646e+01   2.484575e+01
  -7.649601e+01   1.733118e+01
