
 $NMID
 id='ANONYMOUS ', fmtdat='(2E16.6)'
 volume=1.0
 tramp=1.0
 $END
   3.939491e+03   2.633991e+02
   2.207034e+03   2.091112e+03
  -4.287167e+02   2.488649e+03
  -1.771486e+03   1.137417e+03
  -7.504018e+02  -4.572268e+02
   4.847842e+02  -4.808230e+02
   7.531051e+02   3.323961e+02
  -4.746906e+01   8.689745e+02
  -7.814820e+02   7.082041e+02
  -7.307652e+02   4.966090e+01
  -4.221807e+02  -7.206237e+02
   2.075601e+02  -7.364498e+02
   5.396603e+02  -9.969158e+01
   3.698712e+02   6.505087e+02
  -2.328135e+02   7.250959e+02
  -6.047176e+02  -7.515402e+01
  -2.729892e+02  -6.698684e+02
   2.872063e+02  -5.845884e+02
   5.042911e+02  -8.012490e+01
   3.958176e+02   3.506679e+02
   2.337958e+01   4.602317e+02
  -1.978259e+02   2.083320e+02
  -1.498860e+02   2.307776e+01
   1.307769e+02  -3.146695e+01
   3.602800e+02   1.678884e+02
   1.387985e+02   4.080561e+02
  -4.668499e+02   3.061617e+02
  -7.752223e+02  -1.114297e+02
  -3.572638e+02  -5.158414e+02
   4.213746e+02  -3.732048e+02
   6.807075e+02   1.190111e+02
   2.859764e+02   4.812685e+02
  -3.082867e+02   4.727721e+02
  -5.499633e+02   1.534532e+02
  -3.881918e+02  -2.289075e+02
  -7.304248e+01  -4.251685e+02
   1.413672e+02  -2.572556e+02
   9.513443e+01   1.988109e+02
  -1.751313e+02   3.676495e+02
  -3.740605e+02  -5.030286e+01
  -1.734364e+02  -6.463253e+02
   2.980664e+02  -6.406079e+02
   5.255337e+02  -3.726464e+00
   2.187726e+02   4.789162e+02
  -2.399094e+02   2.863961e+02
  -3.367627e+02  -2.967930e+02
   6.417909e+01  -5.107194e+02
   5.096499e+02  -1.181375e+02
   5.596347e+02   4.102013e+02
   1.693814e+02   5.682492e+02
  -3.558874e+02   3.219480e+02
  -6.141740e+02  -8.668318e+01
  -3.803054e+02  -3.620288e+02
   1.261733e+02  -3.284004e+02
   4.152819e+02  -6.120339e+01
   2.468076e+02   1.536016e+02
  -7.992654e+01   8.988163e+01
  -1.170352e+02  -1.130096e+02
   1.470158e+02  -1.423427e+02
   3.128395e+02   6.791771e+01
   1.359013e+02   2.691893e+02
  -1.859383e+02   2.629458e+02
  -3.303356e+02   1.061137e+02
  -2.171894e+02  -7.394628e+01
   1.878839e+01  -2.409220e+02
   2.402053e+02  -3.281540e+02
   3.475869e+02  -1.895595e+02
   2.676330e+02   1.579892e+02
   4.764378e+01   4.201742e+02
  -1.188137e+02   3.551660e+02
  -1.020745e+02   1.098524e+02
  -1.316165e+01   8.901454e+00
  -4.782388e+01   9.847284e+01
  -2.004615e+02   1.198635e+02
  -2.725899e+02  -6.903401e+01
  -1.438061e+02  -2.729262e+02
   8.419357e+01  -2.404657e+02
   2.253485e+02   1.694133e+01
   1.776413e+02   2.606762e+02
  -3.336103e+01   2.864685e+02
  -2.692300e+02   9.163109e+01
  -3.467582e+02  -1.783890e+02
  -1.830013e+02  -3.371240e+02
   8.636774e+01  -2.942650e+02
   2.136764e+02  -1.308155e+02
   1.551113e+02  -3.210045e+01
   1.186294e+02  -4.299187e+01
   2.449570e+02  -5.016256e+01
   3.988933e+02   6.977436e+01
   3.279157e+02   2.809461e+02
  -4.576976e+00   4.323334e+02
  -3.563237e+02   4.073069e+02
  -4.823785e+02   1.976700e+02
  -3.213224e+02  -9.181932e+01
  -4.293736e+01  -2.766824e+02
   1.237706e+02  -2.329289e+02
   6.530394e+01  -2.868436e+01
  -1.156463e+02   8.678236e+01
  -1.850951e+02  -2.091516e+01
  -4.050523e+01  -1.865199e+02
   1.552088e+02  -1.541364e+02
   1.730658e+02   6.290468e+01
  -1.062837e+01   1.824828e+02
  -1.827190e+02   3.027261e+01
  -1.642106e+02  -2.395159e+02
   2.478160e+01  -3.454085e+02
   2.335790e+02  -1.966934e+02
   3.355065e+02   6.578475e+01
   2.782895e+02   2.518428e+02
   8.147174e+01   2.752183e+02
  -1.251870e+02   1.579835e+02
  -1.757584e+02   1.348528e+01
  -5.205744e+01  -3.207554e+01
   6.740238e+01   4.342030e+01
   2.090001e+01   1.243389e+02
  -1.293116e+02   9.411424e+01
  -1.781146e+02  -1.608064e+01
  -5.499760e+01  -7.112426e+01
   8.360510e+01  -1.316913e+01
   5.596966e+01   7.626244e+01
  -1.298759e+02   8.736835e+01
  -2.921459e+02  -7.457248e+00
  -2.649694e+02  -1.547493e+02
  -4.694920e+01  -2.654857e+02
   2.012050e+02  -2.555810e+02
   2.888974e+02  -1.110326e+02
   1.639092e+02   6.010406e+01
  -3.009326e+01   1.049472e+02
  -8.883488e+01   4.192397e-01
   3.827225e+01  -1.016118e+02
   1.983968e+02  -5.283542e+01
   2.135308e+02   1.084001e+02
   6.830501e+01   2.105839e+02
  -9.706695e+01   1.583820e+02
  -1.461942e+02   2.762765e+01
  -6.852786e+01  -4.300646e+01
   3.225609e+01  -6.467284e-01
   3.736809e+01   8.893563e+01
  -7.804232e+01   1.169676e+02
  -2.048708e+02   2.759811e+01
  -1.936986e+02  -1.277823e+02
  -1.964215e+01  -2.218267e+02
   1.669372e+02  -1.660648e+02
   1.961040e+02  -7.363477e+00
   6.623004e+01   1.151935e+02
  -6.877148e+01   1.130228e+02
  -8.724813e+01   2.992913e+01
  -1.808076e+01  -2.970737e+01
   2.842184e+01  -2.031764e+01
  -3.228976e+00   1.051419e+01
  -7.192646e+01  -4.810801e+00
  -9.410967e+01  -8.228128e+01
  -1.637359e+01  -1.611770e+02
   1.312234e+02  -1.519943e+02
   2.373070e+02  -2.149048e+01
   2.004511e+02   1.539928e+02
   3.782557e+01   2.372511e+02
  -1.099278e+02   1.681036e+02
  -1.356619e+02   2.707332e+01
  -7.103484e+01  -5.638564e+01
  -2.867040e+01  -3.643526e+01
  -5.211796e+01   1.340350e+01
  -7.965770e+01   9.544753e+00
  -4.444396e+01  -4.872807e+01
   4.008621e+01  -9.089181e+01
   1.057356e+02  -5.711090e+01
   8.948995e+01   3.854975e+01
  -1.542636e+01   1.152679e+02
  -1.496771e+02   8.580757e+01
  -2.018550e+02  -5.581359e+01
  -9.785019e+01  -2.062051e+02
   1.111425e+02  -2.291950e+02
   2.711219e+02  -9.515969e+01
   2.580978e+02   8.794754e+01
   1.072177e+02   1.781502e+02
  -4.150556e+01   1.476289e+02
  -9.519231e+01   8.275812e+01
  -7.829014e+01   6.698635e+01
  -6.459226e+01   8.935036e+01
  -9.119917e+01   7.458789e+01
  -1.277079e+02  -2.225782e+01
  -1.152597e+02  -1.560963e+02
  -2.548242e+01  -2.271264e+02
   1.020021e+02  -1.698484e+02
   1.757505e+02  -1.589753e+01
   1.343586e+02   1.254668e+02
   1.668185e+01   1.609103e+02
  -7.001713e+01   9.162911e+01
  -6.259193e+01  -2.402623e+00
  -4.700056e+00  -4.752451e+01
   1.468762e+01  -3.839413e+01
  -3.089020e+01  -1.846429e+01
  -7.716960e+01  -2.010899e+01
  -4.586891e+01  -3.591085e+01
   6.335650e+01  -3.596091e+01
   1.597587e+02  -1.608939e+00
   1.440275e+02   5.404747e+01
   1.257944e+01   9.066188e+01
  -1.250689e+02   7.272476e+01
  -1.482776e+02   9.145005e+00
  -4.920564e+01  -4.502993e+01
   6.141182e+01  -3.911593e+01
   7.924784e+01   1.914330e+01
   1.180961e+01   6.857031e+01
  -5.415516e+01   5.788928e+01
  -6.548505e+01  -1.685407e+00
  -4.668447e+01  -4.944572e+01
  -4.307224e+01  -4.256890e+01
  -5.927962e+01  -4.971968e+00
  -6.503683e+01  -3.472377e+00
  -3.428260e+01  -6.788150e+01
   3.612445e+01  -1.436454e+02
   1.219999e+02  -1.394720e+02
   1.675309e+02  -3.217212e+01
   1.219288e+02   9.301807e+01
   3.343874e+00   1.305640e+02
  -8.792673e+01   6.634683e+01
  -6.071995e+01  -1.332368e+01
   5.755671e+01  -2.136885e+01
   1.347804e+02   4.231155e+01
   7.350552e+01   1.081711e+02
  -8.235849e+01   1.120287e+02
  -1.917311e+02   4.821694e+01
  -1.625000e+02  -3.811768e+01
  -3.637253e+01  -8.741649e+01
   6.188787e+01  -6.779555e+01
   4.974586e+01  -6.346709e+00
  -3.701291e+01   2.433724e+01
  -8.738003e+01  -2.450893e+01
  -3.108589e+01  -1.161123e+02
   8.960367e+01  -1.487071e+02
   1.633675e+02  -5.919642e+01
   1.240086e+02   9.919280e+01
   9.718120e+00   1.944032e+02
  -8.658352e+01   1.425211e+02
  -1.065676e+02  -7.148148e+00
  -6.079773e+01  -1.194091e+02
   4.820666e+00  -1.094175e+02
   4.861872e+01  -2.249856e+01
   5.173997e+01   3.116627e+01
   2.483278e+01   1.047270e+01
   5.469728e+00  -1.854868e+01
   2.346671e+01   1.579638e+01
   5.499291e+01   8.799266e+01
   3.770999e+01   1.086030e+02
  -4.931776e+01   4.457878e+01
  -1.354420e+02  -4.062292e+01
  -1.258312e+02  -7.266073e+01
  -1.748908e+01  -5.044822e+01
   8.513296e+01  -2.102608e+01
   8.819065e+01  -5.888241e+00
   1.435894e+01   7.826851e+00
  -3.634813e+01   2.184553e+01
  -1.692470e+01   1.879195e+01
   1.679366e+01  -1.380614e-01
  -6.485649e+00  -9.782951e+00
  -7.110878e+01  -7.603395e+00
  -8.874288e+01  -2.655284e+01
  -8.735478e+00  -7.796170e+01
   1.170001e+02  -1.088376e+02
   1.851722e+02  -5.579160e+01
   1.416319e+02   6.518147e+01
   2.397044e+01   1.587601e+02
  -8.212859e+01   1.490674e+02
  -1.158560e+02   5.913552e+01
  -7.994650e+01  -2.225246e+01
  -2.386859e+01  -3.758598e+01
   2.868463e+00  -1.057275e+01
  -1.027091e+01  -5.269394e+00
  -3.123219e+01  -4.670208e+01
  -1.980259e+01  -9.011104e+01
   3.000330e+01  -7.026268e+01
   7.891688e+01   1.968220e+01
   7.451381e+01   1.072499e+02
   4.841940e+00   1.098358e+02
  -7.875523e+01   2.300201e+01
  -9.948943e+01  -7.386347e+01
  -3.120132e+01  -1.021022e+02
   6.556623e+01  -5.563957e+01
   9.732910e+01   1.239932e+01
   3.956658e+01   5.338529e+01
  -3.314160e+01   5.479628e+01
  -3.374808e+01   2.902105e+01
   3.092049e+01  -1.356631e+00
   6.759350e+01  -7.290585e+00
   1.525580e+01   2.447574e+01
  -7.883720e+01   6.369787e+01
  -1.165766e+02   5.525903e+01
  -6.490114e+01  -1.313459e+01
   1.659139e+01  -8.127660e+01
   5.531516e+01  -7.752931e+01
   3.807642e+01  -6.009350e+00
   1.232633e-02   5.443971e+01
  -2.770302e+01   4.253495e+01
  -3.664603e+01  -1.825086e+01
  -2.548510e+01  -5.542862e+01
   3.438732e+00  -3.504177e+01
   3.324316e+01   8.027178e+00
   4.036966e+01   2.277611e+01
   2.168406e+01   2.319793e+00
   9.401852e-02  -1.573295e+01
  -6.061538e+00   4.246620e-01
  -4.301557e+00   3.612019e+01
  -1.301432e+01   4.780432e+01
  -3.076973e+01   1.262080e+01
  -3.333871e+01  -4.095037e+01
  -3.131408e+00  -5.961691e+01
   4.170400e+01  -2.200352e+01
   5.666216e+01   3.612819e+01
   1.538521e+01   6.042313e+01
  -5.499769e+01   3.308043e+01
  -8.890255e+01  -1.521999e+01
  -4.818664e+01  -4.445677e+01
   2.992613e+01  -4.225200e+01
   6.591144e+01  -2.272579e+01
   2.657948e+01  -4.719685e+00
  -3.352330e+01  -4.319468e-01
  -3.540828e+01  -1.290523e+01
   2.911223e+01  -2.824567e+01
   8.736955e+01  -1.760589e+01
