
 $NMID
 id='ANONYMOUS ', fmtdat='(2E16.6)'
 volume=1.0
 tramp=1.0
 $END
  -2.898121e+03  -1.482717e+02
  -2.033469e+03  -1.532747e+03
   4.087560e+02  -1.860025e+03
   1.446511e+03  -8.048448e+02
   6.187331e+02   3.203562e+01
  -1.659702e+02   2.867620e+02
  -5.228402e+02  -1.254123e+02
  -9.855795e+00  -6.712844e+02
   5.540097e+02  -5.881908e+02
   5.910773e+02   7.529884e+01
   3.442378e+02   5.875591e+02
  -1.980774e+02   6.866560e+02
  -3.723563e+02   6.459387e+01
  -2.494096e+02  -5.455877e+02
   2.007157e+02  -6.345118e+02
   4.117744e+02  -4.388157e+01
   2.010624e+02   4.920920e+02
  -1.928563e+02   5.755198e+02
  -4.960736e+02   1.297495e+02
  -3.707262e+02  -2.663256e+02
  -5.648947e+01  -3.610092e+02
   1.646231e+02  -1.821920e+02
   9.350600e+01  -3.270140e+01
  -1.727055e+02  -4.628742e+01
  -2.907184e+02  -2.229480e+02
  -3.645939e+00  -3.526306e+02
   4.517880e+02  -1.896215e+02
   6.082094e+02   1.666459e+02
   2.138175e+02   3.793573e+02
  -3.587786e+02   2.604355e+02
  -5.196799e+02  -1.530733e+02
  -2.017410e+02  -3.717554e+02
   2.678521e+02  -3.894929e+02
   4.590381e+02  -1.098162e+02
   3.125993e+02   1.694723e+02
   5.795250e+01   3.484172e+02
  -6.913440e+01   2.000028e+02
   4.140562e+00  -1.167150e+02
   1.682037e+02  -1.958799e+02
   2.155535e+02   1.146073e+02
   4.099253e+01   4.997870e+02
  -2.382062e+02   4.614417e+02
  -3.540578e+02   5.426055e+00
  -1.576585e+02  -3.248889e+02
   1.289683e+02  -1.665579e+02
   1.830811e+02   2.447871e+02
  -8.185539e+01   3.668462e+02
  -4.148286e+02   7.716641e+01
  -4.741743e+02  -3.273728e+02
  -1.623893e+02  -4.664861e+02
   2.756029e+02  -2.772024e+02
   5.008976e+02   4.356026e+01
   3.299761e+02   2.589581e+02
  -4.767647e+01   2.479396e+02
  -2.893107e+02   8.268934e+01
  -2.173224e+02  -5.023983e+01
  -1.193265e+01  -3.161053e+01
   4.178464e+01   5.960158e+01
  -9.948252e+01   6.057668e+01
  -2.103255e+02  -6.290821e+01
  -1.007374e+02  -1.926449e+02
   1.521608e+02  -2.124543e+02
   3.089456e+02  -1.033529e+02
   2.280044e+02   9.148961e+01
  -2.767465e+01   2.868523e+02
  -2.749615e+02   3.427947e+02
  -3.528227e+02   1.600409e+02
  -2.322625e+02  -1.625955e+02
  -3.840683e+01  -3.669015e+02
   6.463699e+01  -3.115944e+02
   4.507652e+01  -1.350206e+02
   2.267193e+01  -5.734234e+01
   9.869665e+01  -9.041138e+01
   2.153905e+02  -6.307325e+01
   2.327603e+02   9.823426e+01
   9.600879e+01   2.473239e+02
  -9.672994e+01   2.025864e+02
  -2.065666e+02  -2.474543e+01
  -1.507517e+02  -2.425876e+02
   3.996457e+01  -2.636009e+02
   2.401005e+02  -7.608767e+01
   2.974453e+02   1.709666e+02
   1.535251e+02   2.944620e+02
  -5.599729e+01   2.471797e+02
  -1.584208e+02   1.294739e+02
  -1.348372e+02   6.645027e+01
  -1.410976e+02   6.542718e+01
  -2.656069e+02   3.415781e+01
  -3.809131e+02  -9.852590e+01
  -2.855990e+02  -2.881331e+02
   3.513225e+01  -4.068733e+02
   3.597258e+02  -3.629050e+02
   4.485024e+02  -1.567535e+02
   2.744420e+02   1.003447e+02
   1.383990e+01   2.415925e+02
  -9.981699e+01   1.905384e+02
  -2.470582e+01   2.813859e+01
   1.177354e+02  -5.059433e+01
   1.389076e+02   3.304709e+01
   1.660363e+01   1.461978e+02
  -1.189383e+02   1.129880e+02
  -1.161642e+02  -4.670198e+01
   2.355354e+01  -1.288344e+02
   1.514122e+02  -2.379477e+00
   1.355691e+02   2.218256e+02
  -2.937344e+01   3.184402e+02
  -2.320483e+02   1.872882e+02
  -3.325898e+02  -6.801367e+01
  -2.572986e+02  -2.543323e+02
  -5.402653e+01  -2.626595e+02
   1.246834e+02  -1.340635e+02
   1.496468e+02  -5.444996e+00
   4.059561e+01   1.512347e+01
  -4.515351e+01  -5.545980e+01
   2.729488e+00  -1.048413e+02
   1.170558e+02  -6.134218e+01
   1.423918e+02   2.698358e+01
   3.478434e+01   5.564801e+01
  -7.620486e+01  -5.649567e+00
  -4.059818e+01  -8.278951e+01
   1.344468e+02  -8.210950e+01
   2.836920e+02   1.885628e+01
   2.470084e+02   1.626462e+02
   2.854935e+01   2.562024e+02
  -2.026279e+02   2.289556e+02
  -2.661762e+02   9.047385e+01
  -1.384541e+02  -5.303086e+01
   2.991531e+01  -8.350849e+01
   6.865531e+01   2.514696e+00
  -4.495323e+01   8.003488e+01
  -1.766446e+02   3.580970e+01
  -1.840667e+02  -9.725320e+01
  -5.782385e+01  -1.809784e+02
   8.475583e+01  -1.349869e+02
   1.245570e+02  -2.199124e+01
   5.125441e+01   3.423108e+01
  -3.687823e+01  -1.379733e+01
  -2.835526e+01  -9.731953e+01
   8.809340e+01  -1.102748e+02
   1.988314e+02  -1.398869e+01
   1.745513e+02   1.268232e+02
   1.128808e+01   2.005142e+02
  -1.506191e+02   1.463484e+02
  -1.720520e+02   1.115618e+01
  -5.906845e+01  -9.348389e+01
   5.670793e+01  -9.645406e+01
   7.118728e+01  -2.897707e+01
   9.445045e+00   2.278271e+01
  -3.068761e+01   1.387459e+01
   5.586740e+00  -1.624760e+01
   7.650040e+01   1.791798e+00
   9.446158e+01   8.357040e+01
   1.053262e+01   1.601757e+02
  -1.324967e+02   1.414865e+02
  -2.243304e+02   1.059534e+01
  -1.817198e+02  -1.479522e+02
  -3.482937e+01  -2.156465e+02
   9.732783e+01  -1.512233e+02
   1.232976e+02  -2.994050e+01
   7.105221e+01   4.450781e+01
   3.036701e+01   3.077807e+01
   4.960082e+01  -1.042093e+01
   7.803464e+01  -6.598242e+00
   5.124634e+01   5.175640e+01
  -3.717284e+01   9.668391e+01
  -1.141371e+02   6.188637e+01
  -9.912816e+01  -4.126952e+01
   1.700024e+01  -1.205398e+02
   1.553805e+02  -8.521005e+01
   1.956870e+02   5.974277e+01
   8.124787e+01   2.009465e+02
  -1.168648e+02   2.133282e+02
  -2.531168e+02   8.293218e+01
  -2.327279e+02  -8.360275e+01
  -9.672960e+01  -1.636177e+02
   3.784420e+01  -1.354222e+02
   8.737750e+01  -7.667607e+01
   7.085830e+01  -6.387721e+01
   5.736417e+01  -8.602766e+01
   8.448942e+01  -7.267376e+01
   1.231157e+02   2.037453e+01
   1.109273e+02   1.487934e+02
   2.212232e+01   2.145745e+02
  -9.864091e+01   1.550627e+02
  -1.624396e+02   6.804114e+00
  -1.184168e+02  -1.225222e+02
  -7.790892e+00  -1.476521e+02
   7.036833e+01  -7.668367e+01
   5.865112e+01   1.158005e+01
  -1.183150e+00   4.911268e+01
  -2.154229e+01   3.482551e+01
   2.681845e+01   1.310272e+01
   7.765904e+01   1.655197e+01
   4.629668e+01   3.547358e+01
  -6.665055e+01   3.622393e+01
  -1.608733e+02  -2.504416e-01
  -1.365260e+02  -5.695929e+01
  -1.937857e+00  -9.076603e+01
   1.266203e+02  -6.979598e+01
   1.400747e+02  -6.185561e+00
   4.349134e+01   4.702845e+01
  -5.841626e+01   4.172655e+01
  -7.620494e+01  -1.661289e+01
  -1.694975e+01  -6.901411e+01
   4.667078e+01  -6.151474e+01
   6.582047e+01  -1.576629e+00
   5.232346e+01   4.832229e+01
   4.403366e+01   4.143672e+01
   5.409582e+01   2.909695e+00
   6.263315e+01   2.447681e+00
   3.875068e+01   6.934710e+01
  -3.128667e+01   1.436277e+02
  -1.207395e+02   1.357403e+02
  -1.669524e+02   2.952597e+01
  -1.190816e+02  -9.051257e+01
  -1.842040e+00  -1.257159e+02
   8.503865e+01  -6.531749e+01
   5.810536e+01   1.013505e+01
  -5.282150e+01   2.003465e+01
  -1.251830e+02  -3.770899e+01
  -6.843346e+01  -9.888234e+01
   7.587080e+01  -1.028001e+02
   1.771974e+02  -4.292127e+01
   1.483032e+02   3.563643e+01
   2.995640e+01   7.774764e+01
  -5.951422e+01   5.637449e+01
  -4.355204e+01   6.126596e-01
   4.003120e+01  -2.505701e+01
   8.700494e+01   2.277142e+01
   3.362723e+01   1.104889e+02
  -7.946446e+01   1.444820e+02
  -1.507375e+02   6.286587e+01
  -1.188509e+02  -8.757827e+01
  -1.487603e+01  -1.809007e+02
   7.654601e+01  -1.335977e+02
   9.757613e+01   7.385674e+00
   5.370719e+01   1.104552e+02
  -8.874778e+00   9.746872e+01
  -4.611652e+01   1.622361e+01
  -4.299833e+01  -2.959862e+01
  -1.732123e+01  -7.882035e+00
  -5.905180e+00   1.667386e+01
  -2.748563e+01  -1.810019e+01
  -5.353964e+01  -8.353082e+01
  -3.062610e+01  -9.974019e+01
   5.184833e+01  -4.076592e+01
   1.275147e+02   3.609608e+01
   1.156289e+02   6.706098e+01
   1.658908e+01   5.008467e+01
  -7.674494e+01   2.313869e+01
  -8.171386e+01   5.547773e+00
  -1.646282e+01  -8.895939e+00
   3.136967e+01  -1.966081e+01
   1.633533e+01  -1.467788e+01
  -1.472348e+01   5.734271e-01
   4.044781e+00   5.184741e+00
   6.430045e+01   1.617417e+00
   8.645981e+01   2.168392e+01
   1.699738e+01   7.426682e+01
  -1.032320e+02   1.076416e+02
  -1.756279e+02   6.009668e+01
  -1.404589e+02  -5.609630e+01
  -2.809496e+01  -1.503782e+02
   7.654838e+01  -1.464018e+02
   1.109165e+02  -6.134576e+01
   7.793771e+01   1.953172e+01
   2.648500e+01   3.749109e+01
   2.181727e+00   1.356658e+01
   1.193077e+01   9.012981e+00
   2.748090e+01   4.760931e+01
   1.582391e+01   8.693109e+01
  -2.881909e+01   6.748877e+01
  -7.445857e+01  -1.559092e+01
  -7.434052e+01  -9.699695e+01
  -1.173318e+01  -1.031510e+02
   7.038204e+01  -2.754959e+01
   9.679068e+01   6.360479e+01
   3.475083e+01   9.698337e+01
  -6.118803e+01   5.841242e+01
  -9.699952e+01  -9.146908e+00
  -4.299961e+01  -5.466802e+01
   3.055639e+01  -5.738801e+01
   3.596254e+01  -2.825635e+01
  -2.471649e+01   3.373317e+00
  -6.299091e+01   6.662962e+00
  -1.602251e+01  -2.585660e+01
   7.407519e+01  -6.112082e+01
   1.137181e+02  -4.954695e+01
   6.645669e+01   1.620767e+01
  -1.393540e+01   8.010218e+01
  -5.640290e+01   7.736673e+01
  -4.299369e+01   9.547857e+00
  -5.326542e+00  -5.196623e+01
   2.482481e+01  -4.632687e+01
   3.665257e+01   1.091516e+01
   2.729862e+01   5.216142e+01
  -9.270866e-01   3.783418e+01
  -3.163404e+01  -4.613817e+00
  -4.005766e+01  -2.298081e+01
  -2.083006e+01  -3.757913e+00
   2.458548e+00   1.783851e+01
   6.361619e+00   5.575031e+00
  -2.376786e+00  -3.144784e+01
   2.419313e+00  -4.873389e+01
   2.522201e+01  -1.926810e+01
   3.728609e+01   3.214009e+01
   1.169587e+01   5.394656e+01
  -3.636369e+01   2.278444e+01
  -5.634617e+01  -3.049250e+01
  -1.679237e+01  -5.524952e+01
   5.353825e+01  -3.280964e+01
   8.691942e+01   1.122074e+01
   4.754097e+01   4.115744e+01
  -2.680331e+01   4.326985e+01
  -6.158838e+01   2.651956e+01
  -2.736711e+01   6.375364e+00
   2.696080e+01  -2.837301e+00
   3.171113e+01   6.690798e+00
  -2.254775e+01   2.408938e+01
  -7.526211e+01   1.915294e+01
