
 $NMID
 id='ANONYMOUS ', fmtdat='(2E16.6)'
 volume=1.0
 tramp=1.0
 $END
   4.074062e+03   1.907844e+02
   2.357711e+03   2.408503e+03
  -5.486065e+02   2.583277e+03
  -1.997773e+03   8.886913e+02
  -8.271682e+02  -6.322308e+02
   5.266098e+02  -5.378974e+02
   7.857241e+02   3.102009e+02
   1.771619e-02   1.020243e+03
  -7.980912e+02   6.903837e+02
  -8.669420e+02  -8.228546e+01
  -4.602300e+02  -7.602984e+02
   2.083559e+02  -8.853683e+02
   5.733454e+02  -9.968605e+01
   4.063177e+02   7.788110e+02
  -2.351771e+02   6.818713e+02
  -5.189034e+02  -6.742659e+00
  -2.607892e+02  -6.668739e+02
   3.233922e+02  -6.163201e+02
   5.876948e+02  -8.794852e+01
   3.699316e+02   3.766514e+02
   2.402301e+01   4.336525e+02
  -2.230068e+02   2.648383e+02
  -2.025311e+02   1.882312e+01
   1.560794e+02  -1.014124e+02
   4.158943e+02   1.580189e+02
   1.550205e+02   4.458813e+02
  -4.911961e+02   3.911275e+02
  -7.962408e+02  -1.248118e+02
  -3.711215e+02  -5.197494e+02
   3.955145e+02  -4.017884e+02
   6.951679e+02   7.550530e+01
   2.989902e+02   4.602397e+02
  -3.003260e+02   5.085953e+02
  -5.641443e+02   1.923572e+02
  -4.010958e+02  -2.440161e+02
  -7.600787e+01  -4.611347e+02
   1.774034e+02  -2.625320e+02
   1.225917e+02   1.851041e+02
  -1.767611e+02   3.674199e+02
  -3.855752e+02  -5.806028e+01
  -1.817170e+02  -6.292662e+02
   2.863487e+02  -6.294690e+02
   5.355028e+02  -5.611955e+00
   2.244162e+02   4.717824e+02
  -2.538221e+02   2.405690e+02
  -3.163484e+02  -3.117582e+02
   9.322011e+01  -4.915865e+02
   5.247919e+02  -1.078162e+02
   5.639446e+02   3.774525e+02
   1.694612e+02   5.416422e+02
  -3.476258e+02   3.122526e+02
  -5.858994e+02  -6.287323e+01
  -3.561650e+02  -3.315332e+02
   1.224499e+02  -3.146781e+02
   3.934754e+02  -6.176738e+01
   2.296685e+02   1.415202e+02
  -7.783747e+01   7.464916e+01
  -1.021689e+02  -1.216406e+02
   1.514740e+02  -1.344959e+02
   2.943783e+02   8.203863e+01
   1.099291e+02   2.645527e+02
  -1.921618e+02   2.301547e+02
  -3.107905e+02   7.064550e+01
  -1.940589e+02  -8.448923e+01
   2.522466e+01  -2.338516e+02
   2.312346e+02  -3.327391e+02
   3.416512e+02  -2.154690e+02
   2.772322e+02   1.335342e+02
   7.204647e+01   4.204822e+02
  -9.335780e+01   3.779670e+02
  -9.033785e+01   1.325602e+02
  -2.089335e+01   1.253657e+01
  -6.216595e+01   8.299988e+01
  -2.051859e+02   1.057937e+02
  -2.690769e+02  -6.353247e+01
  -1.447002e+02  -2.582479e+02
   7.660912e+01  -2.375349e+02
   2.261652e+02   5.499778e+00
   1.902875e+02   2.498667e+02
  -2.251463e+01   2.953322e+02
  -2.769607e+02   1.016218e+02
  -3.570733e+02  -1.848982e+02
  -1.774793e+02  -3.509550e+02
   9.394230e+01  -2.939768e+02
   2.093284e+02  -1.252505e+02
   1.458459e+02  -2.716115e+01
   1.161725e+02  -4.839800e+01
   2.552633e+02  -5.944680e+01
   4.099814e+02   7.067165e+01
   3.247218e+02   2.889539e+02
  -1.352724e+01   4.405969e+02
  -3.687432e+02   4.080219e+02
  -4.851059e+02   1.960128e+02
  -3.219417e+02  -9.794721e+01
  -4.348208e+01  -2.894851e+02
   1.231968e+02  -2.393676e+02
   6.693455e+01  -2.365343e+01
  -1.133888e+02   9.798518e+01
  -1.847446e+02  -1.533202e+01
  -4.255533e+01  -1.874367e+02
   1.486715e+02  -1.604561e+02
   1.588937e+02   5.679057e+01
  -1.928854e+01   1.771353e+02
  -1.811115e+02   2.616370e+01
  -1.552266e+02  -2.404151e+02
   2.649767e+01  -3.431849e+02
   2.259774e+02  -1.979918e+02
   3.284863e+02   5.861031e+01
   2.768405e+02   2.416086e+02
   8.831584e+01   2.636190e+02
  -1.162697e+02   1.516455e+02
  -1.693668e+02   1.475781e+01
  -4.952581e+01  -2.741105e+01
   6.887340e+01   4.671684e+01
   2.226701e+01   1.240367e+02
  -1.247329e+02   9.308868e+01
  -1.717817e+02  -1.394492e+01
  -5.318739e+01  -6.772698e+01
   7.852915e+01  -1.268654e+01
   5.158703e+01   7.349299e+01
  -1.246071e+02   8.739949e+01
  -2.806430e+02   1.023706e+00
  -2.615080e+02  -1.403590e+02
  -5.758919e+01  -2.555511e+02
   1.847125e+02  -2.574971e+02
   2.794648e+02  -1.218935e+02
   1.645974e+02   5.011094e+01
  -2.611403e+01   1.048761e+02
  -8.844820e+01   8.641889e+00
   3.328840e+01  -9.534351e+01
   1.911623e+02  -5.694707e+01
   2.091946e+02   9.516526e+01
   7.058848e+01   1.986495e+02
  -8.976919e+01   1.561811e+02
  -1.404467e+02   3.392531e+01
  -6.884355e+01  -3.600626e+01
   2.714833e+01   3.054869e-01
   3.354465e+01   8.479438e+01
  -7.637714e+01   1.122750e+02
  -1.995202e+02   2.627342e+01
  -1.892696e+02  -1.251138e+02
  -2.022903e+01  -2.169089e+02
   1.612685e+02  -1.634649e+02
   1.905303e+02  -9.107767e+00
   6.642868e+01   1.105900e+02
  -6.208932e+01   1.111477e+02
  -8.038674e+01   3.382113e+01
  -1.859999e+01  -2.331979e+01
   2.084505e+01  -1.860218e+01
  -1.025894e+01   8.110487e+00
  -7.264008e+01  -7.431006e+00
  -9.026344e+01  -8.225304e+01
  -1.462539e+01  -1.586011e+02
   1.270217e+02  -1.506292e+02
   2.316422e+02  -2.262939e+01
   1.979032e+02   1.484813e+02
   4.146772e+01   2.318007e+02
  -1.051087e+02   1.657109e+02
  -1.331561e+02   2.792414e+01
  -7.130695e+01  -5.276496e+01
  -2.818823e+01  -3.387527e+01
  -5.095833e+01   1.338819e+01
  -7.916041e+01   8.355413e+00
  -4.503166e+01  -4.725981e+01
   3.966143e+01  -8.995259e+01
   1.040277e+02  -5.900138e+01
   8.984099e+01   3.610462e+01
  -1.378393e+01   1.156360e+02
  -1.472850e+02   9.068854e+01
  -2.029822e+02  -4.981623e+01
  -1.018168e+02  -2.046551e+02
   1.067720e+02  -2.319025e+02
   2.656247e+02  -9.956546e+01
   2.560426e+02   8.067797e+01
   1.098109e+02   1.723638e+02
  -3.643126e+01   1.473742e+02
  -9.207346e+01   8.656652e+01
  -7.666201e+01   6.964266e+01
  -6.457926e+01   8.875421e+01
  -9.026240e+01   7.319356e+01
  -1.267866e+02  -1.941343e+01
  -1.170495e+02  -1.494954e+02
  -3.030403e+01  -2.231011e+02
   9.656348e+01  -1.708703e+02
   1.723477e+02  -1.881523e+01
   1.331190e+02   1.232488e+02
   1.667072e+01   1.588025e+02
  -6.934236e+01   8.851983e+01
  -6.141435e+01  -4.430888e+00
  -4.597379e+00  -4.647173e+01
   1.263563e+01  -3.569023e+01
  -3.385984e+01  -1.752839e+01
  -7.838835e+01  -2.191889e+01
  -4.515209e+01  -3.820707e+01
   6.440088e+01  -3.740713e+01
   1.596961e+02  -3.659070e+00
   1.440191e+02   5.048219e+01
   1.451940e+01   8.798879e+01
  -1.208582e+02   7.440378e+01
  -1.436158e+02   1.458937e+01
  -4.694059e+01  -4.029795e+01
   6.024569e+01  -3.806187e+01
   7.628433e+01   1.845947e+01
   9.724551e+00   7.006406e+01
  -5.410502e+01   6.127233e+01
  -6.466015e+01   2.844871e-01
  -4.752413e+01  -4.952416e+01
  -4.559219e+01  -4.169582e+01
  -6.175918e+01  -6.683249e-01
  -6.781295e+01   9.576343e-01
  -3.918265e+01  -6.824587e+01
   2.874484e+01  -1.485943e+02
   1.142518e+02  -1.448848e+02
   1.648053e+02  -3.680313e+01
   1.259760e+02   8.829467e+01
   9.776759e+00   1.253639e+02
  -8.399654e+01   6.266229e+01
  -6.051058e+01  -1.371769e+01
   5.720485e+01  -2.074272e+01
   1.372233e+02   4.176667e+01
   7.835921e+01   1.063545e+02
  -7.755378e+01   1.126385e+02
  -1.897144e+02   5.264413e+01
  -1.629761e+02  -3.283072e+01
  -3.747672e+01  -8.532799e+01
   6.179251e+01  -6.855530e+01
   5.025962e+01  -6.332421e+00
  -3.822254e+01   2.766538e+01
  -9.152918e+01  -2.016922e+01
  -3.597448e+01  -1.151016e+02
   8.672084e+01  -1.527549e+02
   1.634005e+02  -6.530296e+01
   1.259746e+02   9.464010e+01
   1.329128e+01   1.926755e+02
  -8.119941e+01   1.431535e+02
  -1.014697e+02  -4.345420e+00
  -5.949132e+01  -1.140530e+02
   1.211181e+00  -1.033654e+02
   4.397226e+01  -1.934083e+01
   4.941212e+01   3.031593e+01
   2.419360e+01   7.923093e+00
   4.141782e+00  -2.011102e+01
   2.164604e+01   1.512838e+01
   5.551638e+01   8.667027e+01
   4.065004e+01   1.066733e+02
  -4.693924e+01   4.449467e+01
  -1.357419e+02  -3.759669e+01
  -1.268824e+02  -6.878063e+01
  -1.735479e+01  -4.906855e+01
   8.536744e+01  -2.224809e+01
   8.608991e+01  -6.977811e+00
   1.061694e+01   7.859439e+00
  -3.809695e+01   2.100030e+01
  -1.469229e+01   1.574901e+01
   2.086108e+01  -2.746662e+00
  -3.627698e+00  -8.269819e+00
  -7.027099e+01  -2.160127e+00
  -8.950567e+01  -2.165945e+01
  -1.122904e+01  -7.754924e+01
   1.127466e+02  -1.123547e+02
   1.810288e+02  -6.014430e+01
   1.410782e+02   6.194107e+01
   2.855351e+01   1.568495e+02
  -7.506493e+01   1.491678e+02
  -1.111157e+02   6.174356e+01
  -7.941218e+01  -1.875039e+01
  -2.551913e+01  -3.571553e+01
   1.882210e+00  -1.058211e+01
  -1.035911e+01  -4.402782e+00
  -3.207710e+01  -4.375069e+01
  -2.217522e+01  -8.759477e+01
   2.811399e+01  -7.118062e+01
   7.941890e+01   1.624314e+01
   7.701201e+01   1.047489e+02
   7.036841e+00   1.101740e+02
  -7.865754e+01   2.498701e+01
  -1.012519e+02  -7.258810e+01
  -3.315723e+01  -1.018933e+02
   6.477120e+01  -5.608539e+01
   9.825168e+01   1.142326e+01
   4.184417e+01   5.203047e+01
  -3.071466e+01   5.379323e+01
  -3.248689e+01   2.877001e+01
   3.046155e+01  -1.402616e+00
   6.705399e+01  -7.616437e+00
   1.622355e+01   2.480931e+01
  -7.601535e+01   6.575571e+01
  -1.137804e+02   5.858867e+01
  -6.455914e+01  -1.101729e+01
   1.411247e+01  -8.192599e+01
   5.266897e+01  -8.006829e+01
   3.875804e+01  -7.982826e+00
   3.630235e+00   5.484565e+01
  -2.502363e+01   4.557628e+01
  -3.751851e+01  -1.433537e+01
  -2.854555e+01  -5.276580e+01
   1.659515e+00  -3.513025e+01
   3.323426e+01   5.993259e+00
   4.004462e+01   2.017209e+01
   2.017308e+01   9.794131e-01
  -1.611606e+00  -1.552888e+01
  -5.855301e+00   5.815026e-02
  -2.607259e+00   3.462842e+01
  -1.088753e+01   4.587338e+01
  -2.883022e+01   1.190331e+01
  -3.085951e+01  -3.977270e+01
  -1.518212e+00  -5.736721e+01
   4.102141e+01  -2.071754e+01
   5.468121e+01   3.638768e+01
   1.461643e+01   6.073288e+01
  -5.351099e+01   3.450694e+01
  -8.733978e+01  -1.282274e+01
  -4.908022e+01  -4.228719e+01
   2.678852e+01  -4.150355e+01
   6.251638e+01  -2.368368e+01
   2.448001e+01  -6.324987e+00
  -3.464849e+01  -1.692016e+00
  -3.634230e+01  -1.393118e+01
   2.814076e+01  -2.984733e+01
   8.720466e+01  -2.046289e+01
