
 $NMID
 id='ANONYMOUS ', fmtdat='(2E16.6)'
 volume=1.0
 tramp=1.0
 $END
   3.476718e+03  -1.056778e+02
   2.192123e+03   1.870576e+03
  -3.348077e+02   2.316015e+03
  -1.469395e+03   8.350976e+02
  -8.316687e+02  -2.693236e+02
   1.356259e+02  -2.103993e+02
   4.896234e+02   3.616875e+02
  -2.102205e+01   6.496761e+02
  -5.541886e+02   6.355028e+02
  -7.481907e+02  -7.716989e+01
  -4.303940e+02  -6.114874e+02
   1.274988e+02  -7.107313e+02
   4.071999e+02  -1.153721e+02
   2.845752e+02   5.769250e+02
  -1.638684e+02   6.199010e+02
  -4.748854e+02   1.880291e+01
  -3.570427e+02  -5.219187e+02
   1.958419e+02  -6.349302e+02
   5.049060e+02  -2.571019e+02
   4.153840e+02   2.329868e+02
   9.826862e+01   4.282698e+02
  -1.852331e+02   2.368299e+02
  -1.149127e+02   7.186414e+01
   1.861078e+02   5.548537e+01
   3.366844e+02   2.110774e+02
   2.699530e+01   3.595234e+02
  -4.501713e+02   2.471800e+02
  -6.645415e+02  -1.427810e+02
  -2.874239e+02  -3.854900e+02
   3.410360e+02  -2.936248e+02
   5.631101e+02   7.031164e+01
   2.375150e+02   3.770830e+02
  -2.700372e+02   4.063971e+02
  -4.759197e+02   1.630164e+02
  -3.532536e+02  -1.639256e+02
  -8.486026e+01  -3.585631e+02
   6.311859e+01  -2.085043e+02
   3.069356e+01   1.271504e+02
  -1.803016e+02   2.303945e+02
  -2.702381e+02  -1.068043e+02
  -9.551829e+01  -5.490326e+02
   2.435643e+02  -5.025321e+02
   3.964774e+02   8.995045e+00
   1.652201e+02   3.627750e+02
  -1.858488e+02   1.683373e+02
  -2.180147e+02  -2.724790e+02
   1.072330e+02  -4.000663e+02
   4.430024e+02  -5.744782e+01
   4.772333e+02   3.701152e+02
   1.392695e+02   4.837207e+02
  -3.000818e+02   2.620583e+02
  -5.048825e+02  -6.223842e+01
  -3.219311e+02  -2.647794e+02
   7.461138e+01  -2.444083e+02
   3.183120e+02  -6.545455e+01
   2.100147e+02   7.896024e+01
  -3.896851e+01   5.178579e+01
  -8.328150e+01  -7.136463e+01
   1.158876e+02  -8.802612e+01
   2.592890e+02   6.057240e+01
   1.208866e+02   2.224807e+02
  -1.750980e+02   2.387631e+02
  -3.386594e+02   1.027221e+02
  -2.381204e+02  -9.991803e+01
   2.824715e+01  -2.829929e+02
   2.717466e+02  -3.369309e+02
   3.510980e+02  -1.687593e+02
   2.432901e+02   1.490026e+02
   5.675111e+01   3.708160e+02
  -5.482601e+01   3.367212e+02
  -4.952543e+01   1.645651e+02
  -3.696358e+01   7.685818e+01
  -1.162245e+02   9.921516e+01
  -2.315639e+02   6.598926e+01
  -2.432943e+02  -9.703792e+01
  -1.058091e+02  -2.477058e+02
   8.174531e+01  -2.038806e+02
   1.910081e+02   2.242152e+01
   1.483773e+02   2.379120e+02
  -3.440631e+01   2.604066e+02
  -2.466749e+02   7.626358e+01
  -3.137548e+02  -1.781736e+02
  -1.676042e+02  -3.157545e+02
   6.798495e+01  -2.667925e+02
   1.845066e+02  -1.309937e+02
   1.461148e+02  -5.433295e+01
   1.387378e+02  -5.760727e+01
   2.699946e+02  -3.904568e+01
   4.011716e+02   9.350346e+01
   3.069652e+02   3.008337e+02
  -2.874412e+01   4.316215e+02
  -3.748223e+02   3.856527e+02
  -4.712629e+02   1.702938e+02
  -2.944925e+02  -1.002280e+02
  -3.024137e+01  -2.564482e+02
   1.014522e+02  -2.083581e+02
   3.444585e+01  -3.861691e+01
  -1.071733e+02   5.240964e+01
  -1.405851e+02  -2.634820e+01
  -2.028968e+01  -1.481914e+02
   1.233131e+02  -1.185659e+02
   1.229403e+02   4.697012e+01
  -2.272441e+01   1.399916e+02
  -1.587913e+02   7.590481e+00
  -1.432116e+02  -2.323290e+02
   2.861589e+01  -3.373510e+02
   2.370016e+02  -1.988773e+02
   3.422756e+02   6.807315e+01
   2.716375e+02   2.622423e+02
   6.650367e+01   2.688347e+02
  -1.225267e+02   1.348294e+02
  -1.500742e+02   2.822796e+00
  -3.311988e+01  -1.654970e+01
   5.858227e+01   6.393151e+01
   1.458370e+00   1.233819e+02
  -1.268399e+02   7.780280e+01
  -1.548149e+02  -2.151259e+01
  -3.903424e+01  -5.850289e+01
   7.725698e+01   2.654389e+00
   3.829541e+01   8.330258e+01
  -1.415917e+02   8.374631e+01
  -2.903335e+02  -1.711700e+01
  -2.529977e+02  -1.613730e+02
  -3.535553e+01  -2.591936e+02
   1.987779e+02  -2.388308e+02
   2.701854e+02  -1.025695e+02
   1.471866e+02   4.584250e+01
  -2.455136e+01   8.356814e+01
  -6.742039e+01  -1.699304e+00
   4.880121e+01  -8.177424e+01
   1.854943e+02  -3.534780e+01
   1.912053e+02   1.046358e+02
   5.874262e+01   1.911454e+02
  -8.852061e+01   1.407566e+02
  -1.285112e+02   2.157154e+01
  -5.392659e+01  -3.617297e+01
   3.462730e+01   1.412145e+01
   2.638321e+01   9.886390e+01
  -8.943242e+01   1.112817e+02
  -2.011882e+02   1.222202e+01
  -1.760388e+02  -1.312851e+02
  -8.466804e+00  -2.048702e+02
   1.568210e+02  -1.463746e+02
   1.751657e+02  -7.147305e+00
   5.562682e+01   9.765374e+01
  -6.100156e+01   9.676965e+01
  -7.181005e+01   2.708225e+01
  -7.362647e+00  -2.269691e+01
   2.972903e+01  -1.083281e+01
  -1.037380e+01   1.930668e+01
  -8.106311e+01  -2.297323e+00
  -9.538935e+01  -8.890070e+01
  -8.292013e+00  -1.688856e+02
   1.372399e+02  -1.486186e+02
   2.322316e+02  -9.940030e+00
   1.872449e+02   1.569817e+02
   3.336221e+01   2.269507e+02
  -1.028210e+02   1.563012e+02
  -1.266607e+02   2.594983e+01
  -6.840723e+01  -4.795438e+01
  -2.996952e+01  -2.946992e+01
  -5.441890e+01   1.542952e+01
  -8.531571e+01   9.400851e+00
  -5.384083e+01  -5.294002e+01
   3.765675e+01  -9.952915e+01
   1.141362e+02  -6.494870e+01
   9.877321e+01   4.086865e+01
  -1.699444e+01   1.207983e+02
  -1.567315e+02   8.363186e+01
  -1.990203e+02  -6.578103e+01
  -8.164329e+01  -2.099607e+02
   1.245673e+02  -2.186031e+02
   2.673128e+02  -7.778111e+01
   2.449914e+02   9.373456e+01
   9.881040e+01   1.726157e+02
  -4.108543e+01   1.416221e+02
  -9.134321e+01   8.137159e+01
  -7.435369e+01   6.824168e+01
  -6.232120e+01   9.067637e+01
  -9.190711e+01   7.577677e+01
  -1.314897e+02  -2.007524e+01
  -1.184739e+02  -1.536300e+02
  -2.550319e+01  -2.250806e+02
   1.019244e+02  -1.669836e+02
   1.714134e+02  -1.306390e+01
   1.265915e+02   1.247143e+02
   9.956502e+00   1.538804e+02
  -7.263972e+01   8.062433e+01
  -6.052425e+01  -1.163268e+01
   1.844649e+00  -5.041807e+01
   2.272150e+01  -3.528604e+01
  -2.649186e+01  -1.419490e+01
  -7.745411e+01  -1.950220e+01
  -4.532109e+01  -3.833894e+01
   6.889670e+01  -3.639151e+01
   1.646492e+02   3.150908e+00
   1.405628e+02   6.071568e+01
   3.944191e+00   9.410802e+01
  -1.280444e+02   7.261672e+01
  -1.435070e+02   8.156510e+00
  -4.570793e+01  -4.732296e+01
   5.835085e+01  -4.332861e+01
   7.677547e+01   1.645353e+01
   1.648827e+01   7.225111e+01
  -4.801467e+01   6.603365e+01
  -6.761692e+01   3.287901e+00
  -5.532146e+01  -5.025758e+01
  -4.775482e+01  -4.388555e+01
  -5.675711e+01  -3.288675e+00
  -6.464011e+01  -2.958790e+00
  -4.105847e+01  -7.296684e+01
   2.859051e+01  -1.503441e+02
   1.209691e+02  -1.414089e+02
   1.730162e+02  -3.153123e+01
   1.277924e+02   9.045273e+01
   6.718883e+00   1.253881e+02
  -8.564582e+01   6.513498e+01
  -5.914416e+01  -8.966727e+00
   5.609143e+01  -1.704556e+01
   1.309038e+02   4.262553e+01
   7.045353e+01   1.051390e+02
  -8.099096e+01   1.093112e+02
  -1.862175e+02   4.626699e+01
  -1.556890e+02  -3.918190e+01
  -3.191522e+01  -8.616693e+01
   6.211448e+01  -6.288519e+01
   4.717381e+01  -1.762215e-02
  -4.010983e+01   3.020225e+01
  -9.119406e+01  -2.059087e+01
  -3.705686e+01  -1.154767e+02
   8.206742e+01  -1.531681e+02
   1.581444e+02  -6.720750e+01
   1.243801e+02   9.090173e+01
   1.424489e+01   1.879815e+02
  -8.113458e+01   1.377302e+02
  -1.007924e+02  -9.011736e+00
  -5.370848e+01  -1.154338e+02
   1.090441e+01  -1.007832e+02
   4.959093e+01  -1.619807e+01
   4.668467e+01   3.113828e+01
   1.910735e+01   8.616130e+00
   4.490677e+00  -1.608749e+01
   2.519003e+01   2.042710e+01
   5.385226e+01   8.715491e+01
   3.323121e+01   1.022207e+02
  -5.156554e+01   4.082646e+01
  -1.322242e+02  -3.773211e+01
  -1.210823e+02  -6.892414e+01
  -1.715994e+01  -5.191511e+01
   8.104557e+01  -2.440914e+01
   8.473242e+01  -4.793182e+00
   1.437880e+01   1.147666e+01
  -3.517933e+01   2.097030e+01
  -1.730391e+01   1.257344e+01
   1.648358e+01  -4.302858e+00
  -4.082664e+00  -6.764433e+00
  -6.798594e+01  -1.090423e+00
  -9.022038e+01  -2.373194e+01
  -1.584561e+01  -8.075785e+01
   1.103942e+02  -1.144587e+02
   1.853295e+02  -6.131722e+01
   1.479176e+02   6.117321e+01
   3.067958e+01   1.575066e+02
  -7.844785e+01   1.516873e+02
  -1.150894e+02   6.441077e+01
  -8.112195e+01  -1.769334e+01
  -2.708006e+01  -3.653614e+01
  -1.217619e+00  -1.296586e+01
  -1.229546e+01  -8.377504e+00
  -3.066918e+01  -4.761887e+01
  -1.948390e+01  -8.909728e+01
   2.838787e+01  -7.070317e+01
   7.781893e+01   1.492668e+01
   7.789623e+01   1.008642e+02
   1.113156e+01   1.086407e+02
  -7.554585e+01   2.928512e+01
  -1.024519e+02  -6.692607e+01
  -3.660605e+01  -1.023282e+02
   6.376523e+01  -6.177816e+01
   1.006598e+02   8.620667e+00
   4.387873e+01   5.591692e+01
  -3.239388e+01   5.875469e+01
  -3.684580e+01   2.858680e+01
   2.669200e+01  -4.743126e+00
   6.644068e+01  -8.959898e+00
   1.775084e+01   2.500816e+01
  -7.532312e+01   6.332345e+01
  -1.155504e+02   5.326219e+01
  -6.699345e+01  -1.435183e+01
   1.456799e+01  -8.160350e+01
   5.706559e+01  -7.956388e+01
   4.375116e+01  -9.660304e+00
   6.420153e+00   5.427675e+01
  -2.466400e+01   4.851229e+01
  -3.826626e+01  -1.035990e+01
  -2.969217e+01  -5.276909e+01
  -1.698382e-01  -3.783833e+01
   3.220870e+01   5.558035e+00
   4.041210e+01   2.348936e+01
   2.021510e+01   3.028069e+00
  -2.815816e+00  -1.921069e+01
  -5.791605e+00  -6.134818e+00
   1.869211e+00   3.252786e+01
  -4.701002e+00   5.052580e+01
  -2.757632e+01   1.877739e+01
  -3.714114e+01  -3.572625e+01
  -9.010064e+00  -5.825028e+01
   3.986083e+01  -2.427228e+01
   5.910248e+01   3.308228e+01
   1.787920e+01   5.967070e+01
  -5.488727e+01   3.550627e+01
  -9.041242e+01  -1.139046e+01
  -5.058924e+01  -4.280843e+01
   2.689286e+01  -4.473803e+01
   6.408238e+01  -2.763066e+01
   2.911576e+01  -7.227280e+00
  -2.794295e+01   2.189270e+00
  -3.306015e+01  -7.516063e+00
   2.411144e+01  -2.509077e+01
   7.928867e+01  -1.956909e+01
