
 $NMID
 id='ANONYMOUS ', fmtdat='(2E16.6)'
 volume=1.0
 tramp=1.0
 $END
   4.113007e+03   4.338120e+01
   2.375684e+03   2.455377e+03
  -6.690643e+02   2.697385e+03
  -1.892235e+03   1.097703e+03
  -1.031233e+03  -4.858397e+02
   5.611348e+02  -4.468671e+02
   7.670224e+02   4.403566e+02
  -1.112872e+02   9.388040e+02
  -7.673382e+02   7.999825e+02
  -8.408339e+02  -4.330939e+01
  -4.418980e+02  -8.184542e+02
   1.263864e+02  -8.084552e+02
   6.306174e+02  -1.284859e+02
   3.852556e+02   6.335567e+02
  -2.494064e+02   7.480741e+02
  -5.942973e+02  -4.734560e+01
  -2.474646e+02  -6.597935e+02
   2.729995e+02  -5.796361e+02
   4.617396e+02  -6.281990e+01
   3.948061e+02   2.838593e+02
   4.523693e+01   4.347251e+02
  -2.050704e+02   2.482938e+02
  -1.797646e+02   7.817121e+00
   8.760159e+01  -6.521381e+01
   3.759081e+02   1.913602e+02
   1.538326e+02   4.573886e+02
  -5.041886e+02   3.631199e+02
  -8.395978e+02  -1.174732e+02
  -4.009082e+02  -5.277582e+02
   3.643983e+02  -4.187671e+02
   7.058205e+02   6.046483e+01
   3.389639e+02   4.573588e+02
  -2.864192e+02   5.020418e+02
  -5.584000e+02   1.810030e+02
  -4.180848e+02  -2.256805e+02
  -7.167905e+01  -4.672952e+02
   1.914122e+02  -2.713302e+02
   1.403594e+02   2.306695e+02
  -1.805932e+02   3.942232e+02
  -4.242105e+02  -7.119520e+01
  -2.279964e+02  -6.839643e+02
   3.118459e+02  -6.834237e+02
   5.828563e+02   1.464559e+01
   2.469071e+02   5.439067e+02
  -2.736068e+02   3.076049e+02
  -3.770729e+02  -3.460758e+02
   7.537069e+01  -5.595279e+02
   5.582751e+02  -1.409678e+02
   5.992469e+02   4.120341e+02
   1.678031e+02   5.891275e+02
  -3.812295e+02   3.496178e+02
  -6.226058e+02  -7.694647e+01
  -3.598995e+02  -3.802557e+02
   1.689038e+02  -3.546523e+02
   4.415509e+02  -5.043044e+01
   2.311186e+02   1.931191e+02
  -1.202651e+02   1.057124e+02
  -1.357479e+02  -1.450950e+02
   1.687151e+02  -1.735783e+02
   3.396738e+02   7.915815e+01
   1.334287e+02   2.957349e+02
  -2.031553e+02   2.599615e+02
  -3.288700e+02   8.240061e+01
  -2.038269e+02  -8.304280e+01
   1.574532e+01  -2.359691e+02
   2.237329e+02  -3.375267e+02
   3.509758e+02  -2.123735e+02
   2.974787e+02   1.522288e+02
   7.349039e+01   4.413270e+02
  -1.171055e+02   3.790547e+02
  -1.118724e+02   1.166342e+02
  -2.048817e+01   7.518137e+00
  -5.687908e+01   1.025280e+02
  -2.159234e+02   1.254081e+02
  -2.867298e+02  -6.872932e+01
  -1.514252e+02  -2.783451e+02
   8.334552e+01  -2.504659e+02
   2.285368e+02  -2.001183e+00
   1.884200e+02   2.424724e+02
  -2.066211e+01   2.855158e+02
  -2.688998e+02   1.097769e+02
  -3.581525e+02  -1.647225e+02
  -1.864707e+02  -3.450971e+02
   9.842751e+01  -3.143112e+02
   2.257039e+02  -1.314057e+02
   1.503638e+02  -1.293038e+01
   9.977590e+01  -3.574504e+01
   2.329038e+02  -6.288549e+01
   4.070230e+02   5.406951e+01
   3.416100e+02   2.820596e+02
   1.663813e+00   4.497076e+02
  -3.635415e+02   4.225558e+02
  -4.940883e+02   1.999049e+02
  -3.356298e+02  -1.003646e+02
  -4.783135e+01  -2.976379e+02
   1.330358e+02  -2.466128e+02
   7.813068e+01  -2.084226e+01
  -1.167155e+02   1.056421e+02
  -1.966242e+02  -1.309493e+01
  -4.741771e+01  -1.986392e+02
   1.614568e+02  -1.707308e+02
   1.778654e+02   5.887379e+01
  -1.905211e+01   1.877733e+02
  -1.938353e+02   3.170493e+01
  -1.615973e+02  -2.428804e+02
   3.168708e+01  -3.488995e+02
   2.335918e+02  -2.006451e+02
   3.314825e+02   5.673681e+01
   2.811767e+02   2.430999e+02
   9.226430e+01   2.747307e+02
  -1.165087e+02   1.638239e+02
  -1.768619e+02   1.539867e+01
  -5.593087e+01  -3.766447e+01
   7.035917e+01   3.992685e+01
   2.827124e+01   1.302150e+02
  -1.246844e+02   1.038723e+02
  -1.787779e+02  -1.037465e+01
  -5.925232e+01  -7.223039e+01
   7.972578e+01  -1.767345e+01
   5.635774e+01   7.189494e+01
  -1.245286e+02   8.786034e+01
  -2.890952e+02   1.868566e+00
  -2.732601e+02  -1.415637e+02
  -6.318701e+01  -2.619408e+02
   1.910211e+02  -2.678560e+02
   2.928202e+02  -1.284318e+02
   1.723140e+02   5.172335e+01
  -2.961091e+01   1.067391e+02
  -9.566565e+01   1.508621e+00
   3.516259e+01  -1.074601e+02
   2.043119e+02  -6.150583e+01
   2.228617e+02   1.040790e+02
   7.507481e+01   2.120345e+02
  -9.346806e+01   1.618827e+02
  -1.449845e+02   2.908013e+01
  -6.956621e+01  -4.511076e+01
   3.140610e+01  -4.330836e+00
   4.078154e+01   8.911367e+01
  -7.157942e+01   1.231311e+02
  -2.023658e+02   3.514224e+01
  -1.979020e+02  -1.250068e+02
  -2.587533e+01  -2.243073e+02
   1.650452e+02  -1.690654e+02
   1.980546e+02  -7.886601e+00
   6.804963e+01   1.161182e+02
  -6.913124e+01   1.143616e+02
  -8.894723e+01   3.224156e+01
  -2.116286e+01  -2.785991e+01
   2.404136e+01  -2.098725e+01
  -6.442707e+00   7.797524e+00
  -7.191241e+01  -6.754712e+00
  -9.400811e+01  -8.174873e+01
  -1.853841e+01  -1.619789e+02
   1.275927e+02  -1.579087e+02
   2.373427e+02  -2.878437e+01
   2.050824e+02   1.508544e+02
   4.413210e+01   2.400753e+02
  -1.074678e+02   1.732689e+02
  -1.352050e+02   2.807878e+01
  -7.100151e+01  -5.786412e+01
  -2.807146e+01  -3.786068e+01
  -5.081992e+01   1.224671e+01
  -7.633327e+01   1.112760e+01
  -4.204461e+01  -4.456194e+01
   3.892127e+01  -8.691977e+01
   1.009437e+02  -5.703076e+01
   8.705543e+01   3.446399e+01
  -1.108826e+01   1.132162e+02
  -1.422472e+02   9.139207e+01
  -2.027730e+02  -4.882376e+01
  -1.066036e+02  -2.046960e+02
   1.033563e+02  -2.349256e+02
   2.705157e+02  -1.030940e+02
   2.650010e+02   8.330901e+01
   1.172195e+02   1.783013e+02
  -3.562274e+01   1.521355e+02
  -9.598827e+01   8.830594e+01
  -8.180004e+01   7.069343e+01
  -6.578533e+01   9.017850e+01
  -8.937803e+01   7.534044e+01
  -1.273389e+02  -1.856057e+01
  -1.207028e+02  -1.516657e+02
  -3.358671e+01  -2.271116e+02
   9.764899e+01  -1.756729e+02
   1.780847e+02  -2.325881e+01
   1.396954e+02   1.220136e+02
   2.098903e+01   1.624318e+02
  -6.804109e+01   9.533705e+01
  -6.270251e+01   1.085010e+00
  -6.769000e+00  -4.575848e+01
   1.147583e+01  -3.853605e+01
  -3.286690e+01  -1.909563e+01
  -7.673890e+01  -1.995283e+01
  -4.477990e+01  -3.566490e+01
   6.279051e+01  -3.729648e+01
   1.583798e+02  -4.657871e+00
   1.449894e+02   5.130991e+01
   1.645257e+01   9.053455e+01
  -1.210981e+02   7.602358e+01
  -1.470790e+02   1.445589e+01
  -5.134648e+01  -4.105716e+01
   5.748164e+01  -3.928307e+01
   7.594837e+01   1.548570e+01
   1.154237e+01   6.541916e+01
  -5.131594e+01   5.771046e+01
  -6.215152e+01   4.594481e-01
  -4.598117e+01  -4.744047e+01
  -4.501239e+01  -4.109223e+01
  -6.047399e+01  -2.850428e+00
  -6.456443e+01  -6.821561e-01
  -3.507893e+01  -6.622687e+01
   3.087048e+01  -1.430890e+02
   1.142277e+02  -1.398524e+02
   1.620991e+02  -3.424964e+01
   1.212379e+02   8.781538e+01
   6.128794e+00   1.231947e+02
  -8.454957e+01   6.072076e+01
  -5.776963e+01  -1.381047e+01
   5.958389e+01  -1.932378e+01
   1.357914e+02   4.221110e+01
   7.477803e+01   1.049648e+02
  -7.908198e+01   1.107592e+02
  -1.879300e+02   5.174380e+01
  -1.610503e+02  -3.291680e+01
  -3.816606e+01  -8.564136e+01
   5.886941e+01  -6.928921e+01
   4.845943e+01  -7.222586e+00
  -3.726953e+01   2.627044e+01
  -8.903055e+01  -2.342981e+01
  -3.381297e+01  -1.193162e+02
   8.866835e+01  -1.549423e+02
   1.661652e+02  -6.355762e+01
   1.292942e+02   9.898142e+01
   1.480486e+01   1.971195e+02
  -8.327222e+01   1.454517e+02
  -1.054486e+02  -4.303210e+00
  -6.247937e+01  -1.161815e+02
   1.216724e+00  -1.067621e+02
   4.556566e+01  -2.230793e+01
   5.125363e+01   2.937212e+01
   2.592381e+01   8.999301e+00
   6.242882e+00  -1.820785e+01
   2.317339e+01   1.676914e+01
   5.563203e+01   8.793377e+01
   3.972352e+01   1.079714e+02
  -4.837454e+01   4.536008e+01
  -1.375302e+02  -3.769608e+01
  -1.291574e+02  -6.963809e+01
  -1.905550e+01  -5.019448e+01
   8.603830e+01  -2.351230e+01
   8.896321e+01  -8.232047e+00
   1.345867e+01   7.608978e+00
  -3.726147e+01   2.281891e+01
  -1.565866e+01   1.890009e+01
   1.892157e+01  -3.668605e-01
  -6.900372e+00  -8.372691e+00
  -7.436565e+01  -4.205713e+00
  -9.195723e+01  -2.436608e+01
  -9.675942e+00  -8.042307e+01
   1.172590e+02  -1.147327e+02
   1.850154e+02  -6.087439e+01
   1.420993e+02   6.373711e+01
   2.750948e+01   1.599797e+02
  -7.640615e+01   1.512926e+02
  -1.121957e+02   6.212246e+01
  -8.077911e+01  -1.849736e+01
  -2.709398e+01  -3.452068e+01
   4.501637e-01  -9.758911e+00
  -1.166289e+01  -5.951095e+00
  -3.358503e+01  -4.714686e+01
  -2.311498e+01  -9.023178e+01
   2.848503e+01  -7.106787e+01
   8.051812e+01   1.825719e+01
   7.709302e+01   1.062515e+02
   5.198113e+00   1.099279e+02
  -8.098115e+01   2.322920e+01
  -1.023136e+02  -7.421258e+01
  -3.280387e+01  -1.026507e+02
   6.475462e+01  -5.643255e+01
   9.683346e+01   1.042838e+01
   3.995136e+01   5.009225e+01
  -3.116934e+01   5.215017e+01
  -3.094473e+01   2.818489e+01
   3.281335e+01  -1.507294e+00
   6.813569e+01  -8.258922e+00
   1.532131e+01   2.381622e+01
  -7.739093e+01   6.537281e+01
  -1.139355e+02   5.897053e+01
  -6.358743e+01  -1.059550e+01
   1.472028e+01  -8.194181e+01
   5.175451e+01  -8.003346e+01
   3.647860e+01  -8.105895e+00
   2.204583e+00   5.355113e+01
  -2.403869e+01   4.233283e+01
  -3.513257e+01  -1.756721e+01
  -2.636060e+01  -5.362308e+01
   2.726780e+00  -3.294437e+01
   3.358790e+01   8.489548e+00
   4.113448e+01   2.115744e+01
   2.183531e+01   1.177847e+00
  -7.468630e-01  -1.445320e+01
  -7.654773e+00   3.177942e+00
  -6.420088e+00   3.689440e+01
  -1.493808e+01   4.512198e+01
  -3.072735e+01   8.414577e+00
  -3.044314e+01  -4.370773e+01
   7.073486e-01  -5.972119e+01
   4.369766e+01  -2.048127e+01
   5.653470e+01   3.834783e+01
   1.462594e+01   6.256052e+01
  -5.516843e+01   3.500540e+01
  -8.949617e+01  -1.394758e+01
  -4.983624e+01  -4.410047e+01
   2.782720e+01  -4.254962e+01
   6.428808e+01  -2.342884e+01
   2.527724e+01  -5.870046e+00
  -3.473169e+01  -2.041301e+00
  -3.538587e+01  -1.484561e+01
   3.116640e+01  -3.014637e+01
   9.034601e+01  -1.854129e+01
