
 $NMID
 id='ANONYMOUS ', fmtdat='(2E16.6)'
 volume=1.0
 tramp=1.0
 $END
  -3.498258e+03  -7.614333e+01
  -2.203221e+03  -2.042930e+03
   4.800012e+02  -2.266210e+03
   1.671294e+03  -1.168553e+03
   9.274086e+02   4.778269e+02
  -3.938424e+02   3.911158e+02
  -7.302318e+02  -3.560336e+02
  -1.246041e+02  -8.595557e+02
   7.026323e+02  -6.246663e+02
   8.097393e+02  -3.642624e+01
   4.567523e+02   7.136866e+02
  -1.067498e+02   7.844807e+02
  -4.591309e+02   1.690006e+02
  -3.600966e+02  -5.329522e+02
   2.407666e+02  -6.345005e+02
   5.083848e+02  -2.544838e+01
   2.602620e+02   5.749514e+02
  -2.218377e+02   5.858657e+02
  -5.020045e+02   1.123403e+02
  -3.994563e+02  -2.852626e+02
  -4.754329e+01  -4.161801e+02
   1.971162e+02  -2.294600e+02
   1.354021e+02  -4.722813e+01
  -9.471668e+01   5.636151e+00
  -3.197303e+02  -1.856070e+02
  -8.831765e+01  -3.859783e+02
   4.491218e+02  -2.606642e+02
   7.392297e+02   1.349670e+02
   3.300576e+02   4.652191e+02
  -3.300619e+02   3.331990e+02
  -6.170703e+02  -6.856793e+01
  -2.710529e+02  -4.178022e+02
   2.615128e+02  -4.236231e+02
   5.038573e+02  -1.638483e+02
   3.679915e+02   1.901071e+02
   6.927718e+01   3.751003e+02
  -1.005660e+02   2.298335e+02
  -5.827299e+01  -1.534011e+02
   1.615583e+02  -2.883999e+02
   2.921965e+02   7.915372e+01
   1.238781e+02   5.653784e+02
  -2.680498e+02   5.410432e+02
  -4.440682e+02   5.259985e+00
  -1.994767e+02  -4.058885e+02
   1.907629e+02  -2.362801e+02
   2.833855e+02   2.652667e+02
  -5.796245e+01   4.334291e+02
  -4.769106e+02   1.076608e+02
  -5.503297e+02  -3.471109e+02
  -1.900094e+02  -5.239040e+02
   3.181607e+02  -3.349121e+02
   5.829768e+02   1.968445e+01
   3.876871e+02   2.961284e+02
  -7.308412e+01   3.171216e+02
  -3.568557e+02   1.076793e+02
  -2.420383e+02  -9.290091e+01
   3.863261e+01  -7.067848e+01
   9.392682e+01   8.718755e+01
  -1.189070e+02   1.204505e+02
  -2.731678e+02  -4.949645e+01
  -1.319335e+02  -2.314279e+02
   1.635796e+02  -2.425754e+02
   3.195891e+02  -1.038765e+02
   2.278627e+02   8.179378e+01
  -6.221663e+00   2.583447e+02
  -2.345715e+02   3.403869e+02
  -3.459342e+02   1.982778e+02
  -2.768393e+02  -1.379548e+02
  -7.717622e+01  -3.967412e+02
   8.434857e+01  -3.575866e+02
   9.567161e+01  -1.389179e+02
   4.028500e+01  -2.901475e+01
   7.521184e+01  -8.443408e+01
   1.982479e+02  -9.460779e+01
   2.500094e+02   7.052876e+01
   1.334338e+02   2.534055e+02
  -7.297291e+01   2.316241e+02
  -2.125814e+02   1.141652e+00
  -1.778448e+02  -2.326488e+02
   1.660298e+01  -2.771865e+02
   2.503621e+02  -1.078529e+02
   3.361874e+02   1.489092e+02
   1.842736e+02   3.126964e+02
  -6.553643e+01   2.895415e+02
  -1.875706e+02   1.433399e+02
  -1.422988e+02   4.235907e+01
  -1.203611e+02   4.680756e+01
  -2.432249e+02   4.906652e+01
  -3.890016e+02  -6.471098e+01
  -3.151574e+02  -2.718215e+02
   8.346138e+00  -4.196965e+02
   3.488986e+02  -3.950176e+02
   4.623514e+02  -1.882744e+02
   3.040082e+02   8.378056e+01
   4.453823e+01   2.615181e+02
  -1.048384e+02   2.224323e+02
  -4.904041e+01   3.477003e+01
   1.062220e+02  -8.089875e+01
   1.649062e+02   8.184292e+00
   4.276968e+01   1.638246e+02
  -1.221550e+02   1.485896e+02
  -1.401375e+02  -3.922079e+01
   1.336408e+01  -1.557945e+02
   1.657614e+02  -2.466436e+01
   1.539052e+02   2.268246e+02
  -1.859968e+01   3.383075e+02
  -2.217948e+02   2.024821e+02
  -3.280705e+02  -5.352513e+01
  -2.737260e+02  -2.393030e+02
  -8.216209e+01  -2.627114e+02
   1.130155e+02  -1.505279e+02
   1.621621e+02  -1.692435e+01
   5.299362e+01   2.432099e+01
  -5.611198e+01  -4.141863e+01
  -1.848860e+01  -1.116155e+02
   1.123466e+02  -8.534884e+01
   1.569970e+02   1.079440e+01
   5.093927e+01   5.883463e+01
  -7.205508e+01   6.064530e+00
  -4.675922e+01  -7.632207e+01
   1.255625e+02  -8.657729e+01
   2.798138e+02   3.189021e+00
   2.583487e+02   1.436073e+02
   5.449292e+01   2.509182e+02
  -1.807927e+02   2.472598e+02
  -2.676539e+02   1.179495e+02
  -1.562349e+02  -4.329016e+01
   2.210280e+01  -9.497204e+01
   7.979872e+01  -6.928254e+00
  -3.255019e+01   9.027594e+01
  -1.805210e+02   5.634059e+01
  -2.006991e+02  -8.814165e+01
  -7.218893e+01  -1.885147e+02
   8.054751e+01  -1.480462e+02
   1.296787e+02  -3.035076e+01
   6.030693e+01   3.555240e+01
  -3.195751e+01  -4.223519e+00
  -3.486512e+01  -8.820974e+01
   7.426102e+01  -1.133946e+02
   1.934811e+02  -2.975136e+01
   1.850999e+02   1.145806e+02
   2.611212e+01   2.056608e+02
  -1.475224e+02   1.619619e+02
  -1.807891e+02   1.945261e+01
  -6.697110e+01  -9.898324e+01
   5.609970e+01  -1.068425e+02
   7.569233e+01  -3.445387e+01
   1.464175e+01   2.325393e+01
  -2.617447e+01   1.685005e+01
   7.386114e+00  -1.293708e+01
   7.434606e+01   2.270042e+00
   9.519755e+01   7.953520e+01
   1.833972e+01   1.590498e+02
  -1.235906e+02   1.508224e+02
  -2.262880e+02   2.568419e+01
  -1.953749e+02  -1.421541e+02
  -4.671947e+01  -2.237264e+02
   9.653782e+01  -1.643088e+02
   1.296818e+02  -3.228136e+01
   7.426764e+01   4.825890e+01
   3.197286e+01   3.441448e+01
   4.891324e+01  -1.180269e+01
   7.545853e+01  -9.059351e+00
   4.474366e+01   4.801307e+01
  -3.730866e+01   9.063544e+01
  -1.056630e+02   5.883413e+01
  -9.269044e+01  -3.741735e+01
   1.240022e+01  -1.148223e+02
   1.462474e+02  -8.863548e+01
   1.973018e+02   4.875312e+01
   9.671741e+01   1.944343e+02
  -1.031183e+02   2.209499e+02
  -2.545580e+02   9.759891e+01
  -2.447607e+02  -7.445718e+01
  -1.074777e+02  -1.634071e+02
   3.230659e+01  -1.398839e+02
   8.663136e+01  -8.253407e+01
   7.199334e+01  -6.917971e+01
   5.942675e+01  -9.061076e+01
   8.529209e+01  -7.596935e+01
   1.243015e+02   1.703101e+01
   1.179578e+02   1.464717e+02
   3.368044e+01   2.174073e+02
  -9.075938e+01   1.660057e+02
  -1.655278e+02   2.070468e+01
  -1.296061e+02  -1.149624e+02
  -1.858416e+01  -1.507274e+02
   6.425220e+01  -8.605028e+01
   5.694303e+01   2.808535e+00
   1.521493e+00   4.499392e+01
  -1.489757e+01   3.519846e+01
   3.279354e+01   1.555158e+01
   7.858274e+01   1.789212e+01
   4.478548e+01   3.458963e+01
  -6.519403e+01   3.561614e+01
  -1.577786e+02   2.858532e+00
  -1.379182e+02  -5.076454e+01
  -8.795730e+00  -8.722366e+01
   1.208991e+02  -7.242754e+01
   1.403108e+02  -1.238396e+01
   4.698409e+01   4.226458e+01
  -5.615485e+01   4.074350e+01
  -7.474902e+01  -1.497737e+01
  -1.508693e+01  -6.644232e+01
   4.700804e+01  -5.918406e+01
   6.249569e+01  -4.297184e-01
   4.855333e+01   4.764089e+01
   4.370679e+01   3.965248e+01
   5.616380e+01   3.306558e-01
   6.343093e+01  -6.054553e-01
   3.826754e+01   6.648630e+01
  -2.955647e+01   1.427003e+02
  -1.170169e+02   1.374676e+02
  -1.644192e+02   3.183216e+01
  -1.187940e+02  -8.928488e+01
  -1.430802e+00  -1.253891e+02
   8.676350e+01  -6.424472e+01
   5.866801e+01   1.220977e+01
  -5.563887e+01   2.210798e+01
  -1.297823e+02  -3.613323e+01
  -7.206450e+01  -9.877881e+01
   7.476398e+01  -1.061443e+02
   1.789678e+02  -4.977576e+01
   1.532860e+02   3.096718e+01
   3.553949e+01   7.942387e+01
  -5.717626e+01   6.301770e+01
  -4.578729e+01   4.626042e+00
   3.816540e+01  -2.640761e+01
   8.892268e+01   2.088646e+01
   3.691994e+01   1.137580e+02
  -8.050508e+01   1.517357e+02
  -1.569852e+02   6.712399e+01
  -1.255849e+02  -9.045670e+01
  -1.835465e+01  -1.885906e+02
   7.667214e+01  -1.408062e+02
   1.008438e+02   3.974891e+00
   6.036806e+01   1.116439e+02
  -1.575807e+00   1.013963e+02
  -4.403928e+01   2.026599e+01
  -4.755996e+01  -2.708483e+01
  -2.272702e+01  -6.714339e+00
  -6.101746e+00   1.748677e+01
  -2.510732e+01  -1.764943e+01
  -5.553129e+01  -8.425329e+01
  -3.725763e+01  -1.015906e+02
   4.821947e+01  -4.308579e+01
   1.322916e+02   3.378243e+01
   1.233493e+02   6.521052e+01
   1.863105e+01   5.017402e+01
  -8.113664e+01   2.574464e+01
  -8.536158e+01   8.521054e+00
  -1.516901e+01  -8.687728e+00
   3.345416e+01  -2.183896e+01
   1.461891e+01  -1.617775e+01
  -1.806416e+01   7.602602e-01
   5.029691e+00   4.632402e+00
   7.025831e+01  -8.422261e-01
   9.159848e+01   2.115848e+01
   1.654011e+01   7.897423e+01
  -1.078832e+02   1.149807e+02
  -1.803227e+02   6.374923e+01
  -1.435800e+02  -5.792995e+01
  -3.097558e+01  -1.539104e+02
   7.370571e+01  -1.487322e+02
   1.095844e+02  -6.339178e+01
   7.794527e+01   1.589715e+01
   2.592064e+01   3.349864e+01
   7.982099e-01   1.064983e+01
   1.281396e+01   6.733178e+00
   3.279108e+01   4.562879e+01
   2.236703e+01   8.677165e+01
  -2.645906e+01   6.980739e+01
  -7.760891e+01  -1.392314e+01
  -7.778415e+01  -9.899447e+01
  -1.038942e+01  -1.069208e+02
   7.582982e+01  -2.806445e+01
   1.013856e+02   6.699553e+01
   3.525972e+01   1.005826e+02
  -6.297672e+01   5.941731e+01
  -9.762392e+01  -9.058335e+00
  -4.172376e+01  -5.315128e+01
   3.102242e+01  -5.558732e+01
   3.339905e+01  -2.777176e+01
  -2.885420e+01   3.651270e+00
  -6.540017e+01   8.347041e+00
  -1.602936e+01  -2.506062e+01
   7.459378e+01  -6.427041e+01
   1.125575e+02  -5.582602e+01
   6.531356e+01   1.217904e+01
  -1.241690e+01   8.067810e+01
  -5.207808e+01   7.929994e+01
  -3.972820e+01   9.905088e+00
  -5.198856e+00  -5.235702e+01
   2.359846e+01  -4.490671e+01
   3.663543e+01   1.305659e+01
   2.827520e+01   5.219544e+01
  -1.096905e+00   3.581276e+01
  -3.285439e+01  -5.189369e+00
  -4.037930e+01  -2.069006e+01
  -2.052375e+01  -1.376721e+00
   1.284944e+00   1.693455e+01
   4.612447e+00   1.506086e+00
  -1.169689e+00  -3.508452e+01
   7.384533e+00  -4.887692e+01
   2.977510e+01  -1.563763e+01
   3.680677e+01   3.772422e+01
   7.249733e+00   5.808257e+01
  -4.055605e+01   2.301876e+01
  -5.826615e+01  -3.362698e+01
  -1.740325e+01  -5.896191e+01
   5.352411e+01  -3.494835e+01
   8.854251e+01   1.078730e+01
   5.012871e+01   4.110871e+01
  -2.547851e+01   4.314726e+01
  -6.175620e+01   2.680177e+01
  -2.642810e+01   7.092534e+00
   3.016641e+01  -1.543194e+00
   3.379506e+01   9.319092e+00
  -2.539935e+01   2.803160e+01
  -8.137109e+01   2.221929e+01
