
 $NMID
 id='ANONYMOUS ', fmtdat='(2E16.6)'
 volume=1.0
 tramp=1.0
 $END
   4.685425e+03  -1.407378e+02
   2.632374e+03   2.780615e+03
  -1.023682e+03   2.870796e+03
  -2.403602e+03   8.429178e+02
  -8.849368e+02  -7.564491e+02
   8.259177e+02  -6.486279e+02
   1.043530e+03   5.203958e+02
  -1.147020e+02   1.315946e+03
  -9.074812e+02   8.313824e+02
  -1.005013e+03  -1.373293e+02
  -5.404066e+02  -1.028317e+03
   3.135745e+02  -9.654424e+02
   7.788656e+02  -7.537588e+01
   3.628505e+02   8.496042e+02
  -3.415872e+02   8.074794e+02
  -6.239919e+02  -4.754587e+01
  -2.454482e+02  -7.335162e+02
   3.526849e+02  -6.555355e+02
   5.666314e+02  -9.259042e+00
   3.528128e+02   4.338817e+02
  -5.579027e+01   4.642562e+02
  -2.857931e+02   2.604880e+02
  -2.590443e+02   2.194212e+01
   9.345168e+01  -1.076390e+02
   4.140067e+02   6.914911e+01
   2.476612e+02   4.119974e+02
  -4.705273e+02   4.514686e+02
  -8.963953e+02  -7.151062e+01
  -4.639405e+02  -5.948780e+02
   4.180196e+02  -5.277630e+02
   7.968185e+02   2.930780e+01
   3.840900e+02   5.165961e+02
  -3.045919e+02   5.564502e+02
  -6.093737e+02   2.160242e+02
  -4.500069e+02  -2.518016e+02
  -6.306470e+01  -5.243650e+02
   2.525246e+02  -3.177708e+02
   2.305115e+02   2.260710e+02
  -1.486901e+02   5.117842e+02
  -4.867844e+02   1.255994e+01
  -2.880591e+02  -7.136710e+02
   3.109024e+02  -7.541220e+02
   6.420744e+02  -8.930686e+00
   2.784173e+02   5.981308e+02
  -3.055103e+02   3.579015e+02
  -4.164971e+02  -3.146877e+02
   4.908272e+01  -5.615246e+02
   5.510450e+02  -1.651706e+02
   6.036426e+02   3.785199e+02
   1.782281e+02   5.853356e+02
  -3.754637e+02   3.736009e+02
  -6.372275e+02  -5.434540e+01
  -3.887744e+02  -4.000532e+02
   1.585754e+02  -3.987135e+02
   4.649622e+02  -6.480062e+01
   2.500361e+02   2.211259e+02
  -1.344489e+02   1.223416e+02
  -1.549933e+02  -1.747395e+02
   1.767198e+02  -2.085598e+02
   3.614841e+02   8.556131e+01
   1.362653e+02   3.186141e+02
  -2.133386e+02   2.457047e+02
  -3.173347e+02   4.431985e+01
  -1.694241e+02  -8.048617e+01
   3.139090e+01  -1.831942e+02
   2.017066e+02  -2.991112e+02
   3.255861e+02  -2.265968e+02
   2.984128e+02   1.299916e+02
   7.597097e+01   4.589064e+02
  -1.490680e+02   4.050956e+02
  -1.576704e+02   9.147090e+01
  -2.688042e+01  -5.918337e+01
  -1.169282e+01   6.305756e+01
  -1.667124e+02   1.456048e+02
  -2.772300e+02  -3.036772e+01
  -1.710337e+02  -2.704085e+02
   7.178557e+01  -2.711263e+02
   2.432863e+02  -1.727648e+01
   2.161674e+02   2.478647e+02
  -4.795687e+00   3.091341e+02
  -2.769444e+02   1.304515e+02
  -3.749524e+02  -1.643439e+02
  -1.878722e+02  -3.568840e+02
   1.112233e+02  -3.123420e+02
   2.343862e+02  -1.127098e+02
   1.462322e+02   1.106956e+01
   8.690401e+01  -2.281382e+01
   2.199665e+02  -6.626533e+01
   3.850646e+02   4.830895e+01
   3.199124e+02   2.700249e+02
  -1.097303e+00   4.272944e+02
  -3.459431e+02   4.005160e+02
  -4.768884e+02   2.020159e+02
  -3.396758e+02  -8.643628e+01
  -6.041418e+01  -2.998334e+02
   1.426758e+02  -2.690389e+02
   1.043244e+02  -2.845196e+01
  -1.067980e+02   1.314298e+02
  -2.188826e+02   1.232017e+01
  -6.944651e+01  -2.077997e+02
   1.693343e+02  -1.980574e+02
   1.992290e+02   5.219069e+01
  -7.128817e+00   2.046163e+02
  -1.977400e+02   4.423847e+01
  -1.627751e+02  -2.432566e+02
   3.456386e+01  -3.394237e+02
   2.218293e+02  -1.798554e+02
   3.083822e+02   6.398301e+01
   2.696182e+02   2.257574e+02
   1.000754e+02   2.558560e+02
  -1.123329e+02   1.679833e+02
  -1.915414e+02   2.886793e+01
  -7.300146e+01  -4.068793e+01
   7.166010e+01   2.035871e+01
   4.156869e+01   1.155885e+02
  -1.182511e+02   1.027827e+02
  -1.835169e+02  -7.677677e+00
  -6.573589e+01  -7.492661e+01
   7.768690e+01  -2.633781e+01
   6.200087e+01   6.032051e+01
  -1.067792e+02   7.988864e+01
  -2.634005e+02   5.754424e+00
  -2.560793e+02  -1.236496e+02
  -6.815482e+01  -2.435357e+02
   1.740588e+02  -2.629658e+02
   2.846070e+02  -1.329005e+02
   1.789156e+02   5.559071e+01
  -2.304187e+01   1.229389e+02
  -1.015915e+02   1.618640e+01
   1.994281e+01  -1.066614e+02
   1.904212e+02  -7.069464e+01
   2.162168e+02   9.329460e+01
   7.589003e+01   2.044174e+02
  -8.942270e+01   1.602694e+02
  -1.451361e+02   3.558295e+01
  -7.853315e+01  -3.824114e+01
   2.037719e+01  -9.772965e+00
   4.015579e+01   6.922533e+01
  -5.814798e+01   1.048518e+02
  -1.860377e+02   3.371644e+01
  -1.918513e+02  -1.141423e+02
  -2.891173e+01  -2.157516e+02
   1.619464e+02  -1.675792e+02
   2.001699e+02  -7.604193e+00
   7.346682e+01   1.181384e+02
  -6.346155e+01   1.171673e+02
  -8.743201e+01   3.562443e+01
  -2.807199e+01  -2.472765e+01
   1.305469e+01  -2.385068e+01
  -8.277163e+00  -1.269009e+00
  -5.850315e+01  -1.132252e+01
  -7.643086e+01  -7.163235e+01
  -1.706155e+01  -1.430819e+02
   1.128843e+02  -1.479158e+02
   2.229264e+02  -3.366509e+01
   2.011101e+02   1.405011e+02
   4.522942e+01   2.350972e+02
  -1.090346e+02   1.713838e+02
  -1.381029e+02   2.518735e+01
  -6.927998e+01  -6.086100e+01
  -2.350071e+01  -3.938794e+01
  -4.641373e+01   1.082269e+01
  -7.146108e+01   7.190034e+00
  -3.502202e+01  -4.379646e+01
   4.157442e+01  -7.703446e+01
   9.156039e+01  -4.795699e+01
   7.651279e+01   3.147472e+01
  -1.155413e+01   1.007026e+02
  -1.299928e+02   8.509889e+01
  -1.901094e+02  -3.810851e+01
  -1.064591e+02  -1.882716e+02
   9.240094e+01  -2.270773e+02
   2.567787e+02  -1.049023e+02
   2.557368e+02   7.838673e+01
   1.126777e+02   1.754746e+02
  -3.662553e+01   1.489872e+02
  -9.550136e+01   8.388270e+01
  -8.197039e+01   6.576049e+01
  -6.805700e+01   8.433860e+01
  -8.856827e+01   6.757974e+01
  -1.193703e+02  -2.331948e+01
  -1.097334e+02  -1.480934e+02
  -2.842136e+01  -2.168559e+02
   9.384732e+01  -1.666482e+02
   1.697397e+02  -2.124002e+01
   1.338775e+02   1.177410e+02
   2.158313e+01   1.568796e+02
  -6.202530e+01   9.299182e+01
  -5.674448e+01   4.154311e+00
  -7.493488e+00  -3.879602e+01
   4.220750e+00  -3.296924e+01
  -3.824426e+01  -1.900929e+01
  -7.447059e+01  -2.194685e+01
  -4.097169e+01  -3.377540e+01
   5.814824e+01  -3.254982e+01
   1.458155e+02  -4.315428e+00
   1.360531e+02   4.378197e+01
   1.806034e+01   8.065071e+01
  -1.138972e+02   7.066268e+01
  -1.414289e+02   1.406220e+01
  -4.724172e+01  -3.914492e+01
   6.149274e+01  -3.588457e+01
   7.614215e+01   1.979169e+01
   5.071277e+00   6.695965e+01
  -5.833278e+01   5.459509e+01
  -6.146529e+01  -4.815158e+00
  -3.935660e+01  -5.019199e+01
  -4.039879e+01  -4.093875e+01
  -6.035235e+01  -2.161386e+00
  -6.280986e+01   1.889279e-01
  -2.864182e+01  -6.329491e+01
   3.622018e+01  -1.380151e+02
   1.113619e+02  -1.340635e+02
   1.534384e+02  -2.987457e+01
   1.147120e+02   9.030524e+01
   4.000677e+00   1.237525e+02
  -8.527959e+01   5.910515e+01
  -6.080725e+01  -1.709540e+01
   5.578341e+01  -2.350507e+01
   1.342450e+02   3.759879e+01
   7.651426e+01   9.994584e+01
  -7.517883e+01   1.076661e+02
  -1.831466e+02   5.330215e+01
  -1.574019e+02  -2.827274e+01
  -3.690789e+01  -8.227129e+01
   5.836982e+01  -6.988248e+01
   4.757991e+01  -9.877705e+00
  -3.742106e+01   2.430614e+01
  -8.772290e+01  -2.326143e+01
  -3.034968e+01  -1.163354e+02
   9.248149e+01  -1.493372e+02
   1.666400e+02  -5.768296e+01
   1.243258e+02   1.007668e+02
   8.963975e+00   1.934262e+02
  -8.360638e+01   1.410520e+02
  -1.008309e+02  -4.486250e+00
  -5.998331e+01  -1.126483e+02
  -2.520458e+00  -1.034588e+02
   4.091158e+01  -2.072412e+01
   5.125781e+01   3.018889e+01
   2.817387e+01   8.521696e+00
   4.390763e+00  -2.167997e+01
   1.750642e+01   1.175534e+01
   5.267405e+01   8.517031e+01
   4.285051e+01   1.080225e+02
  -4.305404e+01   4.489958e+01
  -1.344444e+02  -4.013911e+01
  -1.273986e+02  -7.111207e+01
  -1.600999e+01  -4.793814e+01
   8.848150e+01  -1.984179e+01
   8.743298e+01  -7.172428e+00
   9.220330e+00   6.261309e+00
  -3.906791e+01   2.188364e+01
  -1.322781e+01   1.914118e+01
   2.239462e+01  -1.168402e+00
  -5.035220e+00  -1.027101e+01
  -7.241833e+01  -5.541234e+00
  -8.730082e+01  -2.370262e+01
  -4.278068e+00  -7.683669e+01
   1.182614e+02  -1.078530e+02
   1.791645e+02  -5.184306e+01
   1.326384e+02   6.978450e+01
   1.997559e+01   1.577206e+02
  -7.925642e+01   1.412194e+02
  -1.108908e+02   5.123818e+01
  -7.688536e+01  -2.422674e+01
  -2.157904e+01  -3.518581e+01
   6.399822e+00  -7.996036e+00
  -6.906238e+00  -2.500379e+00
  -3.107631e+01  -4.226425e+01
  -2.216271e+01  -8.553155e+01
   2.871414e+01  -6.825100e+01
   7.892008e+01   2.016035e+01
   7.248960e+01   1.083432e+02
  -4.361317e-01   1.097803e+02
  -8.311089e+01   1.896064e+01
  -9.854929e+01  -7.936061e+01
  -2.657561e+01  -1.024522e+02
   6.773895e+01  -5.015136e+01
   9.476959e+01   1.591878e+01
   3.625223e+01   4.925545e+01
  -3.234163e+01   4.744473e+01
  -2.937704e+01   2.610157e+01
   3.365583e+01   7.808380e-01
   6.662076e+01  -5.440614e+00
   1.366140e+01   2.354219e+01
  -7.595201e+01   6.249849e+01
  -1.089522e+02   5.598832e+01
  -5.790445e+01  -1.145267e+01
   1.808692e+01  -7.880636e+01
   5.184260e+01  -7.301733e+01
   3.416017e+01  -5.207787e-01
  -1.570124e+00   5.702836e+01
  -2.815482e+01   4.082393e+01
  -3.691737e+01  -2.008399e+01
  -2.532945e+01  -5.345189e+01
   4.253784e+00  -3.157806e+01
   3.275260e+01   7.985695e+00
   3.785830e+01   1.920836e+01
   2.025901e+01   1.060381e+00
   1.482514e+00  -1.096323e+01
  -5.093267e+00   7.183334e+00
  -9.149611e+00   3.807362e+01
  -2.193184e+01   4.238380e+01
  -3.445297e+01   3.576301e+00
  -2.659467e+01  -4.768716e+01
   7.097996e+00  -6.058088e+01
   4.491682e+01  -1.784409e+01
   5.244524e+01   4.175090e+01
   1.177140e+01   6.345921e+01
  -5.287708e+01   3.225525e+01
  -8.472017e+01  -1.740733e+01
  -4.716128e+01  -4.401195e+01
   2.766010e+01  -3.824172e+01
   6.269736e+01  -1.785615e+01
   2.239847e+01  -2.923149e+00
  -3.892948e+01  -3.246519e+00
  -3.895099e+01  -1.831278e+01
   3.102065e+01  -3.258242e+01
   9.252545e+01  -1.929140e+01
