
 $NMID
 id='ANONYMOUS ', fmtdat='(2E16.6)'
 volume=1.0
 tramp=1.0
 $END
   4.821150e+03  -3.274065e+02
   2.639528e+03   2.969723e+03
  -8.606199e+02   3.060394e+03
  -2.429981e+03   1.028672e+03
  -1.143963e+03  -6.747529e+02
   7.414034e+02  -6.529522e+02
   8.299446e+02   4.173419e+02
  -1.350068e+02   1.071593e+03
  -9.547476e+02   8.091660e+02
  -1.072077e+03  -1.447584e+02
  -4.254416e+02  -9.918758e+02
   2.309496e+02  -9.319000e+02
   7.413897e+02  -1.808622e+02
   4.634070e+02   7.872318e+02
  -3.308471e+02   8.255569e+02
  -6.872710e+02  -1.299606e-01
  -3.612312e+02  -7.419054e+02
   3.566708e+02  -7.140363e+02
   7.283329e+02  -1.133587e+02
   4.373638e+02   3.741188e+02
   1.895113e+01   4.522341e+02
  -2.632371e+02   3.316298e+02
  -2.272770e+02   2.581498e+01
   1.140023e+02  -9.207468e+01
   4.343978e+02   1.127387e+02
   2.403496e+02   4.573727e+02
  -4.610781e+02   4.926464e+02
  -9.136294e+02  -3.613651e+01
  -4.718957e+02  -6.289749e+02
   4.153831e+02  -5.669003e+02
   8.132147e+02  -3.162561e+00
   4.106172e+02   5.482501e+02
  -2.664868e+02   5.593112e+02
  -5.961242e+02   2.560802e+02
  -4.661945e+02  -2.204741e+02
  -8.931135e+01  -4.961338e+02
   2.248834e+02  -3.166285e+02
   2.116517e+02   2.303883e+02
  -1.709540e+02   4.893495e+02
  -5.004414e+02  -1.091774e+00
  -2.755714e+02  -7.307262e+02
   3.560681e+02  -7.403102e+02
   6.609013e+02   1.666613e+01
   2.522146e+02   6.139808e+02
  -3.601951e+02   3.462111e+02
  -4.267047e+02  -3.591218e+02
   8.661133e+01  -5.853561e+02
   6.008962e+02  -1.377796e+02
   6.132075e+02   4.412173e+02
   1.405352e+02   6.242647e+02
  -4.197726e+02   3.582242e+02
  -6.563392e+02  -9.144296e+01
  -3.897852e+02  -4.205743e+02
   1.675198e+02  -3.890666e+02
   4.732056e+02  -3.832568e+01
   2.495766e+02   2.344225e+02
  -1.529461e+02   1.154825e+02
  -1.779339e+02  -1.944665e+02
   1.861890e+02  -2.268678e+02
   4.036065e+02   9.110259e+01
   1.564194e+02   3.537565e+02
  -2.536351e+02   2.829095e+02
  -3.824382e+02   4.480106e+01
  -1.923616e+02  -1.178000e+02
   6.248927e+01  -2.194875e+02
   2.367919e+02  -3.040786e+02
   3.270044e+02  -2.149139e+02
   2.858714e+02   1.272590e+02
   8.478272e+01   4.430578e+02
  -1.226165e+02   4.078621e+02
  -1.469263e+02   1.255116e+02
  -4.306275e+01  -2.217420e+01
  -3.829210e+01   6.937595e+01
  -1.851179e+02   1.232517e+02
  -2.830232e+02  -5.200703e+01
  -1.720213e+02  -2.749293e+02
   7.319115e+01  -2.692501e+02
   2.452289e+02  -1.672345e+01
   2.132855e+02   2.491914e+02
  -1.151107e+01   3.129167e+02
  -2.888593e+02   1.285782e+02
  -3.858232e+02  -1.788074e+02
  -1.885381e+02  -3.824527e+02
   1.210771e+02  -3.315858e+02
   2.547517e+02  -1.246597e+02
   1.661329e+02   7.266489e+00
   1.022794e+02  -2.929710e+01
   2.464548e+02  -6.053104e+01
   4.239812e+02   7.565593e+01
   3.426977e+02   3.162284e+02
  -1.704852e+01   4.696976e+02
  -3.915573e+02   4.241369e+02
  -5.199161e+02   1.979814e+02
  -3.539959e+02  -1.037353e+02
  -5.979724e+01  -3.147438e+02
   1.410324e+02  -2.760565e+02
   9.272302e+01  -3.708687e+01
  -1.048308e+02   1.189617e+02
  -2.029070e+02   1.755345e+00
  -5.234895e+01  -2.068450e+02
   1.720646e+02  -1.834161e+02
   1.912644e+02   6.947825e+01
  -2.094113e+01   2.125250e+02
  -2.097990e+02   3.515006e+01
  -1.695956e+02  -2.660935e+02
   4.334469e+01  -3.625576e+02
   2.443921e+02  -1.840426e+02
   3.281505e+02   8.077380e+01
   2.718355e+02   2.469454e+02
   8.879700e+01   2.621730e+02
  -1.196004e+02   1.598133e+02
  -1.861209e+02   2.130754e+01
  -6.297008e+01  -3.571195e+01
   7.500091e+01   3.405959e+01
   3.601941e+01   1.253221e+02
  -1.259438e+02   1.030090e+02
  -1.872126e+02  -1.118315e+01
  -6.437090e+01  -7.375494e+01
   7.899967e+01  -1.715648e+01
   5.404593e+01   7.099199e+01
  -1.256803e+02   8.014954e+01
  -2.825570e+02  -8.209468e+00
  -2.626957e+02  -1.438099e+02
  -5.959983e+01  -2.578872e+02
   1.875699e+02  -2.677163e+02
   2.928972e+02  -1.336829e+02
   1.809748e+02   5.276267e+01
  -2.022045e+01   1.187803e+02
  -9.310777e+01   1.447249e+01
   3.242423e+01  -1.026413e+02
   1.999999e+02  -6.065487e+01
   2.165134e+02   1.076108e+02
   6.651146e+01   2.156914e+02
  -9.980607e+01   1.616546e+02
  -1.475518e+02   2.947058e+01
  -7.286303e+01  -4.027518e+01
   2.379292e+01  -1.358333e+00
   3.191919e+01   8.093249e+01
  -7.551394e+01   1.075359e+02
  -2.005765e+02   2.371026e+01
  -1.932530e+02  -1.287132e+02
  -1.934984e+01  -2.250381e+02
   1.724629e+02  -1.689564e+02
   2.042658e+02  -4.353865e+00
   7.101805e+01   1.209682e+02
  -6.693638e+01   1.162564e+02
  -8.581285e+01   3.285186e+01
  -2.218330e+01  -2.284935e+01
   1.693474e+01  -1.574309e+01
  -1.357174e+01   6.059125e+00
  -7.085953e+01  -1.559659e+01
  -8.426792e+01  -8.610336e+01
  -9.696679e+00  -1.564153e+02
   1.314946e+02  -1.488160e+02
   2.380115e+02  -2.253672e+01
   2.023791e+02   1.554058e+02
   3.502084e+01   2.448360e+02
  -1.193247e+02   1.747863e+02
  -1.431137e+02   2.443435e+01
  -7.017567e+01  -6.167684e+01
  -2.838394e+01  -4.087668e+01
  -5.483211e+01   9.418500e+00
  -8.074288e+01   2.022250e+00
  -3.737970e+01  -5.325368e+01
   4.852762e+01  -8.624628e+01
   1.042312e+02  -4.926770e+01
   8.189500e+01   3.920415e+01
  -1.738513e+01   1.091865e+02
  -1.425892e+02   8.361219e+01
  -1.956179e+02  -5.170491e+01
  -1.005962e+02  -2.038947e+02
   1.060470e+02  -2.332263e+02
   2.701075e+02  -9.742167e+01
   2.634054e+02   9.139547e+01
   1.143697e+02   1.860888e+02
  -3.938792e+01   1.529827e+02
  -1.000962e+02   8.517327e+01
  -8.706645e+01   6.970919e+01
  -7.477567e+01   9.132330e+01
  -9.821900e+01   7.159607e+01
  -1.301670e+02  -2.790353e+01
  -1.153475e+02  -1.613102e+02
  -2.402449e+01  -2.319928e+02
   1.055122e+02  -1.750780e+02
   1.813243e+02  -1.932795e+01
   1.387823e+02   1.268463e+02
   1.809385e+01   1.650792e+02
  -6.927716e+01   9.461528e+01
  -6.059899e+01   1.062029e+00
  -4.666902e+00  -4.087074e+01
   9.323502e+00  -3.220048e+01
  -3.841015e+01  -1.973852e+01
  -8.029548e+01  -2.808861e+01
  -4.371905e+01  -4.149679e+01
   6.550802e+01  -3.400470e+01
   1.592935e+02   2.623239e+00
   1.436190e+02   5.327769e+01
   1.418687e+01   8.609968e+01
  -1.230416e+02   7.130352e+01
  -1.464329e+02   1.274711e+01
  -4.593246e+01  -4.097535e+01
   6.491559e+01  -3.777948e+01
   7.790898e+01   2.032987e+01
   4.997515e+00   7.263158e+01
  -5.970961e+01   6.209793e+01
  -6.427062e+01  -1.629857e+00
  -4.324001e+01  -5.257915e+01
  -4.501517e+01  -4.393065e+01
  -6.549522e+01  -2.415365e+00
  -6.917863e+01  -1.417639e+00
  -3.455923e+01  -7.173657e+01
   3.653643e+01  -1.506501e+02
   1.205553e+02  -1.424695e+02
   1.677547e+02  -2.993778e+01
   1.254324e+02   9.532679e+01
   6.624833e+00   1.266233e+02
  -8.738462e+01   5.898508e+01
  -6.025488e+01  -1.556297e+01
   6.120816e+01  -1.598804e+01
   1.397926e+02   4.953122e+01
   7.506572e+01   1.111250e+02
  -8.528628e+01   1.120523e+02
  -1.964065e+02   4.962033e+01
  -1.657453e+02  -3.622092e+01
  -3.657884e+01  -8.842952e+01
   6.307886e+01  -7.168644e+01
   4.966881e+01  -7.867650e+00
  -4.117504e+01   2.656147e+01
  -9.277350e+01  -2.459927e+01
  -3.038746e+01  -1.229379e+02
   9.913766e+01  -1.575710e+02
   1.745285e+02  -6.064850e+01
   1.271065e+02   1.072650e+02
   4.856711e+00   2.039823e+02
  -9.017090e+01   1.452616e+02
  -1.043079e+02  -1.089079e+01
  -5.765351e+01  -1.221045e+02
   3.636604e+00  -1.061828e+02
   4.656578e+01  -1.627171e+01
   5.341930e+01   3.418159e+01
   2.726787e+01   8.507431e+00
   2.553047e+00  -2.140641e+01
   1.717919e+01   1.733331e+01
   5.354076e+01   9.334735e+01
   4.209275e+01   1.124125e+02
  -4.754789e+01   4.308201e+01
  -1.416784e+02  -4.493532e+01
  -1.332451e+02  -7.537456e+01
  -1.656027e+01  -5.083759e+01
   9.260505e+01  -2.113404e+01
   9.168594e+01  -6.121628e+00
   1.012290e+01   8.720570e+00
  -4.119251e+01   2.332425e+01
  -1.510225e+01   1.819283e+01
   2.195678e+01  -2.607786e+00
  -6.629314e+00  -1.081614e+01
  -7.738076e+01  -6.916344e+00
  -9.268619e+01  -2.860045e+01
  -3.346309e+00  -8.488385e+01
   1.287255e+02  -1.146023e+02
   1.942418e+02  -5.253640e+01
   1.430371e+02   7.619832e+01
   2.034972e+01   1.679848e+02
  -8.566194e+01   1.505688e+02
  -1.177812e+02   5.604189e+01
  -8.113324e+01  -2.406827e+01
  -2.448516e+01  -3.681420e+01
   3.350303e+00  -9.273262e+00
  -8.986725e+00  -4.480928e+00
  -3.046529e+01  -4.685061e+01
  -1.934812e+01  -9.170803e+01
   3.195629e+01  -7.126085e+01
   8.181166e+01   2.349745e+01
   7.485593e+01   1.159344e+02
  -5.478750e-01   1.161786e+02
  -8.751076e+01   1.985570e+01
  -1.048754e+02  -8.385051e+01
  -2.905626e+01  -1.087572e+02
   7.185109e+01  -5.425718e+01
   1.011520e+02   1.590472e+01
   3.843109e+01   5.234680e+01
  -3.513540e+01   5.047398e+01
  -3.118815e+01   2.719059e+01
   3.737318e+01   1.130681e+00
   7.204273e+01  -3.675839e+00
   1.344044e+01   2.721122e+01
  -8.406006e+01   6.597822e+01
  -1.191649e+02   5.674656e+01
  -6.320450e+01  -1.451438e+01
   1.956939e+01  -8.489971e+01
   5.596624e+01  -7.952449e+01
   3.737811e+01  -4.187354e+00
   1.082229e-01   5.770865e+01
  -2.639098e+01   4.368718e+01
  -3.553368e+01  -1.876190e+01
  -2.512263e+01  -5.487988e+01
   3.511853e+00  -3.290761e+01
   3.286828e+01   9.642779e+00
   3.904993e+01   2.272204e+01
   2.094569e+01   2.611528e+00
   3.678232e-01  -1.267905e+01
  -7.265414e+00   4.684530e+00
  -1.022275e+01   3.802804e+01
  -2.206372e+01   4.400616e+01
  -3.497253e+01   3.589972e+00
  -2.753866e+01  -5.055334e+01
   7.532512e+00  -6.357417e+01
   4.804684e+01  -1.784277e+01
   5.591271e+01   4.493157e+01
   1.184770e+01   6.624543e+01
  -5.700202e+01   3.183336e+01
  -8.957013e+01  -2.031865e+01
  -4.812895e+01  -4.657998e+01
   3.124842e+01  -3.873934e+01
   6.696006e+01  -1.759158e+01
   2.359177e+01  -3.304056e+00
  -4.043700e+01  -4.043289e+00
  -3.968926e+01  -1.860106e+01
   3.315362e+01  -3.230128e+01
   9.583740e+01  -1.824694e+01
