
 $NMID
 id='ANONYMOUS ', fmtdat='(2E16.6)'
 volume=1.0
 tramp=1.0
 $END
  -3.475683e+03  -2.555194e+02
  -1.939611e+03  -1.730542e+03
  -1.383857e+01  -1.950009e+03
   1.316153e+03  -9.043431e+02
   7.381398e+02  -8.352297e+01
  -1.221648e+02   2.508397e+02
  -4.552456e+02  -1.039828e+02
  -1.377227e+02  -5.959270e+02
   3.904979e+02  -5.316703e+02
   6.676230e+02  -2.902233e+01
   3.726149e+02   5.019273e+02
   1.262323e+01   6.338457e+02
  -2.662981e+02   1.384315e+02
  -2.113167e+02  -3.823190e+02
   1.115693e+02  -4.963404e+02
   3.899221e+02  -5.740021e+01
   2.260740e+02   4.868994e+02
  -1.639887e+02   5.582989e+02
  -4.409141e+02   1.990619e+02
  -4.030275e+02  -1.516402e+02
  -1.056969e+02  -3.505993e+02
   1.670879e+02  -1.868921e+02
   5.076435e+01  -5.573162e+01
  -2.166302e+02  -9.318037e+01
  -3.332620e+02  -2.789285e+02
  -1.480909e+01  -3.696632e+02
   4.865569e+02  -1.715071e+02
   6.391312e+02   1.581116e+02
   2.560387e+02   3.607887e+02
  -3.514809e+02   2.334779e+02
  -5.126267e+02  -1.330018e+02
  -1.852122e+02  -3.317462e+02
   2.747696e+02  -3.650372e+02
   4.479197e+02  -1.222993e+02
   3.064982e+02   1.536435e+02
   8.459561e+01   3.291811e+02
  -3.959362e+01   1.876908e+02
   2.806249e+01  -1.200899e+02
   1.749972e+02  -2.071210e+02
   2.223406e+02   1.115110e+02
   4.435138e+01   5.049287e+02
  -2.344827e+02   4.682456e+02
  -3.250672e+02   7.622617e+00
  -1.433587e+02  -3.185212e+02
   1.395862e+02  -1.766862e+02
   1.974882e+02   2.528341e+02
  -7.190075e+01   3.781301e+02
  -4.072480e+02   7.170967e+01
  -4.737232e+02  -3.295400e+02
  -1.774364e+02  -4.540196e+02
   2.692998e+02  -2.615618e+02
   5.001476e+02   3.713071e+01
   3.308896e+02   2.239242e+02
  -4.962427e+01   2.220645e+02
  -2.774423e+02   8.451236e+01
  -2.001959e+02  -2.865428e+01
  -8.730465e+00  -2.115631e+01
   2.986051e+01   4.863251e+01
  -1.019768e+02   4.659679e+01
  -1.961036e+02  -6.064669e+01
  -9.634940e+01  -1.795445e+02
   1.283141e+02  -2.114380e+02
   2.827950e+02  -1.245469e+02
   2.376414e+02   6.668707e+01
   1.201532e+01   2.840892e+02
  -2.450889e+02   3.659213e+02
  -3.547443e+02   1.902122e+02
  -2.522804e+02  -1.422382e+02
  -6.079616e+01  -3.576671e+02
   3.726114e+01  -3.083461e+02
   1.223703e+01  -1.393816e+02
  -8.757966e-01  -7.760782e+01
   9.558747e+01  -1.268334e+02
   2.274571e+02  -9.919030e+01
   2.482078e+02   7.990063e+01
   1.169355e+02   2.455007e+02
  -7.535749e+01   2.005546e+02
  -1.941039e+02  -3.117745e+01
  -1.507329e+02  -2.422189e+02
   4.206549e+01  -2.541134e+02
   2.501205e+02  -6.788097e+01
   3.079388e+02   1.618078e+02
   1.656655e+02   2.803857e+02
  -4.123237e+01   2.502234e+02
  -1.431474e+02   1.457052e+02
  -1.224283e+02   8.459474e+01
  -1.404400e+02   8.138137e+01
  -2.697718e+02   5.262148e+01
  -3.914528e+02  -7.005896e+01
  -3.091471e+02  -2.615985e+02
  -1.485950e+00  -4.045445e+02
   3.233075e+02  -3.871963e+02
   4.347023e+02  -1.920280e+02
   2.791234e+02   7.684340e+01
   2.682721e+01   2.299675e+02
  -8.812070e+01   1.831154e+02
  -1.489991e+01   2.561762e+01
   1.242302e+02  -4.684877e+01
   1.389640e+02   3.714866e+01
   9.110325e+00   1.407213e+02
  -1.249351e+02   1.020326e+02
  -1.157506e+02  -5.301595e+01
   2.567977e+01  -1.291430e+02
   1.560398e+02  -8.041449e+00
   1.483292e+02   2.078876e+02
  -6.162535e+00   3.096111e+02
  -2.101304e+02   1.982438e+02
  -3.282193e+02  -3.814446e+01
  -2.734817e+02  -2.278742e+02
  -7.296600e+01  -2.544266e+02
   1.151637e+02  -1.383132e+02
   1.459128e+02  -9.862132e+00
   3.416513e+01   1.391095e+01
  -5.498553e+01  -5.801874e+01
  -4.757480e+00  -1.113686e+02
   1.149327e+02  -6.806790e+01
   1.430165e+02   2.355917e+01
   3.445576e+01   5.561507e+01
  -7.821246e+01  -5.011461e+00
  -4.338920e+01  -8.364565e+01
   1.312145e+02  -8.943324e+01
   2.815635e+02   3.778363e+00
   2.491054e+02   1.461948e+02
   3.771214e+01   2.484901e+02
  -1.877525e+02   2.338826e+02
  -2.522508e+02   1.021100e+02
  -1.314887e+02  -4.432547e+01
   2.917935e+01  -8.148302e+01
   6.492609e+01   1.685342e+00
  -4.582518e+01   8.222007e+01
  -1.741389e+02   4.247490e+01
  -1.826766e+02  -9.002712e+01
  -6.096634e+01  -1.768338e+02
   7.976769e+01  -1.337996e+02
   1.226895e+02  -2.086966e+01
   5.095854e+01   3.694367e+01
  -4.014203e+01  -1.144939e+01
  -3.576136e+01  -9.772691e+01
   8.088317e+01  -1.144439e+02
   1.966720e+02  -2.093857e+01
   1.768734e+02   1.189504e+02
   1.628179e+01   1.946051e+02
  -1.436772e+02   1.457703e+02
  -1.641146e+02   1.638163e+01
  -5.401924e+01  -8.708074e+01
   5.630192e+01  -9.417475e+01
   6.773510e+01  -2.942203e+01
   5.334392e+00   2.435278e+01
  -3.493911e+01   1.613137e+01
   1.117647e+00  -1.864867e+01
   7.513252e+01  -7.500357e+00
   1.017614e+02   7.336194e+01
   2.418057e+01   1.584669e+02
  -1.212412e+02   1.493327e+02
  -2.222599e+02   2.094581e+01
  -1.884226e+02  -1.413726e+02
  -4.239180e+01  -2.132566e+02
   9.198082e+01  -1.509495e+02
   1.216099e+02  -3.136419e+01
   7.216245e+01   4.118116e+01
   3.213625e+01   2.683753e+01
   5.023093e+01  -1.493721e+01
   7.833270e+01  -1.162847e+01
   5.379281e+01   4.683124e+01
  -2.989640e+01   9.745260e+01
  -1.068327e+02   6.966987e+01
  -9.997643e+01  -3.243935e+01
   8.948707e+00  -1.187937e+02
   1.479057e+02  -9.138529e+01
   1.967887e+02   5.144031e+01
   8.980169e+01   1.951261e+02
  -1.087537e+02   2.140218e+02
  -2.513080e+02   8.837518e+01
  -2.336404e+02  -7.497387e+01
  -9.791871e+01  -1.553965e+02
   3.416882e+01  -1.320303e+02
   8.109308e+01  -7.916491e+01
   6.333516e+01  -6.664480e+01
   5.000911e+01  -8.785085e+01
   7.809499e+01  -7.654746e+01
   1.200734e+02   1.063705e+01
   1.165154e+02   1.360205e+02
   3.610930e+01   2.066426e+02
  -8.278010e+01   1.580574e+02
  -1.548924e+02   1.838835e+01
  -1.217059e+02  -1.109585e+02
  -1.606127e+01  -1.428626e+02
   6.531015e+01  -7.783628e+01
   5.928277e+01   1.025661e+01
   6.246758e-01   5.136296e+01
  -2.226174e+01   3.751004e+01
   2.486129e+01   1.148490e+01
   7.797684e+01   1.162801e+01
   4.927142e+01   3.364425e+01
  -6.436552e+01   4.163366e+01
  -1.620385e+02   8.141840e+00
  -1.398299e+02  -5.231542e+01
  -5.142568e+00  -9.227614e+01
   1.237006e+02  -7.416121e+01
   1.375607e+02  -9.905472e+00
   4.360392e+01   4.489529e+01
  -5.508134e+01   4.141236e+01
  -7.349851e+01  -1.422360e+01
  -1.980308e+01  -6.571462e+01
   4.046337e+01  -6.070893e+01
   6.305391e+01  -5.222878e+00
   5.541758e+01   4.285616e+01
   4.743821e+01   3.802834e+01
   5.362079e+01   1.518584e+00
   6.165312e+01   5.031286e-01
   4.350180e+01   6.634191e+01
  -2.133746e+01   1.439177e+02
  -1.141970e+02   1.432645e+02
  -1.691400e+02   4.021415e+01
  -1.260964e+02  -8.474093e+01
  -6.551202e+00  -1.279751e+02
   8.480495e+01  -7.035993e+01
   5.872880e+01   9.711393e+00
  -5.531679e+01   2.536663e+01
  -1.299202e+02  -3.252552e+01
  -7.346534e+01  -9.998628e+01
   7.260893e+01  -1.099873e+02
   1.762560e+02  -5.085573e+01
   1.503634e+02   3.164380e+01
   3.422417e+01   7.773395e+01
  -5.644372e+01   5.784133e+01
  -4.515962e+01   1.488777e-01
   3.616524e+01  -2.881911e+01
   8.756019e+01   1.704832e+01
   4.332633e+01   1.068063e+02
  -6.547426e+01   1.474020e+02
  -1.432669e+02   7.183243e+01
  -1.233006e+02  -7.807555e+01
  -2.576393e+01  -1.767833e+02
   6.975799e+01  -1.351283e+02
   9.871581e+01   4.389174e+00
   5.753382e+01   1.099137e+02
  -8.087386e+00   9.850000e+01
  -4.782152e+01   1.686329e+01
  -4.309598e+01  -2.983093e+01
  -1.556061e+01  -7.679994e+00
  -5.926694e+00   1.795458e+01
  -3.123470e+01  -1.583358e+01
  -5.862427e+01  -8.085092e+01
  -3.368479e+01  -9.847699e+01
   5.064096e+01  -4.341816e+01
   1.269146e+02   2.913391e+01
   1.159085e+02   5.951055e+01
   1.926446e+01   4.710047e+01
  -7.298318e+01   2.541863e+01
  -7.970763e+01   8.987617e+00
  -1.683393e+01  -8.396111e+00
   3.090969e+01  -2.076861e+01
   1.793812e+01  -1.412031e+01
  -1.302006e+01   2.953049e+00
   3.159628e+00   5.227210e+00
   6.161834e+01  -3.175267e+00
   8.685379e+01   1.559576e+01
   2.332757e+01   7.326221e+01
  -9.440005e+01   1.146034e+02
  -1.709268e+02   7.147874e+01
  -1.434662e+02  -4.652134e+01
  -3.670357e+01  -1.464833e+02
   6.707829e+01  -1.477036e+02
   1.036076e+02  -6.528264e+01
   7.299720e+01   1.535175e+01
   2.352103e+01   3.384797e+01
   1.358691e+00   9.775350e+00
   1.361279e+01   4.162491e+00
   3.154814e+01   4.186387e+01
   2.129218e+01   8.222690e+01
  -2.365703e+01   6.647478e+01
  -7.198407e+01  -1.175547e+01
  -7.596944e+01  -9.115004e+01
  -1.559102e+01  -1.008768e+02
   6.892613e+01  -3.150608e+01
   1.009083e+02   5.712125e+01
   4.255111e+01   9.526123e+01
  -5.571757e+01   6.405757e+01
  -9.757000e+01  -1.375098e+00
  -4.732309e+01  -5.184059e+01
   2.730224e+01  -5.985836e+01
   3.586736e+01  -2.977993e+01
  -2.362967e+01   7.180821e+00
  -6.345034e+01   1.256737e+01
  -1.909681e+01  -2.421820e+01
   6.947512e+01  -6.603821e+01
   1.098601e+02  -5.734542e+01
   6.620747e+01   1.036249e+01
  -8.806921e+00   7.813323e+01
  -4.830145e+01   7.879052e+01
  -3.788187e+01   1.354058e+01
  -6.478011e+00  -4.745069e+01
   2.042592e+01  -4.427070e+01
   3.453522e+01   8.922089e+00
   2.946418e+01   4.838137e+01
   2.010878e+00   3.636815e+01
  -3.095561e+01  -2.474097e+00
  -4.054139e+01  -1.977646e+01
  -1.975314e+01  -1.970578e+00
   4.664763e+00   1.849926e+01
   6.860942e+00   6.875564e+00
  -5.374190e+00  -2.948825e+01
  -1.827957e+00  -4.851822e+01
   2.361109e+01  -2.179617e+01
   3.967445e+01   2.956587e+01
   1.488624e+01   5.456563e+01
  -3.628452e+01   2.703286e+01
  -5.993721e+01  -2.598507e+01
  -2.119220e+01  -5.518672e+01
   5.088372e+01  -3.832846e+01
   8.689666e+01   4.011570e+00
   4.951247e+01   3.700628e+01
  -2.317721e+01   4.405166e+01
  -5.754348e+01   2.967635e+01
  -2.520276e+01   8.339711e+00
   2.657114e+01  -3.317299e+00
   3.140087e+01   5.705650e+00
  -2.007077e+01   2.533254e+01
  -7.142526e+01   2.307854e+01
