
 $NMID
 id='ANONYMOUS ', fmtdat='(2E16.6)'
 volume=1.0
 tramp=1.0
 $END
  -4.015806e+03   1.350588e+02
  -2.623817e+03  -2.459527e+03
   8.430949e+02  -2.675172e+03
   1.969688e+03  -8.535926e+02
   9.480550e+02   4.323499e+02
  -5.545577e+02   5.712028e+02
  -8.042624e+02  -3.636135e+02
  -1.060306e+02  -1.132898e+03
   7.865647e+02  -7.179075e+02
   9.225631e+02   1.264121e+02
   4.659663e+02   9.075062e+02
  -2.749798e+02   9.078098e+02
  -6.173991e+02   1.093153e+02
  -2.984613e+02  -7.059403e+02
   2.839068e+02  -7.566619e+02
   6.130404e+02  -2.940591e+00
   3.152131e+02   7.044824e+02
  -3.169932e+02   6.406667e+02
  -6.566001e+02   8.053488e+01
  -3.972820e+02  -3.570284e+02
   1.495846e+01  -4.344867e+02
   2.655829e+02  -2.393965e+02
   1.849549e+02  -4.658335e+01
  -1.296212e+02   6.058285e+01
  -3.997022e+02  -1.530787e+02
  -1.455990e+02  -4.278535e+02
   4.885322e+02  -3.702696e+02
   8.530195e+02   1.099963e+02
   4.138945e+02   5.509156e+02
  -3.939710e+02   4.911078e+02
  -7.393140e+02  -5.116114e+01
  -3.383980e+02  -4.653854e+02
   2.653869e+02  -5.111125e+02
   5.462319e+02  -1.844677e+02
   4.243205e+02   2.267191e+02
   7.804893e+01   4.684477e+02
  -1.758446e+02   2.684861e+02
  -1.540249e+02  -2.014222e+02
   1.726982e+02  -3.870615e+02
   4.114953e+02   5.601842e+01
   2.017976e+02   6.518126e+02
  -3.328366e+02   6.478323e+02
  -5.529439e+02  -2.475145e+01
  -1.931280e+02  -4.954834e+02
   3.018273e+02  -2.390143e+02
   3.258689e+02   3.599439e+02
  -1.282916e+02   5.266706e+02
  -5.738684e+02   8.128106e+01
  -5.723041e+02  -4.491743e+02
  -1.394563e+02  -5.944489e+02
   3.948267e+02  -3.244938e+02
   6.222801e+02   1.045956e+02
   3.616116e+02   3.833943e+02
  -1.523404e+02   3.319072e+02
  -4.274848e+02   3.405697e+01
  -2.312669e+02  -1.793330e+02
   1.109284e+02  -7.296572e+01
   1.238069e+02   1.641474e+02
  -1.818832e+02   1.673872e+02
  -3.535261e+02  -9.910325e+01
  -1.355763e+02  -3.105825e+02
   2.213690e+02  -2.552227e+02
   3.478343e+02  -5.826937e+01
   1.934532e+02   1.037494e+02
  -5.114554e+01   2.299154e+02
  -2.463605e+02   3.126980e+02
  -3.405186e+02   2.035873e+02
  -2.782326e+02  -1.329506e+02
  -7.539175e+01  -4.235746e+02
   1.025877e+02  -3.900380e+02
   1.143631e+02  -1.387099e+02
   4.239118e+01  -4.424352e+00
   6.845976e+01  -6.978977e+01
   2.000709e+02  -9.737838e+01
   2.592848e+02   7.038502e+01
   1.354773e+02   2.663172e+02
  -7.991771e+01   2.452501e+02
  -2.189544e+02   2.326139e+00
  -1.838424e+02  -2.483380e+02
   2.187532e+01  -2.983920e+02
   2.712468e+02  -1.074836e+02
   3.544124e+02   1.853291e+02
   1.708424e+02   3.630177e+02
  -1.096321e+02   3.033261e+02
  -2.277356e+02   1.138636e+02
  -1.477376e+02   6.812767e+00
  -1.067204e+02   3.606321e+01
  -2.481848e+02   5.201814e+01
  -4.133814e+02  -8.228694e+01
  -3.248659e+02  -3.057218e+02
   2.862335e+01  -4.451457e+02
   3.868711e+02  -4.017154e+02
   4.955165e+02  -1.857094e+02
   3.256786e+02   1.020722e+02
   3.914653e+01   2.920012e+02
  -1.289491e+02   2.448412e+02
  -7.109500e+01   2.852184e+01
   1.161460e+02  -9.919330e+01
   1.879778e+02   1.288558e+01
   3.996062e+01   1.937885e+02
  -1.604748e+02   1.616949e+02
  -1.674151e+02  -6.436440e+01
   2.470808e+01  -1.856196e+02
   1.882381e+02  -1.989032e+01
   1.482802e+02   2.549815e+02
  -4.433036e+01   3.477143e+02
  -2.390994e+02   1.813138e+02
  -3.275537e+02  -8.122883e+01
  -2.731496e+02  -2.564249e+02
  -8.626080e+01  -2.708668e+02
   1.212301e+02  -1.557201e+02
   1.809132e+02  -1.316620e+01
   6.108703e+01   3.181321e+01
  -6.478012e+01  -4.593967e+01
  -2.389537e+01  -1.291196e+02
   1.250138e+02  -9.517040e+01
   1.742809e+02   1.916159e+01
   5.466782e+01   7.211276e+01
  -7.654957e+01   1.001295e+01
  -4.548543e+01  -7.615941e+01
   1.322888e+02  -8.040833e+01
   2.833563e+02   1.222704e+01
   2.566763e+02   1.488934e+02
   4.973930e+01   2.560777e+02
  -1.923683e+02   2.561399e+02
  -2.856540e+02   1.217778e+02
  -1.681529e+02  -5.140312e+01
   2.492736e+01  -1.061784e+02
   8.686259e+01  -7.399170e+00
  -3.816274e+01   9.536907e+01
  -1.963610e+02   4.881049e+01
  -2.078478e+02  -1.096016e+02
  -6.298747e+01  -2.069749e+02
   9.592040e+01  -1.522663e+02
   1.405474e+02  -2.598107e+01
   6.782964e+01   3.718715e+01
  -2.378289e+01  -6.018188e+00
  -2.651260e+01  -8.809826e+01
   8.258130e+01  -1.076428e+02
   2.016174e+02  -1.668799e+01
   1.864319e+02   1.335326e+02
   1.234947e+01   2.201677e+02
  -1.709760e+02   1.602450e+02
  -1.943108e+02   3.414947e+00
  -6.138967e+01  -1.133397e+02
   6.921369e+01  -1.095310e+02
   8.160403e+01  -3.147881e+01
   1.594777e+01   2.290100e+01
  -2.099945e+01   1.706076e+01
   1.335363e+01  -5.248503e+00
   7.189859e+01   1.505643e+01
   8.339305e+01   8.908638e+01
   4.948811e+00   1.603622e+02
  -1.344573e+02   1.455365e+02
  -2.350599e+02   1.285087e+01
  -1.962229e+02  -1.616842e+02
  -3.443247e+01  -2.415389e+02
   1.154928e+02  -1.674936e+02
   1.399959e+02  -2.370887e+01
   7.519107e+01   5.859327e+01
   3.209165e+01   3.990235e+01
   5.543397e+01  -5.962000e+00
   7.875529e+01  -1.841920e+00
   3.826443e+01   5.106238e+01
  -4.784581e+01   8.544357e+01
  -1.067997e+02   5.202126e+01
  -8.416171e+01  -3.801707e+01
   2.151956e+01  -1.092389e+02
   1.499597e+02  -8.017538e+01
   1.979347e+02   6.046355e+01
   9.011639e+01   2.082818e+02
  -1.191718e+02   2.284602e+02
  -2.755482e+02   8.956659e+01
  -2.598235e+02  -9.417829e+01
  -1.084893e+02  -1.842484e+02
   4.001290e+01  -1.527237e+02
   9.762073e+01  -8.845912e+01
   8.539278e+01  -7.211617e+01
   7.383482e+01  -9.099648e+01
   9.753737e+01  -7.111782e+01
   1.286988e+02   2.709796e+01
   1.137389e+02   1.583642e+02
   2.445140e+01   2.270115e+02
  -1.020594e+02   1.692682e+02
  -1.746021e+02   1.521936e+01
  -1.310656e+02  -1.257051e+02
  -1.233874e+01  -1.587202e+02
   7.217826e+01  -8.657204e+01
   6.071097e+01   5.573919e+00
   2.151060e+00   4.537774e+01
  -1.389714e+01   3.455969e+01
   3.367495e+01   1.974931e+01
   7.701282e+01   2.731927e+01
   4.165003e+01   4.165412e+01
  -6.683627e+01   3.412400e+01
  -1.587994e+02  -5.237945e+00
  -1.409691e+02  -5.790112e+01
  -1.190326e+01  -8.831087e+01
   1.222009e+02  -6.893240e+01
   1.439876e+02  -9.595687e+00
   4.656870e+01   4.105818e+01
  -6.076186e+01   3.590272e+01
  -7.533265e+01  -2.038954e+01
  -7.107658e+00  -7.028170e+01
   5.621150e+01  -6.088490e+01
   6.425998e+01  -2.964082e-01
   4.541426e+01   5.061800e+01
   4.485108e+01   4.434670e+01
   6.364594e+01   4.601944e+00
   6.946831e+01   2.760687e+00
   3.703672e+01   7.089630e+01
  -3.552918e+01   1.487533e+02
  -1.222521e+02   1.415401e+02
  -1.681685e+02   3.030677e+01
  -1.229308e+02  -9.365225e+01
  -5.118306e+00  -1.253487e+02
   8.516620e+01  -5.843777e+01
   5.740186e+01   1.556950e+01
  -5.955386e+01   1.563179e+01
  -1.343330e+02  -5.003605e+01
  -7.139376e+01  -1.104667e+02
   8.327200e+01  -1.091565e+02
   1.909925e+02  -4.444952e+01
   1.608709e+02   3.917769e+01
   3.528096e+01   8.658991e+01
  -6.219791e+01   6.646787e+01
  -4.856757e+01   4.944297e+00
   4.077013e+01  -2.569709e+01
   9.168058e+01   2.539998e+01
   3.106174e+01   1.198784e+02
  -9.544325e+01   1.534871e+02
  -1.697904e+02   6.130830e+01
  -1.245734e+02  -1.007943e+02
  -5.214519e+00  -1.973007e+02
   8.873316e+01  -1.430360e+02
   1.024066e+02   8.948540e+00
   5.497492e+01   1.202086e+02
  -6.131474e+00   1.069370e+02
  -4.635113e+01   1.866573e+01
  -5.059176e+01  -3.299434e+01
  -2.605477e+01  -9.597366e+00
  -5.571903e+00   1.923019e+01
  -2.072296e+01  -1.751282e+01
  -5.239043e+01  -9.098581e+01
  -3.756243e+01  -1.099245e+02
   4.894016e+01  -4.277152e+01
   1.371487e+02   4.373738e+01
   1.277404e+02   7.468395e+01
   1.638596e+01   5.075080e+01
  -8.837269e+01   2.025647e+01
  -8.877236e+01   4.829442e+00
  -1.104227e+01  -8.426188e+00
   3.928584e+01  -2.103354e+01
   1.553976e+01  -1.655547e+01
  -2.038329e+01   1.729329e+00
   5.707150e+00   9.073193e+00
   7.404801e+01   6.181975e+00
   9.122595e+01   2.805037e+01
   6.865175e+00   8.303030e+01
  -1.226099e+02   1.129547e+02
  -1.903545e+02   5.439243e+01
  -1.435998e+02  -7.101315e+01
  -2.313709e+01  -1.634280e+02
   8.342084e+01  -1.499158e+02
   1.161603e+02  -5.821177e+01
   7.950607e+01   2.194458e+01
   2.383011e+01   3.637738e+01
  -2.002331e+00   1.015746e+01
   1.140052e+01   5.215598e+00
   3.124586e+01   4.593020e+01
   1.852777e+01   8.922701e+01
  -3.178917e+01   6.983685e+01
  -7.945683e+01  -2.112887e+01
  -7.283599e+01  -1.109914e+02
  -7.405728e-01  -1.134309e+02
   8.388277e+01  -2.227137e+01
   1.031911e+02   7.948853e+01
   3.146300e+01   1.074208e+02
  -6.819235e+01   5.648528e+01
  -1.001004e+02  -1.413783e+01
  -4.029830e+01  -5.283079e+01
   3.351319e+01  -5.165421e+01
   3.255013e+01  -2.718346e+01
  -3.382060e+01  -5.543412e-01
  -6.953933e+01   3.693057e+00
  -1.350487e+01  -2.659723e+01
   8.265254e+01  -6.366770e+01
   1.190886e+02  -5.427652e+01
   6.439284e+01   1.518846e+01
  -1.869614e+01   8.443406e+01
  -5.734586e+01   8.027677e+01
  -4.004406e+01   6.473915e+00
  -2.419524e+00  -5.674349e+01
   2.592274e+01  -4.552467e+01
   3.655125e+01   1.592257e+01
   2.660572e+01   5.400504e+01
  -2.587418e+00   3.412979e+01
  -3.230202e+01  -8.548074e+00
  -3.890256e+01  -2.268404e+01
  -2.006545e+01  -2.110417e+00
   7.255292e-01   1.580922e+01
   6.607637e+00   6.533760e-02
   6.016657e+00  -3.520035e+01
   1.531934e+01  -4.572423e+01
   3.070596e+01  -9.116625e+00
   2.883278e+01   4.456952e+01
  -2.761177e+00   6.076753e+01
  -4.431721e+01   1.937664e+01
  -5.553320e+01  -4.094273e+01
  -1.358460e+01  -6.359490e+01
   5.527160e+01  -3.272633e+01
   8.881435e+01   1.701820e+01
   4.928401e+01   4.440556e+01
  -2.825970e+01   4.002516e+01
  -6.477061e+01   2.145467e+01
  -2.551628e+01   6.384517e+00
   3.498035e+01   3.855066e+00
   3.580551e+01   1.533988e+01
  -3.100191e+01   2.869092e+01
  -9.011092e+01   1.682076e+01
