
 $NMID
 id='ANONYMOUS ', fmtdat='(2E16.6)'
 volume=1.0
 tramp=1.0
 $END
   4.193227e+03  -1.488132e+01
   2.354670e+03   2.556201e+03
  -3.221959e+02   2.608562e+03
  -1.896841e+03   9.461127e+02
  -9.905949e+02  -5.079341e+02
   6.230412e+02  -7.656185e+02
   7.958239e+02   2.976825e+02
   3.742560e+01   8.613692e+02
  -7.581540e+02   7.738248e+02
  -9.274958e+02  -7.553860e+01
  -4.423936e+02  -7.852137e+02
   1.918364e+02  -7.936847e+02
   6.003101e+02  -1.972223e+02
   4.016333e+02   5.815741e+02
  -2.342257e+02   7.084362e+02
  -5.630433e+02  -1.140048e+01
  -3.109614e+02  -6.132905e+02
   2.209493e+02  -6.202750e+02
   5.689136e+02  -1.579185e+02
   4.300253e+02   3.337370e+02
   4.078296e+01   3.956897e+02
  -2.144771e+02   2.892986e+02
  -1.930208e+02   2.101672e+01
   1.231893e+02  -4.313634e+01
   3.455938e+02   1.548974e+02
   1.534974e+02   3.704941e+02
  -4.247812e+02   3.657564e+02
  -7.458325e+02  -8.227695e+01
  -3.648338e+02  -4.738502e+02
   3.415926e+02  -4.079361e+02
   6.747544e+02   1.030668e+01
   3.118100e+02   4.653084e+02
  -2.356330e+02   4.791120e+02
  -5.054228e+02   2.349210e+02
  -4.039968e+02  -1.803498e+02
  -1.139614e+02  -4.216629e+02
   1.366435e+02  -2.655035e+02
   1.383956e+02   1.394725e+02
  -1.254319e+02   3.661124e+02
  -3.610011e+02  -2.051030e+01
  -1.836553e+02  -5.736481e+02
   2.763524e+02  -5.930454e+02
   5.188872e+02  -1.904645e+01
   2.217592e+02   4.662022e+02
  -2.462018e+02   2.600501e+02
  -3.189477e+02  -2.795334e+02
   6.756450e+01  -4.637202e+02
   4.933608e+02  -9.935108e+01
   5.288622e+02   3.749656e+02
   1.442678e+02   5.135853e+02
  -3.365552e+02   2.955233e+02
  -5.620839e+02  -6.893101e+01
  -3.554799e+02  -3.290264e+02
   1.107104e+02  -3.186853e+02
   3.901956e+02  -7.489230e+01
   2.408751e+02   1.359364e+02
  -7.834758e+01   8.493473e+01
  -1.279832e+02  -1.180242e+02
   1.363017e+02  -1.565447e+02
   3.198171e+02   5.564524e+01
   1.503502e+02   2.645769e+02
  -1.867418e+02   2.494170e+02
  -3.380278e+02   7.546830e+01
  -2.087259e+02  -9.702638e+01
   3.522766e+01  -2.303942e+02
   2.318122e+02  -3.025193e+02
   3.171875e+02  -1.953313e+02
   2.620883e+02   1.128181e+02
   9.083693e+01   3.813854e+02
  -6.965355e+01   3.647013e+02
  -1.019553e+02   1.487588e+02
  -5.537230e+01   2.523588e+01
  -7.709918e+01   7.470527e+01
  -1.860015e+02   9.096955e+01
  -2.404625e+02  -6.434267e+01
  -1.346693e+02  -2.441177e+02
   6.691051e+01  -2.287359e+02
   2.070137e+02  -6.180253e+00
   1.793508e+02   2.268518e+02
  -1.323006e+01   2.768439e+02
  -2.525511e+02   1.122614e+02
  -3.457581e+02  -1.537564e+02
  -1.867929e+02  -3.311423e+02
   8.466306e+01  -2.965001e+02
   2.127854e+02  -1.326098e+02
   1.545783e+02  -1.946075e+01
   1.054730e+02  -3.614937e+01
   2.320081e+02  -5.435461e+01
   3.904802e+02   6.419464e+01
   3.196420e+02   2.759838e+02
  -6.696032e+00   4.279889e+02
  -3.548717e+02   3.961098e+02
  -4.646037e+02   1.887422e+02
  -3.052916e+02  -8.799383e+01
  -4.779893e+01  -2.741483e+02
   1.095847e+02  -2.328083e+02
   5.624851e+01  -3.408729e+01
  -9.933613e+01   9.187557e+01
  -1.668279e+02  -2.577378e+00
  -4.449919e+01  -1.706583e+02
   1.317333e+02  -1.565016e+02
   1.477098e+02   4.637550e+01
  -1.413943e+01   1.676191e+02
  -1.739804e+02   2.641974e+01
  -1.557224e+02  -2.351381e+02
   2.305766e+01  -3.349733e+02
   2.208998e+02  -1.881182e+02
   3.198701e+02   5.963202e+01
   2.652718e+02   2.268064e+02
   8.391873e+01   2.439215e+02
  -1.074612e+02   1.463217e+02
  -1.590475e+02   2.441894e+01
  -4.996004e+01  -1.879293e+01
   6.063780e+01   4.219486e+01
   2.088637e+01   1.122908e+02
  -1.157011e+02   8.656898e+01
  -1.617975e+02  -1.112436e+01
  -5.142146e+01  -6.052713e+01
   7.333425e+01  -6.778820e+00
   4.691778e+01   7.338810e+01
  -1.221160e+02   8.025566e+01
  -2.700758e+02  -5.456187e+00
  -2.488371e+02  -1.344553e+02
  -5.477455e+01  -2.366852e+02
   1.725118e+02  -2.414886e+02
   2.612985e+02  -1.229379e+02
   1.565218e+02   3.705157e+01
  -1.826950e+01   9.516784e+01
  -7.607106e+01   1.096562e+01
   3.514057e+01  -8.607776e+01
   1.801164e+02  -5.039349e+01
   1.950578e+02   9.401144e+01
   6.420664e+01   1.894810e+02
  -8.511839e+01   1.441961e+02
  -1.302325e+02   2.747856e+01
  -6.246476e+01  -3.376293e+01
   2.619765e+01   4.805440e+00
   3.081954e+01   8.207936e+01
  -7.188599e+01   1.038545e+02
  -1.868315e+02   2.351252e+01
  -1.790070e+02  -1.151911e+02
  -2.229219e+01  -2.013860e+02
   1.483835e+02  -1.541415e+02
   1.773720e+02  -1.238283e+01
   6.176714e+01   9.900275e+01
  -5.778451e+01   9.917958e+01
  -7.102114e+01   2.752085e+01
  -1.036484e+01  -2.115778e+01
   2.279751e+01  -1.121330e+01
  -1.326998e+01   1.337575e+01
  -7.469856e+01  -7.930011e+00
  -8.625472e+01  -8.222742e+01
  -9.938300e+00  -1.533378e+02
   1.240757e+02  -1.438085e+02
   2.202470e+02  -2.212932e+01
   1.870999e+02   1.404352e+02
   4.026885e+01   2.211890e+02
  -9.845391e+01   1.602007e+02
  -1.256811e+02   2.741571e+01
  -6.624832e+01  -4.892910e+01
  -2.817914e+01  -3.230586e+01
  -5.083037e+01   1.340467e+01
  -7.935315e+01   6.271623e+00
  -4.438528e+01  -5.085510e+01
   4.149262e+01  -8.965943e+01
   1.044994e+02  -5.577671e+01
   8.912434e+01   3.689214e+01
  -1.286827e+01   1.102250e+02
  -1.375979e+02   8.277436e+01
  -1.863533e+02  -4.952395e+01
  -9.195090e+01  -1.906712e+02
   1.020332e+02  -2.124342e+02
   2.491181e+02  -8.725047e+01
   2.404654e+02   8.037263e+01
   1.030135e+02   1.629355e+02
  -3.596537e+01   1.351747e+02
  -8.790403e+01   7.894456e+01
  -7.211314e+01   6.903993e+01
  -5.956807e+01   8.960142e+01
  -8.718348e+01   7.211252e+01
  -1.254111e+02  -2.021023e+01
  -1.160521e+02  -1.461754e+02
  -2.975132e+01  -2.147871e+02
   9.393839e+01  -1.637881e+02
   1.665316e+02  -1.986733e+01
   1.283683e+02   1.155857e+02
   1.680465e+01   1.504751e+02
  -6.465071e+01   8.444041e+01
  -5.624784e+01  -3.646614e+00
  -1.567984e+00  -4.200860e+01
   1.352270e+01  -3.022057e+01
  -3.306514e+01  -1.387559e+01
  -7.665704e+01  -2.107045e+01
  -4.264344e+01  -3.757001e+01
   6.403395e+01  -3.442458e+01
   1.535382e+02   2.555603e-01
   1.343326e+02   5.125374e+01
   8.706648e+00   8.468327e+01
  -1.184433e+02   7.071426e+01
  -1.371193e+02   1.297102e+01
  -4.363868e+01  -4.077742e+01
   5.828296e+01  -3.939735e+01
   7.338030e+01   1.631467e+01
   1.029779e+01   6.787481e+01
  -5.143721e+01   5.976777e+01
  -6.316941e+01   5.048795e-02
  -4.653839e+01  -4.839728e+01
  -4.262855e+01  -3.975633e+01
  -5.604744e+01  -1.016757e-01
  -6.217948e+01   3.328018e-01
  -3.743268e+01  -6.736254e+01
   2.618065e+01  -1.442633e+02
   1.101694e+02  -1.386830e+02
   1.611355e+02  -3.330067e+01
   1.240614e+02   8.752369e+01
   1.080373e+01   1.222521e+02
  -8.054579e+01   6.170210e+01
  -5.849347e+01  -1.090041e+01
   5.313710e+01  -1.746428e+01
   1.272470e+02   4.105211e+01
   6.990322e+01   1.000937e+02
  -7.652803e+01   1.040905e+02
  -1.791934e+02   4.734923e+01
  -1.515714e+02  -3.287628e+01
  -3.295981e+01  -8.125378e+01
   5.932986e+01  -6.459117e+01
   4.699149e+01  -4.030089e+00
  -3.828921e+01   2.937179e+01
  -9.034532e+01  -1.770150e+01
  -3.796137e+01  -1.122847e+02
   8.044997e+01  -1.514672e+02
   1.568756e+02  -6.698506e+01
   1.232120e+02   8.928905e+01
   1.500141e+01   1.842427e+02
  -7.690885e+01   1.346826e+02
  -9.634425e+01  -7.925391e+00
  -5.463116e+01  -1.105637e+02
   4.963536e+00  -9.672493e+01
   4.532028e+01  -1.565097e+01
   4.837253e+01   2.950671e+01
   2.227047e+01   6.690239e+00
   2.791664e+00  -1.874043e+01
   2.082133e+01   1.642613e+01
   5.449672e+01   8.362138e+01
   4.011278e+01   1.008985e+02
  -4.528615e+01   4.209158e+01
  -1.313912e+02  -3.443663e+01
  -1.224132e+02  -6.439723e+01
  -1.622234e+01  -4.816228e+01
   8.274696e+01  -2.393913e+01
   8.269135e+01  -7.372540e+00
   9.481608e+00   9.582541e+00
  -3.719040e+01   2.173350e+01
  -1.395667e+01   1.377913e+01
   2.086138e+01  -5.233236e+00
  -3.154975e+00  -8.364665e+00
  -6.838443e+01  -1.498989e-02
  -8.804984e+01  -1.996840e+01
  -1.234901e+01  -7.746195e+01
   1.092134e+02  -1.126641e+02
   1.774333e+02  -6.015140e+01
   1.393283e+02   6.129279e+01
   2.890863e+01   1.543045e+02
  -7.335082e+01   1.453099e+02
  -1.090037e+02   5.883519e+01
  -7.789919e+01  -1.925290e+01
  -2.518393e+01  -3.473891e+01
   1.897073e+00  -1.035538e+01
  -9.093109e+00  -5.186868e+00
  -3.021530e+01  -4.354164e+01
  -2.170800e+01  -8.507500e+01
   2.646554e+01  -6.861547e+01
   7.753945e+01   1.549342e+01
   7.708381e+01   1.011198e+02
   8.181668e+00   1.078166e+02
  -7.828296e+01   2.684049e+01
  -1.023817e+02  -6.861079e+01
  -3.462094e+01  -9.992292e+01
   6.326198e+01  -5.729148e+01
   9.615879e+01   9.124367e+00
   3.940249e+01   5.026410e+01
  -3.190415e+01   5.177499e+01
  -3.193275e+01   2.584886e+01
   3.085729e+01  -3.681402e+00
   6.602240e+01  -8.108110e+00
   1.540225e+01   2.458671e+01
  -7.419765e+01   6.339904e+01
  -1.098163e+02   5.471760e+01
  -6.188533e+01  -1.343983e+01
   1.453751e+01  -8.097412e+01
   5.252928e+01  -7.752442e+01
   3.976803e+01  -7.026530e+00
   5.588961e+00   5.386227e+01
  -2.344078e+01   4.455764e+01
  -3.614318e+01  -1.333560e+01
  -2.717466e+01  -5.051737e+01
   2.274219e+00  -3.318761e+01
   3.214328e+01   7.043178e+00
   3.740313e+01   2.102730e+01
   1.784548e+01   1.377237e+00
  -2.078570e+00  -1.638723e+01
  -4.551147e+00  -1.335856e+00
  -7.780079e-01   3.424227e+01
  -1.049598e+01   4.699554e+01
  -3.031056e+01   1.303608e+01
  -3.353383e+01  -4.019179e+01
  -3.184584e+00  -5.962297e+01
   4.172825e+01  -2.278661e+01
   5.693975e+01   3.555887e+01
   1.684494e+01   6.072990e+01
  -5.185340e+01   3.502229e+01
  -8.643767e+01  -1.181695e+01
  -4.891475e+01  -4.121067e+01
   2.607912e+01  -4.087715e+01
   6.186529e+01  -2.319631e+01
   2.491025e+01  -4.832313e+00
  -3.351383e+01   1.131125e+00
  -3.649048e+01  -1.137232e+01
   2.556147e+01  -2.938260e+01
   8.318365e+01  -2.167791e+01
