
 $NMID
 id='ANONYMOUS ', fmtdat='(2E16.6)'
 volume=1.0
 tramp=1.0
 $END
   4.578391e+03   2.061740e+01
   2.899026e+03   2.592486e+03
  -6.842058e+02   2.839681e+03
  -2.164307e+03   8.142294e+02
  -1.056844e+03  -6.215437e+02
   6.836031e+02  -6.004566e+02
   9.829612e+02   4.921293e+02
   1.256782e+02   1.171111e+03
  -9.476719e+02   8.436623e+02
  -1.043767e+03  -1.587556e+02
  -4.756898e+02  -9.713876e+02
   2.685869e+02  -9.326511e+02
   5.938119e+02  -9.456984e+01
   3.166604e+02   6.774311e+02
  -2.550275e+02   8.079898e+02
  -6.298019e+02  -1.433792e+01
  -3.606952e+02  -7.731955e+02
   3.724574e+02  -7.153632e+02
   6.530541e+02  -1.640701e+02
   3.979509e+02   3.643482e+02
  -1.045591e+01   4.231958e+02
  -2.638926e+02   2.790422e+02
  -2.329281e+02   7.067514e+01
   1.106855e+02  -5.724353e+01
   4.284096e+02   1.270182e+02
   2.210934e+02   4.541275e+02
  -4.566728e+02   4.399479e+02
  -8.861530e+02  -6.590429e+01
  -4.997272e+02  -6.186520e+02
   4.230718e+02  -5.476585e+02
   8.108217e+02   3.472524e+01
   3.755511e+02   5.246836e+02
  -3.011134e+02   5.649193e+02
  -5.994642e+02   2.143955e+02
  -4.158084e+02  -2.221274e+02
  -5.429203e+01  -4.727279e+02
   2.529485e+02  -2.814153e+02
   1.933316e+02   2.492141e+02
  -2.091103e+02   4.849131e+02
  -5.331782e+02  -2.715382e+01
  -2.894972e+02  -7.635832e+02
   3.679270e+02  -7.698448e+02
   6.884667e+02   1.888329e+01
   2.692542e+02   6.349488e+02
  -3.570093e+02   3.446065e+02
  -4.259830e+02  -3.731778e+02
   1.067751e+02  -6.062279e+02
   6.211980e+02  -1.291257e+02
   6.318575e+02   4.570192e+02
   1.540001e+02   6.281081e+02
  -4.191603e+02   3.596469e+02
  -6.625985e+02  -1.049012e+02
  -3.675833e+02  -4.328256e+02
   2.081724e+02  -3.816096e+02
   5.010122e+02  -1.449390e+01
   2.423522e+02   2.578497e+02
  -1.710422e+02   1.236827e+02
  -1.793774e+02  -1.917964e+02
   1.901386e+02  -2.197823e+02
   3.893980e+02   9.316177e+01
   1.361727e+02   3.436211e+02
  -2.499422e+02   2.740397e+02
  -3.598732e+02   5.259988e+01
  -1.869138e+02  -1.053289e+02
   4.245840e+01  -2.263340e+02
   2.257706e+02  -3.263892e+02
   3.458098e+02  -2.197872e+02
   3.068942e+02   1.534113e+02
   7.710366e+01   4.713002e+02
  -1.435428e+02   4.061733e+02
  -1.481537e+02   1.060815e+02
  -2.969990e+01  -2.079681e+01
  -4.227659e+01   9.828353e+01
  -2.120660e+02   1.465896e+02
  -3.077146e+02  -6.135079e+01
  -1.748408e+02  -3.050623e+02
   7.541778e+01  -2.892351e+02
   2.402015e+02  -2.119371e+01
   2.116015e+02   2.537223e+02
  -2.838611e+00   3.131651e+02
  -2.747585e+02   1.226684e+02
  -3.756361e+02  -1.864207e+02
  -1.917135e+02  -3.860599e+02
   1.190555e+02  -3.228214e+02
   2.544986e+02  -1.074219e+02
   1.627018e+02   2.096687e+01
   9.582984e+01  -2.220952e+01
   2.357917e+02  -6.672260e+01
   4.155541e+02   6.381121e+01
   3.408933e+02   3.079534e+02
  -1.483488e+01   4.650372e+02
  -3.856112e+02   4.222674e+02
  -5.174426e+02   2.005715e+02
  -3.550255e+02  -1.076301e+02
  -5.748677e+01  -3.179406e+02
   1.430237e+02  -2.718688e+02
   9.855666e+01  -2.949001e+01
  -1.092906e+02   1.204052e+02
  -2.073044e+02  -7.482474e+00
  -5.171442e+01  -2.153130e+02
   1.755621e+02  -1.873225e+02
   1.907621e+02   7.151222e+01
  -2.437547e+01   2.123472e+02
  -2.083587e+02   3.071843e+01
  -1.620324e+02  -2.709523e+02
   4.869042e+01  -3.670520e+02
   2.463000e+02  -1.900783e+02
   3.338653e+02   7.757300e+01
   2.829115e+02   2.536306e+02
   9.849250e+01   2.766464e+02
  -1.203196e+02   1.686689e+02
  -1.909648e+02   1.961687e+01
  -6.507686e+01  -4.014576e+01
   7.569361e+01   3.766557e+01
   3.410208e+01   1.349844e+02
  -1.325217e+02   1.082638e+02
  -1.924749e+02  -1.635702e+01
  -6.445820e+01  -8.228561e+01
   8.218187e+01  -2.090900e+01
   5.641768e+01   7.269265e+01
  -1.260351e+02   8.236152e+01
  -2.852013e+02  -8.444155e+00
  -2.659932e+02  -1.479243e+02
  -5.898167e+01  -2.639266e+02
   1.944331e+02  -2.707430e+02
   3.018161e+02  -1.294478e+02
   1.833443e+02   5.953854e+01
  -2.661034e+01   1.190152e+02
  -9.927917e+01   6.319873e+00
   3.554335e+01  -1.105352e+02
   2.119319e+02  -5.881953e+01
   2.258345e+02   1.183422e+02
   6.536564e+01   2.259413e+02
  -1.087983e+02   1.645714e+02
  -1.555119e+02   2.512312e+01
  -7.431620e+01  -4.676601e+01
   2.713772e+01  -4.942699e+00
   3.537926e+01   8.296897e+01
  -7.571913e+01   1.121528e+02
  -2.038602e+02   2.493088e+01
  -1.950617e+02  -1.328605e+02
  -1.632670e+01  -2.296284e+02
   1.789932e+02  -1.681045e+02
   2.066207e+02   1.677046e+00
   6.526284e+01   1.264177e+02
  -7.629285e+01   1.167143e+02
  -9.180197e+01   2.831582e+01
  -2.095262e+01  -2.875927e+01
   2.122468e+01  -2.005861e+01
  -1.014478e+01   5.278640e+00
  -6.965935e+01  -1.296506e+01
  -8.524349e+01  -8.599124e+01
  -1.103706e+01  -1.611828e+02
   1.321280e+02  -1.540510e+02
   2.426700e+02  -2.308171e+01
   2.090880e+02   1.611510e+02
   3.805815e+01   2.528152e+02
  -1.211647e+02   1.777352e+02
  -1.464914e+02   2.343165e+01
  -7.339562e+01  -6.417452e+01
  -2.771024e+01  -4.039502e+01
  -5.495780e+01   1.090046e+01
  -7.971283e+01   5.395039e+00
  -3.793741e+01  -4.906244e+01
   4.629245e+01  -8.541371e+01
   1.003499e+02  -5.207679e+01
   7.912990e+01   3.571295e+01
  -1.896846e+01   1.081780e+02
  -1.454527e+02   8.261145e+01
  -2.002948e+02  -5.714537e+01
  -1.007615e+02  -2.124489e+02
   1.147852e+02  -2.385659e+02
   2.832843e+02  -9.624173e+01
   2.719632e+02   9.663933e+01
   1.134931e+02   1.900001e+02
  -4.363128e+01   1.554076e+02
  -1.028392e+02   8.678697e+01
  -8.714993e+01   7.113775e+01
  -7.377225e+01   9.259612e+01
  -9.933691e+01   7.393194e+01
  -1.335813e+02  -2.735862e+01
  -1.185390e+02  -1.648036e+02
  -2.505583e+01  -2.385078e+02
   1.085267e+02  -1.797468e+02
   1.871873e+02  -1.828578e+01
   1.434594e+02   1.322877e+02
   1.813795e+01   1.712853e+02
  -7.364299e+01   9.911268e+01
  -6.569217e+01   2.669996e+00
  -7.755050e+00  -4.291638e+01
   7.932355e+00  -3.675829e+01
  -3.912534e+01  -2.323285e+01
  -8.036446e+01  -2.871257e+01
  -4.266310e+01  -4.184186e+01
   6.729718e+01  -3.631515e+01
   1.613933e+02   2.927689e-01
   1.465017e+02   5.483322e+01
   1.723208e+01   9.100352e+01
  -1.220086e+02   7.467924e+01
  -1.490826e+02   1.253476e+01
  -5.054789e+01  -4.204225e+01
   6.173769e+01  -3.715731e+01
   7.774702e+01   2.064388e+01
   6.397098e+00   7.007405e+01
  -5.861744e+01   5.888541e+01
  -6.404266e+01  -1.823051e+00
  -4.278971e+01  -5.113811e+01
  -4.337610e+01  -4.403620e+01
  -6.361235e+01  -4.310534e+00
  -6.848335e+01  -1.719115e+00
  -3.489455e+01  -6.772907e+01
   3.541266e+01  -1.458664e+02
   1.185974e+02  -1.405752e+02
   1.649780e+02  -3.126594e+01
   1.226665e+02   9.197902e+01
   5.219704e+00   1.230932e+02
  -8.676159e+01   5.571833e+01
  -5.851878e+01  -1.757388e+01
   6.289207e+01  -1.546995e+01
   1.408852e+02   5.159831e+01
   7.584091e+01   1.127510e+02
  -8.601223e+01   1.125448e+02
  -1.985195e+02   4.852393e+01
  -1.674146e+02  -3.883092e+01
  -3.664304e+01  -9.208553e+01
   6.502155e+01  -7.383449e+01
   5.205607e+01  -7.438554e+00
  -3.889943e+01   2.839686e+01
  -9.082183e+01  -2.325183e+01
  -2.863167e+01  -1.223233e+02
   1.002635e+02  -1.560774e+02
   1.745194e+02  -5.772031e+01
   1.256485e+02   1.105547e+02
   1.618317e+00   2.066134e+02
  -9.506524e+01   1.468196e+02
  -1.093923e+02  -1.123650e+01
  -6.062488e+01  -1.260075e+02
   4.143914e+00  -1.127859e+02
   4.905335e+01  -2.135865e+01
   5.584542e+01   3.379307e+01
   2.875928e+01   1.094190e+01
   3.675115e+00  -2.000222e+01
   1.806344e+01   1.627771e+01
   5.390277e+01   9.289076e+01
   4.185398e+01   1.142162e+02
  -4.808369e+01   4.525955e+01
  -1.421911e+02  -4.503287e+01
  -1.337405e+02  -7.740860e+01
  -1.663759e+01  -5.202117e+01
   9.328482e+01  -2.067389e+01
   9.274318e+01  -5.295132e+00
   1.052590e+01   9.198155e+00
  -4.161635e+01   2.441601e+01
  -1.548436e+01   2.007009e+01
   2.166257e+01  -1.414780e+00
  -7.409151e+00  -1.126408e+01
  -7.874667e+01  -7.494678e+00
  -9.400676e+01  -2.775098e+01
  -4.338168e+00  -8.346980e+01
   1.275111e+02  -1.147477e+02
   1.928619e+02  -5.426688e+01
   1.425830e+02   7.517751e+01
   2.104250e+01   1.687584e+02
  -8.547647e+01   1.516050e+02
  -1.194904e+02   5.567628e+01
  -8.357109e+01  -2.534631e+01
  -2.536342e+01  -3.725363e+01
   4.077045e+00  -8.896737e+00
  -9.212646e+00  -4.557828e+00
  -3.249538e+01  -4.770198e+01
  -2.128832e+01  -9.285544e+01
   3.200148e+01  -7.249608e+01
   8.309110e+01   2.202562e+01
   7.515151e+01   1.145022e+02
  -1.328988e+00   1.154982e+02
  -8.757419e+01   2.037516e+01
  -1.037199e+02  -8.289417e+01
  -2.835529e+01  -1.083577e+02
   7.109264e+01  -5.482813e+01
   9.996980e+01   1.454043e+01
   3.837357e+01   5.086665e+01
  -3.420148e+01   5.016580e+01
  -3.071342e+01   2.821907e+01
   3.712240e+01   2.340944e+00
   7.219100e+01  -3.679374e+00
   1.439549e+01   2.623364e+01
  -8.367723e+01   6.586529e+01
  -1.204600e+02   5.819668e+01
  -6.493875e+01  -1.327875e+01
   1.853048e+01  -8.529862e+01
   5.632524e+01  -8.067124e+01
   3.780917e+01  -4.292783e+00
  -3.865196e-01   5.815071e+01
  -2.768026e+01   4.297095e+01
  -3.639847e+01  -2.080114e+01
  -2.492699e+01  -5.627778e+01
   4.341470e+00  -3.259908e+01
   3.353648e+01   1.066989e+01
   3.956145e+01   2.303786e+01
   2.081237e+01   2.404422e+00
  -8.210127e-01  -1.286337e+01
  -8.917103e+00   3.843405e+00
  -1.107364e+01   3.565969e+01
  -2.043583e+01   4.139014e+01
  -3.230197e+01   3.027250e+00
  -2.584585e+01  -4.864603e+01
   7.486817e+00  -6.165482e+01
   4.701506e+01  -1.780570e+01
   5.521891e+01   4.349062e+01
   1.196845e+01   6.503107e+01
  -5.639361e+01   3.179880e+01
  -8.915607e+01  -1.980591e+01
  -4.826632e+01  -4.626556e+01
   3.068700e+01  -3.886072e+01
   6.671613e+01  -1.823568e+01
   2.449636e+01  -4.502199e+00
  -3.869600e+01  -5.233386e+00
  -3.778329e+01  -1.869631e+01
   3.441639e+01  -3.064467e+01
   9.608727e+01  -1.535865e+01
