
 $NMID
 id='ANONYMOUS ', fmtdat='(2E16.6)'
 volume=1.0
 tramp=1.0
 $END
   4.643438e+03  -4.891727e+01
   2.566185e+03   2.716356e+03
  -8.326032e+02   2.684580e+03
  -2.175325e+03   8.710451e+02
  -9.389361e+02  -7.034921e+02
   8.737056e+02  -6.037999e+02
   9.934122e+02   4.707183e+02
  -9.070963e+01   1.135955e+03
  -8.798312e+02   8.487283e+02
  -1.007545e+03  -1.416662e+02
  -3.236344e+02  -9.220508e+02
   2.393496e+02  -9.774747e+02
   6.245835e+02  -7.415976e+01
   4.241888e+02   7.706215e+02
  -3.210524e+02   8.133057e+02
  -6.515297e+02  -5.392485e+01
  -2.271282e+02  -7.197621e+02
   3.739858e+02  -5.859086e+02
   5.592823e+02   1.192769e+01
   3.667067e+02   3.685591e+02
  -4.070736e+01   4.593263e+02
  -3.153827e+02   2.515090e+02
  -2.286936e+02   1.290489e+01
   1.276725e+02  -9.763766e+01
   4.559648e+02   1.026168e+02
   2.118919e+02   4.563675e+02
  -5.317651e+02   4.956073e+02
  -9.410016e+02  -4.616108e+01
  -4.689074e+02  -6.213601e+02
   4.374444e+02  -5.705540e+02
   8.019357e+02   2.626936e+01
   3.610813e+02   5.333556e+02
  -3.032696e+02   5.482662e+02
  -5.906195e+02   2.030466e+02
  -4.229744e+02  -2.381105e+02
  -6.483895e+01  -5.131920e+02
   2.327802e+02  -2.898625e+02
   1.906756e+02   2.610402e+02
  -1.985229e+02   5.063529e+02
  -5.297573e+02   7.831232e+00
  -2.921436e+02  -7.466046e+02
   3.705754e+02  -7.979108e+02
   6.902796e+02  -1.000060e+01
   2.875795e+02   6.278717e+02
  -3.420992e+02   3.786037e+02
  -4.540417e+02  -3.426863e+02
   5.727739e+01  -6.053827e+02
   5.921982e+02  -1.653209e+02
   6.381139e+02   4.323066e+02
   1.747490e+02   6.350600e+02
  -4.173411e+02   3.765535e+02
  -6.910313e+02  -9.660196e+01
  -3.985187e+02  -4.477941e+02
   1.959965e+02  -4.171268e+02
   5.061548e+02  -4.152960e+01
   2.541804e+02   2.477841e+02
  -1.597821e+02   1.287298e+02
  -1.746517e+02  -1.823828e+02
   1.816305e+02  -2.173959e+02
   3.751471e+02   7.793573e+01
   1.380213e+02   3.144192e+02
  -2.229124e+02   2.578951e+02
  -3.323406e+02   7.002969e+01
  -1.919293e+02  -7.428827e+01
   7.738143e+00  -2.217002e+02
   1.998939e+02  -3.542497e+02
   3.544263e+02  -2.455830e+02
   3.320268e+02   1.548153e+02
   8.558659e+01   4.819777e+02
  -1.557911e+02   3.965219e+02
  -1.535867e+02   7.596903e+01
  -8.541762e+00  -4.602925e+01
  -6.769667e+00   9.684802e+01
  -1.893659e+02   1.630650e+02
  -3.034690e+02  -4.129424e+01
  -1.770561e+02  -2.949964e+02
   8.467773e+01  -2.896056e+02
   2.613193e+02  -2.522632e+01
   2.244530e+02   2.549220e+02
  -5.627055e+00   3.279933e+02
  -2.830359e+02   1.461646e+02
  -3.831351e+02  -1.679300e+02
  -1.901709e+02  -3.804468e+02
   1.211622e+02  -3.339293e+02
   2.511859e+02  -1.091586e+02
   1.505996e+02   2.780052e+01
   8.434527e+01  -1.906781e+01
   2.226419e+02  -7.363936e+01
   4.024951e+02   4.310404e+01
   3.389091e+02   2.836914e+02
   5.956079e+00   4.538630e+02
  -3.563380e+02   4.259262e+02
  -4.985956e+02   2.104513e+02
  -3.576117e+02  -9.675467e+01
  -6.599267e+01  -3.133353e+02
   1.444775e+02  -2.696721e+02
   1.032055e+02  -2.120215e+01
  -1.120484e+02   1.330688e+02
  -2.221370e+02   7.871651e-01
  -6.769572e+01  -2.192085e+02
   1.766303e+02  -1.979516e+02
   2.030212e+02   6.182701e+01
  -1.367309e+01   2.122622e+02
  -2.033150e+02   4.439775e+01
  -1.632506e+02  -2.503732e+02
   3.817350e+01  -3.529277e+02
   2.276955e+02  -1.913604e+02
   3.162106e+02   6.281038e+01
   2.802161e+02   2.381949e+02
   1.090549e+02   2.728008e+02
  -1.111183e+02   1.746708e+02
  -1.951812e+02   2.480933e+01
  -7.410193e+01  -4.336511e+01
   7.352098e+01   2.901700e+01
   4.032307e+01   1.300290e+02
  -1.261631e+02   1.127267e+02
  -1.921926e+02  -8.932374e+00
  -6.858287e+01  -8.246932e+01
   8.001269e+01  -3.081842e+01
   6.186714e+01   6.427126e+01
  -1.139967e+02   8.694399e+01
  -2.744740e+02   7.795050e+00
  -2.662801e+02  -1.314752e+02
  -7.223244e+01  -2.567591e+02
   1.786295e+02  -2.736383e+02
   2.952828e+02  -1.354036e+02
   1.862305e+02   5.895090e+01
  -2.532312e+01   1.253651e+02
  -1.082326e+02   1.224562e+01
   2.044063e+01  -1.149270e+02
   2.017323e+02  -7.504190e+01
   2.289969e+02   1.001867e+02
   7.770713e+01   2.181286e+02
  -9.846214e+01   1.690202e+02
  -1.539875e+02   3.158526e+01
  -7.770450e+01  -4.888154e+01
   2.910059e+01  -1.489293e+01
   4.766092e+01   7.585202e+01
  -5.962509e+01   1.181618e+02
  -1.958072e+02   4.252268e+01
  -2.012277e+02  -1.155304e+02
  -3.046275e+01  -2.242029e+02
   1.676190e+02  -1.750955e+02
   2.052786e+02  -8.250323e+00
   7.185131e+01   1.237644e+02
  -7.081346e+01   1.225527e+02
  -9.296564e+01   3.535379e+01
  -2.535818e+01  -2.968555e+01
   2.059893e+01  -2.685268e+01
  -4.734271e+00   1.073869e+00
  -6.365409e+01  -6.288503e+00
  -8.699985e+01  -7.004648e+01
  -2.279402e+01  -1.489992e+02
   1.167681e+02  -1.566009e+02
   2.334112e+02  -3.748246e+01
   2.093323e+02   1.451586e+02
   4.516767e+01   2.437988e+02
  -1.142764e+02   1.770048e+02
  -1.418717e+02   2.611282e+01
  -7.069444e+01  -6.154278e+01
  -2.641098e+01  -3.962433e+01
  -5.178156e+01   1.140607e+01
  -7.612656e+01   6.463064e+00
  -3.745343e+01  -4.697248e+01
   4.255738e+01  -8.174999e+01
   9.442427e+01  -5.154134e+01
   7.843520e+01   3.070728e+01
  -9.015053e+00   1.037178e+02
  -1.308899e+02   8.778986e+01
  -1.950051e+02  -4.067769e+01
  -1.103370e+02  -1.940011e+02
   9.440874e+01  -2.327691e+02
   2.639930e+02  -1.060632e+02
   2.615055e+02   8.116293e+01
   1.131413e+02   1.781107e+02
  -3.916776e+01   1.495342e+02
  -9.620654e+01   8.321313e+01
  -8.061713e+01   6.636020e+01
  -6.656351e+01   8.720940e+01
  -8.963876e+01   7.186542e+01
  -1.246166e+02  -2.248775e+01
  -1.169163e+02  -1.524189e+02
  -3.205784e+01  -2.250985e+02
   9.717493e+01  -1.743868e+02
   1.792188e+02  -2.445993e+01
   1.437137e+02   1.206875e+02
   2.526470e+01   1.639269e+02
  -6.588985e+01   9.997529e+01
  -6.321013e+01   7.081498e+00
  -1.046882e+01  -4.043193e+01
   5.243107e+00  -3.609138e+01
  -3.783750e+01  -1.993830e+01
  -7.737695e+01  -2.164257e+01
  -4.384195e+01  -3.592829e+01
   6.007725e+01  -3.777444e+01
   1.526019e+02  -8.042280e+00
   1.426727e+02   4.612352e+01
   2.004848e+01   8.726343e+01
  -1.162377e+02   7.570960e+01
  -1.450807e+02   1.507569e+01
  -5.029514e+01  -3.993772e+01
   5.929772e+01  -3.670531e+01
   7.509735e+01   1.777092e+01
   6.077831e+00   6.387151e+01
  -5.548780e+01   5.271336e+01
  -5.948468e+01  -3.403907e+00
  -3.923924e+01  -4.740917e+01
  -4.147209e+01  -3.997138e+01
  -6.159862e+01  -3.409665e+00
  -6.393876e+01  -1.176253e+00
  -2.994463e+01  -6.394877e+01
   3.566664e+01  -1.388916e+02
   1.134274e+02  -1.360820e+02
   1.573891e+02  -3.074831e+01
   1.167839e+02   9.193373e+01
   2.690049e+00   1.255058e+02
  -8.774305e+01   5.873945e+01
  -6.019323e+01  -1.918260e+01
   5.995654e+01  -2.367730e+01
   1.386110e+02   4.112268e+01
   7.692790e+01   1.056723e+02
  -7.956392e+01   1.116534e+02
  -1.892000e+02   5.361196e+01
  -1.611474e+02  -3.049243e+01
  -3.731676e+01  -8.465287e+01
   5.948152e+01  -7.119916e+01
   4.777298e+01  -9.806720e+00
  -3.822688e+01   2.496234e+01
  -8.877417e+01  -2.356017e+01
  -3.082440e+01  -1.185863e+02
   9.313563e+01  -1.520927e+02
   1.685858e+02  -5.880307e+01
   1.272684e+02   1.033208e+02
   1.026585e+01   1.988122e+02
  -8.646353e+01   1.455741e+02
  -1.070029e+02  -4.118378e+00
  -6.459393e+01  -1.165800e+02
  -2.388506e+00  -1.081835e+02
   4.350220e+01  -2.281574e+01
   5.238558e+01   3.060789e+01
   2.740796e+01   8.790096e+00
   4.678337e+00  -2.284425e+01
   2.056713e+01   1.091913e+01
   5.664277e+01   8.701556e+01
   4.429408e+01   1.122560e+02
  -4.528330e+01   4.880107e+01
  -1.392331e+02  -3.868373e+01
  -1.324924e+02  -7.169274e+01
  -1.881839e+01  -4.952422e+01
   8.924372e+01  -2.195363e+01
   9.027257e+01  -9.183486e+00
   1.110660e+01   5.461622e+00
  -3.943623e+01   2.306234e+01
  -1.420816e+01   2.114058e+01
   2.232208e+01   2.540886e-01
  -5.391630e+00  -9.812487e+00
  -7.496089e+01  -4.630398e+00
  -9.130175e+01  -2.276215e+01
  -6.629215e+00  -7.844043e+01
   1.195306e+02  -1.132326e+02
   1.831071e+02  -5.746532e+01
   1.372624e+02   6.915584e+01
   2.354891e+01   1.629880e+02
  -7.806419e+01   1.482191e+02
  -1.128464e+02   5.543085e+01
  -8.095539e+01  -2.309062e+01
  -2.530252e+01  -3.434633e+01
   3.975233e+00  -7.035786e+00
  -9.063102e+00  -3.490922e+00
  -3.383074e+01  -4.597958e+01
  -2.428257e+01  -8.988334e+01
   2.915556e+01  -7.052783e+01
   8.185557e+01   2.002575e+01
   7.587652e+01   1.092905e+02
   1.341201e+00   1.111773e+02
  -8.383003e+01   2.075323e+01
  -1.013854e+02  -7.797483e+01
  -2.966900e+01  -1.029954e+02
   6.668858e+01  -5.290881e+01
   9.644601e+01   1.317690e+01
   3.853760e+01   4.892648e+01
  -3.169399e+01   4.950991e+01
  -2.989371e+01   2.824091e+01
   3.445583e+01   1.115324e+00
   6.894779e+01  -6.117065e+00
   1.476384e+01   2.433838e+01
  -7.860536e+01   6.581024e+01
  -1.141637e+02   5.988649e+01
  -6.224537e+01  -1.027549e+01
   1.625601e+01  -8.176618e+01
   5.135667e+01  -7.786308e+01
   3.380701e+01  -3.683726e+00
  -1.173784e+00   5.630013e+01
  -2.639987e+01   4.085768e+01
  -3.576123e+01  -2.091162e+01
  -2.575362e+01  -5.440370e+01
   2.907734e+00  -3.152484e+01
   3.262223e+01   8.955140e+00
   3.967098e+01   1.963962e+01
   2.131970e+01   4.049235e-01
   5.128143e-02  -1.207488e+01
  -7.624987e+00   6.294339e+00
  -9.866140e+00   3.724458e+01
  -2.025694e+01   4.184492e+01
  -3.317952e+01   3.473399e+00
  -2.725497e+01  -4.757184e+01
   6.163722e+00  -6.122124e+01
   4.609378e+01  -1.923868e+01
   5.491092e+01   4.096008e+01
   1.279097e+01   6.421178e+01
  -5.441558e+01   3.362853e+01
  -8.684141e+01  -1.689506e+01
  -4.765553e+01  -4.484140e+01
   2.885674e+01  -3.919995e+01
   6.395867e+01  -1.868160e+01
   2.259832e+01  -3.640975e+00
  -3.902142e+01  -3.699206e+00
  -3.792761e+01  -1.820547e+01
   3.304177e+01  -3.229563e+01
   9.433152e+01  -1.871238e+01
