
 $NMID
 id='ANONYMOUS ', fmtdat='(2E16.6)'
 volume=1.0
 tramp=1.0
 $END
  -4.938933e+03  -1.343151e+02
  -2.650477e+03  -2.916992e+03
   6.626771e+02  -3.208835e+03
   2.306951e+03  -1.301758e+03
   1.051238e+03   4.836373e+02
  -5.740841e+02   7.248381e+02
  -9.040525e+02  -3.458762e+02
  -2.139342e+01  -1.169072e+03
   8.442341e+02  -8.730791e+02
   1.126092e+03   1.186800e+02
   4.631061e+02   9.630093e+02
  -2.727745e+02   1.015137e+03
  -7.683583e+02   2.146304e+02
  -4.366105e+02  -8.060591e+02
   2.619196e+02  -8.494128e+02
   6.467662e+02   3.469203e-01
   3.438271e+02   8.106964e+02
  -3.770420e+02   7.749720e+02
  -6.876013e+02   1.462630e+02
  -4.694547e+02  -3.868567e+02
  -3.998403e+01  -4.829407e+02
   2.314317e+02  -3.000716e+02
   2.538610e+02   8.936849e+00
  -8.555118e+01   1.292152e+02
  -4.531635e+02  -9.437928e+01
  -2.403344e+02  -4.652077e+02
   4.853784e+02  -4.812195e+02
   9.372329e+02   7.043950e+01
   4.667117e+02   6.030011e+02
  -4.307249e+02   5.426803e+02
  -8.309470e+02  -1.692441e+01
  -4.273816e+02  -5.258975e+02
   2.539326e+02  -5.649186e+02
   6.125183e+02  -2.399719e+02
   4.745663e+02   2.614379e+02
   8.342468e+01   5.247489e+02
  -2.399459e+02   3.284053e+02
  -2.321422e+02  -2.452612e+02
   1.774688e+02  -5.158113e+02
   5.152710e+02   6.432296e+00
   3.041496e+02   7.610707e+02
  -3.602531e+02   7.953076e+02
  -7.095168e+02   1.774954e+00
  -2.945142e+02  -6.526897e+02
   3.538814e+02  -3.794610e+02
   4.554490e+02   3.624518e+02
  -7.849193e+01   6.257972e+02
  -6.307823e+02   1.504687e+02
  -6.607910e+02  -4.568020e+02
  -1.622505e+02  -6.514897e+02
   4.413336e+02  -3.793281e+02
   6.903359e+02   8.731516e+01
   4.054026e+02   4.314670e+02
  -1.786648e+02   4.139184e+02
  -5.006288e+02   5.973162e+01
  -2.651741e+02  -2.354320e+02
   1.595432e+02  -1.353775e+02
   1.901257e+02   1.794948e+02
  -1.837869e+02   2.347838e+02
  -4.124868e+02  -6.988400e+01
  -1.722776e+02  -3.428672e+02
   2.382008e+02  -2.928646e+02
   3.800448e+02  -6.705998e+01
   2.105515e+02   1.058645e+02
  -4.137245e+01   2.351073e+02
  -2.419142e+02   3.400477e+02
  -3.594775e+02   2.409621e+02
  -3.141929e+02  -1.354348e+02
  -8.856564e+01  -4.715507e+02
   1.258275e+02  -4.244009e+02
   1.307494e+02  -1.228404e+02
   1.590975e+01   1.906650e+01
   3.141657e+01  -9.437972e+01
   2.091008e+02  -1.531887e+02
   3.133430e+02   3.982497e+01
   1.869751e+02   2.824430e+02
  -6.909291e+01   2.815705e+02
  -2.433651e+02   2.610068e+01
  -2.216548e+02  -2.447958e+02
  -4.615815e+00  -3.193530e+02
   2.829518e+02  -1.435874e+02
   4.018932e+02   1.686945e+02
   2.167862e+02   3.881403e+02
  -1.106756e+02   3.472806e+02
  -2.618827e+02   1.314180e+02
  -1.709001e+02  -7.781740e+00
  -9.338705e+01   3.050072e+01
  -2.351495e+02   7.829150e+01
  -4.304278e+02  -4.773623e+01
  -3.691492e+02  -3.043157e+02
  -1.199850e+01  -4.843011e+02
   3.796353e+02  -4.532271e+02
   5.264344e+02  -2.215575e+02
   3.740642e+02   9.710575e+01
   7.228457e+01   3.215954e+02
  -1.419691e+02   2.845083e+02
  -1.002687e+02   3.744842e+01
   1.138455e+02  -1.250507e+02
   2.257656e+02   8.310330e-01
   6.399678e+01   2.231103e+02
  -1.816400e+02   2.025051e+02
  -2.088771e+02  -6.161141e+01
   1.412922e+01  -2.182378e+02
   2.166555e+02  -3.927627e+01
   1.762384e+02   2.721779e+02
  -4.155377e+01   3.782883e+02
  -2.505118e+02   2.019647e+02
  -3.460053e+02  -6.986115e+01
  -2.975485e+02  -2.479452e+02
  -1.108234e+02  -2.754011e+02
   1.155273e+02  -1.756442e+02
   1.951158e+02  -2.984810e+01
   6.933081e+01   3.670189e+01
  -7.946763e+01  -3.311817e+01
  -4.300273e+01  -1.317789e+02
   1.274198e+02  -1.126974e+02
   1.937705e+02   7.561771e+00
   6.609569e+01   7.756557e+01
  -8.373888e+01   2.198309e+01
  -5.908822e+01  -7.248113e+01
   1.264468e+02  -8.867881e+01
   2.891063e+02  -2.474256e+00
   2.718253e+02   1.381266e+02
   6.782622e+01   2.613367e+02
  -1.844788e+02   2.784893e+02
  -2.954898e+02   1.435970e+02
  -1.839505e+02  -4.986307e+01
   2.245333e+01  -1.203392e+02
   9.750230e+01  -1.261162e+01
  -3.413316e+01   1.109450e+02
  -2.104989e+02   6.891098e+01
  -2.292434e+02  -1.069137e+02
  -7.411663e+01  -2.229548e+02
   9.921440e+01  -1.697178e+02
   1.501840e+02  -3.223809e+01
   7.448608e+01   4.150752e+01
  -2.586688e+01   1.184251e+00
  -3.726552e+01  -8.679516e+01
   7.316717e+01  -1.176645e+02
   2.070080e+02  -3.226221e+01
   2.055776e+02   1.275336e+02
   2.749129e+01   2.317526e+02
  -1.739540e+02   1.779231e+02
  -2.087477e+02   8.538255e+00
  -7.089564e+01  -1.239060e+02
   7.039641e+01  -1.216814e+02
   8.735674e+01  -3.482318e+01
   2.029398e+01   2.492430e+01
  -1.702848e+01   1.789342e+01
   1.760651e+01  -6.912887e+00
   7.785341e+01   1.314674e+01
   9.156910e+01   8.852436e+01
   1.492992e+01   1.667539e+02
  -1.315028e+02   1.621718e+02
  -2.469319e+02   3.142864e+01
  -2.167974e+02  -1.558962e+02
  -4.789749e+01  -2.527734e+02
   1.154467e+02  -1.837041e+02
   1.453516e+02  -3.032819e+01
   7.423068e+01   5.905958e+01
   3.073547e+01   3.832290e+01
   5.876710e+01  -1.207923e+01
   8.494530e+01  -3.130204e+00
   3.873686e+01   5.462751e+01
  -4.918340e+01   8.952619e+01
  -1.058083e+02   5.250542e+01
  -8.388481e+01  -4.051593e+01
   1.625390e+01  -1.139778e+02
   1.448053e+02  -8.894524e+01
   2.045767e+02   5.184221e+01
   1.104301e+02   2.096668e+02
  -1.047421e+02   2.408470e+02
  -2.781050e+02   1.054059e+02
  -2.751931e+02  -8.504019e+01
  -1.219774e+02  -1.828036e+02
   3.493248e+01  -1.555701e+02
   9.703543e+01  -9.199584e+01
   8.379248e+01  -7.751088e+01
   7.231806e+01  -9.809960e+01
   9.866620e+01  -7.801755e+01
   1.348942e+02   2.204378e+01
   1.246118e+02   1.598849e+02
   3.397021e+01   2.378166e+02
  -1.016018e+02   1.844850e+02
  -1.862375e+02   2.513580e+01
  -1.475775e+02  -1.272284e+02
  -2.302695e+01  -1.696337e+02
   7.032940e+01  -1.000345e+02
   6.409751e+01  -4.594156e+00
   7.578939e+00   4.061188e+01
  -6.306286e+00   3.443246e+01
   4.242693e+01   2.246255e+01
   8.412522e+01   3.026460e+01
   4.481827e+01   4.419373e+01
  -6.850922e+01   3.814806e+01
  -1.651346e+02   1.377582e+00
  -1.499012e+02  -5.272119e+01
  -1.807368e+01  -8.966766e+01
   1.229590e+02  -7.635897e+01
   1.490711e+02  -1.633462e+01
   4.914245e+01   3.918644e+01
  -6.251624e+01   3.642910e+01
  -7.618999e+01  -2.089695e+01
  -4.114909e+00  -7.148329e+01
   5.915098e+01  -5.983383e+01
   6.284595e+01   2.754237e+00
   4.294843e+01   5.210979e+01
   4.652378e+01   4.199223e+01
   6.814527e+01  -2.818197e-01
   7.236817e+01  -9.961708e-01
   3.803095e+01   7.114515e+01
  -3.274546e+01   1.538385e+02
  -1.186128e+02   1.483302e+02
  -1.689015e+02   3.513976e+01
  -1.282009e+02  -9.316168e+01
  -7.661931e+00  -1.268533e+02
   8.887558e+01  -5.903850e+01
   6.049748e+01   1.782542e+01
  -6.524050e+01   1.981592e+01
  -1.473258e+02  -4.706626e+01
  -8.204395e+01  -1.126949e+02
   8.200725e+01  -1.185548e+02
   1.979221e+02  -5.817096e+01
   1.708043e+02   3.038048e+01
   4.247507e+01   8.798440e+01
  -5.990821e+01   7.429362e+01
  -4.964027e+01   9.146096e+00
   4.055139e+01  -2.812000e+01
   9.467907e+01   2.281821e+01
   3.453927e+01   1.248503e+02
  -9.641645e+01   1.632734e+02
  -1.761701e+02   6.578639e+01
  -1.321190e+02  -1.068743e+02
  -9.327292e+00  -2.090192e+02
   8.978314e+01  -1.518541e+02
   1.085355e+02   7.796820e+00
   6.399081e+01   1.241345e+02
   9.806362e-01   1.111146e+02
  -4.559253e+01   2.068267e+01
  -5.514352e+01  -3.139667e+01
  -2.936131e+01  -6.173184e+00
  -4.673175e+00   2.364202e+01
  -2.076813e+01  -1.650659e+01
  -5.935342e+01  -9.563299e+01
  -4.705064e+01  -1.167051e+02
   4.799718e+01  -4.717555e+01
   1.477608e+02   4.240228e+01
   1.398808e+02   7.407576e+01
   1.893268e+01   5.048641e+01
  -9.414242e+01   2.268402e+01
  -9.337712e+01   9.511133e+00
  -9.651322e+00  -6.026945e+00
   4.162160e+01  -2.346313e+01
   1.331608e+01  -2.039275e+01
  -2.415741e+01   5.740509e-01
   7.706544e+00   9.337207e+00
   8.227628e+01   4.445390e+00
   9.859957e+01   2.621270e+01
   6.947597e+00   8.660032e+01
  -1.284833e+02   1.220018e+02
  -1.965812e+02   6.123974e+01
  -1.469403e+02  -7.264126e+01
  -2.447726e+01  -1.709098e+02
   8.341815e+01  -1.555897e+02
   1.181166e+02  -5.915157e+01
   8.243148e+01   2.330020e+01
   2.481348e+01   3.628905e+01
  -3.770078e+00   8.332091e+00
   1.039708e+01   4.118667e+00
   3.479913e+01   4.789234e+01
   2.380501e+01   9.480338e+01
  -3.181599e+01   7.546111e+01
  -8.755504e+01  -2.075349e+01
  -8.274393e+01  -1.172420e+02
  -3.980592e+00  -1.211642e+02
   8.908715e+01  -2.543164e+01
   1.107110e+02   8.071092e+01
   3.476105e+01   1.089618e+02
  -6.922001e+01   5.656723e+01
  -1.013145e+02  -1.320772e+01
  -3.928122e+01  -5.058347e+01
   3.464943e+01  -5.092781e+01
   3.042147e+01  -2.852320e+01
  -3.896291e+01  -6.362823e-01
  -7.383296e+01   6.184951e+00
  -1.374981e+01  -2.649076e+01
   8.529635e+01  -7.013237e+01
   1.208947e+02  -6.280370e+01
   6.452924e+01   1.242152e+01
  -1.790770e+01   8.818480e+01
  -5.410180e+01   8.355792e+01
  -3.666198e+01   4.930779e+00
  -1.313342e+00  -5.896312e+01
   2.527723e+01  -4.367000e+01
   3.633798e+01   1.990534e+01
   2.733910e+01   5.480640e+01
  -2.647175e+00   3.118778e+01
  -3.402039e+01  -1.030328e+01
  -4.065928e+01  -2.101442e+01
  -2.100556e+01  -2.358669e-01
   8.252094e-01   1.367942e+01
   7.862787e+00  -5.648001e+00
   9.917530e+00  -3.966884e+01
   2.147043e+01  -4.520820e+01
   3.543568e+01  -3.671009e+00
   2.876580e+01   5.168317e+01
  -6.904883e+00   6.556158e+01
  -4.876333e+01   1.943644e+01
  -5.794058e+01  -4.473300e+01
  -1.346629e+01  -6.759664e+01
   5.755557e+01  -3.368168e+01
   9.210754e+01   1.857665e+01
   5.016695e+01   4.581421e+01
  -3.106202e+01   3.981123e+01
  -6.757544e+01   1.982522e+01
  -2.256926e+01   5.236167e+00
   4.299523e+01   5.014931e+00
   4.088084e+01   1.983898e+01
  -3.538477e+01   3.518827e+01
  -1.003692e+02   2.129314e+01
