
 $NMID
 id='ANONYMOUS ', fmtdat='(2E16.6)'
 volume=1.0
 tramp=1.0
 $END
   4.709979e+03  -1.305194e+02
   2.613238e+03   2.998496e+03
  -7.976087e+02   2.807070e+03
  -2.305683e+03   8.205875e+02
  -9.159779e+02  -7.728213e+02
   8.248306e+02  -5.636295e+02
   8.668341e+02   4.994066e+02
  -2.090118e+01   1.235403e+03
  -8.573051e+02   8.388122e+02
  -9.861797e+02  -1.672443e+02
  -4.299243e+02  -8.693571e+02
   1.932024e+02  -9.487139e+02
   6.468749e+02  -5.933215e+01
   4.006206e+02   7.713127e+02
  -2.386059e+02   7.351147e+02
  -6.212194e+02   4.331272e+01
  -2.352713e+02  -6.756662e+02
   3.930593e+02  -6.455452e+02
   6.265435e+02  -7.444004e+01
   3.566441e+02   3.810319e+02
  -3.549347e+01   4.315519e+02
  -2.731136e+02   2.637846e+02
  -2.354247e+02   1.273693e+01
   1.281605e+02  -1.285590e+02
   4.395772e+02   9.553255e+01
   2.356958e+02   4.898764e+02
  -4.769650e+02   4.782185e+02
  -8.849381e+02  -1.053742e+02
  -4.648789e+02  -6.002079e+02
   4.082410e+02  -5.575551e+02
   8.056152e+02   2.876829e+01
   3.827192e+02   5.015070e+02
  -2.976580e+02   5.609541e+02
  -5.976826e+02   2.222638e+02
  -4.489397e+02  -2.351097e+02
  -8.352770e+01  -5.194290e+02
   2.444042e+02  -2.843998e+02
   2.128541e+02   2.556577e+02
  -1.753108e+02   5.025553e+02
  -5.172715e+02  -8.120941e+00
  -2.913408e+02  -7.311695e+02
   3.357075e+02  -7.700457e+02
   6.572742e+02  -3.910640e+00
   2.837638e+02   6.073019e+02
  -3.243289e+02   3.359145e+02
  -4.167706e+02  -3.500362e+02
   7.776717e+01  -5.769800e+02
   5.852317e+02  -1.393860e+02
   6.048913e+02   4.173218e+02
   1.591659e+02   5.941188e+02
  -4.071340e+02   3.430597e+02
  -6.537035e+02  -8.346585e+01
  -3.821301e+02  -4.002390e+02
   1.722224e+02  -3.842846e+02
   4.756243e+02  -5.519531e+01
   2.555301e+02   2.138040e+02
  -1.305916e+02   1.147943e+02
  -1.556455e+02  -1.693917e+02
   1.692999e+02  -1.987660e+02
   3.511763e+02   9.201111e+01
   1.291565e+02   3.238157e+02
  -2.166470e+02   2.515621e+02
  -3.246330e+02   4.480815e+01
  -1.832082e+02  -9.110711e+01
   2.100100e+01  -2.007900e+02
   2.032590e+02  -3.157536e+02
   3.304120e+02  -2.394971e+02
   2.975685e+02   1.159948e+02
   7.955627e+01   4.422117e+02
  -1.263665e+02   3.972870e+02
  -1.228545e+02   1.042210e+02
  -5.669333e+00  -3.151220e+01
  -2.059496e+01   8.356339e+01
  -1.938763e+02   1.481086e+02
  -2.981160e+02  -3.428539e+01
  -1.783268e+02  -2.703862e+02
   6.509270e+01  -2.673745e+02
   2.319110e+02  -2.060994e+01
   2.064819e+02   2.346887e+02
  -3.893029e+00   2.967019e+02
  -2.672915e+02   1.217500e+02
  -3.692467e+02  -1.657800e+02
  -1.908402e+02  -3.556117e+02
   1.048497e+02  -3.129081e+02
   2.321207e+02  -1.202358e+02
   1.451726e+02   3.293292e+00
   8.613926e+01  -2.989027e+01
   2.241836e+02  -7.316807e+01
   3.977024e+02   4.337515e+01
   3.356077e+02   2.740998e+02
   5.764600e+00   4.355203e+02
  -3.511926e+02   4.066492e+02
  -4.832590e+02   2.017876e+02
  -3.449450e+02  -9.328448e+01
  -5.774493e+01  -3.025333e+02
   1.437545e+02  -2.616985e+02
   1.031587e+02  -2.466030e+01
  -1.072592e+02   1.225196e+02
  -2.102695e+02   1.272600e+00
  -5.772920e+01  -2.030111e+02
   1.740881e+02  -1.804051e+02
   1.891229e+02   6.743248e+01
  -2.337202e+01   2.043443e+02
  -2.043159e+02   3.428436e+01
  -1.596760e+02  -2.535214e+02
   3.891586e+01  -3.473260e+02
   2.253114e+02  -1.851912e+02
   3.122060e+02   6.141423e+01
   2.727147e+02   2.285538e+02
   1.026191e+02   2.579743e+02
  -1.085110e+02   1.637402e+02
  -1.838098e+02   2.186397e+01
  -6.346695e+01  -3.950956e+01
   7.737330e+01   3.278101e+01
   4.045917e+01   1.296507e+02
  -1.236443e+02   1.084501e+02
  -1.875172e+02  -1.018082e+01
  -6.491293e+01  -7.651694e+01
   8.083003e+01  -2.161981e+01
   6.069764e+01   6.823546e+01
  -1.155886e+02   8.254251e+01
  -2.728078e+02   1.696883e+00
  -2.581346e+02  -1.293581e+02
  -6.188169e+01  -2.450610e+02
   1.806104e+02  -2.599961e+02
   2.853954e+02  -1.292374e+02
   1.753036e+02   5.549984e+01
  -2.499313e+01   1.201122e+02
  -9.883853e+01   1.564525e+01
   2.512482e+01  -1.016245e+02
   1.933173e+02  -6.131493e+01
   2.129582e+02   1.033417e+02
   6.658102e+01   2.097651e+02
  -1.000235e+02   1.579580e+02
  -1.508244e+02   2.721207e+01
  -7.693624e+01  -4.542347e+01
   2.487349e+01  -1.162864e+01
   4.165813e+01   7.174414e+01
  -6.140245e+01   1.059930e+02
  -1.887888e+02   3.031067e+01
  -1.872550e+02  -1.182128e+02
  -1.820459e+01  -2.152879e+02
   1.693723e+02  -1.623604e+02
   1.969021e+02  -1.414510e+00
   6.347975e+01   1.209075e+02
  -7.029769e+01   1.151777e+02
  -8.555463e+01   3.148034e+01
  -2.130005e+01  -2.636521e+01
   1.759642e+01  -2.183986e+01
  -8.236175e+00   2.420476e+00
  -6.099554e+01  -1.001635e+01
  -7.916279e+01  -7.377161e+01
  -1.813719e+01  -1.447739e+02
   1.139341e+02  -1.453254e+02
   2.241230e+02  -2.896533e+01
   1.997313e+02   1.424141e+02
   4.246001e+01   2.338877e+02
  -1.112502e+02   1.676968e+02
  -1.364957e+02   2.377196e+01
  -6.781498e+01  -5.801206e+01
  -2.511120e+01  -3.495905e+01
  -5.231036e+01   1.263130e+01
  -7.853373e+01   5.383416e+00
  -4.019394e+01  -4.815891e+01
   4.209021e+01  -8.262897e+01
   9.621548e+01  -5.239644e+01
   8.025824e+01   2.983613e+01
  -1.070259e+01   1.003351e+02
  -1.315653e+02   8.103249e+01
  -1.891605e+02  -4.646678e+01
  -9.838894e+01  -1.930194e+02
   1.049624e+02  -2.227969e+02
   2.639056e+02  -9.265687e+01
   2.533128e+02   8.804267e+01
   1.047271e+02   1.770462e+02
  -4.224187e+01   1.453865e+02
  -9.607606e+01   8.149714e+01
  -7.994310e+01   6.572572e+01
  -6.719633e+01   8.665685e+01
  -8.996725e+01   7.024468e+01
  -1.225435e+02  -2.291521e+01
  -1.126042e+02  -1.504767e+02
  -2.842021e+01  -2.207389e+02
   9.697661e+01  -1.688921e+02
   1.736791e+02  -2.081622e+01
   1.349821e+02   1.194786e+02
   1.859948e+01   1.581469e+02
  -6.606797e+01   9.349221e+01
  -5.807850e+01   3.859932e+00
  -5.484281e+00  -3.990508e+01
   6.888858e+00  -3.428427e+01
  -3.824554e+01  -1.963854e+01
  -7.723249e+01  -2.330056e+01
  -4.269574e+01  -3.720802e+01
   6.088603e+01  -3.614129e+01
   1.521066e+02  -3.933684e+00
   1.408236e+02   4.939318e+01
   1.817318e+01   8.693665e+01
  -1.166489e+02   7.275603e+01
  -1.434931e+02   1.266019e+01
  -4.814755e+01  -3.956486e+01
   6.016969e+01  -3.411498e+01
   7.418621e+01   2.102312e+01
   3.595004e+00   6.652042e+01
  -5.875076e+01   5.374450e+01
  -6.201365e+01  -4.376167e+00
  -4.009938e+01  -4.998747e+01
  -4.029646e+01  -4.259784e+01
  -6.001179e+01  -4.611617e+00
  -6.396151e+01  -1.426362e+00
  -3.181502e+01  -6.468914e+01
   3.439702e+01  -1.411437e+02
   1.141607e+02  -1.383115e+02
   1.609638e+02  -3.234484e+01
   1.225062e+02   9.165954e+01
   8.298725e+00   1.269233e+02
  -8.430608e+01   6.134642e+01
  -6.046360e+01  -1.582500e+01
   5.676758e+01  -1.966255e+01
   1.347641e+02   4.536961e+01
   7.413920e+01   1.080255e+02
  -8.054509e+01   1.109784e+02
  -1.896345e+02   4.975745e+01
  -1.609010e+02  -3.488037e+01
  -3.609670e+01  -8.686139e+01
   6.195978e+01  -7.008320e+01
   5.041998e+01  -7.304909e+00
  -3.716664e+01   2.713608e+01
  -8.949811e+01  -2.111160e+01
  -3.264033e+01  -1.149244e+02
   9.083874e+01  -1.488568e+02
   1.654491e+02  -5.853618e+01
   1.229979e+02   9.941727e+01
   6.669967e+00   1.926355e+02
  -8.674514e+01   1.402697e+02
  -1.029375e+02  -6.801384e+00
  -5.836895e+01  -1.159349e+02
   2.232955e+00  -1.052902e+02
   4.481739e+01  -1.923207e+01
   5.138538e+01   3.302101e+01
   2.579703e+01   9.817647e+00
   2.530777e+00  -2.253840e+01
   1.780945e+01   1.108181e+01
   5.360742e+01   8.643999e+01
   4.289207e+01   1.102891e+02
  -4.377680e+01   4.611586e+01
  -1.352140e+02  -4.035105e+01
  -1.280544e+02  -7.140370e+01
  -1.680457e+01  -4.731760e+01
   8.723004e+01  -1.899235e+01
   8.584691e+01  -6.935857e+00
   7.624976e+00   5.819272e+00
  -3.990665e+01   2.106420e+01
  -1.289134e+01   1.810068e+01
   2.369462e+01  -2.005453e+00
  -3.813437e+00  -1.052882e+01
  -7.182523e+01  -4.295275e+00
  -8.784685e+01  -2.167032e+01
  -5.882369e+00  -7.590095e+01
   1.167244e+02  -1.090193e+02
   1.791927e+02  -5.372746e+01
   1.349408e+02   6.983461e+01
   2.260594e+01   1.602573e+02
  -7.863550e+01   1.444085e+02
  -1.126668e+02   5.300282e+01
  -7.894549e+01  -2.381151e+01
  -2.261483e+01  -3.458856e+01
   5.466977e+00  -6.716810e+00
  -8.972682e+00  -1.511070e+00
  -3.329935e+01  -4.213921e+01
  -2.302630e+01  -8.612140e+01
   2.886207e+01  -6.885739e+01
   7.876974e+01   1.914951e+01
   7.195178e+01   1.070767e+02
  -6.645772e-01   1.096306e+02
  -8.302130e+01   2.070574e+01
  -9.951487e+01  -7.701201e+01
  -2.857190e+01  -1.019643e+02
   6.630735e+01  -5.242507e+01
   9.501225e+01   1.300494e+01
   3.727182e+01   4.814514e+01
  -3.222244e+01   4.852309e+01
  -2.976232e+01   2.748220e+01
   3.415621e+01   1.050735e+00
   6.798388e+01  -5.687620e+00
   1.396995e+01   2.413578e+01
  -7.785585e+01   6.434741e+01
  -1.121225e+02   5.788333e+01
  -6.057388e+01  -1.127992e+01
   1.628177e+01  -8.093341e+01
   5.055138e+01  -7.643527e+01
   3.366881e+01  -3.706614e+00
  -2.791565e-01   5.480981e+01
  -2.550699e+01   3.959904e+01
  -3.463500e+01  -2.031831e+01
  -2.435700e+01  -5.252581e+01
   4.098124e+00  -3.022947e+01
   3.238716e+01   9.037789e+00
   3.758784e+01   1.951235e+01
   1.914782e+01   7.396320e-01
  -6.555802e-01  -1.195254e+01
  -6.675249e+00   4.773946e+00
  -8.365696e+00   3.495663e+01
  -1.902612e+01   4.067134e+01
  -3.220207e+01   4.697461e+00
  -2.668695e+01  -4.538217e+01
   5.662361e+00  -5.983440e+01
   4.497378e+01  -2.002158e+01
   5.450294e+01   3.910385e+01
   1.399788e+01   6.301278e+01
  -5.212726e+01   3.417119e+01
  -8.521591e+01  -1.500836e+01
  -4.778434e+01  -4.269108e+01
   2.723172e+01  -3.803452e+01
   6.207445e+01  -1.856231e+01
   2.230565e+01  -4.068139e+00
  -3.790412e+01  -3.795900e+00
  -3.781968e+01  -1.744605e+01
   3.027230e+01  -3.089018e+01
   8.973775e+01  -1.816285e+01
