
 $NMID
 id='ANONYMOUS ', fmtdat='(2E16.6)'
 volume=1.0
 tramp=1.0
 $END
  -4.456190e+03   3.957051e+01
  -2.692674e+03  -2.894573e+03
   6.672091e+02  -2.778108e+03
   2.343541e+03  -1.037602e+03
   9.548572e+02   8.371636e+02
  -8.993349e+02   7.761619e+02
  -1.020803e+03  -5.859885e+02
   7.297960e+01  -1.169261e+03
   9.502014e+02  -8.323674e+02
   9.555586e+02   1.346810e+02
   4.469730e+02   9.237699e+02
  -2.579368e+02   1.011957e+03
  -7.042792e+02   1.516674e+02
  -4.780880e+02  -7.939371e+02
   3.173213e+02  -8.487057e+02
   7.471394e+02   4.020740e+01
   2.841709e+02   7.124533e+02
  -3.845802e+02   6.744933e+02
  -6.403136e+02   7.658201e+01
  -3.894118e+02  -3.828414e+02
   9.194692e+00  -4.774218e+02
   3.042563e+02  -2.663408e+02
   2.416811e+02  -4.294766e+01
  -8.223111e+01   1.127521e+02
  -4.228292e+02  -6.664528e+01
  -2.312911e+02  -4.420445e+02
   4.706139e+02  -4.702757e+02
   8.856670e+02   7.632054e+01
   4.838578e+02   6.286368e+02
  -4.053271e+02   5.555620e+02
  -8.029126e+02   1.155891e+01
  -3.917714e+02  -5.370844e+02
   2.792181e+02  -5.757143e+02
   6.005890e+02  -2.461760e+02
   4.537430e+02   2.544785e+02
   7.589282e+01   5.201894e+02
  -2.470351e+02   3.005838e+02
  -2.168983e+02  -2.381905e+02
   1.927967e+02  -4.926459e+02
   5.325040e+02   2.784342e+00
   3.105717e+02   7.447632e+02
  -3.761596e+02   7.940105e+02
  -7.071194e+02  -1.333984e+00
  -2.879635e+02  -6.206413e+02
   3.548249e+02  -3.605702e+02
   4.442251e+02   3.472620e+02
  -8.298062e+01   5.800812e+02
  -6.046640e+02   1.321514e+02
  -6.184555e+02  -4.585649e+02
  -1.502976e+02  -6.258498e+02
   4.256591e+02  -3.555262e+02
   6.834551e+02   9.899024e+01
   4.009623e+02   4.364268e+02
  -1.863308e+02   4.057998e+02
  -5.042231e+02   4.396912e+01
  -2.600345e+02  -2.432006e+02
   1.579605e+02  -1.211731e+02
   1.747472e+02   1.948776e+02
  -1.910849e+02   2.232257e+02
  -3.903614e+02  -9.419448e+01
  -1.429004e+02  -3.417361e+02
   2.326215e+02  -2.612979e+02
   3.374108e+02  -4.141247e+01
   1.742190e+02   9.700228e+01
  -3.827815e+01   2.022674e+02
  -2.146505e+02   3.102223e+02
  -3.408372e+02   2.242548e+02
  -3.092789e+02  -1.414818e+02
  -7.914266e+01  -4.669857e+02
   1.474692e+02  -4.074040e+02
   1.561047e+02  -1.006820e+02
   3.310614e+01   3.842100e+01
   3.267987e+01  -7.624217e+01
   1.903841e+02  -1.335329e+02
   2.864305e+02   5.552498e+01
   1.671294e+02   2.851323e+02
  -7.155840e+01   2.719962e+02
  -2.358416e+02   2.067862e+01
  -2.094588e+02  -2.365132e+02
   9.170077e-01  -2.983817e+02
   2.634484e+02  -1.256357e+02
   3.653597e+02   1.715874e+02
   1.822526e+02   3.690137e+02
  -1.208495e+02   3.161261e+02
  -2.501278e+02   1.039114e+02
  -1.527200e+02  -2.391867e+01
  -9.153769e+01   1.656422e+01
  -2.283929e+02   5.789958e+01
  -4.010830e+02  -6.652233e+01
  -3.253103e+02  -3.010039e+02
   2.225227e+01  -4.536976e+02
   3.866157e+02  -4.113376e+02
   5.147897e+02  -1.969501e+02
   3.556820e+02   1.049821e+02
   6.227533e+01   3.225904e+02
  -1.482756e+02   2.825670e+02
  -1.052763e+02   3.606554e+01
   1.052576e+02  -1.234296e+02
   2.145260e+02   1.276329e+00
   5.639757e+01   2.164171e+02
  -1.844884e+02   1.899856e+02
  -2.041438e+02  -7.209844e+01
   1.779588e+01  -2.162988e+02
   2.103477e+02  -3.449433e+01
   1.649580e+02   2.625326e+02
  -4.616885e+01   3.535243e+02
  -2.407417e+02   1.771604e+02
  -3.202536e+02  -7.784445e+01
  -2.714721e+02  -2.414488e+02
  -9.692881e+01  -2.660119e+02
   1.150441e+02  -1.694905e+02
   1.914131e+02  -2.555712e+01
   7.017065e+01   3.979454e+01
  -7.174341e+01  -3.054359e+01
  -3.538249e+01  -1.283442e+02
   1.284235e+02  -1.076455e+02
   1.903699e+02   1.316043e+01
   6.483410e+01   8.050828e+01
  -8.000879e+01   2.316114e+01
  -5.614332e+01  -6.789348e+01
   1.207375e+02  -7.891225e+01
   2.748933e+02   7.226234e+00
   2.574025e+02   1.395281e+02
   5.992320e+01   2.522786e+02
  -1.857559e+02   2.637410e+02
  -2.948457e+02   1.306002e+02
  -1.840984e+02  -5.656190e+01
   2.164306e+01  -1.222467e+02
   9.754020e+01  -1.500615e+01
  -3.060667e+01   1.036240e+02
  -2.019177e+02   5.857624e+01
  -2.173506e+02  -1.137082e+02
  -6.382116e+01  -2.217866e+02
   1.048371e+02  -1.640443e+02
   1.532477e+02  -2.743560e+01
   7.877452e+01   4.523546e+01
  -2.034051e+01   8.141948e+00
  -3.437715e+01  -7.500664e+01
   6.885050e+01  -1.046998e+02
   1.947963e+02  -2.334600e+01
   1.894134e+02   1.285916e+02
   1.401586e+01   2.236522e+02
  -1.785931e+02   1.632271e+02
  -2.048373e+02  -4.804806e+00
  -6.470503e+01  -1.285583e+02
   7.506900e+01  -1.175911e+02
   9.109262e+01  -2.949734e+01
   2.509103e+01   2.779083e+01
  -1.405147e+01   2.076653e+01
   1.301822e+01  -7.390942e-01
   6.221473e+01   1.800126e+01
   7.335233e+01   8.469379e+01
   5.050230e+00   1.525545e+02
  -1.277794e+02   1.440858e+02
  -2.321442e+02   1.814032e+01
  -1.990736e+02  -1.587193e+02
  -3.344066e+01  -2.473181e+02
   1.206723e+02  -1.735289e+02
   1.437282e+02  -2.028011e+01
   6.996573e+01   6.445945e+01
   2.767006e+01   4.113731e+01
   5.509983e+01  -9.155505e+00
   7.955258e+01  -1.657602e+00
   3.460952e+01   5.054282e+01
  -4.944178e+01   8.076036e+01
  -9.878153e+01   4.645469e+01
  -7.578672e+01  -3.582829e+01
   1.708738e+01  -1.013940e+02
   1.364041e+02  -7.776471e+01
   1.913271e+02   5.426684e+01
   9.639766e+01   2.003975e+02
  -1.103416e+02   2.252782e+02
  -2.734194e+02   8.866853e+01
  -2.616800e+02  -9.739564e+01
  -1.066442e+02  -1.865611e+02
   4.731651e+01  -1.512309e+02
   1.020472e+02  -8.328807e+01
   8.670372e+01  -6.686986e+01
   7.527827e+01  -8.750936e+01
   9.920454e+01  -6.859529e+01
   1.290664e+02   2.957552e+01
   1.111770e+02   1.617477e+02
   1.939234e+01   2.310331e+02
  -1.079061e+02   1.726488e+02
  -1.798903e+02   1.615338e+01
  -1.349949e+02  -1.283051e+02
  -1.499115e+01  -1.640646e+02
   6.976661e+01  -9.352333e+01
   5.993324e+01  -1.256598e+00
   5.712824e+00   4.067996e+01
  -7.218024e+00   3.380290e+01
   3.764263e+01   2.193711e+01
   7.575355e+01   2.894319e+01
   4.019579e+01   4.095783e+01
  -6.368248e+01   3.323868e+01
  -1.544945e+02  -3.887676e+00
  -1.420573e+02  -5.558455e+01
  -1.728017e+01  -8.801889e+01
   1.199132e+02  -7.089997e+01
   1.469712e+02  -1.123811e+01
   4.874822e+01   4.008278e+01
  -6.238393e+01   3.361005e+01
  -7.508564e+01  -2.339272e+01
  -5.646196e-01  -7.036007e+01
   6.345767e+01  -5.647188e+01
   6.455499e+01   5.465580e+00
   4.012477e+01   5.362690e+01
   4.186207e+01   4.506205e+01
   6.394783e+01   6.024845e+00
   6.705546e+01   4.171294e+00
   3.042824e+01   6.972898e+01
  -3.936592e+01   1.450501e+02
  -1.193826e+02   1.375367e+02
  -1.639600e+02   2.789271e+01
  -1.227054e+02  -9.408158e+01
  -7.108998e+00  -1.245960e+02
   8.545171e+01  -5.758799e+01
   5.908019e+01   1.591971e+01
  -6.085248e+01   1.497717e+01
  -1.380965e+02  -5.164128e+01
  -7.337646e+01  -1.128521e+02
   8.615862e+01  -1.129480e+02
   1.963198e+02  -4.951909e+01
   1.661195e+02   3.755155e+01
   3.806430e+01   9.075583e+01
  -6.195930e+01   7.389962e+01
  -5.040514e+01   9.702121e+00
   3.840564e+01  -2.505754e+01
   8.980750e+01   2.465521e+01
   2.780111e+01   1.196368e+02
  -1.009235e+02   1.513924e+02
  -1.740985e+02   5.553633e+01
  -1.237583e+02  -1.072756e+02
   2.387428e-01  -2.007153e+02
   9.403318e+01  -1.433230e+02
   1.053951e+02   9.639977e+00
   5.737247e+01   1.215627e+02
  -3.582907e+00   1.091809e+02
  -4.643012e+01   1.991604e+01
  -5.448255e+01  -3.429325e+01
  -2.872972e+01  -1.086762e+01
  -2.583677e+00   2.134046e+01
  -1.520329e+01  -1.392056e+01
  -5.147433e+01  -9.068937e+01
  -4.215509e+01  -1.133900e+02
   4.558916e+01  -4.512761e+01
   1.392072e+02   4.562484e+01
   1.312458e+02   7.785043e+01
   1.559049e+01   5.113577e+01
  -9.226723e+01   1.873292e+01
  -9.003862e+01   4.226576e+00
  -7.955722e+00  -8.394999e+00
   4.195951e+01  -2.259732e+01
   1.444956e+01  -1.870119e+01
  -2.245235e+01   2.313980e+00
   6.745345e+00   1.277586e+01
   7.628001e+01   9.747060e+00
   8.962572e+01   2.918336e+01
   6.849551e-01   8.173040e+01
  -1.275264e+02   1.094034e+02
  -1.893506e+02   4.827777e+01
  -1.381074e+02  -7.746954e+01
  -1.806304e+01  -1.653933e+02
   8.610338e+01  -1.451226e+02
   1.180076e+02  -5.060800e+01
   8.045049e+01   2.677503e+01
   2.159664e+01   3.626680e+01
  -7.122392e+00   7.418974e+00
   7.523374e+00   2.693478e+00
   3.166737e+01   4.535111e+01
   2.042521e+01   9.034478e+01
  -3.263076e+01   7.064804e+01
  -8.226498e+01  -2.324512e+01
  -7.252963e+01  -1.155190e+02
   3.667749e+00  -1.157002e+02
   8.735721e+01  -1.932862e+01
   1.012086e+02   8.375885e+01
   2.628172e+01   1.067340e+02
  -7.027150e+01   5.116931e+01
  -9.673800e+01  -1.743885e+01
  -3.510702e+01  -5.036291e+01
   3.544248e+01  -4.751783e+01
   3.060922e+01  -2.648888e+01
  -3.669765e+01  -2.372983e+00
  -7.081384e+01   3.406828e+00
  -1.343713e+01  -2.487093e+01
   8.263155e+01  -6.301075e+01
   1.170342e+02  -5.562069e+01
   6.123605e+01   1.339011e+01
  -2.062432e+01   8.222369e+01
  -5.582387e+01   7.615109e+01
  -3.557765e+01   1.431004e+00
   2.621995e+00  -5.771704e+01
   2.895640e+01  -4.079400e+01
   3.626502e+01   2.191842e+01
   2.381478e+01   5.550754e+01
  -5.344771e+00   3.145754e+01
  -3.292699e+01  -1.048336e+01
  -3.797320e+01  -2.219667e+01
  -2.016858e+01  -2.193738e+00
  -7.615909e-01   1.198581e+01
   6.991406e+00  -5.201234e+00
   1.149472e+01  -3.674430e+01
   2.360118e+01  -4.219056e+01
   3.461005e+01  -2.974725e+00
   2.557871e+01   4.996582e+01
  -8.830600e+00   6.343461e+01
  -4.706188e+01   1.892946e+01
  -5.401295e+01  -4.314205e+01
  -1.199432e+01  -6.490597e+01
   5.411271e+01  -3.119579e+01
   8.596990e+01   2.023662e+01
   4.652102e+01   4.569685e+01
  -3.054323e+01   3.718532e+01
  -6.570036e+01   1.596520e+01
  -2.314312e+01   2.845252e+00
   3.979794e+01   5.129815e+00
   3.852135e+01   1.959876e+01
  -3.403167e+01   3.124164e+01
  -9.532202e+01   1.544649e+01
