
 $NMID
 id='ANONYMOUS ', fmtdat='(2E16.6)'
 volume=1.0
 tramp=1.0
 $END
   2.274569e+03  -6.943765e+00
   1.052422e+03   9.883497e+02
  -8.250147e+01   1.220574e+03
  -8.882441e+02   5.570133e+02
  -6.369328e+02  -2.123260e+02
   2.087922e+02  -2.900971e+01
   2.374740e+02   1.509438e+02
   1.242156e+01   3.959918e+02
  -3.318742e+02   4.095132e+02
  -4.606404e+02   5.971475e+01
  -2.324320e+02  -2.756874e+02
   4.616658e+01  -4.165602e+02
   1.866172e+02  -8.359448e+01
   1.471835e+02   2.844774e+02
  -8.889088e+01   3.262120e+02
  -2.189470e+02   9.685855e+00
  -1.184147e+02  -2.849045e+02
   1.104443e+02  -3.435821e+02
   2.020550e+02  -6.520290e+01
   1.716650e+02   1.225447e+02
   2.312962e+01   1.993964e+02
  -1.309125e+02   1.271831e+02
  -9.116500e+01   1.804516e+01
   9.127186e+01  -2.657550e+01
   1.956494e+02   9.760100e+01
   5.538564e+01   2.038316e+02
  -2.350259e+02   1.316230e+02
  -4.013107e+02  -7.124169e+01
  -1.765305e+02  -2.139387e+02
   1.801694e+02  -1.415413e+02
   3.373967e+02   6.611951e+01
   1.464830e+02   2.064715e+02
  -1.403502e+02   2.188555e+02
  -2.685885e+02   7.130390e+01
  -1.841467e+02  -1.117788e+02
  -3.048267e+01  -2.031466e+02
   4.029160e+01  -1.136883e+02
   3.471152e+01   8.949997e+01
  -8.965465e+01   1.700513e+02
  -1.693204e+02  -4.801682e+01
  -7.199426e+01  -3.141800e+02
   1.534204e+02  -3.313929e+02
   2.616223e+02  -5.067519e+00
   1.241733e+02   2.477133e+02
  -1.251409e+02   1.529471e+02
  -1.896606e+02  -1.425950e+02
   2.729435e+01  -2.647300e+02
   2.809855e+02  -9.089144e+01
   3.295772e+02   1.817963e+02
   1.244782e+02   2.940670e+02
  -1.707999e+02   1.948744e+02
  -3.191280e+02  -5.265012e+00
  -2.073861e+02  -1.578741e+02
   4.301281e+01  -1.665794e+02
   1.934948e+02  -4.992451e+01
   1.222191e+02   5.194600e+01
  -3.167289e+01   3.365077e+01
  -5.722716e+01  -5.290932e+01
   6.216266e+01  -7.099377e+01
   1.489157e+02   1.764780e+01
   7.938508e+01   1.143702e+02
  -7.432395e+01   1.307508e+02
  -1.641105e+02   7.211850e+01
  -1.301545e+02  -2.625713e+01
  -1.150497e+01  -1.395635e+02
   1.187198e+02  -2.000999e+02
   1.874835e+02  -1.175120e+02
   1.486371e+02   8.130832e+01
   3.827513e+01   2.229103e+02
  -4.275367e+01   1.874876e+02
  -3.862863e+01   6.361052e+01
  -9.252261e+00   1.755654e+01
  -3.873464e+01   6.126476e+01
  -1.148289e+02   6.639779e+01
  -1.451628e+02  -2.863850e+01
  -7.959762e+01  -1.299064e+02
   3.394052e+01  -1.192471e+02
   1.111348e+02  -6.364493e-01
   9.392349e+01   1.201429e+02
  -1.360511e+01   1.468651e+02
  -1.435089e+02   6.172031e+01
  -1.906580e+02  -7.751581e+01
  -1.073743e+02  -1.680137e+02
   3.210040e+01  -1.608188e+02
   9.968544e+01  -8.295681e+01
   7.006177e+01  -2.489864e+01
   5.409262e+01  -3.034939e+01
   1.273876e+02  -4.204613e+01
   2.179634e+02   1.847010e+01
   1.868680e+02   1.382580e+02
   1.066585e+01   2.319883e+02
  -1.832029e+02   2.277673e+02
  -2.501308e+02   1.126717e+02
  -1.637914e+02  -4.360765e+01
  -1.822740e+01  -1.433004e+02
   5.874685e+01  -1.167415e+02
   2.056490e+01  -1.022919e+01
  -7.203540e+01   4.774478e+01
  -9.891451e+01  -1.002631e+01
  -2.067912e+01  -9.889391e+01
   7.779176e+01  -8.447002e+01
   8.470293e+01   2.426573e+01
  -4.010561e+00   9.202371e+01
  -9.328581e+01   2.014193e+01
  -9.059342e+01  -1.199996e+02
  -1.107784e+00  -1.826950e+02
   1.144075e+02  -1.128729e+02
   1.800455e+02   2.042469e+01
   1.568506e+02   1.207743e+02
   5.199783e+01   1.391246e+02
  -5.802377e+01   8.432864e+01
  -8.391977e+01   1.432846e+01
  -2.127916e+01  -9.304998e+00
   3.444764e+01   2.659952e+01
   4.296490e+00   6.613178e+01
  -7.178753e+01   4.991864e+01
  -8.980182e+01  -7.898644e+00
  -2.174842e+01  -3.758955e+01
   4.835160e+01  -7.633282e+00
   3.004820e+01   4.302912e+01
  -6.898517e+01   5.514307e+01
  -1.564196e+02   7.814669e+00
  -1.467520e+02  -7.360488e+01
  -3.573387e+01  -1.393344e+02
   9.523092e+01  -1.410211e+02
   1.463364e+02  -6.780133e+01
   8.543593e+01   2.415007e+01
  -1.472537e+01   5.177015e+01
  -4.737891e+01  -2.959920e-01
   1.703062e+01  -5.612839e+01
   1.028867e+02  -3.572540e+01
   1.155742e+02   4.707716e+01
   4.341024e+01   1.043614e+02
  -4.321414e+01   8.230684e+01
  -7.113819e+01   1.652196e+01
  -3.103008e+01  -2.065615e+01
   2.362296e+01   2.600009e+00
   2.591643e+01   5.352302e+01
  -3.909156e+01   7.197577e+01
  -1.122597e+02   2.505050e+01
  -1.109200e+02  -6.100263e+01
  -1.970070e+01  -1.166352e+02
   8.081400e+01  -9.279758e+01
   9.950961e+01  -1.142426e+01
   3.475070e+01   5.536398e+01
  -3.367155e+01   5.806545e+01
  -4.180613e+01   1.577255e+01
  -4.203641e+00  -1.673519e+01
   1.977782e+01  -1.121139e+01
  -1.035874e+00   1.049152e+01
  -4.351114e+01   5.995821e+00
  -5.911951e+01  -3.897250e+01
  -1.720888e+01  -8.895260e+01
   6.560349e+01  -9.027584e+01
   1.286369e+02  -2.246593e+01
   1.144268e+02   7.347440e+01
   3.176408e+01   1.230225e+02
  -4.928692e+01   9.329970e+01
  -6.815492e+01   2.311393e+01
  -3.926838e+01  -1.995853e+01
  -1.764485e+01  -1.253317e+01
  -3.071568e+01   9.875428e+00
  -4.678586e+01   4.644010e+00
  -2.935483e+01  -2.921949e+01
   1.870616e+01  -5.327005e+01
   5.933484e+01  -3.656968e+01
   5.508777e+01   1.941417e+01
  -3.472815e+00   6.730398e+01
  -7.961314e+01   5.618545e+01
  -1.137808e+02  -2.057546e+01
  -6.023689e+01  -1.055281e+02
   5.046688e+01  -1.262344e+02
   1.357027e+02  -6.177421e+01
   1.333855e+02   3.267400e+01
   6.064919e+01   8.314602e+01
  -1.298905e+01   7.431701e+01
  -3.979604e+01   4.559472e+01
  -3.168241e+01   3.942583e+01
  -2.656221e+01   5.215929e+01
  -4.402598e+01   4.589267e+01
  -6.952695e+01  -3.266572e+00
  -6.979939e+01  -7.436760e+01
  -2.539644e+01  -1.164058e+02
   4.494802e+01  -9.185808e+01
   9.052114e+01  -1.413550e+01
   7.354414e+01   6.071426e+01
   1.174576e+01   8.194550e+01
  -3.580497e+01   4.730694e+01
  -3.245649e+01  -1.877681e+00
  -8.864355e-01  -2.569152e+01
   9.200195e+00  -1.905283e+01
  -1.771845e+01  -5.566207e+00
  -4.510698e+01  -5.852672e+00
  -2.789245e+01  -1.834055e+01
   3.403068e+01  -2.451691e+01
   8.801832e+01  -9.002750e+00
   7.937876e+01   2.376979e+01
   8.111047e+00   4.958644e+01
  -6.510107e+01   4.423976e+01
  -7.737361e+01   9.606817e+00
  -2.641620e+01  -2.352091e+01
   3.108471e+01  -2.429965e+01
   4.308858e+01   6.194013e+00
   1.159046e+01   3.532573e+01
  -2.261511e+01   3.253176e+01
  -3.332046e+01   1.957642e+00
  -2.753109e+01  -2.329353e+01
  -2.424069e+01  -1.846929e+01
  -2.897286e+01   3.396559e+00
  -3.320249e+01   4.429108e+00
  -2.356323e+01  -3.330448e+01
   8.492051e+00  -7.835147e+01
   5.635989e+01  -7.980357e+01
   8.841775e+01  -2.387118e+01
   6.933264e+01   4.528572e+01
   4.923393e+00   6.979999e+01
  -4.775724e+01   3.796989e+01
  -3.519137e+01  -6.590429e+00
   2.966995e+01  -1.661452e+01
   7.449395e+01   1.372603e+01
   4.427528e+01   5.141594e+01
  -3.791550e+01   6.035971e+01
  -9.749365e+01   3.166506e+01
  -8.377690e+01  -1.401113e+01
  -1.830176e+01  -4.341895e+01
   3.363288e+01  -3.485002e+01
   2.727692e+01  -5.304883e-01
  -2.033378e+01   1.919943e+01
  -5.126188e+01  -6.655598e+00
  -2.623234e+01  -6.048075e+01
   3.721374e+01  -8.550084e+01
   8.280249e+01  -4.163902e+01
   7.139689e+01   4.565592e+01
   1.581863e+01   1.027251e+02
  -3.886891e+01   7.889608e+01
  -5.725113e+01  -3.164955e-01
  -3.718653e+01  -6.116591e+01
  -5.954977e-01  -5.686103e+01
   2.549890e+01  -1.214354e+01
   2.677250e+01   1.478480e+01
   1.060741e+01   3.748225e+00
   1.766901e+00  -1.075404e+01
   1.587516e+01   7.291726e+00
   3.543086e+01   4.404568e+01
   2.389327e+01   5.587037e+01
  -2.680657e+01   2.677036e+01
  -7.502842e+01  -1.395936e+01
  -6.954074e+01  -3.253515e+01
  -1.132879e+01  -2.730352e+01
   4.365509e+01  -1.638514e+01
   4.642987e+01  -6.975771e+00
   9.009990e+00   4.386270e+00
  -1.745501e+01   1.295400e+01
  -8.298980e+00   9.373699e+00
   9.083277e+00  -6.511635e-01
  -2.608572e+00  -1.573803e+00
  -3.753053e+01   4.608889e+00
  -5.104168e+01  -6.213781e+00
  -1.383474e+01  -4.152891e+01
   5.181570e+01  -6.769375e+01
   9.369235e+01  -4.348604e+01
   7.958945e+01   2.533042e+01
   2.296281e+01   8.356562e+01
  -3.419969e+01   8.452545e+01
  -5.787289e+01   3.752439e+01
  -4.422408e+01  -8.144778e+00
  -1.603290e+01  -1.844211e+01
  -5.248450e-01  -4.934778e+00
  -7.007434e+00  -2.147529e+00
  -2.015347e+01  -2.418161e+01
  -1.621238e+01  -4.815135e+01
   1.235512e+01  -4.026469e+01
   4.434487e+01   4.412234e+00
   4.731044e+01   5.103318e+01
   1.001335e+01   5.806082e+01
  -4.015144e+01   1.935736e+01
  -5.767796e+01  -3.014236e+01
  -2.385712e+01  -5.106407e+01
   2.975138e+01  -3.445655e+01
   5.122482e+01  -5.533671e-01
   2.379087e+01   2.551387e+01
  -1.480776e+01   3.077623e+01
  -1.728815e+01   1.631676e+01
   1.527326e+01  -3.522685e+00
   3.542163e+01  -7.587309e+00
   1.000444e+01   1.304132e+01
  -3.841484e+01   3.801262e+01
  -6.011608e+01   3.418187e+01
  -3.661438e+01  -5.475402e+00
   4.008177e+00  -4.567220e+01
   2.600453e+01  -4.553588e+01
   2.157432e+01  -6.576028e+00
   4.899384e+00   2.839635e+01
  -1.107495e+01   2.474194e+01
  -2.005353e+01  -6.562937e+00
  -1.666459e+01  -2.774157e+01
   3.430140e-01  -1.931489e+01
   1.904691e+01   2.424984e+00
   2.327870e+01   1.083374e+01
   1.069917e+01   1.084974e+00
  -2.631567e+00  -8.216328e+00
  -3.730172e+00  -2.945183e-01
   1.131943e+00   1.841477e+01
  -2.595405e+00   2.596987e+01
  -1.578951e+01   8.847260e+00
  -2.164966e+01  -1.970203e+01
  -5.921761e+00  -3.209700e+01
   2.211653e+01  -1.505973e+01
   3.438615e+01   1.577138e+01
   1.250245e+01   3.237516e+01
  -2.835050e+01   2.246907e+01
  -4.952651e+01  -2.028774e+00
  -2.871941e+01  -2.135347e+01
   1.367314e+01  -2.563710e+01
   3.403608e+01  -1.671956e+01
   1.425011e+01  -3.380610e+00
  -1.711631e+01   3.316809e+00
  -1.916817e+01  -3.423137e+00
   1.304198e+01  -1.604575e+01
   4.395994e+01  -1.439951e+01
