
 $NMID
 id='ANONYMOUS ', fmtdat='(2E16.6)'
 volume=1.0
 tramp=1.0
 $END
  -4.628477e+03   1.497541e+02
  -2.863259e+03  -3.159355e+03
   1.107692e+03  -2.970081e+03
   2.645259e+03  -7.354680e+02
   9.862333e+02   8.429865e+02
  -8.796566e+02   8.175880e+02
  -1.182853e+03  -6.387611e+02
   9.868324e+01  -1.333345e+03
   8.778739e+02  -9.126351e+02
   1.177474e+03   1.455127e+02
   4.728445e+02   1.044104e+03
  -4.014830e+02   1.040051e+03
  -7.950833e+02   1.160143e+02
  -4.354138e+02  -8.189230e+02
   3.459021e+02  -8.298910e+02
   7.048131e+02   6.403435e+01
   2.810665e+02   7.853012e+02
  -4.276830e+02   7.039612e+02
  -6.989596e+02   4.675994e+01
  -4.160999e+02  -4.554057e+02
   3.568512e+01  -5.190284e+02
   3.032600e+02  -2.603198e+02
   2.736454e+02   3.210336e+01
  -1.372075e+02   1.451245e+02
  -4.789713e+02  -1.081382e+02
  -2.399505e+02  -4.974116e+02
   5.080046e+02  -4.856117e+02
   9.688735e+02   8.500410e+01
   4.889498e+02   6.592587e+02
  -4.403386e+02   5.790696e+02
  -8.586318e+02  -2.607024e+01
  -3.744388e+02  -5.515833e+02
   3.435439e+02  -5.944515e+02
   6.267237e+02  -2.113220e+02
   4.531224e+02   2.669760e+02
   7.986342e+01   5.176469e+02
  -2.483959e+02   3.080484e+02
  -2.256511e+02  -2.480688e+02
   1.667894e+02  -4.864201e+02
   5.200113e+02   1.065540e+01
   2.931279e+02   7.669223e+02
  -3.732762e+02   8.046302e+02
  -7.262170e+02  -2.674532e+00
  -3.089591e+02  -6.424952e+02
   3.481215e+02  -3.722711e+02
   4.380926e+02   3.758597e+02
  -1.022852e+02   6.203668e+02
  -6.316907e+02   1.301319e+02
  -6.183197e+02  -4.911087e+02
  -1.126163e+02  -6.652874e+02
   4.659716e+02  -3.566254e+02
   6.841977e+02   1.346303e+02
   3.672835e+02   4.776397e+02
  -2.223171e+02   4.208954e+02
  -5.214327e+02   2.863444e+01
  -2.596376e+02  -2.698386e+02
   1.671431e+02  -1.413831e+02
   1.788263e+02   1.927794e+02
  -2.041684e+02   2.286221e+02
  -4.121216e+02  -1.011659e+02
  -1.465567e+02  -3.641442e+02
   2.607521e+02  -2.776781e+02
   3.694439e+02  -3.532029e+01
   1.742097e+02   1.142010e+02
  -6.785766e+01   2.076625e+02
  -2.378773e+02   3.028280e+02
  -3.383345e+02   2.182991e+02
  -2.990614e+02  -1.429656e+02
  -7.822653e+01  -4.782457e+02
   1.482740e+02  -4.309926e+02
   1.699843e+02  -1.151565e+02
   5.061641e+01   4.857823e+01
   3.785616e+01  -5.592139e+01
   1.893214e+02  -1.258539e+02
   2.902113e+02   5.187261e+01
   1.737636e+02   2.895914e+02
  -7.605596e+01   2.894141e+02
  -2.531746e+02   3.126707e+01
  -2.272119e+02  -2.477141e+02
  -1.346948e+00  -3.202951e+02
   2.812043e+02  -1.343291e+02
   3.856339e+02   1.837965e+02
   1.892282e+02   3.918670e+02
  -1.323108e+02   3.326524e+02
  -2.709824e+02   1.071659e+02
  -1.716723e+02  -2.493370e+01
  -9.468588e+01   1.654567e+01
  -2.330068e+02   5.823497e+01
  -4.126652e+02  -7.889037e+01
  -3.349230e+02  -3.216243e+02
   2.790236e+01  -4.669574e+02
   4.045704e+02  -4.148502e+02
   5.307037e+02  -1.909647e+02
   3.624414e+02   1.091315e+02
   5.785867e+01   3.291005e+02
  -1.524789e+02   2.888090e+02
  -1.126286e+02   3.587824e+01
   1.051948e+02  -1.296057e+02
   2.194431e+02  -4.684791e+00
   6.260200e+01   2.205726e+02
  -1.843714e+02   2.011562e+02
  -2.099904e+02  -6.972794e+01
   1.946764e+01  -2.246747e+02
   2.184995e+02  -3.715652e+01
   1.674720e+02   2.804882e+02
  -5.884119e+01   3.772302e+02
  -2.590499e+02   1.847539e+02
  -3.322693e+02  -9.445950e+01
  -2.729738e+02  -2.663769e+02
  -9.200277e+01  -2.784832e+02
   1.227031e+02  -1.655818e+02
   1.976383e+02  -1.745146e+01
   7.210677e+01   3.983863e+01
  -7.429825e+01  -3.968479e+01
  -3.505842e+01  -1.369278e+02
   1.368623e+02  -1.074095e+02
   2.010014e+02   2.092687e+01
   6.790309e+01   8.665318e+01
  -8.571275e+01   2.130411e+01
  -5.949841e+01  -7.480375e+01
   1.285185e+02  -8.175607e+01
   2.904247e+02   1.448352e+01
   2.680366e+02   1.550576e+02
   5.677056e+01   2.673110e+02
  -2.006103e+02   2.703098e+02
  -3.103562e+02   1.278544e+02
  -1.906367e+02  -6.201277e+01
   2.425583e+01  -1.227134e+02
   1.007627e+02  -1.044692e+01
  -3.437148e+01   1.070567e+02
  -2.117515e+02   5.484234e+01
  -2.251801e+02  -1.236017e+02
  -6.284878e+01  -2.317601e+02
   1.133240e+02  -1.684466e+02
   1.622784e+02  -2.550140e+01
   8.234388e+01   5.043475e+01
  -2.214593e+01   1.195261e+01
  -3.645184e+01  -7.547433e+01
   7.129959e+01  -1.078852e+02
   2.014936e+02  -2.467202e+01
   1.955207e+02   1.331107e+02
   1.468134e+01   2.324796e+02
  -1.841029e+02   1.704927e+02
  -2.117452e+02  -3.011110e+00
  -6.734400e+01  -1.301392e+02
   7.666219e+01  -1.184961e+02
   9.248281e+01  -2.888400e+01
   2.318568e+01   2.723800e+01
  -1.686575e+01   1.824421e+01
   1.272167e+01  -2.210731e+00
   6.652211e+01   2.046093e+01
   7.618723e+01   9.005043e+01
   2.965996e+00   1.570198e+02
  -1.341194e+02   1.454015e+02
  -2.386563e+02   1.634332e+01
  -2.021460e+02  -1.647777e+02
  -3.278229e+01  -2.543472e+02
   1.252446e+02  -1.785815e+02
   1.479204e+02  -2.106119e+01
   7.370287e+01   6.653847e+01
   2.913070e+01   4.155906e+01
   5.815353e+01  -8.004831e+00
   8.321126e+01   6.201903e-01
   3.620272e+01   5.515712e+01
  -5.268189e+01   8.545343e+01
  -1.060467e+02   4.646723e+01
  -7.935788e+01  -3.939098e+01
   1.980288e+01  -1.045056e+02
   1.417877e+02  -7.399999e+01
   1.926223e+02   6.225652e+01
   9.219538e+01   2.094752e+02
  -1.188922e+02   2.288226e+02
  -2.830242e+02   8.432159e+01
  -2.695435e+02  -1.066190e+02
  -1.106141e+02  -1.961024e+02
   4.824446e+01  -1.573409e+02
   1.087660e+02  -8.727734e+01
   9.476281e+01  -7.172053e+01
   8.180435e+01  -9.262446e+01
   1.046904e+02  -6.974954e+01
   1.344832e+02   3.531097e+01
   1.147218e+02   1.725216e+02
   1.755363e+01   2.412948e+02
  -1.154441e+02   1.769510e+02
  -1.886933e+02   1.408864e+01
  -1.391110e+02  -1.333985e+02
  -1.391030e+01  -1.681630e+02
   7.188792e+01  -9.547562e+01
   6.004767e+01  -1.846642e+00
   4.517822e+00   4.059915e+01
  -7.366646e+00   3.456694e+01
   3.882382e+01   2.381638e+01
   7.649450e+01   3.092942e+01
   3.937939e+01   4.151834e+01
  -6.617260e+01   3.172707e+01
  -1.580773e+02  -6.445301e+00
  -1.452864e+02  -5.868448e+01
  -1.689818e+01  -9.100943e+01
   1.250226e+02  -7.229168e+01
   1.534450e+02  -9.998859e+00
   5.127572e+01   4.294673e+01
  -6.498410e+01   3.559418e+01
  -7.801172e+01  -2.342827e+01
   1.758225e-01  -7.108803e+01
   6.670760e+01  -5.585381e+01
   6.596529e+01   7.893278e+00
   3.879035e+01   5.641677e+01
   4.091814e+01   4.731554e+01
   6.519393e+01   7.688398e+00
   6.843845e+01   6.566242e+00
   2.804493e+01   7.340803e+01
  -4.627560e+01   1.486486e+02
  -1.272573e+02   1.386376e+02
  -1.686572e+02   2.434680e+01
  -1.240562e+02  -1.015982e+02
  -5.656881e+00  -1.314086e+02
   8.808955e+01  -5.992154e+01
   6.223433e+01   1.698692e+01
  -5.816848e+01   1.515341e+01
  -1.368736e+02  -5.419861e+01
  -7.153234e+01  -1.157532e+02
   9.014309e+01  -1.116475e+02
   2.017726e+02  -4.335084e+01
   1.681137e+02   4.495783e+01
   3.482351e+01   9.507709e+01
  -6.709719e+01   7.346576e+01
  -5.182038e+01   7.477011e+00
   4.162885e+01  -2.474967e+01
   9.240929e+01   2.963638e+01
   2.462668e+01   1.267062e+02
  -1.095283e+02   1.548677e+02
  -1.823835e+02   5.244029e+01
  -1.259934e+02  -1.148107e+02
   4.113111e+00  -2.070547e+02
   9.975562e+01  -1.448544e+02
   1.082614e+02   1.278387e+01
   5.617129e+01   1.260607e+02
  -6.680217e+00   1.118993e+02
  -4.916892e+01   1.955543e+01
  -5.622157e+01  -3.613105e+01
  -3.009970e+01  -1.185901e+01
  -3.691841e+00   2.176357e+01
  -1.571616e+01  -1.486495e+01
  -5.183486e+01  -9.522953e+01
  -4.207386e+01  -1.188820e+02
   4.707755e+01  -4.619048e+01
   1.425252e+02   5.001517e+01
   1.343427e+02   8.244601e+01
   1.541041e+01   5.123839e+01
  -9.554541e+01   1.579134e+01
  -9.270905e+01   3.281129e+00
  -7.636861e+00  -6.325389e+00
   4.366366e+01  -2.105911e+01
   1.396782e+01  -2.055370e+01
  -2.482971e+01  -6.129193e-01
   6.064452e+00   1.301858e+01
   7.879883e+01   1.307376e+01
   9.147021e+01   3.244084e+01
  -2.861688e+00   8.250636e+01
  -1.360908e+02   1.076101e+02
  -1.970149e+02   4.405144e+01
  -1.396342e+02  -8.429118e+01
  -1.355175e+01  -1.732998e+02
   9.312583e+01  -1.505365e+02
   1.241008e+02  -5.109518e+01
   8.450516e+01   2.965003e+01
   2.416852e+01   3.869044e+01
  -5.063998e+00   8.076609e+00
   9.074894e+00   4.218099e+00
   3.204341e+01   4.997511e+01
   1.854687e+01   9.631241e+01
  -3.632925e+01   7.327010e+01
  -8.550744e+01  -2.601447e+01
  -7.322298e+01  -1.206487e+02
   5.837102e+00  -1.182918e+02
   8.997898e+01  -1.744821e+01
   1.019196e+02   8.746213e+01
   2.452203e+01   1.091170e+02
  -7.305472e+01   5.112223e+01
  -9.859795e+01  -1.852506e+01
  -3.526864e+01  -5.103043e+01
   3.654944e+01  -4.797085e+01
   3.079723e+01  -2.746797e+01
  -3.871332e+01  -4.081010e+00
  -7.327743e+01   1.753938e+00
  -1.293489e+01  -2.605986e+01
   8.696911e+01  -6.330566e+01
   1.220682e+02  -5.489976e+01
   6.249092e+01   1.532187e+01
  -2.353947e+01   8.477273e+01
  -5.939556e+01   7.693206e+01
  -3.619364e+01  -5.723508e-01
   4.852485e+00  -6.024745e+01
   3.108940e+01  -4.051872e+01
   3.669250e+01   2.556921e+01
   2.308452e+01   5.883620e+01
  -5.794699e+00   3.153949e+01
  -3.350276e+01  -1.275951e+01
  -3.904362e+01  -2.286911e+01
  -2.143059e+01  -5.596259e-01
  -1.350601e+00   1.371409e+01
   7.251555e+00  -5.635506e+00
   1.187675e+01  -3.845151e+01
   2.339609e+01  -4.275924e+01
   3.425332e+01  -2.229633e+00
   2.516991e+01   5.029173e+01
  -9.571100e+00   6.224841e+01
  -4.791510e+01   1.677369e+01
  -5.395430e+01  -4.544070e+01
  -9.814001e+00  -6.613888e+01
   5.813913e+01  -3.010339e+01
   8.940561e+01   2.348312e+01
   4.658905e+01   4.881212e+01
  -3.395460e+01   3.792354e+01
  -6.935911e+01   1.464665e+01
  -2.380218e+01   1.829787e+00
   4.180045e+01   6.059067e+00
   3.958699e+01   2.111502e+01
  -3.635385e+01   3.117677e+01
  -9.932277e+01   1.302296e+01
