
 $NMID
 id='ANONYMOUS ', fmtdat='(2E16.6)'
 volume=1.0
 tramp=1.0
 $END
  -5.089124e+03   1.826584e+02
  -2.976104e+03  -2.763966e+03
   1.019419e+03  -2.935126e+03
   2.389105e+03  -1.103444e+03
   1.246507e+03   7.710463e+02
  -6.999726e+02   6.286417e+02
  -9.930531e+02  -4.468303e+02
  -2.697979e+01  -1.250446e+03
   1.009584e+03  -9.962557e+02
   1.084804e+03   6.830541e+01
   6.009792e+02   1.089735e+03
  -2.854371e+02   1.043554e+03
  -8.089027e+02   1.183485e+02
  -4.334007e+02  -8.317030e+02
   3.452284e+02  -8.547259e+02
   7.387285e+02   3.098739e+01
   2.794545e+02   8.403887e+02
  -3.986591e+02   7.525509e+02
  -6.707831e+02   8.742327e+01
  -4.373635e+02  -4.462289e+02
  -2.960823e+01  -5.148760e+02
   2.792884e+02  -3.265369e+02
   2.917129e+02  -1.645299e+01
  -9.731218e+01   1.219564e+02
  -4.732116e+02  -8.338173e+01
  -2.782986e+02  -4.730217e+02
   4.962863e+02  -4.883791e+02
   1.001741e+03   7.251221e+01
   5.451486e+02   6.482743e+02
  -4.289904e+02   5.745983e+02
  -8.840909e+02  -4.100587e+01
  -4.064478e+02  -5.497025e+02
   3.543371e+02  -5.835676e+02
   6.527141e+02  -1.962222e+02
   4.652935e+02   2.948397e+02
   5.305086e+01   5.537491e+02
  -2.657543e+02   3.334425e+02
  -2.388164e+02  -2.804013e+02
   1.898297e+02  -5.531153e+02
   5.710244e+02  -7.045143e+00
   3.216198e+02   8.128238e+02
  -3.835180e+02   8.616142e+02
  -7.619496e+02   1.028291e+01
  -3.269166e+02  -7.061288e+02
   3.762603e+02  -4.214535e+02
   4.917678e+02   3.867619e+02
  -7.541089e+01   6.741627e+02
  -6.558712e+02   1.677351e+02
  -6.678526e+02  -4.917135e+02
  -1.514835e+02  -6.933332e+02
   4.701429e+02  -3.949254e+02
   7.300250e+02   1.185298e+02
   4.129752e+02   4.933543e+02
  -2.208163e+02   4.559279e+02
  -5.555424e+02   5.164521e+01
  -2.839992e+02  -2.846972e+02
   1.793813e+02  -1.688746e+02
   2.108229e+02   1.909841e+02
  -1.910538e+02   2.628208e+02
  -4.353234e+02  -6.199012e+01
  -1.832433e+02  -3.576144e+02
   2.419972e+02  -3.100001e+02
   3.835269e+02  -7.310167e+01
   2.057408e+02   1.077391e+02
  -4.949510e+01   2.397853e+02
  -2.509528e+02   3.414898e+02
  -3.708098e+02   2.272651e+02
  -3.202102e+02  -1.670132e+02
  -7.534704e+01  -5.040761e+02
   1.586779e+02  -4.347423e+02
   1.673664e+02  -1.081700e+02
   4.166442e+01   3.788960e+01
   4.394086e+01  -8.664610e+01
   2.124891e+02  -1.498470e+02
   3.185385e+02   5.751088e+01
   1.925552e+02   3.133314e+02
  -7.083370e+01   3.086827e+02
  -2.584615e+02   3.571488e+01
  -2.383779e+02  -2.571916e+02
  -4.748922e+00  -3.373577e+02
   2.981591e+02  -1.466922e+02
   4.191095e+02   1.844943e+02
   2.146977e+02   4.110568e+02
  -1.311827e+02   3.598053e+02
  -2.825810e+02   1.290976e+02
  -1.769926e+02  -1.936433e+01
  -9.237708e+01   2.012369e+01
  -2.420430e+02   7.000629e+01
  -4.421105e+02  -6.019235e+01
  -3.737300e+02  -3.169147e+02
   2.320356e+00  -4.932020e+02
   4.050960e+02  -4.585004e+02
   5.505181e+02  -2.238735e+02
   3.825280e+02   1.038682e+02
   6.421508e+01   3.360643e+02
  -1.525687e+02   2.878323e+02
  -1.059007e+02   2.187010e+01
   1.238675e+02  -1.383204e+02
   2.408363e+02   4.587547e+00
   7.292627e+01   2.417413e+02
  -1.865683e+02   2.138220e+02
  -2.193423e+02  -7.088406e+01
   1.404004e+01  -2.345187e+02
   2.259502e+02  -4.351440e+01
   1.838391e+02   2.877498e+02
  -4.650856e+01   3.969808e+02
  -2.637467e+02   2.085900e+02
  -3.572346e+02  -7.872919e+01
  -3.020491e+02  -2.662544e+02
  -1.083454e+02  -2.923355e+02
   1.217888e+02  -1.821801e+02
   2.008367e+02  -2.704593e+01
   6.981287e+01   3.633878e+01
  -8.142697e+01  -4.307704e+01
  -3.750820e+01  -1.457049e+02
   1.446291e+02  -1.190351e+02
   2.136649e+02   1.360678e+01
   7.430822e+01   8.844339e+01
  -9.050288e+01   2.632250e+01
  -6.675954e+01  -7.709276e+01
   1.336013e+02  -9.457805e+01
   3.113802e+02   4.341464e-01
   2.924298e+02   1.549442e+02
   6.853028e+01   2.858599e+02
  -2.054369e+02   2.958098e+02
  -3.216108e+02   1.424005e+02
  -1.957058e+02  -6.465122e+01
   2.845649e+01  -1.299740e+02
   1.071621e+02  -5.826292e+00
  -3.602706e+01   1.246390e+02
  -2.262032e+02   7.070580e+01
  -2.465452e+02  -1.235041e+02
  -7.809858e+01  -2.456162e+02
   1.116217e+02  -1.828876e+02
   1.692471e+02  -3.091733e+01
   8.517043e+01   5.105979e+01
  -2.877171e+01   9.146651e+00
  -4.400927e+01  -8.690113e+01
   7.533596e+01  -1.245043e+02
   2.192590e+02  -3.544744e+01
   2.155277e+02   1.361695e+02
   2.410709e+01   2.478234e+02
  -1.883477e+02   1.869868e+02
  -2.214289e+02   2.855841e+00
  -7.261052e+01  -1.357169e+02
   7.881655e+01  -1.273006e+02
   9.700752e+01  -3.177539e+01
   2.352865e+01   3.034808e+01
  -1.963903e+01   2.077416e+01
   1.437823e+01  -5.242082e+00
   7.685839e+01   1.636262e+01
   9.082485e+01   9.425719e+01
   1.062462e+01   1.737586e+02
  -1.418651e+02   1.665047e+02
  -2.587910e+02   2.723637e+01
  -2.222972e+02  -1.703968e+02
  -4.272514e+01  -2.699364e+02
   1.261186e+02  -1.915086e+02
   1.530156e+02  -2.568496e+01
   7.772369e+01   6.738665e+01
   3.212715e+01   4.019667e+01
   6.130400e+01  -1.334630e+01
   8.743825e+01  -4.420126e+00
   4.076205e+01   5.569588e+01
  -4.914459e+01   9.120665e+01
  -1.074088e+02   5.370293e+01
  -8.523546e+01  -3.904664e+01
   1.686925e+01  -1.147234e+02
   1.507925e+02  -8.822847e+01
   2.141666e+02   5.656131e+01
   1.136112e+02   2.216671e+02
  -1.157531e+02   2.544961e+02
  -2.988002e+02   1.076921e+02
  -2.906324e+02  -9.778087e+01
  -1.231244e+02  -2.002703e+02
   4.441628e+01  -1.657433e+02
   1.063947e+02  -9.373236e+01
   8.944877e+01  -7.713047e+01
   7.673935e+01  -1.012730e+02
   1.057633e+02  -8.227565e+01
   1.437220e+02   2.526966e+01
   1.295857e+02   1.726187e+02
   3.097668e+01   2.528632e+02
  -1.116131e+02   1.931165e+02
  -1.969402e+02   2.425371e+01
  -1.529386e+02  -1.349703e+02
  -2.233178e+01  -1.785786e+02
   7.337196e+01  -1.055004e+02
   6.582727e+01  -5.176318e+00
   7.290383e+00   4.367081e+01
  -7.308879e+00   3.806707e+01
   4.253184e+01   2.342721e+01
   8.563409e+01   2.830151e+01
   4.689311e+01   4.201247e+01
  -6.826261e+01   3.786377e+01
  -1.690561e+02   1.429005e+00
  -1.559657e+02  -5.522503e+01
  -1.987276e+01  -9.464796e+01
   1.293638e+02  -7.955141e+01
   1.589875e+02  -1.485685e+01
   5.340099e+01   4.312297e+01
  -6.636819e+01   3.850456e+01
  -8.144565e+01  -2.252470e+01
  -3.898541e+00  -7.410637e+01
   6.378550e+01  -6.035332e+01
   6.574399e+01   5.094619e+00
   4.193714e+01   5.549759e+01
   4.538990e+01   4.505464e+01
   7.000908e+01   1.596413e+00
   7.410883e+01   1.093221e-01
   3.574197e+01   7.272684e+01
  -3.913350e+01   1.566289e+02
  -1.256937e+02   1.504497e+02
  -1.740244e+02   3.322323e+01
  -1.297135e+02  -9.921888e+01
  -4.726660e+00  -1.327944e+02
   9.415564e+01  -6.008234e+01
   6.384315e+01   2.054618e+01
  -6.767177e+01   2.046375e+01
  -1.532091e+02  -5.191468e+01
  -8.354854e+01  -1.201396e+02
   9.023691e+01  -1.224164e+02
   2.115956e+02  -5.485882e+01
   1.793297e+02   3.920962e+01
   4.059313e+01   9.721804e+01
  -6.759093e+01   7.840169e+01
  -5.424300e+01   8.485614e+00
   4.262429e+01  -2.855537e+01
   9.813123e+01   2.764872e+01
   3.088323e+01   1.333453e+02
  -1.089695e+02   1.678053e+02
  -1.897592e+02   6.101805e+01
  -1.367776e+02  -1.193404e+02
  -2.548878e+00  -2.217963e+02
   1.020455e+02  -1.586383e+02
   1.181045e+02   9.323868e+00
   6.719451e+01   1.324610e+02
  -8.270147e-01   1.209093e+02
  -4.978921e+01   2.576879e+01
  -5.947928e+01  -3.298498e+01
  -3.208765e+01  -9.832629e+00
  -5.145496e+00   2.254659e+01
  -2.041415e+01  -1.644435e+01
  -5.969813e+01  -9.898969e+01
  -4.707178e+01  -1.231022e+02
   5.104781e+01  -4.973320e+01
   1.539111e+02   4.744196e+01
   1.444472e+02   8.218371e+01
   1.732803e+01   5.487795e+01
  -1.003661e+02   2.173011e+01
  -9.781347e+01   6.973119e+00
  -9.071127e+00  -7.528374e+00
   4.405563e+01  -2.442906e+01
   1.359160e+01  -2.162785e+01
  -2.519585e+01   3.035328e-01
   9.446384e+00   1.148487e+01
   8.722170e+01   8.681048e+00
   1.007780e+02   3.150140e+01
   1.499954e+00   9.131382e+01
  -1.397528e+02   1.236558e+02
  -2.072987e+02   5.741081e+01
  -1.520023e+02  -8.198607e+01
  -2.276552e+01  -1.816812e+02
   9.037918e+01  -1.624793e+02
   1.274119e+02  -5.952639e+01
   8.983393e+01   2.669219e+01
   2.718354e+01   3.921843e+01
  -5.343266e+00   8.886039e+00
   9.234284e+00   4.481759e+00
   3.595852e+01   5.115895e+01
   2.446963e+01   1.000548e+02
  -3.466479e+01   7.838262e+01
  -9.179982e+01  -2.345378e+01
  -8.324373e+01  -1.235073e+02
   5.692643e-01  -1.249733e+02
   9.435324e+01  -2.300221e+01
   1.113068e+02   8.707956e+01
   3.032374e+01   1.135231e+02
  -7.472731e+01   5.658376e+01
  -1.039101e+02  -1.606384e+01
  -3.820301e+01  -5.323600e+01
   3.715012e+01  -5.218480e+01
   3.171371e+01  -2.925796e+01
  -4.044390e+01  -1.555064e+00
  -7.683079e+01   5.263943e+00
  -1.490982e+01  -2.749458e+01
   8.842380e+01  -7.111803e+01
   1.265719e+02  -6.330453e+01
   6.777457e+01   1.384017e+01
  -1.989281e+01   9.100623e+01
  -5.891588e+01   8.463306e+01
  -3.873737e+01   2.048375e+00
   1.856742e+00  -6.296635e+01
   3.058388e+01  -4.363720e+01
   3.916863e+01   2.528356e+01
   2.567977e+01   6.058714e+01
  -6.413256e+00   3.272524e+01
  -3.682023e+01  -1.304189e+01
  -4.163492e+01  -2.346217e+01
  -2.138585e+01  -1.738938e-01
  -7.204949e-02   1.409082e+01
   7.403473e+00  -7.034939e+00
   1.083104e+01  -4.221006e+01
   2.383482e+01  -4.648476e+01
   3.762388e+01  -2.909359e+00
   2.949443e+01   5.376346e+01
  -8.020103e+00   6.731259e+01
  -5.092250e+01   1.950773e+01
  -5.928618e+01  -4.686514e+01
  -1.225489e+01  -7.043178e+01
   6.151117e+01  -3.455262e+01
   9.624289e+01   2.191093e+01
   5.136735e+01   5.139211e+01
  -3.478815e+01   4.333282e+01
  -7.337630e+01   1.946225e+01
  -2.583123e+01   3.170966e+00
   4.384398e+01   4.180933e+00
   4.205383e+01   2.069441e+01
  -3.822518e+01   3.502228e+01
  -1.060943e+02   1.786162e+01
