
 $NMID
 id='ANONYMOUS ', fmtdat='(2E16.6)'
 volume=1.0
 tramp=1.0
 $END
   2.745318e+03   1.187649e+02
   1.799157e+03   1.586041e+03
   4.040793e+01   1.856880e+03
  -1.101593e+03   1.022909e+03
  -6.205707e+02  -2.766740e+02
   2.359357e+02  -2.430044e+02
   4.840943e+02   2.176878e+02
  -5.915085e+01   6.280976e+02
  -4.835023e+02   5.127070e+02
  -6.480494e+02   3.967032e+01
  -3.205384e+02  -4.668774e+02
   9.139021e+01  -5.462178e+02
   3.189715e+02  -1.755096e+02
   2.222657e+02   3.618761e+02
  -1.297187e+02   4.718412e+02
  -3.496789e+02   6.426296e+01
  -2.007266e+02  -4.259775e+02
   1.651481e+02  -5.221465e+02
   4.184522e+02  -1.536357e+02
   3.515606e+02   2.153958e+02
   8.194950e+01   3.156924e+02
  -1.538022e+02   1.908041e+02
  -1.012770e+02   4.407106e+01
   9.389277e+01   4.384713e+01
   2.250758e+02   1.770220e+02
   4.743699e+01   2.760209e+02
  -3.085771e+02   1.805323e+02
  -4.902838e+02  -1.207715e+02
  -2.144184e+02  -2.964791e+02
   2.456543e+02  -2.092360e+02
   4.243364e+02   7.524939e+01
   1.973214e+02   3.235106e+02
  -1.792513e+02   3.172119e+02
  -3.824307e+02   1.266774e+02
  -2.855552e+02  -1.459676e+02
  -7.817117e+01  -2.799071e+02
   5.078203e+01  -1.652237e+02
   2.881101e+01   7.905809e+01
  -1.171942e+02   1.751597e+02
  -1.902625e+02  -8.192524e+01
  -5.908311e+01  -4.060286e+02
   1.947642e+02  -3.799780e+02
   2.857497e+02   1.092763e+01
   1.124256e+02   2.996538e+02
  -1.482345e+02   1.494492e+02
  -1.872680e+02  -2.175352e+02
   7.011754e+01  -3.326986e+02
   3.620097e+02  -7.183699e+01
   3.889916e+02   2.858621e+02
   1.149339e+02   3.990976e+02
  -2.468920e+02   2.269723e+02
  -4.113883e+02  -3.929765e+01
  -2.677681e+02  -2.101314e+02
   4.503116e+01  -2.045270e+02
   2.394004e+02  -7.017344e+01
   1.703421e+02   4.947548e+01
  -1.755123e+01   4.025386e+01
  -6.307365e+01  -5.831025e+01
   8.314291e+01  -8.360358e+01
   2.032486e+02   3.418887e+01
   1.053664e+02   1.777632e+02
  -1.278390e+02   1.957090e+02
  -2.549088e+02   7.504901e+01
  -1.641293e+02  -8.721988e+01
   4.192560e+01  -2.056492e+02
   2.001444e+02  -2.278653e+02
   2.352878e+02  -1.127783e+02
   1.652268e+02   1.031113e+02
   5.290257e+01   2.691417e+02
  -3.018829e+01   2.571525e+02
  -5.118293e+01   1.246784e+02
  -5.185997e+01   3.854637e+01
  -9.141630e+01   4.773783e+01
  -1.565779e+02   3.811773e+01
  -1.650809e+02  -6.821831e+01
  -7.518036e+01  -1.775399e+02
   5.929224e+01  -1.530005e+02
   1.440538e+02   6.991456e+00
   1.161389e+02   1.613193e+02
  -1.745911e+01   1.831421e+02
  -1.765005e+02   6.094476e+01
  -2.338383e+02  -1.150939e+02
  -1.253359e+02  -2.229791e+02
   5.462839e+01  -2.037059e+02
   1.448746e+02  -1.045728e+02
   1.116342e+02  -3.159507e+01
   9.213723e+01  -3.157460e+01
   1.801199e+02  -2.630943e+01
   2.833989e+02   6.281734e+01
   2.233071e+02   2.130528e+02
  -2.017574e+01   3.114584e+02
  -2.752478e+02   2.769505e+02
  -3.450513e+02   1.177546e+02
  -2.141303e+02  -7.922011e+01
  -1.921605e+01  -1.951709e+02
   8.305046e+01  -1.612320e+02
   3.538792e+01  -2.933790e+01
  -7.433804e+01   5.055673e+01
  -1.118016e+02  -1.101749e+01
  -2.468185e+01  -1.127057e+02
   9.056526e+01  -9.696467e+01
   9.870481e+01   3.312902e+01
  -1.158926e+01   1.069917e+02
  -1.220711e+02   5.500245e+00
  -1.112448e+02  -1.754130e+02
   2.261377e+01  -2.474532e+02
   1.799658e+02  -1.382720e+02
   2.539581e+02   5.148831e+01
   1.976812e+02   1.853726e+02
   4.750342e+01   1.973324e+02
  -9.137967e+01   1.125666e+02
  -1.179872e+02   1.501378e+01
  -3.616680e+01  -1.514696e+01
   3.620188e+01   3.185575e+01
   2.716598e+00   7.972982e+01
  -8.911499e+01   5.607242e+01
  -1.125090e+02  -1.546396e+01
  -2.892360e+01  -4.582128e+01
   5.732670e+01   1.727197e+00
   2.866157e+01   6.470607e+01
  -1.032444e+02   6.286099e+01
  -2.106902e+02  -1.678845e+01
  -1.817165e+02  -1.221021e+02
  -2.503303e+01  -1.874360e+02
   1.421499e+02  -1.698778e+02
   1.951025e+02  -7.372152e+01
   1.099270e+02   3.316320e+01
  -1.437480e+01   6.392773e+01
  -5.043678e+01   4.036757e+00
   2.983075e+01  -5.721825e+01
   1.297527e+02  -2.789095e+01
   1.370523e+02   7.257144e+01
   4.186784e+01   1.375869e+02
  -6.516419e+01   1.025943e+02
  -9.366448e+01   1.698278e+01
  -3.944540e+01  -2.564815e+01
   2.359744e+01   8.983655e+00
   1.736934e+01   6.936670e+01
  -6.494506e+01   7.955353e+01
  -1.446712e+02   1.033860e+01
  -1.285059e+02  -9.425072e+01
  -9.295951e+00  -1.504940e+02
   1.114870e+02  -1.096665e+02
   1.279003e+02  -6.416105e+00
   4.280067e+01   7.125582e+01
  -4.260342e+01   7.000735e+01
  -5.037758e+01   1.927695e+01
  -4.591125e+00  -1.503156e+01
   1.965106e+01  -6.596410e+00
  -1.181999e+01   1.115256e+01
  -6.048702e+01  -8.470995e+00
  -6.592005e+01  -6.808915e+01
  -3.506062e-01  -1.198118e+02
   1.037024e+02  -1.040550e+02
   1.704259e+02  -7.737611e+00
   1.380731e+02   1.111650e+02
   2.687551e+01   1.656592e+02
  -7.513804e+01   1.189627e+02
  -9.543840e+01   2.439144e+01
  -5.262427e+01  -3.277463e+01
  -2.342137e+01  -2.323852e+01
  -4.088144e+01   7.909875e+00
  -6.319946e+01   4.505737e-01
  -3.648966e+01  -4.370977e+01
   3.418865e+01  -7.189960e+01
   8.808606e+01  -4.121588e+01
   7.154683e+01   3.503987e+01
  -1.697014e+01   8.913586e+01
  -1.166828e+02   6.054763e+01
  -1.437698e+02  -4.597291e+01
  -5.873579e+01  -1.485841e+02
   8.768695e+01  -1.584143e+02
   1.879900e+02  -6.008568e+01
   1.723882e+02   6.620070e+01
   7.052597e+01   1.247359e+02
  -2.816485e+01   9.991703e+01
  -6.336132e+01   5.525383e+01
  -5.332126e+01   4.771044e+01
  -4.816464e+01   6.599808e+01
  -6.982606e+01   5.306598e+01
  -9.364121e+01  -1.987363e+01
  -7.859681e+01  -1.160323e+02
  -1.000970e+01  -1.621957e+02
   7.820734e+01  -1.155048e+02
   1.234955e+02  -3.712535e+00
   8.793916e+01   9.371642e+01
   3.152606e+00   1.126111e+02
  -5.511500e+01   5.776113e+01
  -4.337131e+01  -9.292271e+00
   3.610995e+00  -3.588252e+01
   1.745526e+01  -2.387431e+01
  -2.143808e+01  -1.031364e+01
  -5.964009e+01  -1.672882e+01
  -3.385885e+01  -2.998737e+01
   5.158221e+01  -2.473944e+01
   1.206083e+02   6.349914e+00
   1.007509e+02   4.608631e+01
   4.184673e-02   6.667786e+01
  -9.546201e+01   4.931135e+01
  -1.051790e+02   2.919189e+00
  -3.249503e+01  -3.564986e+01
   4.375479e+01  -3.070719e+01
   5.570403e+01   1.400082e+01
   9.736015e+00   5.334055e+01
  -3.732847e+01   4.559537e+01
  -4.862096e+01  -2.242722e+00
  -3.724908e+01  -4.030358e+01
  -3.228492e+01  -3.285554e+01
  -4.138504e+01  -1.381228e+00
  -4.741183e+01  -1.172803e+00
  -2.844088e+01  -5.349759e+01
   2.424852e+01  -1.112184e+02
   9.263421e+01  -1.047688e+02
   1.302892e+02  -2.187537e+01
   9.554175e+01   7.176404e+01
   3.696498e+00   9.912110e+01
  -6.739158e+01   5.177390e+01
  -4.927426e+01  -6.993708e+00
   3.733887e+01  -1.468694e+01
   9.507877e+01   2.940135e+01
   5.210317e+01   7.472323e+01
  -5.944514e+01   7.625098e+01
  -1.370049e+02   3.053542e+01
  -1.135574e+02  -2.902439e+01
  -2.105688e+01  -6.068931e+01
   4.808737e+01  -4.468030e+01
   3.523303e+01  -4.263347e-01
  -3.069691e+01   2.134951e+01
  -6.804187e+01  -1.490499e+01
  -2.662448e+01  -8.421083e+01
   6.167721e+01  -1.121524e+02
   1.162552e+02  -4.875740e+01
   8.956216e+01   6.848522e+01
   8.484560e+00   1.391901e+02
  -5.975427e+01   9.959805e+01
  -7.287520e+01  -9.952711e+00
  -3.866921e+01  -8.668966e+01
   8.151189e+00  -7.268128e+01
   3.666713e+01  -8.865690e+00
   3.493668e+01   2.465570e+01
   1.392567e+01   5.777130e+00
   1.811725e+00  -1.358682e+01
   1.719160e+01   1.377163e+01
   4.012328e+01   6.419356e+01
   2.586438e+01   7.605962e+01
  -3.774271e+01   3.059029e+01
  -9.848302e+01  -2.775099e+01
  -8.971398e+01  -5.070872e+01
  -1.201983e+01  -3.762950e+01
   6.027800e+01  -1.752234e+01
   6.196473e+01  -4.230803e+00
   9.650136e+00   7.265161e+00
  -2.667878e+01   1.525243e+01
  -1.292916e+01   1.022825e+01
   1.252021e+01  -2.438454e+00
  -1.841992e+00  -5.582424e+00
  -4.843445e+01  -1.917776e+00
  -6.565824e+01  -1.736965e+01
  -1.261112e+01  -5.802851e+01
   7.957400e+01  -8.267971e+01
   1.352158e+02  -4.404880e+01
   1.079034e+02   4.569831e+01
   2.099011e+01   1.158888e+02
  -5.957832e+01   1.099589e+02
  -8.555716e+01   4.388783e+01
  -5.912367e+01  -1.713686e+01
  -1.885243e+01  -2.964789e+01
   5.068859e-01  -1.019636e+01
  -6.699869e+00  -5.289915e+00
  -1.910310e+01  -3.416155e+01
  -1.147876e+01  -6.507875e+01
   2.205192e+01  -5.161439e+01
   5.744791e+01   1.242446e+01
   5.748319e+01   7.666793e+01
   7.962362e+00   8.177679e+01
  -5.695391e+01   2.198154e+01
  -7.719476e+01  -4.934356e+01
  -2.741405e+01  -7.434225e+01
   4.770078e+01  -4.394801e+01
   7.438360e+01   6.415654e+00
   3.120325e+01   3.914314e+01
  -2.510947e+01   4.107144e+01
  -2.722059e+01   2.084647e+01
   2.062097e+01  -1.440366e+00
   4.927078e+01  -3.895743e+00
   1.187619e+01   2.007597e+01
  -5.769617e+01   4.601569e+01
  -8.714262e+01   3.615378e+01
  -5.033169e+01  -1.478206e+01
   1.134412e+01  -6.246754e+01
   4.350939e+01  -5.809780e+01
   3.358529e+01  -5.568759e+00
   4.996026e+00   3.997717e+01
  -1.845011e+01   3.405329e+01
  -2.748443e+01  -9.186608e+00
  -1.981081e+01  -3.908005e+01
   2.043025e+00  -2.764217e+01
   2.430101e+01   4.479497e+00
   2.915103e+01   1.856451e+01
   1.457484e+01   4.011581e+00
  -1.380300e+00  -1.293943e+01
  -3.603598e+00  -4.106834e+00
   7.224586e-01   2.439463e+01
  -5.314426e+00   3.777885e+01
  -2.169911e+01   1.354984e+01
  -2.782728e+01  -2.828189e+01
  -6.652951e+00  -4.464693e+01
   2.920320e+01  -1.743718e+01
   4.376757e+01   2.596479e+01
   1.396742e+01   4.380156e+01
  -3.953428e+01   2.394046e+01
  -6.633158e+01  -1.060892e+01
  -3.679419e+01  -3.174285e+01
   2.122623e+01  -3.135803e+01
   4.864607e+01  -1.798998e+01
   2.107783e+01  -3.527498e+00
  -2.271993e+01   2.264983e+00
  -2.632518e+01  -6.187109e+00
   1.739375e+01  -1.999651e+01
   5.886095e+01  -1.566551e+01
