
 $NMID
 id='ANONYMOUS ', fmtdat='(2E16.6)'
 volume=1.0
 tramp=1.0
 $END
   4.809875e+03  -3.130479e+02
   2.670719e+03   2.799850e+03
  -9.295604e+02   2.881628e+03
  -2.479338e+03   8.117856e+02
  -1.033839e+03  -6.166479e+02
   7.873797e+02  -5.952941e+02
   1.012671e+03   4.168264e+02
  -4.851902e+01   1.149110e+03
  -9.376278e+02   8.809186e+02
  -1.007961e+03  -3.338358e+00
  -4.529879e+02  -8.813218e+02
   2.698081e+02  -1.038276e+03
   6.878497e+02  -1.240115e+02
   4.241729e+02   7.973538e+02
  -3.013142e+02   8.135455e+02
  -6.017652e+02  -3.017009e+01
  -2.710998e+02  -7.914516e+02
   3.452223e+02  -6.520873e+02
   5.832905e+02  -4.888293e+01
   3.610465e+02   3.437669e+02
  -1.501164e+01   4.451049e+02
  -2.797133e+02   2.761476e+02
  -2.456334e+02  -1.607576e+00
   1.207049e+02  -1.385567e+02
   4.716412e+02   7.950695e+01
   2.565724e+02   4.778766e+02
  -4.988666e+02   5.119669e+02
  -9.459481e+02  -5.930717e+01
  -4.975523e+02  -5.976991e+02
   4.670240e+02  -5.841266e+02
   8.535191e+02   3.643795e+01
   3.855053e+02   5.393201e+02
  -3.177137e+02   5.712838e+02
  -6.411005e+02   2.340663e+02
  -4.487541e+02  -2.363383e+02
  -6.225648e+01  -5.473123e+02
   2.434929e+02  -3.354685e+02
   2.107882e+02   2.318820e+02
  -1.666148e+02   5.409482e+02
  -5.211500e+02   4.726686e+01
  -3.312859e+02  -7.473830e+02
   3.452428e+02  -8.310120e+02
   7.189978e+02  -3.738887e+01
   3.416043e+02   6.365442e+02
  -3.332474e+02   4.193903e+02
  -4.960496e+02  -3.272558e+02
   2.338278e+01  -6.167096e+02
   6.140706e+02  -1.759559e+02
   6.854968e+02   4.218678e+02
   1.998993e+02   6.364195e+02
  -4.238220e+02   3.892796e+02
  -7.032228e+02  -6.848742e+01
  -4.110579e+02  -4.302908e+02
   1.831302e+02  -4.275460e+02
   5.044954e+02  -6.626090e+01
   2.675748e+02   2.429330e+02
  -1.470364e+02   1.414500e+02
  -1.752895e+02  -1.752596e+02
   1.777853e+02  -2.219471e+02
   3.836147e+02   7.898012e+01
   1.514019e+02   3.279632e+02
  -2.197606e+02   2.639066e+02
  -3.352749e+02   6.137045e+01
  -1.889761e+02  -7.155001e+01
   9.205705e+00  -1.910810e+02
   1.860185e+02  -3.274032e+02
   3.348840e+02  -2.608604e+02
   3.297796e+02   1.154065e+02
   9.980897e+01   4.689070e+02
  -1.470828e+02   4.174317e+02
  -1.571101e+02   9.108959e+01
  -4.397883e+00  -5.390469e+01
   1.587293e+01   9.400874e+01
  -1.682386e+02   1.883224e+02
  -3.112391e+02  -7.386949e+00
  -2.070884e+02  -2.767841e+02
   5.750910e+01  -2.869152e+02
   2.481089e+02  -2.518692e+01
   2.207494e+02   2.524564e+02
  -4.936836e+00   3.219228e+02
  -2.849149e+02   1.399190e+02
  -3.905996e+02  -1.652968e+02
  -2.084119e+02  -3.779594e+02
   1.011908e+02  -3.418044e+02
   2.472886e+02  -1.292440e+02
   1.612849e+02   1.116936e+01
   9.043150e+01  -2.639529e+01
   2.265184e+02  -8.233004e+01
   4.158629e+02   3.172286e+01
   3.653928e+02   2.781144e+02
   2.922360e+01   4.628386e+02
  -3.494746e+02   4.485189e+02
  -5.038474e+02   2.395710e+02
  -3.721068e+02  -8.029789e+01
  -7.474886e+01  -3.138594e+02
   1.421592e+02  -2.824698e+02
   1.041525e+02  -3.008861e+01
  -1.154067e+02   1.406068e+02
  -2.299520e+02   1.240636e+01
  -7.123684e+01  -2.204313e+02
   1.829178e+02  -2.073140e+02
   2.128606e+02   6.347432e+01
  -1.049158e+01   2.284032e+02
  -2.171883e+02   5.711636e+01
  -1.878927e+02  -2.546766e+02
   2.030243e+01  -3.680844e+02
   2.269886e+02  -2.025931e+02
   3.283149e+02   5.463860e+01
   2.937334e+02   2.271404e+02
   1.155000e+02   2.624839e+02
  -1.095363e+02   1.741811e+02
  -1.911333e+02   3.233817e+01
  -6.547966e+01  -3.762796e+01
   8.358111e+01   3.023729e+01
   4.484209e+01   1.328111e+02
  -1.294060e+02   1.186906e+02
  -1.979545e+02  -4.210099e+00
  -6.811693e+01  -8.171412e+01
   8.843624e+01  -2.934014e+01
   6.897195e+01   7.139730e+01
  -1.178746e+02   9.852226e+01
  -2.874695e+02   1.727785e+01
  -2.771304e+02  -1.286733e+02
  -7.572331e+01  -2.608383e+02
   1.782536e+02  -2.818519e+02
   2.939104e+02  -1.428030e+02
   1.863444e+02   5.667654e+01
  -2.168950e+01   1.281403e+02
  -1.043717e+02   1.577197e+01
   2.193563e+01  -1.151784e+02
   2.037015e+02  -7.757645e+01
   2.340326e+02   1.004387e+02
   8.317832e+01   2.238231e+02
  -9.845488e+01   1.773911e+02
  -1.602620e+02   3.847056e+01
  -8.516162e+01  -4.618658e+01
   2.657066e+01  -1.528936e+01
   4.895800e+01   7.469314e+01
  -6.078890e+01   1.176855e+02
  -2.021621e+02   4.192588e+01
  -2.079314e+02  -1.183754e+02
  -3.022929e+01  -2.298443e+02
   1.745915e+02  -1.806023e+02
   2.127727e+02  -9.048799e+00
   7.378315e+01   1.276560e+02
  -7.246047e+01   1.268737e+02
  -9.436030e+01   3.598254e+01
  -2.678278e+01  -3.073864e+01
   1.910155e+01  -2.624110e+01
  -4.937300e+00   3.342895e+00
  -6.291378e+01  -6.291445e+00
  -8.863464e+01  -7.361658e+01
  -2.870971e+01  -1.539300e+02
   1.123927e+02  -1.611837e+02
   2.376598e+02  -4.209280e+01
   2.213973e+02   1.423456e+02
   5.688367e+01   2.470901e+02
  -1.113542e+02   1.830570e+02
  -1.444033e+02   3.163647e+01
  -7.310245e+01  -5.918683e+01
  -2.653335e+01  -3.718016e+01
  -5.405056e+01   1.759857e+01
  -8.166129e+01   1.172623e+01
  -4.319459e+01  -4.754589e+01
   4.021438e+01  -8.741204e+01
   9.499861e+01  -5.682514e+01
   8.163324e+01   3.011244e+01
  -7.999521e+00   1.064192e+02
  -1.348836e+02   9.107888e+01
  -2.030940e+02  -4.028485e+01
  -1.168826e+02  -1.976406e+02
   9.613740e+01  -2.395154e+02
   2.745376e+02  -1.131231e+02
   2.717033e+02   7.832671e+01
   1.167383e+02   1.816188e+02
  -4.013013e+01   1.559178e+02
  -9.787906e+01   8.877751e+01
  -7.987283e+01   7.026523e+01
  -6.659924e+01   9.161321e+01
  -9.236058e+01   7.652258e+01
  -1.295793e+02  -1.942273e+01
  -1.227624e+02  -1.531224e+02
  -3.834067e+01  -2.290634e+02
   9.244289e+01  -1.794551e+02
   1.781442e+02  -2.868299e+01
   1.466347e+02   1.181093e+02
   2.877412e+01   1.630198e+02
  -6.412421e+01   1.000430e+02
  -6.239785e+01   7.110529e+00
  -8.836359e+00  -4.084765e+01
   6.848701e+00  -3.563331e+01
  -3.929458e+01  -1.765287e+01
  -8.282916e+01  -1.911710e+01
  -4.976522e+01  -3.661209e+01
   5.895775e+01  -4.263248e+01
   1.585865e+02  -1.429849e+01
   1.517294e+02   4.292171e+01
   2.537440e+01   8.917823e+01
  -1.177522e+02   8.060483e+01
  -1.493566e+02   1.896631e+01
  -5.108897e+01  -3.916087e+01
   6.323399e+01  -3.680988e+01
   7.920472e+01   2.047480e+01
   5.754422e+00   6.909774e+01
  -5.976779e+01   5.650176e+01
  -6.407764e+01  -3.544591e+00
  -4.196579e+01  -4.977018e+01
  -4.306996e+01  -4.075956e+01
  -6.285259e+01  -1.059684e+00
  -6.667582e+01   1.681402e+00
  -3.494646e+01  -6.457020e+01
   3.028970e+01  -1.458606e+02
   1.119946e+02  -1.471007e+02
   1.635401e+02  -4.003134e+01
   1.280436e+02   9.043235e+01
   1.044585e+01   1.318098e+02
  -8.839705e+01   6.598956e+01
  -6.493046e+01  -1.753881e+01
   5.980297e+01  -2.751432e+01
   1.459496e+02   3.849771e+01
   8.547587e+01   1.094880e+02
  -7.746682e+01   1.213500e+02
  -1.955545e+02   6.202927e+01
  -1.706876e+02  -2.854792e+01
  -4.339611e+01  -8.856058e+01
   5.989569e+01  -7.637227e+01
   5.214004e+01  -1.170826e+01
  -3.527693e+01   2.732403e+01
  -9.030160e+01  -1.992583e+01
  -3.558643e+01  -1.178166e+02
   8.937360e+01  -1.565598e+02
   1.695955e+02  -6.529706e+01
   1.328637e+02   1.009439e+02
   1.641164e+01   2.033127e+02
  -8.454096e+01   1.526332e+02
  -1.107238e+02  -9.480136e-01
  -7.023790e+01  -1.190250e+02
  -4.327781e+00  -1.117395e+02
   4.665743e+01  -2.352868e+01
   5.599883e+01   3.205259e+01
   2.647655e+01   9.449672e+00
   4.555452e-01  -2.397634e+01
   1.936448e+01   9.731849e+00
   6.139855e+01   8.704161e+01
   5.032251e+01   1.130497e+02
  -4.423508e+01   5.011537e+01
  -1.434639e+02  -3.680101e+01
  -1.362089e+02  -6.984681e+01
  -1.857427e+01  -4.912337e+01
   9.110087e+01  -2.302512e+01
   9.015065e+01  -1.000358e+01
   9.291351e+00   6.031989e+00
  -4.051567e+01   2.366505e+01
  -1.349048e+01   1.971878e+01
   2.357973e+01  -2.283522e+00
  -4.341300e+00  -1.022652e+01
  -7.449678e+01  -1.620045e+00
  -9.232164e+01  -1.895121e+01
  -9.747652e+00  -7.815709e+01
   1.162939e+02  -1.175269e+02
   1.834999e+02  -6.345035e+01
   1.419441e+02   6.609087e+01
   2.872632e+01   1.645349e+02
  -7.620395e+01   1.525048e+02
  -1.140117e+02   5.851889e+01
  -8.178709e+01  -2.298363e+01
  -2.396037e+01  -3.566604e+01
   5.902057e+00  -6.369689e+00
  -9.030482e+00  -4.690292e-02
  -3.608539e+01  -4.238826e+01
  -2.751857e+01  -8.946293e+01
   2.707721e+01  -7.342827e+01
   8.259510e+01   1.700473e+01
   7.900321e+01   1.086747e+02
   4.217599e+00   1.132291e+02
  -8.399716e+01   2.396870e+01
  -1.045090e+02  -7.559386e+01
  -3.289248e+01  -1.028772e+02
   6.575796e+01  -5.516049e+01
   9.713843e+01   1.037780e+01
   3.905093e+01   4.833144e+01
  -3.183451e+01   5.145217e+01
  -2.973073e+01   2.947358e+01
   3.551484e+01  -9.507123e-01
   7.052469e+01  -9.443136e+00
   1.577790e+01   2.440788e+01
  -7.791426e+01   7.080456e+01
  -1.139275e+02   6.577205e+01
  -6.337165e+01  -8.285751e+00
   1.321193e+01  -8.346869e+01
   4.765680e+01  -7.999287e+01
   3.155233e+01  -4.550723e+00
  -1.186655e+00   5.566668e+01
  -2.578781e+01   3.914503e+01
  -3.540487e+01  -2.278542e+01
  -2.548793e+01  -5.508124e+01
   4.104307e+00  -3.087679e+01
   3.429809e+01   9.419579e+00
   4.026659e+01   1.962290e+01
   2.071380e+01   3.723368e-01
  -3.827150e-01  -1.155725e+01
  -7.301065e+00   7.332502e+00
  -9.303602e+00   3.869183e+01
  -2.082166e+01   4.317474e+01
  -3.529113e+01   4.387593e+00
  -3.000441e+01  -4.834589e+01
   4.220554e+00  -6.363155e+01
   4.649036e+01  -2.241374e+01
   5.768571e+01   3.902721e+01
   1.591181e+01   6.477135e+01
  -5.344659e+01   3.633207e+01
  -8.882358e+01  -1.398411e+01
  -5.012922e+01  -4.358108e+01
   2.840575e+01  -4.013833e+01
   6.497855e+01  -1.996355e+01
   2.245480e+01  -3.562678e+00
  -4.183589e+01  -2.600256e+00
  -4.154507e+01  -1.823472e+01
   3.118483e+01  -3.462411e+01
   9.517544e+01  -2.202921e+01
