
 $NMID
 id='ANONYMOUS ', fmtdat='(2E16.6)'
 volume=1.0
 tramp=1.0
 $END
   1.679408e+02  -4.571458e+01
   2.596841e+01   5.495026e+01
  -5.410776e+00   2.065600e+01
  -6.080873e+01   4.138349e+01
  -5.080502e+01  -6.001597e+01
   4.215909e+01  -2.502287e+01
   1.926481e+00  -1.258394e+01
   3.451243e+01   4.470333e+01
  -1.230216e+01   5.899515e+01
  -3.894625e+01  -2.085944e+01
  -4.150221e+01  -3.121467e+01
   4.057590e+01  -7.521436e+01
   2.721847e+01   1.322920e+00
   2.710960e+01   6.158949e+01
  -3.393373e+01   3.787615e+01
  -2.207987e+01  -2.790523e+01
  -1.687595e-01  -5.872524e+00
   2.608090e+01   7.037112e+00
   3.670839e+01   1.876026e+01
   4.990685e+00   3.863757e+00
  -2.201364e+01   2.573043e+00
  -1.640529e+01  -2.154855e+01
   1.521875e+01  -2.176766e+01
   2.514608e+00   6.033291e+00
  -4.311597e+00   3.458471e+01
  -2.919788e+01   1.616344e+01
  -1.844478e+01  -2.408800e+01
   1.417390e+01  -1.880025e+01
   5.145756e+01  -3.280683e+00
   2.568934e+00   1.046870e+01
  -3.272540e+01   3.470565e+01
  -1.739979e+01  -2.055141e+01
   2.878138e+00  -9.788475e+00
   1.484638e+01  -2.269233e+01
   1.111246e+01   1.821533e+01
   1.797717e+01   1.925751e+01
  -1.182576e+01   8.897925e-01
  -2.315192e+01  -1.089166e+01
  -1.280014e+01  -2.024839e+01
   9.001344e+00  -1.836204e+01
   1.117722e+01   8.050817e+00
   4.117670e+00   2.251746e+01
  -1.027114e+01   1.053881e+01
  -8.676515e+00  -1.068922e+01
   5.854773e+00  -1.506990e+01
   1.188256e+01  -5.958765e+00
   5.966650e+00   8.799210e+00
  -1.981898e+00   1.237365e+01
  -6.784899e+00   1.051308e+01
  -1.329431e+01   1.950098e-01
  -7.439641e+00  -1.075579e+01
   2.695795e+00  -9.541198e+00
   9.341211e+00   1.447680e+00
   1.165696e+00   1.217703e+01
  -6.193393e+00   7.739203e+00
  -5.780038e+00  -4.872735e+00
   1.652328e+00  -5.705350e+00
   4.042766e+00   6.487147e+00
  -3.985667e+00   1.187310e+01
  -9.481502e+00   1.317636e+00
  -2.938053e+00  -9.463389e+00
   7.212421e+00  -6.910867e+00
   7.818564e+00   2.783113e+00
   1.993404e+00   7.976291e+00
  -9.321428e-02   8.160242e+00
   7.812448e-01   8.243441e+00
  -4.715471e+00   6.684799e+00
  -1.241627e+01  -1.349280e+00
  -8.481458e+00  -9.949282e+00
   5.301350e+00  -7.161451e+00
   8.533281e+00   4.051661e+00
  -1.990518e+00   6.764804e+00
  -7.875970e+00  -4.378688e+00
   1.973352e+00  -1.355154e+01
   1.437174e+01  -6.851662e+00
   1.473531e+01   9.253959e+00
   1.696250e+00   1.800378e+01
  -1.131997e+01   1.146168e+01
  -1.563755e+01  -4.716928e+00
  -6.055850e+00  -1.698576e+01
   1.044925e+01  -1.407595e+01
   1.978689e+01   3.490224e-01
   1.226569e+01   1.342304e+01
  -4.828749e+00   1.223323e+01
  -1.117865e+01   2.221591e-01
  -2.242182e+00  -7.637082e+00
   7.640226e+00  -7.049732e-01
   2.592334e+00   1.261173e+01
  -9.415996e+00   1.195159e+01
  -1.700265e+01  -1.672042e+00
  -1.210732e+01  -1.705130e+01
   3.367490e+00  -2.088448e+01
   1.783625e+01  -1.487026e+01
   2.069634e+01   5.669567e+00
   1.031840e+01   2.242162e+01
  -1.443069e+01   1.641719e+01
  -1.950650e+01  -4.770490e+00
  -5.165767e+00  -1.945926e+01
   1.637446e+01  -1.026923e+01
   1.361445e+01   6.946652e+00
  -5.961111e+00   1.208537e+01
  -1.375169e+01  -1.808099e+00
  -1.767415e+00  -1.341766e+01
   1.350626e+01  -8.171648e+00
   1.712062e+01   6.437064e+00
   8.057941e+00   1.524852e+01
  -4.881994e+00   1.536655e+01
  -1.632122e+01   8.519352e+00
  -1.928318e+01  -4.666080e+00
  -8.642934e+00  -1.693051e+01
   1.047141e+01  -1.579842e+01
   1.807127e+01   7.078766e-01
   5.273851e+00   1.422202e+01
  -1.198157e+01   8.533166e+00
  -1.132372e+01  -8.584235e+00
   4.789935e+00  -1.362743e+01
   1.446242e+01  -1.060677e+00
   6.499511e+00   1.237140e+01
  -8.420322e+00   1.125548e+01
  -1.440803e+01  -1.413291e+00
  -6.468330e+00  -1.352922e+01
   8.514623e+00  -1.578400e+01
   1.941303e+01  -5.758068e+00
   1.662933e+01   1.148600e+01
   5.928067e-01   2.168918e+01
  -1.522646e+01   1.389242e+01
  -1.529361e+01  -4.549042e+00
  -7.623094e-01  -1.359079e+01
   1.112162e+01  -4.026460e+00
   6.469547e+00   1.054919e+01
  -8.203620e+00   1.218966e+01
  -1.617781e+01  -3.642570e-01
  -9.094267e+00  -1.255634e+01
   4.545213e+00  -1.313215e+01
   1.195477e+01  -3.079922e+00
   7.392975e+00   7.909775e+00
  -4.218021e+00   1.002433e+01
  -1.206930e+01   5.034380e-01
  -7.606555e+00  -1.266307e+01
   6.286225e+00  -1.564522e+01
   1.609178e+01  -3.010394e+00
   1.111134e+01   1.292470e+01
  -3.361657e+00   1.554557e+01
  -1.207886e+01   3.669582e+00
  -7.759043e+00  -8.416221e+00
   2.571038e+00  -9.447094e+00
   7.686655e+00  -1.753669e+00
   3.862609e+00   5.333843e+00
  -2.853093e+00   5.898431e+00
  -5.953652e+00   1.379318e-02
  -1.819296e+00  -5.970087e+00
   6.178228e+00  -4.946388e+00
   9.727163e+00   4.224044e+00
   1.913669e+00   1.300948e+01
  -1.191754e+01   1.024751e+01
  -1.714027e+01  -3.071164e+00
  -7.742588e+00  -1.548041e+01
   6.130331e+00  -1.390586e+01
   1.235370e+01  -1.694675e+00
   5.976256e+00   5.958190e+00
  -1.313304e+00   5.313008e+00
  -3.629299e+00  -1.257758e+00
   9.983832e-01  -4.017211e+00
   4.424087e+00  -2.337498e+00
   2.861823e+00   3.666666e+00
  -1.572186e+00   7.047896e+00
  -6.715780e+00   3.603431e+00
  -6.930600e+00  -5.697474e+00
   2.144925e+00  -1.156072e+01
   1.324844e+01  -6.554177e+00
   1.426797e+01   7.640300e+00
   2.223557e+00   1.743491e+01
  -1.254394e+01   1.316926e+01
  -1.660575e+01  -5.727117e-01
  -8.371298e+00  -1.024244e+01
   1.856072e+00  -9.342274e+00
   5.582008e+00  -2.918640e+00
   2.239138e+00   2.449700e-01
  -1.441070e+00  -2.820745e+00
   2.205116e-01  -6.115683e+00
   6.553935e+00  -4.190878e+00
   1.130003e+01   3.569532e+00
   8.222661e+00   1.134140e+01
  -2.566060e+00   1.283167e+01
  -1.244942e+01   5.753235e+00
  -1.250551e+01  -5.437848e+00
  -3.264243e+00  -1.133777e+01
   6.197078e+00  -8.141749e+00
   8.059544e+00  -1.155332e-01
   3.311291e+00   5.143191e+00
  -1.413979e+00   4.388818e+00
  -1.290455e+00   4.050410e-01
   1.888864e+00  -1.844776e+00
   3.177028e+00   3.665084e-01
  -4.299965e-01   4.773766e+00
  -6.450347e+00   5.734256e+00
  -9.203514e+00   2.176641e-02
  -4.588460e+00  -8.153871e+00
   4.457893e+00  -9.899405e+00
   9.545678e+00  -2.805102e+00
   5.606727e+00   6.002052e+00
  -2.650926e+00   7.184592e+00
  -6.737484e+00   4.610292e-01
  -3.624667e+00  -6.001415e+00
   2.152732e+00  -5.355755e+00
   4.701010e+00   1.537628e-01
   3.345205e+00   3.912570e+00
   3.134498e-01   2.563829e+00
  -1.154840e+00  -1.683409e+00
   1.454093e-01  -3.738302e+00
   3.455316e+00  -6.348746e-01
   4.937498e+00   5.885540e+00
   3.816776e-01   9.799864e+00
  -7.717367e+00   6.565441e+00
  -1.104626e+01  -2.405051e+00
  -4.554542e+00  -9.215799e+00
   5.340270e+00  -7.576711e+00
   8.169971e+00   1.875427e-01
   1.024568e+00   5.797253e+00
  -7.503143e+00   3.930553e+00
  -8.063423e+00  -2.559197e+00
  -2.101964e-01  -7.536067e+00
   7.606996e+00  -6.816236e+00
   8.481498e+00  -7.311316e-01
   2.872728e+00   4.736238e+00
  -2.997002e+00   5.088382e+00
  -3.770176e+00  -2.471178e-01
   1.114899e+00  -4.601406e+00
   6.468415e+00  -2.071177e+00
   6.010719e+00   6.026646e+00
  -8.051222e-01   1.115176e+01
  -8.317815e+00   6.791824e+00
  -9.945373e+00  -4.028381e+00
  -4.270473e+00  -1.131969e+01
   3.781239e+00  -8.802227e+00
   7.933868e+00   7.152913e-02
   5.732363e+00   6.914436e+00
  -1.267616e-01   6.671463e+00
  -4.316640e+00   1.424052e+00
  -3.620300e+00  -2.456983e+00
   3.927039e-02  -1.423448e+00
   1.278582e+00   2.013747e+00
  -2.454799e+00   2.581893e+00
  -6.968344e+00  -1.650974e+00
  -5.356661e+00  -6.785507e+00
   2.812545e+00  -7.570320e+00
   1.011550e+01  -3.126301e+00
   9.311631e+00   2.670619e+00
   1.692561e+00   5.546105e+00
  -4.936901e+00   4.519445e+00
  -5.159486e+00   1.337200e+00
  -7.879672e-01  -1.528403e+00
   2.557104e+00  -2.132335e+00
   1.790081e+00  -1.680157e-01
  -9.362432e-01   1.733303e+00
  -1.784065e+00   7.620732e-01
   7.413070e-01  -2.229085e+00
   3.984298e+00  -2.470457e+00
   3.767899e+00   2.450550e+00
  -8.211979e-01   8.210233e+00
  -6.713168e+00   7.763187e+00
  -8.891198e+00  -1.104186e-01
  -5.479607e+00  -8.821958e+00
   7.768403e-01  -1.048663e+01
   5.291531e+00  -4.794175e+00
   5.291349e+00   1.736210e+00
   2.184050e+00   3.317640e+00
  -6.751307e-01   3.677534e-01
  -1.620849e-01  -2.086341e+00
   2.809126e+00  -2.730042e-01
   4.263078e+00   3.811152e+00
   9.900084e-01   5.388587e+00
  -4.617884e+00   2.106131e+00
  -6.989375e+00  -3.372779e+00
  -2.625239e+00  -6.078574e+00
   4.948952e+00  -3.584254e+00
   8.552779e+00   1.699839e+00
   4.617974e+00   5.597838e+00
  -2.946947e+00   5.524867e+00
  -6.909739e+00   1.876935e+00
  -4.282027e+00  -2.383737e+00
   1.064070e+00  -3.928596e+00
   3.145056e+00  -1.272182e+00
   1.500067e-01   2.729205e+00
  -3.899767e+00   3.519468e+00
  -3.956942e+00  -5.938015e-01
   1.488664e-01  -5.629103e+00
   3.836583e+00  -5.679907e+00
   3.655925e+00  -2.931266e-01
   1.997623e-01   4.849482e+00
  -2.661090e+00   4.046733e+00
  -2.545757e+00  -1.707643e+00
   3.532555e-01  -5.603709e+00
   3.601675e+00  -3.577569e+00
   4.696221e+00   2.093493e+00
   2.559877e+00   5.546895e+00
  -1.297626e+00   4.252466e+00
  -4.038713e+00   9.934821e-02
  -3.213007e+00  -2.176811e+00
   8.876184e-03  -6.554483e-01
   1.838846e+00   1.733290e+00
  -2.327498e-02   1.859779e+00
  -3.091288e+00  -1.239399e+00
  -2.811886e+00  -4.116125e+00
   1.294217e+00  -3.532541e+00
   4.979222e+00   5.199337e-01
   3.639083e+00   4.291865e+00
  -1.996105e+00   4.395632e+00
  -6.413075e+00   7.417325e-01
  -4.853438e+00  -3.865557e+00
   1.396627e+00  -5.916871e+00
   6.268580e+00  -3.704335e+00
   5.332526e+00   1.134022e+00
   2.419670e-01   4.642596e+00
  -3.393645e+00   3.864938e+00
  -2.248023e+00  -7.287529e-02
   1.646963e+00  -2.784825e+00
   3.214880e+00  -1.140855e+00
   5.548655e-01   2.964531e+00
  -3.585364e+00   4.292989e+00
