
 $NMID
 id='ANONYMOUS ', fmtdat='(2E16.6)'
 volume=1.0
 tramp=1.0
 $END
   4.224272e+03   5.469433e+00
   2.487935e+03   2.583180e+03
  -9.022077e+02   2.687317e+03
  -2.128094e+03   7.767907e+02
  -1.078729e+03  -8.548421e+02
   8.463930e+02  -6.293086e+02
   7.939326e+02   5.214472e+02
   4.570967e+01   1.068551e+03
  -9.490609e+02   7.305255e+02
  -9.068115e+02  -8.622140e+01
  -4.457805e+02  -9.028198e+02
   2.858941e+02  -8.116584e+02
   6.036580e+02  -4.261284e+01
   4.191114e+02   7.089236e+02
  -2.703736e+02   6.787900e+02
  -5.701420e+02  -2.888765e+01
  -2.508069e+02  -7.217210e+02
   3.766715e+02  -5.702979e+02
   5.680561e+02  -4.235221e+01
   3.352511e+02   3.618953e+02
   9.811393e+00   4.219732e+02
  -2.850431e+02   2.175153e+02
  -2.253968e+02   1.159778e+01
   1.002819e+02  -1.580892e+02
   4.310837e+02   7.961935e+01
   2.409770e+02   4.486648e+02
  -4.570387e+02   4.488406e+02
  -8.950228e+02  -7.356255e+01
  -4.530290e+02  -5.727069e+02
   4.144139e+02  -5.281367e+02
   7.857214e+02   3.158771e+01
   3.616210e+02   5.075468e+02
  -2.819033e+02   5.501424e+02
  -5.911947e+02   2.158073e+02
  -4.266473e+02  -2.315246e+02
  -6.352832e+01  -5.130107e+02
   2.188245e+02  -3.049068e+02
   2.039687e+02   2.330815e+02
  -1.603771e+02   4.932444e+02
  -4.842626e+02   9.000825e+00
  -2.842434e+02  -7.059649e+02
   3.432755e+02  -7.691073e+02
   6.664807e+02  -6.084456e+00
   3.078290e+02   6.004244e+02
  -3.107935e+02   3.697182e+02
  -4.418377e+02  -3.079259e+02
   3.515098e+01  -5.670689e+02
   5.604918e+02  -1.457165e+02
   6.055225e+02   4.162661e+02
   1.672878e+02   6.065087e+02
  -3.938762e+02   3.526450e+02
  -6.478456e+02  -8.445237e+01
  -3.810090e+02  -4.108907e+02
   1.666552e+02  -3.802494e+02
   4.634571e+02  -4.324857e+01
   2.493759e+02   2.324444e+02
  -1.361599e+02   1.341193e+02
  -1.719503e+02  -1.537648e+02
   1.533030e+02  -2.041599e+02
   3.561536e+02   6.295902e+01
   1.516562e+02   2.990106e+02
  -2.022412e+02   2.595324e+02
  -3.292205e+02   7.498636e+01
  -1.935747e+02  -7.254704e+01
   1.574427e+01  -2.041719e+02
   1.963359e+02  -3.224444e+02
   3.214405e+02  -2.385324e+02
   2.986829e+02   1.161798e+02
   9.403407e+01   4.342579e+02
  -1.148953e+02   3.878590e+02
  -1.275577e+02   1.005999e+02
  -1.430551e+01  -3.081750e+01
  -1.672557e+01   8.648675e+01
  -1.784517e+02   1.566660e+02
  -2.871735e+02  -2.303237e+01
  -1.821954e+02  -2.597863e+02
   5.219957e+01  -2.675158e+02
   2.237638e+02  -2.838672e+01
   2.048218e+02   2.269412e+02
   7.345809e-01   2.916358e+02
  -2.615151e+02   1.197198e+02
  -3.582920e+02  -1.607100e+02
  -1.847906e+02  -3.482136e+02
   1.046525e+02  -3.019498e+02
   2.326075e+02  -1.092674e+02
   1.431114e+02   1.156084e+01
   8.355316e+01  -2.568535e+01
   2.078165e+02  -7.211439e+01
   3.785285e+02   3.958175e+01
   3.259896e+02   2.628235e+02
   1.406191e+01   4.225340e+02
  -3.300872e+02   4.048689e+02
  -4.658804e+02   2.090935e+02
  -3.361208e+02  -7.877207e+01
  -6.049649e+01  -2.879923e+02
   1.361693e+02  -2.534606e+02
   9.469241e+01  -2.338957e+01
  -1.125369e+02   1.249929e+02
  -2.153746e+02   3.708311e+00
  -6.454494e+01  -2.043696e+02
   1.707065e+02  -1.843279e+02
   1.971257e+02   6.029679e+01
  -1.056850e+01   2.054223e+02
  -2.016959e+02   4.501255e+01
  -1.718998e+02  -2.397395e+02
   2.123122e+01  -3.415739e+02
   2.150644e+02  -1.876636e+02
   3.066025e+02   5.335762e+01
   2.716146e+02   2.161296e+02
   1.073887e+02   2.456021e+02
  -9.863271e+01   1.583167e+02
  -1.737518e+02   2.708664e+01
  -6.037595e+01  -3.172344e+01
   7.475394e+01   3.451030e+01
   3.934321e+01   1.278146e+02
  -1.189644e+02   1.121246e+02
  -1.825771e+02  -2.484003e+00
  -6.480536e+01  -7.316869e+01
   7.696189e+01  -2.471732e+01
   5.821758e+01   6.710074e+01
  -1.139877e+02   8.997528e+01
  -2.694888e+02   1.260975e+01
  -2.589478e+02  -1.232946e+02
  -7.013713e+01  -2.439724e+02
   1.674092e+02  -2.604675e+02
   2.740294e+02  -1.316063e+02
   1.702067e+02   5.083702e+01
  -2.475085e+01   1.148278e+02
  -9.805392e+01   1.070873e+01
   2.376134e+01  -1.082700e+02
   1.923865e+02  -7.085355e+01
   2.163887e+02   9.415597e+01
   7.423020e+01   2.061513e+02
  -9.112855e+01   1.605936e+02
  -1.443046e+02   3.185695e+01
  -7.456230e+01  -4.324482e+01
   2.513599e+01  -1.144069e+01
   4.273508e+01   7.207232e+01
  -5.755984e+01   1.090190e+02
  -1.842566e+02   3.735659e+01
  -1.875246e+02  -1.096561e+02
  -2.657186e+01  -2.098333e+02
   1.575948e+02  -1.629874e+02
   1.910135e+02  -6.689625e+00
   6.532664e+01   1.157233e+02
  -6.595142e+01   1.135508e+02
  -8.459246e+01   3.142284e+01
  -2.266847e+01  -2.671351e+01
   1.764515e+01  -2.150646e+01
  -7.666881e+00   4.117355e+00
  -6.151567e+01  -6.951912e+00
  -8.310264e+01  -7.098766e+01
  -2.364879e+01  -1.442388e+02
   1.079470e+02  -1.488123e+02
   2.199095e+02  -3.672825e+01
   2.007854e+02   1.343770e+02
   4.912264e+01   2.281619e+02
  -1.028320e+02   1.674669e+02
  -1.320654e+02   2.774817e+01
  -6.704926e+01  -5.415899e+01
  -2.496999e+01  -3.342795e+01
  -5.034927e+01   1.488553e+01
  -7.536752e+01   8.232881e+00
  -3.940021e+01  -4.599613e+01
   3.797771e+01  -8.019512e+01
   9.055068e+01  -5.115587e+01
   7.697575e+01   2.915852e+01
  -8.704982e+00   9.803381e+01
  -1.256447e+02   8.130167e+01
  -1.858781e+02  -4.229646e+01
  -1.010577e+02  -1.863553e+02
   9.477960e+01  -2.198255e+02
   2.544976e+02  -9.626432e+01
   2.499897e+02   8.126484e+01
   1.069301e+02   1.712731e+02
  -3.747906e+01   1.419918e+02
  -9.200651e+01   8.008461e+01
  -7.673233e+01   6.545973e+01
  -6.341175e+01   8.585236e+01
  -8.568590e+01   7.019675e+01
  -1.203536e+02  -1.973805e+01
  -1.136361e+02  -1.430769e+02
  -3.369872e+01  -2.122936e+02
   8.945689e+01  -1.665700e+02
   1.674932e+02  -2.729260e+01
   1.347746e+02   1.088097e+02
   2.433612e+01   1.505769e+02
  -5.921552e+01   9.209867e+01
  -5.507493e+01   6.602830e+00
  -6.108621e+00  -3.614900e+01
   5.571850e+00  -3.110260e+01
  -3.809778e+01  -1.722405e+01
  -7.624192e+01  -2.179147e+01
  -4.353951e+01  -3.698230e+01
   5.661306e+01  -3.788130e+01
   1.462800e+02  -8.215496e+00
   1.378634e+02   4.358123e+01
   2.156925e+01   8.255231e+01
  -1.086780e+02   7.258307e+01
  -1.368758e+02   1.638944e+01
  -4.722073e+01  -3.550179e+01
   5.674104e+01  -3.288918e+01
   7.077436e+01   1.959116e+01
   3.546938e+00   6.378189e+01
  -5.596798e+01   5.236520e+01
  -5.884824e+01  -3.507693e+00
  -3.835035e+01  -4.685838e+01
  -4.030038e+01  -3.861626e+01
  -6.004958e+01  -1.827375e+00
  -6.352028e+01  -1.634695e-01
  -3.152572e+01  -6.232175e+01
   3.193149e+01  -1.365955e+02
   1.070569e+02  -1.347598e+02
   1.514115e+02  -3.349283e+01
   1.154289e+02   8.571490e+01
   8.376056e+00   1.210543e+02
  -7.930811e+01   5.853153e+01
  -5.658073e+01  -1.693719e+01
   5.571182e+01  -2.263532e+01
   1.315348e+02   3.979609e+01
   7.456812e+01   1.038373e+02
  -7.434605e+01   1.108588e+02
  -1.811554e+02   5.316916e+01
  -1.566065e+02  -3.078744e+01
  -3.815573e+01  -8.374673e+01
   5.687828e+01  -6.888775e+01
   4.746696e+01  -7.650962e+00
  -3.571963e+01   2.622673e+01
  -8.643799e+01  -2.136192e+01
  -3.235750e+01  -1.134384e+02
   8.698694e+01  -1.465337e+02
   1.607842e+02  -5.812056e+01
   1.222170e+02   9.632061e+01
   1.083166e+01   1.879876e+02
  -8.105082e+01   1.381377e+02
  -1.002614e+02  -3.347319e+00
  -6.034522e+01  -1.095559e+02
  -2.178369e+00  -1.013878e+02
   4.096566e+01  -2.067345e+01
   4.948128e+01   2.890644e+01
   2.543475e+01   7.617794e+00
   3.175066e+00  -2.239237e+01
   1.862117e+01   1.014485e+01
   5.460916e+01   8.225749e+01
   4.422404e+01   1.059421e+02
  -4.128927e+01   4.603439e+01
  -1.316646e+02  -3.588397e+01
  -1.255153e+02  -6.637136e+01
  -1.773535e+01  -4.555595e+01
   8.340345e+01  -2.023107e+01
   8.279757e+01  -9.122925e+00
   8.585025e+00   3.964830e+00
  -3.609699e+01   1.994732e+01
  -9.909722e+00   1.818607e+01
   2.372123e+01  -5.493508e-01
  -4.781409e+00  -8.242856e+00
  -7.115379e+01  -2.264756e+00
  -8.616135e+01  -1.963056e+01
  -6.308378e+00  -7.350685e+01
   1.120098e+02  -1.075237e+02
   1.725919e+02  -5.572414e+01
   1.311256e+02   6.393012e+01
   2.452398e+01   1.537388e+02
  -7.230281e+01   1.412704e+02
  -1.061688e+02   5.420345e+01
  -7.512063e+01  -2.047821e+01
  -2.156978e+01  -3.142293e+01
   5.220754e+00  -4.268297e+00
  -9.871395e+00   7.855266e-01
  -3.531445e+01  -3.972991e+01
  -2.632494e+01  -8.420854e+01
   2.569065e+01  -6.882485e+01
   7.719491e+01   1.653863e+01
   7.237541e+01   1.025419e+02
   1.855562e+00   1.060347e+02
  -7.886297e+01   2.103632e+01
  -9.579572e+01  -7.257970e+01
  -2.831507e+01  -9.654125e+01
   6.222893e+01  -4.968637e+01
   8.932095e+01   1.210197e+01
   3.465374e+01   4.566946e+01
  -3.029524e+01   4.665614e+01
  -2.661433e+01   2.690730e+01
   3.480206e+01   1.319115e+00
   6.595047e+01  -5.456457e+00
   1.260231e+01   2.410507e+01
  -7.613022e+01   6.437853e+01
  -1.087175e+02   5.877548e+01
  -5.907445e+01  -8.897028e+00
   1.400095e+01  -7.736703e+01
   4.571147e+01  -7.358540e+01
   2.934332e+01  -3.682811e+00
  -1.903203e+00   5.177449e+01
  -2.470469e+01   3.555733e+01
  -3.335765e+01  -2.237728e+01
  -2.389874e+01  -5.167225e+01
   4.127842e+00  -2.793352e+01
   3.246362e+01   9.936708e+00
   3.788787e+01   1.859794e+01
   1.879255e+01  -4.016255e-01
  -1.343686e+00  -1.137973e+01
  -7.186596e+00   6.433516e+00
  -8.529655e+00   3.556693e+01
  -1.906232e+01   3.916644e+01
  -3.232554e+01   3.176633e+00
  -2.671170e+01  -4.463644e+01
   5.726969e+00  -5.781297e+01
   4.438353e+01  -1.913365e+01
   5.276991e+01   3.756384e+01
   1.260615e+01   6.047608e+01
  -5.178277e+01   3.298067e+01
  -8.302659e+01  -1.456976e+01
  -4.552602e+01  -4.207609e+01
   2.782845e+01  -3.780441e+01
   6.083605e+01  -1.817424e+01
   2.046992e+01  -3.152292e+00
  -3.863751e+01  -3.313131e+00
  -3.701784e+01  -1.833188e+01
   3.126221e+01  -3.281442e+01
   8.954698e+01  -1.958106e+01
