
 $NMID
 id='ANONYMOUS ', fmtdat='(2E16.6)'
 volume=1.0
 tramp=1.0
 $END
  -4.682656e+03   1.029159e+02
  -2.776628e+03  -3.050877e+03
   7.494532e+02  -2.986936e+03
   2.386495e+03  -6.883434e+02
   1.150354e+03   7.269177e+02
  -6.196235e+02   8.852463e+02
  -9.465651e+02  -4.791502e+02
  -1.336894e+02  -1.217554e+03
   9.752855e+02  -8.044529e+02
   1.086545e+03   1.520040e+02
   5.395585e+02   9.218360e+02
  -3.494722e+02   8.690309e+02
  -7.059362e+02   1.603755e+02
  -4.219750e+02  -7.933299e+02
   3.339489e+02  -8.019458e+02
   6.131411e+02  -2.462960e+01
   2.936276e+02   6.659242e+02
  -3.351474e+02   6.922677e+02
  -5.801819e+02   1.325555e+02
  -3.325441e+02  -3.635762e+02
   9.646874e+00  -4.326780e+02
   2.767553e+02  -2.657696e+02
   2.441347e+02  -9.843606e+00
  -1.296511e+02   1.007986e+02
  -4.376404e+02  -7.988435e+01
  -2.298413e+02  -4.331487e+02
   4.734339e+02  -4.428115e+02
   9.073897e+02   9.472531e+01
   4.345144e+02   6.017155e+02
  -4.181908e+02   5.149059e+02
  -8.281014e+02  -3.798736e+01
  -3.846669e+02  -5.228080e+02
   2.907313e+02  -5.599328e+02
   5.917911e+02  -2.355126e+02
   4.426991e+02   2.382603e+02
   6.982160e+01   5.042574e+02
  -2.085361e+02   3.159912e+02
  -2.180387e+02  -2.233041e+02
   1.430365e+02  -5.005082e+02
   4.845670e+02  -3.028604e+01
   3.079585e+02   7.124202e+02
  -3.062011e+02   7.580701e+02
  -6.554484e+02   1.956274e+01
  -3.240505e+02  -6.009780e+02
   3.040098e+02  -3.662640e+02
   4.477388e+02   3.236233e+02
  -2.909126e+01   5.896337e+02
  -5.706240e+02   1.753187e+02
  -6.464399e+02  -3.961605e+02
  -2.005372e+02  -6.052830e+02
   3.793410e+02  -3.801212e+02
   6.560745e+02   4.429846e+01
   4.078646e+02   3.969772e+02
  -1.532993e+02   4.010782e+02
  -4.759450e+02   6.955821e+01
  -2.628723e+02  -2.221530e+02
   1.354000e+02  -1.328962e+02
   1.702639e+02   1.619156e+02
  -1.664886e+02   2.154967e+02
  -3.671976e+02  -5.988123e+01
  -1.514450e+02  -3.049277e+02
   2.020311e+02  -2.658616e+02
   3.201710e+02  -7.864539e+01
   1.900880e+02   7.010691e+01
  -5.299966e+00   2.069070e+02
  -1.914614e+02   3.320329e+02
  -3.379240e+02   2.462202e+02
  -3.217386e+02  -1.228960e+02
  -9.827622e+01  -4.545606e+02
   1.298645e+02  -4.075072e+02
   1.460813e+02  -1.107815e+02
   2.538302e+01   2.579779e+01
   1.877148e+01  -9.231395e+01
   1.781129e+02  -1.582424e+02
   2.944966e+02   2.910956e+01
   1.955554e+02   2.710325e+02
  -4.542556e+01   2.768340e+02
  -2.298638e+02   2.741653e+01
  -2.182492e+02  -2.368109e+02
  -9.547362e+00  -3.050974e+02
   2.658535e+02  -1.335549e+02
   3.786743e+02   1.606206e+02
   2.065238e+02   3.572450e+02
  -9.425061e+01   3.128364e+02
  -2.355335e+02   1.186869e+02
  -1.528327e+02  -4.531621e+00
  -8.534077e+01   3.596843e+01
  -2.180932e+02   8.585974e+01
  -3.991708e+02  -3.146421e+01
  -3.532601e+02  -2.739849e+02
  -3.016981e+01  -4.518866e+02
   3.391161e+02  -4.331663e+02
   4.886385e+02  -2.189331e+02
   3.545120e+02   8.065778e+01
   7.087328e+01   3.001928e+02
  -1.330371e+02   2.653645e+02
  -9.752952e+01   3.134134e+01
   1.021150e+02  -1.227287e+02
   2.082047e+02  -8.126886e+00
   6.337764e+01   2.032909e+02
  -1.643592e+02   1.879679e+02
  -1.944888e+02  -5.649048e+01
   6.684480e+00  -2.077955e+02
   1.984652e+02  -4.864123e+01
   1.764538e+02   2.436399e+02
  -1.933193e+01   3.527827e+02
  -2.207826e+02   1.983723e+02
  -3.223380e+02  -4.977648e+01
  -2.864184e+02  -2.214020e+02
  -1.130652e+02  -2.560131e+02
   1.015486e+02  -1.685745e+02
   1.806346e+02  -3.185285e+01
   6.580853e+01   3.376248e+01
  -7.382098e+01  -3.125192e+01
  -4.171220e+01  -1.274769e+02
   1.175373e+02  -1.135027e+02
   1.845260e+02   2.293862e+00
   6.725950e+01   7.643246e+01
  -7.869555e+01   2.785577e+01
  -6.219465e+01  -6.743830e+01
   1.141644e+02  -9.363043e+01
   2.781091e+02  -1.657081e+01
   2.702317e+02   1.238342e+02
   7.512096e+01   2.529701e+02
  -1.728866e+02   2.765315e+02
  -2.858426e+02   1.450426e+02
  -1.811981e+02  -4.835932e+01
   1.875594e+01  -1.231124e+02
   9.698588e+01  -2.059929e+01
  -2.358727e+01   1.047129e+02
  -1.945271e+02   7.298215e+01
  -2.213759e+02  -9.359519e+01
  -7.824740e+01  -2.119146e+02
   9.269993e+01  -1.694985e+02
   1.510625e+02  -3.736156e+01
   8.102310e+01   4.380014e+01
  -2.321352e+01   1.485408e+01
  -4.403126e+01  -7.155600e+01
   5.808456e+01  -1.128370e+02
   1.893808e+02  -4.091660e+01
   1.953157e+02   1.124630e+02
   3.041844e+01   2.189918e+02
  -1.611574e+02   1.723839e+02
  -1.989631e+02   9.822222e+00
  -7.137257e+01  -1.195940e+02
   6.511073e+01  -1.181692e+02
   8.624356e+01  -3.371061e+01
   2.342395e+01   2.603289e+01
  -1.810632e+01   2.139654e+01
   8.230346e+00  -4.137252e+00
   6.408819e+01   8.405880e+00
   8.352247e+01   7.308594e+01
   2.114789e+01   1.472991e+02
  -1.120014e+02   1.516645e+02
  -2.245171e+02   3.805789e+01
  -2.049616e+02  -1.366217e+02
  -5.241102e+01  -2.343742e+02
   1.022746e+02  -1.756906e+02
   1.344921e+02  -2.968090e+01
   7.025182e+01   5.758317e+01
   2.646500e+01   3.623687e+01
   5.052368e+01  -1.644542e+01
   7.842306e+01  -1.201668e+01
   4.198088e+01   4.575273e+01
  -3.807648e+01   8.530562e+01
  -9.525837e+01   5.765152e+01
  -8.240480e+01  -2.829910e+01
   7.021961e+00  -1.039939e+02
   1.307212e+02  -8.847164e+01
   1.921452e+02   3.985990e+01
   1.071803e+02   1.931018e+02
  -9.644661e+01   2.323783e+02
  -2.647619e+02   1.049337e+02
  -2.643522e+02  -8.216885e+01
  -1.160752e+02  -1.802096e+02
   3.824828e+01  -1.520845e+02
   9.756193e+01  -8.564202e+01
   8.068815e+01  -6.954076e+01
   6.485988e+01  -9.112763e+01
   8.895011e+01  -7.538018e+01
   1.278899e+02   1.815476e+01
   1.224772e+02   1.486833e+02
   3.798187e+01   2.231946e+02
  -9.201597e+01   1.759536e+02
  -1.744466e+02   2.980930e+01
  -1.408441e+02  -1.128540e+02
  -2.598285e+01  -1.572394e+02
   6.144305e+01  -9.732277e+01
   5.752105e+01  -7.942938e+00
   7.111169e+00   3.903266e+01
  -5.396635e+00   3.563194e+01
   3.859856e+01   1.981056e+01
   7.698827e+01   2.115506e+01
   4.302988e+01   3.535032e+01
  -6.000430e+01   3.774564e+01
  -1.527529e+02   9.052495e+00
  -1.448701e+02  -4.453063e+01
  -2.394058e+01  -8.750695e+01
   1.131956e+02  -7.971210e+01
   1.446249e+02  -2.080589e+01
   5.172227e+01   3.702729e+01
  -5.800912e+01   3.768145e+01
  -7.489230e+01  -1.756614e+01
  -5.885383e+00  -6.722461e+01
   5.744257e+01  -5.743585e+01
   6.224711e+01   1.743611e+00
   4.160466e+01   4.876207e+01
   4.299800e+01   4.087270e+01
   6.254947e+01   2.164060e+00
   6.630712e+01   9.208872e-02
   3.486926e+01   6.562998e+01
  -2.964202e+01   1.441993e+02
  -1.096583e+02   1.434399e+02
  -1.607998e+02   3.923469e+01
  -1.279665e+02  -8.559780e+01
  -1.488920e+01  -1.259411e+02
   8.187309e+01  -6.583836e+01
   6.231702e+01   1.149017e+01
  -5.533200e+01   2.151060e+01
  -1.374874e+02  -3.899588e+01
  -7.983264e+01  -1.054551e+02
   7.592181e+01  -1.162341e+02
   1.893685e+02  -5.955625e+01
   1.656227e+02   2.869719e+01
   4.314448e+01   8.752110e+01
  -5.665092e+01   7.465498e+01
  -4.964783e+01   1.052764e+01
   3.516611e+01  -2.707345e+01
   8.879621e+01   2.031674e+01
   3.603280e+01   1.165647e+02
  -8.616256e+01   1.540785e+02
  -1.648047e+02   6.498589e+01
  -1.291320e+02  -9.555159e+01
  -1.626863e+01  -1.938043e+02
   8.000361e+01  -1.455430e+02
   1.035866e+02   5.206255e-01
   6.498440e+01   1.121585e+02
   4.399552e+00   1.056285e+02
  -4.292219e+01   2.275500e+01
  -5.310023e+01  -2.947554e+01
  -2.672617e+01  -8.446862e+00
  -1.399915e+00   2.231971e+01
  -1.755289e+01  -1.037072e+01
  -5.737009e+01  -8.369474e+01
  -4.850576e+01  -1.082318e+02
   4.128362e+01  -4.805356e+01
   1.373867e+02   3.487640e+01
   1.323757e+02   6.690283e+01
   1.983403e+01   4.773719e+01
  -8.642525e+01   2.300272e+01
  -8.658974e+01   1.044382e+01
  -9.358385e+00  -5.077145e+00
   3.808264e+01  -2.227019e+01
   1.220173e+01  -1.874326e+01
  -2.277431e+01   2.474976e+00
   5.525645e+00   1.067473e+01
   7.319069e+01   3.066986e+00
   8.915480e+01   1.973163e+01
   7.772449e+00   7.611206e+01
  -1.146086e+02   1.136022e+02
  -1.791597e+02   6.175939e+01
  -1.387635e+02  -6.291497e+01
  -2.928231e+01  -1.592683e+02
   7.267869e+01  -1.497760e+02
   1.105980e+02  -6.013602e+01
   8.074325e+01   1.960460e+01
   2.535986e+01   3.410935e+01
  -4.403052e+00   7.320787e+00
   9.100586e+00   1.452699e+00
   3.532994e+01   4.213860e+01
   2.743173e+01   8.742316e+01
  -2.551605e+01   7.191148e+01
  -8.034089e+01  -1.581014e+01
  -7.780842e+01  -1.048409e+02
  -5.170893e+00  -1.098904e+02
   8.099369e+01  -2.395189e+01
   1.014258e+02   7.268359e+01
   3.241986e+01   9.985138e+01
  -6.276809e+01   5.445343e+01
  -9.343306e+01  -9.052443e+00
  -3.804681e+01  -4.615476e+01
   2.968436e+01  -4.958719e+01
   2.753145e+01  -2.879802e+01
  -3.489626e+01   2.555894e-01
  -6.784116e+01   8.872892e+00
  -1.491411e+01  -2.294745e+01
   7.559452e+01  -6.705628e+01
   1.101690e+02  -6.253248e+01
   6.068390e+01   8.228149e+00
  -1.448148e+01   8.074748e+01
  -4.873576e+01   7.713694e+01
  -3.309614e+01   3.193565e+00
   3.547092e-01  -5.648613e+01
   2.635237e+01  -4.025860e+01
   3.698838e+01   2.124374e+01
   2.705863e+01   5.386203e+01
  -3.067142e+00   3.035002e+01
  -3.374658e+01  -9.169446e+00
  -3.947811e+01  -1.866423e+01
  -1.972423e+01   1.047492e+00
   1.120179e+00   1.290550e+01
   6.583175e+00  -5.728576e+00
   6.706245e+00  -3.686081e+01
   1.751755e+01  -4.253405e+01
   3.283826e+01  -6.563171e+00
   3.010003e+01   4.321097e+01
  -1.735383e+00   5.933579e+01
  -4.296369e+01   2.231760e+01
  -5.514536e+01  -3.560423e+01
  -1.553636e+01  -6.128141e+01
   5.187596e+01  -3.547874e+01
   8.684422e+01   1.279223e+01
   4.981662e+01   4.274486e+01
  -2.670308e+01   4.087730e+01
  -6.315978e+01   2.159443e+01
  -2.351348e+01   4.351849e+00
   3.755802e+01   1.945690e+00
   3.804128e+01   1.652736e+01
  -3.025561e+01   3.270401e+01
  -9.056103e+01   2.084829e+01
