
 $NMID
 id='ANONYMOUS ', fmtdat='(2E16.6)'
 volume=1.0
 tramp=1.0
 $END
   2.922186e+03   9.546424e+01
   1.990568e+03   1.475003e+03
  -7.708927e+01   1.744863e+03
  -1.476083e+03   1.077665e+03
  -8.143019e+02  -1.105289e+02
   1.047548e+02  -1.558672e+02
   3.659355e+02   1.768554e+02
  -4.060530e+01   4.891806e+02
  -5.440290e+02   5.421377e+02
  -6.843497e+02   3.014416e+01
  -3.356078e+02  -4.412822e+02
  -1.033213e+01  -6.436823e+02
   2.954284e+02  -1.735191e+02
   2.423775e+02   4.465370e+02
  -8.850549e+01   5.383545e+02
  -3.651372e+02   3.355870e+01
  -2.668028e+02  -4.657035e+02
   1.137484e+02  -5.035122e+02
   3.939948e+02  -1.980126e+02
   3.750812e+02   1.466488e+02
   1.161827e+02   2.913182e+02
  -1.191256e+02   2.286770e+02
  -1.294931e+02   6.819757e+01
   1.243269e+02   3.322285e+01
   2.341903e+02   1.987337e+02
   5.104627e+01   3.113657e+02
  -3.635890e+02   1.934436e+02
  -5.201317e+02  -1.072299e+02
  -2.331671e+02  -3.149900e+02
   2.739979e+02  -2.383207e+02
   4.451457e+02   9.129319e+01
   1.739754e+02   3.069849e+02
  -2.078059e+02   2.915168e+02
  -3.747779e+02   1.106011e+02
  -2.580122e+02  -1.169593e+02
  -6.996072e+01  -2.577645e+02
   5.705174e+01  -1.570790e+02
  -2.313289e+01   9.742835e+01
  -1.670226e+02   1.522422e+02
  -2.098224e+02  -1.096465e+02
  -2.471690e+01  -4.190525e+02
   2.168752e+02  -3.807408e+02
   2.910765e+02  -6.503926e+00
   1.040788e+02   2.802808e+02
  -1.394342e+02   1.400382e+02
  -1.541345e+02  -2.179946e+02
   8.774090e+01  -3.242705e+02
   3.536012e+02  -4.841202e+01
   3.862397e+02   3.091825e+02
   1.193389e+02   4.083747e+02
  -2.501430e+02   2.162989e+02
  -4.295022e+02  -6.742026e+01
  -2.764864e+02  -2.289859e+02
   5.692827e+01  -2.008747e+02
   2.539657e+02  -5.210437e+01
   1.673720e+02   5.263519e+01
  -2.492948e+01   2.803427e+01
  -5.894868e+01  -6.207659e+01
   9.322832e+01  -7.326548e+01
   2.091939e+02   3.908316e+01
   1.091609e+02   1.725603e+02
  -1.321568e+02   2.021737e+02
  -2.848881e+02   9.644777e+01
  -2.114912e+02  -8.835416e+01
   2.709638e+01  -2.536908e+02
   2.489630e+02  -2.856880e+02
   3.073032e+02  -1.247581e+02
   1.946094e+02   1.384686e+02
   3.456663e+01   3.038058e+02
  -4.565931e+01   2.672462e+02
  -3.935508e+01   1.351279e+02
  -4.090720e+01   6.969709e+01
  -1.108524e+02   7.673372e+01
  -1.917262e+02   3.250761e+01
  -1.833311e+02  -1.037037e+02
  -6.759516e+01  -2.136453e+02
   7.984412e+01  -1.616663e+02
   1.614502e+02   2.864100e+01
   1.227118e+02   1.968885e+02
  -2.621626e+01   2.078362e+02
  -1.933365e+02   5.940545e+01
  -2.462829e+02  -1.348486e+02
  -1.337182e+02  -2.439179e+02
   4.656935e+01  -2.155857e+02
   1.387222e+02  -1.157829e+02
   1.203473e+02  -5.113686e+01
   1.184374e+02  -4.716545e+01
   2.242738e+02  -2.995085e+01
   3.286440e+02   8.174427e+01
   2.500450e+02   2.451485e+02
  -2.890826e+01   3.533831e+02
  -3.097398e+02   3.132925e+02
  -3.845699e+02   1.357793e+02
  -2.345928e+02  -8.509989e+01
  -2.030686e+01  -2.085485e+02
   7.339774e+01  -1.712196e+02
   1.423954e+01  -4.095029e+01
  -8.671887e+01   3.148037e+01
  -9.927109e+01  -2.790381e+01
  -3.900372e+00  -1.168582e+02
   1.002298e+02  -9.365432e+01
   9.732337e+01   4.162837e+01
  -2.021594e+01   1.143137e+02
  -1.324812e+02   6.306838e+00
  -1.221892e+02  -1.943789e+02
   2.193424e+01  -2.814501e+02
   2.003250e+02  -1.650666e+02
   2.888566e+02   5.792726e+01
   2.228367e+02   2.162382e+02
   4.928656e+01   2.201398e+02
  -1.010288e+02   1.129714e+02
  -1.213862e+02   9.502555e+00
  -3.394538e+01  -7.112393e+00
   3.316204e+01   4.847805e+01
  -7.747690e+00   8.750807e+01
  -1.001957e+02   5.086835e+01
  -1.174304e+02  -2.242961e+01
  -2.669959e+01  -4.601668e+01
   6.305796e+01   6.634131e+00
   2.791475e+01   7.087217e+01
  -1.207432e+02   6.567441e+01
  -2.399829e+02  -2.463765e+01
  -2.000346e+02  -1.443734e+02
  -1.372596e+01  -2.143619e+02
   1.739041e+02  -1.844915e+02
   2.189826e+02  -7.099277e+01
   1.108876e+02   4.033500e+01
  -2.265424e+01   6.113893e+01
  -4.588922e+01  -6.028813e+00
   5.081245e+01  -6.066693e+01
   1.525210e+02  -1.599078e+01
   1.467903e+02   9.484469e+01
   3.604246e+01   1.563056e+02
  -7.796275e+01   1.073878e+02
  -1.019828e+02   9.783672e+00
  -3.684059e+01  -3.066662e+01
   3.216844e+01   1.750106e+01
   1.855845e+01   8.705186e+01
  -7.936934e+01   9.064274e+01
  -1.671625e+02   4.259789e+00
  -1.410524e+02  -1.116528e+02
  -3.286348e+00  -1.662543e+02
   1.283875e+02  -1.157053e+02
   1.398503e+02  -3.404950e+00
   4.191118e+01   7.830859e+01
  -5.139194e+01   7.445987e+01
  -5.600153e+01   1.627317e+01
   7.317635e-02  -2.102682e+01
   2.855095e+01  -5.067365e+00
  -1.100195e+01   2.165550e+01
  -7.407249e+01  -2.812509e+00
  -8.062003e+01  -8.158046e+01
   1.021819e+00  -1.446848e+02
   1.240061e+02  -1.186626e+02
   1.933273e+02   1.106918e+00
   1.483589e+02   1.337824e+02
   2.133130e+01   1.835321e+02
  -8.540935e+01   1.237110e+02
  -1.013926e+02   2.229287e+01
  -5.553342e+01  -3.580069e+01
  -2.667098e+01  -2.373620e+01
  -4.765926e+01   1.047283e+01
  -7.328057e+01   3.692317e+00
  -4.592592e+01  -4.804801e+01
   3.489920e+01  -8.764654e+01
   1.013143e+02  -5.341612e+01
   8.469953e+01   3.786368e+01
  -1.731827e+01   1.039747e+02
  -1.317281e+02   6.542170e+01
  -1.605294e+02  -6.144395e+01
  -6.052014e+01  -1.739993e+02
   1.076255e+02  -1.711777e+02
   2.183022e+02  -5.347569e+01
   1.939187e+02   8.111985e+01
   7.385226e+01   1.376938e+02
  -3.721087e+01   1.084952e+02
  -7.391938e+01   6.165126e+01
  -5.815484e+01   5.563871e+01
  -5.067433e+01   7.650512e+01
  -7.775901e+01   6.250945e+01
  -1.081466e+02  -2.053839e+01
  -9.214176e+01  -1.320990e+02
  -1.274010e+01  -1.865652e+02
   8.846001e+01  -1.316516e+02
   1.392915e+02  -2.232309e+00
   9.909167e+01   1.077459e+02
   3.912723e+00   1.262188e+02
  -6.218401e+01   6.252273e+01
  -5.011037e+01  -1.315382e+01
   3.863197e+00  -4.265326e+01
   2.201346e+01  -2.781747e+01
  -2.133304e+01  -1.022093e+01
  -6.663216e+01  -1.675067e+01
  -3.864196e+01  -3.379540e+01
   6.030468e+01  -3.012278e+01
   1.402157e+02   6.712730e+00
   1.148666e+02   5.555024e+01
  -3.431202e+00   7.944441e+01
  -1.113364e+02   5.647128e+01
  -1.183824e+02   1.071820e+00
  -3.460112e+01  -4.190328e+01
   5.000653e+01  -3.451674e+01
   6.280300e+01   1.639175e+01
   1.225963e+01   6.050937e+01
  -4.112748e+01   5.207472e+01
  -5.709983e+01  -1.171736e+00
  -4.483230e+01  -4.409722e+01
  -3.577736e+01  -3.691150e+01
  -4.314882e+01  -2.850885e+00
  -5.177942e+01  -3.183746e+00
  -3.371844e+01  -6.037689e+01
   2.536257e+01  -1.224631e+02
   1.037495e+02  -1.139014e+02
   1.451345e+02  -2.319881e+01
   1.041307e+02   7.742620e+01
   2.662505e+00   1.053843e+02
  -7.119617e+01   5.380621e+01
  -4.752224e+01  -7.422995e+00
   4.613282e+01  -1.181267e+01
   1.036383e+02   3.927217e+01
   5.177534e+01   8.850507e+01
  -7.115936e+01   8.605571e+01
  -1.534333e+02   3.009811e+01
  -1.247542e+02  -3.754756e+01
  -2.270835e+01  -6.990667e+01
   5.214161e+01  -4.875457e+01
   3.776809e+01   6.373098e-03
  -3.343533e+01   2.177329e+01
  -7.262389e+01  -1.867241e+01
  -2.624980e+01  -9.327688e+01
   7.041640e+01  -1.219273e+02
   1.295105e+02  -5.163023e+01
   9.833116e+01   7.709291e+01
   6.315057e+00   1.544634e+02
  -7.054829e+01   1.095869e+02
  -8.292887e+01  -1.311110e+01
  -3.990028e+01  -9.826702e+01
   1.469108e+01  -8.152467e+01
   4.364046e+01  -9.859826e+00
   3.755534e+01   2.725177e+01
   1.404897e+01   7.202304e+00
   3.644418e+00  -1.216900e+01
   2.106139e+01   1.925654e+01
   4.272578e+01   7.351265e+01
   2.378614e+01   8.368709e+01
  -4.462460e+01   3.161071e+01
  -1.075846e+02  -3.302111e+01
  -9.695900e+01  -5.808887e+01
  -1.317602e+01  -4.310996e+01
   6.565130e+01  -1.935029e+01
   6.895526e+01  -2.886356e+00
   1.252466e+01   9.741002e+00
  -2.849301e+01   1.679146e+01
  -1.496377e+01   1.036273e+01
   1.272869e+01  -3.111914e+00
  -2.574936e+00  -6.623143e+00
  -5.376801e+01  -3.714604e+00
  -7.224035e+01  -2.116367e+01
  -1.188299e+01  -6.429706e+01
   9.166148e+01  -8.895360e+01
   1.527811e+02  -4.592917e+01
   1.200549e+02   5.205845e+01
   2.143788e+01   1.288617e+02
  -6.848646e+01   1.228741e+02
  -9.611448e+01   5.043838e+01
  -6.615024e+01  -1.691068e+01
  -2.210113e+01  -3.097182e+01
  -1.942521e+00  -1.061944e+01
  -1.013209e+01  -7.454458e+00
  -2.257726e+01  -4.103267e+01
  -1.257557e+01  -7.460885e+01
   2.439553e+01  -5.744373e+01
   6.225802e+01   1.386913e+01
   6.234629e+01   8.344095e+01
   9.469252e+00   8.861950e+01
  -6.028551e+01   2.346525e+01
  -8.278343e+01  -5.432394e+01
  -2.936385e+01  -8.252119e+01
   5.254206e+01  -4.923124e+01
   8.196735e+01   8.038160e+00
   3.428072e+01   4.599717e+01
  -2.852137e+01   4.730419e+01
  -3.100675e+01   2.273348e+01
   2.291786e+01  -2.888244e+00
   5.578100e+01  -4.539358e+00
   1.427246e+01   2.283266e+01
  -6.417177e+01   5.146593e+01
  -9.855498e+01   4.124007e+01
  -5.813370e+01  -1.393695e+01
   1.082829e+01  -6.735309e+01
   4.712827e+01  -6.554169e+01
   3.594702e+01  -9.640509e+00
   4.536940e+00   4.114773e+01
  -1.993875e+01   3.695479e+01
  -2.887882e+01  -1.007689e+01
  -2.105909e+01  -4.369123e+01
   1.661747e+00  -3.110390e+01
   2.595288e+01   5.207517e+00
   3.258066e+01   2.089239e+01
   1.752162e+01   3.789305e+00
  -9.952066e-01  -1.562185e+01
  -4.505304e+00  -5.785590e+00
   1.304063e+00   2.629776e+01
  -3.413529e+00   4.182844e+01
  -2.194208e+01   1.617371e+01
  -3.084029e+01  -2.882662e+01
  -8.191803e+00  -4.680024e+01
   3.236801e+01  -1.813159e+01
   4.835838e+01   2.835769e+01
   1.347323e+01   4.798497e+01
  -4.673310e+01   2.641598e+01
  -7.449809e+01  -1.178730e+01
  -3.953797e+01  -3.572791e+01
   2.482190e+01  -3.566050e+01
   5.396413e+01  -2.076052e+01
   2.367324e+01  -4.265127e+00
  -2.337746e+01   2.838056e+00
  -2.756791e+01  -5.308274e+00
   1.877866e+01  -1.938501e+01
   6.283074e+01  -1.462576e+01
