
 $NMID
 id='ANONYMOUS ', fmtdat='(2E16.6)'
 volume=1.0
 tramp=1.0
 $END
   3.523306e+03   1.556323e+02
   2.305866e+03   1.786642e+03
  -4.265469e+02   1.977417e+03
  -1.457750e+03   8.313866e+02
  -8.920146e+02  -1.605211e+01
   3.420746e+02  -3.666851e+02
   5.076326e+02   9.118720e+01
   1.266358e+02   7.523075e+02
  -6.351029e+02   7.321809e+02
  -5.945683e+02   3.182734e+01
  -4.549155e+02  -6.669667e+02
   6.236250e+01  -7.063107e+02
   3.652846e+02  -1.381251e+02
   2.533889e+02   5.139603e+02
  -1.437352e+02   5.672865e+02
  -4.340273e+02   5.339941e+01
  -2.110069e+02  -5.326598e+02
   2.155041e+02  -6.098024e+02
   4.395074e+02  -1.616205e+02
   3.569303e+02   2.561641e+02
   8.916517e+01   3.858844e+02
  -1.262057e+02   2.437395e+02
  -1.304123e+02   5.736960e+01
   1.277713e+02  -1.327400e+01
   3.170848e+02   1.884607e+02
   1.129635e+02   3.498481e+02
  -4.312475e+02   2.697126e+02
  -6.979109e+02  -1.065850e+02
  -3.278533e+02  -3.823367e+02
   3.439106e+02  -2.900321e+02
   6.012843e+02   9.364576e+01
   2.481003e+02   3.753736e+02
  -2.844448e+02   4.140922e+02
  -5.034670e+02   1.478419e+02
  -3.552416e+02  -1.861059e+02
  -6.873990e+01  -3.896157e+02
   9.930689e+01  -2.320069e+02
   3.758257e+01   1.484858e+02
  -1.736867e+02   2.830419e+02
  -3.014698e+02  -8.772385e+01
  -1.215648e+02  -5.570619e+02
   2.548901e+02  -5.577252e+02
   4.322793e+02  -2.489859e+01
   1.825602e+02   3.916945e+02
  -1.981511e+02   2.181664e+02
  -2.666607e+02  -2.753356e+02
   7.360582e+01  -4.431433e+02
   4.759025e+02  -1.010656e+02
   5.324755e+02   3.696419e+02
   1.707716e+02   5.232683e+02
  -3.337886e+02   2.980612e+02
  -5.703493e+02  -6.800320e+01
  -3.527354e+02  -3.049687e+02
   1.012649e+02  -2.766893e+02
   3.616125e+02  -7.005709e+01
   2.295939e+02   9.845403e+01
  -4.446679e+01   6.289408e+01
  -9.872661e+01  -7.935979e+01
   1.012526e+02  -1.101593e+02
   2.550612e+02   3.746243e+01
   1.356735e+02   2.107974e+02
  -1.462658e+02   2.481889e+02
  -3.157782e+02   1.276460e+02
  -2.377503e+02  -8.689162e+01
   1.271283e+01  -3.000107e+02
   2.653363e+02  -3.671102e+02
   3.666146e+02  -1.750478e+02
   2.615552e+02   1.759948e+02
   5.227993e+01   3.986046e+02
  -7.552423e+01   3.279697e+02
  -5.635559e+01   1.248556e+02
  -1.725257e+01   4.819538e+01
  -9.143927e+01   1.072011e+02
  -2.249057e+02   9.307682e+01
  -2.542429e+02  -8.799359e+01
  -1.143508e+02  -2.597978e+02
   8.988394e+01  -2.162350e+02
   2.061543e+02   2.429979e+01
   1.547172e+02   2.461668e+02
  -4.317372e+01   2.672364e+02
  -2.577011e+02   7.704133e+01
  -3.218140e+02  -1.749270e+02
  -1.670810e+02  -3.106729e+02
   6.811885e+01  -2.683237e+02
   1.784200e+02  -1.368740e+02
   1.394016e+02  -5.775952e+01
   1.263579e+02  -6.218984e+01
   2.564356e+02  -5.346543e+01
   3.989437e+02   7.307236e+01
   3.204275e+02   2.764555e+02
  -3.059685e+00   4.276471e+02
  -3.474113e+02   4.026831e+02
  -4.608871e+02   1.928704e+02
  -2.998066e+02  -8.971713e+01
  -3.727672e+01  -2.584290e+02
   9.940164e+01  -2.054588e+02
   3.272267e+01  -2.145883e+01
  -1.240255e+02   6.681686e+01
  -1.632726e+02  -3.614370e+01
  -2.706570e+01  -1.753477e+02
   1.384837e+02  -1.363074e+02
   1.441277e+02   5.634043e+01
  -1.711662e+01   1.581334e+02
  -1.706050e+02   1.919212e+01
  -1.566718e+02  -2.299204e+02
   1.747762e+01  -3.365415e+02
   2.290503e+02  -2.013713e+02
   3.392900e+02   5.745593e+01
   2.751936e+02   2.484529e+02
   7.016254e+01   2.679694e+02
  -1.244552e+02   1.455259e+02
  -1.579222e+02   8.628842e+00
  -3.773023e+01  -2.267904e+01
   6.117061e+01   5.424904e+01
   5.468654e+00   1.215270e+02
  -1.294431e+02   8.109431e+01
  -1.610043e+02  -2.323730e+01
  -3.912771e+01  -6.567316e+01
   8.535264e+01  -1.215542e+00
   4.775058e+01   8.800976e+01
  -1.391191e+02   9.363421e+01
  -2.971342e+02  -9.061563e+00
  -2.632154e+02  -1.608642e+02
  -4.005771e+01  -2.649528e+02
   2.018480e+02  -2.439629e+02
   2.753370e+02  -1.000297e+02
   1.449684e+02   5.605469e+01
  -3.615248e+01   8.927737e+01
  -7.999412e+01  -8.569183e+00
   4.512655e+01  -9.636219e+01
   1.919851e+02  -4.542250e+01
   2.011101e+02   1.044242e+02
   6.272896e+01   1.957492e+02
  -9.188587e+01   1.423657e+02
  -1.339148e+02   1.885529e+01
  -5.344947e+01  -4.115433e+01
   4.343253e+01   1.088451e+01
   3.744578e+01   1.019095e+02
  -8.653570e+01   1.205578e+02
  -2.093511e+02   2.210864e+01
  -1.879676e+02  -1.299847e+02
  -1.375238e+01  -2.131957e+02
   1.609713e+02  -1.558622e+02
   1.815252e+02  -7.667590e+00
   5.707635e+01   1.044403e+02
  -6.598225e+01   1.020316e+02
  -7.708433e+01   2.497250e+01
  -7.258490e+00  -2.956139e+01
   3.530395e+01  -1.548949e+01
  -4.458214e+00   2.082266e+01
  -8.211871e+01   3.290742e+00
  -1.047038e+02  -8.477279e+01
  -1.815249e+01  -1.700874e+02
   1.361619e+02  -1.568758e+02
   2.402294e+02  -1.881646e+01
   1.977652e+02   1.532223e+02
   3.827206e+01   2.297617e+02
  -1.038629e+02   1.616028e+02
  -1.283493e+02   2.964337e+01
  -6.860233e+01  -4.724778e+01
  -2.797347e+01  -2.804697e+01
  -5.298246e+01   1.836492e+01
  -8.520875e+01   1.252670e+01
  -5.625651e+01  -5.250799e+01
   3.316095e+01  -1.019993e+02
   1.106105e+02  -6.746860e+01
   1.010652e+02   3.903163e+01
  -1.149682e+01   1.240067e+02
  -1.530543e+02   9.108349e+01
  -2.049961e+02  -5.939379e+01
  -9.316298e+01  -2.093971e+02
   1.174164e+02  -2.247879e+02
   2.678108e+02  -8.729757e+01
   2.467514e+02   8.889864e+01
   9.912699e+01   1.722181e+02
  -4.162433e+01   1.404248e+02
  -8.876104e+01   7.776753e+01
  -6.907624e+01   6.474828e+01
  -5.690259e+01   9.102153e+01
  -8.801831e+01   7.947776e+01
  -1.293710e+02  -1.601814e+01
  -1.189742e+02  -1.511140e+02
  -2.937359e+01  -2.240558e+02
   9.797961e+01  -1.673675e+02
   1.710702e+02  -1.525436e+01
   1.308265e+02   1.229466e+02
   1.473553e+01   1.554055e+02
  -7.127573e+01   8.509937e+01
  -6.200954e+01  -7.949569e+00
   7.094278e-01  -4.998572e+01
   2.234949e+01  -3.558532e+01
  -2.893497e+01  -1.091838e+01
  -8.370008e+01  -1.367584e+01
  -5.246964e+01  -3.661430e+01
   6.499924e+01  -4.253345e+01
   1.657538e+02  -6.230233e+00
   1.442612e+02   5.554027e+01
   6.391073e+00   9.474985e+01
  -1.284877e+02   7.408772e+01
  -1.446126e+02   6.722162e+00
  -4.497412e+01  -4.868238e+01
   6.137310e+01  -4.192677e+01
   7.950648e+01   1.865912e+01
   1.777576e+01   7.136810e+01
  -4.772805e+01   6.274146e+01
  -6.668193e+01   2.180919e+00
  -5.362271e+01  -4.802611e+01
  -4.530959e+01  -4.084424e+01
  -5.459703e+01  -4.851354e-01
  -6.315454e+01   1.703513e+00
  -4.255670e+01  -6.634588e+01
   2.376525e+01  -1.466377e+02
   1.158862e+02  -1.444368e+02
   1.702841e+02  -3.756598e+01
   1.267334e+02   8.874044e+01
   4.533817e+00   1.286594e+02
  -8.915636e+01   6.648585e+01
  -6.085813e+01  -1.348027e+01
   5.939201e+01  -2.484904e+01
   1.371303e+02   3.674307e+01
   7.561093e+01   1.043793e+02
  -7.871902e+01   1.127943e+02
  -1.863036e+02   5.156403e+01
  -1.570010e+02  -3.483533e+01
  -3.391876e+01  -8.504871e+01
   6.100711e+01  -6.531652e+01
   4.823743e+01  -2.728048e+00
  -3.723735e+01   2.980359e+01
  -8.840986e+01  -1.871333e+01
  -3.668942e+01  -1.137319e+02
   8.021722e+01  -1.521172e+02
   1.568027e+02  -6.587933e+01
   1.254552e+02   9.394531e+01
   1.593135e+01   1.922444e+02
  -8.243523e+01   1.410987e+02
  -1.064460e+02  -8.599663e+00
  -6.029113e+01  -1.185561e+02
   7.958446e+00  -1.055702e+02
   5.072304e+01  -1.948827e+01
   4.851944e+01   3.048628e+01
   1.919378e+01   8.644310e+00
   4.238045e+00  -1.774494e+01
   2.784685e+01   1.707336e+01
   5.916878e+01   8.544842e+01
   3.707820e+01   1.039093e+02
  -5.197216e+01   4.452377e+01
  -1.350329e+02  -3.440073e+01
  -1.229542e+02  -6.708966e+01
  -1.703341e+01  -5.156035e+01
   8.175194e+01  -2.542581e+01
   8.509798e+01  -6.546275e+00
   1.501418e+01   1.096215e+01
  -3.431658e+01   2.238020e+01
  -1.674338e+01   1.455572e+01
   1.641889e+01  -3.218734e+00
  -4.184609e+00  -5.758580e+00
  -6.769629e+01   1.527135e+00
  -9.072012e+01  -1.960273e+01
  -1.875127e+01  -7.836048e+01
   1.055698e+02  -1.159421e+02
   1.810890e+02  -6.545715e+01
   1.466611e+02   5.768299e+01
   3.239282e+01   1.561702e+02
  -7.609596e+01   1.513868e+02
  -1.137586e+02   6.367185e+01
  -8.027678e+01  -1.890072e+01
  -2.565861e+01  -3.685034e+01
   4.712573e-01  -1.174827e+01
  -1.190010e+01  -5.823517e+00
  -3.182291e+01  -4.560383e+01
  -2.157628e+01  -8.837963e+01
   2.678066e+01  -7.127139e+01
   7.759592e+01   1.379485e+01
   7.870896e+01   9.956917e+01
   1.228426e+01   1.076211e+02
  -7.439607e+01   2.959645e+01
  -1.020214e+02  -6.476795e+01
  -3.709638e+01  -9.939924e+01
   6.225533e+01  -6.043045e+01
   9.863521e+01   7.324436e+00
   4.244960e+01   5.390533e+01
  -3.242940e+01   5.817720e+01
  -3.553862e+01   2.932363e+01
   2.861643e+01  -4.877022e+00
   6.759748e+01  -9.564340e+00
   1.775447e+01   2.629229e+01
  -7.559214e+01   6.712172e+01
  -1.161632e+02   5.755346e+01
  -6.858465e+01  -1.241556e+01
   1.082349e+01  -8.155744e+01
   5.157582e+01  -7.989166e+01
   3.870032e+01  -1.071983e+01
   3.799036e+00   5.068707e+01
  -2.428094e+01   4.283554e+01
  -3.571547e+01  -1.493309e+01
  -2.658013e+01  -5.334607e+01
   2.693171e+00  -3.604129e+01
   3.351765e+01   6.923730e+00
   4.065222e+01   2.376440e+01
   2.004063e+01   3.705627e+00
  -3.086191e+00  -1.696871e+01
  -6.988542e+00  -3.274391e+00
  -3.937343e-01   3.393189e+01
  -7.666258e+00   4.932368e+01
  -2.988766e+01   1.621096e+01
  -3.810922e+01  -3.842138e+01
  -8.206403e+00  -5.994549e+01
   4.162576e+01  -2.498826e+01
   6.069099e+01   3.298506e+01
   1.846152e+01   5.988721e+01
  -5.548865e+01   3.612039e+01
  -9.100400e+01  -1.068769e+01
  -4.977258e+01  -4.266655e+01
   2.855618e+01  -4.480386e+01
   6.472443e+01  -2.648786e+01
   2.694600e+01  -5.028584e+00
  -3.162356e+01   3.640170e+00
  -3.557305e+01  -8.577091e+00
   2.416116e+01  -2.809931e+01
   8.048420e+01  -2.172404e+01
