
 $NMID
 id='ANONYMOUS ', fmtdat='(2E16.6)'
 volume=1.0
 tramp=1.0
 $END
  -3.315155e+03   1.546139e+01
  -2.210197e+03  -1.890596e+03
   2.658789e+02  -1.995583e+03
   1.587336e+03  -8.563372e+02
   9.579089e+02   8.916443e+01
  -1.882745e+02   3.079345e+02
  -5.356763e+02  -2.644935e+02
   1.347795e+01  -7.155347e+02
   5.458673e+02  -5.690521e+02
   7.674571e+02   6.682938e+01
   4.663275e+02   5.928307e+02
  -1.899046e+02   6.337447e+02
  -4.445816e+02   1.139046e+02
  -3.101358e+02  -5.086875e+02
   2.041397e+02  -6.173788e+02
   4.671552e+02  -5.321702e+01
   2.558283e+02   5.401742e+02
  -2.015739e+02   5.911185e+02
  -4.571917e+02   1.428134e+02
  -3.874639e+02  -2.395471e+02
  -6.381669e+01  -3.746723e+02
   1.565099e+02  -2.200534e+02
   7.544368e+01  -6.949910e+01
  -1.876030e+02  -5.856470e+01
  -3.144006e+02  -2.050641e+02
  -5.261378e+01  -3.389072e+02
   4.591462e+02  -2.251061e+02
   6.471495e+02   1.229572e+02
   2.408492e+02   3.935633e+02
  -3.477164e+02   2.640494e+02
  -5.689334e+02  -1.360906e+02
  -2.235864e+02  -4.054819e+02
   2.879768e+02  -3.888802e+02
   4.974008e+02  -1.207792e+02
   3.314809e+02   1.812261e+02
   6.229414e+01   3.381199e+02
  -9.322603e+01   2.212929e+02
  -2.989111e+01  -1.292881e+02
   1.527370e+02  -2.600690e+02
   2.620273e+02   6.631984e+01
   9.663956e+01   5.173768e+02
  -2.436879e+02   5.207877e+02
  -3.844031e+02   2.095861e+01
  -1.699280e+02  -3.753004e+02
   1.607197e+02  -2.190361e+02
   2.338772e+02   2.558660e+02
  -7.297223e+01   4.215348e+02
  -4.421242e+02   1.031807e+02
  -5.009904e+02  -3.386644e+02
  -1.663228e+02  -4.907225e+02
   3.009428e+02  -2.929566e+02
   5.371847e+02   4.377426e+01
   3.463003e+02   2.798952e+02
  -8.050307e+01   2.726427e+02
  -3.375117e+02   8.396498e+01
  -2.187453e+02  -7.661687e+01
   4.068330e+01  -4.954085e+01
   8.261720e+01   8.167525e+01
  -1.181086e+02   1.005227e+02
  -2.579374e+02  -4.978904e+01
  -1.259297e+02  -2.098008e+02
   1.504061e+02  -2.324362e+02
   3.071727e+02  -1.242844e+02
   2.352693e+02   5.530702e+01
   1.051046e+01   2.544240e+02
  -2.248633e+02   3.537757e+02
  -3.371918e+02   2.078576e+02
  -2.573495e+02  -1.312207e+02
  -5.946197e+01  -3.763165e+02
   7.536952e+01  -3.275132e+02
   6.019881e+01  -1.273297e+02
   7.451381e+00  -4.582503e+01
   6.586632e+01  -1.072346e+02
   2.043086e+02  -9.903715e+01
   2.543272e+02   7.462642e+01
   1.295161e+02   2.428046e+02
  -7.308060e+01   2.011351e+02
  -1.976658e+02  -2.837923e+01
  -1.524838e+02  -2.371212e+02
   3.841545e+01  -2.522559e+02
   2.512100e+02  -7.388981e+01
   3.172845e+02   1.621785e+02
   1.690266e+02   2.936058e+02
  -6.249262e+01   2.587740e+02
  -1.728322e+02   1.282737e+02
  -1.306067e+02   4.935099e+01
  -1.112260e+02   6.040574e+01
  -2.338163e+02   6.070895e+01
  -3.763863e+02  -5.438721e+01
  -3.156127e+02  -2.555342e+02
  -8.590983e+00  -4.061808e+02
   3.286988e+02  -3.852970e+02
   4.469180e+02  -1.847067e+02
   2.898314e+02   8.133566e+01
   2.913807e+01   2.492146e+02
  -1.049899e+02   2.054899e+02
  -3.676717e+01   2.607359e+01
   1.144402e+02  -7.241063e+01
   1.544412e+02   2.030459e+01
   2.801917e+01   1.597043e+02
  -1.246382e+02   1.339861e+02
  -1.349563e+02  -4.903763e+01
   1.358461e+01  -1.536231e+02
   1.618725e+02  -2.573325e+01
   1.583206e+02   2.169007e+02
  -5.791500e+00   3.275873e+02
  -2.141298e+02   2.024546e+02
  -3.283517e+02  -4.384620e+01
  -2.714189e+02  -2.303848e+02
  -7.428915e+01  -2.569401e+02
   1.171812e+02  -1.450806e+02
   1.540365e+02  -1.154716e+01
   3.906790e+01   2.589198e+01
  -6.182857e+01  -4.416624e+01
  -1.413566e+01  -1.130995e+02
   1.172627e+02  -8.174556e+01
   1.547499e+02   1.670885e+01
   4.150895e+01   6.204313e+01
  -8.200804e+01   4.486309e+00
  -5.159197e+01  -8.147906e+01
   1.267065e+02  -9.224853e+01
   2.824707e+02   1.516569e+00
   2.551063e+02   1.458417e+02
   4.543515e+01   2.509621e+02
  -1.871537e+02   2.395551e+02
  -2.630275e+02   1.056412e+02
  -1.449206e+02  -4.916682e+01
   2.727839e+01  -9.150223e+01
   7.501030e+01  -1.730015e+00
  -3.828858e+01   8.910274e+01
  -1.786435e+02   4.919754e+01
  -1.929383e+02  -9.290984e+01
  -6.557753e+01  -1.870449e+02
   8.404698e+01  -1.434402e+02
   1.308797e+02  -2.542176e+01
   5.855191e+01   3.848207e+01
  -3.637613e+01  -4.267345e+00
  -3.744408e+01  -9.015895e+01
   7.656938e+01  -1.141443e+02
   1.965156e+02  -2.670079e+01
   1.825752e+02   1.186232e+02
   1.941353e+01   2.048464e+02
  -1.500925e+02   1.553106e+02
  -1.759592e+02   1.258010e+01
  -6.014828e+01  -1.002091e+02
   5.937619e+01  -1.018487e+02
   7.351805e+01  -2.686150e+01
   8.654465e+00   2.937880e+01
  -3.308436e+01   1.786249e+01
   2.115505e+00  -1.891224e+01
   7.405970e+01  -7.293314e+00
   9.753088e+01   7.210406e+01
   2.094169e+01   1.557925e+02
  -1.213654e+02   1.502595e+02
  -2.218018e+02   2.552642e+01
  -1.887395e+02  -1.387732e+02
  -4.186768e+01  -2.165165e+02
   9.548487e+01  -1.570603e+02
   1.231159e+02  -3.046261e+01
   6.713280e+01   4.670315e+01
   2.600167e+01   3.051060e+01
   4.726531e+01  -1.663235e+01
   7.877997e+01  -1.398119e+01
   5.310063e+01   4.590737e+01
  -2.976347e+01   9.644782e+01
  -1.050818e+02   6.748801e+01
  -9.788762e+01  -3.256533e+01
   7.231592e+00  -1.174009e+02
   1.427119e+02  -9.168954e+01
   1.945640e+02   4.998859e+01
   9.275730e+01   1.968336e+02
  -1.062351e+02   2.192937e+02
  -2.531133e+02   9.120236e+01
  -2.392429e+02  -8.074138e+01
  -1.002325e+02  -1.653013e+02
   3.791939e+01  -1.365457e+02
   8.747573e+01  -7.551887e+01
   6.816240e+01  -6.145223e+01
   5.265225e+01  -8.486427e+01
   7.962071e+01  -7.489859e+01
   1.209955e+02   1.342749e+01
   1.153575e+02   1.405256e+02
   3.231243e+01   2.115640e+02
  -8.998680e+01   1.612267e+02
  -1.629186e+02   1.793628e+01
  -1.267967e+02  -1.150699e+02
  -1.634585e+01  -1.487217e+02
   6.673112e+01  -8.303919e+01
   5.918171e+01   6.192425e+00
   5.406949e-01   4.802902e+01
  -2.067878e+01   3.563369e+01
   2.636221e+01   1.171307e+01
   7.760239e+01   1.197100e+01
   4.918398e+01   3.205767e+01
  -6.080671e+01   3.929250e+01
  -1.572953e+02   8.740335e+00
  -1.399585e+02  -4.898287e+01
  -1.013681e+01  -9.030268e+01
   1.207783e+02  -7.560075e+01
   1.398679e+02  -1.136462e+01
   4.566073e+01   4.614722e+01
  -5.792546e+01   4.336051e+01
  -7.767105e+01  -1.486510e+01
  -1.870141e+01  -6.802054e+01
   4.528545e+01  -6.173469e+01
   6.453876e+01  -3.582326e+00
   5.183988e+01   4.537900e+01
   4.404088e+01   3.969985e+01
   5.265981e+01   1.821918e+00
   6.019365e+01  -1.023405e-01
   3.979423e+01   6.446365e+01
  -2.342841e+01   1.405564e+02
  -1.111768e+02   1.389678e+02
  -1.636280e+02   3.736287e+01
  -1.237088e+02  -8.429050e+01
  -7.517780e+00  -1.253147e+02
   8.446032e+01  -6.829073e+01
   6.170448e+01   9.310208e+00
  -5.128772e+01   2.457268e+01
  -1.282199e+02  -3.098099e+01
  -7.411613e+01  -9.609738e+01
   7.157704e+01  -1.067687e+02
   1.765707e+02  -5.061159e+01
   1.510659e+02   3.211158e+01
   3.337337e+01   8.125302e+01
  -5.894398e+01   6.330175e+01
  -4.761959e+01   3.256012e+00
   3.435958e+01  -2.904577e+01
   8.467231e+01   1.582144e+01
   3.752313e+01   1.066010e+02
  -7.276080e+01   1.459297e+02
  -1.475002e+02   6.758812e+01
  -1.217327e+02  -8.357712e+01
  -2.112863e+01  -1.806542e+02
   7.260372e+01  -1.370019e+02
   9.923079e+01   3.215818e+00
   5.906045e+01   1.091902e+02
  -5.214784e+00   9.919270e+01
  -4.722787e+01   1.818451e+01
  -4.592679e+01  -2.970790e+01
  -1.715654e+01  -8.865220e+00
  -2.048490e+00   1.783481e+01
  -2.518910e+01  -1.411061e+01
  -5.714298e+01  -7.972605e+01
  -3.791936e+01  -9.927309e+01
   4.719165e+01  -4.430031e+01
   1.287413e+02   3.081768e+01
   1.196581e+02   6.327874e+01
   1.916363e+01   4.969656e+01
  -7.696415e+01   2.523217e+01
  -8.269284e+01   7.097544e+00
  -1.625943e+01  -1.008293e+01
   3.271012e+01  -2.184822e+01
   1.791719e+01  -1.449266e+01
  -1.414053e+01   3.632424e+00
   2.993094e+00   7.397906e+00
   6.185423e+01  -5.545730e-01
   8.516826e+01   1.671063e+01
   1.960487e+01   7.136970e+01
  -9.714348e+01   1.099349e+02
  -1.705641e+02   6.627963e+01
  -1.409111e+02  -4.984857e+01
  -3.429698e+01  -1.472715e+02
   6.949339e+01  -1.467784e+02
   1.073461e+02  -6.357421e+01
   7.729945e+01   1.740186e+01
   2.529986e+01   3.595397e+01
  -7.822578e-01   1.129706e+01
   1.039994e+01   4.867231e+00
   3.048150e+01   4.275782e+01
   2.189711e+01   8.400538e+01
  -2.423361e+01   6.829976e+01
  -7.400742e+01  -1.192839e+01
  -7.682069e+01  -9.285133e+01
  -1.436567e+01  -1.013879e+02
   6.930043e+01  -2.938556e+01
   9.751075e+01   5.888155e+01
   3.713970e+01   9.320503e+01
  -5.782849e+01   5.918664e+01
  -9.488318e+01  -4.516326e+00
  -4.339857e+01  -5.073230e+01
   2.824840e+01  -5.721457e+01
   3.411859e+01  -2.990294e+01
  -2.482680e+01   4.201976e+00
  -6.247605e+01   1.017108e+01
  -1.734512e+01  -2.396224e+01
   7.016427e+01  -6.353511e+01
   1.090582e+02  -5.454168e+01
   6.481937e+01   1.225598e+01
  -1.100061e+01   7.832493e+01
  -5.099578e+01   7.645293e+01
  -3.931654e+01   9.192400e+00
  -4.962177e+00  -5.081455e+01
   2.343868e+01  -4.400073e+01
   3.594071e+01   1.218049e+01
   2.756972e+01   5.080463e+01
  -9.701197e-01   3.605114e+01
  -3.213109e+01  -4.562479e+00
  -3.994848e+01  -2.170907e+01
  -1.958356e+01  -3.605239e+00
   4.023157e+00   1.625302e+01
   7.565484e+00   4.327514e+00
  -1.535296e+00  -3.019561e+01
   2.696806e+00  -4.616043e+01
   2.481385e+01  -1.785003e+01
   3.694608e+01   3.240459e+01
   1.198574e+01   5.509202e+01
  -3.623220e+01   2.558298e+01
  -5.817550e+01  -2.799420e+01
  -2.078765e+01  -5.566835e+01
   4.975652e+01  -3.638146e+01
   8.598733e+01   7.389399e+00
   4.910293e+01   3.945507e+01
  -2.479491e+01   4.361243e+01
  -6.048135e+01   2.700911e+01
  -2.685744e+01   5.609969e+00
   2.765415e+01  -4.215476e+00
   3.275853e+01   6.362054e+00
  -2.177394e+01   2.552856e+01
  -7.515012e+01   2.131641e+01
