
 $NMID
 id='ANONYMOUS ', fmtdat='(2E16.6)'
 volume=1.0
 tramp=1.0
 $END
  -1.810633e+03  -1.829720e+01
  -1.201186e+03  -1.121154e+03
   2.754770e+02  -1.401323e+03
   7.981658e+02  -5.261203e+02
   7.078291e+02   1.108442e+02
  -1.155944e+02   5.639540e+01
  -3.289186e+02  -1.671090e+02
   2.280821e+01  -4.307194e+02
   3.268784e+02  -3.789868e+02
   3.770471e+02  -3.124322e+00
   1.931615e+02   3.596103e+02
  -5.725226e+01   4.379175e+02
  -2.291525e+02   1.336085e+02
  -1.761082e+02  -3.136918e+02
   8.531420e+01  -3.833930e+02
   1.941148e+02   5.955452e+00
   8.748599e+01   3.133285e+02
  -1.283178e+02   3.411495e+02
  -3.149009e+02   9.286675e+01
  -2.161679e+02  -1.499136e+02
  -3.086186e+01  -2.443495e+02
   8.321016e+01  -1.142717e+02
   1.502170e+01  -1.747063e+01
  -9.185763e+01  -1.233242e+00
  -1.651858e+02  -1.240722e+02
   1.863198e+01  -2.102481e+02
   2.678223e+02  -1.304705e+02
   3.433459e+02   8.302937e+01
   1.164112e+02   2.236572e+02
  -1.526444e+02   1.359604e+02
  -2.673405e+02  -6.063500e+01
  -9.870886e+01  -2.162039e+02
   1.430853e+02  -1.775529e+02
   2.443862e+02  -5.759596e+01
   1.863134e+02   1.061331e+02
   2.991298e+01   1.500652e+02
  -3.581400e+01   7.468720e+01
   7.293860e+00  -5.406746e+01
   1.098758e+02  -7.536430e+01
   1.123123e+02   8.713850e+01
   9.809106e+00   2.425027e+02
  -1.545270e+02   2.090297e+02
  -1.702660e+02  -1.201203e+01
  -4.127677e+01  -1.502551e+02
   8.650272e+01  -6.691213e+01
   7.658411e+01   1.378743e+02
  -7.203554e+01   2.013572e+02
  -2.438479e+02   4.465732e+01
  -2.606922e+02  -1.873687e+02
  -7.503103e+01  -2.659288e+02
   1.625969e+02  -1.471283e+02
   2.698902e+02   3.915826e+01
   1.678449e+02   1.461951e+02
  -4.107682e+01   1.187550e+02
  -1.624692e+02   2.359195e+01
  -1.084187e+02  -3.246457e+01
   1.122000e+01  -7.516465e+00
   3.161996e+01   4.293991e+01
  -6.552294e+01   3.368693e+01
  -1.374152e+02  -4.620327e+01
  -6.331982e+01  -1.256062e+02
   1.050419e+02  -1.324536e+02
   2.055650e+02  -5.299353e+01
   1.430728e+02   7.061045e+01
  -2.829851e+01   1.724536e+02
  -1.757872e+02   1.822385e+02
  -2.041226e+02   7.018214e+01
  -1.189815e+02  -1.004604e+02
  -4.937871e+00  -2.035375e+02
   5.169830e+01  -1.736388e+02
   4.154368e+01  -7.785157e+01
   2.809308e+01  -2.654222e+01
   6.162804e+01  -3.309407e+01
   1.128430e+02  -1.790563e+01
   1.139931e+02   5.948209e+01
   4.303191e+01   1.303641e+02
  -5.159871e+01   1.026541e+02
  -1.029398e+02  -1.931334e+01
  -7.324147e+01  -1.318115e+02
   2.552869e+01  -1.365310e+02
   1.336421e+02  -3.321112e+01
   1.660364e+02   1.011107e+02
   8.337097e+01   1.715205e+02
  -3.869853e+01   1.442291e+02
  -1.009718e+02   7.229794e+01
  -8.485737e+01   3.400114e+01
  -8.216878e+01   3.436274e+01
  -1.435273e+02   1.471096e+01
  -2.081807e+02  -6.287569e+01
  -1.531393e+02  -1.698776e+02
   2.722242e+01  -2.268946e+02
   2.091001e+02  -1.901687e+02
   2.561307e+02  -7.167855e+01
   1.522505e+02   6.046388e+01
   5.199217e+00   1.372479e+02
  -6.411720e+01   1.093851e+02
  -2.024343e+01   2.338488e+01
   5.572299e+01  -2.149627e+01
   7.174178e+01   1.693890e+01
   3.264800e+00   7.526168e+01
  -6.822812e+01   5.473544e+01
  -6.149798e+01  -3.030459e+01
   1.744186e+01  -7.192698e+01
   8.676665e+01   4.230732e+00
   7.049172e+01   1.306774e+02
  -2.567402e+01   1.839092e+02
  -1.376492e+02   1.025688e+02
  -1.869881e+02  -4.715275e+01
  -1.392425e+02  -1.508944e+02
  -2.386058e+01  -1.491744e+02
   7.335283e+01  -7.174503e+01
   8.305330e+01   1.306098e+00
   2.118518e+01   9.486230e+00
  -2.335138e+01  -3.315241e+01
   5.715652e+00  -5.894640e+01
   6.757680e+01  -2.949030e+01
   7.867803e+01   2.071816e+01
   1.867232e+01   3.235525e+01
  -4.022543e+01  -6.541648e+00
  -1.879428e+01  -4.802814e+01
   7.593523e+01  -4.036208e+01
   1.533980e+02   2.112402e+01
   1.295812e+02   9.772337e+01
   9.779395e+00   1.406827e+02
  -1.132818e+02   1.192623e+02
  -1.446890e+02   4.442153e+01
  -7.466873e+01  -2.822913e+01
   1.454816e+01  -4.125638e+01
   3.187935e+01   3.617839e+00
  -3.174332e+01   4.063212e+01
  -9.991059e+01   1.292947e+01
  -9.711301e+01  -5.918244e+01
  -2.462188e+01  -1.017582e+02
   5.061817e+01  -7.455184e+01
   6.728829e+01  -1.318688e+01
   2.642106e+01   1.661213e+01
  -1.664887e+01  -9.253808e+00
  -7.102753e+00  -5.301212e+01
   5.552462e+01  -5.697455e+01
   1.107613e+02  -6.927326e-01
   9.229313e+01   7.773501e+01
   1.050675e+00   1.142204e+02
  -8.647077e+01   7.763531e+01
  -9.603628e+01   2.726747e-01
  -3.261952e+01  -5.349143e+01
   3.123855e+01  -4.988247e+01
   3.880501e+01  -1.315154e+01
   6.103594e+00   9.934856e+00
  -1.330073e+01   3.134858e+00
   8.282158e+00  -7.691837e+00
   4.386998e+01   9.560001e+00
   4.679840e+01   5.477575e+01
  -6.069050e+00   8.974818e+01
  -8.313321e+01   7.109635e+01
  -1.251957e+02  -4.455464e+00
  -9.350382e+01  -8.959571e+01
  -1.046117e+01  -1.217976e+02
   5.950874e+01  -8.411559e+01
   7.043800e+01  -1.520245e+01
   3.996953e+01   2.502844e+01
   1.965868e+01   1.967001e+01
   2.917557e+01  -1.070538e+00
   4.403287e+01   1.764809e+00
   2.464855e+01   3.147936e+01
  -2.533198e+01   5.112822e+01
  -6.582544e+01   2.929411e+01
  -5.346126e+01  -2.706807e+01
   1.388856e+01  -6.573121e+01
   8.802194e+01  -4.275736e+01
   1.052999e+02   3.996723e+01
   3.853430e+01   1.145756e+02
  -7.003759e+01   1.160047e+02
  -1.426936e+02   3.942382e+01
  -1.293889e+02  -5.368026e+01
  -5.290976e+01  -9.594621e+01
   2.253735e+01  -7.629442e+01
   5.179280e+01  -4.214674e+01
   4.498123e+01  -3.579480e+01
   3.873291e+01  -4.767868e+01
   5.228677e+01  -3.700985e+01
   6.951208e+01   1.761313e+01
   5.800347e+01   8.862946e+01
   5.303380e+00   1.218494e+02
  -6.143173e+01   8.521646e+01
  -9.274216e+01   1.071273e+00
  -6.352141e+01  -7.069566e+01
  -3.003875e-01  -8.301844e+01
   4.126330e+01  -4.213494e+01
   3.218208e+01   6.812615e+00
  -1.675449e+00   2.659880e+01
  -1.242711e+01   1.896040e+01
   1.404924e+01   9.838851e+00
   4.082917e+01   1.418708e+01
   2.301290e+01   2.221645e+01
  -3.765137e+01   1.681151e+01
  -8.760243e+01  -6.780392e+00
  -7.405183e+01  -3.587048e+01
  -1.425203e+00  -4.981743e+01
   6.873545e+01  -3.543387e+01
   7.694114e+01  -1.014255e+00
   2.472533e+01   2.629928e+01
  -3.094578e+01   2.161201e+01
  -4.050952e+01  -1.138609e+01
  -7.405821e+00  -3.979767e+01
   2.741796e+01  -3.386320e+01
   3.660899e+01   1.026692e+00
   2.834252e+01   2.911665e+01
   2.490828e+01   2.521768e+01
   3.163105e+01   4.338114e+00
   3.555695e+01   4.945019e+00
   1.981726e+01   4.073146e+01
  -2.104032e+01   7.868605e+01
  -6.997803e+01   7.217146e+01
  -9.323879e+01   1.413324e+01
  -6.541652e+01  -4.931875e+01
  -1.368485e+00  -6.705544e+01
   4.572286e+01  -3.486133e+01
   3.130414e+01   3.587571e+00
  -2.810366e+01   6.150003e+00
  -6.628357e+01  -2.577534e+01
  -3.425841e+01  -5.615755e+01
   4.492306e+01  -5.308699e+01
   9.963288e+01  -1.731114e+01
   8.220687e+01   2.489524e+01
   1.525971e+01   4.424024e+01
  -3.434839e+01   3.051543e+01
  -2.495485e+01   5.858269e-01
   2.211375e+01  -1.171953e+01
   4.642105e+01   1.469403e+01
   1.398526e+01   6.096667e+01
  -4.925994e+01   7.708156e+01
  -8.470868e+01   3.060805e+01
  -6.088403e+01  -5.174947e+01
  -7.501797e-01  -1.008658e+02
   4.625787e+01  -7.171296e+01
   5.201633e+01   7.722702e+00
   2.567800e+01   6.399889e+01
  -6.958291e+00   5.470006e+01
  -2.582617e+01   8.412940e+00
  -2.473621e+01  -1.744277e+01
  -1.162441e+01  -5.620481e+00
  -3.833253e+00   7.368249e+00
  -1.282065e+01  -1.227010e+01
  -2.599707e+01  -4.804274e+01
  -1.493191e+01  -5.524425e+01
   2.857752e+01  -2.057859e+01
   6.996214e+01   2.325918e+01
   6.354103e+01   3.986818e+01
   8.722800e+00   2.805643e+01
  -4.341588e+01   1.084481e+01
  -4.594837e+01   8.178720e-01
  -8.939671e+00  -5.332190e+00
   1.840444e+01  -9.734591e+00
   1.038824e+01  -7.653840e+00
  -6.980742e+00  -5.403571e-02
   3.194780e+00   4.249608e+00
   3.521166e+01   5.700075e+00
   4.491708e+01   1.739421e+01
   4.073315e+00   4.163008e+01
  -6.249674e+01   5.389485e+01
  -9.937927e+01   2.566673e+01
  -7.556366e+01  -3.541891e+01
  -1.085102e+01  -8.347327e+01
   4.623370e+01  -7.958885e+01
   6.294353e+01  -3.279547e+01
   4.336076e+01   1.186222e+01
   1.541546e+01   2.217070e+01
   2.319874e+00   9.082875e+00
   6.014543e+00   6.486941e+00
   1.192510e+01   2.783536e+01
   4.410418e+00   4.874378e+01
  -1.853493e+01   3.588389e+01
  -4.049090e+01  -1.205499e+01
  -3.823629e+01  -5.673619e+01
  -3.991382e+00  -5.752325e+01
   3.931707e+01  -1.338433e+01
   5.208874e+01   3.666344e+01
   1.768715e+01   5.298049e+01
  -3.388281e+01   3.023482e+01
  -5.237008e+01  -6.341199e+00
  -2.224879e+01  -2.939197e+01
   1.775408e+01  -3.005516e+01
   2.008528e+01  -1.556215e+01
  -1.340954e+01  -3.708317e-01
  -3.402013e+01   1.447354e+00
  -7.691344e+00  -1.371777e+01
   4.263728e+01  -3.007201e+01
   6.399591e+01  -2.343830e+01
   3.668086e+01   1.062378e+01
  -9.685509e+00   4.393406e+01
  -3.354669e+01   4.181972e+01
  -2.497123e+01   4.969345e+00
  -2.690376e+00  -2.879376e+01
   1.411328e+01  -2.566989e+01
   1.959133e+01   6.218457e+00
   1.441260e+01   2.931995e+01
  -2.987651e-01   2.112148e+01
  -1.617980e+01  -3.026497e+00
  -2.154540e+01  -1.339499e+01
  -1.253747e+01  -1.977604e+00
  -4.447427e-01   1.069649e+01
   2.602234e+00   3.768788e+00
  -5.660049e-01  -1.754457e+01
   2.494291e+00  -2.731217e+01
   1.356102e+01  -1.069774e+01
   1.860883e+01   1.757953e+01
   5.011163e+00   2.838949e+01
  -1.919411e+01   1.020152e+01
  -2.835303e+01  -1.847373e+01
  -6.672594e+00  -2.961463e+01
   3.025020e+01  -1.501660e+01
   4.706291e+01   9.245626e+00
   2.478307e+01   2.346102e+01
  -1.615147e+01   2.230147e+01
  -3.479066e+01   1.286010e+01
  -1.538799e+01   3.582593e+00
   1.463636e+01   1.999416e-01
   1.644346e+01   4.836687e+00
  -1.453094e+01   1.190296e+01
  -4.299239e+01   7.010405e+00
