
 $NMID
 id='ANONYMOUS ', fmtdat='(2E16.6)'
 volume=1.0
 tramp=1.0
 $END
   3.457123e+03   1.712424e+01
   2.397020e+03   1.923602e+03
  -2.069548e+02   2.282891e+03
  -1.536270e+03   1.113299e+03
  -9.128907e+02  -1.540628e+01
   1.024273e+02  -3.753520e+02
   5.813204e+02   2.849372e+02
   2.164921e+00   7.264833e+02
  -5.493771e+02   5.974305e+02
  -7.491786e+02   1.745297e+01
  -4.665272e+02  -5.955341e+02
   1.231263e+02  -6.384070e+02
   4.178797e+02  -8.966912e+01
   2.727566e+02   5.173737e+02
  -2.167872e+02   6.455625e+02
  -5.238207e+02   6.553388e+01
  -3.351325e+02  -5.005390e+02
   2.051102e+02  -6.448192e+02
   4.732939e+02  -2.217390e+02
   4.170180e+02   2.764943e+02
   5.657567e+01   4.333535e+02
  -1.545702e+02   2.739600e+02
  -1.149603e+02   2.384342e+01
   1.661357e+02   1.156077e+01
   3.484155e+02   2.259296e+02
   7.272828e+01   4.195760e+02
  -5.017272e+02   2.948154e+02
  -7.363229e+02  -1.555414e+02
  -3.237938e+02  -4.719422e+02
   4.172292e+02  -3.207781e+02
   6.494899e+02   8.461650e+01
   2.657996e+02   4.586230e+02
  -3.116530e+02   4.276848e+02
  -5.512922e+02   1.715555e+02
  -3.479135e+02  -2.067311e+02
  -7.181756e+01  -4.018764e+02
   1.233027e+02  -2.477474e+02
   4.148909e+01   1.515459e+02
  -2.082861e+02   3.061388e+02
  -3.334674e+02  -9.058686e+01
  -1.120525e+02  -6.144181e+02
   3.221095e+02  -5.964952e+02
   4.824655e+02   1.315509e+00
   1.781707e+02   4.599350e+02
  -2.451215e+02   2.416413e+02
  -3.041202e+02  -3.190487e+02
   1.022069e+02  -5.018361e+02
   5.433815e+02  -1.130246e+02
   5.936687e+02   4.136336e+02
   1.790104e+02   5.781243e+02
  -3.636134e+02   3.375690e+02
  -6.089040e+02  -5.698217e+01
  -3.671755e+02  -3.164299e+02
   1.054332e+02  -2.920918e+02
   3.606393e+02  -6.844275e+01
   2.173674e+02   1.027047e+02
  -4.883313e+01   5.302961e+01
  -7.052716e+01  -9.904395e+01
   1.473621e+02  -1.052625e+02
   2.768346e+02   7.612451e+01
   1.191212e+02   2.506974e+02
  -1.753436e+02   2.596801e+02
  -3.349697e+02   1.238376e+02
  -2.531744e+02  -7.855030e+01
  -7.035466e+00  -2.867174e+02
   2.559881e+02  -3.753347e+02
   3.811160e+02  -2.028349e+02
   2.847754e+02   1.608276e+02
   6.010816e+01   4.108206e+02
  -8.321792e+01   3.501851e+02
  -5.904543e+01   1.402459e+02
  -1.060522e+01   6.136465e+01
  -9.280698e+01   1.271476e+02
  -2.456900e+02   1.080521e+02
  -2.788609e+02  -9.330256e+01
  -1.249855e+02  -2.827056e+02
   9.270307e+01  -2.352552e+02
   2.154003e+02   2.381179e+01
   1.641423e+02   2.628084e+02
  -4.026089e+01   2.822981e+02
  -2.728954e+02   8.084161e+01
  -3.446982e+02  -1.899718e+02
  -1.785670e+02  -3.351924e+02
   8.122855e+01  -2.864306e+02
   1.966637e+02  -1.400459e+02
   1.486326e+02  -5.616514e+01
   1.303185e+02  -6.940805e+01
   2.748757e+02  -6.227117e+01
   4.309892e+02   7.270774e+01
   3.499140e+02   3.006959e+02
   1.610033e-01   4.678862e+02
  -3.797238e+02   4.373195e+02
  -5.121398e+02   2.042987e+02
  -3.336413e+02  -1.092869e+02
  -3.963763e+01  -2.916620e+02
   1.258138e+02  -2.304913e+02
   4.583094e+01  -2.705626e+01
  -1.281089e+02   7.481739e+01
  -1.742461e+02  -3.386022e+01
  -2.340299e+01  -1.735120e+02
   1.481753e+02  -1.329940e+02
   1.420874e+02   6.518572e+01
  -3.422343e+01   1.641605e+02
  -1.902788e+02   1.216838e+01
  -1.688344e+02  -2.495411e+02
   1.613510e+01  -3.629711e+02
   2.386500e+02  -2.231856e+02
   3.613534e+02   4.909467e+01
   3.008975e+02   2.581371e+02
   8.426151e+01   2.873061e+02
  -1.308371e+02   1.567602e+02
  -1.718661e+02   4.191739e+00
  -4.068892e+01  -3.190157e+01
   7.097504e+01   5.517744e+01
   1.508965e+01   1.321461e+02
  -1.319302e+02   9.004004e+01
  -1.705449e+02  -2.245468e+01
  -4.337601e+01  -6.800976e+01
   9.032170e+01   1.579994e-01
   5.271505e+01   9.196755e+01
  -1.444520e+02   9.822680e+01
  -3.136924e+02  -5.558873e+00
  -2.805249e+02  -1.612335e+02
  -4.789901e+01  -2.749841e+02
   2.074088e+02  -2.624188e+02
   2.883878e+02  -1.157156e+02
   1.555949e+02   5.325308e+01
  -3.417676e+01   9.609909e+01
  -8.324546e+01  -4.526031e+00
   4.615756e+01  -1.005238e+02
   2.013061e+02  -5.059152e+01
   2.126913e+02   1.073538e+02
   6.765516e+01   2.060908e+02
  -9.602723e+01   1.509071e+02
  -1.411710e+02   1.898246e+01
  -5.647873e+01  -4.605701e+01
   4.730426e+01   9.171444e+00
   4.377912e+01   1.078850e+02
  -8.520426e+01   1.306822e+02
  -2.166925e+02   2.819316e+01
  -1.997434e+02  -1.326769e+02
  -2.035981e+01  -2.224861e+02
   1.646870e+02  -1.636255e+02
   1.909460e+02  -8.111175e+00
   6.291874e+01   1.104501e+02
  -6.749771e+01   1.083261e+02
  -8.268033e+01   2.618672e+01
  -1.136017e+01  -3.215885e+01
   3.477961e+01  -1.630879e+01
  -3.379836e+00   2.486478e+01
  -8.369056e+01   8.576670e+00
  -1.108103e+02  -8.580410e+01
  -2.542038e+01  -1.823265e+02
   1.360625e+02  -1.723757e+02
   2.513103e+02  -2.512859e+01
   2.136036e+02   1.609508e+02
   4.635495e+01   2.439573e+02
  -1.068930e+02   1.706427e+02
  -1.376793e+02   2.954782e+01
  -7.221174e+01  -5.029974e+01
  -2.849255e+01  -3.117212e+01
  -5.275172e+01   1.940570e+01
  -8.833008e+01   1.375534e+01
  -5.931933e+01  -5.025712e+01
   3.403292e+01  -1.053854e+02
   1.163297e+02  -7.484168e+01
   1.085197e+02   3.648522e+01
  -7.851078e+00   1.311241e+02
  -1.587518e+02   1.030823e+02
  -2.163578e+02  -5.567563e+01
  -1.021493e+02  -2.180773e+02
   1.192078e+02  -2.384520e+02
   2.796851e+02  -9.405525e+01
   2.608044e+02   9.279847e+01
   1.057769e+02   1.803423e+02
  -4.442498e+01   1.470905e+02
  -9.583294e+01   8.147437e+01
  -7.367924e+01   6.784359e+01
  -5.742382e+01   9.454086e+01
  -8.813349e+01   8.405659e+01
  -1.342509e+02  -1.363430e+01
  -1.282311e+02  -1.552453e+02
  -3.587901e+01  -2.354581e+02
   1.004069e+02  -1.804997e+02
   1.819367e+02  -2.059301e+01
   1.417850e+02   1.289692e+02
   1.851179e+01   1.672051e+02
  -7.480508e+01   9.373216e+01
  -6.729522e+01  -6.690532e+00
  -2.389684e+00  -5.396690e+01
   2.103975e+01  -4.002915e+01
  -3.094225e+01  -1.315922e+01
  -8.623823e+01  -1.482613e+01
  -5.214327e+01  -3.917618e+01
   7.146980e+01  -4.632627e+01
   1.764000e+02  -7.747950e+00
   1.530751e+02   6.006715e+01
   7.743970e+00   1.040455e+02
  -1.346948e+02   8.284492e+01
  -1.528393e+02   1.041553e+01
  -4.959467e+01  -4.993378e+01
   6.075074e+01  -4.454675e+01
   7.979616e+01   1.773914e+01
   1.619996e+01   7.273807e+01
  -5.042456e+01   6.473758e+01
  -6.915846e+01   2.447059e+00
  -5.529451e+01  -5.031272e+01
  -4.786198e+01  -4.372029e+01
  -5.851242e+01  -2.224337e+00
  -6.786731e+01   5.689204e-01
  -4.519816e+01  -7.058448e+01
   2.606532e+01  -1.554409e+02
   1.244740e+02  -1.531968e+02
   1.819299e+02  -3.938583e+01
   1.350424e+02   9.556422e+01
   4.839599e+00   1.378944e+02
  -9.459496e+01   7.171674e+01
  -6.447821e+01  -1.298781e+01
   6.238653e+01  -2.401350e+01
   1.432072e+02   4.255669e+01
   7.675260e+01   1.134251e+02
  -8.798705e+01   1.196586e+02
  -2.011446e+02   5.246390e+01
  -1.688233e+02  -4.009995e+01
  -3.635584e+01  -9.256592e+01
   6.528699e+01  -7.101624e+01
   5.203969e+01  -3.711585e+00
  -3.897712e+01   3.169429e+01
  -9.522140e+01  -1.881494e+01
  -4.177895e+01  -1.201238e+02
   8.239681e+01  -1.633859e+02
   1.661638e+02  -7.416671e+01
   1.350444e+02   9.548949e+01
   1.929483e+01   2.023897e+02
  -8.553663e+01   1.503711e+02
  -1.110895e+02  -7.661633e+00
  -6.208668e+01  -1.242695e+02
   8.677924e+00  -1.103084e+02
   5.141720e+01  -1.910642e+01
   4.841425e+01   3.305461e+01
   1.942527e+01   8.421116e+00
   5.762684e+00  -2.038360e+01
   3.027038e+01   1.714481e+01
   6.169255e+01   9.091230e+01
   3.829582e+01   1.112731e+02
  -5.446798e+01   4.797738e+01
  -1.425355e+02  -3.623514e+01
  -1.321387e+02  -7.106756e+01
  -2.165770e+01  -5.471683e+01
   8.444395e+01  -2.756400e+01
   9.090926e+01  -8.602113e+00
   1.733005e+01   9.586656e+00
  -3.644203e+01   2.239861e+01
  -1.882702e+01   1.513230e+01
   1.728643e+01  -3.632221e+00
  -3.481284e+00  -6.822101e+00
  -7.115638e+01   9.510290e-01
  -9.665926e+01  -2.053594e+01
  -2.027925e+01  -8.257340e+01
   1.121282e+02  -1.233846e+02
   1.920891e+02  -7.132539e+01
   1.548048e+02   5.842958e+01
   3.440588e+01   1.633695e+02
  -7.819924e+01   1.598494e+02
  -1.159472e+02   6.870885e+01
  -8.128100e+01  -1.719896e+01
  -2.663319e+01  -3.566374e+01
  -1.942030e+00  -9.916349e+00
  -1.562185e+01  -5.599527e+00
  -3.591938e+01  -4.841561e+01
  -2.409742e+01  -9.356156e+01
   2.724662e+01  -7.551209e+01
   8.090022e+01   1.363238e+01
   8.279178e+01   1.035003e+02
   1.398348e+01   1.124141e+02
  -7.740173e+01   3.062678e+01
  -1.078396e+02  -6.861777e+01
  -4.051079e+01  -1.055183e+02
   6.481926e+01  -6.489256e+01
   1.051869e+02   6.884436e+00
   4.721504e+01   5.660605e+01
  -3.242915e+01   6.199174e+01
  -3.752591e+01   3.166796e+01
   2.933101e+01  -4.776055e+00
   7.071118e+01  -1.080866e+01
   1.870841e+01   2.640811e+01
  -7.987374e+01   7.058163e+01
  -1.220736e+02   6.219005e+01
  -7.197158e+01  -1.143887e+01
   1.133783e+01  -8.655380e+01
   5.353156e+01  -8.741911e+01
   4.074163e+01  -1.405750e+01
   5.779388e+00   5.334193e+01
  -2.291957e+01   4.783244e+01
  -3.674307e+01  -1.293742e+01
  -2.993302e+01  -5.541983e+01
   1.152970e-02  -3.890543e+01
   3.442878e+01   5.846608e+00
   4.368507e+01   2.428719e+01
   2.155051e+01   3.679536e+00
  -4.662686e+00  -1.839227e+01
  -8.880027e+00  -5.240728e+00
   2.559271e-01   3.283299e+01
  -4.726977e+00   4.944348e+01
  -2.757175e+01   1.699105e+01
  -3.782453e+01  -3.826292e+01
  -8.469673e+00  -6.061911e+01
   4.322832e+01  -2.510756e+01
   6.363089e+01   3.487598e+01
   1.959387e+01   6.336285e+01
  -5.799738e+01   3.916501e+01
  -9.600970e+01  -9.885713e+00
  -5.392850e+01  -4.389012e+01
   2.736855e+01  -4.705808e+01
   6.535004e+01  -2.936772e+01
   2.738258e+01  -8.215528e+00
  -3.201150e+01   6.586169e-01
  -3.516365e+01  -1.061176e+01
   2.703934e+01  -2.971403e+01
   8.555364e+01  -2.344982e+01
