
 $NMID
 id='ANONYMOUS ', fmtdat='(2E16.6)'
 volume=1.0
 tramp=1.0
 $END
   3.310896e+03   1.760400e+02
   2.188155e+03   1.574668e+03
   4.362003e+01   1.943929e+03
  -1.225062e+03   1.247889e+03
  -8.062039e+02   2.204946e+02
   1.748621e+01  -2.545570e+02
   3.599098e+02   2.495177e+01
   1.243952e+02   4.369352e+02
  -5.656604e+02   5.159933e+02
  -6.832645e+02   1.052260e+02
  -4.299483e+02  -5.171297e+02
  -3.842057e+01  -6.565990e+02
   3.457921e+02  -2.351290e+02
   2.376094e+02   4.556107e+02
  -6.108438e+01   5.352652e+02
  -4.460118e+02   1.099761e+02
  -3.308141e+02  -4.893244e+02
   7.399117e+01  -6.432940e+02
   4.890426e+02  -3.217945e+02
   5.124597e+02   1.687514e+02
   2.001728e+02   3.625401e+02
  -9.061931e+01   2.844522e+02
  -6.562118e+01   9.786789e+01
   1.835215e+02   1.452257e+02
   2.303805e+02   3.238568e+02
  -7.746401e+01   3.550743e+02
  -4.826424e+02   1.185322e+02
  -5.534234e+02  -2.216309e+02
  -1.392804e+02  -3.216789e+02
   3.782331e+02  -1.279365e+02
   4.670765e+02   1.580919e+02
   1.534334e+02   3.748662e+02
  -2.682932e+02   3.155052e+02
  -4.640427e+02   1.195244e+02
  -3.009113e+02  -1.558840e+02
  -7.253220e+01  -3.032996e+02
   1.172220e+01  -1.814037e+02
  -9.328005e+01   5.996257e+01
  -2.054661e+02   9.101301e+01
  -1.434933e+02  -1.879790e+02
   6.291340e+01  -4.524989e+02
   2.410857e+02  -3.662398e+02
   2.466030e+02   9.931552e-01
   6.850342e+01   2.450819e+02
  -1.219506e+02   7.049618e+01
  -1.072665e+02  -2.868684e+02
   1.459004e+02  -3.619446e+02
   4.475240e+02  -3.457447e+01
   4.865610e+02   3.744584e+02
   1.771603e+02   4.861113e+02
  -2.783160e+02   2.663862e+02
  -5.032268e+02  -3.970878e+01
  -3.542258e+02  -2.045688e+02
   5.164406e+00  -1.966114e+02
   2.488073e+02  -1.084304e+02
   2.222761e+02  -3.059315e+01
   5.524587e+01  -1.012151e+00
  -1.411261e+01  -1.078218e+01
   8.747924e+01  -1.564755e+01
   1.995789e+02   4.364763e+01
   1.217825e+02   1.671712e+02
  -1.418412e+02   2.474210e+02
  -3.595417e+02   1.582808e+02
  -2.984572e+02  -1.012660e+02
   2.306123e+01  -3.535992e+02
   3.403621e+02  -3.849263e+02
   4.049711e+02  -1.479065e+02
   2.288010e+02   1.764603e+02
   3.412557e+01   3.522902e+02
  -1.855558e+01   3.164877e+02
   7.171713e+00   2.068429e+02
  -3.853167e+01   1.579245e+02
  -1.797030e+02   1.382197e+02
  -2.841037e+02   3.142074e+01
  -2.369586e+02  -1.612137e+02
  -6.283961e+01  -2.763523e+02
   1.170207e+02  -1.755521e+02
   1.865004e+02   8.278623e+01
   1.087806e+02   2.764033e+02
  -8.225436e+01   2.492949e+02
  -2.650763e+02   3.289492e+01
  -3.066696e+02  -1.976978e+02
  -1.617905e+02  -3.025168e+02
   4.939702e+01  -2.656891e+02
   1.595231e+02  -1.777299e+02
   1.537671e+02  -1.136699e+02
   1.739665e+02  -8.225229e+01
   3.167508e+02  -1.758226e+01
   4.443654e+02   1.317117e+02
   3.316546e+02   3.295795e+02
  -4.466669e+01   4.602250e+02
  -4.256425e+02   4.070498e+02
  -5.121697e+02   1.659457e+02
  -2.867484e+02  -1.173642e+02
  -6.072156e+00  -2.522868e+02
   9.109789e+01  -1.908767e+02
  -1.398817e+01  -4.816804e+01
  -1.288337e+02   1.226199e+01
  -1.139108e+02  -5.728337e+01
   9.007603e+00  -1.307867e+02
   1.108114e+02  -8.416916e+01
   9.147776e+01   5.300878e+01
  -3.592692e+01   1.130261e+02
  -1.589267e+02  -1.609681e+01
  -1.518282e+02  -2.436485e+02
   2.194682e+01  -3.547054e+02
   2.622940e+02  -2.214282e+02
   3.907490e+02   6.852562e+01
   2.943427e+02   2.921849e+02
   4.750971e+01   2.985105e+02
  -1.475062e+02   1.398646e+02
  -1.536357e+02  -2.200464e+00
  -3.127310e+01  -6.847011e+00
   4.369323e+01   7.748042e+01
  -1.939995e+01   1.168506e+02
  -1.325356e+02   5.223802e+01
  -1.432987e+02  -4.029741e+01
  -2.356051e+01  -5.266548e+01
   8.539804e+01   2.750363e+01
   3.077628e+01   1.084249e+02
  -1.702917e+02   9.106257e+01
  -3.285942e+02  -3.740661e+01
  -2.686414e+02  -1.980216e+02
  -1.340307e+01  -2.842243e+02
   2.324645e+02  -2.361246e+02
   2.788474e+02  -8.757828e+01
   1.300238e+02   4.689490e+01
  -3.635557e+01   6.642041e+01
  -5.541308e+01  -1.540415e+01
   7.052968e+01  -7.787813e+01
   1.972148e+02  -2.143195e+01
   1.907119e+02   1.144381e+02
   5.369407e+01   1.920899e+02
  -9.116534e+01   1.346516e+02
  -1.227414e+02   1.484788e+01
  -3.779125e+01  -3.180426e+01
   4.874439e+01   3.834994e+01
   1.916198e+01   1.314052e+02
  -1.194042e+02   1.260924e+02
  -2.316202e+02  -4.755346e-01
  -1.867089e+02  -1.551711e+02
  -2.502213e+00  -2.188770e+02
   1.648131e+02  -1.490447e+02
   1.773859e+02  -8.088020e+00
   5.363956e+01   9.331148e+01
  -6.451509e+01   9.124579e+01
  -7.008516e+01   2.143258e+01
   5.033701e+00  -2.493428e+01
   4.577862e+01  -3.252755e+00
  -9.981304e+00   3.532579e+01
  -1.044013e+02   2.357289e+00
  -1.199119e+02  -1.097685e+02
  -5.359115e+00  -2.009858e+02
   1.674197e+02  -1.624845e+02
   2.618692e+02   4.303951e+00
   1.989591e+02   1.798624e+02
   3.256809e+01   2.387713e+02
  -1.056000e+02   1.599740e+02
  -1.324733e+02   3.180104e+01
  -7.577016e+01  -4.030735e+01
  -3.709176e+01  -2.647210e+01
  -6.127012e+01   1.745113e+01
  -9.793636e+01   7.988520e+00
  -6.666533e+01  -6.376505e+01
   4.248552e+01  -1.210263e+02
   1.404081e+02  -7.691255e+01
   1.219140e+02   5.422290e+01
  -2.507763e+01   1.492170e+02
  -1.891658e+02   9.599721e+01
  -2.252156e+02  -8.278501e+01
  -8.160331e+01  -2.376685e+02
   1.460284e+02  -2.328069e+02
   2.888720e+02  -7.634440e+01
   2.542556e+02   1.009647e+02
   9.797127e+01   1.764518e+02
  -4.570407e+01   1.415052e+02
  -9.243751e+01   8.327688e+01
  -7.034077e+01   7.427474e+01
  -5.860920e+01   1.011435e+02
  -9.588897e+01   8.531020e+01
  -1.413878e+02  -1.850851e+01
  -1.255223e+02  -1.636630e+02
  -2.364442e+01  -2.396392e+02
   1.097347e+02  -1.738683e+02
   1.779724e+02  -5.620556e+00
   1.271828e+02   1.406525e+02
   2.656650e+00   1.662856e+02
  -8.535346e+01   8.055284e+01
  -6.821206e+01  -2.255836e+01
   7.330558e+00  -6.223634e+01
   3.391471e+01  -3.896538e+01
  -2.726171e+01  -1.137948e+01
  -9.322469e+01  -2.011413e+01
  -5.498011e+01  -4.677650e+01
   8.393268e+01  -4.438332e+01
   1.933820e+02   6.335428e+00
   1.547706e+02   7.448547e+01
  -7.315496e+00   1.069367e+02
  -1.481860e+02   7.533596e+01
  -1.534041e+02   1.485840e+00
  -4.424602e+01  -5.553108e+01
   6.354546e+01  -4.665939e+01
   8.307106e+01   2.078541e+01
   2.373897e+01   8.218499e+01
  -4.672188e+01   7.456453e+01
  -7.693728e+01   4.055465e+00
  -6.859127e+01  -5.659447e+01
  -5.368891e+01  -4.954470e+01
  -5.738581e+01  -2.979873e+00
  -6.961101e+01  -1.685696e+00
  -5.079615e+01  -8.019990e+01
   2.870578e+01  -1.671084e+02
   1.402168e+02  -1.571150e+02
   1.992799e+02  -3.441877e+01
   1.401594e+02   1.025551e+02
  -9.294552e-01   1.416697e+02
  -9.974795e+01   7.372970e+01
  -6.402221e+01  -9.144033e+00
   6.328685e+01  -1.777782e+01
   1.398674e+02   4.764722e+01
   7.038737e+01   1.131612e+02
  -9.161019e+01   1.115885e+02
  -1.994930e+02   4.055642e+01
  -1.629760e+02  -4.639360e+01
  -3.003649e+01  -8.730252e+01
   6.806166e+01  -5.933091e+01
   4.967126e+01   4.472060e+00
  -4.365606e+01   3.290452e+01
  -9.871155e+01  -2.099563e+01
  -4.407900e+01  -1.221172e+02
   7.973012e+01  -1.660264e+02
   1.631332e+02  -7.783178e+01
   1.329427e+02   9.354366e+01
   1.805711e+01   2.015430e+02
  -8.661143e+01   1.464947e+02
  -1.090107e+02  -1.528998e+01
  -5.397317e+01  -1.288062e+02
   1.933024e+01  -1.073311e+02
   5.590867e+01  -1.399795e+01
   4.431095e+01   3.314636e+01
   1.497025e+01   6.801358e+00
   8.429182e+00  -1.576913e+01
   3.585950e+01   2.727656e+01
   6.006789e+01   9.645425e+01
   2.847015e+01   1.073311e+02
  -6.226918e+01   4.092225e+01
  -1.412692e+02  -3.966478e+01
  -1.263574e+02  -7.241959e+01
  -1.982210e+01  -5.708148e+01
   8.240011e+01  -2.839575e+01
   9.106693e+01  -4.664422e+00
   2.096630e+01   1.432149e+01
  -3.504988e+01   2.201992e+01
  -2.271570e+01   1.095246e+01
   1.320905e+01  -5.034715e+00
  -2.718394e+00  -3.932821e+00
  -6.922652e+01   3.034170e+00
  -1.004023e+02  -2.324576e+01
  -2.795588e+01  -8.779722e+01
   1.107798e+02  -1.279011e+02
   2.020591e+02  -7.444412e+01
   1.674717e+02   5.757567e+01
   3.785603e+01   1.672433e+02
  -8.502792e+01   1.676461e+02
  -1.243800e+02   7.501168e+01
  -8.585322e+01  -1.697033e+01
  -2.993471e+01  -4.083800e+01
  -6.040368e+00  -1.679039e+01
  -1.682411e+01  -1.215049e+01
  -3.075533e+01  -5.414662e+01
  -1.651055e+01  -9.724594e+01
   3.118717e+01  -7.653783e+01
   8.206102e+01   1.376166e+01
   8.680972e+01   1.047646e+02
   2.055925e+01   1.170433e+02
  -7.536420e+01   3.853624e+01
  -1.132792e+02  -6.394508e+01
  -4.667140e+01  -1.092313e+02
   6.601820e+01  -7.183724e+01
   1.122119e+02   7.052319e+00
   5.096793e+01   6.551862e+01
  -3.676108e+01   6.958526e+01
  -4.542297e+01   3.124197e+01
   2.453626e+01  -8.329701e+00
   7.069262e+01  -1.013817e+01
   1.937333e+01   2.929815e+01
  -8.318123e+01   6.833872e+01
  -1.296321e+02   5.373793e+01
  -7.836101e+01  -1.925225e+01
   1.241204e+01  -9.057076e+01
   6.283107e+01  -9.129381e+01
   5.204823e+01  -1.926430e+01
   1.220956e+01   5.277187e+01
  -2.286016e+01   5.501350e+01
  -3.953813e+01  -4.767024e+00
  -3.226640e+01  -5.549628e+01
  -7.840723e-01  -4.563535e+01
   3.529264e+01   2.621853e+00
   4.532244e+01   2.812774e+01
   2.249301e+01   6.382567e+00
  -4.717760e+00  -2.371826e+01
  -6.522829e+00  -1.368861e+01
   8.393149e+00   3.214195e+01
   5.094741e+00   5.927729e+01
  -2.532390e+01   2.901084e+01
  -4.607749e+01  -3.254925e+01
  -1.872299e+01  -6.135952e+01
   4.038324e+01  -2.771059e+01
   6.741567e+01   3.334063e+01
   2.143983e+01   6.251948e+01
  -6.183751e+01   3.861851e+01
  -1.008829e+02  -1.019101e+01
  -5.477519e+01  -4.499186e+01
   2.975918e+01  -5.048759e+01
   6.860922e+01  -3.391729e+01
   3.199368e+01  -9.955702e+00
  -2.622966e+01   4.267945e+00
  -3.284666e+01  -3.958362e+00
   2.305520e+01  -2.490089e+01
   7.945713e+01  -2.283637e+01
