
 $NMID
 id='ANONYMOUS ', fmtdat='(2E16.6)'
 volume=1.0
 tramp=1.0
 $END
  -3.036778e+03  -6.634875e+01
  -2.103629e+03  -1.625052e+03
   1.556421e+02  -2.112179e+03
   1.148804e+03  -1.253744e+03
   8.741064e+02  -2.777580e+02
  -6.465348e+01   7.940161e+01
  -2.931702e+02  -1.028120e+02
  -2.272531e+01  -5.671218e+02
   4.192797e+02  -5.357130e+02
   6.046911e+02  -4.217017e+01
   3.906591e+02   5.565965e+02
  -7.064639e+01   6.489882e+02
  -4.035933e+02   1.321219e+02
  -2.747009e+02  -4.316474e+02
   1.759898e+02  -5.183347e+02
   4.179410e+02  -7.685885e+00
   2.941203e+02   5.053503e+02
  -1.116365e+02   5.962843e+02
  -4.592916e+02   2.552547e+02
  -4.078477e+02  -1.860087e+02
  -1.721313e+02  -3.237709e+02
   9.708459e+01  -2.318402e+02
   7.258383e+01  -7.614838e+01
  -2.011084e+02  -7.956020e+01
  -2.993831e+02  -2.430145e+02
   1.694150e+01  -3.859237e+02
   4.747221e+02  -1.874802e+02
   6.247129e+02   1.702600e+02
   2.050367e+02   3.795298e+02
  -3.686427e+02   2.317122e+02
  -5.611709e+02  -1.298263e+02
  -2.043524e+02  -3.958166e+02
   2.796408e+02  -3.935399e+02
   4.845063e+02  -1.465419e+02
   3.480356e+02   1.739154e+02
   8.628568e+01   3.401303e+02
  -3.828195e+01   1.873519e+02
   1.346459e+01  -1.243074e+02
   1.780903e+02  -1.852994e+02
   2.256184e+02   1.385829e+02
   4.181337e+01   5.394348e+02
  -2.387379e+02   4.968927e+02
  -3.474783e+02   3.362829e+01
  -1.645022e+02  -3.322237e+02
   1.471421e+02  -1.709811e+02
   1.943273e+02   2.504576e+02
  -8.881078e+01   3.986036e+02
  -4.527377e+02   8.044042e+01
  -5.294870e+02  -3.637144e+02
  -1.849721e+02  -5.103040e+02
   3.099657e+02  -2.973316e+02
   5.581178e+02   4.080241e+01
   3.664175e+02   2.524107e+02
  -5.625992e+01   2.458817e+02
  -3.128975e+02   9.874999e+01
  -2.282870e+02  -2.932064e+01
  -1.161320e+00  -3.235459e+01
   5.602671e+01   4.379171e+01
  -1.021337e+02   5.916991e+01
  -2.321683e+02  -4.762145e+01
  -1.225496e+02  -1.945178e+02
   1.523161e+02  -2.521435e+02
   3.366983e+02  -1.509725e+02
   2.668283e+02   8.213739e+01
  -2.995065e+00   3.236632e+02
  -2.762417e+02   3.908562e+02
  -3.721847e+02   1.865721e+02
  -2.558169e+02  -1.613870e+02
  -6.255198e+01  -3.806637e+02
   3.653170e+01  -3.349252e+02
   2.075632e+01  -1.703260e+02
   2.140601e+01  -1.024363e+02
   1.284655e+02  -1.318634e+02
   2.614760e+02  -8.226722e+01
   2.690260e+02   1.081900e+02
   1.148182e+02   2.671633e+02
  -9.003646e+01   2.082558e+02
  -1.996868e+02  -3.180467e+01
  -1.427245e+02  -2.409003e+02
   4.608498e+01  -2.471321e+02
   2.467978e+02  -6.208508e+01
   3.060235e+02   1.682367e+02
   1.677647e+02   2.934166e+02
  -4.475618e+01   2.619933e+02
  -1.581429e+02   1.588064e+02
  -1.410604e+02   8.606823e+01
  -1.477218e+02   7.546811e+01
  -2.820178e+02   4.991126e+01
  -4.165754e+02  -7.966618e+01
  -3.347946e+02  -2.916052e+02
   5.304298e+00  -4.452579e+02
   3.690005e+02  -4.186551e+02
   4.849214e+02  -1.923962e+02
   3.060703e+02   9.838376e+01
   3.219918e+01   2.643801e+02
  -9.510255e+01   2.086327e+02
  -1.831523e+01   3.768014e+01
   1.180660e+02  -4.541199e+01
   1.361975e+02   3.765508e+01
   8.819176e+00   1.509768e+02
  -1.261848e+02   1.134470e+02
  -1.216484e+02  -5.038464e+01
   2.328617e+01  -1.375948e+02
   1.629085e+02  -9.496051e+00
   1.586713e+02   2.282920e+02
  -1.067667e+01   3.419901e+02
  -2.350527e+02   2.161608e+02
  -3.617721e+02  -4.977774e+01
  -2.923200e+02  -2.600297e+02
  -7.291606e+01  -2.815955e+02
   1.288976e+02  -1.487896e+02
   1.593289e+02  -6.779901e+00
   3.938699e+01   2.037820e+01
  -5.727495e+01  -5.769008e+01
  -6.894036e+00  -1.183951e+02
   1.197568e+02  -7.628542e+01
   1.509316e+02   1.986970e+01
   3.696437e+01   5.586260e+01
  -8.212838e+01  -7.180926e+00
  -4.439828e+01  -9.182350e+01
   1.443872e+02  -9.695473e+01
   3.059816e+02   7.041189e+00
   2.699048e+02   1.619767e+02
   4.080746e+01   2.682207e+02
  -2.030368e+02   2.478816e+02
  -2.729536e+02   1.068954e+02
  -1.445641e+02  -4.548817e+01
   2.809956e+01  -8.384277e+01
   6.865080e+01   8.973301e-01
  -4.770672e+01   8.256410e+01
  -1.839606e+02   3.997351e+01
  -1.928830e+02  -9.791603e+01
  -6.211381e+01  -1.874530e+02
   8.728651e+01  -1.400745e+02
   1.294692e+02  -1.871565e+01
   4.997031e+01   4.228366e+01
  -4.665551e+01  -1.209582e+01
  -3.871473e+01  -1.075481e+02
   8.696227e+01  -1.254192e+02
   2.084044e+02  -2.242371e+01
   1.859013e+02   1.289317e+02
   1.571527e+01   2.074354e+02
  -1.531996e+02   1.510432e+02
  -1.750471e+02   1.188055e+01
  -5.773407e+01  -9.499719e+01
   6.119481e+01  -9.778000e+01
   7.367146e+01  -2.733367e+01
   5.637742e+00   2.660973e+01
  -3.873365e+01   1.475514e+01
   1.415604e+00  -2.355206e+01
   8.368081e+01  -9.018862e+00
   1.103083e+02   8.148243e+01
   2.342903e+01   1.737705e+02
  -1.344196e+02   1.618254e+02
  -2.396997e+02   2.228341e+01
  -1.995093e+02  -1.523657e+02
  -4.406279e+01  -2.289653e+02
   9.804965e+01  -1.625115e+02
   1.281806e+02  -3.152639e+01
   7.325080e+01   4.592361e+01
   3.115829e+01   3.047088e+01
   5.104784e+01  -1.734319e+01
   8.554455e+01  -1.462234e+01
   6.060096e+01   5.168610e+01
  -3.174342e+01   1.083207e+02
  -1.193276e+02   7.813168e+01
  -1.122108e+02  -3.563382e+01
   6.818132e+00  -1.304376e+02
   1.580817e+02  -9.853979e+01
   2.088390e+02   5.733341e+01
   9.258629e+01   2.111931e+02
  -1.206053e+02   2.262690e+02
  -2.685452e+02   8.506107e+01
  -2.483370e+02  -9.008004e+01
  -1.011192e+02  -1.717831e+02
   4.112453e+01  -1.399526e+02
   9.118667e+01  -7.866290e+01
   7.037655e+01  -6.764532e+01
   5.549668e+01  -9.402568e+01
   8.610045e+01  -8.239364e+01
   1.307801e+02   1.425916e+01
   1.238319e+02   1.516305e+02
   3.367866e+01   2.268383e+02
  -9.643545e+01   1.714286e+02
  -1.729602e+02   1.756152e+01
  -1.342037e+02  -1.238569e+02
  -1.619539e+01  -1.585283e+02
   7.397797e+01  -8.671277e+01
   6.600016e+01   1.021398e+01
  -6.493234e-01   5.468561e+01
  -2.694753e+01   3.886184e+01
   2.543842e+01   1.121907e+01
   8.464913e+01   1.344314e+01
   5.309872e+01   3.837642e+01
  -7.078795e+01   4.449170e+01
  -1.754434e+02   4.644561e+00
  -1.497437e+02  -6.181228e+01
  -4.347983e+00  -1.025595e+02
   1.337780e+02  -7.973533e+01
   1.491938e+02  -8.384266e+00
   4.936256e+01   5.146904e+01
  -5.744135e+01   4.725693e+01
  -8.008125e+01  -1.512554e+01
  -2.376548e+01  -7.282403e+01
   4.300875e+01  -6.733593e+01
   7.014064e+01  -4.953850e+00
   6.207209e+01   4.931732e+01
   5.038130e+01   4.434068e+01
   5.380426e+01   3.295580e+00
   6.216931e+01   7.324402e-01
   4.479089e+01   7.094538e+01
  -2.316524e+01   1.535148e+02
  -1.221493e+02   1.506452e+02
  -1.819013e+02   3.946995e+01
  -1.368118e+02  -9.272844e+01
  -8.374298e+00  -1.368910e+02
   9.065001e+01  -7.544015e+01
   6.463598e+01   7.663322e+00
  -5.517474e+01   2.183698e+01
  -1.333788e+02  -3.902535e+01
  -7.200188e+01  -1.066456e+02
   8.306826e+01  -1.124992e+02
   1.909612e+02  -4.759098e+01
   1.597580e+02   4.043562e+01
   3.297581e+01   8.827709e+01
  -6.416226e+01   6.530690e+01
  -5.085471e+01   2.962792e-01
   3.730189e+01  -3.392654e+01
   9.272375e+01   1.471593e+01
   4.506398e+01   1.135963e+02
  -7.142453e+01   1.595739e+02
  -1.539527e+02   7.817366e+01
  -1.311343e+02  -8.485564e+01
  -2.536855e+01  -1.909193e+02
   7.641233e+01  -1.439426e+02
   1.049968e+02   7.207521e+00
   5.886389e+01   1.187055e+02
  -1.137557e+01   1.041261e+02
  -5.253648e+01   1.630294e+01
  -4.619078e+01  -3.242167e+01
  -1.601761e+01  -8.554734e+00
  -4.743028e+00   1.780305e+01
  -3.126273e+01  -1.872117e+01
  -6.087847e+01  -8.716197e+01
  -3.556844e+01  -1.047982e+02
   5.420008e+01  -4.583842e+01
   1.365479e+02   3.194933e+01
   1.257032e+02   6.578775e+01
   2.165280e+01   5.353454e+01
  -7.873918e+01   2.918384e+01
  -8.694140e+01   8.814548e+00
  -1.893008e+01  -1.105140e+01
   3.362863e+01  -2.285555e+01
   1.977469e+01  -1.334356e+01
  -1.477568e+01   5.644818e+00
   1.104544e+00   6.891580e+00
   6.361325e+01  -4.147890e+00
   9.246175e+01   1.470579e+01
   2.634572e+01   7.600436e+01
  -9.936851e+01   1.206642e+02
  -1.828161e+02   7.571445e+01
  -1.548895e+02  -4.971721e+01
  -4.032468e+01  -1.568745e+02
   7.269534e+01  -1.594857e+02
   1.140327e+02  -7.217687e+01
   8.235631e+01   1.426731e+01
   2.911667e+01   3.574229e+01
   4.089993e+00   1.202395e+01
   1.571070e+01   7.655221e+00
   3.413535e+01   4.803657e+01
   2.317263e+01   9.058380e+01
  -2.469123e+01   7.356403e+01
  -7.703729e+01  -9.810922e+00
  -8.269483e+01  -9.512230e+01
  -1.913621e+01  -1.070369e+02
   7.120656e+01  -3.435344e+01
   1.059585e+02   6.022206e+01
   4.348683e+01   1.015551e+02
  -6.131123e+01   6.778686e+01
  -1.050038e+02  -3.221605e+00
  -4.982621e+01  -5.738404e+01
   3.082603e+01  -6.516164e+01
   3.980104e+01  -3.251629e+01
  -2.453670e+01   6.094267e+00
  -6.761780e+01   1.147206e+01
  -1.981966e+01  -2.670604e+01
   7.635879e+01  -6.887093e+01
   1.207517e+02  -5.853941e+01
   7.381802e+01   1.350792e+01
  -9.094986e+00   8.547644e+01
  -5.419746e+01   8.608445e+01
  -4.360448e+01   1.584019e+01
  -8.666269e+00  -5.094989e+01
   2.174837e+01  -4.834259e+01
   3.733387e+01   9.667531e+00
   3.125856e+01   5.382198e+01
   1.363086e+00   4.093530e+01
  -3.440486e+01  -3.034846e+00
  -4.474264e+01  -2.376654e+01
  -2.194521e+01  -4.302955e+00
   5.395878e+00   1.953478e+01
   7.751129e+00   9.020026e+00
  -6.196958e+00  -3.031202e+01
  -3.311937e+00  -5.216681e+01
   2.459586e+01  -2.440976e+01
   4.311248e+01   3.056796e+01
   1.722982e+01   5.773517e+01
  -3.812542e+01   2.872653e+01
  -6.457803e+01  -2.795271e+01
  -2.350844e+01  -5.863706e+01
   5.439646e+01  -3.983079e+01
   9.388370e+01   5.724344e+00
   5.400481e+01   4.087705e+01
  -2.527378e+01   4.790254e+01
  -6.395424e+01   3.196452e+01
  -3.009150e+01   8.274707e+00
   2.666331e+01  -5.234759e+00
   3.394855e+01   4.095743e+00
  -2.010057e+01   2.612862e+01
  -7.520708e+01   2.537578e+01
