
 $NMID
 id='ANONYMOUS ', fmtdat='(2E16.6)'
 volume=1.0
 tramp=1.0
 $END
  -3.909977e+03   2.237896e+02
  -2.295093e+03  -2.042626e+03
   7.622927e+01  -2.338668e+03
   1.741610e+03  -1.201150e+03
   1.057148e+03   1.558275e+02
  -1.739431e+02   2.528511e+02
  -6.782164e+02  -7.425028e+01
  -4.407067e+01  -7.150839e+02
   5.820094e+02  -7.498552e+02
   7.510116e+02  -6.926008e+01
   5.342549e+02   6.045239e+02
  -7.717824e+01   8.341855e+02
  -4.191683e+02   1.827029e+02
  -3.296349e+02  -5.422428e+02
   1.513657e+02  -6.857622e+02
   5.344872e+02  -4.952059e+01
   2.604657e+02   6.000795e+02
  -2.338590e+02   6.458584e+02
  -5.102807e+02   1.793656e+02
  -4.231181e+02  -2.754430e+02
  -7.732742e+01  -4.396029e+02
   1.724966e+02  -2.465106e+02
   1.439640e+02  -4.165653e+01
  -1.516070e+02  -2.449203e+01
  -3.340160e+02  -2.077977e+02
  -6.631804e+01  -3.955743e+02
   4.683379e+02  -2.583866e+02
   7.015258e+02   1.119114e+02
   3.296391e+02   4.268258e+02
  -3.007092e+02   3.429475e+02
  -5.850033e+02  -6.224071e+01
  -2.455195e+02  -3.802703e+02
   2.670280e+02  -4.260953e+02
   4.781205e+02  -1.519330e+02
   3.595209e+02   1.764549e+02
   8.615587e+01   3.782043e+02
  -1.014224e+02   2.414512e+02
  -5.221210e+01  -1.476942e+02
   1.692338e+02  -2.760629e+02
   3.092362e+02   8.039794e+01
   1.239273e+02   5.688968e+02
  -2.728512e+02   5.638159e+02
  -4.491005e+02   1.976895e+01
  -1.992430e+02  -3.940549e+02
   1.954973e+02  -2.185421e+02
   2.697622e+02   2.692438e+02
  -7.510272e+01   4.490140e+02
  -4.710412e+02   1.092476e+02
  -5.142325e+02  -3.570499e+02
  -1.609881e+02  -5.099706e+02
   3.239913e+02  -2.898742e+02
   5.508363e+02   7.344485e+01
   3.398385e+02   3.084762e+02
  -9.883496e+01   2.796471e+02
  -3.564613e+02   6.707025e+01
  -2.290379e+02  -9.687275e+01
   4.115425e+01  -5.407288e+01
   8.748425e+01   9.078797e+01
  -1.217348e+02   1.071270e+02
  -2.732699e+02  -5.885363e+01
  -1.325205e+02  -2.340577e+02
   1.697338e+02  -2.525932e+02
   3.338667e+02  -1.138166e+02
   2.325750e+02   9.638537e+01
  -2.514910e+01   2.898458e+02
  -2.587455e+02   3.506193e+02
  -3.432972e+02   1.774874e+02
  -2.514813e+02  -1.523612e+02
  -6.960845e+01  -3.774795e+02
   5.395023e+01  -3.312666e+02
   5.594205e+01  -1.439976e+02
   3.250935e+01  -5.607866e+01
   9.903111e+01  -9.477876e+01
   2.173707e+02  -7.562053e+01
   2.421836e+02   9.050095e+01
   1.080545e+02   2.516075e+02
  -8.778972e+01   2.118133e+02
  -2.047424e+02  -1.603213e+01
  -1.616780e+02  -2.359533e+02
   2.921769e+01  -2.663962e+02
   2.458957e+02  -9.012367e+01
   3.228174e+02   1.599195e+02
   1.783920e+02   3.113963e+02
  -6.287365e+01   2.815080e+02
  -1.855361e+02   1.424122e+02
  -1.504588e+02   5.229840e+01
  -1.348206e+02   5.326422e+01
  -2.635359e+02   4.491486e+01
  -3.998931e+02  -8.221517e+01
  -3.132744e+02  -2.930451e+02
   2.206743e+01  -4.338992e+02
   3.639392e+02  -3.943499e+02
   4.690820e+02  -1.813639e+02
   3.021298e+02   8.930004e+01
   4.057559e+01   2.581566e+02
  -9.509930e+01   2.170046e+02
  -3.690667e+01   4.242088e+01
   1.073100e+02  -5.704567e+01
   1.460240e+02   2.150108e+01
   2.463497e+01   1.514036e+02
  -1.251417e+02   1.284592e+02
  -1.310407e+02  -4.434817e+01
   2.148943e+01  -1.430572e+02
   1.642925e+02  -1.478783e+01
   1.477542e+02   2.250168e+02
  -2.417337e+01   3.323002e+02
  -2.281311e+02   2.002978e+02
  -3.314446e+02  -5.611052e+01
  -2.690551e+02  -2.463400e+02
  -7.391625e+01  -2.641771e+02
   1.159437e+02  -1.428713e+02
   1.540330e+02  -1.060927e+01
   4.233442e+01   1.683415e+01
  -5.527670e+01  -5.736975e+01
  -6.323769e+00  -1.189691e+02
   1.238462e+02  -7.747798e+01
   1.583973e+02   2.216107e+01
   4.461226e+01   6.092127e+01
  -7.652676e+01  -1.040312e+00
  -4.316735e+01  -8.251108e+01
   1.348349e+02  -8.498331e+01
   2.871097e+02   1.305105e+01
   2.573535e+02   1.563394e+02
   4.536040e+01   2.579940e+02
  -1.907332e+02   2.431310e+02
  -2.697788e+02   1.080325e+02
  -1.512276e+02  -4.503143e+01
   2.415240e+01  -8.400889e+01
   7.137379e+01   5.482254e+00
  -4.687642e+01   8.994821e+01
  -1.892115e+02   4.162610e+01
  -1.981325e+02  -1.042069e+02
  -6.396905e+01  -1.945201e+02
   8.638681e+01  -1.443261e+02
   1.300225e+02  -2.453095e+01
   5.756106e+01   3.546449e+01
  -3.267998e+01  -1.110070e+01
  -2.941259e+01  -9.513921e+01
   8.428006e+01  -1.114322e+02
   1.999478e+02  -1.718026e+01
   1.814088e+02   1.276204e+02
   1.456511e+01   2.067005e+02
  -1.569636e+02   1.506673e+02
  -1.802333e+02   8.770650e+00
  -5.969063e+01  -9.835846e+01
   6.245380e+01  -9.744686e+01
   7.532471e+01  -2.718139e+01
   8.916153e+00   2.175185e+01
  -3.016714e+01   9.408194e+00
   9.693285e+00  -1.841815e+01
   8.143155e+01   4.600210e+00
   9.740951e+01   8.928352e+01
   1.171864e+01   1.674213e+02
  -1.345310e+02   1.502291e+02
  -2.312884e+02   1.646357e+01
  -1.906716e+02  -1.511010e+02
  -3.717594e+01  -2.262319e+02
   1.011957e+02  -1.600520e+02
   1.259231e+02  -2.821617e+01
   6.922334e+01   4.928120e+01
   3.005440e+01   3.225273e+01
   5.292745e+01  -1.293026e+01
   8.160817e+01  -9.601007e+00
   5.016308e+01   5.022499e+01
  -3.723301e+01   9.653086e+01
  -1.105423e+02   6.262982e+01
  -9.628468e+01  -3.831794e+01
   1.447924e+01  -1.176451e+02
   1.515539e+02  -8.349105e+01
   1.985478e+02   6.310505e+01
   8.782186e+01   2.076097e+02
  -1.180925e+02   2.209419e+02
  -2.665964e+02   8.394784e+01
  -2.495207e+02  -8.986636e+01
  -1.037364e+02  -1.719655e+02
   3.902859e+01  -1.412091e+02
   9.176342e+01  -8.201012e+01
   7.493492e+01  -6.956966e+01
   6.178821e+01  -9.337295e+01
   9.046035e+01  -7.837121e+01
   1.307813e+02   1.886030e+01
   1.201451e+02   1.535618e+02
   2.917636e+01   2.263737e+02
  -9.913746e+01   1.705556e+02
  -1.720217e+02   1.814471e+01
  -1.309236e+02  -1.214163e+02
  -1.563239e+01  -1.555688e+02
   6.863822e+01  -8.620597e+01
   5.927384e+01   5.554281e+00
  -1.165492e-01   4.720177e+01
  -1.849268e+01   3.552656e+01
   3.138709e+01   1.586328e+01
   8.061426e+01   2.062832e+01
   4.562123e+01   3.894148e+01
  -6.965219e+01   3.778181e+01
  -1.651338e+02  -5.187951e-01
  -1.421726e+02  -5.834346e+01
  -7.635724e+00  -9.363393e+01
   1.246946e+02  -7.430766e+01
   1.431952e+02  -1.103441e+01
   4.845616e+01   4.398199e+01
  -5.573392e+01   4.063980e+01
  -7.542328e+01  -1.699388e+01
  -1.587373e+01  -7.019548e+01
   4.818411e+01  -6.323018e+01
   6.685480e+01  -2.732365e+00
   5.424717e+01   4.884751e+01
   4.738826e+01   4.280528e+01
   5.795089e+01   3.801743e+00
   6.474607e+01   2.983941e+00
   3.992650e+01   7.060327e+01
  -2.895683e+01   1.472629e+02
  -1.194113e+02   1.411379e+02
  -1.698713e+02   3.393472e+01
  -1.254244e+02  -8.812154e+01
  -6.444480e+00  -1.241239e+02
   8.401299e+01  -6.438859e+01
   5.695389e+01   9.005960e+00
  -5.771572e+01   1.594941e+01
  -1.312191e+02  -4.323974e+01
  -7.056471e+01  -1.044872e+02
   8.031749e+01  -1.086531e+02
   1.862137e+02  -4.800936e+01
   1.574285e+02   3.574866e+01
   3.524835e+01   8.456595e+01
  -5.953971e+01   6.533607e+01
  -4.707544e+01   4.039650e+00
   3.834759e+01  -2.792811e+01
   8.909821e+01   2.056428e+01
   3.590782e+01   1.151920e+02
  -8.235849e+01   1.529134e+02
  -1.580417e+02   6.685097e+01
  -1.243942e+02  -9.174988e+01
  -1.496298e+01  -1.889825e+02
   8.004230e+01  -1.389197e+02
   1.009204e+02   7.575760e+00
   5.613921e+01   1.148314e+02
  -7.770357e+00   1.024284e+02
  -4.842208e+01   1.904432e+01
  -4.862757e+01  -2.963593e+01
  -2.185082e+01  -9.401047e+00
  -5.067133e+00   1.506414e+01
  -2.447592e+01  -1.980299e+01
  -5.480259e+01  -8.610560e+01
  -3.602347e+01  -1.025022e+02
   4.978617e+01  -4.238021e+01
   1.333765e+02   3.582253e+01
   1.233814e+02   6.703282e+01
   1.827577e+01   5.025296e+01
  -8.124724e+01   2.420506e+01
  -8.459961e+01   6.644284e+00
  -1.363133e+01  -9.476071e+00
   3.528961e+01  -2.117926e+01
   1.625084e+01  -1.448348e+01
  -1.696398e+01   3.241858e+00
   5.523770e+00   7.700388e+00
   6.974007e+01   2.225011e+00
   8.997653e+01   2.346816e+01
   1.360844e+01   8.013265e+01
  -1.116560e+02   1.146500e+02
  -1.839057e+02   6.225416e+01
  -1.456489e+02  -6.063679e+01
  -3.068781e+01  -1.573254e+02
   7.605320e+01  -1.512307e+02
   1.128348e+02  -6.401667e+01
   8.083195e+01   1.709481e+01
   2.764272e+01   3.497002e+01
   1.229920e+00   1.165756e+01
   1.227626e+01   7.855576e+00
   3.161364e+01   4.766133e+01
   2.115420e+01   8.894536e+01
  -2.749823e+01   7.049926e+01
  -7.806466e+01  -1.486935e+01
  -7.769182e+01  -1.003144e+02
  -1.005200e+01  -1.072447e+02
   7.588360e+01  -2.738647e+01
   1.008607e+02   6.764572e+01
   3.433881e+01   1.006557e+02
  -6.382490e+01   5.926404e+01
  -9.811049e+01  -9.323855e+00
  -4.118101e+01  -5.382871e+01
   3.261501e+01  -5.660236e+01
   3.538788e+01  -2.844533e+01
  -2.791737e+01   3.807934e+00
  -6.599405e+01   8.993710e+00
  -1.660894e+01  -2.389478e+01
   7.560344e+01  -6.260849e+01
   1.150309e+02  -5.406884e+01
   6.693363e+01   1.345785e+01
  -1.334722e+01   8.193725e+01
  -5.547309e+01   8.087380e+01
  -4.286729e+01   1.101170e+01
  -6.526403e+00  -5.276183e+01
   2.378443e+01  -4.687843e+01
   3.713389e+01   1.150397e+01
   2.880281e+01   5.223765e+01
  -3.010101e-01   3.680087e+01
  -3.178120e+01  -5.317889e+00
  -4.008309e+01  -2.180978e+01
  -2.104817e+01  -1.568408e+00
   1.129401e+00   1.840197e+01
   5.048962e+00   3.727312e+00
  -3.716301e-01  -3.371555e+01
   7.058820e+00  -4.874482e+01
   2.797960e+01  -1.621932e+01
   3.508199e+01   3.688430e+01
   6.400796e+00   5.684154e+01
  -4.048976e+01   2.209263e+01
  -5.790835e+01  -3.390047e+01
  -1.672142e+01  -5.866537e+01
   5.480489e+01  -3.447226e+01
   8.977325e+01   1.122205e+01
   5.011722e+01   4.139666e+01
  -2.705805e+01   4.326680e+01
  -6.386112e+01   2.677708e+01
  -2.750835e+01   7.472014e+00
   3.018261e+01  -9.992883e-01
   3.394494e+01   8.943572e+00
  -2.557182e+01   2.597708e+01
  -8.131811e+01   1.905062e+01
