
 $NMID
 id='ANONYMOUS ', fmtdat='(2E16.6)'
 volume=1.0
 tramp=1.0
 $END
  -2.390509e+03  -2.782821e+02
  -1.933143e+03  -1.163696e+03
  -6.259608e+01  -1.607564e+03
   8.915949e+02  -1.128199e+03
   7.508080e+02  -3.132320e+02
   2.236050e+02   8.055901e+01
  -1.713862e+02   8.128830e+01
  -3.268100e+01  -3.289656e+02
   2.576893e+02  -3.761145e+02
   5.278478e+02  -3.248002e+01
   3.943810e+02   4.521857e+02
   3.495722e+00   5.498891e+02
  -2.243293e+02   1.649622e+02
  -2.473511e+02  -3.044753e+02
   8.938903e+01  -4.371682e+02
   3.042825e+02  -4.362722e+01
   2.608153e+02   4.216657e+02
  -1.127032e+02   5.397651e+02
  -4.389330e+02   2.266315e+02
  -4.047535e+02  -1.008238e+02
  -1.486725e+02  -3.019064e+02
   6.764391e+01  -1.968216e+02
   1.615760e+01  -1.007654e+02
  -1.797230e+02  -1.599156e+02
  -1.948225e+02  -3.073570e+02
   8.117487e+01  -2.928470e+02
   4.328537e+02  -5.014061e+01
   4.883834e+02   2.000623e+02
   1.325333e+02   2.992449e+02
  -2.904643e+02   1.208410e+02
  -4.129138e+02  -1.647619e+02
  -1.398797e+02  -3.055372e+02
   2.187593e+02  -2.959356e+02
   3.577392e+02  -9.739014e+01
   2.820403e+02   1.272947e+02
   1.106631e+02   2.366709e+02
   5.021793e+01   1.582087e+02
   8.971182e+01  -2.396858e+01
   1.291148e+02  -3.411764e+01
   8.925965e+01   1.843172e+02
  -5.173687e+01   3.861848e+02
  -1.971458e+02   3.037638e+02
  -2.086131e+02  -8.453990e+00
  -7.458393e+01  -1.944065e+02
   7.953956e+01  -6.508591e+01
   8.138788e+01   2.413213e+02
  -1.181083e+02   2.992403e+02
  -3.627858e+02   1.385796e+01
  -4.085593e+02  -3.353372e+02
  -1.456783e+02  -4.260728e+02
   2.307724e+02  -2.203425e+02
   4.347376e+02   5.178525e+01
   3.122260e+02   1.884513e+02
   3.185499e+00   1.665647e+02
  -2.204212e+02   8.461160e+01
  -2.094303e+02   2.203666e+01
  -5.597684e+01  -2.922528e+00
   2.107287e+01   5.352872e+00
  -6.810901e+01   1.208140e+01
  -1.828528e+02  -3.720797e+01
  -1.166693e+02  -1.476858e+02
   1.343756e+02  -2.280708e+02
   3.366158e+02  -1.480688e+02
   2.646756e+02   9.781668e+01
  -3.851823e+01   3.335801e+02
  -3.093545e+02   3.525463e+02
  -3.458586e+02   1.274877e+02
  -1.920301e+02  -1.607794e+02
  -4.175743e+01  -3.107983e+02
  -1.811907e+00  -2.831734e+02
  -4.160882e+00  -1.871333e+02
   5.435177e+01  -1.276569e+02
   1.674470e+02  -9.307427e+01
   2.335196e+02  -6.641767e+00
   1.834231e+02   1.350090e+02
   4.510808e+01   2.230848e+02
  -9.808235e+01   1.494433e+02
  -1.677689e+02  -5.881509e+01
  -1.105311e+02  -2.378498e+02
   5.614275e+01  -2.345875e+02
   2.340840e+02  -5.181452e+01
   2.805267e+02   1.660062e+02
   1.527930e+02   2.701095e+02
  -3.348065e+01   2.396454e+02
  -1.372106e+02   1.514614e+02
  -1.342472e+02   9.614958e+01
  -1.551520e+02   7.285935e+01
  -2.751157e+02   1.964874e+01
  -3.798916e+02  -1.105166e+02
  -2.777869e+02  -2.815938e+02
   4.621790e+01  -3.921176e+02
   3.630899e+02  -3.468707e+02
   4.342911e+02  -1.417024e+02
   2.424205e+02   9.765752e+01
   2.553939e+00   2.193789e+02
  -7.477716e+01   1.682513e+02
   4.824885e+00   4.055299e+01
   1.014307e+02  -1.512930e+01
   9.373597e+01   3.985144e+01
  -2.445688e+00   1.112150e+02
  -8.575276e+01   7.751191e+01
  -7.809875e+01  -4.111628e+01
   2.187763e+01  -9.912497e+01
   1.281906e+02   8.894281e+00
   1.284644e+02   2.105138e+02
  -2.019821e+01   3.106102e+02
  -2.320459e+02   1.899695e+02
  -3.402588e+02  -6.899291e+01
  -2.512844e+02  -2.628508e+02
  -3.451357e+01  -2.629218e+02
   1.293914e+02  -1.212920e+02
   1.313431e+02   2.956244e+00
   2.790218e+01   9.340802e+00
  -3.385265e+01  -6.162746e+01
   1.775176e+01  -9.697913e+01
   1.092972e+02  -4.837580e+01
   1.185208e+02   2.665149e+01
   2.084531e+01   4.011528e+01
  -6.982841e+01  -2.277218e+01
  -2.401768e+01  -8.983541e+01
   1.482912e+02  -7.711974e+01
   2.867889e+02   3.183010e+01
   2.363193e+02   1.729893e+02
   1.188881e+01   2.507185e+02
  -2.063140e+02   2.093598e+02
  -2.492207e+02   7.867980e+01
  -1.198024e+02  -4.161864e+01
   2.703646e+01  -6.297687e+01
   4.804990e+01   5.295378e+00
  -5.628306e+01   6.103654e+01
  -1.634346e+02   1.799877e+01
  -1.602128e+02  -9.512703e+01
  -4.640932e+01  -1.630049e+02
   7.574118e+01  -1.168384e+02
   1.045361e+02  -1.456350e+01
   3.467773e+01   2.795438e+01
  -3.888168e+01  -2.943207e+01
  -1.584644e+01  -1.105582e+02
   1.013474e+02  -1.100866e+02
   1.981302e+02  -4.548283e+00
   1.631395e+02   1.292892e+02
   7.629223e+00   1.895097e+02
  -1.370086e+02   1.360611e+02
  -1.529224e+02   1.691771e+01
  -5.168959e+01  -7.511520e+01
   4.878343e+01  -8.148732e+01
   5.719411e+01  -2.582405e+01
  -3.069867e+00   1.767535e+01
  -3.699050e+01   4.738394e+00
   9.437993e+00  -2.448915e+01
   8.765408e+01   4.687777e-01
   1.001869e+02   9.082951e+01
   3.207404e+00   1.668715e+02
  -1.432853e+02   1.376524e+02
  -2.229802e+02  -5.716939e-01
  -1.710582e+02  -1.523313e+02
  -2.939020e+01  -2.078918e+02
   9.133463e+01  -1.439993e+02
   1.164569e+02  -3.129414e+01
   7.170770e+01   3.661743e+01
   3.533042e+01   2.669166e+01
   5.234175e+01  -9.944347e+00
   8.210498e+01  -5.002630e+00
   5.498371e+01   5.617411e+01
  -3.802200e+01   1.044579e+02
  -1.236685e+02   6.592042e+01
  -1.073008e+02  -4.691740e+01
   2.109634e+01  -1.302719e+02
   1.638152e+02  -8.561472e+01
   1.940224e+02   6.909471e+01
   6.972586e+01   2.041311e+02
  -1.237545e+02   2.022580e+02
  -2.472054e+02   6.761700e+01
  -2.194146e+02  -8.712523e+01
  -8.832324e+01  -1.540756e+02
   3.587408e+01  -1.245883e+02
   8.090067e+01  -7.327581e+01
   6.450203e+01  -6.649654e+01
   5.390569e+01  -8.924719e+01
   8.420528e+01  -7.376304e+01
   1.235774e+02   1.990392e+01
   1.097148e+02   1.467838e+02
   1.944208e+01   2.098454e+02
  -9.827431e+01   1.488622e+02
  -1.571776e+02   2.139840e+00
  -1.105418e+02  -1.230865e+02
  -4.755836e-01  -1.429759e+02
   7.553030e+01  -6.730199e+01
   5.948980e+01   2.201307e+01
  -7.617593e+00   5.551301e+01
  -3.248272e+01   3.445196e+01
   1.926655e+01   9.419160e+00
   7.688132e+01   1.531744e+01
   4.587487e+01   3.677707e+01
  -7.194967e+01   3.420943e+01
  -1.654263e+02  -8.606035e+00
  -1.315002e+02  -6.601063e+01
   9.480877e+00  -9.345600e+01
   1.326957e+02  -6.608101e+01
   1.370180e+02  -9.427675e-01
   4.019075e+01   5.117778e+01
  -5.625732e+01   4.555319e+01
  -7.473142e+01  -1.418734e+01
  -2.267096e+01  -7.097076e+01
   3.996747e+01  -6.671781e+01
   6.737721e+01  -4.789270e+00
   6.006469e+01   4.947299e+01
   4.651546e+01   4.375262e+01
   4.864618e+01   3.595609e+00
   5.880851e+01   3.242920e+00
   4.257369e+01   7.195219e+01
  -2.684074e+01   1.458899e+02
  -1.247206e+02   1.358198e+02
  -1.769672e+02   2.768032e+01
  -1.255223e+02  -9.255899e+01
  -7.084361e-01  -1.288091e+02
   8.894552e+01  -7.050163e+01
   6.107348e+01   4.756973e+00
  -4.936142e+01   1.775908e+01
  -1.186892e+02  -3.602924e+01
  -6.207687e+01  -9.527198e+01
   7.707121e+01  -9.796508e+01
   1.724075e+02  -3.730116e+01
   1.417371e+02   4.024463e+01
   2.625946e+01   7.767238e+01
  -5.958497e+01   5.191657e+01
  -4.351796e+01  -5.124231e+00
   3.917532e+01  -2.983816e+01
   8.776180e+01   1.879915e+01
   3.950771e+01   1.087956e+02
  -6.981551e+01   1.475962e+02
  -1.438812e+02   7.015917e+01
  -1.191046e+02  -8.041476e+01
  -1.992561e+01  -1.760206e+02
   7.187237e+01  -1.294054e+02
   9.356033e+01   1.053830e+01
   4.797863e+01   1.091311e+02
  -1.534294e+01   9.104020e+01
  -4.813335e+01   1.101306e+01
  -3.853336e+01  -2.926713e+01
  -1.234919e+01  -6.372615e+00
  -6.259499e+00   1.324721e+01
  -3.061496e+01  -2.402787e+01
  -5.245056e+01  -8.384353e+01
  -2.444672e+01  -9.343864e+01
   5.550820e+01  -3.619858e+01
   1.241971e+02   3.416718e+01
   1.106217e+02   6.372153e+01
   1.749807e+01   5.108614e+01
  -7.154611e+01   2.575871e+01
  -7.989966e+01   4.552765e+00
  -1.993259e+01  -1.184462e+01
   2.924618e+01  -1.821956e+01
   1.991547e+01  -9.011615e+00
  -1.102501e+01   3.664604e+00
   1.358464e+00   2.362442e+00
   5.783771e+01  -3.094864e+00
   8.589999e+01   2.026453e+01
   2.490785e+01   7.613525e+01
  -9.530681e+01   1.106354e+02
  -1.760919e+02   6.393388e+01
  -1.470662e+02  -5.123434e+01
  -3.315364e+01  -1.470639e+02
   7.542684e+01  -1.474959e+02
   1.105196e+02  -6.572908e+01
   7.662682e+01   1.600840e+01
   2.715800e+01   3.749548e+01
   5.397202e+00   1.637218e+01
   1.365314e+01   1.187736e+01
   2.515908e+01   4.802287e+01
   1.321778e+01   8.477457e+01
  -2.731565e+01   6.596817e+01
  -7.143917e+01  -1.284111e+01
  -7.573966e+01  -9.135906e+01
  -1.781814e+01  -1.014106e+02
   6.654371e+01  -3.298679e+01
   9.967419e+01   5.651550e+01
   4.062763e+01   9.656680e+01
  -5.930677e+01   6.424497e+01
  -1.004220e+02  -5.549373e+00
  -4.630752e+01  -5.789166e+01
   3.191852e+01  -6.198551e+01
   4.112850e+01  -2.747253e+01
  -2.029655e+01   7.792917e+00
  -6.230831e+01   8.929955e+00
  -1.866593e+01  -2.647718e+01
   7.161474e+01  -6.014881e+01
   1.142901e+02  -4.599812e+01
   6.972603e+01   1.893187e+01
  -1.152266e+01   8.070157e+01
  -5.770127e+01   7.898376e+01
  -4.795330e+01   1.435522e+01
  -1.063328e+01  -4.871770e+01
   2.193321e+01  -4.910330e+01
   3.671962e+01   5.361951e+00
   2.911947e+01   5.081650e+01
   3.468477e-01   4.184736e+01
  -3.210957e+01  -1.612031e+00
  -4.147599e+01  -2.483392e+01
  -2.114084e+01  -6.094216e+00
   2.835326e+00   2.082788e+01
   4.291453e+00   1.169178e+01
  -9.307650e+00  -2.975196e+01
  -5.619166e+00  -5.503416e+01
   2.384022e+01  -2.858151e+01
   4.464478e+01   2.700378e+01
   2.058183e+01   5.494884e+01
  -3.417811e+01   2.687579e+01
  -6.081793e+01  -2.704912e+01
  -2.122268e+01  -5.406214e+01
   5.333368e+01  -3.409725e+01
   8.922915e+01   8.936614e+00
   4.924599e+01   4.030400e+01
  -2.604447e+01   4.541700e+01
  -6.207592e+01   3.019249e+01
  -3.095511e+01   7.683387e+00
   2.128846e+01  -6.603424e+00
   2.974470e+01   3.976019e-01
  -1.665332e+01   2.083372e+01
  -6.586768e+01   2.173039e+01
