
 $NMID
 id='ANONYMOUS ', fmtdat='(2E16.6)'
 volume=1.0
 tramp=1.0
 $END
  -2.660703e+03   1.133568e+02
  -2.267055e+03  -1.547145e+03
  -3.357225e+00  -2.131802e+03
   1.150314e+03  -1.022835e+03
   7.484057e+02  -2.601087e+02
   8.625407e+01   2.197216e+02
  -3.160186e+02  -2.627678e+01
  -1.640928e+02  -4.323003e+02
   3.741868e+02  -4.692838e+02
   5.320940e+02  -1.358612e+02
   4.271845e+02   3.936268e+02
   1.072525e+02   5.827191e+02
  -2.269570e+02   2.247764e+02
  -2.115783e+02  -3.655816e+02
   1.225211e+02  -4.627154e+02
   3.124811e+02  -1.143818e+02
   2.729392e+02   3.986763e+02
  -9.256820e+01   5.517588e+02
  -4.453230e+02   3.047084e+02
  -4.511600e+02  -1.254171e+02
  -1.494389e+02  -3.436250e+02
   7.545893e+01  -2.342236e+02
   4.507683e+01  -9.464669e+01
  -1.506414e+02  -9.652334e+01
  -2.359398e+02  -2.758550e+02
   5.999657e+01  -3.273338e+02
   4.599710e+02  -1.236675e+02
   5.195793e+02   1.567249e+02
   1.842694e+02   2.941294e+02
  -2.790059e+02   1.364946e+02
  -4.157352e+02  -1.319679e+02
  -1.439034e+02  -3.297901e+02
   2.321156e+02  -2.854901e+02
   3.990954e+02  -1.020813e+02
   2.826322e+02   1.380577e+02
   9.213775e+01   2.553101e+02
  -2.204930e-01   1.546813e+02
   9.247478e+01  -5.810722e+01
   1.772357e+02  -7.602209e+01
   1.239507e+02   1.779647e+02
  -5.362332e+01   4.155381e+02
  -2.440479e+02   3.277355e+02
  -2.453668e+02  -2.702713e+01
  -5.445923e+01  -2.376207e+02
   1.199579e+02  -8.419906e+01
   1.088495e+02   2.370420e+02
  -1.209942e+02   3.170284e+02
  -3.870210e+02   3.444661e+01
  -4.248155e+02  -3.182873e+02
  -1.414316e+02  -4.204447e+02
   2.511223e+02  -2.237852e+02
   4.438225e+02   4.076265e+01
   3.065531e+02   1.796626e+02
  -9.034529e+00   1.677767e+02
  -2.182276e+02   8.812522e+01
  -1.890520e+02   2.557558e+01
  -4.281783e+01   1.392869e+01
   9.657536e+00   2.891118e+01
  -8.686716e+01   2.029313e+01
  -1.840661e+02  -5.038847e+01
  -1.081428e+02  -1.650019e+02
   1.298945e+02  -2.308774e+02
   3.234878e+02  -1.469348e+02
   2.729051e+02   8.865305e+01
  -5.327539e+00   3.230341e+02
  -2.858121e+02   3.583227e+02
  -3.540262e+02   1.444028e+02
  -2.108887e+02  -1.506529e+02
  -4.013964e+01  -3.080877e+02
   1.247238e+01  -2.741171e+02
  -1.258214e+01  -1.788848e+02
   1.879051e+01  -1.404266e+02
   1.435321e+02  -1.259154e+02
   2.515394e+02  -3.237807e+01
   2.253717e+02   1.373523e+02
   7.006910e+01   2.423205e+02
  -1.044361e+02   1.597483e+02
  -1.814082e+02  -6.281033e+01
  -1.111968e+02  -2.379928e+02
   6.388592e+01  -2.231625e+02
   2.367449e+02  -3.696054e+01
   2.742210e+02   1.707533e+02
   1.456308e+02   2.681180e+02
  -3.854657e+01   2.343802e+02
  -1.347453e+02   1.517300e+02
  -1.340734e+02   1.050423e+02
  -1.606570e+02   8.720732e+01
  -2.848834e+02   3.424339e+01
  -3.977831e+02  -1.046191e+02
  -2.979992e+02  -2.960459e+02
   3.271098e+01  -4.215413e+02
   3.645947e+02  -3.723979e+02
   4.492876e+02  -1.556106e+02
   2.574369e+02   9.914394e+01
   1.126418e+01   2.246772e+02
  -7.539436e+01   1.691855e+02
   1.444432e+01   4.019065e+01
   1.146561e+02  -1.267048e+01
   9.852080e+01   4.970222e+01
  -1.242199e+01   1.168396e+02
  -9.796649e+01   7.687270e+01
  -7.603661e+01  -4.736122e+01
   3.639869e+01  -1.005664e+02
   1.397029e+02   1.488989e+01
   1.303250e+02   2.171410e+02
  -1.999493e+01   3.184503e+02
  -2.292387e+02   2.017651e+02
  -3.445590e+02  -5.404528e+01
  -2.674313e+02  -2.518546e+02
  -5.256411e+01  -2.632006e+02
   1.241398e+02  -1.293662e+02
   1.349252e+02  -3.917904e+00
   2.703736e+01   5.085182e+00
  -4.156031e+01  -6.745791e+01
   1.507511e+01  -1.035491e+02
   1.171213e+02  -4.846388e+01
   1.269332e+02   3.390757e+01
   2.037083e+01   4.693158e+01
  -7.639257e+01  -2.331662e+01
  -2.839892e+01  -9.584039e+01
   1.482973e+02  -8.224873e+01
   2.873971e+02   2.967124e+01
   2.363369e+02   1.716283e+02
   1.473968e+01   2.498121e+02
  -1.998136e+02   2.102618e+02
  -2.426089e+02   8.096768e+01
  -1.157090e+02  -3.964465e+01
   2.863827e+01  -6.090739e+01
   4.734806e+01   9.225517e+00
  -5.958372e+01   6.603961e+01
  -1.675585e+02   2.084624e+01
  -1.618441e+02  -9.483147e+01
  -4.519302e+01  -1.625456e+02
   7.684862e+01  -1.142623e+02
   1.027345e+02  -1.222683e+01
   2.979273e+01   2.662390e+01
  -4.412754e+01  -3.505378e+01
  -1.797663e+01  -1.164617e+02
   1.043856e+02  -1.121051e+02
   2.053290e+02  -1.618807e+00
   1.677526e+02   1.339548e+02
   5.213437e+00   1.916166e+02
  -1.434625e+02   1.335053e+02
  -1.552684e+02   1.155459e+01
  -4.692307e+01  -7.883385e+01
   5.473646e+01  -8.073958e+01
   5.757000e+01  -2.137727e+01
  -7.851914e+00   2.003103e+01
  -4.041138e+01   1.902084e+00
   1.155453e+01  -3.166046e+01
   9.520682e+01  -5.292039e+00
   1.096581e+02   9.179890e+01
   8.123821e+00   1.745955e+02
  -1.448845e+02   1.462959e+02
  -2.293760e+02   2.881070e+00
  -1.760884e+02  -1.538515e+02
  -2.866795e+01  -2.110004e+02
   9.421233e+01  -1.447906e+02
   1.173810e+02  -3.060876e+01
   6.861472e+01   3.519749e+01
   3.500324e+01   2.453961e+01
   5.520206e+01  -1.239926e+01
   8.634886e+01  -4.260944e+00
   5.778783e+01   5.812675e+01
  -3.814259e+01   1.082147e+02
  -1.249358e+02   6.854152e+01
  -1.104269e+02  -4.643621e+01
   1.736890e+01  -1.319241e+02
   1.626707e+02  -8.963018e+01
   1.974441e+02   6.611519e+01
   7.448936e+01   2.036856e+02
  -1.217283e+02   2.037373e+02
  -2.475012e+02   7.137323e+01
  -2.203654e+02  -8.236471e+01
  -8.741926e+01  -1.505598e+02
   3.561495e+01  -1.234975e+02
   7.754850e+01  -7.464517e+01
   6.026260e+01  -6.806024e+01
   5.240281e+01  -9.067413e+01
   8.485476e+01  -7.573847e+01
   1.241542e+02   1.622251e+01
   1.111807e+02   1.434130e+02
   2.330483e+01   2.099312e+02
  -9.360264e+01   1.526022e+02
  -1.553091e+02   5.839049e+00
  -1.130209e+02  -1.219924e+02
  -4.651063e+00  -1.443831e+02
   7.331075e+01  -6.944174e+01
   5.966619e+01   2.023248e+01
  -6.649800e+00   5.395987e+01
  -3.080807e+01   3.297101e+01
   2.291344e+01   8.797140e+00
   8.183374e+01   1.645515e+01
   4.872238e+01   3.981125e+01
  -7.399047e+01   3.820227e+01
  -1.706138e+02  -5.363520e+00
  -1.355651e+02  -6.463747e+01
   8.298066e+00  -9.386978e+01
   1.317544e+02  -6.709429e+01
   1.347646e+02  -2.505321e+00
   3.805456e+01   4.868129e+01
  -5.607509e+01   4.234624e+01
  -7.318415e+01  -1.635829e+01
  -2.225762e+01  -7.109035e+01
   3.869002e+01  -6.559832e+01
   6.647552e+01  -4.661973e+00
   6.081674e+01   4.765963e+01
   4.797371e+01   4.065665e+01
   5.007588e+01   9.431569e-03
   6.101903e+01   9.848430e-01
   4.618000e+01   7.228721e+01
  -2.320651e+01   1.493634e+02
  -1.235035e+02   1.396292e+02
  -1.777213e+02   2.929951e+01
  -1.258176e+02  -9.260140e+01
   3.461666e-01  -1.275305e+02
   8.935253e+01  -6.678188e+01
   5.749553e+01   7.932158e+00
  -5.612742e+01   1.694999e+01
  -1.242349e+02  -4.086575e+01
  -6.288904e+01  -9.998268e+01
   8.091025e+01  -1.002546e+02
   1.770391e+02  -3.797728e+01
   1.444986e+02   3.957779e+01
   2.621639e+01   7.705913e+01
  -6.089593e+01   5.304169e+01
  -4.439630e+01  -3.607628e+00
   3.904119e+01  -2.995338e+01
   8.874068e+01   1.685584e+01
   4.103080e+01   1.072504e+02
  -6.846775e+01   1.478239e+02
  -1.430216e+02   7.076921e+01
  -1.182140e+02  -8.104551e+01
  -1.837065e+01  -1.772116e+02
   7.361006e+01  -1.284842e+02
   9.431284e+01   1.428383e+01
   4.723632e+01   1.131434e+02
  -1.680135e+01   9.231177e+01
  -4.905112e+01   9.390934e+00
  -3.892799e+01  -3.063923e+01
  -1.306612e+01  -5.242074e+00
  -7.944390e+00   1.515826e+01
  -3.273860e+01  -2.394494e+01
  -5.398238e+01  -8.592666e+01
  -2.510205e+01  -9.567635e+01
   5.593934e+01  -3.724690e+01
   1.255270e+02   3.355722e+01
   1.119846e+02   6.258950e+01
   1.780715e+01   4.989868e+01
  -7.205713e+01   2.571854e+01
  -7.985951e+01   5.013480e+00
  -1.828201e+01  -1.215951e+01
   3.131358e+01  -1.907159e+01
   2.077848e+01  -8.693003e+00
  -1.134522e+01   5.425678e+00
   1.326951e+00   3.407683e+00
   5.914692e+01  -3.980547e+00
   8.756714e+01   1.918174e+01
   2.550234e+01   7.733101e+01
  -9.596717e+01   1.141629e+02
  -1.771231e+02   6.714392e+01
  -1.478225e+02  -5.004236e+01
  -3.409066e+01  -1.474273e+02
   7.380642e+01  -1.480731e+02
   1.080830e+02  -6.637744e+01
   7.431939e+01   1.486516e+01
   2.598310e+01   3.588784e+01
   5.991969e+00   1.446640e+01
   1.554052e+01   1.006621e+01
   2.715780e+01   4.709145e+01
   1.455237e+01   8.536832e+01
  -2.687600e+01   6.738428e+01
  -7.173159e+01  -1.239376e+01
  -7.669757e+01  -9.257943e+01
  -1.840418e+01  -1.029135e+02
   6.732616e+01  -3.324173e+01
   1.021560e+02   5.731861e+01
   4.274632e+01   9.754066e+01
  -5.882369e+01   6.492813e+01
  -1.012436e+02  -4.823233e+00
  -4.688592e+01  -5.698746e+01
   3.178997e+01  -6.167882e+01
   3.994911e+01  -2.779605e+01
  -2.281605e+01   7.905078e+00
  -6.429729e+01   9.179880e+00
  -1.821907e+01  -2.742980e+01
   7.378375e+01  -6.309042e+01
   1.155250e+02  -4.999572e+01
   7.012931e+01   1.619977e+01
  -1.003497e+01   8.049205e+01
  -5.400000e+01   8.129488e+01
  -4.432148e+01   1.759849e+01
  -1.016965e+01  -4.574543e+01
   1.935630e+01  -4.802500e+01
   3.390261e+01   4.135959e+00
   2.862717e+01   4.850783e+01
   1.839885e+00   4.002528e+01
  -3.018363e+01  -1.852520e+00
  -3.996218e+01  -2.400461e+01
  -2.007943e+01  -5.142055e+00
   4.057671e+00   2.157512e+01
   5.631717e+00   1.251029e+01
  -7.713897e+00  -2.849711e+01
  -4.439015e+00  -5.308026e+01
   2.326316e+01  -2.602577e+01
   4.163883e+01   2.936338e+01
   1.659663e+01   5.558271e+01
  -3.684155e+01   2.531793e+01
  -6.105288e+01  -2.961297e+01
  -1.947513e+01  -5.610434e+01
   5.514485e+01  -3.501629e+01
   8.986178e+01   8.270211e+00
   4.899152e+01   3.906025e+01
  -2.594016e+01   4.410649e+01
  -6.025037e+01   3.004184e+01
  -2.760788e+01   9.034694e+00
   2.426095e+01  -4.072784e+00
   3.033992e+01   3.000246e+00
  -1.874763e+01   2.246929e+01
  -6.890672e+01   2.191292e+01
