
 $NMID
 id='ANONYMOUS ', fmtdat='(2E16.6)'
 volume=1.0
 tramp=1.0
 $END
   2.691818e+03   6.888066e+01
   1.888488e+03   1.319179e+03
  -1.304651e+02   1.759920e+03
  -9.192291e+02   1.200100e+03
  -9.208630e+02   4.466048e+02
  -2.973541e+02  -2.199662e+01
   6.700297e+01   9.641699e+01
   1.217607e+02   3.542721e+02
  -3.044337e+02   3.635365e+02
  -4.562162e+02   1.602742e+02
  -3.486381e+02  -3.783842e+02
   3.621291e+01  -4.667501e+02
   1.528739e+02  -1.449533e+02
   1.428770e+02   3.636269e+02
  -8.102293e+01   4.009888e+02
  -3.568390e+02   6.359203e+01
  -2.770142e+02  -3.962915e+02
   2.964027e+01  -5.823870e+02
   3.635071e+02  -3.195226e+02
   3.771957e+02   4.145685e+01
   1.859339e+02   2.364590e+02
  -3.460574e+01   1.845564e+02
   4.560834e+01   1.041463e+02
   2.200570e+02   1.880845e+02
   2.156064e+02   3.481361e+02
  -1.068996e+02   3.102310e+02
  -4.801569e+02   5.360879e+01
  -4.932660e+02  -2.172795e+02
  -1.316030e+02  -2.587225e+02
   2.961754e+02  -9.538888e+01
   4.107600e+02   1.475491e+02
   1.082818e+02   2.910691e+02
  -2.580479e+02   2.723678e+02
  -3.850470e+02   1.277266e+02
  -2.842990e+02  -8.766912e+01
  -1.139024e+02  -2.380035e+02
  -6.048132e+01  -1.608010e+02
  -1.216531e+02   4.353383e+00
  -1.517104e+02   3.182342e+01
  -7.519877e+01  -1.910705e+02
   7.401307e+01  -3.985471e+02
   2.091860e+02  -3.244412e+02
   2.006586e+02  -4.289830e+00
   7.583147e+01   2.033164e+02
  -7.173188e+01   5.781996e+01
  -7.292820e+01  -2.397061e+02
   1.301358e+02  -2.899646e+02
   3.837915e+02  -3.073678e+00
   4.155833e+02   3.492821e+02
   1.468331e+02   4.296252e+02
  -2.459169e+02   2.146448e+02
  -4.421843e+02  -5.030452e+01
  -3.128424e+02  -1.800984e+02
  -1.132946e+01  -1.584049e+02
   2.033520e+02  -9.516323e+01
   2.047927e+02  -4.691071e+01
   7.766518e+01  -1.854691e+01
   5.973782e+00   1.216731e+00
   6.826754e+01   1.593350e+01
   1.542895e+02   5.556050e+01
   9.204086e+01   1.407518e+02
  -1.387557e+02   2.093664e+02
  -3.411172e+02   1.405793e+02
  -2.880979e+02  -9.726287e+01
   1.763827e+01  -3.462072e+02
   3.215758e+02  -3.820772e+02
   3.812719e+02  -1.506205e+02
   2.129337e+02   1.608593e+02
   3.407906e+01   3.212298e+02
  -6.993417e+00   2.858413e+02
   2.286987e+01   1.925478e+02
  -2.353206e+01   1.570676e+02
  -1.661489e+02   1.380388e+02
  -2.744620e+02   3.310172e+01
  -2.299541e+02  -1.492618e+02
  -5.671668e+01  -2.555380e+02
   1.130172e+02  -1.629011e+02
   1.713109e+02   7.517033e+01
   9.104207e+01   2.543990e+02
  -7.948953e+01   2.275130e+02
  -2.335163e+02   2.507709e+01
  -2.682712e+02  -1.883400e+02
  -1.483509e+02  -2.769309e+02
   2.883083e+01  -2.380518e+02
   1.355906e+02  -1.581245e+02
   1.429799e+02  -1.072593e+02
   1.707368e+02  -8.513968e+01
   2.949523e+02  -2.540106e+01
   4.083443e+02   1.164780e+02
   3.048300e+02   3.055869e+02
  -4.171813e+01   4.285357e+02
  -3.915846e+02   3.727804e+02
  -4.688349e+02   1.489142e+02
  -2.555727e+02  -1.050905e+02
   6.721763e+00  -2.231638e+02
   8.154707e+01  -1.616339e+02
  -2.453119e+01  -3.960510e+01
  -1.261806e+02   1.185955e+00
  -9.609058e+01  -5.658942e+01
   2.319229e+01  -1.101641e+02
   1.059169e+02  -6.020120e+01
   7.250589e+01   5.696195e+01
  -4.592083e+01   9.784750e+01
  -1.505975e+02  -2.415059e+01
  -1.365511e+02  -2.287108e+02
   2.459243e+01  -3.271530e+02
   2.452147e+02  -2.012676e+02
   3.601148e+02   6.716183e+01
   2.665524e+02   2.718097e+02
   3.742714e+01   2.730475e+02
  -1.373509e+02   1.226331e+02
  -1.371364e+02  -8.121487e+00
  -2.274626e+01  -8.191382e+00
   4.266003e+01   7.149576e+01
  -1.857590e+01   1.055850e+02
  -1.205503e+02   4.391581e+01
  -1.261907e+02  -3.893140e+01
  -1.370215e+01  -4.392200e+01
   8.428090e+01   3.512487e+01
   2.729229e+01   1.075970e+02
  -1.655354e+02   8.311954e+01
  -3.116852e+02  -4.409936e+01
  -2.469141e+02  -1.933608e+02
  -5.984315e-01  -2.640231e+02
   2.265097e+02  -2.091774e+02
   2.606029e+02  -7.097560e+01
   1.164658e+02   4.629418e+01
  -3.516923e+01   5.931496e+01
  -4.855781e+01  -1.334396e+01
   6.657143e+01  -6.445247e+01
   1.770304e+02  -1.003595e+01
   1.663207e+02   1.114941e+02
   4.004033e+01   1.768647e+02
  -9.045400e+01   1.182438e+02
  -1.163711e+02   4.332700e+00
  -3.487571e+01  -3.725160e+01
   4.727698e+01   3.223650e+01
   1.987844e+01   1.224166e+02
  -1.109841e+02   1.156479e+02
  -2.152247e+02  -5.386250e+00
  -1.708054e+02  -1.478785e+02
   3.333181e+00  -2.013184e+02
   1.572711e+02  -1.337806e+02
   1.641935e+02  -6.491809e+00
   4.649253e+01   8.326984e+01
  -6.188001e+01   8.156451e+01
  -6.287970e+01   1.946558e+01
   1.042882e+01  -2.273032e+01
   4.927235e+01  -1.988703e+00
  -4.795206e+00   3.610472e+01
  -9.552926e+01   9.259871e+00
  -1.136641e+02  -9.369222e+01
  -8.907816e+00  -1.808684e+02
   1.503840e+02  -1.484347e+02
   2.368603e+02   5.150832e+00
   1.791710e+02   1.677691e+02
   2.557838e+01   2.221149e+02
  -1.032733e+02   1.466123e+02
  -1.269063e+02   2.528254e+01
  -7.454906e+01  -4.211519e+01
  -3.459164e+01  -2.769718e+01
  -5.363200e+01   1.286490e+01
  -8.896815e+01   5.457024e+00
  -6.229380e+01  -6.213219e+01
   4.111691e+01  -1.152920e+02
   1.360186e+02  -7.269149e+01
   1.194872e+02   5.125392e+01
  -2.225422e+01   1.402509e+02
  -1.784548e+02   8.851902e+01
  -2.084572e+02  -8.145365e+01
  -6.741780e+01  -2.230458e+02
   1.460132e+02  -2.130203e+02
   2.729241e+02  -6.082756e+01
   2.329647e+02   1.046472e+02
   8.415832e+01   1.694469e+02
  -4.903200e+01   1.303506e+02
  -9.013540e+01   7.279139e+01
  -6.680679e+01   6.503529e+01
  -5.431968e+01   9.155469e+01
  -8.718955e+01   7.788007e+01
  -1.292083e+02  -1.869650e+01
  -1.139721e+02  -1.524715e+02
  -2.020716e+01  -2.205498e+02
   1.015592e+02  -1.577553e+02
   1.629959e+02  -2.297240e+00
   1.152931e+02   1.306010e+02
  -2.615729e-01   1.512239e+02
  -8.176068e+01   6.974801e+01
  -6.396217e+01  -2.608694e+01
   1.126694e+01  -6.114595e+01
   4.056327e+01  -3.645168e+01
  -1.782032e+01  -7.540260e+00
  -8.559097e+01  -1.410137e+01
  -5.375036e+01  -4.002578e+01
   7.783512e+01  -3.934983e+01
   1.824775e+02   8.395148e+00
   1.438814e+02   7.394660e+01
  -1.211049e+01   1.041109e+02
  -1.442652e+02   7.052690e+01
  -1.450467e+02  -2.896765e+00
  -4.016880e+01  -5.670198e+01
   6.024372e+01  -4.568863e+01
   7.793426e+01   1.953768e+01
   2.345329e+01   7.669869e+01
  -4.208116e+01   6.921598e+01
  -7.267198e+01   4.363646e+00
  -6.619702e+01  -5.106983e+01
  -5.034011e+01  -4.603682e+01
  -5.114524e+01  -5.938994e+00
  -6.337187e+01  -5.960304e+00
  -4.855829e+01  -7.704003e+01
   2.644350e+01  -1.552912e+02
   1.353371e+02  -1.455761e+02
   1.935999e+02  -3.100419e+01
   1.351069e+02   9.902229e+01
  -2.684532e+00   1.385385e+02
  -9.806388e+01   7.387701e+01
  -6.357361e+01  -8.782308e+00
   5.753476e+01  -2.028533e+01
   1.294181e+02   4.337981e+01
   6.415208e+01   1.083063e+02
  -8.689585e+01   1.054697e+02
  -1.870530e+02   3.354124e+01
  -1.509503e+02  -5.016170e+01
  -2.543782e+01  -8.446000e+01
   6.647994e+01  -5.259944e+01
   4.872375e+01   7.880390e+00
  -3.969624e+01   3.208758e+01
  -9.227876e+01  -1.946183e+01
  -4.291118e+01  -1.124660e+02
   7.138074e+01  -1.530647e+02
   1.495361e+02  -7.264805e+01
   1.233975e+02   8.470894e+01
   1.750084e+01   1.848674e+02
  -8.056934e+01   1.340479e+02
  -1.014878e+02  -1.640799e+01
  -4.743698e+01  -1.212389e+02
   2.336933e+01  -9.889203e+01
   5.539780e+01  -9.660278e+00
   3.908238e+01   3.417991e+01
   9.638741e+00   7.381774e+00
   7.307455e+00  -1.553566e+01
   3.655795e+01   2.445578e+01
   5.698676e+01   8.991966e+01
   2.272460e+01   1.009983e+02
  -6.158423e+01   3.877737e+01
  -1.298710e+02  -3.768318e+01
  -1.135948e+02  -6.919772e+01
  -1.812883e+01  -5.426853e+01
   7.326233e+01  -2.582694e+01
   8.337491e+01  -3.002430e+00
   2.235460e+01   1.344618e+01
  -3.061367e+01   1.903748e+01
  -2.362254e+01   8.530158e+00
   9.355996e+00  -5.333211e+00
   3.584359e-02  -3.681582e+00
  -5.783660e+01   3.030527e+00
  -9.037509e+01  -2.060811e+01
  -2.949771e+01  -7.951425e+01
   9.837240e+01  -1.169916e+02
   1.872124e+02  -6.886138e+01
   1.578289e+02   5.303713e+01
   3.495731e+01   1.552722e+02
  -8.230897e+01   1.557799e+02
  -1.178106e+02   6.830033e+01
  -7.866550e+01  -1.857433e+01
  -2.549041e+01  -4.010974e+01
  -4.865033e+00  -1.602274e+01
  -1.559221e+01  -1.082643e+01
  -2.700627e+01  -4.978507e+01
  -1.284475e+01  -8.921649e+01
   2.938329e+01  -6.938069e+01
   7.397319e+01   1.354265e+01
   7.824349e+01   9.601259e+01
   1.880506e+01   1.070992e+02
  -6.902475e+01   3.609878e+01
  -1.054218e+02  -5.838372e+01
  -4.444806e+01  -1.029591e+02
   6.192912e+01  -7.002357e+01
   1.075540e+02   5.757539e+00
   5.048052e+01   6.435637e+01
  -3.506333e+01   6.865448e+01
  -4.700729e+01   2.898795e+01
   1.912138e+01  -1.098171e+01
   6.653306e+01  -1.126375e+01
   2.123538e+01   2.840023e+01
  -7.615662e+01   6.436092e+01
  -1.225120e+02   4.840002e+01
  -7.430526e+01  -2.017977e+01
   1.307145e+01  -8.433150e+01
   6.111860e+01  -8.269322e+01
   4.874802e+01  -1.602203e+01
   9.212524e+00   4.950345e+01
  -2.322162e+01   5.093017e+01
  -3.716589e+01  -5.269995e+00
  -3.022077e+01  -5.347907e+01
  -1.105904e+00  -4.470367e+01
   3.347918e+01   1.829557e+00
   4.398624e+01   2.802010e+01
   2.115271e+01   7.832403e+00
  -6.717900e+00  -2.338650e+01
  -7.456936e+00  -1.668344e+01
   1.111138e+01   2.746518e+01
   1.032882e+01   5.734573e+01
  -2.231074e+01   3.232564e+01
  -4.835869e+01  -2.658529e+01
  -2.432356e+01  -5.834749e+01
   3.595054e+01  -3.065976e+01
   6.628666e+01   2.662254e+01
   2.377497e+01   5.713835e+01
  -5.637948e+01   3.763971e+01
  -9.405103e+01  -7.693961e+00
  -5.109092e+01  -4.163023e+01
   2.759172e+01  -4.775190e+01
   6.422683e+01  -3.200618e+01
   3.174342e+01  -8.160650e+00
  -2.135372e+01   7.156359e+00
  -2.987167e+01   6.852485e-01
   1.696363e+01  -1.984291e+01
   6.693785e+01  -2.081611e+01
