
 $NMID
 id='ANONYMOUS ', fmtdat='(2E16.6)'
 volume=1.0
 tramp=1.0
 $END
   3.766309e+03  -1.586114e+02
   2.250976e+03   2.015052e+03
  -6.835945e+01   2.325376e+03
  -1.519921e+03   1.233032e+03
  -1.002633e+03   5.596323e+01
   1.788896e+02  -3.480088e+02
   5.353928e+02  -3.895678e+01
   9.578297e+01   7.128071e+02
  -4.770954e+02   7.334190e+02
  -8.308513e+02   5.515376e+01
  -5.080342e+02  -7.198630e+02
   7.102356e+01  -8.049419e+02
   4.059947e+02  -1.647165e+02
   3.246292e+02   5.275581e+02
  -1.389590e+02   6.882793e+02
  -5.384673e+02   6.815769e+01
  -3.268856e+02  -5.566707e+02
   2.290091e+02  -6.543892e+02
   5.312471e+02  -2.309208e+02
   4.891235e+02   2.555916e+02
   1.167815e+02   4.552062e+02
  -1.601673e+02   2.894251e+02
  -9.737353e+01   8.275004e+01
   1.618474e+02   6.023238e+01
   3.251184e+02   2.821952e+02
   3.498222e+01   4.009171e+02
  -4.833737e+02   2.334531e+02
  -7.297880e+02  -1.618212e+02
  -3.122108e+02  -4.516209e+02
   3.534993e+02  -2.933305e+02
   5.849610e+02   1.039670e+02
   2.367991e+02   3.913680e+02
  -2.955885e+02   4.100339e+02
  -5.199486e+02   1.395800e+02
  -3.615314e+02  -1.935203e+02
  -7.590349e+01  -3.678719e+02
   7.132934e+01  -2.343558e+02
   2.675603e+01   1.318917e+02
  -1.914143e+02   2.575459e+02
  -2.777072e+02  -1.168171e+02
  -7.640930e+01  -5.642622e+02
   2.898053e+02  -5.348553e+02
   4.243357e+02  -8.371614e+00
   1.723505e+02   3.799198e+02
  -1.811516e+02   1.836200e+02
  -2.250643e+02  -3.059465e+02
   1.321349e+02  -4.460047e+02
   4.984772e+02  -6.667277e+01
   5.245635e+02   4.183907e+02
   1.511560e+02   5.532192e+02
  -3.458671e+02   3.068152e+02
  -5.808484e+02  -8.024165e+01
  -3.615271e+02  -3.242978e+02
   9.540423e+01  -2.925211e+02
   3.623306e+02  -7.325644e+01
   2.399255e+02   9.736405e+01
  -3.363058e+01   6.311345e+01
  -8.348387e+01  -7.836603e+01
   1.241553e+02  -1.005100e+02
   2.760507e+02   5.869294e+01
   1.360755e+02   2.347897e+02
  -1.737571e+02   2.605857e+02
  -3.537085e+02   1.228537e+02
  -2.587221e+02  -9.928736e+01
   1.905379e+01  -3.102304e+02
   2.863108e+02  -3.749219e+02
   3.863730e+02  -1.851486e+02
   2.773808e+02   1.679622e+02
   6.710677e+01   4.062304e+02
  -6.846991e+01   3.604015e+02
  -6.903114e+01   1.688888e+02
  -5.027266e+01   7.726173e+01
  -1.256286e+02   1.047840e+02
  -2.411754e+02   6.673113e+01
  -2.497526e+02  -1.130609e+02
  -1.062639e+02  -2.682381e+02
   8.684661e+01  -2.099584e+02
   1.960662e+02   3.293884e+01
   1.476817e+02   2.533778e+02
  -4.537183e+01   2.691988e+02
  -2.624693e+02   7.490867e+01
  -3.283035e+02  -1.859451e+02
  -1.724543e+02  -3.306213e+02
   7.459521e+01  -2.873403e+02
   1.909521e+02  -1.431355e+02
   1.510244e+02  -5.820865e+01
   1.446344e+02  -6.440094e+01
   2.862466e+02  -4.301856e+01
   4.319077e+02   1.040179e+02
   3.287487e+02   3.229353e+02
  -3.455331e+01   4.598452e+02
  -4.020410e+02   4.091806e+02
  -5.059723e+02   1.780789e+02
  -3.121579e+02  -1.040260e+02
  -3.114898e+01  -2.657743e+02
   1.041351e+02  -2.150268e+02
   2.888266e+01  -3.653237e+01
  -1.254463e+02   5.660727e+01
  -1.596538e+02  -3.437223e+01
  -2.390772e+01  -1.657455e+02
   1.317614e+02  -1.303021e+02
   1.330511e+02   5.007872e+01
  -2.509729e+01   1.475550e+02
  -1.734226e+02   3.636704e+00
  -1.506382e+02  -2.517274e+02
   3.571065e+01  -3.587311e+02
   2.547813e+02  -2.065795e+02
   3.617373e+02   7.575956e+01
   2.854019e+02   2.779687e+02
   6.780816e+01   2.869989e+02
  -1.334182e+02   1.463865e+02
  -1.675898e+02   6.438893e+00
  -4.618181e+01  -1.659492e+01
   5.498867e+01   6.310013e+01
   2.708365e+00   1.222981e+02
  -1.310884e+02   7.422416e+01
  -1.628460e+02  -2.760728e+01
  -4.168421e+01  -6.174965e+01
   8.240445e+01   6.185306e+00
   4.143426e+01   8.922347e+01
  -1.496174e+02   8.498330e+01
  -3.064007e+02  -2.276480e+01
  -2.643803e+02  -1.704474e+02
  -3.340551e+01  -2.686632e+02
   2.112674e+02  -2.472836e+02
   2.831567e+02  -1.074645e+02
   1.509954e+02   4.741268e+01
  -3.011826e+01   8.758527e+01
  -7.307527e+01  -1.825523e+00
   5.302109e+01  -8.696732e+01
   1.980412e+02  -3.792583e+01
   2.026103e+02   1.103724e+02
   6.064406e+01   2.021103e+02
  -9.430615e+01   1.483431e+02
  -1.354233e+02   2.340173e+01
  -5.743933e+01  -3.545541e+01
   3.344710e+01   1.841904e+01
   2.385188e+01   1.056691e+02
  -9.752751e+01   1.150283e+02
  -2.142861e+02   9.407502e+00
  -1.879672e+02  -1.412832e+02
  -1.066252e+01  -2.183462e+02
   1.665371e+02  -1.568018e+02
   1.874024e+02  -9.060831e+00
   6.035558e+01   1.021165e+02
  -6.535915e+01   1.013023e+02
  -7.660683e+01   2.814278e+01
  -6.387957e+00  -2.271616e+01
   3.273444e+01  -8.833762e+00
  -1.113075e+01   2.070386e+01
  -8.636548e+01  -6.349611e+00
  -1.005421e+02  -9.886910e+01
  -5.829173e+00  -1.795350e+02
   1.482420e+02  -1.536716e+02
   2.464362e+02  -4.500904e+00
   1.976672e+02   1.718434e+02
   3.400434e+01   2.417943e+02
  -1.111451e+02   1.650367e+02
  -1.386477e+02   2.726951e+01
  -7.863794e+01  -5.113695e+01
  -3.571406e+01  -3.348887e+01
  -5.790331e+01   1.090940e+01
  -8.705886e+01   3.773687e+00
  -5.078041e+01  -5.661207e+01
   4.422106e+01  -9.977824e+01
   1.218260e+02  -6.274671e+01
   1.017245e+02   4.411929e+01
  -2.314762e+01   1.247097e+02
  -1.675944e+02   8.542309e+01
  -2.095608e+02  -7.190704e+01
  -8.604953e+01  -2.234659e+02
   1.315713e+02  -2.332606e+02
   2.836098e+02  -8.581253e+01
   2.620349e+02   9.724316e+01
   1.095675e+02   1.806315e+02
  -3.913886e+01   1.492517e+02
  -9.521606e+01   8.916565e+01
  -8.029939e+01   7.768968e+01
  -6.816326e+01   1.001575e+02
  -9.806029e+01   8.062238e+01
  -1.379428e+02  -2.332095e+01
  -1.234744e+02  -1.637992e+02
  -2.619793e+01  -2.365557e+02
   1.063393e+02  -1.741960e+02
   1.783044e+02  -1.262852e+01
   1.310300e+02   1.313091e+02
   9.442417e+00   1.614293e+02
  -7.557540e+01   8.413169e+01
  -6.163742e+01  -1.195014e+01
   3.157827e+00  -5.170825e+01
   2.266397e+01  -3.589099e+01
  -3.130617e+01  -1.540727e+01
  -8.450446e+01  -2.266848e+01
  -4.759816e+01  -4.219564e+01
   7.466938e+01  -3.779194e+01
   1.744569e+02   5.681506e+00
   1.469844e+02   6.559661e+01
   2.650536e+00   9.795750e+01
  -1.350031e+02   7.332959e+01
  -1.494331e+02   6.561405e+00
  -4.640983e+01  -4.831651e+01
   6.138085e+01  -4.175804e+01
   7.868198e+01   2.006673e+01
   1.520693e+01   7.571118e+01
  -5.060120e+01   6.720428e+01
  -6.945294e+01   1.988181e+00
  -5.651198e+01  -5.267697e+01
  -5.054083e+01  -4.524888e+01
  -6.235417e+01  -3.459361e+00
  -7.025576e+01  -4.003207e+00
  -4.275791e+01  -7.772648e+01
   3.353282e+01  -1.585550e+02
   1.320038e+02  -1.481080e+02
   1.836571e+02  -3.069031e+01
   1.308190e+02   9.843645e+01
   1.160341e+00   1.328720e+02
  -9.315588e+01   6.530287e+01
  -6.004138e+01  -1.293822e+01
   6.332605e+01  -1.723764e+01
   1.390950e+02   4.890450e+01
   7.178426e+01   1.137318e+02
  -8.851832e+01   1.133337e+02
  -1.975284e+02   4.444419e+01
  -1.637664e+02  -4.331132e+01
  -3.314360e+01  -8.898275e+01
   6.570673e+01  -6.356599e+01
   4.935852e+01   4.920839e-01
  -4.352877e+01   2.961747e+01
  -9.702572e+01  -2.426463e+01
  -3.825249e+01  -1.228665e+02
   8.895294e+01  -1.607639e+02
   1.682397e+02  -6.925338e+01
   1.291575e+02   9.800704e+01
   1.050094e+01   1.999249e+02
  -8.874058e+01   1.448749e+02
  -1.061414e+02  -1.267359e+01
  -5.471364e+01  -1.254801e+02
   1.236112e+01  -1.080710e+02
   5.133131e+01  -1.669551e+01
   4.897655e+01   3.317293e+01
   2.222142e+01   8.017848e+00
   7.469139e+00  -1.777772e+01
   2.747472e+01   2.298578e+01
   5.538587e+01   9.528883e+01
   3.292272e+01   1.098532e+02
  -5.571793e+01   4.150188e+01
  -1.397826e+02  -4.320135e+01
  -1.274440e+02  -7.452993e+01
  -1.752983e+01  -5.374067e+01
   8.627427e+01  -2.382129e+01
   9.003852e+01  -4.563203e+00
   1.516037e+01   1.145502e+01
  -3.771806e+01   2.191806e+01
  -1.883891e+01   1.421601e+01
   1.718871e+01  -3.456924e+00
  -5.246645e+00  -7.229047e+00
  -7.339955e+01  -2.747762e+00
  -9.625076e+01  -2.736322e+01
  -1.519280e+01  -8.713723e+01
   1.202893e+02  -1.210004e+02
   1.987499e+02  -6.260324e+01
   1.558395e+02   6.781967e+01
   2.929195e+01   1.681367e+02
  -8.577462e+01   1.594255e+02
  -1.217854e+02   6.572830e+01
  -8.403808e+01  -2.036161e+01
  -2.763236e+01  -3.845103e+01
  -1.889587e+00  -1.289863e+01
  -1.370199e+01  -8.659002e+00
  -3.133650e+01  -5.079564e+01
  -1.815896e+01  -9.426824e+01
   3.140645e+01  -7.357194e+01
   8.131313e+01   1.812361e+01
   7.965696e+01   1.089748e+02
   9.159720e+00   1.153031e+02
  -8.107602e+01   2.910024e+01
  -1.081234e+02  -7.343764e+01
  -3.739414e+01  -1.091150e+02
   6.851013e+01  -6.388348e+01
   1.060985e+02   1.098065e+01
   4.475807e+01   5.922964e+01
  -3.578645e+01   6.070442e+01
  -3.898009e+01   2.916105e+01
   2.983829e+01  -4.670577e+00
   7.088613e+01  -8.255328e+00
   1.697376e+01   2.738468e+01
  -8.265568e+01   6.662400e+01
  -1.237813e+02   5.493014e+01
  -7.010211e+01  -1.700714e+01
   1.686175e+01  -8.755557e+01
   6.057691e+01  -8.459890e+01
   4.528880e+01  -1.042243e+01
   5.625265e+00   5.664097e+01
  -2.582896e+01   4.989385e+01
  -3.886782e+01  -1.211641e+01
  -2.957871e+01  -5.584663e+01
   1.088212e+00  -3.946561e+01
   3.389032e+01   6.144340e+00
   4.195686e+01   2.484556e+01
   2.093269e+01   2.841976e+00
  -2.595858e+00  -2.051032e+01
  -5.889458e+00  -6.138526e+00
   1.611085e+00   3.477900e+01
  -5.520511e+00   5.325480e+01
  -2.906052e+01   1.903088e+01
  -3.840827e+01  -3.898604e+01
  -8.149904e+00  -6.172717e+01
   4.267786e+01  -2.410333e+01
   6.150300e+01   3.705188e+01
   1.693119e+01   6.354600e+01
  -5.938602e+01   3.604670e+01
  -9.551143e+01  -1.422542e+01
  -5.212717e+01  -4.616449e+01
   2.979953e+01  -4.642013e+01
   6.797889e+01  -2.773633e+01
   2.934123e+01  -7.532698e+00
  -3.108139e+01   7.591023e-01
  -3.485580e+01  -9.730458e+00
   2.759535e+01  -2.703415e+01
   8.630830e+01  -1.935218e+01
