
 $NMID
 id='ANONYMOUS ', fmtdat='(2E16.6)'
 volume=1.0
 tramp=1.0
 $END
  -1.914607e+03   2.955601e+02
  -1.373436e+03  -1.058958e+03
  -1.301374e+02  -1.298098e+03
   7.758822e+02  -9.192833e+02
   9.079661e+02  -1.689237e+02
   1.592861e+02   2.311085e+02
  -3.180021e+02   1.598690e+01
  -1.723838e+02  -3.203618e+02
   2.160145e+02  -4.227043e+02
   3.704411e+02  -1.455215e+02
   3.056230e+02   3.261774e+02
   9.097200e+01   4.276861e+02
  -2.208182e+02   2.336174e+02
  -2.326610e+02  -1.896284e+02
   2.745599e+01  -3.810101e+02
   2.808966e+02  -1.363793e+02
   3.105284e+02   2.915088e+02
  -1.985689e+01   5.154414e+02
  -3.094268e+02   3.043518e+02
  -3.538046e+02  -8.427695e+01
  -1.258732e+02  -2.946897e+02
   6.455742e+01  -1.697517e+02
   4.278589e+01  -7.006290e+01
  -1.142394e+02  -9.678088e+01
  -1.715202e+02  -2.189456e+02
   7.671894e+01  -2.556001e+02
   3.519841e+02  -5.134870e+01
   4.157784e+02   1.692759e+02
   1.408948e+02   2.164244e+02
  -2.233500e+02   1.039855e+02
  -3.403465e+02  -9.412975e+01
  -1.364347e+02  -2.244844e+02
   1.845835e+02  -2.464349e+02
   3.326123e+02  -9.424459e+01
   2.403473e+02   9.620530e+01
   8.157827e+01   2.172918e+02
   2.713942e+01   1.323309e+02
   6.103913e+01  -3.722942e+01
   1.223895e+02  -6.279637e+01
   8.236555e+01   1.250735e+02
  -2.845440e+01   3.277021e+02
  -1.561401e+02   2.616469e+02
  -1.724555e+02  -2.933285e+01
  -4.569190e+01  -2.000389e+02
   1.014180e+02  -5.997701e+01
   9.838926e+01   2.149542e+02
  -1.008821e+02   2.779380e+02
  -3.269264e+02   4.038125e+01
  -3.705076e+02  -2.636563e+02
  -1.411892e+02  -3.581525e+02
   1.908289e+02  -2.095462e+02
   3.670411e+02   1.395873e+01
   2.661641e+02   1.479456e+02
   1.301991e+00   1.556011e+02
  -1.852197e+02   9.045608e+01
  -1.712253e+02   1.903881e+01
  -4.318332e+01  -8.303857e+00
   1.801562e+01   9.405202e+00
  -5.997505e+01   2.335044e+01
  -1.560079e+02  -2.400622e+01
  -1.029198e+02  -1.275359e+02
   1.036188e+02  -1.947362e+02
   2.742669e+02  -1.252191e+02
   2.261104e+02   7.659203e+01
  -1.780205e+01   2.695017e+02
  -2.504481e+02   2.916402e+02
  -2.963915e+02   1.137252e+02
  -1.742295e+02  -1.260425e+02
  -4.045211e+01  -2.581716e+02
   6.831189e-01  -2.411571e+02
  -6.515120e+00  -1.699049e+02
   3.617705e+01  -1.323048e+02
   1.397978e+02  -1.078384e+02
   2.164204e+02  -2.285009e+01
   1.853777e+02   1.188846e+02
   6.016941e+01   2.063360e+02
  -7.782135e+01   1.410544e+02
  -1.429329e+02  -4.263327e+01
  -9.666293e+01  -1.944471e+02
   4.073559e+01  -1.888042e+02
   1.886796e+02  -3.832642e+01
   2.316088e+02   1.375719e+02
   1.329191e+02   2.225964e+02
  -2.619395e+01   1.990851e+02
  -1.161247e+02   1.292620e+02
  -1.149862e+02   8.542650e+01
  -1.326355e+02   6.522578e+01
  -2.354323e+02   2.186540e+01
  -3.302105e+02  -8.794695e+01
  -2.486081e+02  -2.451383e+02
   3.003160e+01  -3.464492e+02
   3.095005e+02  -3.100724e+02
   3.739658e+02  -1.324090e+02
   2.139723e+02   7.798335e+01
   9.646705e+00   1.835159e+02
  -5.900195e+01   1.408719e+02
   1.189744e+01   3.358662e+01
   9.796422e+01  -1.102866e+01
   8.783425e+01   4.102764e+01
  -8.634429e-01   9.869281e+01
  -7.924945e+01   6.478974e+01
  -7.079822e+01  -3.661280e+01
   1.939259e+01  -8.410817e+01
   1.135983e+02   1.050268e+01
   1.167425e+02   1.797626e+02
  -8.372737e+00   2.655489e+02
  -1.917201e+02   1.688570e+02
  -2.943055e+02  -4.547126e+01
  -2.282647e+02  -2.124167e+02
  -4.467005e+01  -2.211845e+02
   1.032135e+02  -1.085574e+02
   1.114850e+02  -4.050366e+00
   2.182880e+01   3.509646e+00
  -3.368310e+01  -5.722031e+01
   1.323081e+01  -8.970644e+01
   9.762626e+01  -4.652798e+01
   1.064693e+02   2.253028e+01
   1.895752e+01   3.725379e+01
  -6.068472e+01  -1.850354e+01
  -2.128563e+01  -7.933567e+01
   1.265175e+02  -6.977198e+01
   2.453446e+02   2.303401e+01
   2.055414e+02   1.430603e+02
   1.875781e+01   2.113146e+02
  -1.663912e+02   1.816550e+02
  -2.082514e+02   7.437945e+01
  -1.027907e+02  -2.921679e+01
   2.301164e+01  -5.041577e+01
   4.384369e+01   8.487245e+00
  -4.637678e+01   5.942490e+01
  -1.437470e+02   2.277058e+01
  -1.452857e+02  -7.810403e+01
  -4.762836e+01  -1.398521e+02
   6.049720e+01  -1.005197e+02
   8.788029e+01  -1.272157e+01
   2.781990e+01   2.105472e+01
  -3.642416e+01  -3.107412e+01
  -1.594453e+01  -9.964246e+01
   8.803129e+01  -9.563078e+01
   1.746979e+02  -3.016051e+00
   1.434576e+02   1.113145e+02
   5.185191e+00   1.618498e+02
  -1.221562e+02   1.159914e+02
  -1.333863e+02   1.387086e+01
  -4.083008e+01  -6.661126e+01
   4.765426e+01  -7.246822e+01
   5.168614e+01  -2.224603e+01
  -4.944972e+00   1.728741e+01
  -3.504138e+01   5.071817e+00
   7.833688e+00  -2.447425e+01
   7.969069e+01  -5.291540e+00
   9.370110e+01   7.595265e+01
   9.482733e+00   1.486545e+02
  -1.205490e+02   1.264522e+02
  -1.948975e+02   5.586421e+00
  -1.526851e+02  -1.295880e+02
  -3.017361e+01  -1.811736e+02
   7.654054e+01  -1.256984e+02
   1.002849e+02  -2.748994e+01
   6.175085e+01   3.064587e+01
   3.143847e+01   2.014097e+01
   4.672169e+01  -1.268077e+01
   7.138580e+01  -5.693005e+00
   4.830119e+01   4.932226e+01
  -3.183636e+01   9.023166e+01
  -1.052062e+02   5.643970e+01
  -9.342500e+01  -4.164368e+01
   1.510121e+01  -1.120632e+02
   1.413212e+02  -7.485274e+01
   1.723450e+02   5.598021e+01
   6.611407e+01   1.730178e+02
  -1.049481e+02   1.757514e+02
  -2.150267e+02   6.509033e+01
  -1.931763e+02  -6.708821e+01
  -7.862673e+01  -1.287410e+02
   2.893385e+01  -1.087374e+02
   6.629849e+01  -6.685609e+01
   5.084731e+01  -5.990128e+01
   4.186462e+01  -7.925183e+01
   6.997597e+01  -6.793977e+01
   1.075554e+02   9.601331e+00
   1.006513e+02   1.194941e+02
   2.719057e+01   1.788217e+02
  -7.468694e+01   1.326966e+02
  -1.308951e+02   9.130047e+00
  -9.760593e+01  -9.992555e+01
  -6.371220e+00  -1.203823e+02
   6.022013e+01  -5.818276e+01
   4.949374e+01   1.685771e+01
  -5.825761e+00   4.468610e+01
  -2.577722e+01   2.726550e+01
   1.989196e+01   7.700471e+00
   6.980582e+01   1.451090e+01
   4.150276e+01   3.353617e+01
  -6.285929e+01   3.184935e+01
  -1.454529e+02  -3.850450e+00
  -1.161875e+02  -5.297771e+01
   5.925314e+00  -7.892212e+01
   1.113382e+02  -5.891472e+01
   1.148839e+02  -5.500032e+00
   3.341866e+01   3.977091e+01
  -4.668828e+01   3.740901e+01
  -6.193036e+01  -1.179352e+01
  -1.945042e+01  -6.003040e+01
   3.243630e+01  -5.736347e+01
   5.698295e+01  -5.834871e+00
   5.287350e+01   3.987032e+01
   4.217547e+01   3.502828e+01
   4.344572e+01   5.427817e-01
   5.263029e+01   5.285035e-01
   4.024194e+01   6.082765e+01
  -1.809550e+01   1.271423e+02
  -1.032876e+02   1.204326e+02
  -1.499306e+02   2.785356e+01
  -1.068308e+02  -7.570517e+01
  -5.359405e-01  -1.067163e+02
   7.436960e+01  -5.606950e+01
   4.701133e+01   7.761663e+00
  -4.930253e+01   1.588301e+01
  -1.072716e+02  -3.361945e+01
  -5.544025e+01  -8.570326e+01
   6.618505e+01  -8.786047e+01
   1.486702e+02  -3.533451e+01
   1.230575e+02   3.165460e+01
   2.461267e+01   6.497193e+01
  -4.927524e+01   4.427612e+01
  -3.607049e+01  -4.737892e+00
   3.460783e+01  -2.696037e+01
   7.761176e+01   1.537664e+01
   3.755656e+01   9.492989e+01
  -5.708696e+01   1.306555e+02
  -1.235374e+02   6.397767e+01
  -1.047156e+02  -6.789685e+01
  -1.973582e+01  -1.522264e+02
   6.041059e+01  -1.125021e+02
   8.074079e+01   8.634719e+00
   4.245185e+01   9.425118e+01
  -1.152975e+01   7.894779e+01
  -4.001408e+01   1.048456e+01
  -3.273775e+01  -2.350488e+01
  -1.165084e+01  -3.588404e+00
  -7.412639e+00   1.205154e+01
  -2.868538e+01  -2.117809e+01
  -4.728226e+01  -7.272389e+01
  -2.238919e+01  -8.046802e+01
   4.784953e+01  -3.176033e+01
   1.082904e+02   2.723789e+01
   9.647818e+01   5.220756e+01
   1.515810e+01   4.327531e+01
  -6.227214e+01   2.375471e+01
  -6.884146e+01   5.134175e+00
  -1.623732e+01  -1.113122e+01
   2.578212e+01  -1.758650e+01
   1.667770e+01  -7.909133e+00
  -9.992743e+00   4.141381e+00
   2.302053e+00   1.108488e+00
   5.294612e+01  -6.119535e+00
   7.798765e+01   1.522413e+01
   2.454042e+01   6.816592e+01
  -8.083528e+01   1.019104e+02
  -1.523367e+02   6.170718e+01
  -1.293465e+02  -4.024537e+01
  -3.282039e+01  -1.257401e+02
   6.039338e+01  -1.285804e+02
   9.165871e+01  -6.021890e+01
   6.415043e+01   9.496935e+00
   2.285357e+01   2.942495e+01
   5.384089e+00   1.277570e+01
   1.415495e+01   8.918624e+00
   2.563326e+01   3.937804e+01
   1.518207e+01   7.196115e+01
  -2.221290e+01   5.831597e+01
  -6.304761e+01  -8.380617e+00
  -6.764902e+01  -7.789902e+01
  -1.581503e+01  -8.934355e+01
   5.973759e+01  -3.091045e+01
   8.978006e+01   4.816645e+01
   3.791699e+01   8.500338e+01
  -5.002561e+01   5.774439e+01
  -8.643215e+01  -3.178603e+00
  -3.989352e+01  -4.886754e+01
   2.731563e+01  -5.261539e+01
   3.442220e+01  -2.263047e+01
  -1.894860e+01   8.346097e+00
  -5.444650e+01   9.432519e+00
  -1.605405e+01  -2.200109e+01
   6.125933e+01  -5.319057e+01
   9.681831e+01  -4.301131e+01
   5.898634e+01   1.323459e+01
  -8.383443e+00   6.913781e+01
  -4.618098e+01   7.054709e+01
  -3.916840e+01   1.525466e+01
  -1.044375e+01  -4.079405e+01
   1.625778e+01  -4.300097e+01
   3.067214e+01   3.018847e+00
   2.615724e+01   4.230790e+01
   1.732753e+00   3.497802e+01
  -2.714875e+01  -1.528471e+00
  -3.499847e+01  -2.040723e+01
  -1.625857e+01  -3.621109e+00
   4.631911e+00   1.927949e+01
   4.108447e+00   1.115180e+01
  -8.990259e+00  -2.417769e+01
  -5.832859e+00  -4.535644e+01
   1.961803e+01  -2.254468e+01
   3.656198e+01   2.465188e+01
   1.451738e+01   4.757433e+01
  -3.246327e+01   2.235174e+01
  -5.378341e+01  -2.500772e+01
  -1.793904e+01  -4.875995e+01
   4.681845e+01  -3.196230e+01
   7.778253e+01   5.327058e+00
   4.360404e+01   3.333153e+01
  -2.083676e+01   3.946176e+01
  -5.169561e+01   2.780332e+01
  -2.504884e+01   8.524309e+00
   1.938639e+01  -4.334946e+00
   2.541018e+01   1.495252e+00
  -1.641094e+01   1.958415e+01
  -6.006379e+01   2.033722e+01
