
 $NMID
 id='ANONYMOUS ', fmtdat='(2E16.6)'
 volume=1.0
 tramp=1.0
 $END
  -9.479884e+02   2.510908e+02
  -6.881094e+02  -6.521171e+02
   3.211764e+02  -7.614118e+02
   3.863721e+02  -1.271576e+02
   1.565935e+02   6.046754e+01
   5.230882e+00   9.650324e+01
  -1.841839e+02  -3.912205e+01
  -1.366204e+02  -2.413801e+02
   9.197414e+01  -1.974427e+02
   2.390336e+02  -1.901871e+01
   1.099955e+02   1.434439e+02
   3.351464e+01   1.817897e+02
  -1.434506e+02   4.118275e+01
  -1.171164e+02  -9.391838e+01
   2.717492e+01  -1.407419e+02
   1.560790e+02  -5.739728e+01
   1.245040e+02   1.051901e+02
  -4.358627e+01   1.706016e+02
  -1.159401e+02   6.897043e+00
  -1.018854e+02  -6.943415e+01
  -3.491653e+01  -8.643469e+01
   4.721256e+01  -6.903128e+01
   6.706033e+01   1.828944e+01
  -2.369066e+01   1.173183e+01
  -8.436433e+01  -2.227113e+01
  -5.397496e+01  -7.875792e+01
   6.944860e+01  -4.901421e+01
   1.422857e+02   5.684808e+00
   8.241362e+01   8.544567e+01
  -2.432062e+01   9.702641e+01
  -1.267833e+02   2.346825e+01
  -7.372076e+01  -7.650559e+01
   2.857658e+01  -7.628867e+01
   8.504839e+01  -4.537951e+01
   9.103765e+01   3.245987e+01
   2.234370e+01   7.635656e+01
  -2.893394e+01   4.331819e+01
  -3.818600e+01  -4.635294e+01
   1.110427e+01  -5.810347e+01
   6.455362e+01   1.676549e+01
   3.430718e+01   1.172474e+02
  -4.289921e+01   9.849858e+01
  -9.260657e+01   4.883014e+00
  -4.281460e+01  -7.663621e+01
   4.212330e+01  -4.100533e+01
   5.914793e+01   6.156386e+01
  -1.927828e+01   8.952677e+01
  -9.403667e+01   2.329201e+01
  -9.680230e+01  -6.953869e+01
  -2.614009e+01  -1.019521e+02
   6.247617e+01  -5.831759e+01
   1.026484e+02   1.484338e+01
   6.653435e+01   6.083438e+01
  -1.276286e+01   6.179741e+01
  -6.331917e+01   2.388732e+01
  -4.761369e+01  -1.091236e+01
   3.265398e+00  -1.045974e+01
   1.902099e+01   1.671137e+01
  -2.165367e+01   2.680514e+01
  -6.047752e+01  -2.799369e+00
  -3.620637e+01  -4.352536e+01
   3.332595e+01  -5.072717e+01
   7.331158e+01  -1.883957e+01
   4.632035e+01   2.426633e+01
  -1.216122e+01   5.383013e+01
  -5.224998e+01   6.009347e+01
  -5.953143e+01   3.514492e+01
  -4.724491e+01  -1.801199e+01
  -2.439497e+01  -6.683275e+01
   2.210109e+00  -7.351833e+01
   1.937804e+01  -4.055548e+01
   2.385292e+01  -1.155254e+01
   2.554049e+01  -8.198370e+00
   3.452969e+01  -7.271870e+00
   3.871773e+01   1.485576e+01
   2.536416e+01   4.274211e+01
  -6.272965e+00   4.005654e+01
  -3.301340e+01   5.686740e+00
  -3.433881e+01  -3.233448e+01
  -4.234373e+00  -4.435654e+01
   4.106982e+01  -2.179608e+01
   6.370446e+01   2.115945e+01
   4.152634e+01   5.070636e+01
  -8.072021e+00   5.618624e+01
  -3.983373e+01   3.667392e+01
  -3.433200e+01   1.390343e+01
  -2.110557e+01   1.011800e+01
  -4.203776e+01   1.005415e+01
  -7.282935e+01  -8.518038e+00
  -6.726642e+01  -4.775802e+01
  -8.153789e+00  -8.079943e+01
   5.729037e+01  -8.101980e+01
   8.523565e+01  -4.356900e+01
   6.506694e+01   9.150756e+00
   2.158142e+01   5.038397e+01
  -1.059662e+01   4.772637e+01
  -8.438400e+00   1.287429e+01
   9.844151e+00  -1.396635e+01
   2.279461e+01  -5.432135e+00
   1.020098e+01   2.459854e+01
  -1.456618e+01   2.852441e+01
  -2.121913e+01  -3.133725e-01
   1.892001e+00  -2.212212e+01
   2.718764e+01  -3.537039e+00
   2.770373e+01   3.934057e+01
  -1.761261e+00   5.883731e+01
  -3.733603e+01   3.725691e+01
  -5.890334e+01  -5.241206e+00
  -5.228036e+01  -3.676806e+01
  -2.002079e+01  -4.253871e+01
   1.554933e+01  -2.726077e+01
   2.705807e+01  -8.327050e+00
   9.660798e+00  -1.670322e+00
  -9.817384e+00  -1.052595e+01
  -3.426276e+00  -2.030969e+01
   2.004027e+01  -1.474613e+01
   2.856818e+01   2.055063e+00
   1.076825e+01   1.021317e+01
  -1.017848e+01   1.311925e+00
  -6.777724e+00  -1.187636e+01
   1.944169e+01  -1.354642e+01
   4.338115e+01  -1.187177e+00
   4.231804e+01   1.857094e+01
   1.432523e+01   3.757920e+01
  -2.210505e+01   4.365762e+01
  -4.024991e+01   2.813709e+01
  -2.763200e+01   3.197892e-01
  -1.371639e+00  -1.452116e+01
   8.671582e+00  -4.041336e+00
  -7.963485e+00   1.292157e+01
  -3.039758e+01   9.914384e+00
  -3.244951e+01  -1.326696e+01
  -1.196499e+01  -3.110887e+01
   1.090310e+01  -2.568791e+01
   1.827333e+01  -7.377419e+00
   9.633666e+00   2.467168e+00
  -2.050546e+00  -3.733846e+00
  -2.400762e+00  -1.479319e+01
   1.251750e+01  -1.663550e+01
   3.058645e+01  -3.522466e+00
   3.078106e+01   1.774042e+01
   6.554322e+00   3.202531e+01
  -2.240620e+01   2.682789e+01
  -2.926692e+01   5.497852e+00
  -1.172382e+01  -1.339842e+01
   7.087093e+00  -1.675042e+01
   9.111027e+00  -8.211867e+00
   4.560824e-01  -3.633090e-01
  -1.777560e+00   1.844120e-01
   7.702188e+00  -1.461950e+00
   1.763746e+01   4.003840e+00
   1.462563e+01   1.681197e+01
  -2.842949e+00   2.794625e+01
  -2.556549e+01   2.498923e+01
  -3.782144e+01   4.166272e+00
  -3.035414e+01  -2.341726e+01
  -6.704120e+00  -3.743018e+01
   1.504296e+01  -2.921208e+01
   1.932457e+01  -7.782293e+00
   1.211053e+01   5.466362e+00
   9.223902e+00   5.898497e+00
   1.226478e+01   7.227440e-01
   1.453403e+01   1.510680e+00
   5.695277e+00   1.035599e+01
  -9.875037e+00   1.544856e+01
  -2.061699e+01   8.672296e+00
  -1.560068e+01  -6.884241e+00
   2.545473e+00  -1.929071e+01
   2.393516e+01  -1.396862e+01
   3.155357e+01   7.703274e+00
   1.689435e+01   3.035916e+01
  -1.455581e+01   3.401126e+01
  -3.941343e+01   1.561826e+01
  -4.012357e+01  -9.522951e+00
  -1.991470e+01  -2.278798e+01
   2.476549e+00  -2.245996e+01
   1.278431e+01  -1.756525e+01
   1.239871e+01  -1.675877e+01
   1.225537e+01  -1.808059e+01
   1.841506e+01  -1.292223e+01
   2.519128e+01   4.472354e+00
   2.304298e+01   2.698090e+01
   6.352577e+00   3.967176e+01
  -1.636481e+01   3.124693e+01
  -2.943545e+01   5.826285e+00
  -2.304097e+01  -1.851209e+01
  -4.170381e+00  -2.546386e+01
   9.344936e+00  -1.453903e+01
   7.790064e+00  -2.988858e-01
  -5.432567e-01   5.572424e+00
  -1.287484e+00   4.106691e+00
   7.833892e+00   3.334048e+00
   1.445739e+01   6.137991e+00
   6.078666e+00   7.708721e+00
  -1.406612e+01   4.603203e+00
  -2.863610e+01  -2.528979e+00
  -2.298952e+01  -9.949709e+00
   4.741617e-01  -1.393438e+01
   2.191124e+01  -1.165489e+01
   2.362212e+01  -3.003701e+00
   7.060020e+00   5.929388e+00
  -9.869629e+00   6.410460e+00
  -1.168544e+01  -2.775031e+00
  -8.990026e-01  -1.201070e+01
   9.423772e+00  -1.032000e+01
   1.145220e+01   9.497237e-01
   8.887261e+00   9.714610e+00
   8.139803e+00   6.944903e+00
   1.053859e+01  -1.347884e+00
   1.178829e+01  -3.646524e-01
   7.145072e+00   1.485389e+01
  -4.865355e+00   2.978345e+01
  -2.093802e+01   2.706134e+01
  -3.102236e+01   5.438969e+00
  -2.474313e+01  -1.743110e+01
  -3.995639e+00  -2.281239e+01
   1.287871e+01  -1.199121e+01
   9.787404e+00  -3.080882e-01
  -8.908401e+00  -4.355414e-01
  -2.058522e+01  -9.729985e+00
  -9.702539e+00  -1.815433e+01
   1.582930e+01  -1.760843e+01
   3.323639e+01  -7.960548e+00
   2.748086e+01   5.836702e+00
   6.082597e+00   1.460453e+01
  -9.989066e+00   1.226791e+01
  -7.436369e+00   1.353965e+00
   8.114136e+00  -5.343977e+00
   1.741406e+01   3.519175e+00
   8.133965e+00   2.183297e+01
  -1.351250e+01   2.956577e+01
  -2.817848e+01   1.383642e+01
  -2.325962e+01  -1.536345e+01
  -4.425676e+00  -3.244356e+01
   1.228823e+01  -2.282039e+01
   1.659211e+01   2.756178e+00
   9.729607e+00   1.981616e+01
  -1.118084e+00   1.613938e+01
  -8.843728e+00   1.807273e+00
  -9.645336e+00  -5.028281e+00
  -4.518340e+00  -4.740606e-01
  -5.107975e-01   3.322739e+00
  -3.633460e+00  -3.841300e+00
  -9.887421e+00  -1.559207e+01
  -7.489872e+00  -1.774639e+01
   8.204113e+00  -7.123291e+00
   2.406266e+01   5.643450e+00
   2.248835e+01   1.041043e+01
   2.827274e+00   8.255614e+00
  -1.484137e+01   5.180044e+00
  -1.414213e+01   2.567343e+00
  -5.116217e-01  -1.003038e+00
   6.806508e+00  -3.438067e+00
   9.333215e-01  -1.752221e+00
  -5.475389e+00   1.379525e+00
   5.109817e-01   7.811424e-01
   1.421116e+01  -1.148618e+00
   1.752561e+01   3.995178e+00
   1.648969e+00   1.656335e+01
  -2.215261e+01   2.308413e+01
  -3.460065e+01   1.130828e+01
  -2.622359e+01  -1.306608e+01
  -4.986834e+00  -3.034066e+01
   1.368240e+01  -2.743917e+01
   1.979976e+01  -1.084460e+01
   1.419039e+01   3.300342e+00
   5.017781e+00   5.946825e+00
   4.731653e-01   1.577082e+00
   2.578295e+00   1.371904e+00
   6.291136e+00   8.945973e+00
   4.203210e+00   1.688384e+01
  -5.723165e+00   1.340468e+01
  -1.614964e+01  -3.219625e+00
  -1.584453e+01  -1.998240e+01
  -1.480490e+00  -2.112869e+01
   1.625353e+01  -4.884668e+00
   2.075897e+01   1.371844e+01
   6.688073e+00   1.944040e+01
  -1.259906e+01   1.089221e+01
  -1.851901e+01  -1.761790e+00
  -7.239839e+00  -8.967510e+00
   5.797163e+00  -8.881112e+00
   5.031000e+00  -4.076720e+00
  -6.869006e+00   1.165295e+00
  -1.285780e+01   1.636391e+00
  -2.841267e+00  -4.997891e+00
   1.352508e+01  -1.272211e+01
   1.973694e+01  -1.106088e+01
   1.114241e+01   2.222940e+00
  -2.576317e+00   1.534519e+01
  -9.805295e+00   1.471406e+01
  -8.152671e+00   1.300379e+00
  -1.851933e+00  -1.033363e+01
   4.235643e+00  -8.814815e+00
   7.443201e+00   1.817081e+00
   5.426780e+00   8.629475e+00
  -6.524194e-01   5.713698e+00
  -6.170597e+00  -1.326936e+00
  -6.309524e+00  -3.381913e+00
  -2.563790e+00   5.682293e-01
   2.033544e-01   3.652696e+00
  -3.232686e-02   5.782457e-02
  -3.847049e-01  -6.925477e+00
   2.265094e+00  -9.076045e+00
   5.667925e+00  -2.157643e+00
   5.005137e+00   7.876789e+00
  -1.112229e+00   1.035356e+01
  -8.380602e+00   2.496185e+00
  -9.522666e+00  -8.245757e+00
  -1.380330e+00  -1.184578e+01
   1.093032e+01  -6.138148e+00
   1.654749e+01   2.323211e+00
   9.096996e+00   7.439230e+00
  -5.076712e+00   7.455920e+00
  -1.138323e+01   4.558453e+00
  -3.672294e+00   1.241999e+00
   7.529468e+00   3.089021e-01
   7.245684e+00   2.913641e+00
  -5.651081e+00   6.356003e+00
  -1.672810e+01   4.362772e+00
