
 $NMID
 id='ANONYMOUS ', fmtdat='(2E16.6)'
 volume=1.0
 tramp=1.0
 $END
  -3.097507e+03  -1.149393e+01
  -1.798938e+03  -1.832324e+03
   3.974096e+02  -1.853208e+03
   1.284424e+03  -7.799284e+02
   7.695791e+02   1.689111e+02
  -4.259778e+02   4.266741e+02
  -6.531936e+02  -1.238547e+02
   5.632145e+00  -7.112441e+02
   4.857237e+02  -5.927270e+02
   6.209169e+02   1.040564e+02
   3.586090e+02   6.420495e+02
  -1.268714e+02   6.751918e+02
  -5.104372e+02   2.827273e+01
  -2.708680e+02  -4.613647e+02
   1.774993e+02  -5.323783e+02
   5.151195e+02   1.847934e+01
   2.158026e+02   5.580443e+02
  -3.008889e+02   4.423012e+02
  -4.336315e+02   6.340133e+01
  -2.930240e+02  -2.633208e+02
  -7.462450e+00  -3.653622e+02
   1.691730e+02  -2.188259e+02
   1.466752e+02  -3.224128e+01
  -6.276949e+01   3.705468e+01
  -2.696545e+02  -9.448389e+01
  -1.358190e+02  -2.969590e+02
   3.707865e+02  -3.173315e+02
   6.356007e+02   5.692027e+01
   3.619584e+02   4.093723e+02
  -3.023983e+02   3.775363e+02
  -5.626713e+02  -3.903942e+01
  -2.719132e+02  -3.546510e+02
   2.198532e+02  -3.833538e+02
   4.478583e+02  -1.188758e+02
   3.037761e+02   1.847236e+02
   4.955597e+01   3.830361e+02
  -1.802538e+02   2.286022e+02
  -1.473587e+02  -1.562593e+02
   1.098836e+02  -3.548239e+02
   3.438674e+02   1.359603e+00
   1.968133e+02   5.266637e+02
  -2.592384e+02   5.497297e+02
  -4.793840e+02  -3.300477e+00
  -1.900657e+02  -4.434380e+02
   2.454084e+02  -2.455179e+02
   3.076400e+02   2.706534e+02
  -7.113745e+01   4.416396e+02
  -4.353144e+02   8.808641e+01
  -4.297205e+02  -3.244944e+02
  -1.001026e+02  -4.349614e+02
   2.914122e+02  -2.414366e+02
   4.575330e+02   8.046740e+01
   2.586166e+02   3.010575e+02
  -1.409677e+02   2.766054e+02
  -3.551987e+02   2.514780e+01
  -1.789462e+02  -1.759080e+02
   1.154908e+02  -9.599231e+01
   1.242842e+02   1.262266e+02
  -1.389920e+02   1.556800e+02
  -2.854433e+02  -5.937079e+01
  -1.088772e+02  -2.368363e+02
   1.670121e+02  -1.907680e+02
   2.486528e+02  -3.787391e+01
   1.280364e+02   7.118691e+01
  -3.631252e+01   1.550565e+02
  -1.686852e+02   2.232905e+02
  -2.519582e+02   1.479872e+02
  -2.206200e+02  -1.107085e+02
  -5.960177e+01  -3.287949e+02
   9.189048e+01  -2.852538e+02
   9.935456e+01  -8.422855e+01
   3.130943e+01   2.767617e+00
   4.777461e+01  -6.764465e+01
   1.541335e+02  -8.532572e+01
   1.987490e+02   5.811831e+01
   9.771842e+01   2.120515e+02
  -6.460045e+01   1.874295e+02
  -1.605430e+02   5.401124e+00
  -1.358369e+02  -1.740028e+02
   8.570452e+00  -2.106449e+02
   1.879142e+02  -8.146110e+01
   2.559989e+02   1.248467e+02
   1.319018e+02   2.641995e+02
  -8.486791e+01   2.307959e+02
  -1.813615e+02   8.274067e+01
  -1.161710e+02  -7.964352e+00
  -6.937000e+01   1.750921e+01
  -1.693048e+02   4.313670e+01
  -2.953076e+02  -4.899516e+01
  -2.387825e+02  -2.192291e+02
   1.342915e+01  -3.328461e+02
   2.770773e+02  -2.944857e+02
   3.630694e+02  -1.347597e+02
   2.437807e+02   8.100135e+01
   3.270651e+01   2.196145e+02
  -1.001879e+02   1.864519e+02
  -6.131059e+01   2.100176e+01
   8.730104e+01  -7.909396e+01
   1.483751e+02   1.202263e+01
   3.185880e+01   1.544292e+02
  -1.336813e+02   1.329834e+02
  -1.409793e+02  -4.992959e+01
   1.567432e+01  -1.479170e+02
   1.479872e+02  -2.138007e+01
   1.120281e+02   1.892092e+02
  -3.900263e+01   2.555993e+02
  -1.760680e+02   1.273545e+02
  -2.330429e+02  -6.139737e+01
  -1.939861e+02  -1.808871e+02
  -6.365650e+01  -1.921550e+02
   8.803736e+01  -1.134661e+02
   1.336346e+02  -1.054034e+01
   4.222771e+01   2.606338e+01
  -5.463960e+01  -3.097265e+01
  -1.977954e+01  -9.790298e+01
   9.976387e+01  -7.505548e+01
   1.364302e+02   1.480528e+01
   4.118047e+01   6.042092e+01
  -6.010555e+01   1.450448e+01
  -3.544455e+01  -5.228604e+01
   9.545974e+01  -5.703253e+01
   2.026229e+02   1.032138e+01
   1.812403e+02   1.096849e+02
   3.287775e+01   1.876333e+02
  -1.426526e+02   1.866594e+02
  -2.126379e+02   8.422955e+01
  -1.248139e+02  -4.708503e+01
   2.372391e+01  -8.438479e+01
   7.199852e+01  -1.520779e+00
  -2.658557e+01   8.006252e+01
  -1.510325e+02   4.067219e+01
  -1.587125e+02  -8.544840e+01
  -4.379993e+01  -1.593458e+02
   7.744394e+01  -1.130379e+02
   1.076132e+02  -1.403559e+01
   4.934081e+01   3.334960e+01
  -2.106732e+01  -4.421549e-01
  -2.445200e+01  -6.277640e+01
   5.609735e+01  -7.939195e+01
   1.465037e+02  -1.324747e+01
   1.379555e+02   9.846174e+01
   8.057913e+00   1.629579e+02
  -1.308219e+02   1.149705e+02
  -1.470892e+02  -5.292364e+00
  -4.304358e+01  -9.035518e+01
   5.813181e+01  -8.038326e+01
   6.650794e+01  -1.694815e+01
   1.296751e+01   2.188443e+01
  -1.706366e+01   1.265655e+01
   8.147490e+00  -5.198586e+00
   5.183946e+01   1.119797e+01
   6.028089e+01   6.616142e+01
   3.732578e+00   1.188348e+02
  -9.905308e+01   1.089042e+02
  -1.741035e+02   9.938746e+00
  -1.451658e+02  -1.200664e+02
  -2.192695e+01  -1.802729e+02
   8.851809e+01  -1.209162e+02
   1.011205e+02  -1.144796e+01
   4.653096e+01   4.768255e+01
   1.587333e+01   2.709084e+01
   3.998575e+01  -1.023371e+01
   5.922921e+01  -3.460138e+00
   2.806521e+01   3.717063e+01
  -3.594780e+01   6.130116e+01
  -7.521208e+01   3.368902e+01
  -5.878648e+01  -2.918698e+01
   1.421611e+01  -7.674454e+01
   1.041795e+02  -5.469667e+01
   1.408793e+02   4.435028e+01
   6.752759e+01   1.477750e+02
  -8.500528e+01   1.605474e+02
  -2.009030e+02   5.986496e+01
  -1.872311e+02  -7.262797e+01
  -7.219367e+01  -1.326653e+02
   3.555734e+01  -1.052934e+02
   7.239796e+01  -5.868767e+01
   5.895703e+01  -4.960344e+01
   5.094339e+01  -6.576843e+01
   7.135041e+01  -5.218363e+01
   9.440926e+01   1.992912e+01
   8.171351e+01   1.169742e+02
   1.434584e+01   1.683002e+02
  -7.851462e+01   1.252601e+02
  -1.308399e+02   9.731108e+00
  -9.748848e+01  -9.605861e+01
  -8.851398e+00  -1.201574e+02
   5.365261e+01  -6.551091e+01
   4.513501e+01   3.060099e+00
   2.574024e+00   3.181848e+01
  -8.237817e+00   2.400056e+01
   2.651354e+01   1.444156e+01
   5.652361e+01   2.083395e+01
   2.981225e+01   3.083343e+01
  -4.803754e+01   2.448298e+01
  -1.135184e+02  -4.100378e+00
  -1.009238e+02  -4.226150e+01
  -8.542718e+00  -6.440288e+01
   8.913561e+01  -4.937572e+01
   1.058454e+02  -4.675170e+00
   3.428271e+01   3.191535e+01
  -4.541234e+01   2.569186e+01
  -5.515691e+01  -1.653525e+01
  -2.714124e+00  -5.052745e+01
   4.390986e+01  -4.021864e+01
   4.632369e+01   3.931255e+00
   2.876685e+01   3.850767e+01
   2.812304e+01   3.238398e+01
   4.343849e+01   3.612666e+00
   4.785051e+01   1.841506e+00
   2.337352e+01   4.849927e+01
  -2.759145e+01   1.032961e+02
  -8.719587e+01   9.841698e+01
  -1.185098e+02   1.859074e+01
  -8.565940e+01  -7.012923e+01
  -6.333356e-01  -8.999180e+01
   6.400489e+01  -3.799158e+01
   4.144018e+01   1.556342e+01
  -4.612535e+01   1.175308e+01
  -9.973965e+01  -3.984416e+01
  -5.104375e+01  -8.279865e+01
   6.419408e+01  -7.888844e+01
   1.417234e+02  -3.044751e+01
   1.174451e+02   3.036011e+01
   2.417329e+01   6.549473e+01
  -4.743069e+01   5.141845e+01
  -3.739459e+01   5.039441e+00
   2.793774e+01  -1.974032e+01
   6.539489e+01   1.720761e+01
   2.023801e+01   8.726029e+01
  -7.323944e+01   1.100777e+02
  -1.260899e+02   3.885871e+01
  -8.814190e+01  -7.993549e+01
   3.039053e+00  -1.451276e+02
   7.046353e+01  -1.000366e+02
   7.555911e+01   1.150783e+01
   3.741193e+01   8.942661e+01
  -7.020010e+00   7.740457e+01
  -3.477465e+01   1.265079e+01
  -3.758387e+01  -2.469892e+01
  -1.990616e+01  -7.577798e+00
  -4.241891e+00   1.400962e+01
  -1.378175e+01  -1.273759e+01
  -3.668813e+01  -6.760167e+01
  -2.651102e+01  -8.191296e+01
   3.620738e+01  -3.092529e+01
   1.002224e+02   3.503421e+01
   9.191382e+01   5.740977e+01
   9.044263e+00   3.664187e+01
  -6.701520e+01   1.189288e+01
  -6.457552e+01   1.071413e+00
  -5.332220e+00  -7.133012e+00
   3.100569e+01  -1.580334e+01
   1.120292e+01  -1.242341e+01
  -1.633411e+01   1.360093e+00
   4.189909e+00   7.262177e+00
   5.580530e+01   5.034031e+00
   6.743146e+01   2.131313e+01
   2.897469e+00   6.168656e+01
  -9.248602e+01   8.171180e+01
  -1.393117e+02   3.534605e+01
  -1.016065e+02  -5.743032e+01
  -1.259549e+01  -1.210196e+02
   6.385311e+01  -1.053098e+02
   8.639716e+01  -3.636366e+01
   5.866149e+01   1.921414e+01
   1.647137e+01   2.618452e+01
  -3.849465e+00   6.175900e+00
   6.099442e+00   3.866638e+00
   2.233799e+01   3.472344e+01
   1.357270e+01   6.618537e+01
  -2.463784e+01   5.060928e+01
  -5.985397e+01  -1.778641e+01
  -5.218054e+01  -8.399638e+01
   3.529867e+00  -8.359717e+01
   6.414031e+01  -1.353061e+01
   7.368096e+01   6.131821e+01
   1.849340e+01   7.823181e+01
  -5.176949e+01   3.748918e+01
  -7.017660e+01  -1.335925e+01
  -2.456791e+01  -3.760660e+01
   2.709092e+01  -3.425222e+01
   2.298599e+01  -1.724371e+01
  -2.682827e+01   3.178411e-01
  -5.217645e+01   2.476669e+00
  -1.017979e+01  -1.900519e+01
   6.010205e+01  -4.550480e+01
   8.571005e+01  -3.839138e+01
   4.493942e+01   1.151154e+01
  -1.514244e+01   6.013283e+01
  -4.162645e+01   5.541916e+01
  -2.708813e+01   1.830452e+00
   1.061234e+00  -4.060604e+01
   2.044693e+01  -2.914152e+01
   2.535693e+01   1.593239e+01
   1.580356e+01   4.019872e+01
  -5.224445e+00   2.238198e+01
  -2.440705e+01  -8.985721e+00
  -2.685302e+01  -1.749971e+01
  -1.364253e+01  -1.218114e+00
  -3.775775e-01   1.090880e+01
   3.816159e+00  -2.164870e+00
   6.536863e+00  -2.767248e+01
   1.581112e+01  -3.282352e+01
   2.557051e+01  -3.401753e+00
   1.962420e+01   3.685261e+01
  -6.470248e+00   4.683165e+01
  -3.552579e+01   1.310498e+01
  -4.049738e+01  -3.329823e+01
  -7.811993e+00  -4.898858e+01
   4.204822e+01  -2.314906e+01
   6.509302e+01   1.566109e+01
   3.468914e+01   3.499549e+01
  -2.280513e+01   2.893666e+01
  -4.897824e+01   1.315739e+01
  -1.807705e+01   2.767181e+00
   2.781896e+01   3.370939e+00
   2.740119e+01   1.364451e+01
  -2.476768e+01   2.255808e+01
  -6.934519e+01   1.098758e+01
