
 $NMID
 id='ANONYMOUS ', fmtdat='(2E16.6)'
 volume=1.0
 tramp=1.0
 $END
   3.979949e+03  -9.357013e+01
   2.457987e+03   2.219628e+03
  -6.433020e+02   2.565464e+03
  -1.763931e+03   1.078308e+03
  -1.051211e+03  -4.672261e+02
   4.302923e+02  -4.774116e+02
   8.585793e+02   3.691767e+02
   6.169607e+01   8.652305e+02
  -7.335550e+02   7.936682e+02
  -8.326518e+02  -5.926277e+01
  -4.508215e+02  -7.447400e+02
   1.422028e+02  -8.617982e+02
   5.539711e+02  -1.498389e+02
   2.882062e+02   5.873066e+02
  -2.282657e+02   7.185569e+02
  -5.192263e+02   3.398033e+01
  -2.651582e+02  -5.755287e+02
   2.255271e+02  -5.795631e+02
   4.736700e+02  -1.782598e+02
   3.541639e+02   2.633847e+02
   2.235080e+01   3.757541e+02
  -2.453732e+02   2.338233e+02
  -2.141160e+02   2.100983e+01
   1.448539e+02  -7.865401e+01
   4.346298e+02   9.849639e+01
   2.060193e+02   4.175337e+02
  -4.395820e+02   4.015831e+02
  -7.865233e+02  -8.420160e+01
  -4.291734e+02  -5.201731e+02
   3.486648e+02  -4.287781e+02
   7.147158e+02   3.530778e+01
   3.428258e+02   4.449367e+02
  -2.501969e+02   4.846972e+02
  -5.217718e+02   2.105575e+02
  -4.004105e+02  -1.982766e+02
  -9.636963e+01  -4.430223e+02
   2.044398e+02  -2.788751e+02
   1.784008e+02   2.110547e+02
  -1.557265e+02   4.345969e+02
  -4.551897e+02   1.796073e+00
  -2.527399e+02  -6.859123e+02
   3.190805e+02  -7.071080e+02
   5.978618e+02   1.757712e+00
   2.478440e+02   5.596699e+02
  -2.973128e+02   3.211258e+02
  -3.820991e+02  -3.125078e+02
   6.733141e+01  -5.382319e+02
   5.360906e+02  -1.382310e+02
   5.773023e+02   3.761172e+02
   1.754320e+02   5.394275e+02
  -3.506089e+02   3.325169e+02
  -6.048115e+02  -5.264002e+01
  -3.701693e+02  -3.504631e+02
   1.461657e+02  -3.494801e+02
   4.332947e+02  -5.916192e+01
   2.286163e+02   1.873037e+02
  -1.226088e+02   1.017272e+02
  -1.392284e+02  -1.569370e+02
   1.596516e+02  -1.901752e+02
   3.216395e+02   6.677900e+01
   1.194708e+02   2.855365e+02
  -1.915765e+02   2.435899e+02
  -2.942495e+02   6.938220e+01
  -1.798759e+02  -7.115719e+01
   1.521846e-01  -2.021410e+02
   1.781611e+02  -3.158349e+02
   3.109650e+02  -2.263630e+02
   2.842395e+02   1.184133e+02
   7.617496e+01   4.146152e+02
  -1.180823e+02   3.608950e+02
  -1.149808e+02   9.476596e+01
  -9.083660e+00  -1.347707e+01
  -2.968054e+01   1.001276e+02
  -1.937577e+02   1.433528e+02
  -2.875562e+02  -4.853756e+01
  -1.697427e+02  -2.735096e+02
   6.367672e+01  -2.598466e+02
   2.218182e+02  -1.865072e+01
   2.014759e+02   2.268587e+02
   6.044615e+00   2.837244e+02
  -2.460774e+02   1.260249e+02
  -3.525076e+02  -1.407054e+02
  -1.962434e+02  -3.304329e+02
   8.303230e+01  -2.991934e+02
   2.125498e+02  -1.172405e+02
   1.372561e+02   4.797688e+00
   8.275459e+01  -2.867411e+01
   2.123336e+02  -8.074534e+01
   3.790000e+02   2.360115e+01
   3.242117e+02   2.548545e+02
   1.288447e+01   4.257441e+02
  -3.270619e+02   4.027310e+02
  -4.557263e+02   2.002114e+02
  -3.198932e+02  -8.527922e+01
  -5.935494e+01  -2.839821e+02
   1.203313e+02  -2.436574e+02
   8.209284e+01  -2.501102e+01
  -9.977204e+01   1.095610e+02
  -1.897324e+02  -2.173663e+00
  -5.212402e+01  -1.901032e+02
   1.536459e+02  -1.723949e+02
   1.752843e+02   5.767002e+01
  -1.198426e+01   1.901759e+02
  -1.827041e+02   3.897924e+01
  -1.607065e+02  -2.295722e+02
   1.801522e+01  -3.277764e+02
   2.058014e+02  -1.838754e+02
   3.055874e+02   4.860169e+01
   2.711150e+02   2.118792e+02
   9.986330e+01   2.462795e+02
  -1.084675e+02   1.590194e+02
  -1.759462e+02   2.413196e+01
  -5.562990e+01  -3.713175e+01
   7.673743e+01   2.810435e+01
   3.860279e+01   1.210538e+02
  -1.175633e+02   1.052551e+02
  -1.768691e+02  -5.779486e+00
  -6.032797e+01  -7.246267e+01
   7.792346e+01  -2.390026e+01
   6.075916e+01   6.528880e+01
  -1.056158e+02   8.714319e+01
  -2.600509e+02   1.341554e+01
  -2.542468e+02  -1.164933e+02
  -7.205050e+01  -2.352228e+02
   1.615599e+02  -2.547970e+02
   2.682485e+02  -1.309181e+02
   1.674515e+02   4.784863e+01
  -2.376401e+01   1.121425e+02
  -9.657135e+01   1.105666e+01
   2.180406e+01  -1.060349e+02
   1.868903e+02  -7.185230e+01
   2.124053e+02   8.813765e+01
   7.553886e+01   1.983841e+02
  -8.581475e+01   1.557105e+02
  -1.375615e+02   3.105673e+01
  -6.760853e+01  -4.183536e+01
   3.043050e+01  -8.216872e+00
   4.485281e+01   7.665064e+01
  -5.809590e+01   1.142205e+02
  -1.853087e+02   4.156192e+01
  -1.887289e+02  -1.059395e+02
  -3.072315e+01  -2.067243e+02
   1.508483e+02  -1.627753e+02
   1.850858e+02  -1.105353e+01
   6.454765e+01   1.099740e+02
  -6.326366e+01   1.099026e+02
  -8.148712e+01   3.022981e+01
  -1.921221e+01  -2.848195e+01
   2.221410e+01  -2.399043e+01
  -3.899406e+00   5.751254e+00
  -6.252587e+01  -5.474140e-01
  -8.618931e+01  -6.484462e+01
  -2.529450e+01  -1.444522e+02
   1.084278e+02  -1.524593e+02
   2.203913e+02  -3.944164e+01
   2.001516e+02   1.328032e+02
   4.832336e+01   2.274460e+02
  -1.008293e+02   1.673701e+02
  -1.308348e+02   2.652736e+01
  -6.759101e+01  -5.559098e+01
  -2.412201e+01  -3.508952e+01
  -4.454887e+01   1.410396e+01
  -6.985708e+01   1.102669e+01
  -3.867686e+01  -4.059346e+01
   3.411069e+01  -8.017075e+01
   8.761553e+01  -5.428516e+01
   7.741963e+01   2.702953e+01
  -5.716044e+00   1.013866e+02
  -1.265223e+02   8.671753e+01
  -1.872437e+02  -3.694968e+01
  -1.049090e+02  -1.840745e+02
   8.941155e+01  -2.215549e+02
   2.476666e+02  -1.044075e+02
   2.455537e+02   6.966891e+01
   1.076398e+02   1.629176e+02
  -3.244798e+01   1.400443e+02
  -8.496002e+01   7.961041e+01
  -6.926964e+01   6.304175e+01
  -5.522248e+01   8.363476e+01
  -8.023241e+01   7.347756e+01
  -1.193105e+02  -1.149654e+01
  -1.174759e+02  -1.360634e+02
  -3.860276e+01  -2.108452e+02
   8.638581e+01  -1.678408e+02
   1.667246e+02  -2.750714e+01
   1.349758e+02   1.108123e+02
   2.388701e+01   1.529748e+02
  -6.185727e+01   9.251121e+01
  -5.913770e+01   3.315499e+00
  -8.518006e+00  -4.189093e+01
   7.718451e+00  -3.491569e+01
  -3.306170e+01  -1.592103e+01
  -7.268383e+01  -1.633761e+01
  -4.351460e+01  -3.205680e+01
   5.499410e+01  -3.667993e+01
   1.443954e+02  -1.022084e+01
   1.353319e+02   4.070890e+01
   1.901341e+01   8.071532e+01
  -1.088976e+02   7.270800e+01
  -1.352161e+02   1.737980e+01
  -4.674080e+01  -3.673095e+01
   5.540516e+01  -3.772795e+01
   7.264877e+01   1.350013e+01
   1.142942e+01   6.161002e+01
  -4.777272e+01   5.545426e+01
  -5.786574e+01   2.114525e+00
  -4.313285e+01  -4.330868e+01
  -4.198242e+01  -3.751219e+01
  -5.532448e+01  -5.448068e-01
  -5.882889e+01   3.562351e+00
  -3.502637e+01  -5.746179e+01
   2.173880e+01  -1.333296e+02
   9.842248e+01  -1.350887e+02
   1.482555e+02  -3.839153e+01
   1.157106e+02   7.778605e+01
   8.653259e+00   1.138447e+02
  -7.884657e+01   5.634736e+01
  -5.482106e+01  -1.519970e+01
   5.785941e+01  -2.250100e+01
   1.326850e+02   3.488788e+01
   7.617191e+01   9.625198e+01
  -7.043892e+01   1.072257e+02
  -1.754539e+02   5.685986e+01
  -1.522317e+02  -2.378506e+01
  -3.758556e+01  -7.974211e+01
   5.494234e+01  -6.966666e+01
   4.717711e+01  -9.718597e+00
  -3.313024e+01   2.762203e+01
  -8.452425e+01  -1.569760e+01
  -3.525717e+01  -1.082015e+02
   7.938762e+01  -1.459471e+02
   1.540200e+02  -6.242959e+01
   1.213973e+02   9.091444e+01
   1.498216e+01   1.845318e+02
  -7.719221e+01   1.372550e+02
  -1.000122e+02  -3.267900e+00
  -6.179807e+01  -1.093804e+02
  -2.239662e+00  -1.017794e+02
   4.263740e+01  -2.210374e+01
   5.058883e+01   2.741823e+01
   2.543408e+01   7.898431e+00
   3.460349e+00  -1.983347e+01
   2.000864e+01   1.169803e+01
   5.538269e+01   8.000404e+01
   4.357739e+01   1.018289e+02
  -4.210965e+01   4.555395e+01
  -1.310676e+02  -3.175569e+01
  -1.243326e+02  -6.277582e+01
  -1.762625e+01  -4.685164e+01
   8.286305e+01  -2.403542e+01
   8.364626e+01  -9.423648e+00
   1.043783e+01   8.258135e+00
  -3.676407e+01   2.430278e+01
  -1.468471e+01   1.854146e+01
   1.851042e+01  -2.789626e+00
  -5.628688e+00  -9.667251e+00
  -6.856310e+01  -1.248753e+00
  -8.580195e+01  -1.769403e+01
  -1.194283e+01  -7.283028e+01
   1.035144e+02  -1.100239e+02
   1.671270e+02  -6.180907e+01
   1.317113e+02   5.565727e+01
   2.962980e+01   1.471547e+02
  -6.620031e+01   1.395897e+02
  -1.020090e+02   5.692862e+01
  -7.478699e+01  -1.708144e+01
  -2.459194e+01  -3.131861e+01
   2.335691e+00  -7.795514e+00
  -9.595287e+00  -3.437275e+00
  -3.263274e+01  -4.119535e+01
  -2.470816e+01  -8.258698e+01
   2.473670e+01  -6.764486e+01
   7.656320e+01   1.407169e+01
   7.515719e+01   9.765472e+01
   6.805444e+00   1.038085e+02
  -7.656219e+01   2.431637e+01
  -9.815544e+01  -6.723421e+01
  -3.263657e+01  -9.499030e+01
   6.006965e+01  -5.293415e+01
   9.102042e+01   8.328197e+00
   3.785576e+01   4.507689e+01
  -2.895128e+01   4.789883e+01
  -2.854734e+01   2.656558e+01
   3.092392e+01  -1.344117e+00
   6.391685e+01  -8.344509e+00
   1.503336e+01   2.239348e+01
  -7.091012e+01   6.341844e+01
  -1.046637e+02   5.837473e+01
  -5.883526e+01  -8.367763e+00
   1.212311e+01  -7.729994e+01
   4.527329e+01  -7.557472e+01
   3.212546e+01  -6.549342e+00
   1.942300e+00   5.153444e+01
  -2.228447e+01   3.991840e+01
  -3.331126e+01  -1.690152e+01
  -2.522331e+01  -4.990726e+01
   2.255140e+00  -3.071228e+01
   3.143715e+01   6.941042e+00
   3.729977e+01   1.860877e+01
   1.832528e+01   1.137246e+00
  -2.112387e+00  -1.207744e+01
  -6.951309e+00   2.930664e+00
  -5.402303e+00   3.245783e+01
  -1.394730e+01   3.964730e+01
  -2.895740e+01   6.572646e+00
  -2.802620e+01  -4.113554e+01
   1.513861e+00  -5.659364e+01
   4.151904e+01  -2.029730e+01
   5.422753e+01   3.515884e+01
   1.648718e+01   5.912410e+01
  -4.827181e+01   3.474681e+01
  -8.208395e+01  -9.861580e+00
  -4.785704e+01  -3.790355e+01
   2.338397e+01  -3.781432e+01
   5.770084e+01  -2.181384e+01
   2.152300e+01  -5.765087e+00
  -3.492260e+01  -1.370406e+00
  -3.555254e+01  -1.371528e+01
   2.796303e+01  -3.023139e+01
   8.520171e+01  -2.146799e+01
