
 $NMID
 id='ANONYMOUS ', fmtdat='(2E16.6)'
 volume=1.0
 tramp=1.0
 $END
   1.215726e+03  -4.055153e+01
   8.785452e+02   5.715876e+02
   1.069153e+02   9.744041e+02
  -3.326979e+02   6.824567e+02
  -5.238566e+02   2.183063e+02
  -2.280168e+02  -1.375442e+02
   1.068449e+02   2.418258e+01
   6.092455e+01   1.789539e+02
  -1.071062e+02   2.582674e+02
  -2.831382e+02   1.355163e+02
  -2.865867e+02  -1.586200e+02
  -5.220597e+00  -2.331345e+02
   3.478835e+01  -1.732354e+02
   1.788562e+01   6.015524e+01
   1.490895e+01   2.192876e+02
  -8.266284e+01   8.619212e+01
  -1.959391e+02  -1.398666e+02
  -2.537975e+01  -3.530980e+02
   1.804680e+02  -2.230424e+02
   2.626138e+02   6.372459e+01
   7.375594e+01   1.903476e+02
  -3.995464e+01   1.168551e+02
  -9.978127e+00   8.013654e+00
   1.187651e+02   4.470997e+01
   1.161363e+02   1.685203e+02
  -4.896758e+01   1.750843e+02
  -2.434271e+02   1.170411e+01
  -2.213520e+02  -1.163124e+02
  -4.779974e+01  -1.072104e+02
   1.148409e+02  -4.342053e-03
   1.640594e+02   8.195550e+01
   4.482429e+01   1.317441e+02
  -1.019011e+02   1.010107e+02
  -1.664319e+02   4.794146e+01
  -1.426791e+02  -5.123845e+01
  -6.597166e+01  -9.257528e+01
  -4.173420e+01  -5.631026e+01
  -6.221670e+01   5.642202e+00
  -5.450092e+01  -3.559622e-01
  -2.670400e+01  -8.821208e+01
   3.139052e+01  -1.737202e+02
   8.681195e+01  -1.381428e+02
   9.064601e+01   1.677800e+00
   1.742199e+01   9.782832e+01
  -4.388474e+01   2.474983e+01
  -4.251381e+01  -1.178849e+02
   7.225915e+01  -1.481399e+02
   1.911501e+02  -1.177559e+01
   2.063597e+02   1.613984e+02
   6.092908e+01   1.959112e+02
  -1.242743e+02   9.666785e+01
  -2.023078e+02  -1.823874e+01
  -1.388602e+02  -6.244222e+01
  -1.004534e+01  -5.338932e+01
   8.137273e+01  -5.301311e+01
   8.619221e+01  -5.000820e+01
   3.740327e+01  -2.345808e+01
   6.536959e+00   6.559036e+00
   2.822065e+01   1.418736e+01
   6.500479e+01   1.909061e+01
   4.547772e+01   5.777145e+01
  -5.256247e+01   1.050335e+02
  -1.526693e+02   8.257584e+01
  -1.452774e+02  -3.716555e+01
  -1.229898e+01  -1.687153e+02
   1.351538e+02  -1.919126e+02
   1.730674e+02  -8.196424e+01
   1.018926e+02   6.485074e+01
   2.737640e+01   1.403596e+02
   1.799569e+01   1.311368e+02
   3.079373e+01   1.008803e+02
  -7.503561e+00   9.123329e+01
  -9.170499e+01   7.514660e+01
  -1.449041e+02   1.214669e+01
  -1.140031e+02  -7.649199e+01
  -2.547027e+01  -1.161891e+02
   4.892268e+01  -6.892195e+01
   7.113415e+01   2.948605e+01
   4.270053e+01   1.000043e+02
  -2.455679e+01   9.025342e+01
  -1.008282e+02   1.668048e+01
  -1.297746e+02  -7.261276e+01
  -8.274277e+01  -1.208319e+02
   6.752067e+00  -1.165354e+02
   5.893940e+01  -8.312384e+01
   6.346299e+01  -5.880037e+01
   7.414306e+01  -4.917652e+01
   1.387992e+02  -2.769314e+01
   2.009651e+02   3.899877e+01
   1.559126e+02   1.366332e+02
  -1.311341e+01   2.047252e+02
  -1.768629e+02   1.799986e+02
  -2.080338e+02   7.232401e+01
  -1.076780e+02  -4.355286e+01
   3.246221e+00  -9.550022e+01
   2.945918e+01  -6.655819e+01
  -1.925394e+01  -1.593173e+01
  -5.565996e+01  -8.905124e-01
  -3.878342e+01  -2.353235e+01
   9.474880e+00  -4.222780e+01
   3.633786e+01  -1.869810e+01
   1.898461e+01   2.726139e+01
  -2.711798e+01   3.666521e+01
  -6.699134e+01  -1.830761e+01
  -6.316781e+01  -1.067539e+02
   5.192521e+00  -1.518226e+02
   1.081518e+02  -1.002441e+02
   1.693509e+02   2.093260e+01
   1.302567e+02   1.174085e+02
   2.350381e+01   1.232109e+02
  -5.837751e+01   5.643211e+01
  -5.678987e+01  -1.344302e+00
  -3.859641e+00   4.098512e-01
   2.162776e+01   3.821501e+01
  -1.071875e+01   5.117952e+01
  -5.623105e+01   1.991797e+01
  -5.468746e+01  -1.723134e+01
  -2.685175e+00  -1.637421e+01
   3.820398e+01   1.971540e+01
   9.476697e+00   4.984035e+01
  -7.693791e+01   3.859500e+01
  -1.415366e+02  -1.476701e+01
  -1.134585e+02  -7.900019e+01
  -4.875682e+00  -1.144614e+02
   9.557982e+01  -9.768322e+01
   1.103627e+02  -4.018583e+01
   4.712342e+01   1.473394e+01
  -1.807621e+01   2.564956e+01
  -2.159016e+01  -5.124014e+00
   3.055708e+01  -3.117899e+01
   7.931528e+01  -1.047703e+01
   7.474896e+01   4.295592e+01
   2.046776e+01   7.329575e+01
  -3.417565e+01   4.915515e+01
  -4.311638e+01   2.210312e+00
  -7.291282e+00  -1.095575e+01
   2.513877e+01   2.412153e+01
   7.492537e+00   6.367543e+01
  -5.417551e+01   5.733889e+01
  -1.009093e+02   1.585654e+00
  -8.059531e+01  -6.254078e+01
  -3.531645e+00  -8.841188e+01
   6.427042e+01  -6.253101e+01
   6.801936e+01  -9.149470e+00
   1.807796e+01   3.194053e+01
  -2.593425e+01   3.456343e+01
  -2.294187e+01   9.553290e+00
   1.075034e+01  -8.476370e+00
   2.380419e+01   1.316457e+00
  -6.589707e+00   1.849621e+01
  -5.108657e+01   5.240495e+00
  -5.682663e+01  -4.416866e+01
  -4.877717e+00  -8.606432e+01
   7.037642e+01  -7.195724e+01
   1.100975e+02  -1.688657e+00
   8.518872e+01   7.334236e+01
   1.711196e+01   9.941322e+01
  -4.188838e+01   6.869782e+01
  -5.585807e+01   1.644635e+01
  -3.519955e+01  -1.237664e+01
  -1.936469e+01  -8.126295e+00
  -2.802393e+01   6.699108e+00
  -4.358360e+01   2.899759e-01
  -2.892253e+01  -3.113081e+01
   1.930207e+01  -5.447615e+01
   6.269197e+01  -3.432816e+01
   5.459176e+01   2.307396e+01
  -9.863983e+00   6.686853e+01
  -8.160499e+01   4.530336e+01
  -9.694223e+01  -3.256837e+01
  -3.586381e+01  -1.011913e+02
   5.909359e+01  -1.001368e+02
   1.167438e+02  -3.578384e+01
   1.030316e+02   3.692989e+01
   4.176498e+01   6.646150e+01
  -1.295457e+01   5.404144e+01
  -2.988085e+01   3.393589e+01
  -2.167461e+01   3.521962e+01
  -1.980599e+01   4.804036e+01
  -3.854763e+01   4.103503e+01
  -6.078374e+01  -2.707525e+00
  -5.671910e+01  -6.388649e+01
  -1.626816e+01  -9.789313e+01
   4.022185e+01  -7.351294e+01
   7.212716e+01  -4.868972e+00
   5.378200e+01   5.677739e+01
   1.642843e+00   6.815126e+01
  -3.669505e+01   3.156163e+01
  -2.945391e+01  -1.253183e+01
   4.638858e+00  -2.823153e+01
   1.701846e+01  -1.628134e+01
  -1.065351e+01  -3.488059e+00
  -4.092368e+01  -7.800793e+00
  -2.395253e+01  -2.060515e+01
   3.836424e+01  -2.021983e+01
   8.576925e+01   1.591008e+00
   6.627300e+01   3.126978e+01
  -5.127396e+00   4.581845e+01
  -6.366363e+01   3.331847e+01
  -6.308412e+01   2.269790e+00
  -1.721253e+01  -2.306005e+01
   2.570167e+01  -2.096171e+01
   3.416103e+01   6.891096e+00
   1.241242e+01   3.365557e+01
  -1.557629e+01   3.214956e+01
  -3.077827e+01   3.766738e+00
  -3.045501e+01  -2.081582e+01
  -2.400377e+01  -1.676881e+01
  -2.424934e+01   3.058854e+00
  -3.195981e+01   2.011421e+00
  -2.834750e+01  -3.478834e+01
   4.871323e+00  -7.498949e+01
   5.816061e+01  -7.215296e+01
   8.893877e+01  -1.875818e+01
   6.412335e+01   4.230395e+01
   1.630243e-01   6.161804e+01
  -4.471116e+01   3.313125e+01
  -2.832986e+01  -4.069156e+00
   2.857615e+01  -1.005054e+01
   6.230975e+01   1.705304e+01
   3.281964e+01   4.644546e+01
  -3.585637e+01   4.835281e+01
  -8.218588e+01   2.056176e+01
  -6.817973e+01  -1.525571e+01
  -1.359553e+01  -3.316575e+01
   2.718676e+01  -2.269754e+01
   2.015504e+01   3.610278e+00
  -1.974118e+01   1.639727e+01
  -4.551956e+01  -6.124544e+00
  -2.578531e+01  -5.139430e+01
   2.580772e+01  -7.451346e+01
   6.498543e+01  -4.031996e+01
   5.861289e+01   3.310356e+01
   1.399297e+01   8.194243e+01
  -3.097963e+01   6.091456e+01
  -4.348696e+01  -6.316457e+00
  -2.211105e+01  -5.260133e+01
   8.431709e+00  -4.214620e+01
   2.263169e+01  -3.657594e+00
   1.586999e+01   1.323141e+01
   3.794157e+00   1.342402e-01
   4.805214e+00  -8.344577e+00
   1.972701e+01   1.167162e+01
   2.914847e+01   4.113067e+01
   1.219553e+01   4.530519e+01
  -2.833378e+01   1.862931e+01
  -6.093197e+01  -1.325522e+01
  -5.376866e+01  -2.741377e+01
  -9.659556e+00  -2.413203e+01
   3.285667e+01  -1.464300e+01
   3.803104e+01  -3.858612e+00
   1.033383e+01   6.396697e+00
  -1.370208e+01   1.001789e+01
  -1.052003e+01   3.894272e+00
   4.315961e+00  -2.833939e+00
  -5.236060e-01   3.448650e-01
  -2.826216e+01   6.253089e+00
  -4.514522e+01  -5.385351e+00
  -1.878505e+01  -3.758068e+01
   4.006090e+01  -6.070861e+01
   8.353176e+01  -4.085659e+01
   7.421925e+01   1.744313e+01
   2.151547e+01   6.918966e+01
  -3.075240e+01   7.348896e+01
  -4.864753e+01   3.506555e+01
  -3.423509e+01  -5.065616e+00
  -1.314051e+01  -1.616194e+01
  -5.151451e+00  -6.230584e+00
  -9.881165e+00  -4.332216e+00
  -1.479455e+01  -2.252945e+01
  -8.641769e+00  -4.161774e+01
   1.176377e+01  -3.427818e+01
   3.566244e+01   2.385184e+00
   4.142829e+01   4.102611e+01
   1.419890e+01   4.963893e+01
  -3.057346e+01   2.090848e+01
  -5.241915e+01  -2.166672e+01
  -2.584058e+01  -4.521586e+01
   2.565685e+01  -3.452258e+01
   4.997293e+01  -1.431247e+00
   2.509931e+01   2.738530e+01
  -1.462994e+01   3.194206e+01
  -2.087187e+01   1.409449e+01
   8.690971e+00  -5.733181e+00
   2.972759e+01  -6.608427e+00
   9.051443e+00   1.290161e+01
  -3.462404e+01   3.139647e+01
  -5.505013e+01   2.459465e+01
  -3.414214e+01  -8.633987e+00
   3.670050e+00  -4.099483e+01
   2.532837e+01  -4.214625e+01
   2.258135e+01  -1.130262e+01
   8.083839e+00   2.148634e+01
  -6.175040e+00   2.545959e+01
  -1.525675e+01   1.102392e+00
  -1.457923e+01  -2.194174e+01
  -1.934793e+00  -2.008859e+01
   1.454967e+01  -1.391366e-01
   1.945795e+01   1.186738e+01
   8.448363e+00   3.233170e+00
  -4.338517e+00  -1.115016e+01
  -3.211289e+00  -8.170204e+00
   6.781970e+00   1.198585e+01
   6.819492e+00   2.606219e+01
  -9.330914e+00   1.454586e+01
  -2.252602e+01  -1.236554e+01
  -1.147980e+01  -2.684900e+01
   1.737678e+01  -1.379761e+01
   3.245959e+01   1.276837e+01
   1.298833e+01   2.735822e+01
  -2.529179e+01   1.968903e+01
  -4.402708e+01  -1.579693e-02
  -2.525666e+01  -1.632311e+01
   1.026367e+01  -2.170989e+01
   2.666243e+01  -1.666980e+01
   1.221731e+01  -5.519361e+00
  -1.092749e+01   3.151109e+00
  -1.378106e+01   1.797410e-01
   7.772289e+00  -1.140379e+01
   3.078583e+01  -1.379047e+01
