
 $NMID
 id='ANONYMOUS ', fmtdat='(2E16.6)'
 volume=1.0
 tramp=1.0
 $END
   2.601825e+02  -5.280227e+00
   1.018230e+02   1.451889e+02
   4.839522e+01   1.538187e+02
  -9.516180e+01   1.239316e+02
  -5.793644e+01   5.425685e+01
  -7.341945e+01   2.035416e+01
  -3.984092e+01  -2.875782e+01
   6.313814e+00  -2.140897e+01
   1.239819e+01  -4.363258e+01
   6.993110e+00   2.589624e+01
  -2.356012e+01   2.759615e+01
  -2.656122e+01   1.552994e+01
  -3.750391e+01  -2.201184e+01
  -1.523555e+01  -2.403711e+01
  -2.894413e+01  -1.540893e+00
  -3.362819e+01   6.877197e+00
  -2.757158e+01  -2.700556e+01
  -1.965978e+01   4.092174e-01
  -1.802927e+01  -6.991487e+01
   8.801639e+00  -2.335780e+01
   2.337621e+01  -3.076206e+01
  -6.112662e+00   2.633207e+01
   2.587619e+01   9.873474e+00
   1.988639e+01   3.454644e+01
   3.827242e+00   7.040787e+00
  -2.432817e+01   1.435788e+01
  -1.992039e+01  -1.330588e+01
   1.475056e+01  -1.521684e+01
   1.233561e-01   1.274641e+00
   2.541301e-01   1.658410e+01
   7.072427e+00  -1.136608e+01
  -1.143113e+01   9.192710e+00
  -1.136045e+01  -1.247045e+00
  -1.077810e+00   2.674690e+01
  -1.349376e+01   2.687657e+00
  -2.030676e+01  -5.348013e+00
  -1.106884e+01  -3.519012e+00
  -1.015452e+01  -1.075362e+01
  -5.931563e+00  -1.420635e+01
   1.893007e+00  -5.669574e+00
   6.422433e-01  -2.073328e+01
   6.419412e+00  -1.153470e+01
  -8.232134e-01  -4.815553e+00
   1.768617e+00   1.373263e+01
  -1.023117e+01  -4.762338e+00
  -6.074279e+00  -1.743374e+01
   1.406704e+01  -2.587292e+01
   3.036504e+01   1.262010e+00
   2.128323e+01   2.026664e+01
   4.590388e+00   1.993959e+01
  -2.008643e+00   1.226925e+01
  -3.255816e+00   1.333600e+01
  -1.059579e+01   1.991299e+01
  -2.119908e+01   1.491976e+01
  -1.861419e+01  -4.151551e+00
  -1.426080e+00  -1.647137e+01
   7.773428e+00  -8.774695e+00
  -9.588040e-02   5.173851e+00
  -8.123764e+00   4.377102e+00
   5.507680e-01  -6.878067e+00
   1.514490e+01  -6.327140e+00
   1.170247e+01   1.074155e+01
  -8.932345e+00   2.183832e+01
  -2.121178e+01   1.012379e+01
  -1.116462e+01  -1.195194e+01
   5.625454e+00  -2.124772e+01
   1.123960e+01  -1.490942e+01
   9.743722e+00  -8.537595e+00
   1.562506e+01  -4.804018e+00
   2.668469e+01   6.283939e+00
   2.527189e+01   2.536608e+01
   4.856788e+00   3.602166e+01
  -1.888143e+01   2.623737e+01
  -2.746236e+01   5.707096e+00
  -2.025530e+01  -1.040398e+01
  -8.350199e+00  -1.517412e+01
   4.324765e-01  -1.247635e+01
   7.093282e+00  -5.178344e+00
   1.046934e+01   3.138110e+00
   6.867118e+00   8.115056e+00
  -3.158724e+00   7.280151e+00
  -1.260522e+01   4.435894e+00
  -1.689543e+01  -3.720529e+00
  -9.881624e+00  -9.205827e+00
  -2.375640e+00  -1.481067e+01
   3.137740e+00  -1.048985e+01
   6.397325e+00  -1.043169e+01
   1.273795e+01  -1.017537e+01
   1.937850e+01  -1.058184e+01
   2.421985e+01   3.401448e+00
   1.351340e+01   2.130213e+01
  -4.779326e+00   2.833092e+01
  -1.736450e+01   1.970616e+01
  -1.398288e+01   5.391889e-01
  -7.731346e+00  -9.707775e+00
  -3.228183e+00  -5.722585e+00
  -6.285934e+00  -3.584825e+00
  -5.737857e-01  -5.366075e+00
   4.811769e+00  -2.289040e+00
   6.409528e+00   6.079737e+00
  -2.132162e-01   9.820323e+00
  -7.807692e+00   5.737103e+00
  -1.016093e+01  -6.162819e-01
  -1.015170e+01  -3.755594e+00
  -1.504994e+01  -5.659055e+00
  -1.317392e+01  -1.321146e+01
   7.452421e-01  -2.038705e+01
   1.984010e+01  -1.829907e+01
   2.572508e+01  -3.891512e+00
   1.612248e+01   9.828464e+00
   7.672705e-01   1.354046e+01
  -5.832146e+00   9.169007e+00
  -4.190187e+00   5.170343e+00
  -5.652017e-01   2.893027e+00
   7.734912e-01   1.218319e+00
  -2.527221e-01  -1.192066e+00
  -6.702962e-01  -2.002176e+00
   1.281141e+00   6.470548e-01
   3.311488e+00   4.708967e+00
   2.221642e+00   7.633080e+00
  -3.889624e+00   7.705246e+00
  -1.083518e+01   5.087589e+00
  -1.242656e+01   1.132454e+00
  -8.135277e+00  -3.952552e+00
  -2.218237e+00  -8.861363e+00
   9.394492e-01  -1.115367e+01
   1.639677e+00  -8.539620e+00
   1.577682e+00  -1.846747e+00
   1.035600e+00   2.886817e+00
   4.732603e-01   1.005159e+00
   1.113980e+00  -3.441420e+00
   3.087711e+00  -4.530929e+00
   3.651162e+00  -1.020374e+00
   1.384252e+00   1.018331e+00
  -5.683871e-01  -1.420096e+00
   1.463967e+00  -2.884516e+00
   5.839270e+00   7.813307e-01
   6.377854e+00   6.778979e+00
   9.375573e-01   8.419431e+00
  -5.510769e+00   5.167880e+00
  -7.436089e+00   7.543491e-01
  -4.914448e+00  -2.174042e+00
  -1.585898e+00  -4.199149e+00
   1.873481e-01  -4.908772e+00
   8.376324e-01  -2.651572e+00
   1.122537e+00   1.138878e+00
   1.222743e+00   1.522144e+00
   2.344462e+00  -7.744137e-01
   2.826066e+00  -1.212345e+00
   6.795493e-01   3.352892e+00
  -4.080132e+00   5.632538e+00
  -7.957530e+00   1.263013e+00
  -6.850867e+00  -8.182030e+00
   2.084624e-01  -1.172495e+01
   8.002125e+00  -7.891694e+00
   1.200423e+01   1.027835e-01
   9.469008e+00   6.647980e+00
   3.447491e+00   8.812013e+00
  -3.214076e+00   6.601680e+00
  -6.010885e+00   4.309715e+00
  -5.985687e+00   1.161008e+00
  -3.724308e+00  -1.050468e-01
  -4.656266e+00  -8.252345e-01
  -3.796512e+00  -3.510718e+00
   8.542312e-01  -7.736423e+00
   6.860633e+00  -7.509619e+00
   8.812472e+00   7.559643e-02
   4.441127e+00   9.150461e+00
  -5.022265e+00   1.123744e+01
  -1.012628e+01   4.184496e+00
  -8.975341e+00  -4.806014e+00
  -1.632484e+00  -9.909229e+00
   4.191352e+00  -8.229069e+00
   7.552941e+00  -3.608785e+00
   5.944582e+00   5.752299e-01
   3.412698e+00   2.847726e+00
   1.467577e+00   3.941034e+00
   1.241725e+00   4.289356e+00
   1.843068e+00   5.030366e+00
   1.161693e-01   6.320438e+00
  -4.427130e+00   5.351766e+00
  -8.839718e+00   2.013957e-01
  -8.752383e+00  -6.712240e+00
  -2.675252e+00  -9.990997e+00
   5.648756e+00  -6.170178e+00
   9.393067e+00   1.487073e+00
   5.304051e+00   6.528873e+00
  -2.210453e+00   5.288695e+00
  -5.145291e+00   2.569278e-02
  -1.490973e+00  -3.658453e+00
   2.443811e+00  -2.891830e+00
   3.086509e-01   3.110613e-01
  -4.628069e+00   1.283227e+00
  -3.968588e+00  -1.512543e+00
   3.904792e+00  -4.779062e+00
   1.041156e+01  -3.794444e+00
   8.247493e+00   1.655391e+00
   1.474061e-01   6.875306e+00
  -5.681803e+00   7.414471e+00
  -6.074334e+00   3.146303e+00
  -3.598594e+00  -1.927647e+00
  -7.241486e-01  -4.377728e+00
   2.348218e+00  -2.656768e+00
   4.386181e+00   1.286986e+00
   2.486962e+00   4.147681e+00
  -3.046264e+00   3.318561e+00
  -6.392497e+00   2.290567e-01
  -4.128905e+00  -1.553191e+00
  -2.150479e-01  -7.090434e-02
  -8.455790e-01   1.472706e+00
  -5.251815e+00  -4.760548e-01
  -5.832489e+00  -6.837886e+00
   1.219971e+00  -1.106618e+01
   1.010421e+01  -8.227979e+00
   1.119528e+01   1.204160e+00
   3.607944e+00   8.825661e+00
  -4.210066e+00   8.550474e+00
  -5.176824e+00   1.790880e+00
   1.863933e-01  -3.534669e+00
   4.735308e+00  -2.873390e+00
   3.993087e+00   1.756433e+00
  -9.597393e-01   5.030793e+00
  -5.079569e+00   4.409262e+00
  -5.257495e+00   6.744115e-01
  -1.979763e+00  -2.425269e+00
   1.562191e+00  -2.612999e+00
   2.847173e+00   8.236232e-01
   1.940561e-01   5.076526e+00
  -5.558030e+00   5.046350e+00
  -9.871598e+00  -1.654213e+00
  -7.638051e+00  -1.046748e+01
   1.043526e+00  -1.256712e+01
   9.442339e+00  -4.634118e+00
   9.756475e+00   5.478369e+00
   2.359046e+00   7.693802e+00
  -4.697899e+00   1.576524e+00
  -4.374760e+00  -4.385376e+00
   7.235587e-01  -3.759348e+00
   3.257493e+00   4.169957e-01
   7.454852e-01   1.606037e+00
  -2.017111e+00  -7.852664e-01
  -2.507545e-01  -2.590578e+00
   4.348252e+00  -1.145476e+00
   6.584476e+00   1.578952e+00
   3.912762e+00   3.382859e+00
  -1.364746e+00   4.461169e+00
  -5.415877e+00   4.783344e+00
  -6.603995e+00   2.717249e+00
  -4.534689e+00  -2.009039e+00
  -5.510857e-01  -5.504908e+00
   3.000383e+00  -4.258136e+00
   3.295187e+00   5.864977e-02
   4.497385e-01   2.219869e+00
  -1.876050e+00   3.367496e-02
  -4.420680e-01  -2.427148e+00
   2.263150e+00  -3.757127e-01
   1.344754e+00   4.607394e+00
  -3.816870e+00   5.608327e+00
  -7.436634e+00  -8.688787e-01
  -3.988140e+00  -9.385895e+00
   4.109945e+00  -1.161094e+01
   9.519741e+00  -4.998402e+00
   8.135047e+00   4.533973e+00
   2.564840e+00   8.831669e+00
  -1.310181e+00   6.387461e+00
  -1.946032e+00   1.851289e+00
  -1.193308e+00   3.797709e-02
  -1.244093e+00   6.340966e-01
  -1.932662e+00   1.113108e+00
  -2.966798e+00  -4.170518e-02
  -3.629104e+00  -1.989620e+00
  -2.319458e+00  -3.641988e+00
   1.987106e+00  -3.661717e+00
   6.862129e+00  -1.261912e+00
   6.792920e+00   3.286387e+00
  -3.963091e-02   6.480013e+00
  -7.849244e+00   4.374581e+00
  -8.413908e+00  -2.249257e+00
  -1.234947e+00  -7.377553e+00
   5.943502e+00  -5.507552e+00
   5.935210e+00   1.273888e+00
   6.154207e-01   5.311238e+00
  -2.661680e+00   2.825081e+00
  -5.111117e-01  -2.232466e+00
   2.955637e+00  -3.074617e+00
   2.752102e+00   1.431294e+00
  -1.146797e+00   6.014311e+00
  -4.588427e+00   5.656169e+00
  -5.186541e+00   3.819583e-01
  -3.092758e+00  -5.242339e+00
  -1.270471e-01  -6.561903e+00
   2.895310e+00  -3.383735e+00
   4.248413e+00   1.324311e+00
   2.463304e+00   3.953336e+00
  -1.792656e+00   2.817632e+00
  -4.430840e+00  -4.149823e-01
  -2.516836e+00  -2.529452e+00
   1.967271e+00  -1.755808e+00
   3.672305e+00   5.560344e-01
   5.189455e-01   1.263140e+00
  -3.513408e+00  -4.948755e-01
  -2.450132e+00  -2.650737e+00
   2.551231e+00  -2.095342e+00
   5.504400e+00   1.291294e+00
   2.002140e+00   4.168450e+00
  -4.087716e+00   3.049089e+00
  -5.475425e+00  -1.345578e+00
  -5.287637e-01  -4.518314e+00
   5.030857e+00  -3.401900e+00
   5.319700e+00   9.161979e-01
   7.164802e-01   4.713605e+00
  -3.426845e+00   4.890195e+00
  -3.962974e+00   1.649961e+00
  -1.884980e+00  -2.235662e+00
  -6.113494e-02  -3.838665e+00
   5.912585e-01  -2.068277e+00
   3.275820e-01   1.047410e+00
  -6.225921e-01   1.816870e+00
  -1.624682e+00  -1.210592e+00
  -7.773623e-01  -4.597903e+00
