
 $NMID
 id='ANONYMOUS ', fmtdat='(2E16.6)'
 volume=1.0
 tramp=1.0
 $END
   3.832360e+07   2.586990e+06
   2.231921e+07   2.288803e+07
  -4.819366e+06   2.477377e+07
  -1.835835e+07   1.115136e+07
  -1.181209e+07  -2.833130e+06
   1.377625e+06  -6.337320e+06
   6.952090e+06  -5.298149e+05
   3.078720e+06   6.447815e+06
  -3.511192e+06   7.748487e+06
  -6.816656e+06   2.339242e+06
  -5.124550e+06  -4.808014e+06
  -3.400634e+05  -6.811928e+06
   3.272654e+06  -1.650263e+06
   2.146650e+06   5.023027e+06
  -2.615570e+06   5.700058e+06
  -5.704314e+06  -5.466118e+05
  -3.322929e+06  -7.352196e+06
   2.713127e+06  -8.487525e+06
   7.334887e+06  -3.808117e+06
   7.354925e+06   2.231836e+06
   3.630767e+06   5.576743e+06
  -4.069561e+05   5.280363e+06
  -1.579886e+06   3.173318e+06
   3.311401e+05   2.047419e+06
   1.929487e+06   3.096412e+06
  -3.790661e+05   4.441908e+06
  -5.568621e+06   3.186985e+06
  -8.267048e+06  -7.157001e+05
  -5.070269e+06  -3.979098e+06
   9.945089e+05  -3.872884e+06
   4.011244e+06  -1.195343e+06
   1.988221e+06   1.267119e+06
  -1.793782e+06   1.741522e+06
  -3.411926e+06   1.527082e+05
  -2.096324e+06  -2.466402e+06
   3.861972e+05  -4.022948e+06
   2.014713e+06  -2.530317e+06
   1.760772e+06   1.065453e+06
   1.666939e+05   2.749524e+06
  -7.881606e+05   3.012683e+05
   3.391922e+05  -2.972126e+06
   2.236263e+06  -2.164877e+06
   1.952924e+06   2.169504e+06
  -1.164075e+06   4.201219e+06
  -3.988137e+06   6.569175e+05
  -3.067547e+06  -4.619224e+06
   1.284653e+06  -5.613325e+06
   5.286777e+06  -1.430316e+06
   5.528978e+06   3.458272e+06
   1.886325e+06   4.851558e+06
  -2.701178e+06   2.546949e+06
  -4.623925e+06  -8.268570e+05
  -2.482678e+06  -2.609758e+06
   1.495360e+06  -1.787220e+06
   3.367794e+06   5.054984e+05
   1.601826e+06   1.863183e+06
  -1.212671e+06   9.921307e+05
  -1.610879e+06  -7.520649e+05
   4.444683e+05  -1.047581e+06
   1.797925e+06   4.233763e+05
   3.397981e+05   1.756382e+06
  -2.478133e+06   1.370315e+06
  -3.629787e+06  -4.736353e+05
  -1.804973e+06  -2.618800e+06
   1.754386e+06  -4.025573e+06
   4.695725e+06  -3.630098e+06
   5.229742e+06  -8.351534e+05
   3.205350e+06   3.035309e+06
   2.998474e+05   5.114649e+06
  -1.312018e+06   4.015077e+06
  -1.071798e+06   1.608062e+06
  -4.802837e+05   6.213700e+05
  -1.053055e+06   1.172383e+06
  -2.384838e+06   1.080407e+06
  -2.815639e+06  -7.141030e+05
  -1.547099e+06  -2.580984e+06
   5.690572e+05  -2.368692e+06
   2.010583e+06  -4.498055e+04
   1.732035e+06   2.369207e+06
  -2.651415e+05   2.872327e+06
  -2.702360e+06   1.102310e+06
  -3.619336e+06  -1.588905e+06
  -2.132472e+06  -3.285124e+06
   3.877298e+05  -3.071681e+06
   1.729055e+06  -1.756729e+06
   1.489345e+06  -8.476773e+05
   1.386103e+06  -7.897535e+05
   2.628366e+06  -6.126834e+05
   3.975665e+06   6.261929e+05
   3.217845e+06   2.565323e+06
   7.631294e+04   3.904520e+06
  -3.220440e+06   3.623730e+06
  -4.199045e+06   1.708057e+06
  -2.469451e+06  -8.007229e+05
   1.435126e+05  -2.270243e+06
   1.382571e+06  -1.677123e+06
   5.096154e+05   1.709872e+05
  -1.177892e+06   1.170397e+06
  -1.747098e+06   2.827820e+05
  -6.800837e+05  -1.126672e+06
   6.335761e+05  -1.071960e+06
   6.057238e+05   3.276622e+05
  -6.810603e+05   9.437930e+05
  -1.676172e+06  -5.169032e+05
  -1.152234e+06  -2.770635e+06
   6.820767e+05  -3.475657e+06
   2.634875e+06  -1.815289e+06
   3.493734e+06   9.068143e+05
   2.654826e+06   2.756288e+06
   5.565112e+05   2.765715e+06
  -1.326261e+06   1.422019e+06
  -1.601477e+06   1.115657e+05
  -4.756253e+05  -5.714325e+04
   3.361897e+05   7.234433e+05
  -3.534429e+05   1.188860e+06
  -1.687166e+06   4.915966e+05
  -1.849512e+06  -7.564503e+05
  -4.092873e+05  -1.249946e+06
   1.094477e+06  -5.699270e+05
   9.684790e+05   4.291197e+05
  -7.224055e+05   6.801545e+05
  -2.248614e+06  -8.746628e+04
  -1.969096e+06  -1.313896e+06
   1.034433e+05  -2.096284e+06
   2.283402e+06  -1.719981e+06
   2.716409e+06  -2.601693e+05
   1.126056e+06   1.174611e+06
  -8.725754e+05   1.304480e+06
  -1.369725e+06   1.081759e+05
  -8.872425e+04  -9.754736e+05
   1.450960e+06  -6.474659e+05
   1.648738e+06   7.207706e+05
   4.183178e+05   1.576015e+06
  -9.565118e+05   1.042687e+06
  -1.234004e+06  -1.643933e+05
  -3.356599e+05  -6.969746e+05
   6.896759e+05  -5.556245e+04
   6.517438e+05   1.012191e+06
  -6.234768e+05   1.339301e+06
  -1.965835e+06   4.319175e+05
  -1.918010e+06  -1.085598e+06
  -3.209519e+05  -1.989967e+06
   1.376971e+06  -1.549030e+06
   1.647246e+06  -2.157209e+05
   5.188573e+05   8.172557e+05
  -6.205857e+05   7.955304e+05
  -6.889063e+05   6.041662e+04
   4.781744e+04  -4.729944e+05
   5.743041e+05  -3.378498e+05
   3.358079e+05   8.403371e+04
  -3.052773e+05   9.367743e+04
  -5.392757e+05  -5.037409e+05
   1.181441e+05  -1.108287e+06
   1.312578e+06  -8.641048e+05
   2.002219e+06   4.233271e+05
   1.367920e+06   1.904198e+06
  -2.622754e+05   2.372087e+06
  -1.606773e+06   1.437474e+06
  -1.732117e+06  -7.232451e+04
  -9.734934e+05  -9.692645e+05
  -3.611887e+05  -8.649004e+05
  -3.506262e+05  -3.747649e+05
  -4.534468e+05  -2.760283e+05
  -4.327318e+04  -6.506797e+05
   8.202783e+05  -8.783040e+05
   1.434431e+06  -3.654987e+05
   1.113118e+06   7.406710e+05
  -1.931579e+05   1.527581e+06
  -1.700908e+06   1.094954e+06
  -2.221692e+06  -4.873176e+05
  -1.127474e+06  -2.033726e+06
   9.196734e+05  -2.259424e+06
   2.400759e+06  -1.022292e+06
   2.316777e+06   5.638833e+05
   1.069000e+06   1.301089e+06
  -1.167584e+05   1.050556e+06
  -4.792558e+05   6.285539e+05
  -2.785491e+05   7.293054e+05
  -2.295395e+05   1.161288e+06
  -6.551392e+05   1.148850e+06
  -1.207971e+06   2.481239e+05
  -1.249794e+06  -1.094344e+06
  -4.845252e+05  -1.863699e+06
   6.538692e+05  -1.385683e+06
   1.260495e+06   5.602480e+03
   7.899510e+05   1.208302e+06
  -3.219538e+05   1.332336e+06
  -1.027218e+06   4.661332e+05
  -7.471395e+05  -5.341150e+05
   3.839753e+04  -9.425723e+05
   3.949277e+05  -7.564252e+05
   2.915935e+04  -4.554762e+05
  -3.899162e+05  -3.700601e+05
  -3.321324e+04  -3.886923e+05
   1.070577e+06  -1.931715e+05
   1.926845e+06   3.451889e+05
   1.544352e+06   9.949409e+05
   1.298060e+04   1.320703e+06
  -1.470288e+06   1.035733e+06
  -1.744883e+06   2.904199e+05
  -8.225406e+05  -3.796821e+05
   2.247604e+05  -4.891813e+05
   4.631136e+05  -6.640974e+04
  -2.137091e+04   3.438232e+05
  -4.764856e+05   2.235218e+05
  -4.470929e+05  -3.478932e+05
  -1.462357e+05  -7.417242e+05
  -2.583062e+03  -4.814649e+05
  -1.407277e+05   1.486760e+05
  -3.380924e+05   3.567099e+05
  -2.781172e+05  -2.215939e+05
   2.002641e+05  -9.899407e+05
   8.975771e+05  -1.000673e+06
   1.235762e+06  -7.404282e+04
   7.095310e+05   9.225012e+05
  -4.381575e+05   1.021052e+06
  -1.183421e+06   2.127433e+05
  -6.907640e+05  -6.043388e+05
   6.764861e+05  -6.311574e+05
   1.580610e+06   7.976899e+04
   1.071665e+06   8.336776e+05
  -4.070286e+05   1.017123e+06
  -1.487088e+06   5.533570e+05
  -1.270736e+06  -1.462099e+05
  -1.644230e+05  -5.216677e+05
   6.275709e+05  -2.874187e+05
   3.399046e+05   2.725546e+05
  -6.261732e+05   4.604376e+05
  -1.152724e+06  -1.689100e+05
  -5.574350e+05  -1.209876e+06
   7.084018e+05  -1.629610e+06
   1.522432e+06  -7.801332e+05
   1.212134e+06   8.058564e+05
   1.445633e+05   1.785284e+06
  -7.581017e+05   1.297055e+06
  -9.164666e+05  -1.455338e+05
  -4.466792e+05  -1.172079e+06
   1.707539e+05  -9.801278e+05
   5.331533e+05  -9.536234e+04
   4.984783e+05   3.899067e+05
   2.119106e+05   1.515139e+05
   2.851580e+04  -1.073280e+05
   1.896569e+05   2.682203e+05
   4.486743e+05   9.510408e+05
   2.261840e+05   1.073080e+06
  -6.400717e+05   3.766899e+05
  -1.452621e+06  -4.951828e+05
  -1.300163e+06  -8.502276e+05
  -1.712075e+05  -6.795036e+05
   9.027803e+05  -3.908967e+05
   9.915403e+05  -1.765762e+05
   3.083435e+05   3.493902e+04
  -1.694008e+05   2.151952e+05
   2.182874e+04   2.251810e+05
   3.246172e+05   1.277629e+05
   2.219989e+04   1.387038e+05
  -7.272096e+05   1.971188e+05
  -1.024021e+06  -6.023112e+04
  -3.146039e+05  -6.924458e+05
   9.241914e+05  -1.104096e+06
   1.657670e+06  -6.462422e+05
   1.304517e+06   5.076756e+05
   2.071437e+05   1.404947e+06
  -7.807858e+05   1.309609e+06
  -1.051565e+06   4.581510e+05
  -6.504209e+05  -2.800814e+05
  -9.542566e+04  -3.582790e+05
   1.261933e+05  -3.385409e+04
  -5.696287e+04   5.209227e+04
  -3.104947e+05  -3.498394e+05
  -2.432646e+05  -7.996639e+05
   2.094074e+05  -6.520204e+05
   6.824395e+05   1.763199e+05
   6.698496e+05   9.994560e+05
   2.112046e+04   1.019365e+06
  -7.877605e+05   1.726026e+05
  -9.851601e+05  -7.908881e+05
  -2.747461e+05  -1.083692e+06
   7.352337e+05  -6.067072e+05
   1.073639e+06   1.253049e+05
   4.699144e+05   5.852722e+05
  -3.045005e+05   6.095458e+05
  -3.415862e+05   3.340726e+05
   2.934272e+05   2.932620e+04
   6.539506e+05  -1.305154e+04
   1.173718e+05   3.001197e+05
  -8.316916e+05   6.502038e+05
  -1.209926e+06   5.254418e+05
  -6.926024e+05  -1.652224e+05
   1.271956e+05  -8.340471e+05
   5.294326e+05  -8.014916e+05
   3.803779e+05  -1.065023e+05
   1.582420e+04   4.957464e+05
  -2.604683e+05   3.967375e+05
  -3.499255e+05  -1.970054e+05
  -2.263274e+05  -5.782238e+05
   8.075665e+04  -3.817887e+05
   3.839052e+05   7.434189e+04
   4.412890e+05   2.628411e+05
   2.320730e+05   7.589986e+04
  -3.979564e+03  -1.183664e+05
  -7.102153e+04   2.309537e+04
  -5.384200e+04   3.825100e+05
  -1.540561e+05   5.040787e+05
  -3.564849e+05   1.322787e+05
  -3.901865e+05  -4.438578e+05
  -6.139292e+04  -6.581540e+05
   4.351832e+05  -2.792638e+05
   6.211444e+05   3.264131e+05
   2.132521e+05   5.916896e+05
  -4.988726e+05   3.366656e+05
  -8.441869e+05  -1.229158e+05
  -4.478723e+05  -3.888813e+05
   3.052873e+05  -3.539835e+05
   6.297060e+05  -1.655663e+05
   2.155424e+05   3.432031e+02
  -3.924766e+05   2.938438e+04
  -4.230857e+05  -1.188739e+05
   2.077575e+05  -3.139163e+05
   8.009119e+05  -2.509264e+05
