
 $NMID
 id='ANONYMOUS ', fmtdat='(2E16.6)'
 volume=1.0
 tramp=1.0
 $END
   7.909615e+06  -9.381731e+05
   4.839588e+06   4.871208e+06
  -1.163799e+06   5.533835e+06
  -3.875474e+06   1.759451e+06
  -2.002578e+06  -1.553169e+06
   8.024314e+05  -1.598215e+06
   1.468047e+06   2.251366e+05
   3.437459e+05   1.432407e+06
  -8.583158e+05   1.230697e+06
  -1.343838e+06   1.849334e+05
  -1.061787e+06  -9.109634e+05
  -1.405740e+05  -1.274513e+06
   7.526074e+05  -5.311450e+05
   6.841502e+05   5.827988e+05
  -2.856517e+05   7.756087e+05
  -9.566658e+05  -1.977388e+05
  -5.185634e+05  -1.227893e+06
   5.319310e+05  -1.329958e+06
   1.287891e+06  -6.336592e+05
   1.427084e+06   2.691719e+05
   1.002373e+06   1.051641e+06
   1.200085e+05   1.400361e+06
  -7.099111e+05   9.530380e+05
  -7.188431e+05   2.433596e+04
   3.875948e+04  -3.601459e+05
   4.433624e+05   2.300515e+05
  -2.217887e+05   8.985194e+05
  -1.180879e+06   6.178242e+05
  -1.234748e+06  -3.739950e+05
  -3.789085e+05  -1.028741e+06
   4.136138e+05  -8.901776e+05
   5.936493e+05  -3.513938e+05
   3.932986e+05   1.255985e+05
   8.994478e+04   3.308403e+05
  -2.160031e+05   1.190452e+05
  -2.387326e+05  -3.765482e+05
   2.251565e+05  -5.386745e+05
   6.961609e+05   1.209266e+04
   4.901859e+05   6.614353e+05
  -1.702354e+05   5.393719e+05
  -3.584135e+05  -1.102485e+05
   1.064373e+05  -2.045436e+05
   3.007282e+05   4.771474e+05
  -3.533802e+05   8.517855e+05
  -1.100045e+06   1.453430e+05
  -9.019392e+05  -9.275888e+05
   1.104498e+05  -1.178229e+06
   8.983276e+05  -4.917003e+05
   8.474806e+05   2.859022e+05
   2.370787e+05   5.415776e+05
  -3.525579e+05   3.202350e+05
  -5.267962e+05  -1.113815e+05
  -1.612364e+05  -4.675679e+05
   4.574133e+05  -4.075989e+05
   6.962499e+05   1.009880e+05
   2.670097e+05   5.088189e+05
  -2.759643e+05   3.194330e+05
  -2.220749e+05  -1.324908e+05
   2.546249e+05  -1.162465e+05
   3.353345e+05   3.793322e+05
  -2.153104e+05   6.216143e+05
  -7.294739e+05   2.459759e+05
  -6.543090e+05  -2.900959e+05
  -2.339332e+05  -5.201003e+05
   8.365330e+04  -5.620175e+05
   3.116881e+05  -5.957980e+05
   5.839233e+05  -3.811116e+05
   6.494550e+05   2.141102e+05
   2.589934e+05   6.833798e+05
  -2.422855e+05   4.813937e+05
  -2.746024e+05  -1.132166e+05
   1.413696e+05  -3.210691e+05
   4.035718e+05   6.841922e+04
   1.635079e+05   4.861437e+05
  -2.796595e+05   4.300169e+05
  -4.601150e+05   4.106629e+04
  -2.676027e+05  -2.459807e+05
   8.099458e+04  -2.277642e+05
   2.985106e+05   1.998662e+04
   1.821897e+05   3.007000e+05
  -2.295014e+05   3.636381e+05
  -5.778325e+05   7.073115e+04
  -4.931838e+05  -3.691923e+05
  -5.393740e+04  -5.464880e+05
   2.842390e+05  -3.410040e+05
   2.736961e+05  -6.263370e+04
   1.387069e+05  -6.806100e+03
   1.663154e+05  -9.447806e+04
   3.040660e+05  -8.237119e+04
   3.277370e+05   8.455303e+04
   1.849691e+05   2.890207e+05
  -2.116274e+04   4.229294e+05
  -2.143463e+05   3.941345e+05
  -3.215274e+05   1.373228e+05
  -2.316974e+05  -2.049225e+05
   1.600137e+04  -2.993869e+05
   1.496020e+05  -3.734582e+04
  -3.897369e+03   2.359442e+05
  -2.283711e+05   1.585495e+05
  -2.066170e+05  -1.307533e+05
   7.284094e+03  -2.160148e+05
   8.963901e+04  -3.860915e+04
  -3.894776e+04   5.675595e+04
  -1.219987e+05  -9.921840e+04
  -6.622481e+03  -2.552711e+05
   1.430850e+05  -1.758549e+05
   1.628513e+05   1.076448e+04
   1.310253e+05   8.015069e+04
   1.486736e+05   6.060249e+04
   1.270819e+05   9.172219e+04
  -1.112418e+04   1.358825e+05
  -1.190925e+05   8.043814e+04
  -4.287464e+04  -4.100745e+03
   8.897456e+04   3.838997e+04
   3.646928e+04   1.616746e+05
  -1.712672e+05   1.623144e+05
  -2.669098e+05  -5.848570e+03
  -1.322237e+05  -1.665078e+05
   6.338690e+04  -1.776036e+05
   1.263844e+05  -7.908143e+04
   5.301182e+04   2.842445e+04
  -5.447892e+04   8.895886e+04
  -1.185653e+05   5.632811e+04
  -8.493276e+04  -8.059153e+04
   5.847705e+04  -1.985031e+05
   1.974716e+05  -1.279571e+05
   1.619721e+05   9.455779e+04
  -4.224263e+04   2.134847e+05
  -1.892784e+05   8.182255e+04
  -1.082403e+05  -1.307693e+05
   9.567963e+04  -1.672697e+05
   1.885024e+05  -1.207680e+04
   9.411253e+04   1.350927e+05
  -6.375503e+04   1.350989e+05
  -1.403621e+05   2.758860e+04
  -9.115639e+04  -7.815549e+04
   3.626961e+04  -1.046567e+05
   1.338225e+05  -2.412632e+04
   9.328971e+04   1.098959e+05
  -7.162435e+04   1.603954e+05
  -1.926048e+05   4.261746e+04
  -1.265207e+05  -1.396442e+05
   5.699879e+04  -1.917128e+05
   1.592934e+05  -6.604297e+04
   1.007860e+05   9.111409e+04
  -1.620751e+04   1.371979e+05
  -7.871875e+04   7.793808e+04
  -8.083553e+04  -4.263742e+03
  -5.795515e+04  -6.257303e+04
  -1.875708e+04  -8.298634e+04
   1.769784e+04  -5.872608e+04
   1.416640e+04  -2.297916e+04
  -7.834218e+03  -3.542681e+04
   2.938415e+04  -8.319190e+04
   1.276103e+05  -6.675535e+04
   1.701101e+05   5.375689e+04
   7.991964e+04   1.685280e+05
  -5.649023e+04   1.537096e+05
  -1.066064e+05   4.170043e+04
  -6.869324e+04  -3.377515e+04
  -3.723963e+04  -2.317477e+04
  -4.266131e+04   5.612723e+03
  -3.448344e+04  -1.693512e+03
   1.357416e+03  -2.341280e+04
   2.080224e+04  -3.272086e+04
   1.590439e+04  -3.580088e+04
   2.495883e+04  -2.199697e+04
   3.504410e+04   3.532010e+04
  -1.958870e+04   9.821719e+04
  -1.260265e+05   7.053428e+04
  -1.596092e+05  -6.474702e+04
  -4.614919e+04  -1.852249e+05
   1.173511e+05  -1.701693e+05
   1.784745e+05  -5.143777e+04
   1.155070e+05   4.271842e+04
   3.430288e+04   5.640266e+04
   1.446289e+04   4.570523e+04
   3.458656e+04   6.877009e+04
   3.605915e+04   1.098774e+05
  -6.818346e+03   1.190797e+05
  -7.984133e+04   7.284260e+04
  -1.382525e+05  -1.543857e+04
  -1.239308e+05  -1.033849e+05
  -2.376835e+04  -1.311560e+05
   8.704152e+04  -6.752335e+04
   1.090407e+05   4.113693e+04
   3.368750e+04   1.017956e+05
  -4.883847e+04   7.040738e+04
  -6.427251e+04  -7.883457e+03
  -3.102918e+04  -6.101859e+04
  -8.742579e+03  -6.279616e+04
  -1.587045e+04  -3.497656e+04
  -2.446051e+04  -1.072567e+04
  -4.477946e+03  -1.297959e+04
   5.036535e+04  -4.005643e+04
   1.149838e+05  -5.383106e+04
   1.351045e+05  -9.954291e+03
   7.041841e+04   7.808201e+04
  -4.293192e+04   1.323779e+05
  -1.080820e+05   9.739897e+04
  -7.528928e+04   1.238551e+04
  -3.005606e+03  -3.570196e+04
   2.156742e+04  -1.706212e+04
  -9.329127e+03   1.835647e+04
  -3.806804e+04   1.636309e+04
  -3.516932e+04  -1.962008e+04
  -2.203133e+04  -4.698586e+04
  -1.360607e+04  -3.631533e+04
   2.327826e+02   3.378038e+03
   1.323409e+04   3.364257e+04
   1.419968e+03   1.779098e+04
  -2.242960e+04  -3.899541e+04
  -9.167155e+03  -8.100746e+04
   4.515060e+04  -5.591797e+04
   7.019358e+04   1.942875e+04
   1.633427e+04   7.036602e+04
  -6.027727e+04   4.842227e+04
  -6.123333e+04  -1.745841e+04
   2.383203e+04  -6.092107e+04
   1.023932e+05  -4.645232e+04
   9.263533e+04   1.161617e+04
   9.369872e+03   7.167460e+04
  -6.873485e+04   8.935015e+04
  -8.246610e+04   4.520594e+04
  -3.366869e+04  -2.594578e+04
   2.645915e+04  -5.256166e+04
   3.821061e+04  -4.791228e+03
  -1.420656e+04   5.572859e+04
  -7.869035e+04   3.982529e+04
  -8.185080e+04  -5.558001e+04
  -9.267086e+03  -1.322243e+05
   7.714235e+04  -1.012218e+05
   1.074376e+05   1.575438e+04
   6.896739e+04   1.127375e+05
  -1.385351e+03   1.113350e+05
  -6.045046e+04   2.985621e+04
  -7.796844e+04  -4.996731e+04
  -4.290199e+04  -6.777355e+04
   1.878625e+04  -3.383376e+04
   5.159189e+04  -2.057547e+03
   2.984727e+04  -2.749837e+03
  -1.651014e+03  -1.258525e+04
   1.648909e+04   4.625644e+03
   6.697764e+04   4.371070e+04
   6.630069e+04   6.570077e+04
  -2.005504e+04   5.181304e+04
  -1.156915e+05   2.137353e+04
  -1.202279e+05  -5.777859e+03
  -3.307776e+04  -3.205072e+04
   5.004426e+04  -5.470436e+04
   5.670356e+04  -4.977631e+04
   1.323156e+04  -1.065277e+04
  -9.108933e+03   2.380447e+04
   1.068591e+04   1.658246e+04
   2.939162e+04  -8.679615e+03
   7.059494e+03   1.175809e+02
  -4.085975e+04   3.761619e+04
  -6.462700e+04   3.733656e+04
  -3.634556e+04  -3.095596e+04
   2.550006e+04  -1.038560e+05
   7.851859e+04  -9.666501e+04
   9.126755e+04  -8.016198e+03
   5.951144e+04   8.160285e+04
   3.714749e+03   1.034341e+05
  -4.200030e+04   6.210954e+04
  -4.932958e+04   9.601390e+03
  -1.988563e+04  -1.296019e+04
   1.001753e+04  -3.610597e+03
   2.737983e+03   9.020769e+03
  -3.566370e+04  -3.916341e+03
  -5.465880e+04  -3.780043e+04
  -1.601826e+04  -5.227310e+04
   5.355316e+04  -1.713721e+04
   8.258548e+04   4.276596e+04
   3.306776e+04   6.871314e+04
  -5.233300e+04   3.541323e+04
  -9.188200e+04  -2.339289e+04
  -5.046600e+04  -5.966461e+04
   2.638671e+04  -5.777255e+04
   6.589445e+04  -2.937416e+04
   4.558483e+04   9.882554e+03
   8.139783e+03   3.945672e+04
   2.812849e+03   3.473256e+04
   2.760479e+04  -1.243492e+03
   3.960012e+04  -2.169753e+04
   1.331912e+04   1.313922e+04
  -2.968322e+04   7.311891e+04
  -5.191818e+04   8.284138e+04
  -4.303182e+04   1.787026e+04
  -2.038087e+04  -5.706269e+04
  -1.878597e+02  -6.591704e+04
   1.294036e+04  -1.231450e+04
   1.353562e+04   3.435718e+04
  -4.443116e+03   2.852001e+04
  -2.932089e+04  -7.766692e+03
  -3.333684e+04  -2.857359e+04
  -5.696451e+03  -2.108950e+04
   2.833085e+04  -6.452228e+03
   3.593751e+04  -2.893274e+03
   1.662527e+04  -6.200670e+03
  -1.731542e+03  -2.006606e+03
  -2.299735e+03   1.457073e+04
   2.349740e+03   3.238228e+04
  -6.358878e+03   3.323053e+04
  -2.538604e+04   9.420849e+03
  -3.328015e+04  -2.473968e+04
  -1.481396e+04  -4.244159e+04
   2.126868e+04  -2.921284e+04
   4.542940e+04   3.578123e+03
   3.088302e+04   3.114064e+04
  -1.644704e+04   3.669094e+04
  -5.352930e+04   1.955652e+04
  -4.105027e+04  -8.882221e+03
   7.716956e+03  -3.012018e+04
   3.584168e+04  -2.746135e+04
   1.057816e+04  -3.230627e+03
  -3.386215e+04   1.502083e+04
  -3.856546e+04   5.840029e+02
   6.494243e+03  -3.546737e+04
   5.353003e+04  -4.742800e+04
