
 $NMID
 id='ANONYMOUS ', fmtdat='(2E16.6)'
 volume=1.0
 tramp=1.0
 $END
  -4.251903e+07   1.821199e+06
  -2.755421e+07  -2.356709e+07
   2.859044e+06  -2.859776e+07
   1.978433e+07  -1.383031e+07
   1.357833e+07   2.881815e+06
  -1.266858e+06   7.366896e+06
  -7.860321e+06   6.800785e+05
  -3.631377e+06  -7.199186e+06
   3.709399e+06  -8.574814e+06
   7.465994e+06  -2.838234e+06
   5.923976e+06   4.709470e+06
   9.365144e+05   7.149918e+06
  -3.233782e+06   2.131032e+06
  -2.489714e+06  -4.954382e+06
   2.582977e+06  -6.119820e+06
   6.350022e+06   2.640828e+05
   4.225670e+06   7.776705e+06
  -2.233708e+06   9.523806e+06
  -7.590025e+06   4.953836e+06
  -8.259231e+06  -1.449846e+06
  -4.838214e+06  -5.513221e+06
  -5.134655e+05  -5.995724e+06
   1.430217e+06  -4.133507e+06
   8.722202e+04  -2.468072e+06
  -1.692051e+06  -2.857875e+06
   7.956530e+04  -4.268752e+06
   5.208276e+06  -3.662726e+06
   8.437490e+06  -9.007922e+04
   5.711085e+06   3.548416e+06
  -3.679532e+05   4.029962e+06
  -3.683732e+06   1.654350e+06
  -1.981979e+06  -7.865256e+05
   1.506699e+06  -1.430357e+06
   3.037181e+06  -2.214787e+05
   2.062703e+06   2.081234e+06
   3.813254e+04   3.837630e+06
  -1.676586e+06   2.902583e+06
  -2.046113e+06  -5.499898e+05
  -7.846403e+05  -2.755255e+06
   5.594335e+05  -7.528923e+05
  -1.133193e+05   2.738431e+06
  -2.178653e+06   2.296166e+06
  -2.277171e+06  -2.286217e+06
   1.085836e+06  -4.881079e+06
   4.665039e+06  -1.271949e+06
   4.048295e+06   4.814740e+06
  -8.592307e+05   6.464435e+06
  -5.629168e+06   2.148133e+06
  -6.115517e+06  -3.306739e+06
  -2.191575e+06  -5.060580e+06
   2.770212e+06  -2.768734e+06
   4.876072e+06   7.538670e+05
   2.655055e+06   2.735908e+06
  -1.610189e+06   2.051421e+06
  -3.718204e+06  -3.415100e+05
  -1.856211e+06  -1.970786e+06
   1.253163e+06  -1.191621e+06
   1.694558e+06   7.438399e+05
  -6.511671e+05   1.134355e+06
  -2.148607e+06  -6.166930e+05
  -3.661075e+05  -2.295259e+06
   2.904172e+06  -1.866815e+06
   4.170234e+06   3.521030e+05
   2.196583e+06   2.821593e+06
  -1.444362e+06   4.391081e+06
  -4.450528e+06   4.135474e+06
  -5.294686e+06   1.386142e+06
  -3.670307e+06  -2.748557e+06
  -7.913977e+05  -5.259103e+06
   1.200551e+06  -4.301183e+06
   1.233411e+06  -1.622558e+06
   4.807248e+05  -3.659912e+05
   7.425104e+05  -1.015999e+06
   2.033554e+06  -1.249176e+06
   2.701723e+06   3.541219e+05
   1.676141e+06   2.274582e+06
  -3.503975e+05   2.239865e+06
  -1.856383e+06   1.024282e+05
  -1.757814e+06  -2.220444e+06
   7.807986e+04  -2.845898e+06
   2.589437e+06  -1.348978e+06
   3.826535e+06   1.228573e+06
   2.587438e+06   3.166345e+06
  -2.868200e+04   3.322567e+06
  -1.670136e+06   2.132299e+06
  -1.604300e+06   1.070484e+06
  -1.478759e+06   8.671241e+05
  -2.689973e+06   7.137987e+05
  -4.092277e+06  -4.599591e+05
  -3.392626e+06  -2.447857e+06
  -2.655250e+05  -3.932184e+06
   3.026985e+06  -3.796747e+06
   4.051260e+06  -1.962474e+06
   2.485908e+06   5.792450e+05
   4.878846e+04   2.199694e+06
  -1.204055e+06   1.750507e+06
  -5.097063e+05  -1.093572e+05
   1.086887e+06  -1.233943e+06
   1.755624e+06  -3.973528e+05
   7.927225e+05   1.085480e+06
  -5.552421e+05   1.085407e+06
  -5.760955e+05  -3.449765e+05
   7.791143e+05  -9.499070e+05
   1.837946e+06   6.343773e+05
   1.208466e+06   2.971505e+06
  -8.013526e+05   3.584900e+06
  -2.781300e+06   1.782125e+06
  -3.529678e+06  -9.401448e+05
  -2.641581e+06  -2.693954e+06
  -6.084848e+05  -2.702617e+06
   1.237481e+06  -1.464550e+06
   1.567204e+06  -1.990132e+05
   4.783183e+05   3.377374e+04
  -3.714752e+05  -7.131759e+05
   3.043641e+05  -1.246975e+06
   1.710923e+06  -6.051292e+05
   1.937669e+06   6.970107e+05
   4.684249e+05   1.279505e+06
  -1.091667e+06   6.186971e+05
  -9.629107e+05  -4.108696e+05
   7.511505e+05  -6.785565e+05
   2.255935e+06   7.654649e+04
   1.953585e+06   1.277710e+06
  -8.251071e+04   2.076479e+06
  -2.225864e+06   1.782402e+06
  -2.708996e+06   3.708386e+05
  -1.201719e+06  -1.141012e+06
   8.073017e+05  -1.392155e+06
   1.401763e+06  -2.061874e+05
   1.694159e+05   9.826906e+05
  -1.427876e+06   7.323289e+05
  -1.696527e+06  -6.650701e+05
  -4.617927e+05  -1.587003e+06
   9.622026e+05  -1.073240e+06
   1.262138e+06   1.578112e+05
   3.453908e+05   7.192055e+05
  -7.167399e+05   9.566716e+04
  -7.177021e+05  -9.847146e+05
   5.457194e+05  -1.375909e+06
   1.938977e+06  -5.413341e+05
   1.979562e+06   9.835490e+05
   4.229808e+05   1.985597e+06
  -1.319258e+06   1.628865e+06
  -1.655586e+06   2.843092e+05
  -5.482985e+05  -8.124098e+05
   5.996353e+05  -8.225744e+05
   6.664252e+05  -8.153222e+04
  -6.614862e+04   4.519661e+05
  -5.547033e+05   3.102496e+05
  -2.752804e+05  -9.574290e+04
   3.644513e+05  -7.683273e+04
   5.733210e+05   5.318126e+05
  -9.018849e+04   1.142838e+06
  -1.290457e+06   9.283125e+05
  -2.031381e+06  -3.332984e+05
  -1.466469e+06  -1.843226e+06
   1.533679e+05  -2.379359e+06
   1.552706e+06  -1.484557e+06
   1.722457e+06   2.942159e+04
   9.612889e+05   9.241397e+05
   3.490141e+05   7.925514e+05
   3.774845e+05   2.976554e+05
   5.168872e+05   2.439843e+05
   9.740135e+04   6.717005e+05
  -7.962896e+05   9.194081e+05
  -1.424016e+06   4.082136e+05
  -1.115334e+06  -6.989676e+05
   1.609172e+05  -1.516628e+06
   1.661957e+06  -1.150393e+06
   2.237518e+06   3.978126e+05
   1.209276e+06   2.001935e+06
  -8.433995e+05   2.327590e+06
  -2.392681e+06   1.129227e+06
  -2.351052e+06  -4.989741e+05
  -1.084953e+06  -1.283102e+06
   1.181355e+05  -1.032782e+06
   4.446612e+05  -5.967764e+05
   1.892086e+05  -7.150981e+05
   1.286542e+05  -1.188859e+06
   5.945155e+05  -1.210499e+06
   1.208370e+06  -3.242646e+05
   1.308420e+06   1.026799e+06
   5.767953e+05   1.836452e+06
  -5.832435e+05   1.414341e+06
  -1.262302e+06   4.545033e+04
  -8.484726e+05  -1.192715e+06
   2.822402e+05  -1.366816e+06
   1.053673e+06  -5.037533e+05
   8.056104e+05   5.424955e+05
  -9.026713e+03   9.907402e+05
  -4.028896e+05   7.955900e+05
  -3.431657e+04   4.510225e+05
   4.096688e+05   3.373310e+05
   5.477215e+04   3.800708e+05
  -1.078893e+06   2.483445e+05
  -1.969192e+06  -2.485226e+05
  -1.601915e+06  -9.351176e+05
  -6.335133e+04  -1.355594e+06
   1.445407e+06  -1.133716e+06
   1.753888e+06  -3.622012e+05
   8.528032e+05   3.799180e+05
  -2.047016e+05   5.240986e+05
  -4.775853e+05   8.072115e+04
  -1.832121e+04  -3.579946e+05
   4.505011e+05  -2.454517e+05
   4.671350e+05   3.226286e+05
   2.024844e+05   7.110893e+05
   4.812116e+04   4.645344e+05
   1.412973e+05  -1.365732e+05
   3.151308e+05  -3.399033e+05
   2.862436e+05   2.135032e+05
  -1.447785e+05   9.829591e+05
  -8.468068e+05   1.049804e+06
  -1.250545e+06   1.695725e+05
  -7.828462e+05  -8.678980e+05
   3.732548e+05  -1.065199e+06
   1.173706e+06  -3.051374e+05
   7.183018e+05   5.595352e+05
  -6.551970e+05   6.621917e+05
  -1.580719e+06  -2.508314e+04
  -1.081278e+06  -8.093693e+05
   3.958238e+05  -1.030114e+06
   1.474683e+06  -5.837982e+05
   1.265206e+06   1.186446e+05
   1.721322e+05   5.154882e+05
  -6.239823e+05   3.066716e+05
  -3.658296e+05  -2.589229e+05
   5.834043e+05  -4.950006e+05
   1.149552e+06   9.212642e+04
   6.321540e+05   1.156007e+06
  -5.938921e+05   1.653026e+06
  -1.456304e+06   8.614795e+05
  -1.242808e+06  -7.337632e+05
  -2.303887e+05  -1.763949e+06
   7.009923e+05  -1.315111e+06
   9.254183e+05   1.199643e+05
   4.857506e+05   1.159287e+06
  -1.523225e+05   9.860846e+05
  -5.389146e+05   1.154429e+05
  -4.974472e+05  -3.708668e+05
  -1.976260e+05  -1.462208e+05
  -3.337623e+04   1.069644e+05
  -2.341162e+05  -2.545699e+05
  -5.049095e+05  -9.253097e+05
  -2.529011e+05  -1.067348e+06
   6.461302e+05  -4.168717e+05
   1.466405e+06   4.253475e+05
   1.315619e+06   7.970636e+05
   2.033281e+05   6.742598e+05
  -8.614873e+05   4.238595e+05
  -9.765486e+05   2.127912e+05
  -3.299324e+05  -2.111753e+04
   1.503269e+05  -2.199785e+05
  -5.698060e+03  -2.256131e+05
  -3.003019e+05  -1.131585e+05
  -3.682850e+04  -1.303473e+05
   6.853077e+05  -2.261404e+05
   1.020964e+06   3.622058e+01
   3.825235e+05   6.566865e+05
  -8.348275e+05   1.145647e+06
  -1.621542e+06   7.527770e+05
  -1.343189e+06  -4.091814e+05
  -2.840275e+05  -1.378211e+06
   7.112961e+05  -1.354177e+06
   1.014074e+06  -5.249662e+05
   6.508550e+05   2.352267e+05
   1.230461e+05   3.461414e+05
  -9.695953e+04   4.110017e+04
   7.034656e+04  -4.455705e+04
   3.210364e+05   3.452686e+05
   2.744342e+05   7.891423e+05
  -1.675942e+05   6.615000e+05
  -6.747510e+05  -1.284389e+05
  -7.217993e+05  -9.374207e+05
  -9.872998e+04  -1.000327e+06
   7.490016e+05  -2.246938e+05
   1.015794e+06   7.121551e+05
   3.441891e+05   1.055900e+06
  -6.863524e+05   6.550487e+05
  -1.080870e+06  -5.592306e+04
  -5.189320e+05  -5.641608e+05
   2.603704e+05  -6.420271e+05
   3.365020e+05  -3.655533e+05
  -2.700423e+05  -1.853994e+04
  -6.428640e+05   4.711749e+04
  -1.412466e+05  -2.917978e+05
   7.950352e+05  -6.875268e+05
   1.201147e+06  -5.819223e+05
   7.255882e+05   1.309287e+05
  -7.646332e+04   8.425750e+05
  -4.960640e+05   8.430390e+05
  -3.826276e+05   1.513995e+05
  -4.672903e+04  -4.780624e+05
   2.280409e+05  -4.161135e+05
   3.465358e+05   1.614893e+05
   2.577848e+05   5.606877e+05
  -4.575137e+04   3.962935e+05
  -3.816406e+05  -4.583467e+04
  -4.661040e+05  -2.460234e+05
  -2.417001e+05  -7.360601e+04
   2.719982e+04   1.252104e+05
   8.728277e+04   3.781003e+02
   1.695562e+04  -3.572728e+05
   8.137965e+04  -5.063828e+05
   3.168864e+05  -1.742480e+05
   4.208632e+05   3.859979e+05
   1.242251e+05   6.289811e+05
  -4.037141e+05   3.036076e+05
  -6.388871e+05  -2.727660e+05
  -2.478499e+05  -5.643429e+05
   4.814138e+05  -3.671127e+05
   8.508695e+05   6.295984e+04
   4.707538e+05   3.589683e+05
  -2.763301e+05   3.808917e+05
  -6.115432e+05   2.167644e+05
  -2.257527e+05   2.251566e+04
   3.610746e+05  -5.174759e+04
   4.072172e+05   8.133393e+04
  -1.818522e+05   3.018807e+05
  -7.571035e+05   2.766798e+05
