
 $NMID
 id='ANONYMOUS ', fmtdat='(2E16.6)'
 volume=1.0
 tramp=1.0
 $END
   3.645395e+07  -3.933620e+05
   2.380094e+07   1.967228e+07
  -1.956362e+06   2.422580e+07
  -1.704824e+07   1.287753e+07
  -1.247525e+07  -1.415843e+06
   5.494098e+05  -6.544785e+06
   7.194353e+06  -1.370111e+06
   3.906084e+06   6.309965e+06
  -2.995987e+06   8.374502e+06
  -6.768206e+06   3.026217e+06
  -5.282339e+06  -4.442430e+06
  -5.785212e+05  -6.706979e+06
   3.069726e+06  -1.656757e+06
   2.171471e+06   5.088810e+06
  -2.442138e+06   6.022931e+06
  -5.771719e+06  -4.155383e+04
  -3.818682e+06  -7.006198e+06
   2.036989e+06  -8.520502e+06
   6.784631e+06  -4.152182e+06
   7.039237e+06   1.680894e+06
   3.657112e+06   4.881394e+06
   8.783871e+04   4.710056e+06
  -8.272931e+05   3.129433e+06
   8.058942e+05   2.535318e+06
   1.875312e+06   3.592793e+06
  -6.279376e+05   4.517284e+06
  -5.601272e+06   2.999622e+06
  -8.099899e+06  -7.525812e+05
  -4.936670e+06  -3.750554e+06
   1.023938e+06  -3.542467e+06
   3.926963e+06  -8.940181e+05
   1.679293e+06   1.442739e+06
  -2.265859e+06   1.639169e+06
  -3.655531e+06  -2.071036e+05
  -1.892013e+06  -2.740243e+06
   6.560457e+05  -3.949175e+06
   1.868428e+06  -2.345557e+06
   1.364450e+06   9.522280e+05
   8.807997e+04   2.373076e+06
  -4.575171e+05   4.269466e+04
   6.252079e+05  -3.014371e+06
   2.295682e+06  -2.247826e+06
   2.154016e+06   2.015507e+06
  -6.410005e+05   4.339336e+06
  -3.616482e+06   1.237675e+06
  -3.322897e+06  -4.029871e+06
   6.659573e+05  -5.509880e+06
   4.967259e+06  -1.737168e+06
   5.704874e+06   3.209107e+06
   2.163233e+06   4.904790e+06
  -2.692366e+06   2.759732e+06
  -4.860266e+06  -6.779953e+05
  -2.753128e+06  -2.629274e+06
   1.346097e+06  -1.980757e+06
   3.410213e+06   2.498103e+05
   1.778131e+06   1.749584e+06
  -1.112576e+06   1.068289e+06
  -1.707075e+06  -7.348287e+05
   3.701326e+05  -1.301948e+06
   2.059093e+06   1.056542e+05
   8.573797e+05   1.784858e+06
  -2.143266e+06   1.791155e+06
  -3.708751e+06  -3.145801e+04
  -2.066169e+06  -2.424675e+06
   1.599112e+06  -3.981078e+06
   4.619579e+06  -3.588457e+06
   5.098983e+06  -8.652889e+05
   3.101996e+06   2.877088e+06
   3.730637e+05   5.016005e+06
  -1.168187e+06   4.165236e+06
  -1.117660e+06   1.875817e+06
  -7.563614e+05   7.065379e+05
  -1.327905e+06   9.901475e+05
  -2.460654e+06   7.995730e+05
  -2.702895e+06  -9.361128e+05
  -1.347542e+06  -2.701088e+06
   7.712928e+05  -2.355017e+06
   2.127109e+06   1.122215e+05
   1.708628e+06   2.547942e+06
  -3.457609e+05   2.912776e+06
  -2.691700e+06   1.034433e+06
  -3.517447e+06  -1.575610e+06
  -2.106635e+06  -3.127322e+06
   2.411206e+05  -2.928502e+06
   1.520061e+06  -1.775704e+06
   1.378779e+06  -9.841018e+05
   1.407376e+06  -9.208828e+05
   2.724486e+06  -6.930954e+05
   4.100008e+06   6.006873e+05
   3.316096e+06   2.620731e+06
   6.798771e+04   4.015774e+06
  -3.339191e+06   3.678798e+06
  -4.300901e+06   1.647837e+06
  -2.440352e+06  -8.843077e+05
   2.554477e+05  -2.268488e+06
   1.446405e+06  -1.619263e+06
   4.873173e+05   1.940333e+05
  -1.223341e+06   1.158162e+06
  -1.768269e+06   2.886340e+05
  -6.712800e+05  -1.112389e+06
   6.820366e+05  -1.072121e+06
   6.680073e+05   3.805187e+05
  -7.169503e+05   1.101257e+06
  -1.886751e+06  -3.954916e+05
  -1.408701e+06  -2.901149e+06
   6.256327e+05  -3.828502e+06
   2.848231e+06  -2.083650e+06
   3.778280e+06   9.468182e+05
   2.787987e+06   2.991150e+06
   5.227694e+05   2.934360e+06
  -1.402381e+06   1.435414e+06
  -1.643827e+06   7.090643e+04
  -4.885300e+05  -6.320938e+04
   3.434976e+05   7.471429e+05
  -3.373328e+05   1.221604e+06
  -1.704924e+06   5.275883e+05
  -1.915193e+06  -7.455333e+05
  -4.530420e+05  -1.283831e+06
   1.133165e+06  -5.968373e+05
   1.021409e+06   4.739472e+05
  -7.783689e+05   7.555463e+05
  -2.406328e+06  -9.755738e+04
  -2.079948e+06  -1.439351e+06
   1.404423e+05  -2.235863e+06
   2.409642e+06  -1.777826e+06
   2.817054e+06  -2.480669e+05
   1.163492e+06   1.199185e+06
  -8.689999e+05   1.324517e+06
  -1.375034e+06   1.275444e+05
  -8.650080e+04  -9.713533e+05
   1.485261e+06  -6.563238e+05
   1.709640e+06   7.435645e+05
   4.475926e+05   1.651963e+06
  -1.001804e+06   1.116840e+06
  -1.313998e+06  -1.562961e+05
  -3.759072e+05  -7.372818e+05
   7.011010e+05  -7.515404e+04
   6.615196e+05   1.034121e+06
  -6.528107e+05   1.360213e+06
  -2.016870e+06   4.167116e+05
  -1.953814e+06  -1.130496e+06
  -3.195824e+05  -2.044842e+06
   1.418161e+06  -1.594499e+06
   1.704538e+06  -2.246096e+05
   5.450171e+05   8.520452e+05
  -6.473795e+05   8.279138e+05
  -7.227099e+05   3.763582e+04
   7.193998e+04  -5.281190e+05
   6.480699e+05  -3.456083e+05
   3.797229e+05   1.476760e+05
  -3.372734e+05   1.578699e+05
  -6.005917e+05  -5.080745e+05
   1.021842e+05  -1.160971e+06
   1.357407e+06  -8.953362e+05
   2.062981e+06   4.472074e+05
   1.393398e+06   1.967933e+06
  -2.979146e+05   2.445602e+06
  -1.694668e+06   1.482100e+06
  -1.822061e+06  -9.822490e+04
  -1.002465e+06  -1.061472e+06
  -3.198722e+05  -9.508953e+05
  -3.007443e+05  -3.890084e+05
  -4.488644e+05  -2.437459e+05
  -5.739355e+04  -6.470487e+05
   8.495264e+05  -9.143955e+05
   1.505615e+06  -3.732355e+05
   1.155895e+06   8.035813e+05
  -2.271893e+05   1.613403e+06
  -1.786177e+06   1.127726e+06
  -2.301016e+06  -5.289880e+05
  -1.163525e+06  -2.118134e+06
   9.438718e+05  -2.344655e+06
   2.485327e+06  -1.067727e+06
   2.422153e+06   5.912807e+05
   1.124622e+06   1.389320e+06
  -1.458240e+05   1.131791e+06
  -5.512624e+05   6.456081e+05
  -3.266877e+05   7.014989e+05
  -2.382918e+05   1.149586e+06
  -6.587405e+05   1.167576e+06
  -1.228098e+06   2.525125e+05
  -1.268373e+06  -1.134913e+06
  -4.761552e+05  -1.922152e+06
   6.904346e+05  -1.416892e+06
   1.306593e+06   1.609522e+04
   8.219341e+05   1.249231e+06
  -3.243229e+05   1.388978e+06
  -1.067368e+06   5.163388e+05
  -8.010996e+05  -5.217825e+05
   4.168251e+03  -9.794180e+05
   3.903260e+05  -8.135279e+05
   3.663300e+04  -4.943076e+05
  -3.851621e+05  -3.847739e+05
  -2.388734e+04  -3.990776e+05
   1.099151e+06  -2.045060e+05
   1.974703e+06   3.512635e+05
   1.592868e+06   1.029511e+06
   3.421036e+04   1.368238e+06
  -1.496550e+06   1.071604e+06
  -1.808070e+06   3.042293e+05
  -8.783594e+05  -3.833718e+05
   2.136288e+05  -5.019368e+05
   4.829048e+05  -8.119761e+04
  -1.558443e+04   3.310268e+05
  -4.952512e+05   2.119597e+05
  -4.532878e+05  -3.597277e+05
  -1.194365e+05  -7.490820e+05
   2.016798e+04  -4.771554e+05
  -1.628959e+05   1.614219e+05
  -3.833694e+05   3.628010e+05
  -2.901322e+05  -2.331046e+05
   2.321217e+05  -1.013075e+06
   9.297236e+05  -1.019036e+06
   1.238692e+06  -7.654978e+04
   6.995371e+05   9.331550e+05
  -4.420777e+05   1.030173e+06
  -1.188282e+06   2.038726e+05
  -6.950996e+05  -6.318638e+05
   7.030569e+05  -6.519948e+05
   1.647147e+06   9.833313e+04
   1.124432e+06   8.938842e+05
  -4.305733e+05   1.079227e+06
  -1.573164e+06   5.733988e+05
  -1.339783e+06  -1.707132e+05
  -1.678253e+05  -5.546923e+05
   6.580467e+05  -3.003318e+05
   3.481830e+05   2.721460e+05
  -6.480250e+05   4.484482e+05
  -1.167253e+06  -1.984592e+05
  -5.352431e+05  -1.239576e+06
   7.596220e+05  -1.639284e+06
   1.571327e+06  -7.612567e+05
   1.228676e+06   8.507180e+05
   1.182616e+05   1.841687e+06
  -8.097565e+05   1.335425e+06
  -9.593046e+05  -1.549492e+05
  -4.584860e+05  -1.226553e+06
   1.844863e+05  -1.034490e+06
   5.541749e+05  -1.030078e+05
   5.163721e+05   4.242784e+05
   2.236331e+05   1.775189e+05
   3.079653e+04  -1.195775e+05
   1.848248e+05   2.497059e+05
   4.475606e+05   9.747028e+05
   2.298633e+05   1.129527e+06
  -6.514656e+05   4.026865e+05
  -1.492270e+06  -5.334541e+05
  -1.342222e+06  -9.106837e+05
  -1.725540e+05  -7.017440e+05
   9.457657e+05  -3.743434e+05
   1.034243e+06  -1.674820e+05
   3.159074e+05   2.057596e+04
  -1.805853e+05   2.122295e+05
   2.488440e+04   2.566931e+05
   3.376028e+05   1.628155e+05
   1.382480e+04   1.368171e+05
  -7.602402e+05   1.667791e+05
  -1.044735e+06  -7.897111e+04
  -2.942277e+05  -6.868674e+05
   9.695272e+05  -1.094962e+06
   1.689515e+06  -6.415105e+05
   1.304082e+06   5.266525e+05
   1.830991e+05   1.442399e+06
  -8.113951e+05   1.334440e+06
  -1.074579e+06   4.454649e+05
  -6.562512e+05  -3.085635e+05
  -8.654357e+04  -3.614234e+05
   1.324833e+05  -8.136246e+03
  -6.681941e+04   6.889004e+04
  -3.265811e+05  -3.680352e+05
  -2.444256e+05  -8.326236e+05
   2.240123e+05  -6.598206e+05
   6.891094e+05   2.050877e+05
   6.520352e+05   1.035845e+06
  -8.188789e+03   1.025765e+06
  -8.033896e+05   1.403503e+05
  -9.788354e+05  -8.345790e+05
  -2.569554e+05  -1.104543e+06
   7.535270e+05  -5.980827e+05
   1.088157e+06   1.405641e+05
   4.772023e+05   5.882003e+05
  -3.050573e+05   6.092204e+05
  -3.401715e+05   3.489830e+05
   3.077749e+05   5.533561e+04
   6.725062e+05   2.842388e+03
   1.144495e+05   3.018975e+05
  -8.660167e+05   6.568011e+05
  -1.250937e+06   5.445494e+05
  -7.078961e+05  -1.540728e+05
   1.381945e+05  -8.476511e+05
   5.377668e+05  -8.231677e+05
   3.675539e+05  -1.097243e+05
  -4.875850e+03   5.061697e+05
  -2.673848e+05   3.930582e+05
  -3.427909e+05  -2.202429e+05
  -2.209030e+05  -5.951570e+05
   7.906871e+04  -3.759270e+05
   3.860700e+05   8.685839e+04
   4.545175e+05   2.633547e+05
   2.457257e+05   7.392082e+04
  -7.364237e+03  -1.050715e+05
  -9.606990e+04   4.210145e+04
  -8.688398e+04   3.796012e+05
  -1.738170e+05   4.737273e+05
  -3.494058e+05   9.938939e+04
  -3.605242e+05  -4.568267e+05
  -2.915290e+04  -6.527986e+05
   4.498683e+05  -2.664143e+05
   6.144926e+05   3.431157e+05
   1.974385e+05   6.078369e+05
  -5.113520e+05   3.399557e+05
  -8.503863e+05  -1.364148e+05
  -4.492574e+05  -4.020428e+05
   3.080334e+05  -3.491727e+05
   6.320646e+05  -1.525463e+05
   2.093016e+05  -5.519192e+03
  -4.046775e+05  -1.614457e+03
  -4.211590e+05  -1.483755e+05
   2.385375e+05  -3.137802e+05
   8.426261e+05  -2.228175e+05
