
 $NMID
 id='ANONYMOUS ', fmtdat='(2E16.6)'
 volume=1.0
 tramp=1.0
 $END
   4.612375e+07   6.973481e+05
   2.809202e+07   2.772702e+07
  -5.337028e+06   3.089689e+07
  -2.245150e+07   1.317395e+07
  -1.425310e+07  -4.526551e+06
   2.103864e+06  -7.833780e+06
   8.433123e+06   1.338603e+05
   3.121351e+06   8.045572e+06
  -4.750255e+06   8.658665e+06
  -8.187400e+06   2.303957e+06
  -5.986000e+06  -5.393041e+06
  -5.534545e+05  -7.596014e+06
   3.541123e+06  -2.126147e+06
   2.285932e+06   5.240905e+06
  -3.195113e+06   6.148769e+06
  -6.749319e+06  -8.299460e+05
  -3.924308e+06  -8.619154e+06
   3.088406e+06  -1.002160e+07
   8.481865e+06  -4.835045e+06
   8.838091e+06   2.013335e+06
   5.010285e+06   6.246658e+06
   2.681542e+05   6.671718e+06
  -1.973912e+06   4.544313e+06
  -6.137235e+05   2.561166e+06
   1.413670e+06   2.827970e+06
  -2.370847e+05   4.279819e+06
  -5.488890e+06   3.583100e+06
  -8.790960e+06  -2.561328e+05
  -5.881247e+06  -4.001204e+06
   4.344788e+05  -4.271702e+06
   3.802960e+06  -1.679206e+06
   2.058939e+06   7.145893e+05
  -1.403198e+06   1.242925e+06
  -2.907337e+06   1.111879e+05
  -1.993884e+06  -2.067872e+06
   2.028811e+04  -3.892480e+06
   1.866435e+06  -3.055645e+06
   2.296771e+06   5.512910e+05
   8.620890e+05   3.009049e+06
  -6.389817e+05   9.933642e+05
   1.637314e+05  -2.691371e+06
   2.386828e+06  -2.206764e+06
   2.226431e+06   2.630988e+06
  -1.641408e+06   5.164837e+06
  -5.289088e+06   1.003917e+06
  -4.091493e+06  -5.535217e+06
   1.424923e+06  -6.951390e+06
   6.195864e+06  -1.946869e+06
   6.196653e+06   3.913211e+06
   1.875314e+06   5.449659e+06
  -3.104788e+06   2.643762e+06
  -4.979698e+06  -1.191193e+06
  -2.494081e+06  -3.077384e+06
   1.912616e+06  -2.029017e+06
   3.924055e+06   6.633856e+05
   1.800422e+06   2.255755e+06
  -1.429735e+06   1.182027e+06
  -1.686038e+06  -9.047257e+05
   8.689281e+05  -1.072077e+06
   2.224381e+06   9.850635e+05
   4.473697e+04   2.603043e+06
  -3.414077e+06   1.758285e+06
  -4.456680e+06  -7.886208e+05
  -2.107734e+06  -3.223169e+06
   1.766261e+06  -4.555986e+06
   4.836112e+06  -4.100711e+06
   5.619387e+06  -1.204589e+06
   3.766552e+06   3.055115e+06
   5.606919e+05   5.557329e+06
  -1.586085e+06   4.394387e+06
  -1.457446e+06   1.492057e+06
  -4.451887e+05   2.034453e+05
  -6.361538e+05   9.681160e+05
  -2.020585e+06   1.266163e+06
  -2.728724e+06  -3.708059e+05
  -1.645925e+06  -2.309053e+06
   3.920059e+05  -2.220503e+06
   1.814062e+06  -2.344538e+04
   1.638938e+06   2.308637e+06
  -2.126450e+05   2.892438e+06
  -2.726118e+06   1.294673e+06
  -3.944888e+06  -1.431937e+06
  -2.592974e+06  -3.464372e+06
   1.989018e+05  -3.558363e+06
   1.931057e+06  -2.202963e+06
   1.818965e+06  -1.018303e+06
   1.623658e+06  -7.601712e+05
   2.818329e+06  -5.268420e+05
   4.175032e+06   7.514931e+05
   3.323730e+06   2.730352e+06
   2.738328e+04   4.037614e+06
  -3.307331e+06   3.702127e+06
  -4.230651e+06   1.803036e+06
  -2.520175e+06  -6.824757e+05
   1.794196e+04  -2.233142e+06
   1.287060e+06  -1.746635e+06
   5.211827e+05   1.201898e+05
  -1.165440e+06   1.206906e+06
  -1.832021e+06   3.100247e+05
  -7.746408e+05  -1.166332e+06
   6.109623e+05  -1.074883e+06
   5.311724e+05   3.916381e+05
  -9.078547e+05   8.651640e+05
  -1.837540e+06  -8.893713e+05
  -9.403697e+05  -3.196407e+06
   1.187113e+06  -3.554792e+06
   3.001529e+06  -1.504542e+06
   3.476935e+06   1.261294e+06
   2.443787e+06   2.889932e+06
   4.319584e+05   2.748932e+06
  -1.332961e+06   1.414941e+06
  -1.599321e+06   1.233163e+05
  -4.860629e+05  -6.273594e+04
   3.347428e+05   7.510740e+05
  -3.996430e+05   1.268911e+06
  -1.810595e+06   5.163903e+05
  -1.948717e+06  -8.534302e+05
  -3.876627e+05  -1.353486e+06
   1.157488e+06  -5.569727e+05
   9.351161e+05   4.793043e+05
  -8.226682e+05   6.092328e+05
  -2.264665e+06  -2.594638e+05
  -1.859119e+06  -1.421423e+06
   2.375552e+05  -2.074534e+06
   2.371432e+06  -1.653797e+06
   2.779249e+06  -2.060890e+05
   1.160352e+06   1.249554e+06
  -9.174603e+05   1.393411e+06
  -1.468117e+06   1.314852e+05
  -1.275025e+05  -1.026587e+06
   1.506123e+06  -6.663618e+05
   1.688333e+06   7.928741e+05
   3.525830e+05   1.649179e+06
  -1.064782e+06   1.013019e+06
  -1.270138e+06  -2.652761e+05
  -2.876467e+05  -7.629437e+05
   7.501071e+05  -4.896212e+04
   6.782095e+05   1.051992e+06
  -6.338603e+05   1.375053e+06
  -2.008893e+06   4.439889e+05
  -1.965328e+06  -1.118403e+06
  -3.124523e+05  -2.055458e+06
   1.453156e+06  -1.582939e+06
   1.710134e+06  -1.813048e+05
   5.010211e+05   8.664552e+05
  -6.659813e+05   7.964645e+05
  -6.708380e+05   4.510919e+04
   1.056524e+05  -4.317630e+05
   5.640673e+05  -2.577083e+05
   2.351927e+05   1.066786e+05
  -3.961002e+05   2.112817e+04
  -5.397120e+05  -6.051272e+05
   1.817339e+05  -1.164616e+06
   1.380058e+06  -8.626815e+05
   2.051850e+06   4.669646e+05
   1.385675e+06   1.970259e+06
  -2.991060e+05   2.411676e+06
  -1.668662e+06   1.402028e+06
  -1.735534e+06  -1.473798e+05
  -8.974024e+05  -9.824602e+05
  -3.007567e+05  -7.873745e+05
  -3.893935e+05  -3.013774e+05
  -5.379052e+05  -2.907554e+05
  -6.154409e+04  -7.083622e+05
   8.764132e+05  -8.840120e+05
   1.471094e+06  -3.151681e+05
   1.075006e+06   7.752916e+05
  -2.684689e+05   1.513738e+06
  -1.760909e+06   1.055593e+06
  -2.247106e+06  -5.452796e+05
  -1.098108e+06  -2.117310e+06
   1.020540e+06  -2.322020e+06
   2.521608e+06  -9.912387e+05
   2.355025e+06   6.721245e+05
   9.975912e+05   1.373099e+06
  -1.984958e+05   1.018630e+06
  -4.698954e+05   5.577976e+05
  -2.021772e+05   7.216004e+05
  -1.865574e+05   1.225507e+06
  -6.849561e+05   1.213690e+06
  -1.261960e+06   2.627871e+05
  -1.277068e+06  -1.122868e+06
  -4.806385e+05  -1.904754e+06
   6.758917e+05  -1.406415e+06
   1.286544e+06   3.367511e+04
   7.865449e+05   1.276201e+06
  -3.861650e+05   1.377005e+06
  -1.122243e+06   4.298552e+05
  -7.894966e+05  -6.313153e+05
   9.012981e+04  -1.025047e+06
   4.843828e+05  -7.818358e+05
   7.218058e+04  -4.465640e+05
  -4.024954e+05  -3.629525e+05
  -3.623906e+04  -3.885385e+05
   1.123659e+06  -1.843870e+05
   2.004628e+06   3.777498e+05
   1.576193e+06   1.058292e+06
  -3.348144e+04   1.396750e+06
  -1.560319e+06   1.073277e+06
  -1.815490e+06   2.518575e+05
  -8.393398e+05  -4.596166e+05
   2.491546e+05  -5.316300e+05
   4.970671e+05  -4.445233e+04
   3.286069e+03   3.794813e+05
  -4.671336e+05   2.277173e+05
  -4.596889e+05  -3.563568e+05
  -1.804097e+05  -7.330130e+05
  -3.662860e+04  -4.758985e+05
  -1.499611e+05   1.196810e+05
  -3.284377e+05   3.140630e+05
  -2.754925e+05  -2.366982e+05
   1.983180e+05  -9.879096e+05
   9.266240e+05  -1.022025e+06
   1.303806e+06  -1.078857e+05
   7.649702e+05   9.313030e+05
  -4.444312e+05   1.078360e+06
  -1.225903e+06   2.563056e+05
  -7.015754e+05  -6.077124e+05
   7.111124e+05  -6.322308e+05
   1.601333e+06   1.286514e+05
   1.031300e+06   8.924277e+05
  -4.801260e+05   1.011435e+06
  -1.531429e+06   4.837452e+05
  -1.266067e+06  -2.077920e+05
  -1.362500e+05  -5.309340e+05
   6.552300e+05  -2.671440e+05
   3.621151e+05   2.907834e+05
  -6.161970e+05   4.778652e+05
  -1.167499e+06  -1.495217e+05
  -5.909694e+05  -1.208968e+06
   6.846421e+05  -1.655822e+06
   1.525642e+06  -8.035851e+05
   1.223607e+06   8.135502e+05
   1.337680e+05   1.805258e+06
  -7.897460e+05   1.288501e+06
  -9.309505e+05  -1.865862e+05
  -4.150965e+05  -1.208892e+06
   2.263114e+05  -9.855340e+05
   5.588042e+05  -7.950668e+04
   4.742387e+05   4.036027e+05
   1.814436e+05   1.560558e+05
   4.428293e+04  -1.031608e+05
   2.388015e+05   2.813459e+05
   4.652551e+05   9.746080e+05
   1.813185e+05   1.097286e+06
  -6.971134e+05   3.827722e+05
  -1.464618e+06  -5.180375e+05
  -1.278851e+06  -8.872135e+05
  -1.655699e+05  -7.005457e+05
   8.901380e+05  -3.828788e+05
   1.001471e+06  -1.553307e+05
   3.435277e+05   4.807926e+04
  -1.613770e+05   2.165766e+05
  -2.019255e+04   2.225369e+05
   2.852276e+05   1.241203e+05
   3.542385e+04   1.341841e+05
  -6.956154e+05   1.969382e+05
  -1.041190e+06  -5.438576e+04
  -3.724413e+05  -6.938893e+05
   9.022737e+05  -1.127829e+06
   1.703877e+06  -6.836862e+05
   1.362100e+06   4.860785e+05
   2.163724e+05   1.417125e+06
  -8.053782e+05   1.342588e+06
  -1.063117e+06   4.862552e+05
  -6.475512e+05  -2.685412e+05
  -1.115883e+05  -3.599301e+05
   8.934096e+04  -4.527153e+04
  -7.817918e+04   3.156588e+04
  -3.003578e+05  -3.736737e+05
  -2.288288e+05  -8.187166e+05
   2.054042e+05  -6.670700e+05
   6.774082e+05   1.593670e+05
   6.907040e+05   9.863776e+05
   5.927411e+04   1.026408e+06
  -7.677336e+05   2.002086e+05
  -9.993161e+05  -7.702838e+05
  -2.998951e+05  -1.095758e+06
   7.340981e+05  -6.384944e+05
   1.104321e+06   1.142458e+05
   5.037753e+05   6.132545e+05
  -3.028739e+05   6.512012e+05
  -3.743404e+05   3.555130e+05
   2.621638e+05   2.871055e+04
   6.541862e+05  -1.393193e+04
   1.314925e+05   3.076854e+05
  -8.481537e+05   6.536408e+05
  -1.265731e+06   5.152127e+05
  -7.431032e+05  -1.843568e+05
   1.243657e+05  -8.585974e+05
   5.634308e+05  -8.350022e+05
   4.107550e+05  -1.408306e+05
   2.749443e+04   4.847789e+05
  -2.536104e+05   4.176888e+05
  -3.437404e+05  -1.729874e+05
  -2.328743e+05  -5.850688e+05
   6.633854e+04  -4.111366e+05
   3.868006e+05   6.321807e+04
   4.643286e+05   2.844218e+05
   2.417884e+05   9.532794e+04
  -2.576907e+04  -1.378849e+05
  -8.811429e+04  -2.304791e+04
  -2.161405e+04   3.566071e+05
  -9.011685e+04   5.243257e+05
  -3.265272e+05   1.802066e+05
  -4.223891e+05  -4.041944e+05
  -1.111036e+05  -6.467343e+05
   4.227169e+05  -2.924776e+05
   6.432235e+05   3.063640e+05
   2.269159e+05   5.843433e+05
  -5.141009e+05   3.485538e+05
  -8.698462e+05  -1.067603e+05
  -4.627901e+05  -3.916088e+05
   3.029661e+05  -3.808736e+05
   6.383355e+05  -1.968896e+05
   2.399785e+05  -1.176288e+04
  -3.588264e+05   4.225604e+04
  -4.060469e+05  -9.271411e+04
   1.915527e+05  -2.904346e+05
   7.699988e+05  -2.411163e+05
