
 $NMID
 id='ANONYMOUS ', fmtdat='(2E16.6)'
 volume=1.0
 tramp=1.0
 $END
   6.389678e+07  -9.869275e+05
   3.869011e+07   3.937796e+07
  -8.227364e+06   4.338205e+07
  -3.106697e+07   1.654468e+07
  -1.843704e+07  -8.114818e+06
   3.830263e+06  -1.051985e+07
   1.097532e+07   1.535641e+06
   2.986732e+06   1.097355e+07
  -6.959100e+06   1.029676e+07
  -1.077415e+07   2.175092e+06
  -7.939662e+06  -6.810557e+06
  -1.114539e+06  -9.553742e+06
   4.400212e+06  -3.225046e+06
   3.058859e+06   5.847508e+06
  -4.095291e+06   7.202765e+06
  -8.820693e+06  -1.486267e+06
  -5.087538e+06  -1.140016e+07
   4.110102e+06  -1.329568e+07
   1.130096e+07  -6.845656e+06
   1.230640e+07   2.058836e+06
   7.767138e+06   8.379045e+06
   9.909831e+05   9.961472e+06
  -3.387810e+06   7.030856e+06
  -2.368458e+06   2.904548e+06
   1.166337e+06   2.023056e+06
   5.584766e+05   4.451391e+06
  -5.686013e+06   5.131835e+06
  -1.067752e+07   9.902484e+05
  -8.047328e+06  -4.354665e+06
  -5.939762e+05  -5.732833e+06
   3.939299e+06  -3.169240e+06
   2.840287e+06  -3.107936e+05
  -3.271949e+05   9.640589e+05
  -2.233036e+06   7.558585e+05
  -2.497760e+06  -1.267726e+06
  -1.091173e+06  -4.249390e+06
   1.856894e+06  -4.455531e+06
   3.817675e+06  -7.109436e+04
   2.183710e+06   4.119080e+06
  -8.850133e+05   2.396563e+06
  -6.205108e+05  -2.573997e+06
   2.608707e+06  -2.560868e+06
   2.745822e+06   3.569166e+06
  -2.775464e+06   6.919723e+06
  -7.990764e+06   1.166714e+06
  -5.927625e+06  -7.832218e+06
   2.096429e+06  -9.696716e+06
   8.348111e+06  -2.863803e+06
   7.788009e+06   4.827593e+06
   2.082652e+06   6.622031e+06
  -3.795255e+06   2.995916e+06
  -5.757829e+06  -1.642200e+06
  -2.639782e+06  -3.822303e+06
   2.721260e+06  -2.445662e+06
   5.070547e+06   1.003989e+06
   2.182733e+06   3.039414e+06
  -1.918607e+06   1.560045e+06
  -1.904988e+06  -1.106144e+06
   1.540569e+06  -9.440252e+05
   2.745992e+06   2.091911e+06
  -8.409759e+05   3.951872e+06
  -5.331345e+06   2.137426e+06
  -5.974336e+06  -1.560694e+06
  -2.613194e+06  -4.474679e+06
   1.859979e+06  -5.931050e+06
   5.359870e+06  -5.561367e+06
   6.831905e+06  -2.176317e+06
   5.265686e+06   3.359556e+06
   1.258862e+06   6.835467e+06
  -1.998219e+06   5.282829e+06
  -1.954451e+06   1.249788e+06
  -6.606858e+04  -4.028658e+05
   2.743494e+05   1.094620e+06
  -1.573838e+06   2.165036e+06
  -3.089727e+06   5.273989e+05
  -2.385544e+06  -1.928733e+06
  -2.246768e+05  -2.316041e+06
   1.598329e+06  -3.373106e+05
   1.892112e+06   2.126459e+06
   1.460350e+05   3.196171e+06
  -2.977505e+06   1.971848e+06
  -5.039083e+06  -1.121465e+06
  -3.757974e+06  -4.104451e+06
  -8.212307e+04  -4.788508e+06
   2.529382e+06  -3.137896e+06
   2.524128e+06  -1.298744e+06
   2.029101e+06  -7.442494e+05
   3.208379e+06  -5.644934e+05
   4.778440e+06   7.355717e+05
   3.887358e+06   2.934734e+06
   2.639122e+05   4.501934e+06
  -3.361009e+06   4.369713e+06
  -4.470433e+06   2.504549e+06
  -2.949413e+06  -3.119615e+05
  -4.523004e+05  -2.432363e+06
   1.093852e+06  -2.197479e+06
   6.319958e+05  -1.327888e+03
  -1.129741e+06   1.485739e+06
  -2.092879e+06   5.023638e+05
  -1.077841e+06  -1.309549e+06
   5.067090e+05  -1.240060e+06
   4.366222e+05   4.088608e+05
  -1.193165e+06   7.110457e+05
  -2.030219e+06  -1.504288e+06
  -6.504976e+05  -3.860401e+06
   1.799401e+06  -3.659592e+06
   3.416556e+06  -1.117584e+06
   3.544493e+06   1.562341e+06
   2.462510e+06   2.893576e+06
   5.564922e+05   2.771588e+06
  -1.285610e+06   1.636921e+06
  -1.706290e+06   3.198881e+05
  -5.402101e+05  -3.438791e+04
   4.130756e+05   8.135839e+05
  -4.347514e+05   1.496593e+06
  -2.108977e+06   6.858930e+05
  -2.264248e+06  -9.490709e+05
  -4.401133e+05  -1.563575e+06
   1.274326e+06  -6.475136e+05
   9.568956e+05   4.701831e+05
  -9.250137e+05   5.402334e+05
  -2.340180e+06  -3.383934e+05
  -1.871124e+06  -1.417449e+06
   2.419649e+05  -2.102981e+06
   2.459452e+06  -1.839012e+06
   3.016094e+06  -3.714135e+05
   1.370916e+06   1.368840e+06
  -9.820441e+05   1.700396e+06
  -1.740758e+06   2.549147e+05
  -2.682605e+05  -1.201860e+06
   1.649369e+06  -8.590868e+05
   1.899523e+06   8.231445e+05
   3.835686e+05   1.798434e+06
  -1.189798e+06   1.061833e+06
  -1.368144e+06  -3.461318e+05
  -2.573104e+05  -8.578207e+05
   8.914975e+05  -7.283611e+04
   8.479888e+05   1.140963e+06
  -5.798855e+05   1.588393e+06
  -2.184592e+06   6.707508e+05
  -2.273123e+06  -1.084055e+06
  -4.831414e+05  -2.270053e+06
   1.544095e+06  -1.842663e+06
   1.890009e+06  -2.658615e+05
   5.595404e+05   9.432883e+05
  -7.053031e+05   8.889793e+05
  -6.721923e+05   1.086072e+05
   1.294384e+05  -3.584825e+05
   4.949834e+05  -2.107754e+05
   7.814882e+04   4.585169e+04
  -5.135671e+05  -1.294487e+05
  -5.598121e+05  -7.597674e+05
   2.237345e+05  -1.307694e+06
   1.497955e+06  -1.010837e+06
   2.292569e+06   3.977875e+05
   1.665692e+06   2.088455e+06
  -1.613692e+05   2.649995e+06
  -1.715039e+06   1.567842e+06
  -1.820139e+06  -1.037784e+05
  -9.274145e+05  -9.204953e+05
  -3.659975e+05  -6.364349e+05
  -5.705110e+05  -1.922807e+05
  -7.332988e+05  -3.470194e+05
  -1.229517e+05  -8.615927e+05
   9.440946e+05  -1.001666e+06
   1.562278e+06  -3.773094e+05
   1.140229e+06   7.453278e+05
  -2.436688e+05   1.565345e+06
  -1.842969e+06   1.200194e+06
  -2.458331e+06  -4.657856e+05
  -1.281559e+06  -2.266994e+06
   1.066698e+06  -2.615636e+06
   2.771457e+06  -1.176998e+06
   2.569138e+06   6.831374e+05
   1.036641e+06   1.428377e+06
  -2.155962e+05   9.938430e+05
  -3.732741e+05   5.371201e+05
  -9.340655e+03   8.420866e+05
  -5.252332e+04   1.472198e+06
  -7.079978e+05   1.454443e+06
  -1.424820e+06   3.941322e+05
  -1.506975e+06  -1.138147e+06
  -6.742794e+05  -2.054350e+06
   6.299316e+05  -1.593422e+06
   1.401858e+06  -3.132336e+04
   9.156989e+05   1.393695e+06
  -4.113340e+05   1.537336e+06
  -1.284500e+06   4.418980e+05
  -9.033823e+05  -7.875517e+05
   1.406404e+05  -1.201562e+06
   6.045786e+05  -8.582175e+05
   9.437276e+04  -4.369972e+05
  -4.949302e+05  -3.454179e+05
  -8.398179e+04  -4.144729e+05
   1.264481e+06  -2.573063e+05
   2.287831e+06   3.117049e+05
   1.799988e+06   1.098744e+06
  -2.716921e+04   1.587130e+06
  -1.737078e+06   1.301898e+06
  -2.003638e+06   3.393216e+05
  -9.108384e+05  -5.494834e+05
   2.855177e+05  -6.455654e+05
   5.660036e+05  -3.605690e+04
   5.464452e+04   4.844522e+05
  -4.651022e+05   3.066914e+05
  -5.433992e+05  -3.581507e+05
  -3.323056e+05  -7.795261e+05
  -1.490489e+05  -5.240543e+05
  -1.402892e+05   8.855676e+04
  -2.689118e+05   3.079482e+05
  -3.026243e+05  -2.474600e+05
   1.052094e+05  -1.076410e+06
   9.505500e+05  -1.202393e+06
   1.523372e+06  -2.523236e+05
   9.999518e+05   9.764319e+05
  -4.198319e+05   1.290109e+06
  -1.390840e+06   4.394822e+05
  -8.296722e+05  -5.922534e+05
   7.537756e+05  -7.252713e+05
   1.723712e+06   6.821576e+04
   1.084194e+06   9.130087e+05
  -5.247401e+05   1.065577e+06
  -1.607296e+06   5.276636e+05
  -1.320823e+06  -1.882339e+05
  -1.475554e+05  -5.472325e+05
   7.031539e+05  -2.991214e+05
   4.400877e+05   3.211907e+05
  -6.076181e+05   6.124667e+05
  -1.305672e+06  -1.852957e+04
  -8.145318e+05  -1.258661e+06
   5.430764e+05  -1.906827e+06
   1.574722e+06  -1.055332e+06
   1.408023e+06   7.660988e+05
   2.972903e+05   1.944053e+06
  -7.570830e+05   1.423008e+06
  -1.007520e+06  -1.819434e+05
  -4.891598e+05  -1.286771e+06
   2.351559e+05  -1.043574e+06
   6.194705e+05  -9.683057e+04
   4.992236e+05   3.859581e+05
   1.570703e+05   1.312828e+05
   5.924496e+04  -9.578998e+04
   3.551439e+05   3.371741e+05
   6.082029e+05   1.047401e+06
   2.156295e+05   1.160456e+06
  -8.052413e+05   4.470441e+05
  -1.624224e+06  -4.496285e+05
  -1.397682e+06  -8.610163e+05
  -2.240663e+05  -7.631453e+05
   8.866277e+05  -4.995691e+05
   1.055894e+06  -2.277470e+05
   4.201155e+05   6.543172e+04
  -1.383312e+05   2.575512e+05
  -6.535175e+04   2.026917e+05
   2.566471e+05   6.579578e+04
   7.714841e+04   1.429975e+05
  -6.726105e+05   3.081306e+05
  -1.153644e+06   4.597921e+04
  -5.647365e+05  -7.530006e+05
   8.321962e+05  -1.358346e+06
   1.859648e+06  -9.340355e+05
   1.621154e+06   3.896440e+05
   3.844716e+05   1.522787e+06
  -7.896823e+05   1.556160e+06
  -1.129407e+06   6.681489e+05
  -7.259175e+05  -1.990165e+05
  -1.821308e+05  -3.893794e+05
   3.964312e+04  -1.058604e+05
  -9.883324e+04  -8.650438e+03
  -3.249240e+05  -3.999223e+05
  -2.914889e+05  -8.727547e+05
   1.559249e+05  -7.637714e+05
   7.474214e+05   6.830846e+04
   8.871509e+05   9.798586e+05
   2.272128e+05   1.135328e+06
  -7.908038e+05   3.555703e+05
  -1.190224e+06  -6.987464e+05
  -4.667344e+05  -1.182418e+06
   7.434689e+05  -8.132126e+05
   1.253812e+06   1.392133e+04
   6.364808e+05   6.772735e+05
  -2.872108e+05   7.984626e+05
  -4.346256e+05   4.287374e+05
   2.331538e+05  -2.235625e+04
   7.003420e+05  -8.413119e+04
   1.898891e+05   3.395840e+05
  -8.702682e+05   7.808714e+05
  -1.385505e+06   6.222449e+05
  -8.826520e+05  -1.918635e+05
   5.888296e+04  -9.751636e+05
   5.991611e+05  -9.807905e+05
   5.024996e+05  -2.255113e+05
   1.076894e+05   5.077908e+05
  -2.337425e+05   5.135392e+05
  -3.952181e+05  -1.053218e+05
  -3.155282e+05  -6.189357e+05
   2.812033e+04  -5.068709e+05
   4.345438e+05   1.157100e+04
   5.475031e+05   3.101141e+05
   2.693323e+05   1.165751e+05
  -6.207341e+04  -1.943517e+05
  -8.796567e+04  -1.047452e+05
   8.740157e+04   3.675322e+05
   4.656025e+04   6.552276e+05
  -3.202392e+05   3.294040e+05
  -5.788969e+05  -3.497978e+05
  -2.767767e+05  -7.021901e+05
   4.125270e+05  -3.888151e+05
   7.729907e+05   2.460850e+05
   3.320364e+05   6.011821e+05
  -5.488674e+05   4.341043e+05
  -9.977566e+05  -1.791994e+04
  -5.587193e+05  -3.877212e+05
   3.025698e+05  -4.854181e+05
   7.024698e+05  -3.217410e+05
   3.055841e+05  -3.785362e+04
  -3.351289e+05   1.305929e+05
  -4.376199e+05  -6.119197e+02
   1.296645e+05  -3.055386e+05
   7.412883e+05  -3.469932e+05
