
 $NMID
 id='ANONYMOUS ', fmtdat='(2E16.6)'
 volume=1.0
 tramp=1.0
 $END
  -2.661222e+07   2.012473e+05
  -1.767194e+07  -1.271581e+07
   2.212691e+05  -1.692113e+07
   1.148696e+07  -1.089057e+07
   9.438387e+06  -8.476020e+05
   4.698507e+05   4.712807e+06
  -5.273869e+06   2.210096e+06
  -3.882220e+06  -4.226959e+06
   1.284158e+06  -7.096607e+06
   4.902086e+06  -3.152785e+06
   4.294908e+06   3.356973e+06
   6.195312e+05   5.475306e+06
  -2.519442e+06   1.212167e+06
  -2.080101e+06  -4.458316e+06
   1.495970e+06  -5.308246e+06
   4.414084e+06  -4.825328e+05
   3.312042e+06   5.181076e+06
  -1.161477e+06   6.606185e+06
  -5.054325e+06   3.218941e+06
  -5.233068e+06  -1.447097e+06
  -2.325895e+06  -3.736570e+06
   3.272534e+05  -3.056171e+06
   2.289845e+05  -1.667861e+06
  -1.773034e+06  -1.883369e+06
  -2.377574e+06  -3.563745e+06
   5.573273e+05  -4.400171e+06
   5.189828e+06  -2.635268e+06
   7.083850e+06   8.215354e+05
   3.974992e+06   3.268704e+06
  -1.349646e+06   2.938193e+06
  -3.814839e+06   5.023538e+05
  -1.531229e+06  -1.811956e+06
   2.445011e+06  -2.075700e+06
   3.904344e+06   2.978309e+04
   1.962451e+06   2.860622e+06
  -8.019270e+05   3.819824e+06
  -1.769039e+06   1.762586e+06
  -7.802478e+05  -1.299673e+06
   4.809315e+05  -1.940199e+06
   5.459580e+05   6.047114e+05
  -6.454497e+05   3.102686e+06
  -1.915738e+06   2.157181e+06
  -1.841653e+06  -1.351426e+06
  -4.339752e+04  -3.179144e+06
   2.091259e+06  -1.002928e+06
   2.313513e+06   2.746257e+06
  -2.451402e+05   3.916918e+06
  -3.704692e+06   1.350463e+06
  -4.838035e+06  -2.336026e+06
  -2.238073e+06  -3.937419e+06
   2.024444e+06  -2.598478e+06
   4.239128e+06   9.365389e+04
   2.674351e+06   1.899441e+06
  -7.768693e+05   1.672157e+06
  -2.665759e+06   5.905780e+04
  -1.544572e+06  -1.180315e+06
   7.876648e+05  -8.581866e+05
   1.551376e+06   4.731461e+05
   1.046163e+05   1.212599e+06
  -1.535853e+06   5.220582e+05
  -1.167033e+06  -8.383579e+05
   1.039294e+06  -1.414333e+06
   2.693514e+06  -4.384019e+05
   1.757576e+06   1.604355e+06
  -1.309940e+06   3.285921e+06
  -4.030198e+06   3.098410e+06
  -4.353786e+06   6.716079e+05
  -2.481590e+06  -2.532113e+06
  -3.106547e+05  -4.243711e+06
   6.549837e+05  -3.584189e+06
   6.024666e+05  -1.920596e+06
   7.212252e+05  -1.092887e+06
   1.608290e+06  -1.164223e+06
   2.616477e+06  -6.538943e+05
   2.636762e+06   1.104608e+06
   1.256885e+06   2.729622e+06
  -8.069368e+05   2.361423e+06
  -2.177262e+06  -1.474916e+04
  -1.775553e+06  -2.377572e+06
   2.633689e+05  -2.711849e+06
   2.446631e+06  -8.855532e+05
   3.033833e+06   1.475779e+06
   1.660220e+06   2.655564e+06
  -2.732366e+05   2.279288e+06
  -1.144718e+06   1.305231e+06
  -9.325613e+05   8.262645e+05
  -1.057318e+06   9.531539e+05
  -2.346537e+06   8.403789e+05
  -3.675616e+06  -2.793192e+05
  -3.108262e+06  -2.163702e+06
  -2.670886e+05  -3.629008e+06
   2.898643e+06  -3.497957e+06
   3.925073e+06  -1.616643e+06
   2.260557e+06   8.447588e+05
  -2.744482e+05   2.160649e+06
  -1.376443e+06   1.496404e+06
  -4.454885e+05  -2.124929e+05
   1.112385e+06  -1.091051e+06
   1.557979e+06  -3.094862e+05
   5.774396e+05   9.727226e+05
  -6.184806e+05   1.018059e+06
  -7.074555e+05  -2.767648e+05
   4.210151e+05  -1.136153e+06
   1.640458e+06  -5.443219e+04
   1.641718e+06   2.264525e+06
   4.102660e+04   3.543288e+06
  -2.246834e+06   2.362725e+06
  -3.596483e+06  -4.031052e+05
  -2.925496e+06  -2.567787e+06
  -7.188424e+05  -2.743418e+06
   1.248902e+06  -1.403900e+06
   1.533884e+06  -1.189948e+05
   4.485679e+05   3.367575e+04
  -3.501313e+05  -6.604513e+05
   2.256152e+05  -1.079953e+06
   1.456962e+06  -5.353562e+05
   1.724434e+06   5.321286e+05
   4.904271e+05   1.084510e+06
  -9.805874e+05   6.098871e+05
  -1.004014e+06  -3.635132e+05
   6.118898e+05  -8.083775e+05
   2.248481e+06  -1.619220e+05
   2.108070e+06   1.171085e+06
   7.852483e+04   2.122030e+06
  -2.105095e+06   1.819181e+06
  -2.565461e+06   3.922170e+05
  -1.101278e+06  -1.003495e+06
   7.171146e+05  -1.186161e+06
   1.184608e+06  -1.509714e+05
   7.980852e+04   8.545004e+05
  -1.311833e+06   6.515445e+05
  -1.589791e+06  -5.622451e+05
  -5.431935e+05  -1.459049e+06
   7.934652e+05  -1.110163e+06
   1.200914e+06   2.904747e+03
   4.220078e+05   6.144289e+05
  -6.000534e+05   1.015851e+05
  -6.348576e+05  -9.084866e+05
   5.505639e+05  -1.266880e+06
   1.832489e+06  -4.569621e+05
   1.827737e+06   9.512103e+05
   3.864349e+05   1.838463e+06
  -1.191819e+06   1.514262e+06
  -1.524113e+06   3.089227e+05
  -5.567340e+05  -7.283702e+05
   5.325399e+05  -7.958687e+05
   6.898724e+05  -7.317301e+04
   1.720030e+03   5.388279e+05
  -6.088289e+05   4.219081e+05
  -4.569912e+05  -1.086807e+05
   2.286802e+05  -2.345389e+05
   5.874268e+05   3.567188e+05
   1.219154e+04   1.041258e+06
  -1.172605e+06   8.952475e+05
  -1.903024e+06  -2.961074e+05
  -1.365269e+06  -1.724721e+06
   1.480422e+05  -2.261889e+06
   1.469660e+06  -1.485271e+06
   1.705380e+06  -4.933753e+04
   1.049231e+06   9.413498e+05
   3.902304e+05   9.484345e+05
   2.590894e+05   4.179624e+05
   3.532414e+05   1.939226e+05
   6.644742e+04   5.496561e+05
  -7.051133e+05   8.874376e+05
  -1.362762e+06   4.588603e+05
  -1.152215e+06  -6.745711e+05
   7.840689e+04  -1.534942e+06
   1.573071e+06  -1.164936e+06
   2.152028e+06   3.503856e+05
   1.199783e+06   1.860066e+06
  -6.975750e+05   2.174568e+06
  -2.171914e+06   1.126510e+06
  -2.254629e+06  -3.581236e+05
  -1.172505e+06  -1.190762e+06
   1.833700e+04  -1.095571e+06
   5.011434e+05  -6.900263e+05
   3.487146e+05  -6.729852e+05
   2.154417e+05  -1.022712e+06
   5.406241e+05  -1.057680e+06
   1.087842e+06  -2.717258e+05
   1.205249e+06   9.846700e+05
   5.240578e+05   1.740652e+06
  -5.699651e+05   1.332347e+06
  -1.198952e+06   6.132922e+04
  -8.218122e+05  -1.074194e+06
   1.891536e+05  -1.271967e+06
   8.920535e+05  -5.601363e+05
   7.338648e+05   3.664545e+05
   8.420287e+04   8.421934e+05
  -2.511795e+05   7.554285e+05
   2.375453e+04   4.724376e+05
   3.641978e+05   3.498769e+05
   3.629671e+04   3.722373e+05
  -9.714043e+05   2.449972e+05
  -1.790784e+06  -2.181097e+05
  -1.502483e+06  -8.416665e+05
  -1.293212e+05  -1.210541e+06
   1.274403e+06  -1.028735e+06
   1.614594e+06  -3.916306e+05
   8.227364e+05   2.512707e+05
  -1.562617e+05   4.399238e+05
  -4.181234e+05   1.162365e+05
   2.143097e+04  -2.765296e+05
   4.613655e+05  -2.139206e+05
   4.265290e+05   3.092100e+05
   1.106286e+05   7.013130e+05
  -3.092693e+04   4.501636e+05
   1.382574e+05  -1.845260e+05
   3.551175e+05  -3.931112e+05
   2.852786e+05   1.932153e+05
  -1.777720e+05   9.592371e+05
  -8.027407e+05   9.721002e+05
  -1.093605e+06   9.240510e+04
  -6.413887e+05  -8.350995e+05
   3.650295e+05  -9.290867e+05
   1.062579e+06  -1.999437e+05
   6.648656e+05   5.591692e+05
  -5.994436e+05   6.371429e+05
  -1.525497e+06   1.841661e+04
  -1.124633e+06  -7.388180e+05
   2.933702e+05  -1.033149e+06
   1.409543e+06  -6.623969e+05
   1.265105e+06   5.136563e+04
   2.042895e+05   5.043090e+05
  -5.790538e+05   3.252320e+05
  -3.164159e+05  -2.240826e+05
   5.968623e+05  -4.285440e+05
   1.084750e+06   1.569022e+05
   5.185477e+05   1.136957e+06
  -6.655107e+05   1.536864e+06
  -1.433852e+06   7.521445e+05
  -1.171127e+06  -7.385615e+05
  -1.937672e+05  -1.697926e+06
   6.754849e+05  -1.288335e+06
   8.909181e+05   6.952693e+04
   5.063726e+05   1.096218e+06
  -8.207051e+04   9.712114e+05
  -4.918799e+05   1.331219e+05
  -5.215012e+05  -3.650314e+05
  -2.431925e+05  -1.544299e+05
  -1.001651e+04   1.169186e+05
  -1.389218e+05  -2.127774e+05
  -4.421653e+05  -8.713115e+05
  -2.998354e+05  -1.025786e+06
   5.414831e+05  -3.981526e+05
   1.404878e+06   4.185935e+05
   1.310120e+06   7.653011e+05
   1.949642e+05   6.301808e+05
  -8.800947e+05   3.939477e+05
  -9.514420e+05   2.167151e+05
  -2.650092e+05   6.349459e+03
   1.673298e+05  -2.035265e+05
  -7.119427e+04  -2.423995e+05
  -3.573143e+05  -1.437032e+05
  -6.397798e+03  -1.314350e+05
   7.321956e+05  -1.850617e+05
   9.637860e+05   3.744330e+04
   2.502617e+05   6.268976e+05
  -8.813440e+05   1.038982e+06
  -1.510311e+06   6.339829e+05
  -1.186819e+06  -4.576607e+05
  -2.203239e+05  -1.329016e+06
   6.822350e+05  -1.250377e+06
   9.754159e+05  -4.340857e+05
   6.278124e+05   2.730735e+05
   8.068551e+04   3.326611e+05
  -1.561990e+05   1.448710e+03
   4.149361e+04  -8.615912e+04
   3.295942e+05   3.101970e+05
   2.744505e+05   7.520149e+05
  -1.868176e+05   6.115658e+05
  -6.558728e+05  -1.802173e+05
  -6.305275e+05  -9.531724e+05
   1.298567e+03  -9.507599e+05
   7.617659e+05  -1.372463e+05
   9.337798e+05   7.588457e+05
   2.616421e+05   1.009940e+06
  -6.801669e+05   5.601290e+05
  -9.944773e+05  -9.714120e+04
  -4.399047e+05  -5.047801e+05
   2.611678e+05  -5.442385e+05
   2.744741e+05  -3.213865e+05
  -3.173698e+05  -4.086352e+04
  -6.282176e+05   2.331614e+04
  -1.066385e+05  -2.702212e+05
   7.682214e+05  -6.451599e+05
   1.097573e+06  -5.690196e+05
   6.228539e+05   9.710939e+04
  -9.733287e+04   7.751125e+05
  -4.382853e+05   7.614326e+05
  -3.107119e+05   8.757018e+04
  -4.743629e+03  -4.823419e+05
   2.395630e+05  -3.589116e+05
   3.336154e+05   2.137227e+05
   2.242972e+05   5.408916e+05
  -7.083458e+04   3.276118e+05
  -3.610351e+05  -7.576760e+04
  -4.150720e+05  -2.080224e+05
  -2.244349e+05  -4.159915e+04
  -7.782046e+03   7.976540e+04
   7.442212e+04  -8.486968e+04
   9.587271e+04  -3.799831e+05
   1.999846e+05  -4.290127e+05
   3.474139e+05  -6.281476e+04
   3.246459e+05   4.466808e+05
   8.320863e+03   6.170563e+05
  -4.203477e+05   2.544779e+05
  -5.672658e+05  -3.133147e+05
  -1.960796e+05  -5.661629e+05
   4.502878e+05  -3.277766e+05
   7.763700e+05   1.073940e+05
   4.222855e+05   3.549037e+05
  -2.751252e+05   3.141563e+05
  -5.754850e+05   1.396831e+05
  -1.728939e+05   3.563497e+03
   4.076338e+05  -1.563566e+03
   4.133577e+05   1.460046e+05
  -2.258337e+05   3.227666e+05
  -8.061799e+05   2.489200e+05
