
 $NMID
 id='ANONYMOUS ', fmtdat='(2E16.6)'
 volume=1.0
 tramp=1.0
 $END
   4.244317e+07  -2.504532e+05
   2.626427e+07   2.504582e+07
  -4.429123e+06   2.850078e+07
  -2.037285e+07   1.240648e+07
  -1.307296e+07  -3.983767e+06
   1.841149e+06  -7.200338e+06
   7.691382e+06   3.412661e+04
   2.941694e+06   7.306775e+06
  -4.204175e+06   7.945909e+06
  -7.436747e+06   2.216901e+06
  -5.588295e+06  -4.814058e+06
  -6.744853e+05  -6.929121e+06
   3.198465e+06  -2.037662e+06
   2.212968e+06   4.705033e+06
  -2.788607e+06   5.646303e+06
  -6.183832e+06  -6.534305e+05
  -3.747802e+06  -7.819440e+06
   2.645336e+06  -9.236343e+06
   7.691192e+06  -4.605512e+06
   8.174058e+06   1.662370e+06
   4.759031e+06   5.656921e+06
   3.780130e+05   6.175437e+06
  -1.783897e+06   4.234060e+06
  -5.838592e+05   2.300694e+06
   1.346126e+06   2.462558e+06
  -6.964020e+04   3.880661e+06
  -4.889710e+06   3.434547e+06
  -8.035207e+06   1.320546e+04
  -5.492213e+06  -3.515190e+06
   2.630518e+05  -3.948348e+06
   3.417073e+06  -1.677251e+06
   1.930213e+06   5.560092e+05
  -1.171513e+06   1.160506e+06
  -2.591111e+06   2.184805e+05
  -1.885907e+06  -1.779478e+06
  -1.273597e+05  -3.541181e+06
   1.630053e+06  -2.865388e+06
   2.168474e+06   4.379601e+05
   8.945969e+05   2.768058e+06
  -5.906847e+05   9.756891e+05
   3.821777e+04  -2.434849e+06
   2.110219e+06  -2.057996e+06
   2.075387e+06   2.369451e+06
  -1.440954e+06   4.753490e+06
  -4.873344e+06   9.889798e+05
  -3.865746e+06  -5.030989e+06
   1.197540e+06  -6.414963e+06
   5.652689e+06  -1.909285e+06
   5.734372e+06   3.444122e+06
   1.809678e+06   4.919187e+06
  -2.769499e+06   2.459250e+06
  -4.539558e+06  -9.864290e+05
  -2.311780e+06  -2.746929e+06
   1.720370e+06  -1.877221e+06
   3.597829e+06   5.400941e+05
   1.678547e+06   2.032174e+06
  -1.289767e+06   1.108056e+06
  -1.545999e+06  -7.868985e+05
   7.871609e+05  -9.660668e+05
   2.029897e+06   8.978671e+05
   3.265272e+04   2.391705e+06
  -3.132475e+06   1.647691e+06
  -4.089960e+06  -6.680141e+05
  -1.976754e+06  -2.920349e+06
   1.507169e+06  -4.209808e+06
   4.303228e+06  -3.872581e+06
   5.105347e+06  -1.248624e+06
   3.533959e+06   2.699572e+06
   6.523117e+05   5.063482e+06
  -1.356181e+06   4.028648e+06
  -1.293920e+06   1.355593e+06
  -3.633277e+05   1.706900e+05
  -5.040313e+05   9.116676e+05
  -1.781543e+06   1.244272e+06
  -2.500454e+06  -2.272309e+05
  -1.583137e+06  -2.031929e+06
   2.684263e+05  -2.024497e+06
   1.626908e+06  -8.614910e+04
   1.548127e+06   2.032164e+06
  -1.075204e+05   2.629803e+06
  -2.446474e+06   1.261566e+06
  -3.645752e+06  -1.196102e+06
  -2.464761e+06  -3.107311e+06
   1.006589e+05  -3.273506e+06
   1.730918e+06  -2.064998e+06
   1.651855e+06  -9.614170e+05
   1.461664e+06  -7.154308e+05
   2.542604e+06  -5.384234e+05
   3.805258e+06   5.829977e+05
   3.082318e+06   2.394738e+06
   1.279496e+05   3.659641e+06
  -2.898849e+06   3.445493e+06
  -3.786873e+06   1.757970e+06
  -2.313135e+06  -5.412234e+05
  -5.916399e+04  -2.028869e+06
   1.113744e+06  -1.629659e+06
   4.799023e+05   9.160867e+04
  -1.022389e+06   1.129607e+06
  -1.657624e+06   3.287000e+05
  -7.381877e+05  -1.043498e+06
   5.213712e+05  -9.924515e+05
   4.826900e+05   3.384792e+05
  -8.068015e+05   7.876697e+05
  -1.673057e+06  -7.892504e+05
  -8.976874e+05  -2.879848e+06
   1.012624e+06  -3.220386e+06
   2.675902e+06  -1.400268e+06
   3.156277e+06   1.064561e+06
   2.270917e+06   2.539270e+06
   4.628536e+05   2.465623e+06
  -1.165740e+06   1.318100e+06
  -1.444808e+06   1.584350e+05
  -4.420026e+05  -4.402373e+04
   3.225800e+05   6.721822e+05
  -3.343575e+05   1.162448e+06
  -1.634637e+06   5.122013e+05
  -1.788443e+06  -7.306903e+05
  -3.806643e+05  -1.219988e+06
   1.035567e+06  -5.322082e+05
   8.547850e+05   4.081431e+05
  -7.286494e+05   5.634324e+05
  -2.046133e+06  -1.822383e+05
  -1.708674e+06  -1.232400e+06
   1.627881e+05  -1.873568e+06
   2.100270e+06  -1.554403e+06
   2.510245e+06  -2.581167e+05
   1.083043e+06   1.105539e+06
  -8.002197e+05   1.290526e+06
  -1.333736e+06   1.554295e+05
  -1.437636e+05  -9.321921e+05
   1.349566e+06  -6.438420e+05
   1.548664e+06   6.771296e+05
   3.566526e+05   1.483113e+06
  -9.402251e+05   9.377362e+05
  -1.152721e+06  -2.133370e+05
  -2.742329e+05  -6.837412e+05
   6.815402e+05  -6.135968e+04
   6.435102e+05   9.373909e+05
  -5.372679e+05   1.264896e+06
  -1.809515e+06   4.576699e+05
  -1.812158e+06  -9.614486e+05
  -3.366215e+05  -1.855535e+06
   1.277646e+06  -1.471419e+06
   1.544637e+06  -2.061461e+05
   4.735032e+05   7.722639e+05
  -5.833948e+05   7.370051e+05
  -6.038845e+05   6.024298e+04
   8.402573e+04  -3.872076e+05
   4.967465e+05  -2.451153e+05
   2.077329e+05   8.393798e+04
  -3.586123e+05   1.916970e+04
  -4.986134e+05  -5.388825e+05
   1.392067e+05  -1.058522e+06
   1.228704e+06  -8.156961e+05
   1.870963e+06   3.700721e+05
   1.307471e+06   1.749293e+06
  -2.067693e+05   2.191612e+06
  -1.471837e+06   1.310127e+06
  -1.569963e+06  -8.893105e+04
  -8.342359e+05  -8.589125e+05
  -2.961792e+05  -6.943613e+05
  -3.689867e+05  -2.592860e+05
  -4.999490e+05  -2.546224e+05
  -7.327594e+04  -6.444397e+05
   7.718536e+05  -8.216409e+05
   1.321114e+06  -3.217066e+05
   9.902107e+05   6.701450e+05
  -2.033960e+05   1.371399e+06
  -1.564585e+06   9.992616e+05
  -2.047241e+06  -4.345476e+05
  -1.046991e+06  -1.888534e+06
   8.682884e+05  -2.128328e+06
   2.260041e+06  -9.590366e+05
   2.145926e+06   5.508386e+05
   9.324376e+05   1.214075e+06
  -1.536851e+05   9.197452e+05
  -4.035862e+05   5.142555e+05
  -1.565043e+05   6.639037e+05
  -1.353276e+05   1.122079e+06
  -5.918038e+05   1.120555e+06
  -1.139472e+06   2.712868e+05
  -1.188083e+06  -9.835722e+05
  -4.866346e+05  -1.712866e+06
   5.743807e+05  -1.292357e+06
   1.165362e+06  -2.739406e+03
   7.436350e+05   1.136973e+06
  -3.175100e+05   1.256026e+06
  -1.007384e+06   4.121612e+05
  -7.287890e+05  -5.583434e+05
   6.145653e+04  -9.323820e+05
   4.238545e+05  -7.170593e+05
   5.484616e+04  -4.026534e+05
  -3.760496e+05  -3.172844e+05
  -4.420188e+04  -3.507526e+05
   1.014679e+06  -1.948687e+05
   1.828281e+06   2.919022e+05
   1.454842e+06   9.191337e+05
   1.373993e+03   1.267210e+06
  -1.390258e+06   1.012594e+06
  -1.638200e+06   2.725106e+05
  -7.684930e+05  -3.985730e+05
   2.148710e+05  -4.895245e+05
   4.493776e+05  -5.064580e+04
   1.303920e+04   3.474400e+05
  -4.158824e+05   2.203610e+05
  -4.264950e+05  -3.108019e+05
  -1.872379e+05  -6.600169e+05
  -4.950517e+04  -4.316853e+05
  -1.308335e+05   1.099941e+05
  -2.845506e+05   2.915512e+05
  -2.549558e+05  -2.070016e+05
   1.507054e+05  -8.997886e+05
   8.126911e+05  -9.511901e+05
   1.183979e+06  -1.328003e+05
   7.223509e+05   8.253783e+05
  -3.756678e+05   9.922898e+05
  -1.108120e+06   2.672145e+05
  -6.529298e+05  -5.308709e+05
   6.279105e+05  -5.902824e+05
   1.451038e+06   7.525718e+04
   9.521899e+05   7.792839e+05
  -4.100878e+05   9.237121e+05
  -1.370361e+06   4.739815e+05
  -1.147292e+06  -1.555646e+05
  -1.360072e+05  -4.753170e+05
   5.859013e+05  -2.573255e+05
   3.364074e+05   2.556048e+05
  -5.445373e+05   4.521583e+05
  -1.063416e+06  -1.014886e+05
  -5.719822e+05  -1.079570e+06
   5.723531e+05  -1.521803e+06
   1.359655e+06  -7.724801e+05
   1.131071e+06   7.025616e+05
   1.707526e+05   1.630707e+06
  -6.793720e+05   1.186114e+06
  -8.461051e+05  -1.459407e+05
  -4.057403e+05  -1.082577e+06
   1.806704e+05  -8.950753e+05
   5.041540e+05  -8.520130e+04
   4.382635e+05   3.509310e+05
   1.663497e+05   1.342535e+05
   3.792814e+04  -9.326148e+04
   2.266799e+05   2.520950e+05
   4.485912e+05   8.715549e+05
   1.908615e+05   9.865401e+05
  -6.243063e+05   3.629336e+05
  -1.339747e+06  -4.292447e+05
  -1.178949e+06  -7.673615e+05
  -1.681365e+05  -6.303372e+05
   7.932480e+05  -3.724107e+05
   9.011811e+05  -1.672091e+05
   3.137894e+05   3.697572e+04
  -1.394227e+05   2.012962e+05
  -1.458754e+04   1.988863e+05
   2.593183e+05   1.011499e+05
   3.717627e+04   1.210372e+05
  -6.217735e+05   2.004190e+05
  -9.455486e+05  -2.010342e+04
  -3.608747e+05  -6.214544e+05
   7.844409e+05  -1.049849e+06
   1.528314e+06  -6.670773e+05
   1.252207e+06   4.033573e+05
   2.363105e+05   1.277894e+06
  -6.943374e+05   1.238862e+06
  -9.509878e+05   4.717884e+05
  -5.944417e+05  -2.234516e+05
  -1.123588e+05  -3.238066e+05
   7.783306e+04  -4.688335e+04
  -6.987542e+04   2.795320e+04
  -2.802645e+05  -3.305096e+05
  -2.283470e+05  -7.347859e+05
   1.675380e+05  -6.110134e+05
   6.185728e+05   1.232862e+05
   6.558257e+05   8.735317e+05
   8.521304e+04   9.304478e+05
  -6.896937e+05   2.065039e+05
  -9.289837e+05  -6.680919e+05
  -3.037671e+05  -9.857255e+05
   6.482178e+05  -6.012214e+05
   1.005663e+06   7.305195e+04
   4.739772e+05   5.448326e+05
  -2.581781e+05   6.010742e+05
  -3.323308e+05   3.317617e+05
   2.359958e+05   1.627685e+04
   5.917701e+05  -3.144326e+04
   1.282853e+05   2.761919e+05
  -7.502734e+05   6.150580e+05
  -1.133941e+06   4.981049e+05
  -6.799992e+05  -1.503287e+05
   8.943249e+04  -7.825637e+05
   4.906286e+05  -7.718736e+05
   3.721627e+05  -1.395021e+05
   4.034815e+04   4.380362e+05
  -2.185230e+05   3.872279e+05
  -3.173126e+05  -1.446391e+05
  -2.275439e+05  -5.237797e+05
   4.928272e+04  -3.770198e+05
   3.528791e+05   4.556318e+04
   4.285142e+05   2.471725e+05
   2.208964e+05   8.133845e+04
  -2.742680e+04  -1.268985e+05
  -7.839802e+04  -2.265705e+04
  -5.346327e+03   3.238489e+05
  -6.356000e+04   4.829462e+05
  -2.916345e+05   1.778031e+05
  -3.988330e+05  -3.532368e+05
  -1.232969e+05  -5.848199e+05
   3.742645e+05  -2.786156e+05
   5.938637e+05   2.589772e+05
   2.236012e+05   5.228143e+05
  -4.571615e+05   3.299989e+05
  -7.932338e+05  -7.232465e+04
  -4.309468e+05  -3.423821e+05
   2.649895e+05  -3.554231e+05
   5.748690e+05  -1.980577e+05
   2.193610e+05  -1.666043e+04
  -3.221778e+05   5.174151e+04
  -3.708274e+05  -6.931992e+04
   1.623274e+05  -2.678994e+05
   6.872399e+05  -2.417957e+05
