
 $NMID
 id='ANONYMOUS ', fmtdat='(2E16.6)'
 volume=1.0
 tramp=1.0
 $END
   2.759087e+07   1.469450e+06
   1.669008e+07   1.523254e+07
  -2.357413e+06   1.754975e+07
  -1.266599e+07   9.258900e+06
  -8.951860e+06  -7.920977e+05
   3.780516e+05  -4.647777e+06
   5.154336e+06  -1.210492e+06
   2.973697e+06   4.490981e+06
  -1.991714e+06   6.331541e+06
  -4.965697e+06   2.349470e+06
  -4.004472e+06  -3.527056e+06
  -3.766221e+05  -5.285680e+06
   2.516562e+06  -1.198932e+06
   1.831381e+06   4.105627e+06
  -1.740022e+06   4.727509e+06
  -4.291542e+06  -3.524741e+04
  -2.786760e+06  -5.351830e+06
   1.704071e+06  -6.406893e+06
   5.320153e+06  -2.918957e+06
   5.348038e+06   1.674970e+06
   2.440730e+06   4.041866e+06
  -4.337931e+05   3.525729e+06
  -8.050173e+05   1.964285e+06
   9.807653e+05   1.620261e+06
   1.935107e+06   2.893251e+06
  -4.043565e+05   3.864622e+06
  -4.694128e+06   2.509638e+06
  -6.648238e+06  -7.153793e+05
  -3.868890e+06  -3.175014e+06
   1.077672e+06  -2.955600e+06
   3.441651e+06  -7.156568e+05
   1.552528e+06   1.387348e+06
  -1.853731e+06   1.727012e+06
  -3.226022e+06   8.458583e+04
  -1.794012e+06  -2.348511e+06
   5.417925e+05  -3.441546e+06
   1.680833e+06  -1.827213e+06
   1.081317e+06   1.098724e+06
  -2.062327e+05   2.046432e+06
  -6.225766e+05  -1.880833e+05
   4.268229e+05  -2.675240e+06
   1.789237e+06  -1.871798e+06
   1.610273e+06   1.497471e+06
  -4.739349e+05   3.102257e+06
  -2.534996e+06   6.429906e+05
  -2.215585e+06  -3.152638e+06
   6.957601e+05  -4.013746e+06
   3.842056e+06  -1.132756e+06
   4.431831e+06   2.493007e+06
   1.777922e+06   3.761205e+06
  -2.017007e+06   2.217743e+06
  -3.808010e+06  -3.722786e+05
  -2.227406e+06  -1.916402e+06
   9.569418e+05  -1.471888e+06
   2.569039e+06   1.950896e+05
   1.339382e+06   1.295341e+06
  -8.556246e+05   7.832833e+05
  -1.364946e+06  -5.192497e+05
   1.065595e+05  -9.663141e+05
   1.389043e+06  -8.169699e+04
   6.531201e+05   1.037669e+06
  -1.454917e+06   1.140723e+06
  -2.660144e+06  -1.501921e+04
  -1.499402e+06  -1.789834e+06
   1.348185e+06  -3.130258e+06
   3.795421e+06  -2.880996e+06
   4.144247e+06  -6.116005e+05
   2.423888e+06   2.437653e+06
   2.304072e+05   4.039341e+06
  -8.407074e+05   3.260695e+06
  -6.873808e+05   1.529864e+06
  -5.087786e+05   7.835993e+05
  -1.184059e+06   1.051817e+06
  -2.211670e+06   7.564288e+05
  -2.393502e+06  -8.122965e+05
  -1.227417e+06  -2.335092e+06
   6.029319e+05  -2.080410e+06
   1.838893e+06  -2.900511e+04
   1.542425e+06   2.062095e+06
  -2.294945e+05   2.429956e+06
  -2.243139e+06   8.512257e+05
  -2.872261e+06  -1.354768e+06
  -1.603703e+06  -2.582963e+06
   3.214051e+05  -2.290051e+06
   1.247457e+06  -1.283009e+06
   1.028408e+06  -6.988940e+05
   1.037213e+06  -7.518969e+05
   2.139354e+06  -6.360477e+05
   3.302155e+06   3.835479e+05
   2.737057e+06   2.039356e+06
   1.554025e+05   3.260049e+06
  -2.648301e+06   3.090130e+06
  -3.530063e+06   1.442575e+06
  -2.059196e+06  -7.237949e+05
   1.869758e+05  -1.935804e+06
   1.209100e+06  -1.381177e+06
   4.183655e+05   1.702944e+05
  -9.954875e+05   9.836542e+05
  -1.430619e+06   2.562288e+05
  -5.397988e+05  -9.121589e+05
   5.444190e+05  -9.129127e+05
   5.772129e+05   2.508318e+05
  -4.511099e+05   9.040519e+05
  -1.411102e+06  -1.681122e+05
  -1.221478e+06  -2.137393e+06
   2.282535e+05  -3.024323e+06
   2.071355e+06  -1.834637e+06
   3.070455e+06   5.303228e+05
   2.444916e+06   2.289303e+06
   5.715966e+05   2.390380e+06
  -1.116545e+06   1.230878e+06
  -1.364321e+06   1.017503e+05
  -4.010146e+05  -3.893946e+04
   2.992798e+05   5.979833e+05
  -2.475547e+05   9.778122e+05
  -1.355265e+06   4.431884e+05
  -1.543090e+06  -5.508549e+05
  -3.931519e+05  -1.003943e+06
   8.935016e+05  -5.154224e+05
   8.600513e+05   3.346495e+05
  -5.644875e+05   6.500898e+05
  -1.944808e+06   5.253257e+04
  -1.780302e+06  -1.060987e+06
  -7.050618e+03  -1.829946e+06
   1.893296e+06  -1.545401e+06
   2.288063e+06  -2.911106e+05
   9.648842e+05   9.397670e+05
  -6.881322e+05   1.075102e+06
  -1.102878e+06   1.094603e+05
  -7.033514e+04  -7.925350e+05
   1.195209e+06  -5.642033e+05
   1.403142e+06   5.490837e+05
   4.249556e+05   1.309517e+06
  -7.471449e+05   9.372068e+05
  -1.052107e+06  -6.130657e+04
  -3.341669e+05  -5.611430e+05
   5.530869e+05  -6.886159e+04
   5.567385e+05   8.293371e+05
  -5.074705e+05   1.129045e+06
  -1.645679e+06   3.868698e+05
  -1.624052e+06  -8.804955e+05
  -3.093519e+05  -1.657159e+06
   1.108302e+06  -1.328220e+06
   1.371922e+06  -2.319055e+05
   4.700389e+05   6.661447e+05
  -4.949828e+05   6.921877e+05
  -6.010292e+05   6.279139e+04
   1.040268e+04  -4.408251e+05
   5.099282e+05  -3.397725e+05
   3.531096e+05   7.560215e+04
  -2.193437e+05   1.452593e+05
  -4.850909e+05  -3.634683e+05
   4.103333e+04  -9.256499e+05
   1.072000e+06  -7.635154e+05
   1.691124e+06   3.073295e+05
   1.186506e+06   1.569419e+06
  -1.726825e+05   2.009756e+06
  -1.327848e+06   1.274508e+06
  -1.491470e+06  -1.323878e+02
  -8.880774e+05  -8.253750e+05
  -3.371848e+05  -7.936935e+05
  -2.645331e+05  -3.534167e+05
  -3.413645e+05  -2.058087e+05
  -4.344870e+04  -5.164550e+05
   6.569335e+05  -7.649291e+05
   1.209033e+06  -3.628416e+05
   9.870158e+05   6.088130e+05
  -1.082377e+05   1.329085e+06
  -1.413544e+06   9.855623e+05
  -1.896588e+06  -3.560890e+05
  -1.014427e+06  -1.680922e+06
   6.915222e+05  -1.918347e+06
   1.972662e+06  -9.362614e+05
   1.980196e+06   3.876380e+05
   9.811440e+05   1.071394e+06
  -4.726707e+04   9.330979e+05
  -4.232066e+05   5.816120e+05
  -2.790721e+05   6.142226e+05
  -1.988529e+05   9.454200e+05
  -5.179027e+05   9.526904e+05
  -9.929511e+05   2.242010e+05
  -1.065224e+06  -9.001409e+05
  -4.403011e+05  -1.561971e+06
   5.283638e+05  -1.179921e+06
   1.065453e+06  -2.834776e+04
   7.002359e+05   9.837770e+05
  -2.152856e+05   1.125477e+06
  -8.222057e+05   4.476268e+05
  -6.360359e+05  -3.819974e+05
  -2.324433e+04  -7.651142e+05
   2.712655e+05  -6.514015e+05
  -3.348132e+03  -4.027868e+05
  -3.271219e+05  -3.140298e+05
  -3.008316e+04  -3.309213e+05
   8.815507e+05  -1.903425e+05
   1.606926e+06   2.422699e+05
   1.320027e+06   7.907969e+05
   6.580621e+04   1.090246e+06
  -1.183693e+06   8.920035e+05
  -1.451295e+06   3.004893e+05
  -7.109068e+05  -2.651505e+05
   1.642566e+05  -3.986658e+05
   3.784791e+05  -8.083885e+04
  -2.277272e+04   2.671317e+05
  -4.092059e+05   1.906770e+05
  -3.786882e+05  -2.851134e+05
  -1.091494e+05  -6.299765e+05
   1.513743e+04  -4.073333e+05
  -1.189439e+05   1.475611e+05
  -2.997985e+05   3.312776e+05
  -2.441764e+05  -1.781317e+05
   1.635438e+05  -8.475985e+05
   7.354233e+05  -8.549517e+05
   1.006296e+06  -6.730539e+04
   5.820485e+05   7.646024e+05
  -3.496390e+05   8.419168e+05
  -9.736418e+05   1.743134e+05
  -5.889731e+05  -5.052784e+05
   5.504487e+05  -5.508322e+05
   1.346600e+06   2.030598e+04
   9.579416e+05   6.743719e+05
  -2.952200e+05   8.895286e+05
  -1.251080e+06   5.362504e+05
  -1.100694e+06  -7.726054e+04
  -1.637547e+05  -4.436866e+05
   5.203217e+05  -2.684722e+05
   2.826420e+05   2.142303e+05
  -5.328462e+05   3.859512e+05
  -9.723591e+05  -1.426992e+05
  -4.659881e+05  -1.021295e+06
   5.990375e+05  -1.376241e+06
   1.285418e+06  -6.657283e+05
   1.036035e+06   6.698188e+05
   1.497770e+05   1.512085e+06
  -6.179125e+05   1.124934e+06
  -7.827508e+05  -8.840547e+04
  -4.179157e+05  -9.802755e+05
   1.025255e+05  -8.456676e+05
   4.418739e+05  -1.007400e+05
   4.461346e+05   3.248991e+05
   2.013716e+05   1.307767e+05
   1.469607e+04  -9.743630e+04
   1.372298e+05   2.095303e+05
   3.859564e+05   7.900000e+05
   2.343107e+05   9.079012e+05
  -5.072425e+05   3.347581e+05
  -1.241147e+06  -3.934222e+05
  -1.137123e+06  -6.958306e+05
  -1.597598e+05  -5.667362e+05
   7.759886e+05  -3.439237e+05
   8.427153e+05  -1.742749e+05
   2.448625e+05   1.214137e+04
  -1.471509e+05   1.826500e+05
   4.544988e+04   2.018629e+05
   3.011519e+05   1.162021e+05
   1.131614e+04   1.183300e+05
  -6.378373e+05   1.685188e+05
  -8.628214e+05  -4.241573e+04
  -2.400792e+05  -5.756769e+05
   7.872035e+05  -9.316381e+05
   1.373385e+06  -5.528237e+05
   1.078667e+06   4.230687e+05
   1.861623e+05   1.187767e+06
  -6.331938e+05   1.109485e+06
  -8.806999e+05   3.857021e+05
  -5.569544e+05  -2.407537e+05
  -7.520044e+04  -3.007141e+05
   1.273120e+05  -1.582169e+04
  -3.946330e+04   6.153736e+04
  -2.788962e+05  -2.834441e+05
  -2.271127e+05  -6.715999e+05
   1.723596e+05  -5.483273e+05
   5.835252e+05   1.556416e+05
   5.652454e+05   8.505714e+05
   5.512731e+03   8.577253e+05
  -6.771537e+05   1.336738e+05
  -8.349959e+05  -6.756107e+05
  -2.313651e+05  -9.099381e+05
   6.162870e+05  -5.048940e+05
   8.965711e+05   9.789945e+04
   3.913817e+05   4.716766e+05
  -2.471207e+05   4.974697e+05
  -2.645803e+05   2.816889e+05
   2.692889e+05   2.894155e+04
   5.575724e+05  -1.650991e+04
   9.585571e+04   2.476698e+05
  -6.932503e+05   5.633935e+05
  -9.961385e+05   4.763504e+05
  -5.658468e+05  -1.132412e+05
   9.791476e+04  -6.974268e+05
   4.174672e+05  -6.751899e+05
   2.985118e+05  -7.967564e+04
   8.739301e+03   4.271225e+05
  -2.186561e+05   3.268908e+05
  -2.992803e+05  -1.806327e+05
  -1.956989e+05  -4.859299e+05
   6.833445e+04  -3.059624e+05
   3.242640e+05   6.612974e+04
   3.692890e+05   2.027714e+05
   1.967084e+05   4.906189e+04
   4.783415e+03  -8.489774e+04
  -5.928431e+04   5.149063e+04
  -6.707073e+04   3.360210e+05
  -1.613807e+05   4.065726e+05
  -3.114617e+05   8.125989e+04
  -3.096201e+05  -3.926801e+05
  -2.609110e+04  -5.579978e+05
   3.736960e+05  -2.317456e+05
   5.156481e+05   2.806352e+05
   1.775645e+05   5.046709e+05
  -4.111439e+05   2.875976e+05
  -7.027576e+05  -1.019702e+05
  -3.771751e+05  -3.232149e+05
   2.533803e+05  -2.881045e+05
   5.243755e+05  -1.297435e+05
   1.667841e+05   7.752787e+02
  -3.522873e+05   1.410194e+04
  -3.670693e+05  -1.167882e+05
   1.888993e+05  -2.805765e+05
   7.016669e+05  -2.209739e+05
