
 $NMID
 id='ANONYMOUS ', fmtdat='(2E16.6)'
 volume=1.0
 tramp=1.0
 $END
  -4.277744e+07   2.239896e+05
  -2.678466e+07  -2.408933e+07
   3.562193e+06  -2.826301e+07
   1.993868e+07  -1.361771e+07
   1.351683e+07   2.711082e+06
  -1.234704e+06   7.275012e+06
  -7.837240e+06   8.315193e+05
  -3.724080e+06  -7.151631e+06
   3.643478e+06  -8.760171e+06
   7.520889e+06  -2.910407e+06
   5.947480e+06   4.958042e+06
   7.944555e+05   7.414031e+06
  -3.428512e+06   2.051397e+06
  -2.555490e+06  -5.289994e+06
   2.647384e+06  -6.351822e+06
   6.400900e+06   3.047415e+05
   4.144310e+06   7.954554e+06
  -2.460141e+06   9.596380e+06
  -7.837456e+06   4.764762e+06
  -8.295875e+06  -1.839674e+06
  -4.546541e+06  -5.809472e+06
  -1.248461e+05  -5.939418e+06
   1.506848e+06  -3.856378e+06
  -2.360771e+05  -2.400796e+06
  -2.015272e+06  -3.188727e+06
   1.904039e+05  -4.678160e+06
   5.718509e+06  -3.725625e+06
   8.911059e+06   2.260274e+05
   5.781616e+06   3.931951e+06
  -6.966487e+05   4.207108e+06
  -4.103277e+06   1.551177e+06
  -2.127980e+06  -1.103159e+06
   1.776739e+06  -1.750231e+06
   3.485488e+06  -2.452208e+05
   2.265108e+06   2.431323e+06
  -1.492313e+05   4.217089e+06
  -1.935556e+06   2.904361e+06
  -2.009460e+06  -8.588386e+05
  -5.123869e+05  -2.912609e+06
   7.118916e+05  -5.278121e+05
  -2.140081e+05   3.078041e+06
  -2.320337e+06   2.424305e+06
  -2.290997e+06  -2.318892e+06
   1.087778e+06  -4.827587e+06
   4.530289e+06  -1.099124e+06
   3.833204e+06   4.922215e+06
  -1.024469e+06   6.401959e+06
  -5.752763e+06   1.982745e+06
  -6.254464e+06  -3.493542e+06
  -2.272161e+06  -5.239837e+06
   2.861284e+06  -2.890569e+06
   5.084096e+06   7.429488e+05
   2.801945e+06   2.792218e+06
  -1.600822e+06   2.071209e+06
  -3.768097e+06  -3.783579e+05
  -1.876539e+06  -1.996691e+06
   1.285629e+06  -1.179713e+06
   1.779893e+06   7.636784e+05
  -5.411218e+05   1.182002e+06
  -2.103076e+06  -4.824811e+05
  -4.426890e+05  -2.113675e+06
   2.790970e+06  -1.765700e+06
   4.136817e+06   3.474118e+05
   2.176627e+06   2.839353e+06
  -1.638972e+06   4.500722e+06
  -4.823449e+06   4.204270e+06
  -5.590376e+06   1.254689e+06
  -3.692998e+06  -3.034734e+06
  -6.564244e+05  -5.516246e+06
   1.256467e+06  -4.455276e+06
   1.186406e+06  -1.763750e+06
   5.169683e+05  -5.641402e+05
   9.763559e+05  -1.192854e+06
   2.369928e+06  -1.263537e+06
   2.963733e+06   5.535896e+05
   1.753326e+06   2.591778e+06
  -4.702516e+05   2.482093e+06
  -2.082775e+06   1.072282e+05
  -1.909984e+06  -2.436446e+06
   1.421040e+05  -3.063407e+06
   2.810734e+06  -1.342387e+06
   3.987320e+06   1.456008e+06
   2.552458e+06   3.400355e+06
  -1.772260e+05   3.394632e+06
  -1.770597e+06   2.084931e+06
  -1.618783e+06   1.046499e+06
  -1.507397e+06   9.158308e+05
  -2.828284e+06   7.603961e+05
  -4.320190e+06  -5.081891e+05
  -3.576499e+06  -2.622176e+06
  -2.492529e+05  -4.187930e+06
   3.282692e+06  -4.020259e+06
   4.387842e+06  -2.025059e+06
   2.659968e+06   7.072301e+05
  -2.468584e+04   2.395428e+06
  -1.363481e+06   1.850382e+06
  -5.461281e+05  -1.448752e+05
   1.194520e+06  -1.302641e+06
   1.864504e+06  -3.913049e+05
   8.006255e+05   1.168939e+06
  -6.207015e+05   1.163966e+06
  -6.433927e+05  -3.480163e+05
   7.541432e+05  -1.033895e+06
   1.886671e+06   5.633310e+05
   1.329747e+06   3.033881e+06
  -7.057102e+05   3.797022e+06
  -2.854993e+06   1.995393e+06
  -3.784269e+06  -9.120475e+05
  -2.896037e+06  -2.873339e+06
  -6.745019e+05  -2.923677e+06
   1.350773e+06  -1.567191e+06
   1.695097e+06  -1.905640e+05
   5.112604e+05   4.056879e+04
  -3.905880e+05  -7.622216e+05
   3.292660e+05  -1.305210e+06
   1.803156e+06  -6.140917e+05
   2.034746e+06   7.410367e+05
   4.927514e+05   1.341127e+06
  -1.157580e+06   6.549122e+05
  -1.043362e+06  -4.323761e+05
   7.741196e+05  -7.450270e+05
   2.416307e+06   4.212267e+04
   2.130218e+06   1.353016e+06
  -5.910862e+04   2.240380e+06
  -2.383899e+06   1.916951e+06
  -2.898325e+06   3.849006e+05
  -1.264086e+06  -1.216673e+06
   8.743355e+05  -1.452485e+06
   1.475209e+06  -1.902310e+05
   1.517507e+05   1.042677e+06
  -1.527406e+06   7.609771e+05
  -1.801213e+06  -7.109850e+05
  -5.015209e+05  -1.683578e+06
   1.004525e+06  -1.151811e+06
   1.338467e+06   1.459896e+05
   3.796848e+05   7.493018e+05
  -7.483228e+05   9.260517e+04
  -7.475149e+05  -1.056566e+06
   6.046412e+05  -1.461433e+06
   2.081663e+06  -5.512655e+05
   2.101551e+06   1.075561e+06
   4.309990e+05   2.119906e+06
  -1.414114e+06   1.722461e+06
  -1.761772e+06   2.970972e+05
  -5.862749e+05  -8.613063e+05
   6.378622e+05  -8.765900e+05
   7.258487e+05  -8.730486e+04
  -5.125853e+04   4.995557e+05
  -6.018317e+05   3.604432e+05
  -3.352715e+05  -9.198863e+04
   3.532708e+05  -1.025225e+05
   6.058953e+05   5.400396e+05
  -8.935781e+04   1.205384e+06
  -1.376671e+06   9.816975e+05
  -2.164526e+06  -3.706352e+05
  -1.547557e+06  -1.981306e+06
   1.826386e+05  -2.546902e+06
   1.666333e+06  -1.593354e+06
   1.852496e+06   2.255398e+04
   1.056660e+06   9.993832e+05
   3.964802e+05   8.881947e+05
   3.920374e+05   3.587784e+05
   5.189246e+05   2.691487e+05
   8.538782e+04   7.038774e+05
  -8.487187e+05   9.765625e+05
  -1.524375e+06   4.405342e+05
  -1.208441e+06  -7.526710e+05
   1.615318e+05  -1.636087e+06
   1.781367e+06  -1.232594e+06
   2.395372e+06   4.356088e+05
   1.286291e+06   2.139130e+06
  -9.017165e+05   2.468614e+06
  -2.544098e+06   1.193625e+06
  -2.508088e+06  -5.255713e+05
  -1.179639e+06  -1.363979e+06
   1.048387e+05  -1.121075e+06
   4.869849e+05  -6.680640e+05
   2.442306e+05  -7.769912e+05
   1.753216e+05  -1.257293e+06
   6.482659e+05  -1.270123e+06
   1.286483e+06  -3.253374e+05
   1.385795e+06   1.114268e+06
   5.982744e+05   1.971517e+06
  -6.392290e+05   1.508706e+06
  -1.349920e+06   4.310248e+04
  -8.975652e+05  -1.269352e+06
   2.980170e+05  -1.448808e+06
   1.101769e+06  -5.393194e+05
   8.388898e+05   5.581114e+05
  -6.062004e+03   1.031677e+06
  -4.094503e+05   8.372148e+05
  -2.428523e+04   4.871909e+05
   4.332163e+05   3.730929e+05
   5.302560e+04   4.113176e+05
  -1.145127e+06   2.546255e+05
  -2.087774e+06  -2.847223e+05
  -1.699559e+06  -1.005194e+06
  -6.550300e+04  -1.429055e+06
   1.539155e+06  -1.183811e+06
   1.865391e+06  -3.802987e+05
   9.033595e+05   3.886505e+05
  -2.201581e+05   5.439418e+05
  -5.010533e+05   8.797535e+04
  -2.868430e+03  -3.736916e+05
   4.934881e+05  -2.583838e+05
   4.945315e+05   3.513393e+05
   1.961647e+05   7.758655e+05
   3.247930e+04   5.064093e+05
   1.486968e+05  -1.570219e+05
   3.457550e+05  -3.808256e+05
   3.062159e+05   2.280658e+05
  -1.696578e+05   1.060112e+06
  -9.167514e+05   1.111300e+06
  -1.325803e+06   1.485256e+05
  -8.103197e+05  -9.465241e+05
   4.174210e+05  -1.120719e+06
   1.255824e+06  -2.937903e+05
   7.635385e+05   6.121830e+05
  -7.011638e+05   7.038051e+05
  -1.693940e+06  -2.801094e+04
  -1.169652e+06  -8.602463e+05
   4.096052e+05  -1.104445e+06
   1.576015e+06  -6.373698e+05
   1.361789e+06   1.182625e+05
   1.903011e+05   5.527811e+05
  -6.643709e+05   3.296259e+05
  -3.810299e+05  -2.778657e+05
   6.410446e+05  -5.201602e+05
   1.234424e+06   1.228695e+05
   6.538541e+05   1.257953e+06
  -6.730925e+05   1.767164e+06
  -1.582580e+06   9.016316e+05
  -1.326857e+06  -8.049458e+05
  -2.297560e+05  -1.897583e+06
   7.593530e+05  -1.411935e+06
   9.885081e+05   1.251088e+05
   5.202076e+05   1.239885e+06
  -1.542543e+05   1.056223e+06
  -5.713696e+05   1.225327e+05
  -5.411713e+05  -3.992383e+05
  -2.236168e+05  -1.563399e+05
  -3.051369e+04   1.157078e+05
  -2.282597e+05  -2.754764e+05
  -5.248775e+05  -9.961717e+05
  -2.765227e+05  -1.141950e+06
   6.793051e+05  -4.354883e+05
   1.570706e+06   4.686813e+05
   1.416162e+06   8.599516e+05
   2.118964e+05   7.211943e+05
  -9.397236e+05   4.508271e+05
  -1.051036e+06   2.255114e+05
  -3.404257e+05  -2.385581e+04
   1.683079e+05  -2.355051e+05
  -2.088920e+04  -2.419233e+05
  -3.390816e+05  -1.248525e+05
  -3.282362e+04  -1.438788e+05
   7.554565e+05  -2.375625e+05
   1.095030e+06   1.642720e+04
   3.805908e+05   7.166981e+05
  -9.258374e+05   1.217541e+06
  -1.742736e+06   7.735671e+05
  -1.422114e+06  -4.711348e+05
  -2.846417e+05  -1.486504e+06
   7.766890e+05  -1.437222e+06
   1.098081e+06  -5.413625e+05
   7.013147e+05   2.666576e+05
   1.215678e+05   3.754647e+05
  -1.211366e+05   4.083029e+04
   6.637219e+04  -5.425245e+04
   3.446753e+05   3.661318e+05
   2.908907e+05   8.461563e+05
  -1.917735e+05   7.057078e+05
  -7.296514e+05  -1.537363e+05
  -7.594129e+05  -1.027366e+06
  -7.785693e+04  -1.080327e+06
   8.211663e+05  -2.230808e+05
   1.082847e+06   7.906514e+05
   3.470606e+05   1.140511e+06
  -7.515007e+05   6.852875e+05
  -1.153822e+06  -8.053201e+04
  -5.370456e+05  -6.060652e+05
   2.925418e+05  -6.724599e+05
   3.556177e+05  -3.791463e+05
  -3.042041e+05  -2.151028e+04
  -6.943544e+05   4.239451e+04
  -1.424519e+05  -3.145215e+05
   8.599995e+05  -7.294994e+05
   1.279785e+06  -6.134676e+05
   7.592879e+05   1.458287e+05
  -9.582995e+04   8.983790e+05
  -5.340892e+05   8.874914e+05
  -4.046051e+05   1.424026e+05
  -4.037841e+04  -5.218267e+05
   2.555585e+05  -4.380354e+05
   3.761372e+05   1.881137e+05
   2.680223e+05   6.059275e+05
  -6.224532e+04   4.159563e+05
  -4.108212e+05  -5.900618e+04
  -4.889763e+05  -2.639449e+05
  -2.546253e+05  -7.508356e+04
   1.747369e+04   1.288551e+05
   8.404641e+04  -1.640081e+04
   3.432544e+04  -3.981807e+05
   1.218759e+05  -5.413826e+05
   3.597179e+05  -1.663316e+05
   4.387399e+05   4.403310e+05
   1.064543e+05   6.883837e+05
  -4.455192e+05   3.179824e+05
  -6.782990e+05  -3.121253e+05
  -2.552475e+05  -6.160885e+05
   5.186536e+05  -3.842219e+05
   9.079342e+05   8.698478e+04
   4.971890e+05   3.931400e+05
  -3.057038e+05   3.966443e+05
  -6.611791e+05   2.128056e+05
  -2.346571e+05   1.488431e+04
   4.049990e+05  -4.827547e+04
   4.472005e+05   1.024741e+05
  -2.051076e+05   3.342537e+05
  -8.325692e+05   2.952468e+05
