
 $NMID
 id='ANONYMOUS ', fmtdat='(2E16.6)'
 volume=1.0
 tramp=1.0
 $END
  -3.428622e+03   2.247496e+02
  -2.159740e+03  -1.796472e+03
   4.083890e+02  -2.118497e+03
   1.574605e+03  -9.010701e+02
   8.959694e+02   2.159797e+02
  -3.252366e+02   3.456918e+02
  -6.244109e+02  -2.493069e+02
  -8.611169e+01  -6.640202e+02
   4.811838e+02  -6.520809e+02
   5.952640e+02   1.248183e+01
   3.860024e+02   5.540270e+02
  -1.860746e+02   7.206986e+02
  -1.287496e+02   7.909179e+01
  -2.445791e+02  -5.039640e+02
   2.195780e+02  -5.437025e+02
   5.675447e+02  -4.482170e+01
   5.503054e+02   4.572792e+02
  -3.285786e+02   6.081809e+02
  -5.995848e+02   2.382599e+02
  -3.425635e+02  -2.896690e+02
  -3.113078e+01  -3.729958e+02
   2.624696e+02  -1.371594e+02
   8.372003e+01  -6.595883e+01
  -8.966154e+01  -2.961642e+01
  -3.294893e+02  -2.223235e+02
   5.090923e+01  -4.745766e+02
   4.150482e+02  -2.625119e+02
   6.782303e+02   1.633625e+02
   1.881263e+02   4.758427e+02
  -3.531026e+02   3.856493e+02
  -5.491059e+02  -1.066709e+02
  -2.113972e+02  -4.636158e+02
   2.191865e+02  -3.512146e+02
   4.428384e+02  -7.489389e+01
   2.821397e+02   1.624496e+02
   3.358730e+00   3.658974e+02
  -8.186951e+01   2.297777e+02
   5.853074e+00  -8.680305e+01
   2.175370e+02  -1.713742e+02
   2.880756e+02   8.994805e+01
   1.054236e+02   5.265991e+02
  -2.936772e+02   5.405400e+02
  -4.221393e+02   3.812644e+01
  -2.007729e+02  -3.292910e+02
   1.809294e+02  -1.820660e+02
   1.954803e+02   2.814389e+02
  -1.265574e+02   4.344113e+02
  -4.622722e+02   1.241419e+02
  -5.363903e+02  -3.598990e+02
  -2.184144e+02  -5.782867e+02
   3.049466e+02  -3.733852e+02
   5.325655e+02   1.189605e+01
   3.333365e+02   3.047672e+02
  -4.557929e+01   2.817636e+02
  -3.000468e+02   9.065132e+01
  -2.489504e+02  -6.355660e+01
  -2.981920e+01  -5.612911e+01
   5.084009e+01   9.692651e+01
  -1.273488e+02   8.854112e+01
  -2.249425e+02  -1.017472e+02
  -1.258370e+02  -2.773057e+02
   1.739544e+02  -2.477053e+02
   3.334936e+02  -7.799168e+01
   1.925938e+02   1.418044e+02
  -3.958991e+01   3.384984e+02
  -2.542969e+02   3.514496e+02
  -3.810293e+02   1.414636e+02
  -2.570162e+02  -2.231815e+02
  -7.098561e+01  -4.008766e+02
   1.508165e+01  -3.313588e+02
  -9.652947e+00  -1.408653e+02
   4.051049e+01  -1.029884e+02
   1.361191e+02  -1.291898e+02
   2.395364e+02  -1.422866e+02
   2.335968e+02   8.433537e+01
   9.538606e+01   2.630495e+02
  -5.149040e+01   2.018816e+02
  -1.441910e+02  -4.988873e+01
  -1.283874e+02  -2.513249e+02
   4.738141e+01  -2.345930e+02
   2.914378e+02  -6.347857e+01
   2.922522e+02   1.903250e+02
   1.739024e+02   3.346938e+02
  -4.387380e+01   2.709465e+02
  -1.929705e+02   1.431291e+02
  -1.326783e+02   4.306654e+01
  -1.353305e+02   6.713967e+01
  -2.705777e+02   6.965077e+01
  -3.953921e+02  -1.193017e+02
  -3.019074e+02  -3.383451e+02
  -2.073868e+00  -4.339271e+02
   3.577444e+02  -3.745718e+02
   4.705088e+02  -1.485010e+02
   3.176956e+02   1.157798e+02
   3.612167e+01   2.718478e+02
  -1.056097e+02   2.301046e+02
  -5.549351e+01   3.375141e+01
   1.105527e+02  -6.282244e+01
   1.454579e+02   4.607358e+01
   3.004122e+01   1.887782e+02
  -1.035415e+02   1.425580e+02
  -1.026665e+02  -2.482488e+01
   5.321353e+00  -1.527332e+02
   1.721356e+02  -2.765797e+01
   1.178480e+02   2.616677e+02
  -5.403627e+01   3.469347e+02
  -2.571379e+02   2.043901e+02
  -3.635053e+02  -7.437936e+01
  -2.750274e+02  -2.357350e+02
  -6.320390e+01  -3.410613e+02
   1.007785e+02  -1.404657e+02
   1.343244e+02  -2.843224e+01
   6.270875e+01   5.100648e+00
  -4.375306e+01  -2.987158e+01
   1.332410e+01  -9.343420e+01
   1.502015e+02  -5.578439e+01
   1.861270e+02   4.819366e+01
   9.581776e+00   7.918539e+01
  -9.050873e+01  -1.969427e+01
  -4.728140e+01  -1.013502e+02
   1.586501e+02  -1.029391e+02
   3.078707e+02   3.101895e+01
   2.872750e+02   1.620077e+02
   2.182704e+01   2.839935e+02
  -2.449698e+02   2.830646e+02
  -3.127981e+02   1.412967e+02
  -1.616802e+02  -7.920313e+01
   1.838917e+01  -1.144350e+02
   5.534580e+01   3.185222e+01
  -8.879810e+01   1.003320e+02
  -1.646579e+02   1.625012e+01
  -1.616233e+02  -1.695865e+02
  -3.659831e+01  -1.812124e+02
   1.029268e+02  -8.214168e+01
   1.245665e+02   1.470319e+01
   2.551049e+01   1.458270e+01
  -3.550834e+01  -2.472273e+01
   1.170929e+01  -1.024949e+02
   8.121859e+01  -1.328032e+02
   2.265378e+02  -4.444859e+01
   1.956826e+02   1.540160e+02
   2.639656e+01   1.773912e+02
  -1.099088e+02   1.602668e+02
  -1.583016e+02   2.093788e+01
  -6.661838e+01  -5.679793e+01
   7.574891e+01  -7.702528e+01
   6.929758e+01  -3.339892e+01
   2.559892e+00   1.755205e+01
  -5.401766e+01   6.662469e+00
   2.009896e+01   1.102650e+01
   1.232635e+02  -1.311233e+01
   1.527765e+02   1.113610e+02
   4.827456e+01   2.303376e+02
  -1.536322e+02   1.270901e+02
  -2.523743e+02  -1.617025e+01
  -2.377383e+02  -1.724307e+02
  -2.338130e+01  -2.299769e+02
   8.974096e+01  -1.647967e+02
   1.138692e+02  -2.771603e+01
   4.725317e+01   3.795441e+01
   3.521170e+01  -5.217521e+00
   4.843210e+01   4.779463e+00
   8.490135e+01  -1.302109e+01
   6.463447e+01   7.135836e+01
  -4.064092e+01   1.298305e+02
  -1.270341e+02   2.995970e+01
  -6.859013e+01  -5.969464e+01
   4.930858e+01  -1.307984e+02
   2.012642e+02  -1.020361e+02
   1.995525e+02   6.232029e+01
   9.560185e+01   2.117500e+02
  -9.068625e+01   2.046224e+02
  -2.057805e+02   9.008873e+01
  -2.588637e+02  -6.964974e+01
  -1.043111e+02  -1.224168e+02
   1.106428e+01  -1.193179e+02
   4.570064e+01  -6.030828e+01
   4.124138e+01  -7.179549e+01
   4.337496e+01  -1.519471e+02
   1.203463e+02  -9.784198e+01
   1.485115e+02  -9.472620e-02
   1.597520e+02   1.679152e+02
   5.560681e+01   2.471941e+02
  -7.624905e+01   2.050267e+02
  -2.326897e+02   5.158690e+01
  -1.882675e+02  -6.653814e+01
  -1.782952e+00  -1.570317e+02
   9.441979e+01  -1.085670e+02
   5.707702e+01   2.079022e-01
  -2.600369e+01   2.875426e+01
  -2.162839e+01  -2.902237e+01
   1.624193e+01  -8.869832e+00
   9.612482e+01   6.608541e+01
   3.628234e+01   1.024189e+02
  -8.428345e+01   5.480838e+01
  -1.668860e+02  -1.453153e+01
  -1.442486e+02  -7.538515e+01
   4.303592e+00  -1.030917e+02
   1.496025e+02  -4.581909e+01
   1.321464e+02  -4.391725e+00
   5.309544e+01   4.915629e+01
  -3.407527e+01   9.065585e+00
  -6.044874e+01  -4.228583e+01
  -2.137886e+01  -4.821546e+01
   6.227523e+01  -3.471161e+01
   9.054271e+01  -2.794231e+01
   1.729937e+01   5.485714e+01
   1.405968e+01   5.282802e+01
  -9.021400e+00   2.865875e+01
   2.033550e+01  -1.339152e+01
   4.555045e+01   2.750417e+01
   4.737307e+00   1.262339e+02
  -8.367420e+01   1.458901e+02
  -1.579032e+02   6.688436e+01
  -1.405398e+02  -8.705499e+01
   2.794186e+00  -1.184941e+02
   9.902110e+01  -7.793114e+01
   3.577754e+01   1.337840e+01
  -9.043273e+01   5.085657e+01
  -1.972264e+02  -5.747131e+01
  -1.130080e+02  -1.336369e+02
   3.730909e+01  -1.172604e+02
   2.186479e+02  -3.832136e+01
   1.670767e+02   3.697168e+01
   4.198798e+01   2.993677e+01
  -2.886376e+01   4.394628e+01
  -2.530614e+01   1.097266e+01
   8.004793e+01  -2.055432e+01
   4.131529e+01   8.422271e+01
   1.246831e+01   1.022368e+02
  -4.081159e+01   1.417885e+02
  -1.223338e+02   4.829351e+01
  -9.452800e+01  -6.832941e+01
  -2.684397e+01  -1.511342e+02
   1.132214e+02  -1.466065e+02
   5.862166e+01   1.742882e+01
   7.741902e+01   1.260940e+02
   2.476940e+00   1.536160e+02
  -8.351823e+01  -3.408096e+01
  -7.598755e+01  -7.960143e+00
  -4.198126e+00   1.984998e+01
  -2.337251e+01   4.069818e+01
  -7.895632e+01  -2.206840e+01
  -1.295732e+02  -1.297641e+02
  -2.875551e+01  -9.259281e+01
   1.057499e+02  -7.388360e+01
   1.828817e+02   2.100602e+01
   1.264864e+02   9.158393e+01
   1.445276e+01   6.243762e+01
  -9.314095e+01   3.760440e+01
  -8.887589e+01  -6.235646e+00
  -1.682000e+01   1.668028e+01
  -1.353958e+01  -2.809171e+01
   4.880996e+00  -3.051044e+01
  -1.961554e+01  -3.562183e+01
   1.485896e+01   2.460204e+00
   7.469116e+01  -3.762290e+01
   1.133273e+02   3.688639e+01
   2.230773e+01   1.248715e+02
  -1.053910e+02   1.624551e+02
  -1.796149e+02   2.749771e+01
  -1.243672e+02  -5.760395e+01
  -1.994177e+01  -1.780182e+02
   1.006688e+02  -1.780005e+02
   1.098023e+02  -7.998722e+01
   8.356867e+01  -3.761642e+01
  -5.260831e+00   2.753512e+01
  -1.158817e+01   7.634949e+00
   8.514907e+00   1.634650e+01
   5.213671e+01   2.740057e+01
  -1.875008e+00   9.842420e+01
  -8.872951e+01   9.153089e+01
  -1.472593e+02  -3.859888e+01
  -7.297854e+01  -1.002160e+02
   1.870824e+01  -8.634432e+01
   7.444512e+01  -2.055651e+01
   1.002068e+02   5.431163e+01
   1.132852e+02   1.044506e+02
  -1.639623e+01   8.735260e+01
  -8.773795e+01  -2.744187e+01
  -4.984459e+01  -3.219608e+01
   5.774942e+01  -3.446923e+01
   2.303359e+01  -1.871927e+01
  -5.382293e+01   1.783670e+01
  -5.885875e+01  -6.370121e-01
  -5.410438e+01  -2.302977e+01
   1.260968e+02  -5.993121e+01
   1.193019e+02  -5.600732e+01
   9.030302e+01   3.237843e+01
  -5.189979e+01   7.647890e+01
  -4.887385e+01   6.916605e+01
  -4.111573e+01   2.281922e+01
  -3.342167e+01  -4.996035e+01
   2.521943e+01  -3.170652e+01
   4.104065e+01  -1.319554e+01
   3.392558e+01   1.047413e+02
  -8.057413e+00   2.428413e+01
  -6.168594e+01  -4.571620e+00
  -2.625250e+00  -2.578319e+01
   1.075393e+01   1.218387e+01
   2.136941e+01   7.892933e+00
   3.877249e-01   4.770302e+01
  -7.040891e+00  -4.948792e+01
   5.080331e+00  -5.030302e+01
   4.853171e+00   2.023104e+00
   3.519088e+01   4.605112e+01
   2.801998e+01   4.938670e+01
  -4.079055e+01   2.992454e+01
  -2.867160e+01  -4.996576e+01
  -3.948389e-01  -6.606682e+01
   1.101261e+02  -3.511389e+01
   1.149415e+02   2.036329e+01
   1.300011e+01   2.548258e+01
  -1.029924e+00   7.780032e+01
  -6.472807e+01   3.202450e+01
  -5.520375e+01   2.550116e+01
  -5.473086e+01  -1.591114e+01
   9.816636e+00  -1.134559e+01
  -9.441281e+00   2.134349e+01
  -7.316827e+01   8.961886e+00
