
 $NMID
 id='ANONYMOUS ', fmtdat='(2E16.6)'
 volume=1.0
 tramp=1.0
 $END
  -4.308930e+02   5.738539e+01
  -2.277538e+02  -3.387438e+01
   1.226698e+01  -2.055173e+02
   2.184276e+02  -2.700411e+01
   1.224978e+02   6.515932e+01
  -7.510304e+01   1.358244e+01
  -1.693461e+02  -1.947304e+01
  -9.805685e+01  -1.156621e+02
   4.689872e+01  -6.667681e+01
   8.355851e+01  -2.085710e+01
  -1.485110e+01   9.875961e+01
   5.475995e+01   5.539898e+01
   1.326978e+01   1.010557e+02
  -1.096788e+01   6.257288e+01
  -4.393300e+01  -1.262695e+02
   2.146221e+01  -6.150140e+01
   1.016737e+02   4.963199e+01
   5.986494e+01   1.892484e+02
  -4.611501e+01  -2.567523e+00
  -9.183855e+01  -9.537853e+00
   2.954793e+00  -3.664754e+01
   1.389923e+02  -1.297405e+01
   8.751282e+01  -3.696673e+01
   6.209821e+01   3.716390e+00
  -1.128696e+02  -1.092181e+02
  -9.227195e+01  -5.338668e+01
   6.242743e+01  -6.620674e+01
   9.381131e+01   1.136089e+01
  -1.710057e+01   2.387850e+01
  -1.255754e+01  -5.370970e+01
  -5.502386e+01  -4.539362e+01
   1.878699e+01  -5.007009e+00
   4.524924e+01  -2.444090e+01
  -2.334926e+01  -2.893996e+01
  -1.156925e+01   5.177988e+01
  -6.292526e+00   1.017880e+01
   3.892968e+01   1.979751e+01
   4.633219e+01   3.328807e+01
  -1.327633e+01  -3.857300e+00
  -1.381487e+01   5.914697e+01
   3.226285e+01   3.894558e+01
   5.406425e+00   4.196875e+01
  -1.721412e+01  -1.867416e+01
  -1.337082e+01  -1.401792e+01
   4.258891e+01  -6.626716e+00
   4.016304e+01   3.502558e+01
  -5.485108e+00   2.540966e+01
  -2.967054e+01   1.266361e+01
  -6.114624e+01  -2.841499e+01
  -2.103077e+01  -9.702076e+00
   2.280504e+01  -3.701886e+01
   2.391521e+01   6.186418e+00
   3.014667e+01   3.398829e+01
  -2.581574e+00   2.337624e+01
  -3.804831e+01   1.127412e+01
  -5.376173e+01   3.616912e+01
  -1.368941e+01  -1.297301e+01
  -7.794065e+00  -1.470664e+01
   3.284968e+01   2.550205e+01
   1.000015e+01   1.774710e+01
  -2.712997e+00   1.850096e+00
  -2.117423e+01  -3.301479e+00
   6.584502e+00  -4.350064e+01
   6.676868e+00  -1.091821e+01
   4.851829e+00   2.925787e+01
  -2.096661e+01   8.990283e+00
  -2.984291e+01  -2.933616e+00
  -1.376759e+01  -4.353395e+01
  -1.460822e+01  -3.077277e+01
  -2.517879e+01  -2.597245e+01
   8.206977e+00  -3.038838e+01
  -1.348394e+01  -1.149998e+01
   2.113750e+00  -6.057605e+00
   3.397039e+01   3.072614e+01
  -1.318855e+01   2.692725e+01
  -1.779193e+01   3.124384e+01
  -4.748554e+00   2.006721e+01
  -1.455867e+01   1.823416e+01
  -1.639801e+01  -1.351099e+01
  -3.630692e+01  -3.043093e+01
   1.894163e+01   4.061033e+00
   3.639966e+01   8.122129e+00
   5.032923e+00   2.400786e+01
  -2.711469e+01   2.004478e+01
   2.302896e+00   7.121248e+01
  -1.814444e+01   2.006205e+01
  -1.818386e+01   1.841841e+01
  -2.224540e+01  -3.529454e+00
  -7.765436e+01   5.871459e+00
  -4.067397e+01   1.514315e+00
  -3.489044e+01  -4.684999e+00
   2.492679e+01  -4.072417e+01
   2.918387e+01  -2.583262e+01
   1.808267e+01  -3.256825e+01
   1.448918e+01   6.871327e+00
   4.408578e+01  -2.087640e+01
   6.972787e+00  -2.871569e+01
   2.862007e+00   4.669558e+01
  -7.667048e+00   5.625244e+00
   5.500957e+00  -1.598765e+01
  -1.039351e+01   2.893538e+00
  -1.611143e+01  -2.145701e+01
  -7.965204e+00  -2.577937e+01
   1.662786e+01  -1.577469e+00
   5.418831e+00   4.755502e+01
  -1.555003e+01   2.059308e+01
  -1.357731e+01   3.329888e+01
  -1.363112e+01   9.608398e-01
  -2.319464e+01  -3.319248e+00
  -1.734890e+01  -1.635425e+01
  -1.716271e+01  -3.468071e+00
   3.284633e+01   1.547984e+01
   2.536651e+01   3.766294e+01
  -2.824934e+00   7.831402e-01
  -2.713622e+01  -6.920473e+00
   1.710141e+01  -2.657866e+01
  -1.787293e+01  -2.962735e+01
  -2.593264e+01  -1.765855e+01
   1.440870e+01  -3.716370e+01
   3.714039e+00  -2.489637e+01
   2.913564e+01  -2.271517e+01
   4.793684e+01  -5.404698e+00
   2.663313e+01  -1.802410e+01
  -1.134374e+01   2.760369e+01
  -3.513895e+01   5.033253e+01
  -5.573712e+01   1.827105e+01
  -1.083230e+01  -1.323043e+01
   2.817999e+00  -1.222321e+01
  -9.652658e+00  -2.081739e+01
  -1.898393e+01   1.881986e+01
  -6.589187e+01  -3.709370e+01
  -6.060600e+01  -5.056521e+00
  -4.307961e+01  -3.327327e+01
  -2.403227e+01   2.758730e+00
   2.188635e+01   4.889148e+01
   1.190284e+01   2.844383e+01
  -2.348596e+01   4.143505e+01
  -7.833231e+00   1.207468e+01
   1.531882e+01  -1.630684e+01
   4.326335e+01   2.169237e+01
   8.266194e+00   1.210733e+01
   2.181136e+01  -2.304771e+01
  -1.311613e+01  -1.201769e+01
  -2.882510e+01  -3.499290e+00
  -1.914664e+01  -1.549679e+01
   4.128031e+01  -2.190889e+01
   2.665641e+01  -8.730275e+00
   1.892826e+01  -1.410473e+01
   4.456351e+00  -3.144065e+01
  -8.857038e-01  -1.809907e+01
   1.563731e+00  -1.491112e+01
   7.442308e-01   2.335161e+01
  -4.752412e+01  -1.858400e+00
  -6.567029e+01   6.242641e+01
  -4.007820e+01  -1.741653e+01
  -3.848552e+01  -2.104099e+01
  -2.996133e+01  -1.765523e+01
  -5.716572e+00  -3.507817e+01
   1.509975e+01   4.180379e+01
   1.108352e+01  -9.904422e-01
   1.238898e+01   2.299353e+01
   9.542284e+00  -3.434395e+00
  -2.924557e+00   4.145990e+01
  -1.247091e+01   2.183619e+01
  -2.830358e+01   4.082531e+01
  -4.549296e+00   5.339973e+00
  -7.245068e+00  -3.458514e+01
  -1.070280e+01  -3.159176e+01
   2.976378e+01  -1.999242e+01
   3.115712e+01  -9.624402e+00
   6.396098e+00  -6.483824e+00
   2.430782e+00   5.051430e+01
   1.022401e+01   3.371628e+01
  -4.158673e+01  -3.224174e+01
   2.236803e+01  -2.305472e+01
  -8.747006e+00   4.607514e+01
  -4.983024e+00  -7.786117e+01
  -1.843950e+01  -5.066194e+00
   3.197964e+01   8.445508e+00
   4.325288e+01  -3.816643e+01
   2.631353e+01   5.073148e+00
   4.618022e+01  -1.104278e+01
   5.308896e+00   4.464043e+01
  -2.037054e+01   6.144158e+01
  -4.790864e+00  -1.777489e+00
  -1.520137e+01   1.851388e+00
  -1.936822e+01  -1.293772e+01
   2.421309e+01  -2.434527e+01
   3.123074e+01  -1.582798e+01
   4.890073e+01  -1.690863e+01
  -1.031214e+01  -3.480827e+00
   2.061686e+01  -1.875955e-02
   2.106253e+01   7.364311e+00
  -1.331914e+01   2.194760e+01
   1.992947e+01   6.560932e-01
  -4.094980e+01  -2.446804e+01
  -4.583320e+01  -3.578419e+01
   7.659110e+00   1.663414e+01
   4.112607e+01  -2.038504e+01
   4.699637e+01   7.943577e+00
   1.816674e+01   3.717732e+01
   1.092884e+01  -4.322916e+00
  -3.855442e+01   1.131569e+01
   1.388314e+01   1.091550e+01
  -2.520120e+00   2.379406e+01
   2.658445e+01   3.354658e+01
  -2.812865e+01   2.786794e+01
   1.435157e+01   5.396520e+01
   7.264340e+00  -2.910258e+00
  -7.830590e+00  -2.972293e+01
   9.167628e+00   6.963063e+01
   1.134831e+00  -1.771482e+01
  -9.422379e+00   2.871885e+01
  -4.454373e+01  -1.243997e+01
  -9.323094e+00  -3.536473e+00
  -7.150796e+00  -2.073225e+01
   3.582042e+01   5.026389e+00
  -2.258613e+01   4.127930e+01
   2.591759e+01   2.334896e+01
  -4.051926e+00   1.063228e+01
  -3.371883e+01  -1.705519e+01
  -3.767038e+00   4.229285e-01
   4.646146e+01  -8.669111e+00
   7.552059e-03  -2.729353e+01
  -1.476057e+01   1.262866e+01
   2.238751e+01   2.819826e+01
  -1.279139e+01  -1.632607e+00
   1.918461e+01  -1.963079e+01
   1.024844e+01   1.941505e+00
   1.770557e+01   4.396756e+01
  -1.555471e+01   5.550327e+00
  -3.223906e+00   2.940103e+01
  -3.048230e+01  -6.093865e+01
  -4.177005e+01  -4.823203e+01
  -4.760897e+00  -4.795589e+01
  -1.643870e+01  -4.565386e+01
   6.917358e-01   2.243500e+01
  -1.482664e+01   8.771841e+00
   2.268171e+01   2.029617e+01
  -2.631418e+01  -6.387307e+00
  -3.792191e+01   4.534666e+00
   2.444026e+01  -1.844694e+01
  -6.587630e+00  -2.680661e+01
   2.269819e+00   5.129941e+01
  -2.035176e+00  -1.642542e+01
   3.121972e+01   1.143302e+01
  -5.580494e+00   8.436122e+00
   6.334181e+01   4.869976e+01
   1.433908e+01   1.518051e+01
  -5.544695e+01   1.378863e+01
  -2.310841e+01   5.087002e+01
  -3.960962e+00   4.504586e+01
  -2.381936e+00  -6.198413e+01
   1.084517e+01  -3.335268e+01
   1.328708e+01   2.748782e+00
   2.868261e+01  -1.306702e+01
   2.403075e+01   6.521064e-02
   5.713355e+01  -3.506069e+01
   1.549457e+01   1.877810e+00
  -1.540485e+01   9.017625e+00
  -2.784167e+01   1.315858e+01
  -5.246501e+01   2.761913e+00
  -4.456998e+01  -5.390145e+01
  -3.831294e+01  -1.118685e+01
   1.912839e+01   5.596972e+00
   2.098281e+01  -4.020945e+01
   1.244457e+01  -8.021794e+00
   1.308570e+01  -8.924421e+00
   5.631874e+00  -3.505234e+01
   3.315108e+01  -1.272228e+00
  -8.096920e+00  -7.671939e+00
  -2.925068e+01   6.144145e+01
  -2.259983e+01  -3.305429e+01
  -1.827286e+01   5.211909e+00
   1.238473e+01  -2.875147e+01
   2.124667e+01  -2.755413e+01
   6.448147e+00   9.555291e+00
   2.150962e+00   3.506283e+01
   3.873892e+01   2.914426e+01
  -1.324488e+01   4.062879e+00
   1.084115e+01  -4.479861e+00
   6.351469e+01  -1.368057e+01
   6.748985e+00   4.355281e+01
  -2.723371e+01   3.837497e+01
  -1.037122e+01   2.347961e+01
   2.034322e+00   1.926518e+01
   3.501321e+01  -1.820464e+01
   8.879251e+00   3.497253e+00
   3.984502e+01   3.397327e+01
  -3.435333e+01   6.486796e+01
   4.379493e+01   1.037944e+01
   2.327790e+01   2.326221e+01
  -1.248432e+01  -7.984523e+00
  -4.892531e+00  -1.392332e+01
  -1.172569e+01  -3.187385e+01
  -3.869317e+01   3.634133e+01
  -2.152273e+01   2.129173e+01
  -1.880364e+01   1.984511e+01
  -1.461111e+01  -2.047170e+00
   4.861215e+00  -1.961280e+01
   3.045927e+01   1.399125e+01
   2.864831e+01  -3.362908e+01
  -1.824530e+01   1.044826e+01
   1.196703e+01  -3.211826e+01
  -1.338018e+01   1.462179e+01
   3.357305e+01  -2.738441e+01
  -6.036760e+01   1.496675e+01
  -2.230549e+01   2.332562e+01
  -2.162207e+01  -1.150507e+01
  -1.597602e+01  -9.012783e+00
   1.246795e+01   9.646536e+00
   4.222070e+01  -6.502710e+00
   1.403015e+01  -3.904546e+01
   1.083201e+01  -4.286540e+01
   2.172631e+01  -2.397226e+00
  -2.967769e+01   6.739582e+00
   9.673414e+00  -4.207813e+00
   3.030956e+00   1.600613e+01
   3.477127e+00  -9.045467e+00
   1.515685e+01  -1.206440e+01
