
 $NMID
 id='ANONYMOUS ', fmtdat='(2E16.6)'
 volume=1.0
 tramp=1.0
 $END
   7.370586e+02  -3.224147e+02
   6.639492e+02   3.338963e+02
  -1.085603e+02   5.498256e+02
  -4.200232e+02   1.413361e+02
  -3.064426e+02  -1.625192e+02
  -8.554741e+01  -1.362761e+02
   1.414992e+02   4.754904e+00
   1.793917e+02   1.143634e+02
  -2.594225e-01   2.322240e+02
  -1.993765e+02  -2.621253e+01
  -1.327561e+02  -1.277130e+02
  -8.624522e+01  -1.454416e+02
   5.069526e+01  -7.630758e+01
   2.036279e+02   2.289481e+02
  -6.352628e+01   1.557677e+02
  -1.807285e+02  -1.293015e+01
  -3.410885e+01  -8.496034e+01
  -7.537367e+01  -1.198721e+02
  -3.635360e+01  -1.525131e+02
   9.977656e+01  -1.816710e+01
   1.118315e+02   5.877375e+01
  -5.741434e+01   1.317300e+02
   3.864176e+00  -9.899628e+00
   8.214531e-01  -6.201997e+01
   6.797395e+01   1.339810e+01
  -2.554267e+01   6.772416e+01
  -5.933809e+01   3.550020e+00
  -1.584479e+02  -2.523550e+01
  -1.560850e+01  -2.172577e+01
   1.211245e+02   2.451349e+01
   9.348334e+01   9.554025e+01
   4.083104e+01   2.030099e+01
  -6.213565e+01   6.764890e+01
  -1.285596e+02  -1.811297e+00
  -8.410097e+01  -5.691351e+01
  -5.039286e+01  -1.304911e+02
  -3.376042e+01  -1.065585e+02
  -1.851345e+01   7.821191e+00
  -6.282917e+01   1.475556e+00
  -4.610749e+01  -9.169910e+01
  -1.822330e+01  -1.583411e+02
   1.107157e+02  -1.211831e+02
   9.820820e+01  -2.374681e+01
   6.208218e+01   9.006928e+01
  -1.372206e+01   1.118954e+01
  -5.129896e+01  -6.858481e+01
   5.123611e+01  -1.179257e+02
   1.971808e+02  -1.298525e+01
   2.193514e+02   1.290747e+02
   1.152529e+02   1.896080e+02
  -2.742566e+01   5.424607e+01
  -1.364863e+02   7.915610e+00
  -1.165730e+02  -4.261310e+01
  -1.096654e+01  -4.904969e+01
   3.840313e+01  -5.295599e+01
   2.275311e+01  -8.428946e+00
  -2.379331e+01  -2.221910e+01
  -9.987735e+00   9.686962e+00
   5.174957e+01  -4.370004e+01
   6.379833e+01   2.136076e+01
   4.859296e+01   2.790918e+01
  -3.666513e+01   8.346435e+01
  -7.771083e+01   3.918510e+01
  -5.836393e+01   5.178645e-01
   2.748595e+01  -1.303641e+02
   8.599377e+01  -1.133338e+02
   1.325365e+02  -2.539943e+01
   8.812067e+01   3.717552e+01
   4.060509e+01   4.959279e-01
   4.877854e+01   3.090014e+01
   5.156632e+00   7.751316e+01
   3.609335e+01   9.892155e+01
  -6.107626e+01   8.817426e+01
  -1.324287e+02   4.312392e+01
  -1.553080e+02  -2.688468e+01
  -8.644686e+00  -6.830053e+01
   1.738934e+01  -5.862035e+01
   9.716051e+01   4.848494e+01
  -2.595105e+00   1.183308e+02
  -5.777053e+01   1.420835e+02
  -9.059296e+01   4.676292e+01
  -5.983013e+01  -1.815322e+01
  -1.014458e+02  -9.641673e+01
  -1.742558e+01  -9.612209e+01
   3.529439e+01  -6.716785e+01
   4.076527e+01  -6.332448e+01
   4.762658e+01  -1.078604e+02
   1.133949e+02  -1.980737e+01
   1.062378e+02   4.582020e+01
   9.285909e+01   9.239969e+01
  -3.329172e+01   1.478045e+02
  -1.278247e+02   1.605998e+02
  -1.400837e+02   1.362797e+01
  -9.381937e+01  -4.346393e+01
  -3.607557e+01  -8.523138e+01
   2.707913e+00  -6.339096e+01
   1.674052e+00  -3.432752e+01
  -9.100990e+01   5.634237e+00
  -1.183175e+01  -5.587343e+01
   1.192292e+01  -1.853681e+01
   3.085913e+01   1.349393e+01
   7.988503e+00  -1.592782e+01
   1.385526e+00   2.126182e+01
  -8.225169e+01   1.674450e+01
  -7.227107e+01  -1.007748e+02
   1.124992e+01  -1.348531e+02
   4.410996e+01  -8.099946e+01
   6.868897e+01   3.143663e-03
   7.680069e+01   7.560441e+01
   2.709464e+01   8.668238e+01
  -3.704893e+01   6.280634e+01
  -4.236392e+01   2.074300e+01
   2.459946e+00   6.465211e+00
  -2.304405e+01   1.826980e+01
  -3.785086e+01   1.228895e+01
  -7.655814e+01   3.192128e+01
  -5.101002e+01  -2.160293e+00
   1.745294e+01  -3.610129e+01
   3.510896e+01  -4.452820e+00
  -2.548399e+00   5.541038e+01
  -8.711462e+01  -1.777976e+01
  -1.096585e+02  -2.014215e+01
  -1.274812e+02  -8.462540e+01
  -5.182243e+00  -1.290820e+02
   9.147117e+01  -1.152015e+02
   9.419291e+01  -3.344235e+01
   7.408949e+01  -2.274609e+00
   9.808406e+00   6.874685e+00
   4.104213e+00  -1.059720e+01
   3.412347e+01  -2.808934e+01
   4.017846e+01  -2.220957e+01
   2.989390e+01   3.168822e+01
   1.794269e+01   4.025024e+01
   1.786032e+01   3.425217e+01
  -4.094853e+01   3.908452e+00
  -6.291758e+00  -5.072884e+01
  -1.100737e+01   6.478271e+00
   2.547621e+01   2.923622e+01
  -5.842137e+01   2.916255e+01
  -1.076565e+02  -1.187500e+01
  -3.961255e+01  -1.870193e+01
  -1.741412e+01  -6.600516e+01
   6.296423e+01  -5.108475e+01
   6.453472e+01   2.724775e+01
   9.374988e+01   4.680324e+01
  -7.000551e+01   2.645705e+00
  -1.177631e+01  -1.996483e+01
   2.612815e+01   1.138468e+01
   3.371295e+01  -1.218391e+00
   3.253901e-01  -4.088039e+00
   1.214813e+01   5.619192e+01
  -1.560572e+01  -1.533340e+01
   1.459805e+01  -7.830293e+01
   6.515727e+01  -4.803169e+01
   9.975818e+01   1.079659e+01
   7.936385e+01   2.702134e+01
   1.460185e+01   1.170633e+02
   2.482557e+00   5.455958e+01
  -1.809528e+01  -3.150703e+01
  -4.506790e+01  -1.564786e+01
  -4.310751e+01   1.230761e+01
  -3.903623e+01  -7.046664e+00
  -3.043148e+01   4.200356e+01
  -4.996448e+01  -1.997858e+01
   2.084287e+01  -2.476928e+01
   3.405226e+01  -4.779038e+01
   2.206725e+01   4.048362e+01
  -1.268202e-01   9.305504e+01
  -6.565032e+01  -1.073957e+01
  -7.722885e+01  -4.050421e+01
  -9.085982e-01  -4.220621e+01
   5.500719e+01  -3.685563e+01
   1.263286e+02  -5.035117e+01
   6.777675e+01   7.032328e+01
   2.510168e+01   4.977490e+01
  -8.035142e-01   7.175672e+01
  -4.680008e+01   1.840718e+01
  -1.766604e+01   4.657701e+01
  -1.751521e+01   1.342270e+01
  -4.362195e+01   1.228792e+01
  -4.150807e+01   2.850712e+01
   2.176359e+01  -6.313543e+01
  -7.974768e+00  -7.443519e+01
   6.928796e+01  -7.245131e+01
   5.160780e+01  -1.183635e+01
  -8.084668e+00   6.365220e+01
  -3.014996e+01   3.791122e+01
  -2.945669e+01   5.111803e+01
  -5.378967e+01  -6.215244e+01
   6.108846e+01  -2.080367e+01
   3.603886e+01  -9.843641e+00
   4.473691e+00   1.799770e+01
  -4.930686e+01  -3.104488e+00
  -7.024334e+00  -2.634070e+01
  -3.166836e+00  -1.034334e+01
   8.049703e+01   1.819636e+01
   8.894246e+01   3.094736e+01
  -2.347261e+01   2.117575e+01
  -4.865499e+01   1.876471e+01
  -5.061170e+01  -2.295962e+01
  -1.991936e+01  -2.172516e+01
   4.612961e+01  -5.991327e+01
  -6.312387e+00   5.178851e+01
  -2.006893e+00  -4.560031e+00
  -4.374614e+01   2.356572e+01
  -2.681678e+01   2.407676e+01
   2.350278e+01  -2.807586e+01
   1.797486e+01  -4.004549e+01
  -1.016804e+01  -7.618352e+00
   5.397086e+00  -8.348016e+00
  -2.248120e+01  -3.009104e+01
  -2.221659e+00  -4.081151e+01
   2.917994e+01  -1.017906e+02
   4.143176e+01  -2.036582e+01
   4.819518e+01   1.662024e+01
  -2.913267e+01   1.618148e+01
  -4.663041e+01   4.483759e+01
  -2.594952e+01  -1.861777e+01
   5.332018e+01  -5.429487e+00
   1.845565e+01   1.541975e+01
   4.765733e+01   2.009322e+01
  -3.535049e+01   1.009785e+00
  -1.022223e+02   1.530526e+01
  -7.613244e+01  -5.913212e+00
   9.496994e+00  -2.857022e+01
   5.071677e+00  -1.684714e+01
   2.477580e+01  -1.586926e+01
  -1.357093e+01   1.866266e+01
  -4.925935e+01  -1.634300e+01
   7.551874e+00  -4.573565e+00
   2.948180e+01  -1.509540e+01
   6.079068e+01  -3.191203e+01
   6.667116e+01   2.134129e+01
   7.912623e+00   5.123913e+01
  -5.054740e+01   3.831648e+01
  -4.576219e+01  -3.073336e+01
  -4.529911e+01  -6.054461e+01
   1.902070e-01  -3.131555e+01
   6.127753e+01  -2.030014e+01
   1.637540e+01   1.907023e+01
  -1.737764e+01  -8.867096e+00
  -1.140007e+01   1.044726e+00
  -6.021837e+00  -1.760952e+01
   3.912427e+01   4.371721e+01
  -1.909669e+01   3.209051e+01
  -1.687508e+01   1.568386e+01
  -4.932921e+01   2.134585e+01
  -6.444064e+01  -2.185981e+01
   7.610054e-01  -2.710923e+01
   4.369430e+01  -1.484521e+01
   2.716232e+01  -3.437157e+00
   5.095367e+01   3.973250e+01
  -4.884561e+01  -1.427849e+01
  -5.571468e+01   1.003120e+01
   1.466151e+01   3.718333e+01
   1.338370e+01  -3.281564e+01
  -2.947683e+01   2.124304e+00
   1.062253e+00   1.925830e+01
  -6.350113e+00  -1.134828e+01
   1.547784e+01  -3.046584e+01
   5.406597e+01   4.188697e-01
   2.239050e+01   1.994749e+00
   2.881992e+01   7.010258e+01
  -3.055214e+00   6.033852e+01
  -7.070898e+01  -8.052411e+00
  -8.403143e+01   2.713288e+00
  -2.472573e+01   2.828493e+00
   4.756771e+01  -5.035518e+01
  -2.091720e+01  -1.724978e+01
   1.318261e+01  -4.730687e+01
   3.463500e+01  -3.883061e+01
   2.704489e+01  -4.311855e+01
   4.951865e+01   1.560288e+01
   8.421449e+00  -2.037645e+01
   1.062886e+01   7.487047e+01
  -1.616188e+01  -5.916629e+00
  -3.360372e+01  -5.035756e+01
  -6.608913e+01  -2.311395e+01
   3.570944e+00  -4.266009e+01
   2.763649e+01  -1.957465e+01
   3.507343e+00   7.825412e+00
  -3.572455e+01   4.759644e+01
  -3.494169e+01   2.008610e+01
   5.985335e+00   2.453992e+00
  -2.363950e+01  -2.852591e+01
   4.222023e+01   2.990522e+01
   1.847767e+01   6.025721e+01
  -6.059072e+01   4.753442e+01
  -3.466716e+01   1.055759e+01
  -3.878722e+01  -2.291336e+01
   1.033772e+01  -1.143869e+01
   3.330897e+01  -5.128702e+00
  -1.018711e+01   1.241160e+01
   1.290470e+01   3.530794e+00
  -4.994631e+01  -4.146134e+00
   2.634684e+01  -6.409476e+00
  -1.404647e+01  -5.784186e+01
   4.702846e+01   1.120266e+01
   2.269222e+01   8.480843e+00
   2.966630e+00   3.228735e+01
   8.540154e+00  -1.717706e+01
  -1.462891e+01  -4.736027e+01
   1.863203e+01   1.242934e+01
   2.083007e+00   6.374031e+00
   1.459455e+01   1.977169e+01
   6.562172e+00   3.376509e+01
  -2.878305e+01   7.907627e+00
  -1.349257e+01  -2.905414e+01
  -4.634794e+00  -2.367794e+00
   9.273921e-01   2.737231e+01
  -5.849447e+01   7.495650e+00
  -2.133314e+01   2.953221e+01
  -3.241938e+01  -3.442588e+01
   4.016932e+01  -3.643431e+01
   3.221155e+01  -2.081214e+01
   3.190709e+00  -6.492252e+00
  -1.657576e+01  -3.179369e+01
  -1.726969e+01  -3.689490e+01
   8.256751e+00   3.168351e+01
   2.834712e+01  -1.474993e+01
