
 $NMID
 id='ANONYMOUS ', fmtdat='(2E16.6)'
 volume=1.0
 tramp=1.0
 $END
   4.206723e+03  -1.800197e+00
   2.567789e+03   2.384346e+03
  -7.586491e+02   2.698101e+03
  -2.189424e+03   8.049335e+02
  -9.871502e+02  -6.754342e+02
   7.033215e+02  -6.710503e+02
   8.962898e+02   3.566695e+02
  -6.292239e+01   1.193764e+03
  -7.825585e+02   8.165673e+02
  -9.927279e+02  -1.148623e+01
  -5.108150e+02  -1.005007e+03
   2.085575e+02  -1.071231e+03
   6.301805e+02  -5.383695e+01
   3.864368e+02   5.044528e+02
  -1.258032e+02   8.404902e+02
  -7.158902e+02  -6.080702e+01
  -1.991602e+02  -8.277535e+02
   2.824594e+02  -7.877852e+02
   4.472346e+02  -1.438048e+02
   1.625265e+02   4.779724e+02
   2.460080e+01   4.300815e+02
  -4.099801e+02   2.419469e+02
  -1.763214e+02   6.696530e+01
   1.277227e+02  -1.547962e+02
   3.719929e+02   5.101162e+01
   1.646995e+02   3.833209e+02
  -2.891278e+02   3.351078e+02
  -8.385340e+02  -1.046389e+02
  -5.137820e+02  -5.861929e+02
   4.037178e+02  -5.336469e+02
   8.528877e+02   3.097607e+01
   4.330596e+02   4.267963e+02
  -2.728369e+02   5.267779e+02
  -5.054114e+02   1.239782e+02
  -3.461408e+02  -2.550312e+02
  -1.198947e+02  -4.413130e+02
   1.967214e+02  -2.556049e+02
   1.973945e+02   2.355201e+02
  -1.745459e+02   4.520055e+02
  -4.955071e+02  -2.727358e+00
  -2.717795e+02  -7.093956e+02
   3.381931e+02  -6.844116e+02
   6.672670e+02  -1.522628e+01
   2.358292e+02   6.213491e+02
  -3.700566e+02   3.921250e+02
  -4.733511e+02  -3.703168e+02
   3.264584e+01  -5.720587e+02
   5.860669e+02  -1.536825e+02
   5.586827e+02   4.199719e+02
   1.430783e+02   6.219797e+02
  -4.285059e+02   3.144115e+02
  -6.300282e+02  -1.118756e+02
  -4.004299e+02  -4.748749e+02
   1.544566e+02  -4.726400e+02
   4.878431e+02  -9.253665e+01
   3.037077e+02   2.107845e+02
  -1.074268e+02   1.109364e+02
  -1.608597e+02  -2.038339e+02
   2.109011e+02  -2.548261e+02
   4.542071e+02   6.501200e+01
   1.884051e+02   3.688164e+02
  -2.334765e+02   2.407758e+02
  -3.267368e+02   5.078888e+01
  -1.745341e+02  -1.015854e+02
   5.430938e+01  -1.637915e+02
   2.573848e+02  -3.292304e+02
   3.244489e+02  -1.945998e+02
   3.018321e+02   1.925602e+02
   5.657907e+01   4.545306e+02
  -1.642941e+02   4.091822e+02
  -1.169388e+02   8.005763e+01
  -5.631513e+01  -9.591574e+01
  -4.714895e+01   6.553605e+01
  -1.996269e+02   1.554798e+02
  -2.554608e+02  -6.602964e+01
  -1.101496e+02  -2.837524e+02
   1.154563e+02  -3.170647e+02
   2.656733e+02  -1.657673e+01
   2.246966e+02   2.408454e+02
  -5.874022e+00   3.353059e+02
  -2.467757e+02   1.209362e+02
  -3.412915e+02  -1.812965e+02
  -1.988361e+02  -3.636591e+02
   1.451765e+02  -2.470656e+02
   2.479209e+02  -8.777673e+01
   1.667594e+02   2.229975e+01
   8.048594e+01  -5.422006e+01
   1.709024e+02  -7.789888e+01
   3.251462e+02   4.074191e+01
   3.218781e+02   3.115169e+02
   8.588090e+00   4.124755e+02
  -3.894173e+02   3.793166e+02
  -5.481899e+02   1.890620e+02
  -3.147099e+02  -1.266675e+02
  -5.333454e+01  -3.488006e+02
   1.511109e+02  -2.944813e+02
   1.452940e+02   1.117509e+01
  -1.045449e+02   1.240881e+02
  -2.149630e+02   5.992179e+01
  -6.537740e+01  -1.464598e+02
   1.448951e+02  -1.711815e+02
   1.316855e+02   4.724961e+01
  -3.797352e+01   2.039072e+02
  -2.030203e+02   2.218221e+01
  -1.820651e+02  -2.299196e+02
   5.618673e+01  -3.663163e+02
   2.035105e+02  -1.423133e+02
   2.506186e+02   8.269612e+01
   2.248708e+02   2.335417e+02
   6.836894e+01   1.961496e+02
  -1.196398e+02   5.866005e+01
  -1.512849e+02  -6.072942e+01
  -5.607341e+01  -5.981103e+01
   9.785466e+01   5.027055e+01
   2.686979e+01   1.217853e+02
  -1.052879e+02   8.190726e+01
  -1.214514e+02  -5.274507e+01
  -6.129355e+01  -2.047721e+01
   9.760532e+01  -3.298071e+01
   7.457031e+01   2.582556e+01
  -8.258021e+01   6.753475e+01
  -2.553700e+02   4.581142e+01
  -2.560224e+02  -1.063783e+02
  -7.650150e+01  -2.283504e+02
   1.972316e+02  -2.608316e+02
   2.981596e+02  -1.737236e+02
   2.026177e+02   7.908336e+01
   1.881929e+01   1.668876e+02
  -9.825904e+01   1.933502e+01
   3.280644e+01  -5.771314e+01
   1.363648e+02  -7.593789e+01
   1.920340e+02   1.018009e+02
   7.055207e+01   2.675994e+02
  -7.148713e+01   1.746782e+02
  -1.811998e+02  -9.328765e+00
  -8.464967e+01  -5.256028e+01
   5.383052e+01  -8.092796e+00
   5.316989e+01   6.033911e+01
  -9.710475e+01   1.285125e+02
  -1.497979e+02  -1.922543e+01
  -1.595558e+02  -1.729674e+02
  -4.469886e+01  -1.735223e+02
   1.008086e+02  -1.366108e+02
   1.785585e+02   1.314265e+01
   8.418075e+01   9.932106e+01
  -5.428011e+01   7.147011e+01
  -4.097118e+01   3.233048e+01
   2.550001e+01  -5.168926e+01
   2.805624e+01  -3.048069e+01
  -1.703542e+01  -1.730502e+01
  -6.644807e+01  -4.236706e+00
  -1.077820e+02  -7.499827e+01
  -2.800562e+01  -1.612568e+02
   1.349041e+02  -1.312271e+02
   2.087776e+02  -3.861352e+01
   1.924120e+02   1.512868e+02
   4.747266e+01   1.893066e+02
  -9.285320e+01   1.838212e+02
  -1.028909e+02   1.354212e+01
  -1.116443e+02  -8.833823e+01
  -4.512996e+01  -2.401011e+01
  -6.958371e+01   3.594221e+01
  -9.437740e+01   8.206186e+00
  -1.696793e+01  -4.054116e+01
   4.515416e+01  -9.398913e+01
   8.370241e+01  -8.249046e+01
   8.311304e+01   1.507836e+01
  -2.110927e+01   1.215674e+02
  -1.492478e+02   6.707268e+01
  -1.831837e+02  -9.223952e+01
  -1.007140e+02  -1.699060e+02
   1.549796e+02  -2.031136e+02
   2.889231e+02  -6.324455e+01
   2.508653e+02   8.686435e+01
   7.794390e+01   1.917507e+02
  -5.522359e+01   1.405898e+02
  -1.122159e+02   3.427588e+01
  -9.659086e+00   6.431115e+01
  -3.709740e+01   9.210573e+01
  -1.053865e+02   9.188243e+01
  -1.561276e+02  -2.786765e+01
  -1.334816e+02  -8.731157e+01
  -1.294611e+01  -2.260723e+02
   7.507904e+01  -1.732062e+02
   1.863267e+02   2.865136e+01
   1.267550e+02   1.186938e+02
   8.649457e+00   1.651668e+02
  -4.527571e+01   9.135409e+01
  -1.361958e+02  -4.399470e+01
   7.676386e+00  -4.686941e+01
   4.075666e+01  -4.413543e+01
  -1.192306e+01   6.683520e+00
  -1.678829e+01  -2.903179e+00
  -3.173839e+01  -8.669681e+01
   5.133665e+01  -1.293660e+01
   1.494043e+02   2.024078e+01
   1.181077e+02   4.027678e+01
   1.845714e+01   7.544283e+01
  -9.574789e+01   5.955438e+01
  -1.314401e+02   8.764594e+00
  -5.341573e+01  -9.482581e+01
   6.679401e+01  -1.656138e+01
   1.171783e+02   6.522860e+01
   8.359487e+00   8.760699e+01
  -1.839032e+01   6.918540e+01
  -5.377391e+01   3.409330e+00
  -4.279236e+01  -7.462220e+01
  -3.841312e+01  -8.672042e+01
  -8.944025e+01  -3.698443e+01
  -8.574008e+01   3.151214e+01
  -4.228914e+01  -4.805828e+01
   1.012765e+01  -1.321030e+02
   9.737469e+01  -1.400892e+02
   1.298620e+02  -2.859370e+01
   1.327150e+02   6.476705e+01
  -4.731301e+00   1.689204e+02
  -7.221932e+01   5.572605e+01
  -5.868691e+01  -5.516301e+01
   3.996067e+01   2.123593e+01
   1.150602e+02   5.205638e+01
   8.873468e+01   1.198439e+02
  -6.954138e+01   1.334365e+02
  -2.034033e+02   8.941767e+01
  -1.934065e+02  -3.623037e+01
  -2.525558e+01  -3.576665e+01
   3.436950e+01  -2.982802e+01
   4.660271e+01  -2.704576e+01
  -3.711669e+01   3.423029e+01
  -6.710109e+01  -4.607643e+01
  -3.334611e+01  -1.222513e+02
   1.090272e+02  -1.315209e+02
   1.353020e+02  -7.544304e+01
   9.312344e+01   1.070351e+02
  -4.724003e+00   1.789593e+02
  -7.969684e+01   1.489674e+02
  -8.952618e+01  -3.554846e+01
  -4.248101e+01  -7.839102e+01
  -1.597366e+01  -7.434058e+01
   3.011110e+01  -4.473298e+01
   6.997582e+01   2.071156e+01
   2.910609e+01  -1.115928e+01
   2.710640e+01  -3.713553e+01
   4.050930e+01   3.950748e+00
   4.834146e+01   1.011859e+02
   5.555082e+01   1.458749e+02
  -1.992662e+01   6.778334e+01
  -9.696602e+01  -4.607190e+01
  -1.539318e+02  -2.029544e+01
  -2.130779e+01  -1.793724e+01
   8.180800e+01   8.862696e+00
   7.659197e+01   5.861780e+00
  -1.063373e+01  -2.898499e+01
  -2.893105e+01   3.411737e+01
  -1.496738e+01   8.245424e+00
   1.234008e+01   2.641359e+01
   2.239870e+01  -1.483386e+01
  -8.110320e+01  -3.389854e+01
  -1.431516e+02  -4.148166e+01
  -7.045709e+00  -1.305577e+02
   9.682506e+01  -1.640000e+02
   1.688241e+02  -2.884954e+01
   1.224068e+02   1.054687e+01
   4.562098e+00   1.707829e+02
  -6.653242e+01   1.257756e+02
  -8.826484e+01   3.530402e+01
  -5.605932e+01  -1.439061e+01
  -1.549138e+01  -6.585051e+01
  -2.083956e+01  -6.715976e+00
  -1.415770e+01   1.441761e+01
  -3.980766e+01  -4.866004e+01
  -2.376184e+01  -5.470712e+01
   5.827489e+01  -6.059562e+01
   4.699705e+01   6.833641e+01
   9.496001e+01   1.560931e+02
   3.972542e+01   1.199852e+02
  -7.367920e+01  -3.795039e+00
  -8.443833e+01  -7.744908e+01
  -4.994204e+01  -7.245059e+01
  -7.243401e+00   6.321286e+00
   5.954763e+01   1.751672e+01
   3.352264e+01   3.168971e+01
  -6.517571e+01   3.102561e+01
   5.914713e+00  -5.955120e-01
   4.582744e+01  -1.472377e+00
   8.656911e+01  -2.575573e-01
   2.756165e+01  -1.371633e+00
  -9.933518e+01   3.801292e+01
  -9.685743e+01   6.394621e+01
  -4.104184e+01  -3.198740e+01
   2.857384e+01  -1.034592e+02
   1.020987e+02  -6.882495e+01
   3.854916e+01   1.044622e+01
   2.360424e+01   7.537245e+01
   4.885144e+00   4.645986e+01
  -3.699813e+01  -2.138121e+01
  -4.417083e+01  -2.844077e+01
   5.565283e+00  -6.827094e+01
   2.012506e+01   4.361412e+01
   2.484476e+01   5.425966e+01
  -9.000806e+00   1.532065e+01
  -2.088620e+01  -2.209647e+01
  -6.981183e+00   5.692059e+01
  -4.082636e+00   1.803744e+01
  -2.618413e+01   8.290058e+01
  -2.735797e+01  -2.014524e+01
  -3.707726e+00  -6.828017e+01
   1.212007e+01  -9.546594e+01
   6.431348e+01  -3.978171e+01
   5.184322e+01   1.394378e+01
   3.776292e+00   9.454130e+01
  -8.333931e+01   1.885604e+01
  -1.200313e+02  -3.924603e+01
  -4.026271e+01  -5.619916e+01
   3.795386e+01  -7.862723e+01
   4.713435e+01  -4.672376e+01
   6.468390e+00   3.197566e+00
  -6.112018e+01   1.068715e+01
  -4.029401e+01   1.812505e+00
   2.241309e+01  -2.217244e+01
   9.366152e+01   5.711328e+00
