
 $NMID
 id='ANONYMOUS ', fmtdat='(2E16.6)'
 volume=1.0
 tramp=1.0
 $END
   4.340905e+03  -2.328151e+02
   2.645987e+03   2.789067e+03
  -6.852011e+02   2.704978e+03
  -1.995111e+03   1.000735e+03
  -1.232782e+03  -5.924298e+02
   4.774811e+02  -5.612248e+02
   7.827789e+02   4.929908e+02
   2.478887e+02   1.014507e+03
  -7.249756e+02   7.185497e+02
  -9.658261e+02  -1.071096e+02
  -5.338820e+02  -8.127150e+02
   2.315222e+02  -8.975310e+02
   5.572627e+02  -1.371993e+02
   3.012563e+02   4.983368e+02
  -1.667644e+02   7.696543e+02
  -5.669575e+02   1.409239e-01
  -2.106561e+02  -5.403059e+02
   3.994003e+02  -6.883199e+02
   6.951970e+02  -1.366453e+02
   4.399048e+02   3.022554e+02
   4.417131e+01   3.252197e+02
  -4.238174e+02   1.406538e+02
  -3.252137e+02   1.688000e+02
   1.374917e+02  -1.072399e+02
   5.556666e+02   2.892979e+02
   1.211303e+02   4.725994e+02
  -4.348724e+02   5.587594e+02
  -8.507071e+02   4.356900e+01
  -3.610329e+02  -5.857811e+02
   3.060791e+02  -5.790188e+02
   7.726916e+02   7.637773e+00
   3.370882e+02   5.427226e+02
  -2.196868e+02   5.412686e+02
  -5.195023e+02   2.399495e+02
  -4.160232e+02  -2.419624e+02
  -2.074286e+01  -4.738401e+02
   1.444212e+02  -2.841461e+02
   1.225735e+02   1.441639e+02
  -2.560079e+02   3.366317e+02
  -4.562688e+02  -1.044132e+02
  -2.485130e+02  -5.966662e+02
   3.854156e+02  -6.358360e+02
   6.098479e+02   3.212569e+01
   2.771983e+02   5.543142e+02
  -3.065545e+02   2.868466e+02
  -3.994247e+02  -3.463544e+02
   8.161860e+01  -5.330175e+02
   6.010015e+02  -1.476369e+02
   6.402816e+02   4.623337e+02
   1.664544e+02   6.025774e+02
  -4.073499e+02   3.797010e+02
  -6.711473e+02  -1.544326e+02
  -3.805967e+02  -4.310025e+02
   1.523029e+02  -3.929664e+02
   4.832763e+02  -6.483396e+01
   2.854177e+02   2.246740e+02
  -6.663342e+01   7.555567e+01
  -1.403106e+02  -1.403095e+02
   1.272611e+02  -1.852327e+02
   2.928634e+02   4.883185e+01
   1.296207e+02   3.446367e+02
  -1.736789e+02   3.101730e+02
  -3.777190e+02   1.166339e+02
  -2.908495e+02  -1.262550e+02
  -3.887627e+00  -3.545263e+02
   2.794405e+02  -4.014940e+02
   4.036444e+02  -1.988696e+02
   3.339288e+02   1.348802e+02
   9.293130e+01   4.828235e+02
  -7.698405e+01   3.848515e+02
  -9.284141e+01   1.388309e+02
  -5.555574e+01  -2.487687e+01
  -3.825291e+01   2.107813e+01
  -2.234044e+02   9.602116e+01
  -2.773568e+02  -5.883280e+01
  -1.452067e+02  -2.786060e+02
   7.952098e+01  -2.253462e+02
   2.481305e+02  -2.021063e+01
   2.145623e+02   2.462143e+02
   1.279071e+01   2.793101e+02
  -2.800954e+02   1.259034e+02
  -3.878587e+02  -1.975485e+02
  -1.909304e+02  -4.081711e+02
   1.533347e+02  -2.766078e+02
   2.284525e+02  -1.092184e+02
   1.142033e+02   1.799728e+01
   7.971099e+01  -8.414973e+00
   2.279886e+02  -9.804550e+01
   4.137344e+02   3.277885e+01
   3.013001e+02   2.791057e+02
   4.345141e+01   4.727795e+02
  -3.212319e+02   4.795549e+02
  -4.167918e+02   2.515018e+02
  -3.377033e+02  -6.977664e+01
  -9.480891e+01  -2.802628e+02
   6.481693e+01  -2.492732e+02
   2.938300e+01  -4.888803e+01
  -5.934700e+01   6.796010e+01
  -1.995151e+02  -9.125542e+00
  -8.551874e+01  -2.026922e+02
   1.586276e+02  -1.774613e+02
   1.990877e+02   6.908322e+01
  -8.785018e+00   1.969681e+02
  -2.212122e+02   6.404859e+01
  -1.944465e+02  -2.712673e+02
  -3.821748e+00  -3.681523e+02
   2.633551e+02  -1.707099e+02
   3.951826e+02   3.435701e+01
   3.111282e+02   2.489371e+02
   6.549963e+01   2.759138e+02
  -1.613988e+02   1.750921e+02
  -2.254518e+02   6.236655e+01
  -5.185652e+01  -3.749596e+01
   7.494705e+01   4.601123e+01
   5.023734e+01   9.989929e+01
  -1.578145e+02   8.503650e+01
  -2.095467e+02   8.092402e+00
  -7.139336e+01  -8.718554e+01
   6.308718e+01  -8.355798e+01
   9.298738e+01   3.885052e+01
  -1.002380e+02   8.379049e+01
  -2.471130e+02   2.757578e+01
  -2.586966e+02  -1.500371e+02
  -6.489165e+01  -2.486432e+02
   9.141863e+01  -2.452020e+02
   2.338887e+02  -1.128587e+02
   2.127597e+02   3.974214e+01
   1.658133e+01   1.237996e+02
  -5.260529e+01  -2.188634e+01
   4.353941e+01  -1.405447e+02
   2.007176e+02  -8.077207e+01
   1.858450e+02   9.534760e+01
   9.319535e+01   2.824243e+02
  -1.416007e+02   1.557544e+02
  -1.954344e+02   2.850915e+01
  -8.907167e+01  -5.036859e+00
   1.091588e+01  -1.483176e+01
  -6.208541e+00   1.930743e+01
  -1.416418e+02   1.114910e+02
  -1.739893e+02   4.986760e+01
  -2.146361e+02  -1.571158e+02
   1.300791e+01  -1.974537e+02
   1.597366e+02  -1.702529e+02
   2.244016e+02  -2.163264e+01
   1.022610e+02   1.136631e+02
  -9.391388e+01   1.054673e+02
  -3.145253e+01   1.027600e+01
  -2.812677e+01  -6.890577e+01
   5.288954e+01  -1.611262e+01
   8.066254e+00   8.380385e+01
  -6.285898e+01   1.234168e+01
  -1.054706e+02  -5.641815e+01
   6.444803e-01  -2.076596e+02
   1.094133e+02  -1.793770e+02
   2.272390e+02  -1.823022e+01
   1.840508e+02   1.688598e+02
   5.021810e+01   2.567985e+02
  -1.052649e+02   1.853796e+02
  -1.522732e+02  -5.478115e+00
  -9.864505e+01  -9.767395e+01
   3.085723e+01  -1.061532e+01
   8.411346e-01  -7.354868e-01
  -9.033839e+01   2.888291e+01
  -6.886273e+01  -5.651325e+01
   5.369998e+01  -1.599038e+01
   6.235436e+01  -2.171658e+01
   9.374286e+01   3.520973e+01
  -5.781349e+01   1.359606e+02
  -1.435765e+02   2.408216e+01
  -2.229634e+02  -1.080802e+02
  -1.195495e+02  -2.283332e+02
   1.354561e+02  -2.251241e+02
   3.433643e+02  -1.169015e+02
   2.854049e+02   1.177492e+02
   1.148678e+02   2.079289e+02
  -9.970775e+01   2.010492e+02
  -1.405749e+02   1.404824e+02
  -1.722890e+02   9.361350e+01
  -1.071714e+02   7.321821e+01
  -1.241837e+02   9.481826e+01
  -2.085993e+02  -7.688903e+01
  -1.048262e+02  -1.671148e+02
  -2.833569e+01  -2.714493e+02
   9.934930e+01  -2.005773e+02
   1.553672e+02  -4.443293e+01
   1.537090e+02   1.286853e+02
   6.404784e+01   1.661079e+02
  -5.783005e+01   8.455661e+01
  -5.909121e+01   5.039724e+01
  -2.320837e+00  -7.658550e+01
   8.228143e+01  -4.895014e+01
   2.009072e+00   3.668920e+00
  -6.116992e+01  -2.180446e+01
  -4.717967e+01  -3.420231e+01
   5.100043e+01  -4.303355e+00
   1.690944e+02   4.723864e+00
   1.716112e+02   5.039913e+01
   4.515786e+01   1.224390e+02
  -1.211113e+02   1.150794e+02
  -1.743152e+02   5.995140e+00
  -8.522409e+01  -4.987999e+01
   5.270164e+01  -2.550728e+01
   7.693049e+01  -2.492157e+01
   9.318602e+01   7.311960e+01
  -5.332228e+01   8.395598e+01
  -4.538964e+01   3.716745e+01
  -1.008311e+02  -5.819625e+01
  -2.957668e+01  -3.250805e+01
  -3.684416e+01   9.915907e+00
  -7.409050e+01   1.805442e+01
  -7.753655e+01  -8.061595e+01
  -9.443534e+00  -1.485216e+02
   1.024530e+02  -1.886689e+02
   2.086936e+02  -6.075864e+01
   1.714910e+02   2.408840e+01
  -2.772412e+01   1.112398e+02
  -1.113896e+02   1.232665e+02
  -6.441010e+01  -7.047063e+00
   6.995222e+01  -1.350622e+01
   1.408644e+02   5.247321e+00
   4.821207e+01   1.337190e+02
  -1.134873e+02   1.181134e+02
  -2.271379e+02   5.221115e+01
  -1.662689e+02  -4.816364e+01
   8.289419e+00  -1.214730e+02
   7.863510e+01  -8.151427e+01
   5.475238e+01   3.691251e+01
  -3.799999e+01   6.495511e+01
  -9.195041e+01   5.737188e+00
  -6.139097e+01  -1.024969e+02
   1.075563e+02  -1.722765e+02
   1.772901e+02  -6.201398e+01
   1.053175e+02   1.535370e+02
  -1.127351e+00   2.189228e+02
  -8.801790e+01   1.268234e+02
  -5.981161e+01  -3.749509e+01
  -5.983335e+01  -1.282648e+02
   1.254036e+01  -1.001306e+02
   1.484274e+01  -2.660330e+01
   6.898957e+01   6.858188e+01
   3.392620e+01   2.797283e+01
   4.301126e+01  -1.656319e+01
   3.979231e+01   1.181866e+01
   7.327422e+01   1.147279e+02
   4.594849e+01   1.230109e+02
  -7.490514e+01   6.391859e+01
  -1.589464e+02  -1.026942e+01
  -1.487263e+02  -9.273590e+01
  -3.613922e+00  -5.229378e+01
   1.122155e+02  -7.549314e+01
   1.316771e+02   4.445587e+00
   1.016630e+01  -4.670519e-02
  -3.069660e+01   6.474914e+00
  -3.820062e+01   7.927519e+00
   5.367754e+01   1.083282e+00
   2.338306e+01  -9.192296e+00
  -5.865132e+01  -2.146866e+01
  -8.676892e+01  -4.858647e+01
  -3.760648e+01  -8.798193e+01
   6.826287e+01  -1.643212e+02
   1.959151e+02  -5.472258e+01
   1.890246e+02   6.884220e+01
   8.866190e+01   1.578199e+02
  -1.721614e+01   1.786629e+02
  -1.450969e+02   4.530159e+01
  -1.283709e+02  -3.375833e+01
  -5.634564e+01  -7.403180e+01
   4.081487e+01  -1.035807e+01
  -9.582433e+00   9.434744e+00
   6.498572e+00  -8.780602e-01
  -6.082024e+01  -4.775335e+01
   4.102787e+01  -7.839221e+01
   9.799384e+01   1.515583e+01
   9.592016e+01   6.608610e+01
  -2.045456e+01   8.225086e+01
  -1.046189e+02   4.709485e+01
  -1.147409e+02  -5.343220e+01
  -2.657920e+01  -1.596082e+02
   5.836798e+01  -9.730887e+01
   1.559812e+02   3.519494e+01
   6.210896e+01   8.481920e+01
  -3.670363e+01   7.297371e+01
   5.047639e+00   5.816518e+00
   5.043094e+01  -3.258461e+00
   5.522562e+01  -4.276546e+01
   1.138331e+01   6.472248e+01
  -8.363742e+01   6.964829e+01
  -1.340499e+02   2.137195e+01
  -1.146773e+02  -1.491327e+01
   3.441836e+01  -9.972245e+01
   8.748453e+01  -6.461033e+01
   6.202390e+01  -2.031027e+01
   8.430623e+00   6.882404e+01
  -2.683221e+01   3.460509e+00
  -1.404884e+01  -8.495584e+00
   7.470532e+00  -4.200809e+01
  -1.282299e+01  -4.557645e+01
   2.073831e+01   2.313192e+01
   1.301544e+01   1.226435e+01
   2.059589e+01   3.452509e+01
  -1.395152e+01   1.873565e+01
   5.353156e+01  -2.706978e+01
  -3.477307e+01   8.602542e+01
  -4.264538e+00   5.525483e+01
  -4.152878e+01   3.146372e+01
  -5.157797e+01  -2.442842e+01
  -2.212334e+01  -6.491899e+01
   5.484182e+01  -7.390754e+01
   5.412095e+01  -4.588180e+00
   4.659245e+01   9.116811e+01
  -4.976187e+01   3.044219e+01
  -9.480295e+01   1.272960e+01
  -5.675739e+01  -6.710844e+01
   3.558695e+01  -4.993814e+01
   1.263456e+02  -6.571117e+01
   6.316617e+01   2.469040e+01
  -1.348803e+01   1.475190e+01
  -5.395795e+01  -1.660925e+01
   3.399901e+01   2.526274e+00
   7.071171e+01  -6.043282e+01
