
 $NMID
 id='ANONYMOUS ', fmtdat='(2E16.6)'
 volume=1.0
 tramp=1.0
 $END
  -4.221644e+03   1.176460e+02
  -2.599843e+03  -2.633911e+03
   7.163077e+02  -3.014522e+03
   2.120930e+03  -9.115761e+02
   1.099754e+03   7.872305e+02
  -6.761640e+02   5.978547e+02
  -9.819752e+02  -3.309771e+02
  -2.459096e+02  -1.091990e+03
   7.979980e+02  -8.942575e+02
   9.039215e+02   6.771649e+01
   5.864183e+02   7.034019e+02
  -1.608103e+02   8.742648e+02
  -5.641282e+02   1.921395e+02
  -5.656026e+02  -5.727724e+02
   1.803996e+02  -7.919505e+02
   5.681102e+02  -1.212140e+02
   2.468229e+02   5.401385e+02
  -3.489589e+02   6.193718e+02
  -5.377162e+02   4.617969e+01
  -4.898322e+02  -2.883203e+02
   4.381628e+01  -4.360876e+02
   3.282970e+02  -1.056104e+02
   1.084114e+02  -3.311689e+01
  -2.144936e+02   2.214419e+02
  -4.171935e+02  -5.337706e+01
  -2.521947e+02  -3.840931e+02
   5.596849e+02  -4.393440e+02
   8.242001e+02   3.373139e+01
   3.910273e+02   5.556129e+02
  -4.235157e+02   4.784300e+02
  -7.138890e+02   9.641586e+00
  -2.640481e+02  -4.450206e+02
   3.045015e+02  -6.121716e+02
   5.816161e+02  -2.036007e+02
   4.798010e+02   2.764458e+02
   5.585211e+01   5.369815e+02
  -3.111101e+02   2.943050e+02
  -1.917748e+02  -3.035655e+02
   1.659082e+02  -5.427904e+02
   5.203449e+02  -4.022124e+01
   2.329923e+02   6.377227e+02
  -3.098738e+02   7.279136e+02
  -5.682230e+02   1.286713e+01
  -2.636060e+02  -5.804403e+02
   2.018536e+02  -3.858385e+02
   3.916351e+02   3.034530e+02
  -9.039149e+01   5.936039e+02
  -4.881081e+02   1.439952e+02
  -5.289152e+02  -4.037505e+02
  -1.233132e+02  -6.264057e+02
   3.982228e+02  -3.550725e+02
   6.306375e+02   9.534064e+01
   3.771063e+02   4.449675e+02
  -1.370458e+02   4.061151e+02
  -4.592853e+02   3.734867e+01
  -2.459691e+02  -2.146189e+02
   1.495780e+02  -6.528048e+01
   2.016060e+02   1.387666e+02
  -1.584930e+02   2.204562e+02
  -4.461024e+02  -7.220289e+01
  -1.816438e+02  -3.310128e+02
   2.400947e+02  -2.877639e+02
   3.726580e+02  -9.247668e+01
   1.645071e+02   1.315087e+02
  -5.788731e+01   2.449007e+02
  -2.073507e+02   2.785926e+02
  -3.078147e+02   1.563318e+02
  -2.693219e+02  -1.222187e+02
  -8.102054e+00  -4.745918e+02
   4.804775e+01  -3.721758e+02
   9.623348e+01  -6.934717e+01
   4.212846e+01   5.590245e+01
   7.382492e+01  -7.271161e+01
   2.363689e+02  -1.427120e+02
   3.006012e+02   6.877187e+01
   1.488265e+02   3.085808e+02
  -7.720173e+01   2.763862e+02
  -2.910621e+02   1.309742e+01
  -2.128290e+02  -2.316112e+02
   2.248692e+01  -3.069732e+02
   3.085141e+02  -1.565943e+02
   3.655654e+02   1.861223e+02
   2.393297e+02   3.780329e+02
  -1.413856e+02   3.390649e+02
  -3.166129e+02   1.630150e+02
  -1.629647e+02   3.288349e+01
  -1.081164e+02   1.255234e+00
  -2.198777e+02   3.612547e+01
  -4.093559e+02  -8.787927e+01
  -3.165611e+02  -2.698332e+02
  -7.078307e+00  -4.602788e+02
   3.452062e+02  -4.166035e+02
   5.186199e+02  -1.778112e+02
   3.524160e+02   9.563637e+01
   6.391477e+01   2.928600e+02
  -1.066087e+02   2.748773e+02
  -1.019582e+02   2.785885e+01
   1.107116e+02  -9.646049e+01
   1.532034e+02   1.901562e+00
   1.135179e+02   1.913080e+02
  -1.485375e+02   1.645105e+02
  -1.622659e+02  -5.095220e+01
   5.343123e+00  -1.545494e+02
   2.050727e+02  -3.461221e+01
   1.602730e+02   2.362613e+02
  -1.081829e+01   3.305347e+02
  -2.463485e+02   2.175061e+02
  -3.648120e+02  -1.991912e+01
  -3.515722e+02  -2.372187e+02
  -1.357477e+02  -3.017525e+02
   1.462472e+02  -1.667359e+02
   1.795322e+02  -3.830385e+01
  -8.480489e+00   3.409669e+01
  -1.001519e+02  -4.591945e+01
  -2.868748e+01  -1.525713e+02
   1.414464e+02  -1.061654e+02
   1.848511e+02   4.565407e+01
   5.562186e+01   3.666747e+01
  -1.235020e+02  -4.234736e+01
  -6.545387e+01  -1.063172e+02
   1.313565e+02  -1.303078e+02
   2.541570e+02  -9.040025e+00
   2.691913e+02   1.155789e+02
   8.231270e+01   2.538818e+02
  -1.564323e+02   2.431198e+02
  -2.181142e+02   5.379777e+01
  -1.438816e+02  -7.111285e+01
   4.882776e+01  -4.956487e+01
   1.196087e+02   3.794493e+01
  -6.518883e+01   1.347305e+02
  -2.104354e+02   6.011908e+01
  -2.334685e+02  -1.128962e+02
  -7.810683e+01  -2.247859e+02
   7.474345e+01  -1.518137e+02
   1.264775e+02  -1.891287e+01
   3.197020e+01   1.615270e+01
  -2.456392e+01  -2.699894e+01
  -3.160855e+01  -1.531290e+02
   8.663631e+01  -1.255094e+02
   2.123716e+02  -4.087538e+01
   2.134924e+02   8.177086e+01
   1.403924e+01   2.326567e+02
  -9.521047e+01   1.757689e+02
  -1.661994e+02   1.018548e+01
  -5.714167e+01  -9.027601e+01
   4.796129e+01  -9.812181e+01
   8.772621e+01   7.261256e+00
   4.255202e+01   4.151446e+01
  -2.883746e+01   1.270502e+01
  -5.122129e+00  -3.042736e+01
   3.383639e+01  -8.852970e+00
   8.253810e+01   7.501156e+01
   4.338038e+01   1.574454e+02
  -1.660739e+02   1.687204e+02
  -2.368639e+02   5.039404e+01
  -1.744824e+02  -2.096452e+02
  -8.608632e+01  -2.623732e+02
   1.349626e+02  -1.804771e+02
   1.553204e+02  -2.850392e+01
   7.458918e+01   6.198171e+01
   2.722085e+00   6.351097e+01
   4.935907e+01   2.292045e+01
   7.317366e+01   9.490166e-01
   5.635946e+01   9.477928e+00
  -5.610675e+01   1.181691e+02
  -4.498706e+01   4.215388e+01
  -6.861049e+01  -9.168286e+01
   1.135339e+01  -1.170159e+02
   1.675072e+02  -4.371893e+01
   2.138181e+02   4.155020e+01
   1.021999e+02   2.526753e+02
  -1.521127e+02   2.104630e+02
  -2.579913e+02   8.323155e+01
  -2.556672e+02  -1.328196e+02
  -1.251588e+02  -1.915287e+02
   2.609368e+01  -1.583306e+02
   5.417256e+01  -7.959674e+01
   9.227271e+01  -8.509368e+01
   9.999084e+01  -6.666489e+01
   1.217966e+02  -4.984603e+01
   1.754876e+02   5.552454e+00
   1.432822e+02   1.106237e+02
   5.081947e+01   2.569565e+02
  -1.575263e+02   1.935778e+02
  -2.122704e+02   1.171773e+01
  -1.199911e+02  -1.111707e+02
   1.067350e+01  -1.809327e+02
   1.573878e+02  -1.337928e+01
   7.977157e+01  -3.818168e+01
  -7.628565e+00   7.626212e+01
  -1.645896e+01   5.839711e+01
  -2.160844e+01   1.405220e+01
   4.539651e+01  -2.219517e+01
   6.356917e+01   6.704908e+01
  -9.727304e+01   6.554554e+01
  -1.427563e+02   4.479960e+01
  -1.644812e+02  -8.415153e+01
  -4.724567e+01  -9.721038e+01
   1.295731e+02  -1.054555e+02
   1.481281e+02  -3.762237e+01
   4.399006e+01   3.991969e+01
  -4.815249e+01   3.674659e+01
  -5.191389e+01  -3.859181e+00
   6.455273e+00  -9.635254e+01
   8.233799e+01  -7.853426e+01
   8.120053e+01   2.757949e+01
   6.541693e+01   6.974273e+01
   5.125284e+01   2.620868e+01
   6.882557e+01   6.712248e+01
   6.281204e+01  -3.762378e+01
   2.559743e+01   1.019787e+02
  -3.082107e+01   1.614419e+02
  -8.224675e+01   1.725314e+02
  -2.013925e+02   1.408276e+01
  -1.569840e+02  -5.236070e+01
  -3.939086e+01  -1.720692e+02
   7.943607e+01  -5.891627e+01
   7.612243e+01   1.729495e+01
  -3.648151e+01   2.479962e+01
  -1.604300e+02  -7.341918e+01
  -8.317947e+01  -9.225989e+01
   9.324236e+01  -1.341658e+02
   1.558472e+02  -4.789662e+01
   1.329410e+02   2.809576e+01
   1.062966e+01   6.768946e+01
  -5.230450e+01   4.276884e+01
  -2.658155e+01   2.698075e+01
   4.025999e+01  -4.381025e+01
   1.317630e+02   3.556394e+01
   5.486300e+01   1.012875e+02
  -9.602122e+01   1.166941e+02
  -1.699388e+02   7.654541e+01
  -9.551982e+01  -1.200778e+02
   9.986885e-01  -1.380428e+02
   1.021234e+02  -1.142612e+02
   1.194595e+02   1.364203e+01
  -2.275759e+01   1.171954e+02
  -1.625385e+01   6.891548e+01
  -2.689062e+01  -6.949281e+01
  -5.449566e+01  -7.319468e+01
  -3.505577e+01  -2.879600e+00
   3.557811e+01   3.896616e+01
  -3.763219e+01  -1.345902e+01
  -4.447911e+01  -6.966859e+01
  -4.409226e+01  -1.167857e+02
   9.135892e+01  -3.363806e+01
   1.227364e+02   4.822956e+01
   1.278921e+02   7.252320e+01
  -1.956676e+01   4.071510e+01
  -8.472518e+01   3.202303e+01
  -7.019885e+01  -2.829649e+00
   2.783589e+01   6.053709e+01
   3.390426e+01  -4.431670e+01
  -1.057533e+01  -1.501404e+01
  -3.672799e+01   5.974174e+00
  -7.485675e+00  -3.838920e+01
   2.061790e+01  -2.126752e+01
   1.051460e+02  -3.192789e+01
   4.402413e+01   4.502308e+01
  -1.228330e+02   1.681613e+02
  -1.477930e+02   5.056638e+01
  -1.366298e+02  -7.593511e+01
   7.385058e+00  -1.283098e+02
   9.014224e+01  -1.099511e+02
   8.016925e+01  -3.409686e+01
   8.154306e+01   5.189822e+01
   4.528787e+01   4.999438e+01
  -5.395905e+00  -4.196804e+00
   1.170528e+01   9.835881e+00
   4.018137e+01   2.534017e+01
   7.264830e+01   6.469557e+01
  -8.572228e+00   9.837687e+01
  -6.642766e+01   3.064408e+00
  -1.208145e+02  -1.227148e+02
   1.773573e+01  -5.569863e+01
   7.784268e+01  -3.195008e+01
   9.849288e+01   7.178849e+01
   1.324268e+01   1.001046e+02
  -4.306078e+01   2.272652e+01
  -1.124685e+02  -2.840371e+01
  -4.233564e+01  -4.866810e+01
   7.009731e+01  -6.745937e+01
   2.641131e+00  -1.054058e+01
  -2.971464e+01   2.038921e+01
  -6.430511e+01   2.943360e+01
  -2.623831e+01  -6.575224e+01
   3.564947e+01  -8.161599e+01
   8.814682e+01  -8.245160e+01
   5.280079e+01   5.251391e+00
   3.125908e+00   7.637956e+01
  -3.487530e+01   4.948435e+01
  -2.078082e+01  -1.774315e+01
   3.594593e+01  -1.563463e+01
   2.069044e+01  -5.665508e+01
   3.782588e+01   1.164155e+01
  -4.859297e+00   5.519601e+01
  -5.190220e+01   6.713526e+00
  -2.772809e+01  -2.025002e+01
  -4.874831e+01  -3.143393e+01
  -1.474901e+00  -9.364187e+00
   4.424122e+00  -5.379400e-01
   8.647873e+00  -6.217582e+01
  -2.681055e+01   1.959599e+01
   3.779461e+01  -7.505013e+01
   4.824346e+01  -1.134495e+01
   7.458952e+01   2.982477e+01
   2.530114e+01   6.457966e+01
   1.823480e+01   4.541436e+01
  -3.666887e+01  -1.508599e+00
   2.092174e+01  -2.841130e+01
   3.658608e-01  -5.080522e+00
   6.300734e+01  -5.607132e+00
   2.381265e+01   5.002690e+01
  -5.357248e+01   6.287753e+01
  -1.157679e+02   2.503752e+01
  -2.386929e+01   4.345595e+01
   3.080224e+01  -3.048826e+01
   1.915855e+01   2.776314e+01
  -3.380568e+01  -7.022960e+00
  -9.120383e+01   3.416335e+01
