
 $NMID
 id='ANONYMOUS ', fmtdat='(2E16.6)'
 volume=1.0
 tramp=1.0
 $END
  -1.426358e+03  -1.176655e+02
  -1.249306e+03  -7.834079e+02
  -2.257691e+02  -1.207052e+03
   4.938335e+02  -8.076643e+02
   5.472196e+02  -1.536538e+02
   5.335727e+01   1.192224e+02
  -2.254870e+02  -9.834187e+01
  -4.133189e+01  -2.102777e+02
   2.063186e+02  -2.713577e+02
   3.565326e+02  -9.000379e+01
   3.213709e+02   7.796959e+01
   2.653046e+00   2.140608e+02
  -1.671614e+02   2.043575e+02
  -1.869748e+02  -1.268567e+02
  -2.950953e+01  -1.751246e+02
   2.164198e+02  -6.528426e+01
   2.084254e+02   2.089612e+02
  -5.075412e+01   4.130583e+02
  -1.572550e+02   1.745563e+02
  -1.902416e+02  -4.210573e+01
  -1.426337e+02  -2.155645e+02
   1.277099e+02  -7.416421e+01
  -3.685976e+01   7.279570e+01
  -1.762362e+02  -4.475468e+01
  -1.707715e+02  -3.117011e+02
   4.436983e+01  -2.043230e+02
   3.522233e+02  -5.399718e+01
   2.579569e+02   8.818239e+01
   2.411257e+01   1.855003e+02
  -1.730238e+02   4.914415e+01
  -3.117726e+02  -1.515713e+02
  -5.653739e+01  -1.676139e+02
   1.702821e+02  -1.635988e+02
   2.261108e+02   1.361080e-01
   2.308532e+02   1.524842e+02
   5.359441e+01   1.415244e+02
  -2.564290e+00   6.640181e+01
   5.121304e+01  -8.114287e+00
   5.540073e+01  -6.150354e+01
   4.673870e+01   1.441343e+02
  -4.374902e+01   1.972928e+02
  -1.631987e+02   1.729082e+02
  -1.070789e+02   3.084694e+01
  -1.673512e+01  -4.709687e+01
   9.192162e+01  -6.521228e+01
   1.041640e+02   1.175642e+02
  -1.472952e+02   2.025745e+02
  -2.885177e+02   7.832313e+01
  -3.148711e+02  -1.253800e+02
  -8.366631e+01  -2.483116e+02
   1.421391e+02  -1.523264e+02
   2.770205e+02   2.769902e+01
   1.515791e+02   1.532210e+02
  -2.826869e+01   1.041033e+02
  -1.586105e+02   5.469896e+01
  -1.378277e+02  -7.547804e+00
  -6.794899e+01   1.493435e+01
  -1.574492e+01   2.277316e+01
  -3.214892e+01   5.090824e+01
  -8.250575e+01  -6.679059e+01
  -5.378129e+01  -1.064410e+02
  -1.523942e+01  -1.298022e+02
   1.338580e+02  -1.041712e+02
   1.129285e+02   9.031525e+01
  -1.606856e+01   1.377989e+02
  -1.218068e+02   1.970642e+02
  -2.035143e+02   1.058984e+02
  -1.459049e+02  -1.093294e+02
  -8.233651e+00  -1.808281e+02
  -3.826527e+00  -1.645555e+02
   1.744766e-01  -8.275034e+01
   1.297723e+01  -7.808372e+01
   1.941702e+01  -5.756430e+01
   9.673358e+01  -7.273624e+00
   1.460001e+02   8.442089e+01
   6.312897e+01   1.220718e+02
   3.363750e+00   5.486699e+01
  -8.515763e+01  -4.918583e+01
  -2.816117e+01  -1.401532e+02
   3.943184e+01  -1.185326e+02
   1.503417e+02  -3.224988e+01
   1.495887e+02   1.332472e+02
   6.943036e+01   1.508147e+02
  -2.034360e+00   1.332680e+02
  -1.007985e+02   1.086123e+02
  -5.304562e+01   4.668387e+01
  -7.369164e+01   6.123508e+01
  -1.629150e+02   2.156456e+01
  -2.815188e+02  -5.504997e+01
  -1.727223e+02  -1.325708e+02
  -6.305759e+01  -2.426463e+02
   1.669923e+02  -2.063481e+02
   2.371551e+02  -1.130011e+02
   1.223878e+02   7.184433e+01
   2.740213e+01   8.383230e+01
  -2.502939e+01   6.472013e+01
   1.214589e+01  -1.903446e+01
   1.055757e+02  -3.080150e+01
   1.051616e+02   7.252193e+01
   2.737414e+01   7.553273e+01
  -4.495006e+01   8.360572e+01
   4.395842e-01  -5.866217e+00
  -2.372890e+01  -5.205379e+01
   7.960769e+01   1.227886e+01
   7.343828e+01   1.408370e+02
  -6.478922e+01   1.917381e+02
  -1.350755e+02   1.078798e+02
  -2.376991e+02  -3.365393e+01
  -1.769800e+02  -1.482400e+02
  -2.292473e+01  -1.686788e+02
   8.053477e+01  -9.132313e+01
   3.582960e+01   1.889033e+01
   1.041235e+01   2.822248e+01
  -4.061767e+01  -6.975388e+01
   2.755503e+01  -7.335720e+01
   1.094291e+02  -5.527817e+01
   1.147807e+02   3.561330e+01
   2.964734e+01   1.884741e+01
  -3.504493e+01   2.315339e+01
  -1.077362e+01  -6.700822e+01
   8.695611e+01  -7.521993e+01
   1.892075e+02   5.770836e+00
   1.132355e+02   1.132280e+02
  -1.050904e+01   1.885330e+02
  -1.037052e+02   1.350242e+02
  -9.172196e+01   4.507857e+01
  -7.636786e+01  -5.229596e+01
   3.500146e+01  -4.995907e+01
   8.499508e+00   2.792828e+01
  -4.019277e+01   6.862568e+01
  -7.704577e+01   2.440597e-01
  -1.047547e+02  -6.157167e+01
  -3.369094e+01  -1.278505e+02
   5.268026e+01  -1.211958e+02
   8.991956e+01   2.605504e+01
   3.183442e+01   3.065579e+01
  -2.198432e+00   1.004933e+01
  -1.685430e+01  -3.052684e+01
   2.894767e+01  -4.500042e+01
   1.193338e+02   1.239426e+01
   1.175292e+02   8.387065e+01
   1.193864e-01   1.323556e+02
  -1.147054e+02   3.084774e+01
  -1.033608e+02   2.070587e-01
  -5.140722e+01  -3.075373e+01
   4.585335e+01  -4.256700e+01
   4.042742e+01   1.955426e+01
  -6.015773e+01   5.298723e+01
  -2.539045e+01  -2.593914e+01
  -8.334168e+00  -2.029054e+01
   4.894128e+01  -4.517958e+01
   6.397193e+01   3.959156e+01
   2.276428e+01   9.634263e+01
  -8.330064e+01   7.416832e+01
  -1.249854e+02   1.428950e+01
  -8.417637e+01  -1.181311e+02
  -2.083016e+01  -9.070160e+01
   8.402244e+01  -8.226540e+01
   8.409618e+01  -1.959850e+01
   4.203724e+01  -1.884558e+00
   2.963186e+01  -2.380908e+01
   6.488004e+00  -4.832058e+01
   6.857721e+01  -4.014745e+01
   5.025689e+01   9.037454e+00
   2.113617e+01   4.137723e+01
  -9.230689e+00   2.619807e+01
  -4.464699e+01  -3.577338e+01
   5.047119e+01  -6.981708e+01
   9.372633e+01  -4.874338e+01
   1.341756e+02   4.372912e+01
   4.326002e+01   1.359461e+02
  -6.185767e+01   1.129884e+02
  -1.599149e+02   7.181887e+01
  -1.377741e+02  -2.304691e+01
  -3.252565e+01  -6.344885e+01
  -1.198702e+01  -2.485064e+01
   3.409388e+01  -3.929092e+01
   7.447165e+00  -7.230537e+01
  -3.234638e+01  -9.018670e+01
   5.976014e+01  -2.966144e+01
   9.171362e+01   5.038168e+00
   8.756319e+01   6.616311e+01
   3.454707e+01   1.336834e+02
  -9.265879e+01   8.700753e+01
  -8.156227e+01   1.225919e+01
  -4.125610e+01   1.021930e+01
  -2.088990e+00  -4.322976e+01
   6.788104e+01   1.951015e+01
   5.184572e+01  -4.319611e-01
  -3.657171e+01   3.967388e+01
  -3.652803e+01   3.454512e+01
  -3.731303e+01  -1.681186e+01
   4.704872e+01   1.829036e+01
  -3.043701e+01   3.646120e+01
  -4.268947e+01   1.422695e+01
  -1.372411e+02  -2.370244e+00
  -6.774826e+01  -4.645407e+01
   4.117069e+00  -1.298047e+02
   6.059180e+01  -5.479440e+01
   1.121407e+02  -5.523526e+01
   4.106330e-03  -1.841590e+00
  -4.668947e+01   2.283850e+01
   6.269558e+00  -4.451385e+01
   1.412189e+00  -5.947295e+01
   3.144342e+00  -6.138438e+01
   3.094976e+01  -3.007810e+00
   1.206749e+01   1.457235e+01
   5.290203e+00   2.429967e+01
   4.271300e+01   5.718452e+00
   9.645699e+01   3.993408e+00
   4.442967e+01   2.946666e+01
   6.782973e+00   1.205106e+02
  -1.031717e+02   8.324274e+01
  -9.193812e+01   3.877952e+01
  -9.368714e+01  -6.431114e+01
   3.675577e+01  -2.684879e+01
   9.130654e+01  -7.962922e+01
   4.330302e+01   7.509878e+00
  -4.454447e+01   3.275381e+01
  -7.998716e+01   9.109193e-01
  -5.242844e+01  -2.426876e+01
   1.786077e+01  -5.113318e+01
   1.043881e+02  -8.536391e+00
   7.584746e+01   2.012634e+01
   4.071992e+01   5.322393e+01
  -2.298508e+01  -8.894672e-01
  -4.634201e+00   1.847782e+01
   3.131584e+01  -4.973193e+01
   6.318920e+01  -8.422216e+00
   3.548032e+00   9.163919e+01
  -4.364489e+01   6.433242e+01
  -2.859144e+00   8.220075e+01
  -8.934843e+01  -3.296035e+01
  -1.370230e+01  -1.108479e+02
   8.104786e+01  -5.000127e+01
   6.677720e+01   3.563972e+01
   4.716712e+01   5.957727e+01
   3.577366e+01   6.940533e+01
   1.347228e+01  -3.079887e+01
  -3.375572e+01  -2.179152e+01
  -3.106207e+01   2.267529e+01
   2.236102e+01   4.694268e+01
  -4.503912e+01  -7.310911e+00
  -5.048928e+01  -3.739184e+01
  -1.201122e+01  -6.106816e+01
   1.585324e+01  -3.296457e+01
   3.472338e+01   2.710794e+01
   3.315846e+01   5.136718e+01
  -3.318533e+01   4.494498e+01
  -6.828952e+01   3.003350e+01
  -1.436118e+01   1.500563e+01
  -2.014987e+01   1.100572e+01
   8.028733e+00  -3.932204e+01
   1.855056e-02  -4.458319e-01
  -2.059603e+01  -1.457275e+01
  -1.575817e+00  -1.441616e+01
   5.106189e+01  -2.552791e+01
   6.293105e+01  -1.410449e+01
   3.704135e+01   4.723952e+01
  -5.537101e+01   7.517241e+01
  -4.290283e+01   7.918081e+01
  -9.915485e+01  -5.632626e+01
  -7.889572e+00  -3.989970e+01
   4.944751e+01  -1.061776e+02
   2.235378e+01  -4.815815e+01
   4.888478e+01  -4.708015e+00
   5.476371e+00   1.867600e+01
   2.999866e+01  -9.137590e+00
  -1.294774e+01   8.970369e+00
   6.675739e+01   5.546063e+01
   9.663405e+00   5.424545e+01
  -3.307085e+01   3.474680e+01
  -6.210404e+01  -1.774926e+01
  -2.796546e+00  -4.251485e+01
  -3.772757e+01  -7.517723e+01
   6.060906e+01  -3.050019e+01
   7.705463e+01   3.365433e+01
   2.784359e+01   4.413988e+01
  -2.778642e+01   2.472915e+01
  -6.362669e+01   1.312075e+00
  -1.681070e+01  -5.642274e+01
  -4.126874e+00  -5.974486e+01
   6.999708e+01   3.470282e+00
  -3.485880e+01   3.772402e+00
  -7.556624e+01   2.338816e+01
  -1.879792e+01  -1.979866e+01
   2.314922e+01  -7.108747e+01
   4.019218e+01  -2.243434e+01
   5.249734e+01   3.987282e+01
  -9.478924e-01   7.122824e+01
  -6.583698e+01   6.806715e+01
  -7.449997e+01   1.223783e+01
   1.208219e+01  -2.846816e+01
  -2.798853e+01   2.414853e+01
  -7.384050e+00   3.247640e+01
   1.374838e+01   1.566116e+01
  -6.905414e+00   3.298924e+01
   2.552380e+00  -1.206552e+01
   1.553095e+01  -3.087295e+01
  -5.308916e-02  -2.815671e+01
  -2.786067e+01   7.295581e+00
   1.676149e+01   2.551492e+01
  -2.706841e+00  -3.911571e+01
  -2.256587e+01  -2.934862e+01
   2.711849e+01  -5.551728e+00
   5.152163e+01   2.487236e+01
   1.652085e+00   2.178549e+01
  -2.632601e+01  -1.145797e+01
  -4.696074e+01  -7.711655e+00
  -1.311546e+01  -4.034024e+01
  -1.018628e+00  -5.759948e+01
   6.067180e+01  -2.562124e+01
   1.979695e+01   6.503179e+01
   8.807301e+00  -3.116620e+00
  -1.228588e+01   2.003671e+01
  -1.655846e+01  -4.085573e+01
  -4.691751e+00  -2.561423e+01
  -1.642530e+01  -2.248599e+01
   7.031906e+01   2.747356e+01
  -7.111300e+00  -3.844658e+00
