
 $NMID
 id='ANONYMOUS ', fmtdat='(2E16.6)'
 volume=1.0
 tramp=1.0
 $END
  -9.433662e+02   5.196393e+01
  -6.642799e+02  -4.734193e+02
   5.662662e+01  -6.412560e+02
   2.802944e+02  -2.254133e+02
   2.367576e+02  -1.458661e+02
   2.154372e+02  -5.484570e+01
  -4.409099e+01   1.673740e+02
  -1.782924e+02  -2.498095e+01
  -8.873489e+01  -7.293533e+01
   1.664609e+02  -4.959029e+01
   1.765509e+02   1.347908e+01
   1.226883e+02   1.645676e+02
  -7.424539e+01   1.009874e+02
  -1.016389e+02  -1.076878e+02
   1.130805e+02  -7.866501e+01
   4.516825e+01  -1.012778e+02
   1.244346e+02  -4.057796e+01
   1.113443e+02   9.957213e+01
  -6.869614e+01   7.930135e+01
  -2.108825e+02  -3.922868e+01
   3.190142e+01  -1.208075e+02
  -3.277242e+01  -1.587407e+02
   3.823593e+01  -3.328451e+01
  -6.491169e+01  -1.410141e+02
  -5.061320e+01  -1.480957e+02
   9.050104e+01  -1.202389e+02
   1.951273e+02  -4.656960e+01
   1.062408e+02   8.484181e+01
   7.355069e+01  -1.880175e+01
  -6.614175e+01   3.133805e+01
  -3.823546e+01   2.128593e+01
  -9.494011e+01  -1.139581e+02
   1.757377e+01  -7.585952e+01
   1.821117e+02  -8.561107e+01
   1.384960e+02  -1.955376e+00
   9.018682e+01   1.159438e+02
   1.783199e+01   5.385853e+01
   3.722252e+01   4.106138e+01
   2.195482e+01  -2.762776e+00
   1.388432e+01   1.539772e+01
   7.396002e+00   1.006360e+02
  -1.847549e+01   8.837749e+01
  -3.128082e+01   5.792713e+01
   3.795899e+01  -1.144789e+01
   3.110787e+01   3.078307e+01
   5.273680e+01   8.324149e+01
  -5.757374e+01   8.440224e+01
  -1.289076e+02   6.598976e+00
  -1.714679e+02  -8.281326e+01
  -1.741742e+01  -1.035182e+02
   8.888236e+01  -2.539532e+01
   9.175992e+01   1.917299e+01
   8.118748e+01  -1.731961e+00
   3.711155e+01   4.811396e+01
   1.136376e+01   6.382490e+01
  -5.285064e+01   8.810502e+01
  -6.436788e+01   2.093711e+01
  -4.958633e+01   5.428336e+01
  -5.695364e+01   4.248096e+00
  -4.798892e+01  -1.439104e+01
  -3.398527e+01  -5.046038e+01
  -7.425819e-01  -1.207352e+02
   1.295683e+02  -5.315809e+01
   9.964839e+01   4.699470e+01
   2.024711e+00   1.476298e+02
  -1.008486e+02   1.294789e+02
  -6.821972e+01   4.730599e+01
  -7.721676e+01  -6.538094e+01
  -4.235307e+01  -8.436580e+01
  -3.330137e+00  -7.065514e+01
  -3.008774e+01  -3.004342e+01
   5.972857e+01  -7.430348e+01
   4.628337e+01  -3.656107e+01
   8.182382e+01   3.407900e+01
   4.358047e+01   8.587503e+01
   4.876908e+01   9.762578e+01
  -4.131517e-01   1.453503e+01
  -4.132912e+01  -2.585621e+01
  -2.941821e+01  -9.685316e+01
  -3.722877e+01  -7.205964e+01
   4.986793e+01  -1.375947e+01
   1.236704e+02   4.244439e+01
   8.456460e+01   7.328508e+01
   1.446697e+01   1.256388e+02
  -2.230182e+01   8.272343e+01
  -5.066481e+01   8.065115e+01
  -2.341571e+01   4.481780e+01
  -1.321170e+02  -1.608110e+01
  -1.380625e+02  -1.974490e+01
  -1.215413e+02  -6.976972e+01
   2.472206e+01  -1.174890e+02
   7.130808e+01  -1.424098e+02
   7.092704e+01  -8.995414e+01
   6.413596e+01   5.769273e-02
  -8.243812e+00   6.003299e+01
   9.831986e+00   7.178219e+01
   2.476258e+01  -1.118139e+01
   5.224849e+01  -3.974990e+01
   1.388470e+01  -8.375095e+00
   7.383953e+00   2.383466e+01
  -1.329240e+01   3.655835e+01
   1.383784e+01  -1.058457e+01
  -4.410543e+00  -7.184458e+01
   2.903382e+01   2.348868e+00
   4.050177e+01   1.016615e+02
   2.531023e+01   1.309947e+02
  -4.774309e+01   5.712396e+01
  -1.255821e+02  -1.824703e+01
  -1.010151e+02  -5.467282e+01
  -3.135414e+01  -7.201833e+01
   9.510076e+01  -2.812699e+01
   1.115922e+00  -1.112686e+01
  -1.122817e+01  -3.463308e+01
  -8.628681e+01  -1.350894e+01
   3.467841e+01  -4.508559e-01
   4.488013e+01  -1.539919e+01
   3.994392e+01   2.969428e+01
   1.467887e+01   9.105592e+00
  -4.099729e+01   2.274208e+01
   2.768181e+01  -1.955370e+01
   6.009276e+01  -3.032500e+01
   9.310197e+01  -6.762963e+00
   2.458764e+01   3.431425e+01
   2.582140e+00   7.258709e+01
  -3.001218e+01   7.296491e+01
  -3.298820e+01   1.263151e+01
  -3.543923e+01  -4.755128e+01
   1.889970e+01  -2.564014e+01
  -2.763408e+00   8.957127e+00
   8.556855e+00  -1.513661e+01
  -5.838283e+01  -1.915192e+01
  -8.095657e+01  -6.812201e+00
  -3.663614e+01  -3.923475e+01
   2.517531e+01  -2.137239e+01
   3.481091e+01   1.770283e+01
  -2.456133e+01   2.785673e-01
  -2.503109e+01  -3.096200e+01
  -7.071384e+00  -8.926822e+01
   4.611398e+01  -2.006088e+01
   9.471499e+01  -1.388142e+01
   7.017216e+01   5.378080e+01
   6.619663e+00   6.067411e+01
  -6.079032e+01   1.562990e+01
  -4.632087e+01   2.210197e+01
  -1.013476e+01  -2.391329e+01
  -2.922430e+00   4.485155e-01
   3.934965e+00  -1.988173e+01
  -3.550713e+01   3.303892e+01
   8.488431e+00   6.376120e+01
  -1.859022e+01  -5.871456e+01
   2.865303e+01  -3.192485e+01
   6.125323e+01  -1.589000e+00
   1.185250e+01   6.236430e+01
  -4.699673e+00   6.550325e+01
  -3.767967e+01   6.540141e+00
  -7.056036e+01  -2.127502e+00
   1.991300e+00  -7.778378e+01
  -1.866032e+00  -5.459247e+01
   3.157687e+01   2.258485e+01
   1.146771e+01   8.697343e+00
   1.866102e+01  -5.527328e+00
   2.365195e+01  -7.033878e+01
   2.210783e+01  -2.164217e+01
   5.497223e+01   7.296690e+00
  -1.749120e+01   4.079702e+01
  -4.149113e+01   3.257232e+01
  -3.530576e+01  -7.128255e+00
   1.428696e+00  -3.743166e+01
   2.882341e+00  -4.059459e+01
   5.336780e+01   5.478595e+00
   4.229229e+01   5.412783e+01
  -2.892412e+01   2.381933e+01
  -8.436673e+01   8.598457e+01
  -6.434592e+01  -2.900071e+01
  -5.514981e+01  -6.629890e+01
   6.947345e+01  -4.242108e+01
   3.472427e+01  -3.874714e+01
   3.014022e+00   2.075273e+01
   2.028248e+00   1.408312e+00
   2.278270e-01  -8.525794e+00
   1.547579e+00  -2.559971e+00
   2.843946e+01   4.520480e+01
   2.891365e+01   3.290383e+01
  -4.612972e+01   5.787501e+01
  -7.214202e+00  -2.802114e+01
  -3.902067e+01  -3.708279e+01
   3.150353e+01   1.274410e+01
   6.364876e+01  -2.562545e+00
   8.039989e+00   4.105311e+01
  -6.323240e+00   5.167916e+01
  -1.278766e+01  -2.936124e+01
   3.702264e+01  -5.272397e+01
   5.161974e+00   9.468400e+00
   3.735924e+00   2.467152e+01
  -1.346486e+01   6.353168e+01
  -7.971377e+01   4.112481e+01
  -6.729988e+01  -2.212784e+01
   2.281369e+00   2.859098e+00
   2.129764e+00  -5.464335e+01
   8.017890e+01   8.697112e+00
   2.991956e+01   6.273145e+01
  -1.109001e+01   7.045583e+00
  -9.013169e+00  -4.794837e+01
  -1.414247e+01  -6.172983e+01
   1.845532e+01  -5.813356e+01
   6.641765e+00  -2.040517e+01
   4.913289e+01   2.183834e+01
   2.520110e+01   9.558476e+00
   1.161102e+01   8.662380e+00
   6.439356e+00   4.160589e+00
  -1.025308e+00   7.075827e+01
   3.129188e+01   3.678399e+01
  -1.705598e+01   6.729628e+01
  -6.594527e+01   2.323506e+01
  -5.538417e+01  -8.757751e+00
   2.284054e+01  -8.751629e+01
   4.521826e+01  -6.298058e+01
   1.333477e+01   2.593544e+01
  -2.498942e+01   2.466443e+01
  -6.577253e+01  -4.341796e+00
  -5.654086e+01  -3.334183e+01
  -2.177901e+00  -9.471409e+00
   3.598332e+01  -1.409767e-01
   4.707936e+01   1.308738e+01
   3.368340e+01   1.129517e+01
  -1.413435e+01   4.337286e+01
  -4.066133e+01  -1.569394e+01
   2.417692e+01  -9.179878e+00
   1.076022e+01  -1.048074e-01
  -1.006018e+01   4.404545e+01
  -1.718334e+01   5.308287e+01
   1.109079e+01   3.540638e+01
  -5.136910e+01  -4.331955e+01
   1.543401e+01  -2.906810e+01
  -4.864008e+00  -3.798191e+01
   2.436361e+01   1.884105e+01
   1.509937e+01   5.441782e+01
  -1.649626e+01   1.179437e+01
  -6.069812e+00   3.464800e+01
  -5.125747e-01  -1.942643e+01
   2.543040e+01  -1.635397e+01
  -1.753624e+01   5.575315e+00
   3.887711e+01  -1.061862e+01
  -3.753130e+01  -3.497984e+01
   3.182140e+01  -1.108300e+01
   2.673595e+01  -2.660668e+01
   5.825495e+00  -2.453089e+01
   2.125347e+01   3.647187e+01
   3.255172e+01  -2.813669e+00
   1.125451e+01  -1.857657e+01
   8.759994e+00  -1.630158e+00
  -1.232250e+01   1.751464e+01
   4.140391e+01   4.666142e+01
   4.209316e+01   7.916921e+00
  -2.376820e+01  -1.471047e+01
  -4.455816e+01   1.686699e+01
   3.200762e+01  -7.469817e+00
   4.479506e+01   5.923924e+00
   2.260636e+01   2.799517e+01
  -2.022656e+01   3.174693e+01
  -8.709220e+01   3.368966e+01
  -2.134178e+01  -2.236472e+01
   1.833165e-01  -4.700750e+01
   3.252948e+01  -3.622558e+01
   1.947745e+01   1.745151e+01
   2.415472e+01  -1.629772e+01
  -5.965413e+00  -1.793326e+01
  -2.980008e+01   1.684849e+01
  -1.954883e+01  -1.772468e+01
  -1.126840e+01   3.746966e+01
  -7.993371e+00  -1.472153e+01
  -3.957395e+01   4.216779e+00
  -3.987958e+01  -1.349990e+01
   1.872963e+01  -1.598358e+01
  -3.244365e+01  -1.140741e+01
   2.326371e+01   1.997257e+00
   3.270059e+01   3.029563e+01
  -3.399721e+01   5.052390e+01
  -9.678366e+00  -3.671620e+01
  -6.733757e+01  -1.562456e+01
   1.144918e+01  -5.227902e+01
  -3.892900e+01   2.562855e+01
   2.412629e+01   2.914466e+01
  -2.878644e+01  -1.333064e+01
  -2.946933e+01   1.264883e+01
  -1.665589e+01  -1.355372e+01
   1.386877e-01  -4.741981e+01
   5.349872e+01  -2.786019e+01
  -2.945881e+01   4.979340e+01
   1.403713e+00  -2.185337e+01
  -2.670436e+01   1.999501e+01
   3.160730e+01  -3.255727e+01
  -7.249015e+00   1.160727e+00
   7.284673e+01  -3.530019e+01
   2.878149e+01   9.526890e+00
  -4.398686e+01   5.813903e+01
  -4.228303e+01   3.364306e+01
  -2.972275e+01  -2.016832e+01
   8.532302e+00  -9.615506e+00
  -2.846667e+01   3.592731e+01
   1.260855e+01   5.929633e+01
  -1.149331e+01  -7.998794e+00
  -7.209757e+00   1.634847e+01
   5.122937e-01  -4.723898e+01
   5.922555e+00   7.382420e+00
   5.412100e+00   6.577495e+00
  -4.915246e+00   4.205966e+01
  -3.849728e+01   1.099683e+01
  -2.519612e+01  -4.883330e+00
   8.456636e+00   1.397058e+01
  -5.669120e+01  -2.777274e+01
   5.341939e+01   2.835894e+01
   2.134668e+01   1.354805e+01
   2.175498e+01   6.168100e+01
  -2.401702e+00   6.965384e+00
  -5.431095e+00  -4.045992e+00
   5.793352e+01  -1.403488e+01
   3.091951e+00  -1.871691e+01
   1.055814e+01   6.850213e+01
  -4.286592e+01   2.089746e+01
