
 $NMID
 id='ANONYMOUS ', fmtdat='(2E16.6)'
 volume=1.0
 tramp=1.0
 $END
   1.547754e+03   2.392420e+00
   1.080084e+03   8.357348e+02
   1.532591e+02   1.038719e+03
  -3.005543e+02   5.803237e+02
  -5.239960e+02   3.116061e+02
  -1.833730e+02   8.085948e+01
   4.559985e+00   5.453680e+01
  -3.279023e+01   2.154201e+02
  -1.022141e+02   2.304808e+02
  -2.270345e+02   8.765065e+01
  -1.681525e+02  -2.524442e+02
  -6.537667e+01  -2.544096e+02
   1.556069e+02  -5.492683e+01
   8.279365e+01   1.143484e+02
   1.963513e+02   1.548684e+02
  -5.087130e+01  -4.287923e+00
  -1.169494e+02  -1.545712e+02
   2.496163e+01  -4.163954e+02
   2.191806e+02  -3.377028e+02
   1.975794e+02  -9.053880e+00
   2.848168e+00   1.485563e+02
  -1.608415e+02   2.248869e+01
   6.615348e+01   1.034343e+02
   1.274336e+02  -5.518920e+01
   9.039240e+01   1.049671e+02
  -2.090461e+02   1.752775e+02
  -2.860169e+02  -1.323149e+02
  -2.400329e+02  -4.792470e+01
  -9.842347e+01  -1.769801e+02
   2.006399e+02  -1.550838e+02
   2.186932e+02   9.937237e+01
   1.280782e+01   1.382370e+02
  -1.821023e+02   1.857934e+02
  -2.534295e+02   3.855550e+01
  -1.707398e+02  -4.065147e+01
  -9.671411e+01  -1.377029e+02
   3.961272e+01  -1.158591e+02
   1.461470e+01   9.384203e+01
  -6.172010e+01   7.740890e+01
  -9.049724e+01  -5.879333e+01
  -1.324694e+01  -1.326190e+02
   1.450905e+02  -1.703455e+02
   1.006597e+02   6.998087e+01
   4.259481e+01   1.280117e+02
  -1.532208e+02   1.047209e+02
  -1.043851e+02  -7.484100e+01
   9.162603e+01  -1.753932e+02
   2.768138e+02  -5.080095e+01
   3.054213e+02   1.453272e+02
   8.526064e+01   2.575757e+02
  -1.981306e+02   1.553332e+02
  -2.563296e+02  -1.107159e+01
  -1.486440e+02  -6.852420e+01
   2.050089e+01  -5.503749e+01
   1.172571e+02  -6.803336e+01
   6.376984e+01  -1.463970e+01
   2.980227e+01  -1.853545e+01
  -2.925949e+01  -2.666528e+01
   6.646987e+01  -1.279516e+01
   7.905138e+01  -3.169457e+01
   7.638231e+01   5.184463e+01
  -2.639933e+00   1.399582e+02
  -1.161357e+02   1.296782e+02
  -1.061113e+02  -2.819419e+01
  -5.269156e+01  -1.452284e+02
   1.101064e+02  -1.765506e+02
   2.116041e+02  -4.938912e+01
   8.656131e+01   7.201105e+01
  -4.099866e+01   1.446648e+02
  -6.149790e+01   9.168022e+01
  -8.424164e+00   4.667042e+01
   6.825313e+01   4.579316e+01
  -2.450355e+01   8.841860e+01
  -9.999757e+01   3.783423e+01
  -1.443692e+02  -8.798103e+01
  -6.726540e+01  -1.579751e+02
   3.677534e+01  -6.901361e+01
   8.682223e+01   7.244298e+01
   7.989323e+01   1.601757e+02
  -6.932570e+01   1.536541e+02
  -1.534920e+02   8.299480e+00
  -1.725912e+02  -6.564860e+01
  -7.403090e+01  -1.469232e+02
   4.157718e+01  -1.072205e+02
   7.606357e+01  -9.491331e+01
  -1.288858e+01  -3.447830e+01
   8.594164e+01  -4.230165e+01
   8.205109e+01  -5.537638e+01
   2.456117e+02   2.858700e+01
   1.950139e+02   1.144577e+02
  -1.016057e+01   2.357956e+02
  -1.605870e+02   1.968807e+02
  -2.321406e+02   8.352548e+01
  -1.553308e+02  -2.641783e+01
   2.502494e+01  -1.247293e+02
   3.856624e+01  -6.304192e+01
   5.474966e+00   3.586437e+01
  -1.049334e+02   3.435298e+00
  -8.680243e+01   2.226664e+01
  -4.039040e+01  -1.848632e+01
   7.524732e+01   2.077662e+01
   4.096553e+01   5.802809e+01
  -7.784430e+00   4.824876e+01
  -9.859485e+01  -5.061647e+01
  -7.429448e+01  -1.424455e+02
   1.398536e+01  -2.009085e+02
   9.786235e+01  -7.904572e+01
   1.742483e+02   1.742096e+01
   1.823650e+02   1.292996e+02
   8.104989e+01   1.330070e+02
  -7.355154e+01   7.206806e+01
  -6.104228e+01   2.135569e+01
  -6.719357e+01  -2.137038e+01
   2.852306e+01   3.812197e+01
  -6.174696e+01   4.482691e+01
  -8.006094e+01   2.562715e+01
  -5.674328e+01  -5.894554e+01
  -5.214470e+00  -5.266854e+01
   6.390998e+01  -7.817120e+00
   6.766074e+01   5.795526e+01
  -4.777888e+01   3.044252e+01
  -1.587314e+02   3.316754e+01
  -9.082561e+01  -5.435903e+01
   5.865570e+00  -1.034885e+02
   9.865131e+01  -1.214710e+02
   9.278409e+01  -4.363007e+01
   3.800069e+01   1.794244e+01
  -4.031827e+01   7.046946e+01
   1.073136e+01  -1.677918e+01
   7.473414e-01  -2.299941e+01
   6.870234e+01   7.208618e+00
   3.551472e+01   1.003101e+02
   8.018502e+00   9.713879e+01
  -1.045301e+02   6.833856e+01
  -1.337458e+01  -5.494663e+01
  -8.792296e+00  -6.094350e+01
   4.633020e+01   1.440947e+01
   1.457968e+00   6.410313e+01
  -7.602392e+01   6.683460e+01
  -1.049640e+02   5.668816e+00
  -8.240450e+01  -7.985933e+01
  -5.857691e+00  -1.054314e+02
   9.200919e+01  -5.813783e+01
   9.513645e+01   1.848065e+01
  -4.205776e+01   9.202040e+01
  -1.656985e+01   2.756082e+01
  -3.300845e+01   4.697994e+01
   1.402906e+01  -6.786694e+01
   7.398364e+01  -1.766938e+01
   1.978185e+01   1.434323e+01
  -4.795693e+01  -4.692795e+01
  -3.174896e+01  -5.910874e+01
   3.220893e+01  -9.989372e+01
   8.981391e+01  -7.817711e+01
   8.016560e+01   1.340704e+01
   6.627281e+01   1.180575e+02
  -8.760713e+00   8.781282e+01
  -9.161179e+01   4.166304e+01
  -1.149456e+02  -3.876951e+01
  -5.840022e+01  -1.191594e+01
  -2.110710e+01   1.164952e+01
   3.909225e+01  -2.042729e+01
  -1.702976e+01   1.593461e+01
  -2.389803e+01   2.295683e+00
   4.945592e+01  -7.581872e+01
   1.060849e+02  -4.234546e+01
   7.308067e+01   4.386091e+01
   1.163053e+01   1.133852e+02
  -1.029773e+02   4.915475e+01
  -1.028388e+02  -5.459176e+01
  -1.649724e+01  -1.213379e+02
   4.540595e+01  -1.093727e+02
   1.416668e+02  -3.539954e+01
   8.798429e+01   7.590058e+01
   2.316488e+01   8.889271e+01
  -4.142037e+01   1.143861e+02
  -2.850583e+01   2.787815e+01
  -2.281829e+01   3.936270e+01
   1.953029e+01   4.364928e+01
  -6.776822e+01   4.988084e+01
  -1.023144e+02  -1.799340e+01
  -7.346099e+01  -6.139562e+01
  -1.810345e+01  -1.378284e+02
   4.802420e+01  -1.057197e+02
   6.826903e+01   6.305695e+01
   8.604058e+01   7.363791e+01
  -6.702768e+00   5.879352e+01
  -5.808244e+01   1.466724e+01
  -5.207221e+01  -6.908008e+01
  -1.990274e+01  -8.095038e+01
  -9.649169e+00  -1.703912e+01
  -3.735647e+00   4.155578e+00
   1.258237e+01   4.070895e+01
  -6.589316e+00  -2.999243e+01
   1.540762e+01  -7.535510e+00
   1.236096e+02  -2.487725e+01
   1.092372e+02   8.313521e+01
  -3.024618e+01   4.766787e+01
  -1.128948e+02   4.346208e+01
  -5.924229e+01   1.997858e+01
  -3.638331e+01  -2.687631e+01
   3.220799e+01  -8.574945e+00
   7.880056e+01   4.396728e+01
   2.455801e+01   5.250857e+01
   5.478685e+00  -2.605097e+01
  -4.612420e+01   2.734878e+01
  -4.908138e+01  -8.359220e+01
  -2.336071e+01  -3.345701e+01
  -5.325990e+01  -1.655647e+01
   1.030618e+01   1.729805e+01
   4.173537e-01  -2.416701e+01
   1.263655e+01  -8.128028e+01
   3.078670e+01  -1.371682e+02
   1.394515e+02  -4.444064e+01
   6.797090e+01   5.174306e+01
   4.898391e+00   4.838818e+01
  -6.966955e+01   6.558539e+01
  -6.889491e+01  -1.596166e+01
   5.444407e+01  -2.613198e+01
   1.075577e+02   3.791219e+01
   8.340378e+01   5.074611e+01
  -1.302148e+01   1.018402e+02
  -8.731050e+01   5.259086e+01
  -1.058925e+02   1.315076e+01
  -1.727772e+01  -6.107209e+01
   4.015862e+01  -2.128333e+01
   3.556911e+01   1.952319e+01
   9.521975e-02   5.349016e+01
  -9.302249e+01  -2.162315e+01
  -6.754335e+01  -5.046713e+01
  -3.703631e+01  -7.736915e+01
   6.624413e+01  -5.732274e+01
   8.959495e+01   1.752437e+00
   1.628830e+01   1.025285e+02
  -3.927766e+01   1.243497e+02
  -6.073975e+01   2.040969e+00
  -5.820913e+01  -6.082776e+01
   2.040685e+01  -8.318507e+01
   1.654962e+01   2.164836e+00
   1.519652e+01   1.593679e+01
   5.793877e+01   1.054562e+01
   2.795525e+01  -5.507297e+01
   7.160434e+01  -1.465065e+01
   2.771537e+01   3.471930e+01
   1.102792e+01   3.470214e+01
  -4.691803e+01  -1.668720e+01
  -7.311376e+01  -2.729566e+01
  -4.837239e+01  -1.519262e+01
  -2.560338e+01  -2.909160e+01
   1.400980e+01   7.359851e+00
   1.400827e+01   2.089831e+01
   4.439820e+01   3.466665e+01
  -4.114482e+01   2.004297e+01
  -3.116648e+01  -8.206026e+00
  -2.563918e+01  -1.246117e+01
   2.260102e+01   4.638400e+00
  -9.621084e+00   1.768279e+01
  -3.557561e+01  -3.234997e+01
  -3.001683e+01  -1.590490e+01
   5.659182e+01  -6.668541e+01
   8.007572e+01  -5.485572e+01
   8.927011e+01   5.142460e+00
   2.629611e+00   6.139154e+01
  -6.855040e+01   8.816500e+01
  -6.190031e+01   3.179887e+01
  -7.901459e+00  -1.504394e+01
   2.453456e+00  -1.630384e+01
   3.541627e+01   1.583438e+01
   6.920232e+00   1.100007e+01
  -2.915711e+01  -4.937615e+01
   4.577150e+00  -3.453853e+01
   1.694156e+01  -2.175646e+01
   8.545554e+01   2.704432e+01
   1.030914e+01   6.401778e+01
   3.877365e+01   5.544472e+01
  -3.450304e+01   2.463622e+01
  -5.647769e+01  -4.026448e+00
  -8.512309e+01  -5.708760e+01
   3.383195e+01   9.391439e-01
   4.676671e+01  -1.279977e+01
   2.852051e+01   2.115479e+01
  -5.852840e+01   5.336901e+01
  -4.934381e+01   1.295246e+01
   5.605903e+01  -5.197431e+01
  -5.181397e+00  -2.413800e+01
   4.815632e+01   1.937276e+01
  -4.121607e+01   2.226274e+01
  -6.478841e+01   3.978645e+01
  -5.197760e+01   9.900842e+00
  -2.737557e+01   1.154659e+01
   1.841804e+01  -2.198246e+01
   2.364415e+01  -2.553416e+01
  -2.902506e+01   3.770350e+01
  -2.738383e+01   1.091492e+01
   4.140166e+00   2.324235e+01
  -2.144800e+01  -2.338448e+01
  -1.375317e+01  -2.757067e+01
   2.793868e+01  -1.257805e+01
   1.344908e+01   2.990980e+01
  -1.647035e+01   1.160589e+01
   4.342877e+01  -3.264584e+01
  -2.397091e+01   7.498809e+00
   8.854042e+01  -1.833203e+01
  -3.273955e-01   3.478305e+01
  -3.446076e+01   3.661629e+00
  -7.793043e+01  -3.905337e+01
  -4.170048e+00  -1.904351e+00
   3.703314e+01  -2.944285e+01
   4.766839e+00   1.519128e+01
   1.846264e+01   2.874387e+01
  -2.051563e+01   2.099187e+01
  -4.983052e+01   5.392800e+00
  -6.050465e+01  -5.874539e+01
   3.653645e+01  -4.539833e+01
   2.853333e+01  -1.497102e+01
   4.517574e-01  -2.044698e+01
  -2.397802e+01   1.562859e+01
  -3.038032e+01   2.611529e+00
  -4.388428e+00   2.349962e+01
   3.185482e+01  -1.394237e+01
