
 $NMID
 id='ANONYMOUS ', fmtdat='(2E16.6)'
 volume=1.0
 tramp=1.0
 $END
   2.857447e+03  -1.619212e+01
   1.964645e+03   1.340958e+03
   2.525551e+02   1.817712e+03
  -9.680507e+02   1.436004e+03
  -7.713484e+02   4.831668e+02
  -1.736957e+02  -5.104516e+01
   2.220843e+02  -6.590400e+01
   1.871124e+01   4.309536e+02
  -2.490274e+02   3.962956e+02
  -4.885564e+02   1.243774e+02
  -3.697474e+02  -3.618993e+02
  -1.840789e+02  -5.302981e+02
   2.286931e+02  -1.706331e+02
   3.627376e+02   3.886504e+02
  -1.009679e+02   4.937238e+02
  -3.810444e+02   9.866130e+01
  -3.511076e+02  -3.415435e+02
   1.958090e+02  -6.381214e+02
   2.679205e+02  -4.222844e+02
   4.102435e+02   1.457449e+02
   1.259349e+02   1.971877e+02
  -8.764541e+01   1.468070e+02
  -2.061320e+02  -5.601945e+01
   1.837069e+02   2.363330e+02
   2.051520e+02   2.512981e+02
  -1.155457e+02   2.431873e+02
  -3.522309e+02   9.834400e+00
  -4.530596e+02  -3.034159e+02
  -1.834183e+02  -3.760114e+02
   4.213356e+02  -1.963428e+02
   4.557149e+02   1.238507e+02
   2.513141e+02   3.429889e+02
  -1.700386e+02   2.982926e+02
  -4.675916e+02   9.617816e+01
  -2.359536e+02  -1.244638e+02
  -8.914585e+01  -2.528731e+02
   2.474745e+01  -1.426342e+02
  -1.832409e+01  -2.840505e+01
  -1.899093e+02  -1.811158e+01
  -1.613371e+02  -2.184157e+02
   2.933934e+01  -4.246984e+02
   1.656555e+02  -3.167038e+02
   2.342003e+02   2.285466e+01
   1.442807e+02   2.111375e+02
  -8.360866e+01   2.530337e+01
  -8.881967e+01  -2.323404e+02
   1.507334e+02  -3.127730e+02
   3.843624e+02  -3.755476e+01
   4.152614e+02   3.201545e+02
   1.727397e+02   4.465242e+02
  -2.397993e+02   2.056422e+02
  -4.348825e+02  -3.502569e+01
  -2.896134e+02  -1.857553e+02
   1.150574e+01  -1.473113e+02
   2.026575e+02  -1.555788e+02
   2.021781e+02  -7.976906e+01
   5.341615e+01  -5.591398e+01
  -3.028041e+01  -4.274216e+01
   1.114678e+02   8.302888e+00
   2.359507e+02   9.022814e+01
   1.875606e+02   1.256446e+02
  -7.462194e+01   2.283465e+02
  -3.180733e+02   1.193193e+02
  -3.586075e+02  -9.738000e+01
  -2.117257e+01  -2.804469e+02
   3.000794e+02  -3.203864e+02
   3.872655e+02  -1.258749e+02
   1.988441e+02   1.440323e+02
   1.855539e+01   2.505311e+02
  -2.947165e+01   2.175418e+02
   3.028984e+01   1.801709e+02
  -5.133476e+00   1.242157e+02
  -1.416743e+02   1.116353e+02
  -2.903694e+02   1.523665e+01
  -1.797236e+02  -1.411725e+02
  -4.570151e+01  -2.771786e+02
   1.395666e+02  -1.348158e+02
   2.475657e+02   6.301097e+01
   1.402990e+02   2.303649e+02
  -8.540914e+01   2.326711e+02
  -2.511169e+02   6.421030e+01
  -2.813944e+02  -1.597953e+02
  -1.538979e+02  -2.592249e+02
   6.856577e+01  -1.983744e+02
   1.515980e+02  -1.617121e+02
   1.356183e+02  -7.867502e+01
   1.542302e+02  -6.898169e+01
   2.471835e+02  -4.543834e+01
   3.891358e+02   1.103529e+02
   3.023530e+02   2.976018e+02
   1.416006e+01   4.330842e+02
  -3.778914e+02   3.555040e+02
  -4.369688e+02   1.657334e+02
  -2.782656e+02  -1.598371e+02
  -2.107431e+01  -2.619445e+02
   7.943537e+01  -1.327611e+02
  -7.043163e+00  -3.271489e+01
  -9.911566e+01   6.676287e+00
  -4.381419e+01  -8.848303e+01
   8.172677e+00  -1.300210e+02
   8.844498e+01  -6.604417e+01
   4.501819e+01   1.311693e+02
  -3.819643e+01   1.487030e+02
  -2.364624e+02  -1.684883e+01
  -1.520743e+02  -2.257898e+02
  -7.819089e-01  -3.338592e+02
   2.081207e+02  -2.613264e+02
   3.160067e+02   2.862676e+01
   3.072536e+02   2.731401e+02
   4.529607e+01   2.292088e+02
  -1.260685e+02   1.182441e+02
  -1.327564e+02   2.215769e+01
  -7.456814e+01  -2.109870e+01
   7.295215e+01   4.535361e+01
   3.372958e+01   8.206838e+01
  -1.596914e+02   5.819135e+01
  -1.358022e+02  -4.760694e+01
   2.964295e+01  -2.654960e+01
   5.872945e+01   1.348033e+01
   1.921943e+01   1.493300e+02
  -1.295829e+02   7.624758e+01
  -3.229811e+02  -6.093834e+01
  -2.472407e+02  -1.797474e+02
   2.565719e+01  -2.859633e+02
   2.324570e+02  -1.787408e+02
   2.178807e+02  -3.189345e+01
   1.095815e+02   5.960266e+01
  -4.729843e+01   5.794752e+01
  -9.833051e+01  -3.145908e+01
   5.315968e+01  -1.525596e+02
   1.292586e+02  -7.965050e+01
   2.098666e+02   5.584120e+01
   1.163180e+02   1.063581e+02
  -2.240420e+01   1.167649e+02
  -1.084578e+02   3.892947e+01
  -3.007832e+01  -1.746420e+00
   6.519248e+01   4.316595e+01
  -9.860394e+00   6.725286e+01
  -6.611173e+01   1.421491e+02
  -2.315255e+02   6.059894e+01
  -1.702291e+02  -1.385528e+02
  -4.298120e+00  -2.395661e+02
   1.358137e+02  -1.451695e+02
   1.708876e+02  -3.961686e+01
   6.013911e+01   1.134128e+02
  -5.628666e+01   8.547119e+01
  -5.914762e+01   6.479987e+01
   4.153275e+01  -3.019821e+01
   4.276742e+01  -3.260956e+01
  -3.379193e+01   4.537142e+01
  -7.200546e+01  -6.614976e+00
  -1.161973e+02  -1.096490e+02
  -3.616851e+01  -1.628046e+02
   1.382834e+02  -1.358840e+02
   2.434311e+02   4.532379e+00
   1.830492e+02   1.589390e+02
   7.718126e+01   2.343252e+02
  -8.403745e+01   1.533738e+02
  -1.149705e+02   9.165862e+01
  -1.163498e+02  -6.713152e+01
  -8.900262e+01  -5.296041e+01
  -6.344046e+01   2.527596e+01
  -4.383691e+01  -3.391118e+01
  -3.903939e+01  -7.981237e+01
   2.516741e+01  -5.956821e+01
   9.475994e+01  -6.016421e+01
   5.711627e+01   7.598659e+01
  -3.180726e+01   1.030969e+02
  -1.644697e+02   4.448515e+01
  -2.257081e+02  -4.257343e+01
  -7.079389e+01  -2.069943e+02
   9.855422e+01  -2.125135e+02
   2.839625e+02  -1.016397e+02
   2.667308e+02   2.891804e+01
   9.085181e+01   1.104047e+02
  -6.721135e+01   1.567772e+02
  -6.616136e+01   7.008642e+01
  -7.118071e+01   4.845173e+01
  -2.997025e+01   1.018377e+02
  -7.483127e+01   7.399936e+01
  -8.530836e+01  -1.772191e+01
  -5.162883e+01  -1.277377e+02
  -2.282999e+01  -2.209761e+02
   7.618515e+01  -1.456644e+02
   1.013137e+02   2.607077e+01
   7.747226e+01   1.275642e+02
  -2.785044e+01   1.436187e+02
  -8.233334e+01   6.781866e+01
  -4.484020e+01  -7.494618e+01
  -2.810752e+01  -1.089754e+02
   6.568907e+01  -8.117739e+01
  -2.132764e+01   1.331141e+01
  -4.975644e+01  -3.788652e+01
  -2.318078e+01  -1.845595e+01
   3.156718e+01  -3.753799e+01
   2.114698e+02   4.773514e+01
   1.550311e+02   5.674210e+01
   1.047519e+00   1.010236e+02
  -1.342974e+02   8.701126e+01
  -1.417590e+02   2.047217e+01
  -6.043668e+01  -3.354137e+01
   6.309665e+01  -3.163382e+01
   1.009684e+02  -1.697490e+01
   3.273528e+01   6.153935e+01
  -6.393991e+01   3.885858e+01
  -1.055063e+02   2.254578e+01
  -1.075961e+02  -5.462106e+01
  -2.440765e+01  -2.631205e+01
  -7.585845e+01   2.535896e+01
  -6.296378e+01   2.980732e+01
  -3.473009e+01  -7.082306e+01
   3.879240e+01  -1.757697e+02
   1.006142e+02  -1.705755e+02
   1.992893e+02  -5.353223e+01
   1.373944e+02   1.162453e+02
   7.782503e+00   1.686486e+02
  -9.937354e+01   9.136743e+01
  -4.286588e+01  -4.049984e+01
   3.384738e+00  -5.434425e+01
   1.014084e+02   1.715137e+01
   9.887655e+01   1.316752e+02
  -6.226837e+01   1.143233e+02
  -1.587725e+02   4.405131e+01
  -1.594412e+02  -4.301932e+01
  -5.060584e+01  -1.094559e+02
   4.232200e+01  -4.651444e+01
   4.606370e+01   1.574463e+00
  -4.351163e+00   1.682951e+01
  -8.487865e+01   2.822985e+01
  -3.112824e+01  -9.392979e+01
   4.575078e+00  -1.219976e+02
   1.393761e+02  -7.249732e+01
   1.198621e+02   5.371501e+01
  -8.355217e+00   1.410673e+02
  -5.205739e+01   8.506615e+01
  -6.900054e+01  -3.437865e+01
  -4.114579e+01  -1.369653e+02
   2.984334e+01  -7.747879e+01
   4.685298e+01  -2.675733e+01
   6.418388e+01   7.691656e+01
   3.108425e+00   3.233575e+01
  -1.874440e+01  -5.005530e+01
   4.810629e+00   1.038100e+00
   7.133308e+01   4.426802e+01
   4.421374e+01   1.139244e+02
  -3.190397e+01   6.487288e+01
  -1.074463e+02  -2.964565e+01
  -1.143155e+02  -4.448752e+01
  -2.943551e+01  -6.773830e+01
   1.014148e+02  -6.700261e+01
   8.782016e+01  -5.516098e+00
   1.096245e+01   3.873770e+01
  -8.280898e+01   1.979562e+01
  -6.175499e+01  -2.455231e+01
  -1.439641e+00  -2.336623e+01
  -1.900143e+01  -1.846811e+01
  -5.844963e+01  -2.367199e+01
  -3.399002e+01  -4.981386e+01
  -1.031472e+01  -4.306739e+01
   9.586714e+01  -7.945398e+01
   1.902873e+02  -3.503091e+01
   1.390795e+02   4.259594e+01
   5.720998e+01   1.763312e+02
  -7.158859e+01   1.826443e+02
  -1.220726e+02   5.729434e+01
  -1.042894e+02  -3.788825e+01
  -7.004760e+01  -6.799856e+01
  -1.238371e+01  -5.254170e+01
   1.332476e+01  -3.739969e+01
  -4.047103e+01  -2.814777e+01
  -1.415370e+01  -4.900130e+01
   3.381364e+01  -9.471799e+01
   7.794968e+01   4.094764e+00
   1.094271e+02   4.313072e+01
   3.539682e+01   1.087738e+02
  -7.632499e+01   6.645115e+01
  -9.356986e+01  -4.306897e+01
  -7.030079e+01  -8.111334e+01
   3.721769e+01  -6.929079e+01
   1.455267e+02   1.142152e+01
   1.067851e+02   3.548525e+01
  -2.201976e+01   1.887306e+01
  -3.956006e+01   3.744309e+01
   5.053511e+01  -5.962688e+00
  -9.551872e-01  -1.948889e+01
   2.796628e+00   2.699117e+01
  -2.997703e+01   3.391832e+01
  -1.187584e+02   6.962502e+01
  -9.800989e+01   6.175997e+00
  -4.700876e+01  -6.559864e+01
   7.175314e+01  -4.065697e+01
   6.754187e+01  -8.220827e+00
   3.513314e+01   3.219632e+01
  -2.766447e+01   1.293160e-01
  -2.392536e+01  -6.804907e+00
  -4.813491e+01  -8.775180e+01
  -8.099341e+00  -5.102026e+01
   3.108035e+01  -1.141613e+01
   2.827647e+01   1.755075e+01
   5.436460e+01  -2.875573e+01
   1.616171e+01  -1.908667e+01
   9.703877e+00   1.917052e+01
  -2.205638e+01   3.410325e+01
  -7.264633e+00   3.282548e+01
  -9.028512e+00   3.536858e+01
  -7.103320e+01   3.565294e+01
  -2.978115e+01  -1.643748e+00
  -4.373069e+01  -6.436490e+00
   2.883831e+01  -2.527771e+00
   1.480185e+01   5.451684e+01
  -1.329076e+01   1.057649e+01
  -5.774812e+01  -2.583829e+01
  -3.136494e+01  -6.907311e+01
   5.013975e+01  -6.456895e+01
   4.378245e+01  -1.935829e+01
  -2.148147e+01   2.080626e+01
  -4.152301e+01  -7.991764e+00
  -6.763155e+01  -5.170374e+00
   1.565219e+01  -1.504679e+01
   3.745660e+01  -1.838356e+01
