
 $NMID
 id='ANONYMOUS ', fmtdat='(2E16.6)'
 volume=1.0
 tramp=1.0
 $END
  -4.121245e+03   6.414014e+01
  -2.429317e+03  -2.674989e+03
   5.619938e+02  -2.909031e+03
   1.990248e+03  -9.158611e+02
   8.212355e+02   3.857298e+02
  -6.151124e+02   4.304259e+02
  -7.858031e+02  -2.294759e+02
   1.929704e+01  -9.316558e+02
   8.235125e+02  -7.890774e+02
   9.499351e+02  -2.316997e+01
   4.189794e+02   9.359469e+02
  -3.091394e+02   9.589229e+02
  -6.660195e+02   1.509747e+02
  -2.218178e+02  -6.189818e+02
   4.436454e+02  -7.324572e+02
   4.321400e+02  -4.813938e+00
   2.451022e+02   6.657133e+02
  -2.506283e+02   6.813329e+02
  -6.461428e+02   1.607921e+02
  -3.141924e+02  -4.253197e+02
  -1.690600e+02  -3.649182e+02
   2.973786e+02  -2.545223e+02
   3.262559e+02  -5.146997e+01
  -1.267432e+02   9.549226e+01
  -3.273216e+02   4.506669e+01
  -2.088164e+02  -4.407795e+02
   4.126925e+02  -3.970878e+02
   9.177319e+02   1.235879e+02
   4.123673e+02   5.572944e+02
  -3.804102e+02   5.343615e+02
  -7.105201e+02  -8.488325e+01
  -3.737906e+02  -5.682586e+02
   2.952040e+02  -5.471007e+02
   6.585779e+02  -1.424413e+02
   4.591552e+02   2.341610e+02
   7.138934e+01   4.900025e+02
  -1.601613e+02   3.332752e+02
  -2.434606e+02  -2.011043e+02
   1.753092e+02  -4.224252e+02
   5.085519e+02  -1.152158e+01
   2.339268e+02   6.884633e+02
  -2.739323e+02   7.077792e+02
  -5.806889e+02   7.453157e-01
  -3.094452e+02  -5.598680e+02
   2.469990e+02  -3.040014e+02
   3.476119e+02   3.080768e+02
  -4.425567e+01   5.016431e+02
  -5.046602e+02   1.179093e+02
  -5.890823e+02  -4.073057e+02
  -1.412544e+02  -6.101289e+02
   4.352177e+02  -3.595942e+02
   6.369575e+02   1.033490e+02
   3.347124e+02   3.783853e+02
  -2.008040e+02   3.468139e+02
  -4.498535e+02   9.267486e+01
  -2.239315e+02  -1.747334e+02
   1.385790e+02  -1.447424e+02
   8.124386e+01   1.460130e+02
  -2.028284e+02   1.666576e+02
  -2.908367e+02  -1.077004e+02
  -1.239666e+02  -3.023125e+02
   1.754337e+02  -2.675658e+02
   3.058062e+02  -1.283546e+02
   2.173970e+02   1.109414e+02
   1.917519e+01   2.428329e+02
  -2.044943e+02   3.223183e+02
  -3.769484e+02   1.855881e+02
  -3.128277e+02  -1.771652e+02
  -5.745671e+01  -4.181194e+02
   1.204983e+02  -3.271125e+02
   1.026104e+02  -4.831140e+01
   1.918306e+01  -1.767620e+01
   1.337816e+01  -9.745256e+01
   1.973654e+02  -1.580321e+02
   2.848340e+02   9.746302e+01
   1.470918e+02   2.892402e+02
  -9.674802e+01   2.044900e+02
  -2.284627e+02   1.842710e+01
  -1.854202e+02  -2.335694e+02
  -4.102758e+01  -2.986835e+02
   2.181660e+02  -1.508365e+02
   3.173907e+02   1.208508e+02
   2.463723e+02   3.802412e+02
  -7.097248e+01   3.157565e+02
  -2.389340e+02   1.568301e+02
  -1.295931e+02   1.643961e+01
  -9.692849e+01   2.006420e+01
  -2.400742e+02   2.423830e+01
  -4.166411e+02  -5.979094e+01
  -3.587799e+02  -2.988349e+02
   4.263126e+01  -4.534774e+02
   4.035650e+02  -3.752754e+02
   4.784435e+02  -2.175554e+02
   2.795737e+02   1.160911e+02
   5.752123e+01   2.898217e+02
  -1.146361e+02   2.541402e+02
  -7.975028e+01   6.999555e+01
   8.387472e+01  -8.805626e+01
   1.169277e+02   2.347813e+01
   5.493339e+01   1.881172e+02
  -1.255319e+02   1.427351e+02
  -1.750315e+02  -1.077340e+02
   2.433152e+01  -1.751824e+02
   1.992872e+02  -5.721915e+01
   1.882153e+02   2.130000e+02
  -1.221917e+01   3.136252e+02
  -2.029396e+02   1.875812e+02
  -2.704273e+02  -2.717989e+01
  -2.533093e+02  -2.253425e+02
  -9.902600e+01  -2.779283e+02
   1.088469e+02  -1.314640e+02
   1.981861e+02   6.841547e+00
   1.028139e+02   2.734480e+01
  -5.371201e+01   1.553618e+01
  -4.726798e+01  -1.101260e+02
   1.482861e+02  -1.378349e+02
   1.967542e+02   2.927354e+01
   4.635281e+00   5.271026e+01
  -7.254622e+01   2.105248e+01
  -1.652630e+01  -6.065704e+01
   1.190117e+02  -7.706472e+01
   2.749789e+02   2.158034e+01
   2.150097e+02   1.879911e+02
   5.601558e+01   2.277910e+02
  -2.047524e+02   2.202543e+02
  -3.138767e+02   1.663081e+02
  -2.502547e+02  -6.693833e+01
   1.653984e+01  -1.431577e+02
   1.503682e+02  -7.990565e+01
   4.406811e+01   7.617559e+01
  -1.127087e+02   1.040490e+02
  -1.700643e+02  -2.462061e+01
  -9.674315e+01  -1.730215e+02
   5.477826e+01  -1.809538e+02
   1.169369e+02   3.080108e+00
   8.116368e+01   6.805860e+00
  -4.545980e+01  -8.229184e+00
  -4.074882e+00  -4.980232e+01
   6.588533e+01  -7.680964e+01
   1.948379e+02  -4.923101e+01
   1.833223e+02   1.325435e+02
   1.469297e+00   2.194253e+02
  -1.558833e+02   1.487254e+02
  -2.054433e+02   2.298866e+01
  -8.931558e+01  -1.689111e+02
   8.347618e+01  -1.344047e+02
   1.345297e+02  -6.140031e+01
   7.233456e+01   1.097891e+01
   1.422235e+00   5.699191e+01
   3.793683e+01  -8.229236e+00
   8.654912e+01   4.096999e+00
   1.121344e+02   6.153720e+01
   1.701868e+01   1.769356e+02
  -1.320742e+02   1.572325e+02
  -2.521736e+02   3.037867e+01
  -2.283973e+02  -1.140064e+02
  -4.459157e+01  -2.455611e+02
   1.536260e+02  -1.564748e+02
   1.416406e+02   1.414280e+01
   8.392478e+01   5.360557e+01
   4.402293e+01   1.543140e+01
   3.839869e+01   7.825054e+00
  -8.742910e-01   3.353685e+01
   2.210696e+01   8.830983e+01
  -4.139323e+01   7.198489e+01
  -1.047798e+02   5.122384e+01
  -7.170666e+01  -6.550896e+01
   4.735293e+00  -1.198007e+02
   1.825730e+02  -1.344238e+02
   1.750047e+02   4.311656e+01
   8.454664e+01   2.194436e+02
  -1.076358e+02   2.249287e+02
  -2.540106e+02   1.218202e+02
  -2.131221e+02  -8.904092e+01
  -1.012504e+02  -1.777279e+02
   4.585258e+01  -1.329924e+02
   1.109102e+02  -6.101594e+01
   9.774899e+01  -6.757343e+01
   9.743680e+01  -6.285286e+01
   6.996165e+01   3.189344e+01
   8.545960e+01   6.526346e+01
   1.420697e+02   1.907254e+02
   4.147101e+01   2.177490e+02
  -1.510375e+02   1.263449e+02
  -1.844431e+02  -4.062846e+01
  -1.424225e+02  -8.952837e+01
  -5.173918e+00  -1.804069e+02
   8.502116e+01  -9.083067e+01
   7.075261e+01   3.900443e+01
   3.500112e+01   7.166628e+01
  -2.090888e+01   9.953382e+01
   3.260056e+01   3.200723e+01
   5.660128e+01  -5.346025e+00
   4.131231e+01   5.333409e+01
  -6.635324e+01   4.998087e+01
  -1.383204e+02  -1.188764e+01
  -1.397724e+02   4.398524e-01
   8.116019e+00  -3.798408e+01
   1.214135e+02  -9.370199e+01
   9.006097e+01  -1.584219e+01
   2.468568e+01   4.349613e+01
  -5.969683e+01   4.879819e+01
  -3.882806e+01  -4.144683e+01
  -2.798239e+01  -5.920125e+01
   6.889739e+01  -1.004409e+02
   7.788627e+01  -3.599703e+01
   3.489778e+01   6.621179e+01
   4.120151e+01   2.863932e+01
   3.433717e+01   3.091778e+00
   5.981431e+01  -3.094444e+01
  -8.966293e+00   5.387897e+01
  -4.373016e+01   1.134465e+02
  -1.253491e+02   1.518810e+02
  -1.421936e+02   1.286698e+01
  -1.370607e+02  -6.031162e+01
  -4.100367e+01  -1.041734e+02
   9.295739e+01  -7.205351e+01
   8.425181e+01   3.555404e+01
  -7.040779e+01   2.074277e+01
  -9.283277e+01  -2.615854e+01
  -4.889832e+01  -1.037409e+02
   1.008227e+02  -5.908574e+01
   1.908359e+02  -4.888526e+01
   1.628197e+02  -1.122821e+01
   2.018383e+01   9.339301e+01
  -1.350151e+02   6.859140e+01
  -1.043362e+01   1.895672e+00
   4.205623e+01  -1.443412e+01
   8.367317e+01   5.759653e+00
   5.183817e+01   1.134780e+02
  -1.365065e+02   1.737697e+02
  -1.888995e+02   6.363018e+01
  -9.659129e+01  -1.391664e+02
  -4.035057e+00  -1.527291e+02
   9.658809e+01  -1.212461e+02
   1.145166e+02   9.414012e+00
   1.164404e+01   5.916501e+01
  -2.884591e+01   8.812909e+01
  -4.068704e+01  -1.074176e+01
  -3.202249e+01  -8.705767e+01
   9.418988e-01  -3.740006e+01
  -5.332212e+01   7.274988e+01
  -7.376033e+01   5.148302e+01
  -5.487019e+01  -6.648303e+01
  -2.978235e+01  -1.127325e+02
   9.816737e+00  -6.105410e+01
   8.702144e+01   2.706809e+01
   9.982791e+01   4.441116e+01
   1.167722e+01   4.406885e+01
  -5.799093e+01   1.787367e+01
  -9.019149e+01  -5.262115e+00
  -6.227661e+01   1.181265e+01
   1.805832e+01  -1.081096e+01
   8.101828e+01   1.396057e+01
   1.148642e+01   4.243303e+01
  -1.130441e+01   2.091762e+01
   3.932839e+01   3.699293e+01
   6.230680e+01   4.952087e+01
  -2.149447e+01   1.250371e+02
  -1.197012e+02   1.242435e+02
  -1.411654e+02   2.093581e+01
  -1.409100e+02  -7.542957e+01
  -5.234197e+01  -1.203941e+02
   5.212859e+01  -1.292234e+02
   1.129698e+02  -1.196564e+02
   7.161141e+01   1.186236e+01
   2.915378e+01   4.361549e+01
   1.361354e+01   2.055970e+01
  -1.783697e-01   6.396687e+00
  -3.216276e+00   5.309968e+01
  -2.542217e+00   1.095779e+02
   3.201878e+01   8.815740e+01
  -1.855723e+01   2.944500e+01
  -5.356327e+01  -8.076347e+01
  -6.383559e+00  -8.167727e+01
   8.370845e+01  -1.191642e+01
   1.107772e+02   3.201216e+01
   3.526223e+01   1.009712e+02
  -8.274425e+01   5.124345e+01
  -1.255215e+02   1.349315e+01
  -6.249156e+01  -6.207118e+01
  -3.299326e+01  -7.435446e+01
   8.242827e+00  -8.721238e+00
  -6.698630e+01   1.818540e+01
  -3.794073e+01  -1.343234e+01
  -6.933475e+00  -4.341599e+01
   1.023832e+02  -4.729394e+01
   1.127093e+02  -3.259779e+01
   9.791636e+01  -2.407185e+01
   1.131843e+01   5.016409e+01
  -7.740765e+01   3.366213e+01
  -2.622903e+01   4.747606e+00
   1.383040e+01  -5.977925e+01
   2.610678e+01  -1.287000e+01
  -2.312681e+00   4.564891e+01
  -1.799288e+01   4.276059e+01
  -1.425259e+01   1.423014e+01
  -1.585394e+01   1.121189e+01
  -6.225217e+00  -1.775151e+01
   1.877598e+00  -9.029535e+00
   3.311212e+01   5.289401e+01
  -1.756991e+01   5.156808e+01
  -1.729403e+01  -4.109981e+01
  -3.089256e+01  -8.773276e+01
   4.119330e+00   1.139252e+01
  -1.174030e+01   1.829527e+01
  -2.125869e+01   7.378175e+01
  -4.523340e+01  -1.610963e+01
  -4.620240e+01  -6.718515e+01
   6.337837e+00  -5.727833e+01
   8.744728e+00  -2.043480e+01
   8.343984e+01   3.474561e+01
   9.087657e+01   3.286397e+01
   1.124517e+01   5.805635e+00
  -5.489568e+01   5.051693e+00
  -2.605391e+01  -1.835579e+01
   2.161215e+00  -3.019750e+01
   2.108981e+01   3.424549e+01
  -2.488366e+01  -1.330697e+00
  -1.521888e+02   3.787911e+01
