
 $NMID
 id='ANONYMOUS ', fmtdat='(2E16.6)'
 volume=1.0
 tramp=1.0
 $END
  -2.898465e+03   1.740106e+02
  -2.105119e+03  -1.389387e+03
   7.846603e+01  -1.850026e+03
   9.636449e+02  -1.053733e+03
   9.716416e+02  -2.390586e+02
   1.153856e+02   2.043118e+02
  -4.087712e+02  -8.620481e+01
  -3.079567e+01  -4.222611e+02
   3.600692e+02  -3.500316e+02
   6.482621e+02  -8.835363e+01
   4.427513e+02   4.554512e+02
   2.273115e+00   5.741644e+02
  -1.419620e+02   2.564621e+02
  -3.390020e+02  -3.834023e+02
   6.634098e+01  -4.601114e+02
   4.481278e+02  -8.833685e+01
   1.803751e+02   3.333489e+02
  -2.694269e+02   3.985489e+02
  -4.251331e+02   2.516116e+02
  -5.526021e+02  -3.956174e+01
  -1.541751e+01  -3.255244e+02
   2.317673e+02  -2.369555e+02
   1.963080e+02  -1.417941e+02
  -9.066995e+01  -1.006465e+02
  -3.054881e+02  -3.587847e+00
  -2.877777e+01  -4.027765e+02
   4.169152e+02  -2.026193e+02
   5.010557e+02   1.175488e+02
   2.862938e+02   3.053470e+02
  -1.086084e+02   2.477090e+02
  -5.111757e+02  -7.751205e+01
  -2.089915e+02  -2.959250e+02
   2.218222e+02  -4.223706e+02
   3.596072e+02  -1.489074e+02
   3.999536e+02   1.767511e+02
   9.977310e+01   3.475836e+02
  -1.517696e+02   2.005288e+02
  -3.127147e+01  -1.125119e+02
   1.635812e+02  -1.242508e+02
   2.123666e+02   2.314387e+01
   6.617478e+01   4.388856e+02
  -2.225662e+02   4.371400e+02
  -3.432101e+02   1.971864e+01
  -1.505432e+02  -3.425933e+02
   9.757298e+01  -2.145505e+02
   1.692968e+02   2.061026e+02
  -7.891586e+01   4.262973e+02
  -3.843287e+02   1.132637e+02
  -4.177729e+02  -3.300394e+02
  -1.546413e+02  -5.426559e+02
   2.729589e+02  -3.317668e+02
   4.800557e+02   5.823871e+01
   2.973489e+02   2.770379e+02
  -4.605735e+01   2.227949e+02
  -2.536558e+02   5.110973e+01
  -1.478415e+02  -5.905571e+01
   7.566170e+01  -3.636678e+01
   5.902664e+01   9.172491e+01
  -1.005770e+02   1.082233e+02
  -2.030774e+02  -3.248039e+01
  -5.989868e+01  -1.899120e+02
   1.389603e+02  -2.258321e+02
   3.201628e+02  -1.114286e+02
   1.707604e+02   1.174512e+02
  -9.403628e+00   2.952059e+02
  -2.579355e+02   2.935600e+02
  -3.036095e+02   1.090379e+02
  -2.531127e+02  -1.536482e+02
  -3.185432e+01  -3.302895e+02
   4.639471e+01  -2.990272e+02
   3.467098e+01  -1.519327e+02
   2.067535e+01  -1.210749e+02
   1.519678e+02  -9.160379e+01
   2.541634e+02  -2.045418e+01
   2.517595e+02   1.115483e+02
   8.549181e+01   2.133550e+02
  -1.222537e+02   2.148639e+02
  -1.821636e+02   1.343541e+01
  -1.447991e+02  -1.874347e+02
   1.310812e+02  -2.338627e+02
   2.360816e+02  -7.252825e+01
   2.290110e+02   1.341696e+02
   1.216358e+02   2.388586e+02
  -7.872974e+01   2.188880e+02
  -1.200021e+02   1.565931e+02
  -1.335506e+02   9.684441e+01
  -1.235533e+02   8.859344e+01
  -2.906224e+02   3.434497e+01
  -3.200283e+02  -6.396202e+01
  -3.120726e+02  -2.988208e+02
   3.842995e+01  -3.958562e+02
   3.741815e+02  -3.172373e+02
   4.442121e+02  -1.211420e+02
   2.863061e+02   1.003052e+02
   4.335961e+01   2.266980e+02
  -7.552550e+01   1.813665e+02
   1.007137e+00   4.811164e+01
   5.376287e+01  -6.816752e+01
   6.493254e+01   9.698601e+00
   3.233626e+00   8.746977e+01
  -9.537857e+01   1.232889e+02
  -9.739453e+01  -5.161253e+01
   2.266469e+01  -1.068616e+02
   1.396863e+02  -3.513373e+01
   1.034306e+02   2.285089e+02
  -4.317227e+01   2.701732e+02
  -2.460989e+02   1.615066e+02
  -3.274357e+02  -1.189464e+02
  -2.331433e+02  -2.693759e+02
  -5.145458e+01  -3.019100e+02
   1.593756e+02  -1.438630e+02
   1.725921e+02  -4.076269e+01
   7.078876e+01   1.417453e+01
  -4.245268e+01  -7.269544e+00
  -3.763541e+01  -7.978920e+01
   9.634391e+01  -2.237704e+01
   1.000010e+02   7.022823e+01
   2.752859e+01   5.471331e+01
  -6.189492e+01   4.827985e+00
  -1.150510e+00  -7.490242e+01
   9.648599e+01  -9.098512e+01
   2.627401e+02  -1.134686e+01
   2.641601e+02   1.462735e+02
   2.028901e+01   1.951078e+02
  -2.506438e+02   1.732645e+02
  -2.592909e+02   8.741240e+01
  -1.555426e+02  -1.984518e+01
   4.799441e+01  -5.720439e+01
   4.828197e+01   2.358868e+01
  -6.658647e+01   1.996730e+01
  -1.158904e+02   1.341275e+00
  -1.574577e+02  -1.173888e+02
  -4.535832e+01  -1.497543e+02
   7.999363e+01  -1.081594e+02
   1.303426e+02  -1.871273e+01
   5.929682e+01  -1.321495e+01
  -1.276539e+01  -1.346079e+01
  -1.908518e+01  -1.190002e+02
   8.768403e+01  -9.239101e+01
   1.845018e+02  -2.150346e+01
   1.154929e+02   9.639849e+01
  -8.129766e+00   1.907823e+02
  -1.269247e+02   1.415519e+02
  -6.793522e+01   2.185292e+01
  -3.596948e+01  -9.752602e+01
   6.359101e+01  -1.149839e+02
   5.381341e+01  -6.975718e+00
   3.198051e+01   5.779087e+01
  -4.200394e+01   3.603194e+01
   8.534967e+00  -3.816636e+01
   6.407626e+01  -3.332261e+01
   5.417451e+01   9.058156e+01
  -3.238227e+01   1.484998e+02
  -8.129182e+01   1.192003e+02
  -1.892290e+02  -5.248094e-01
  -1.840810e+02  -1.302432e+02
  -1.038019e+01  -1.838653e+02
   9.338865e+01  -1.235086e+02
   1.262490e+02   5.821874e+00
   1.000560e+02   8.641092e+00
   8.754311e+01  -4.967931e+01
   2.610645e+01  -3.561751e+01
   7.641956e+01   1.425648e+00
   4.648507e+01   6.128755e+01
  -2.424498e+01   9.904795e+01
  -9.443625e+01   5.354566e+01
  -1.054091e+02  -4.228541e+01
  -4.968803e+01  -1.214043e+02
   1.243966e+02  -3.117687e+01
   1.649210e+02   5.897701e+01
   5.286062e+01   1.673357e+02
  -1.351504e+02   1.879722e+02
  -2.377230e+02   8.072196e+01
  -1.963175e+02  -1.005000e+02
  -9.312445e+01  -1.785990e+02
   1.197395e+01  -1.429523e+02
   1.136253e+02  -9.703350e+01
   9.074299e+01  -6.749962e+01
   5.555640e+01  -7.499988e+01
   8.180121e+01  -7.285890e+01
   1.696332e+02   3.751134e+01
   9.051003e+01   1.455703e+02
   1.715201e+01   1.705743e+02
  -1.017871e+02   1.714449e+02
  -1.812280e+02   1.032239e+00
  -1.174757e+02  -1.172193e+02
  -4.925491e+00  -1.096513e+02
   3.420826e+01  -4.908571e+01
   6.086199e+01   1.203098e+01
  -1.861319e+01   4.621408e+01
  -6.988900e+01  -1.958505e+01
  -2.250506e+01  -1.873002e+01
   8.528818e+01   2.379350e+01
   7.460220e+01   3.079042e+01
  -7.766538e+01   2.035843e+01
  -1.208665e+02   1.556241e+01
  -1.668932e+02  -4.569703e+01
  -3.455597e+01  -1.168230e+02
   1.499877e+02  -8.141447e+01
   1.420014e+02  -7.083477e+00
   7.365345e+01   5.800283e+01
  -2.608068e+01   8.206362e+01
  -6.944571e+01   1.274331e+01
  -4.451142e+01  -7.249385e+01
  -9.537176e+00  -5.039865e+01
   9.356240e+01  -1.830208e+01
   7.066991e+01   6.648912e+01
   2.420321e+01   3.501677e+01
   2.670154e+01   4.282413e+01
   2.109433e+01   1.468188e+01
   2.729588e+00   4.328154e+01
  -6.039473e+01   1.625033e+02
  -1.053789e+02   1.494357e+02
  -1.597072e+02   9.789158e+00
  -1.210452e+02  -1.117831e+02
   4.229234e-01  -1.253309e+02
   7.698610e+01  -7.709937e+01
   8.363126e+01  -3.622165e+01
  -1.580716e+00   2.474865e+01
  -7.766456e+01  -1.433532e+00
  -8.401391e+01  -1.063222e+02
   7.698485e+01  -3.129110e+01
   1.675384e+02  -1.781984e+00
   1.612626e+02   1.851470e+01
   2.365217e+01   8.772388e+01
  -6.070342e+01   7.212568e+01
  -3.251765e+01   4.244360e+00
   1.257156e+01  -2.961161e+00
   7.232898e+01   4.218880e+01
   2.723604e+01   1.062523e+02
  -9.941930e+01   1.537276e+02
  -1.772450e+02   7.319768e+01
  -1.277586e+02  -6.841601e+01
  -4.121054e+01  -1.810266e+02
   7.106984e+01  -1.357115e+02
   8.706141e+01  -3.020808e+01
   4.177299e+01   7.942707e+01
  -2.113894e+00   1.079500e+02
   1.724384e+01   2.862774e+01
  -7.503864e+00  -4.183628e+01
  -4.973969e+00  -4.851840e+01
   2.538614e+00   5.575875e+01
  -8.804804e+01   3.946349e+01
  -4.067461e+01  -8.299387e+01
  -4.755722e+01  -1.220796e+02
   6.818212e+01  -5.950612e+01
   1.662268e+02  -1.107434e+01
   1.530436e+02   8.716394e+01
   2.641397e+01   7.644678e+01
  -7.325549e+01   4.313409e+01
  -1.236292e+02   4.658306e+01
  -2.151349e+01   2.639014e+01
   4.477064e+01  -2.511981e+01
   3.249401e+01  -8.137226e+00
   1.968967e+01   8.188976e-02
   2.232095e+01   8.399992e-01
   1.767393e+01   5.743444e+01
   7.702905e+00   2.333690e+01
   3.452786e+01   7.947197e+01
  -7.276335e+01   8.835713e+01
  -9.156261e+01   2.166837e+01
  -1.590715e+02  -2.977559e+01
  -6.363623e+00  -1.294798e+02
   7.624073e+01  -1.551640e+02
   9.057967e+01  -6.205596e+01
   4.393065e+01   2.627747e+01
   5.390789e+01   3.563666e+01
   2.950607e+01   4.413654e+01
   2.734191e+01   2.494530e+01
   5.086135e+00   6.432403e+01
   4.937056e+00   1.351544e+02
  -1.801962e+01   1.238053e+02
  -7.986396e+01  -6.057303e+01
  -8.694032e+01  -1.272160e+02
  -8.288831e+01  -1.205686e+02
   1.004731e+02  -2.070020e+01
   1.071095e+02   3.766115e+01
   4.859804e+01   9.316282e+01
  -3.952210e+01   3.091377e+01
  -1.070331e+02  -7.740894e+00
  -1.648167e+01  -7.099413e+01
   3.611510e+01  -2.262557e+01
   3.425326e+01   4.598574e+00
  -5.523476e+00   4.632944e+01
  -3.917936e+01   2.205172e+01
  -3.266241e+01  -5.146070e+01
   7.908462e+01  -7.573961e+01
   1.335866e+02  -3.210707e+01
   5.839666e+01  -1.632678e+01
  -1.332060e+01   1.082054e+02
  -3.427028e+01   8.115138e+01
  -3.349565e+01   1.407997e+01
  -4.001248e+01  -8.366084e+01
  -5.932841e+00  -3.442303e+01
   1.788323e+01  -4.823041e+00
   2.992474e+00   5.281437e+01
   2.309246e+01   1.189579e+00
  -1.690987e+01  -1.617966e+01
  -4.773893e+01  -2.537840e+00
  -4.193805e+00  -1.260490e+01
  -3.119847e+01   2.739157e+01
   9.241986e-01   3.082443e+01
  -3.150276e+01  -3.174111e+01
   3.459218e+00  -8.688750e+01
  -1.387318e+01  -1.999792e+01
   6.709002e+01   7.732975e+00
   9.047186e+00   7.213491e+01
  -5.104600e+01   8.910287e+01
  -8.689694e+01  -1.128035e+01
  -1.870796e+01  -6.719492e+01
   7.479758e+01   1.816383e+01
   9.130668e+01  -1.462751e+01
   4.813106e+01   4.838806e+01
  -3.246778e+01   3.782463e+01
  -8.972237e+01   2.157536e+01
  -2.561745e+00   1.957914e+01
   4.384679e+01  -2.432888e+01
   3.133763e+01  -4.826510e+01
  -1.084250e+01   1.171208e+01
  -2.274174e+01  -1.370123e+01
