
 $NMID
 id='ANONYMOUS ', fmtdat='(2E16.6)'
 volume=1.0
 tramp=1.0
 $END
  -4.860515e+03  -5.282723e+01
  -2.710188e+03  -2.644818e+03
   7.789386e+02  -3.219869e+03
   2.264711e+03  -9.596299e+02
   1.187439e+03   5.373504e+02
  -7.266923e+02   5.787353e+02
  -9.437695e+02  -4.885386e+02
   4.014368e+01  -1.407738e+03
   9.854261e+02  -9.141928e+02
   1.001364e+03   1.147332e+02
   5.931464e+02   1.034794e+03
  -2.200195e+02   8.510645e+02
  -7.831254e+02   2.289070e+02
  -3.388373e+02  -7.367687e+02
   4.821013e+02  -7.544048e+02
   7.837150e+02   9.597542e+01
   3.213605e+02   6.630317e+02
  -5.393783e+02   5.706091e+02
  -7.107387e+02  -5.321292e+01
  -6.258917e+02  -2.631011e+02
   3.170998e+01  -5.119998e+02
   4.334428e+02  -2.738996e+02
   2.703959e+02  -3.430697e+01
  -1.046913e+02   1.342995e+02
  -3.189528e+02   3.583845e+01
  -3.402974e+02  -5.694443e+02
   3.895594e+02  -4.099633e+02
   8.015759e+02   1.631894e+02
   3.910984e+02   4.587650e+02
  -3.880616e+02   4.641929e+02
  -7.894558e+02  -1.147917e+02
  -3.413506e+02  -4.878662e+02
   3.820772e+02  -5.132589e+02
   5.815108e+02  -2.327558e+02
   4.456827e+02   2.387667e+02
   7.227870e+01   6.185667e+02
  -2.445744e+02   3.304476e+02
  -2.305956e+02  -1.869559e+02
   1.462124e+02  -5.359598e+02
   5.602848e+02  -1.086684e+02
   3.296213e+02   6.355496e+02
  -3.056345e+02   7.669530e+02
  -6.664766e+02   3.330288e+01
  -3.796072e+02  -6.156645e+02
   2.604276e+02  -4.265739e+02
   4.430499e+02   2.904301e+02
  -3.024178e+01   5.793504e+02
  -6.046177e+02   1.832322e+02
  -6.182193e+02  -3.660274e+02
  -1.185725e+02  -6.296619e+02
   4.483410e+02  -4.146889e+02
   7.038947e+02   3.500480e+01
   3.983277e+02   4.994473e+02
  -1.724638e+02   4.865088e+02
  -5.049020e+02   5.383257e+01
  -2.379507e+02  -2.406386e+02
   1.944021e+02  -1.410195e+02
   1.411651e+02   2.229746e+02
  -2.130698e+02   1.745327e+02
  -3.927023e+02  -9.896619e+01
  -1.303116e+02  -3.439862e+02
   1.702010e+02  -2.582349e+02
   2.875732e+02  -4.279957e+01
   1.630011e+02   6.045038e+01
   6.563858e+01   1.703158e+02
  -1.815016e+02   2.882074e+02
  -3.420140e+02   2.308100e+02
  -3.183120e+02  -1.592037e+02
  -3.435021e+01  -4.417725e+02
   1.752262e+02  -4.096125e+02
   1.685087e+02  -1.218305e+02
   4.806834e+01   2.221532e+01
   2.606925e+01  -6.100205e+00
   1.666945e+02  -1.177472e+02
   3.448382e+02   8.159465e+01
   2.448388e+02   3.129462e+02
  -9.451581e+01   3.199807e+02
  -2.636399e+02  -3.127881e+00
  -2.835524e+02  -2.329286e+02
   7.511838e+00  -3.069282e+02
   2.585585e+02  -1.199707e+02
   3.542454e+02   1.394530e+02
   2.133041e+02   3.294716e+02
  -8.596995e+01   3.226529e+02
  -1.909314e+02   1.163989e+02
  -1.407696e+02   3.119288e+01
  -5.414213e+01  -1.227367e+00
  -1.892269e+02   5.042650e+01
  -3.847308e+02  -3.724925e+01
  -4.137823e+02  -2.352578e+02
  -2.946834e+01  -4.429230e+02
   3.419789e+02  -4.763209e+02
   5.240065e+02  -2.342119e+02
   3.776644e+02   5.481720e+01
   1.476054e+02   2.841886e+02
  -9.072795e+01   2.694029e+02
  -1.161573e+02   1.003280e+02
   1.024340e+02  -4.411708e+01
   2.196309e+02   8.169085e+01
   1.003628e+02   2.708545e+02
  -2.121880e+02   1.899529e+02
  -2.374187e+02  -1.068129e+02
  -1.899736e+01  -1.891408e+02
   1.710540e+02  -1.337079e+02
   1.955971e+02   1.988487e+02
  -2.444986e+01   3.346529e+02
  -2.271421e+02   2.006018e+02
  -2.982739e+02  -4.518303e+01
  -2.687826e+02  -2.087576e+02
  -1.246140e+02  -2.718613e+02
   1.157967e+02  -2.034351e+02
   2.217472e+02  -3.126576e+01
   4.773204e+01   8.521813e+01
  -1.021816e+02   4.223907e+01
  -6.762543e+01  -9.468549e+01
   1.722714e+02  -8.861918e+01
   2.681651e+02  -3.568948e+01
   9.892729e+01   1.056430e+02
  -8.109840e+01   5.363459e+01
  -1.112432e+02  -6.600460e+01
   1.331489e+02  -8.455316e+01
   2.708318e+02   9.079195e+00
   2.406478e+02   1.223049e+02
   9.695890e+01   2.079012e+02
  -1.774687e+02   3.147541e+02
  -3.118698e+02   1.294444e+02
  -1.931877e+02  -9.003119e+01
  -6.960291e+00  -8.813040e+01
   6.771965e+01   1.099802e+01
  -8.082158e+01   5.925186e+01
  -1.746168e+02   7.440436e+01
  -2.113014e+02  -1.081735e+02
  -8.697928e+00  -1.555846e+02
   1.083591e+02  -1.717864e+02
   2.025643e+02  -2.918059e+01
   9.288128e+01   3.602229e+01
   2.259737e+00   2.215726e+01
  -1.079100e+01  -1.782673e+01
   7.553945e+01  -3.637198e+01
   1.659921e+02  -3.720204e+01
   1.197898e+02   1.261462e+02
  -1.859481e+01   2.280400e+02
  -2.077613e+02   1.126662e+02
  -1.518626e+02  -2.910446e+01
  -4.342382e+01  -1.359723e+02
   7.321690e+01  -1.347469e+02
   6.812531e+01  -6.994001e+01
  -1.683642e+01   1.214275e+01
  -2.125240e+01  -9.564887e+00
   7.714242e+01   3.217171e+01
   1.072619e+02   4.635830e+01
   1.084780e+02   1.320128e+02
   2.518998e+01   1.554773e+02
  -9.922684e+01   1.672483e+02
  -2.125627e+02   6.845898e+01
  -2.562368e+02  -1.035465e+02
  -5.374349e+01  -2.346304e+02
   9.085896e+01  -1.920979e+02
   1.538079e+02  -3.665450e+01
   1.019504e+02   2.844332e+01
   3.834222e+01   2.730372e+01
   8.183333e+01  -2.018860e+01
   8.488785e+01  -2.902314e+01
   4.345070e+01   5.119119e+01
  -1.555287e+01   8.519883e+01
  -9.514867e+01   1.172259e+02
  -1.129508e+02   4.543270e+01
  -6.519485e+00  -1.189826e+02
   1.182044e+02  -1.116450e+02
   1.527592e+02   1.861014e+01
   1.061431e+02   2.236615e+02
  -1.486782e+02   2.816832e+02
  -2.149789e+02   7.855052e+01
  -2.237565e+02  -7.712576e+01
  -1.052378e+02  -1.843426e+02
   4.391588e+01  -1.217296e+02
   1.203421e+02  -6.819437e+01
   4.806593e+01  -6.530479e+01
   2.109150e+01  -7.671080e+01
   5.355143e+01  -6.482709e+01
   1.470477e+02   3.415872e+01
   1.339176e+02   1.687844e+02
   5.845750e+01   2.108430e+02
  -1.237656e+02   1.110683e+02
  -2.157992e+02   1.024216e+01
  -1.351293e+02  -9.372332e+01
  -2.084734e+01  -1.651607e+02
   9.141278e+01  -6.076789e+01
   3.955132e+01  -8.196297e+00
  -2.119020e+01   3.562991e+01
  -1.896405e+00   7.985349e+01
   6.633199e+01   1.679516e+01
   8.395159e+01   6.163468e+00
   5.291456e+01  -8.794897e+00
  -5.856456e+01   4.633284e+01
  -1.564877e+02   6.501585e+01
  -1.303117e+02   2.419826e+00
  -5.259988e+00  -2.470740e+01
   6.021126e+01  -5.694033e+01
   1.187815e+02  -1.427291e+01
   3.056024e+01   6.906888e+01
  -2.919795e+01   6.911287e+01
  -1.090533e+02  -3.536130e+01
  -5.295472e+01  -7.939516e+01
   4.349975e+01  -4.122532e+01
   3.784533e+01  -1.442928e+01
   9.158146e+01   4.404975e+01
   6.777792e+01  -2.250776e+00
   5.889906e+01  -5.818190e+01
   1.002068e+02  -2.027799e+01
   5.066567e+01   9.555701e+01
   1.061891e+01   1.257386e+02
  -7.964930e+01   1.063071e+02
  -1.668730e+02   1.957290e+01
  -9.308151e+01  -8.220901e+01
  -6.118402e+01  -3.092406e+01
   1.090211e+02  -6.497735e+01
   2.820792e+01   1.626238e+01
  -9.032066e+01   3.491683e+01
  -1.549411e+02  -6.063839e+01
  -6.352632e+01  -1.051438e+02
   8.447600e+01  -6.808831e+01
   2.027542e+02  -4.940838e+01
   1.372147e+02   3.802288e+01
   2.073526e+00   6.921329e+01
  -6.068457e+01   6.516813e+01
  -4.196596e+01   5.186808e+01
   5.638895e+01  -1.992337e+01
   7.268629e+01   1.451727e+01
  -3.197658e+01   6.326887e+01
  -1.389563e+02   1.282171e+02
  -1.298433e+02   3.608979e+01
  -1.076003e+02  -1.229356e+02
   1.695619e+01  -1.903817e+02
   3.232654e+01  -1.251805e+02
   1.056181e+02   2.602196e+01
   9.433887e+01   1.206681e+02
   1.826929e+01   8.477505e+01
  -4.535797e+01  -8.997959e+00
   2.476100e+01  -2.719229e+01
  -1.351993e+01   2.856135e+00
  -6.623115e+00   8.610638e+01
  -9.585374e+00  -4.824664e+00
  -5.193759e+01  -1.050757e+02
  -5.467593e+01  -1.274733e+02
   4.926852e+01  -1.696474e+01
   1.013399e+02   2.233730e+01
   1.203367e+02   8.747973e+01
   1.224063e+01   1.042515e+02
  -1.044605e+02  -3.849089e+00
  -1.089259e+02  -3.681437e+01
  -1.264327e+01  -2.602593e+01
   2.952731e+01  -9.415698e+00
  -5.130110e+01  -3.774600e+01
  -3.027543e+01   1.834593e+01
   2.212838e+01  -4.141461e+01
   7.292470e+01   1.762434e+01
   1.312716e+02   5.244117e+01
  -6.813475e+00   9.340913e+01
  -9.379951e+01   1.083224e+02
  -1.588381e+02   5.093314e+01
  -1.941592e+02  -1.301352e+01
  -9.090197e+01  -1.264031e+02
   5.421205e+01  -1.320412e+02
   6.545932e+01  -7.467318e+01
   7.512953e+01  -6.350473e+01
   2.481398e+01   2.123302e+01
  -5.862455e+00  -3.273445e+01
   2.839511e+01  -5.275188e+00
   3.550395e+00   1.222122e+02
   3.072597e+01   9.556952e+01
  -2.375933e+01   7.595894e+01
  -7.728698e+01  -5.033570e+01
  -3.599904e+01  -1.161974e+02
   2.138481e+01  -6.844315e+01
   1.036235e+02  -4.727915e+01
   1.113571e+02   9.076728e+01
   5.401644e+01   3.278119e+01
  -2.374582e+01   1.726850e+01
  -7.447413e+01   1.957886e+01
   1.262541e+00  -6.938988e+01
   5.652304e+01  -8.314396e+00
  -2.580262e+01  -3.658161e+01
  -4.194920e+01  -3.358825e+01
  -1.448077e+02  -9.179753e+00
  -3.212515e+01  -3.771337e+00
   8.180708e+01  -6.886735e+01
   8.976456e+01  -9.520612e+01
   5.028670e+01   3.623603e+01
  -3.478541e+01   9.856223e+01
  -3.551420e+01   2.820098e+01
  -9.324034e+01  -1.864438e+01
  -3.652084e+00  -6.104223e+01
   7.881046e+01  -7.395116e+01
  -7.034594e-01   7.287754e+01
   3.057522e+01   6.368684e+01
   5.586040e+00   1.059408e+01
  -4.705330e+01  -4.362187e+00
  -5.894425e+01  -3.909470e+01
  -6.715065e+01   3.450670e+01
  -2.775194e+01   6.526495e+01
   3.786271e+01   1.869819e+01
   4.505563e+01  -2.655046e+01
   2.663676e+01  -7.449284e+01
  -7.469047e+00   3.069497e+01
   6.736721e+01   8.462021e+01
  -9.010241e+00   5.074423e+01
  -4.543718e+01   2.260959e+01
  -5.934058e+01  -9.815090e+00
   1.372919e-01  -3.545667e+01
   2.286134e+01  -5.237625e+01
   1.042919e+02  -1.318820e+01
   4.699018e+01  -1.452499e+01
  -1.587892e+01  -3.360082e+01
  -7.714199e+01   2.545824e+01
  -5.088293e+01   5.854199e-01
   4.299403e+01   5.091660e+01
  -2.064879e+01   3.304986e+01
  -3.738878e+01   3.957119e+01
  -8.977202e+01   2.264649e+01
