
 $NMID
 id='ANONYMOUS ', fmtdat='(2E16.6)'
 volume=1.0
 tramp=1.0
 $END
  -4.882350e+03   1.917338e+02
  -2.996205e+03  -2.751864e+03
   5.761766e+02  -2.921147e+03
   2.171313e+03  -9.080183e+02
   9.502410e+02   8.419787e+02
  -7.342128e+02   6.074935e+02
  -1.023015e+03  -4.870323e+02
   1.388040e-01  -1.031083e+03
   7.971535e+02  -1.011661e+03
   9.057834e+02   5.249353e+01
   5.887143e+02   1.078713e+03
  -3.229104e+02   9.463597e+02
  -7.653236e+02   1.887347e+02
  -4.104290e+02  -8.166123e+02
   2.110600e+02  -8.400727e+02
   4.658949e+02  -9.989573e+01
   7.374872e+01   7.161175e+02
  -4.631230e+02   6.455363e+02
  -4.054741e+02   7.324148e+01
  -5.042307e+02  -4.610618e+02
   1.266419e+01  -5.703964e+02
   2.399671e+02  -4.113623e+02
   3.249302e+02   5.573949e+01
  -1.465514e+01   1.566678e+02
  -5.201360e+02   1.433772e+02
  -1.983796e+02  -4.547903e+02
   5.922398e+02  -4.495845e+02
   1.009449e+03   1.286351e+02
   5.584714e+02   6.494809e+02
  -4.611808e+02   2.682778e+02
  -8.284387e+02  -1.336189e+02
  -3.703989e+02  -5.141842e+02
   3.233186e+02  -5.452916e+02
   5.284391e+02  -1.006141e+02
   3.641257e+02   3.348281e+02
   9.913779e+01   4.448208e+02
  -2.300863e+02   2.496216e+02
  -1.479237e+02  -2.674114e+02
   2.536707e+02  -4.190965e+02
   5.073432e+02   3.377523e+01
   2.769297e+02   7.825223e+02
  -4.208992e+02   7.301207e+02
  -7.226310e+02  -2.986401e+01
  -2.113559e+02  -6.013480e+02
   3.306895e+02  -3.779000e+02
   4.624791e+02   3.541245e+02
  -9.907896e+01   5.751671e+02
  -6.587619e+02   2.113258e+02
  -6.417871e+02  -4.072703e+02
  -1.573881e+02  -6.822864e+02
   3.995747e+02  -4.141237e+02
   6.271509e+02   4.523686e+01
   4.117029e+02   3.739941e+02
  -1.113114e+02   3.809962e+02
  -3.530869e+02   4.897885e+01
  -2.089723e+02  -1.795782e+02
   1.217152e+02  -1.364275e+02
   9.367531e+01   1.815312e+02
  -1.981674e+02   2.002562e+02
  -3.876611e+02  -2.254784e+01
  -1.436718e+02  -3.042360e+02
   2.168992e+02  -2.835936e+02
   3.503885e+02  -9.660772e+01
   1.793405e+02   1.104327e+02
  -4.349269e+01   2.324098e+02
  -2.966906e+02   3.055582e+02
  -2.965524e+02   2.080364e+02
  -3.027866e+02  -1.530918e+02
   1.436225e+01  -4.632094e+02
   1.360941e+02  -3.966037e+02
   1.573782e+02  -1.038030e+02
  -4.203536e-01   3.801324e+01
   7.171140e+01  -1.412249e+02
   2.723471e+02  -1.039031e+02
   2.895570e+02   1.076247e+02
   1.095330e+02   3.459854e+02
  -7.221095e+01   2.690715e+02
  -2.040977e+02   1.259764e+01
  -1.711564e+02  -1.914490e+02
  -2.396339e+01  -2.354717e+02
   2.358593e+02  -8.551667e+01
   2.722731e+02   1.711292e+02
   1.444809e+02   3.579521e+02
  -1.769957e+02   3.104608e+02
  -2.096511e+02   1.131682e+02
  -1.095521e+02  -8.357631e+00
  -8.059207e+01   3.688659e+01
  -2.378831e+02   1.169778e+02
  -4.307920e+02  -4.021432e+01
  -3.720315e+02  -2.894709e+02
  -3.473559e+01  -4.994065e+02
   3.815317e+02  -4.422900e+02
   5.501289e+02  -2.010801e+02
   3.109366e+02   9.903862e+01
   7.128741e+01   2.984028e+02
  -1.496692e+02   3.196135e+02
  -8.417172e+01   7.777770e+01
   7.447130e+01  -3.509204e+01
   1.594818e+02   1.204518e+01
   2.250589e+01   1.800937e+02
  -1.419377e+02   1.666761e+02
  -1.775553e+02  -6.407183e+01
   2.443222e+01  -1.956255e+02
   2.127114e+02  -1.642144e+01
   2.003133e+02   2.490461e+02
   3.730261e+01   3.446638e+02
  -3.173402e+02   1.616975e+02
  -3.959318e+02  -9.662920e+01
  -3.098442e+02  -2.460568e+02
  -1.129959e+02  -2.502686e+02
   1.247703e+02  -1.962309e+02
   1.262300e+02  -5.351161e+01
   7.139077e+01  -1.066526e+01
  -4.291711e+01  -4.037957e+01
  -1.388479e+01  -1.285580e+02
   1.096937e+02  -1.085593e+02
   2.240399e+02   4.601519e+01
   4.673562e+01   3.735131e+01
  -7.672853e+01   2.143086e+01
  -2.469693e+01  -8.311128e+01
   1.354103e+02  -4.804356e+01
   2.650721e+02  -4.907109e+00
   2.301866e+02   1.396373e+02
   5.067438e+01   2.738125e+02
  -2.105487e+02   3.140585e+02
  -3.333021e+02   1.188061e+02
  -2.151637e+02  -1.447451e+02
   1.445257e+01  -9.900667e+01
   9.783655e+01  -7.480940e-01
   1.427506e+01   1.129705e+02
  -1.934529e+02   2.471726e+01
  -2.193073e+02  -1.153970e+02
  -1.578561e+01  -2.119832e+02
   1.400681e+02  -1.401567e+02
   2.078950e+02  -1.517870e+01
   8.687801e+00   2.813621e+01
  -1.882544e+01   8.605863e+00
  -4.973182e+01  -9.001046e+01
   9.982150e+01  -5.613878e+01
   2.313469e+02  -1.169237e+01
   1.993283e+02   1.421997e+02
   1.297359e+01   2.029104e+02
  -1.625953e+02   1.299103e+02
  -1.824920e+02   1.788301e+01
  -3.853662e+01  -1.201053e+02
   8.914026e+01  -8.561159e+01
   3.667341e+01  -5.079036e+01
   1.757598e+01   5.108040e+01
  -4.254576e+01   1.162351e+01
  -5.039774e+00   1.949755e+01
   6.151890e+01   2.545034e+00
   7.579316e+01   1.214977e+02
   6.700189e+01   1.999505e+02
  -1.506390e+02   1.435702e+02
  -2.275578e+02  -1.779807e+01
  -2.057809e+02  -1.654275e+02
  -4.582477e+01  -1.578299e+02
   1.178368e+02  -1.883278e+02
   1.353846e+02  -6.535400e+00
   9.471535e+00   9.536788e+01
  -3.820986e+01   5.362565e+01
  -4.999767e+00  -3.136460e+01
   8.560621e+01  -5.372427e+01
   5.451849e+01   4.404748e+01
  -8.499196e+01   1.141089e+02
  -1.266551e+02   4.345580e+01
  -1.273943e+02  -4.125993e+01
   6.766191e+01  -7.902886e+01
   1.724612e+02  -9.479055e+01
   1.844510e+02   1.603277e+01
   1.074409e+02   1.692706e+02
  -1.286622e+02   2.025417e+02
  -2.754526e+02   1.054888e+02
  -1.975963e+02  -1.488319e+02
  -8.882885e+01  -1.796817e+02
  -1.142248e+01  -1.127426e+02
   1.041156e+02  -8.704597e+01
   1.055269e+02  -9.525808e+01
   7.893807e+01  -8.321934e+01
   9.221071e+01  -1.306557e+02
   1.627276e+02   1.755956e+01
   1.122487e+02   1.696091e+02
   3.831199e+01   2.484051e+02
  -8.850503e+01   1.547939e+02
  -1.926970e+02  -4.874087e+00
  -6.145666e+01  -1.059438e+02
  -5.225682e+00  -1.524705e+02
   9.306148e+01  -6.228127e+01
   1.006320e+02   3.026590e+01
   3.984932e+00   5.897854e+01
  -4.440558e+01   2.797939e+01
  -9.755337e-01   2.708322e+01
   6.533090e+01   4.631618e+01
   4.504424e+01   5.975040e+01
  -7.890168e+01   3.296213e+01
  -1.899507e+02  -2.961236e+01
  -1.292317e+02  -4.979057e+01
  -5.775512e+01  -6.160497e+01
   1.398903e+02  -1.256586e+02
   1.246898e+02  -5.993725e+01
   7.374716e+01   4.189372e+01
  -7.251649e+00  -1.855720e+01
  -3.728884e+00  -3.774548e+01
   1.918117e+00  -5.775345e+01
   5.747436e+01  -4.494569e+01
   1.044551e+02   1.137731e+01
   4.950753e+01   1.008072e+02
   5.430398e+01   4.122351e+01
   1.188913e+01  -5.150659e+00
   8.776180e+01  -2.432521e+01
   2.735162e+01   7.120512e+01
  -1.275628e+01   1.722743e+02
  -1.243594e+02   1.676332e+02
  -1.502884e+02   3.788162e+01
  -1.441570e+02  -1.057351e+02
  -5.616463e+00  -9.293973e+01
   1.049833e+02   6.730248e+00
   3.836308e+01   6.321652e+01
  -4.570831e+01   2.937500e+01
  -1.683629e+02  -4.393928e+01
  -1.077062e+02  -1.026987e+02
   5.202745e+01  -1.147508e+02
   1.943851e+02  -6.228710e+01
   1.431305e+02   2.841840e+01
   3.326476e+01   9.287130e+01
  -6.758366e+01   1.336209e+01
  -3.372167e+01  -9.907738e+00
   7.736681e+01  -4.202457e+00
   7.011663e+01   3.082962e+01
   3.488980e+01   1.027952e+02
  -9.412621e+01   1.747612e+02
  -1.550945e+02   9.188640e+01
  -1.369430e+02  -6.539730e+01
   4.089524e+00  -1.747823e+02
   1.256704e+02  -1.420015e+02
   8.828308e+01  -8.795081e+00
   8.099967e+01   1.294456e+02
  -1.804590e+01   8.383662e+01
  -7.311389e+01  -1.017563e+01
  -7.417025e+01  -2.466972e+01
  -8.671427e+00   3.418044e+01
   1.857099e+00   1.393040e+01
  -2.624213e+01  -2.315101e+01
  -8.460541e+01  -1.653048e+02
  -4.192635e+01  -1.163475e+02
   5.305059e+01  -2.654212e+01
   1.325973e+02   1.503470e+01
   1.006992e+02   1.299197e+02
  -3.007037e+01   4.803195e+01
  -4.657105e+01  -1.395113e+01
  -6.317989e+01   6.193768e+00
  -2.053018e+01  -2.573002e+01
   6.444409e+01  -3.045247e+01
   3.998874e+01  -3.383923e+01
  -4.540373e+01  -1.589113e+01
   2.520457e+01   6.134003e+01
   8.033417e+01   1.006695e+01
   9.907462e+01   5.276875e+01
   5.255087e+01   7.376228e+01
  -1.313417e+02   9.772169e+01
  -1.873720e+02   5.824667e+01
  -1.465212e+02  -2.743820e+01
  -4.795554e+01  -9.748872e+01
   8.385853e+01  -1.019612e+02
   1.374516e+02  -5.455163e+01
   6.668869e+01   3.675807e+01
   2.360700e+01   2.291784e+01
  -3.290084e+01  -5.305587e+01
  -2.050894e+01   2.634431e+01
   2.921250e+00   8.900051e+01
  -2.158114e+01   8.315225e+01
  -3.500633e+01   4.021207e+01
  -5.327075e+01   8.865878e+00
  -8.501628e+01  -1.196354e+02
   6.561061e+00  -1.520969e+02
   6.397070e+01  -3.078215e+01
   9.240966e+01   5.615243e+01
   5.868912e+01   7.812500e+01
  -5.885073e+01   4.345502e+01
  -6.936581e+01  -3.696331e+01
  -6.782172e+01  -6.596897e+01
   4.785222e+01  -5.333980e+01
   8.398712e+01  -2.083019e+01
  -3.030332e+01   7.793575e+00
  -5.955810e+01  -4.178079e+00
  -3.776380e+01   4.604506e+00
   4.948912e+01  -4.498059e+01
   1.355438e+02  -6.987278e+01
   7.750552e+01  -1.740560e+01
  -4.528017e+01   4.129183e+01
  -2.830549e+01   8.754651e+01
  -4.397638e+01   3.119484e+01
  -3.988452e+01   2.498201e+00
   3.485415e+01  -4.553904e+01
   4.686924e+01  -4.614668e+01
   1.186841e+01   6.277830e+01
   3.728266e+01   2.828318e+01
  -3.379105e+01   2.557207e+01
  -7.512294e+01  -3.083064e+01
  -1.690898e+01   2.154941e+00
   6.948120e+00   4.400392e+01
   1.325708e+01  -8.177933e+00
   5.969646e+00  -9.514800e+01
   8.872037e+00  -3.452513e+01
   2.933580e+01  -7.849106e+00
   2.887046e+01   5.276155e+01
   2.105268e+01   4.258345e+01
  -9.604798e+01   1.138959e+01
  -9.180236e+01  -5.506173e+01
  -3.267966e+01  -7.042507e+01
   8.064521e+01   2.139287e+01
   8.108997e+01   2.177506e+01
   8.221117e+01   4.676985e+01
   2.655961e+01   1.697304e+01
  -6.532501e+01   8.240421e+01
  -4.988018e+00   3.816884e+01
   1.793330e+01  -1.370186e-01
   3.255370e+01   4.037376e+01
  -1.666366e+01   1.755116e+01
  -1.239418e+02   3.435366e+01
