
 $NMID
 id='ANONYMOUS ', fmtdat='(2E16.6)'
 volume=1.0
 tramp=1.0
 $END
  -3.002716e+03   5.679198e+01
  -2.487436e+03  -1.734220e+03
  -1.622823e+02  -2.413979e+03
   1.444116e+03  -1.481409e+03
   8.868490e+02  -3.008355e+02
  -1.659726e+01   1.600186e+02
  -3.920808e+02  -1.077592e+02
  -1.480210e+02  -6.222384e+02
   5.648188e+02  -7.351611e+02
   7.434962e+02  -2.254534e+02
   4.252942e+02   5.073634e+02
  -4.338267e+01   5.583131e+02
  -4.429952e+02   1.959305e+02
  -1.806716e+02  -5.469257e+02
   1.936500e+02  -6.211742e+02
   6.220727e+02  -9.839674e+01
   1.992103e+02   3.803617e+02
  -6.368313e+01   5.718009e+02
  -5.829594e+02   3.966475e+02
  -3.560450e+02  -1.104045e+02
  -1.319735e+02  -5.381872e+02
   2.571903e+02  -3.354959e+02
   1.513946e+02   1.378312e+02
  -2.545312e+01  -9.015855e+01
  -3.014617e+02  -2.018965e+02
   7.836159e+00  -5.539460e+02
   6.057826e+02  -1.743431e+02
   6.569377e+02   2.479524e+02
   2.684412e+02   5.151700e+02
  -3.361484e+02   2.839947e+02
  -6.137126e+02  -1.481285e+02
  -2.507746e+02  -4.054491e+02
   2.336230e+02  -4.507299e+02
   4.921298e+02  -1.451124e+02
   3.596458e+02   1.865007e+02
   1.074091e+02   2.400683e+02
  -9.806084e+01   1.071551e+02
   7.621222e+01  -2.067187e+02
   2.360239e+02  -1.859907e+02
   2.650379e+02   9.086070e+01
   6.683594e+01   6.145205e+02
  -3.128603e+02   4.891116e+02
  -3.872260e+02  -2.383587e+01
  -1.630143e+02  -4.386528e+02
   1.963687e+02  -2.572238e+02
   2.303638e+02   2.730401e+02
  -9.016906e+01   4.651074e+02
  -5.122511e+02   1.065990e+02
  -5.419708e+02  -4.017214e+02
  -1.632937e+02  -6.116181e+02
   3.633625e+02  -3.744321e+02
   6.028275e+02   6.909501e+01
   4.439978e+02   3.305376e+02
  -2.631969e+01   3.388280e+02
  -3.410693e+02   1.395078e+02
  -2.043349e+02  -7.429359e+01
   3.168775e+01  -1.846080e+01
   8.379606e+01   1.168324e+02
  -1.529297e+02   1.897289e+02
  -3.200707e+02  -1.680961e+01
  -1.833167e+02  -2.441019e+02
   1.570363e+02  -3.209676e+02
   3.861588e+02  -1.303157e+02
   2.836127e+02   1.210625e+02
  -4.912345e+01   3.271246e+02
  -3.257581e+02   3.723183e+02
  -3.832562e+02   1.731805e+02
  -2.536386e+02  -1.974642e+02
   8.729916e+00  -3.874238e+02
   1.071737e+02  -3.503016e+02
   6.303777e+01  -1.514853e+02
   1.827160e+01  -4.665529e+01
   1.639017e+02  -8.936867e+01
   2.330918e+02  -2.303329e+01
   2.016654e+02   1.426413e+02
   1.165634e+02   3.166137e+02
  -9.721465e+01   1.834341e+02
  -1.456440e+02  -3.987348e+01
  -1.947898e+02  -2.567377e+02
   4.738302e+01  -3.327996e+02
   2.751496e+02  -7.320465e+01
   3.569899e+02   1.674519e+02
   2.245889e+02   3.813051e+02
  -4.947328e+01   3.303914e+02
  -1.762294e+02   1.062770e+02
  -1.508828e+02   4.716657e+01
  -1.032086e+02   7.064694e+01
  -2.642288e+02   9.594248e+01
  -4.549205e+02  -7.458779e+01
  -3.376860e+02  -3.465758e+02
   2.416034e+01  -4.791751e+02
   4.103690e+02  -4.026791e+02
   5.223720e+02  -1.160338e+02
   2.931628e+02   1.416548e+02
   2.036743e+01   3.377442e+02
  -1.127780e+02   2.187688e+02
  -9.755818e+01   1.934011e+01
   4.567286e+01  -7.373211e+01
   1.530999e+02  -1.436252e+01
   3.886792e+01   1.391464e+02
  -1.123977e+02   1.239325e+02
  -1.594963e+02  -1.710935e+01
   1.606093e+01  -1.722481e+02
   1.629296e+02  -3.807852e+01
   1.553419e+02   2.269018e+02
  -8.696832e+01   4.197793e+02
  -2.994824e+02   2.578970e+02
  -4.153832e+02  -1.211163e+02
  -3.313712e+02  -3.205718e+02
  -2.274214e+01  -3.011957e+02
   1.240559e+02  -1.615640e+02
   2.171204e+02  -1.259350e+01
   2.967331e+01   4.214419e+01
  -6.048905e+01  -8.459597e+01
  -6.573730e+01  -1.166825e+02
   6.216597e+01  -1.287799e+02
   1.683346e+02   1.939873e+01
   5.168013e+01   5.999959e+01
  -4.879208e+01  -3.887480e+01
  -9.705475e+01  -1.377380e+02
   2.197252e+02  -1.475950e+02
   3.620893e+02   7.469690e+00
   2.866426e+02   2.076224e+02
   3.988487e+01   3.204782e+02
  -2.333200e+02   2.196896e+02
  -2.782948e+02   1.029408e+02
  -1.320686e+02  -6.196983e+01
   3.662503e+01  -1.132044e+02
   1.011235e+02   2.980943e+01
  -3.742418e+01   1.086467e+02
  -2.045009e+02   8.886009e+00
  -1.996401e+02  -6.814307e+01
  -2.411767e+01  -1.628779e+02
   7.941860e+01  -1.200055e+02
   1.062096e+02  -5.027423e+01
   5.802717e+01   2.398315e+01
  -5.961153e+01  -6.630719e+01
  -1.249273e+01  -1.594287e+02
   7.128237e+01  -1.613530e+02
   2.089310e+02  -2.705209e+01
   2.140313e+02   1.395326e+02
   5.718013e+01   1.783575e+02
  -1.356827e+02   1.508754e+02
  -1.454566e+02   2.902688e+01
   1.482282e+01  -7.237558e+01
   8.644473e+01  -6.726920e+01
   9.519047e+01   1.363799e+00
  -1.996221e+01  -1.798815e+01
  -1.228998e+02   8.524559e+00
  -5.142486e+01  -2.599666e+01
   1.248687e+02   1.227435e+00
   1.036180e+02   7.761956e+01
   2.322985e+01   1.072425e+02
  -1.792097e+02   1.304627e+02
  -2.715591e+02   3.037805e+00
  -1.465091e+02  -1.104967e+02
   3.873767e+00  -2.086105e+02
   1.405759e+02  -1.404753e+02
   1.346119e+02  -4.419762e+01
   7.098146e+01   2.364235e+01
   5.182161e+01   4.450849e+01
   1.254107e+02   1.805184e+01
   7.433807e+01   5.577603e+00
   3.878696e+01   6.145651e+01
  -4.870647e+01   1.525658e+02
  -1.481619e+02   6.610981e+01
  -1.073941e+02  -4.598629e+01
   1.737429e+01  -1.271406e+02
   1.870172e+02  -1.150930e+02
   2.519809e+02   6.123394e+01
   9.977522e+01   2.305367e+02
  -1.423437e+02   2.147840e+02
  -2.835301e+02   8.886042e+01
  -2.114733e+02  -1.363910e+02
  -7.878737e+01  -1.841240e+02
   4.362580e+01  -1.415222e+02
   1.196911e+02  -6.961125e+01
   7.854775e+01  -6.984723e+01
   4.049243e+01  -8.523159e+01
   6.115047e+01  -3.573340e+01
   1.098394e+02   2.609755e+01
   7.124301e+01   1.298546e+02
   3.237256e+01   1.747027e+02
  -1.139718e+02   1.502372e+02
  -1.890528e+02  -3.593209e+01
  -1.113998e+02  -1.054238e+02
   2.851614e+00  -1.406699e+02
   1.212912e+02  -8.505470e+01
   3.772840e+01   1.589775e+01
  -4.073176e+01   7.243145e+01
  -3.735076e+01   2.346071e+01
   6.323558e+01   5.868887e+00
   7.029729e+01   3.400584e+01
   8.377052e+01   4.627975e+01
  -8.407948e+01   3.293279e+01
  -1.761910e+02  -3.117837e+01
  -1.132001e+02  -1.171143e+02
  -5.187086e-01  -8.232561e+01
   1.361817e+02  -4.345095e+01
   1.564043e+02   5.304575e+00
   5.574260e+01   9.449173e+01
  -5.966991e+01   8.224230e+01
  -8.766093e+01  -3.768796e+01
  -4.490625e+01  -8.439880e+01
   2.438151e+00  -5.987714e+01
   5.354785e+01  -2.836125e+01
   5.406009e+01   7.206029e+01
   3.837652e+01   2.384369e+01
   3.646803e+01  -2.171962e+01
   6.738111e+01  -1.675623e+01
   8.350709e+01   2.479639e+01
  -4.931671e+01   1.022867e+02
  -1.155124e+02   1.134399e+02
  -1.973087e+02   4.934380e+01
  -7.533158e+01  -8.068929e+01
   5.277384e+00  -1.479584e+02
   1.338142e+02  -6.332647e+01
   7.225942e+01   1.649901e+01
  -6.323018e+01  -5.396210e+00
  -1.405053e+02  -4.759199e+01
  -5.252069e+01  -4.011413e+01
   4.787447e+01  -1.393280e+02
   1.861518e+02  -1.229098e+01
   1.519960e+02   7.210487e+01
   4.222766e+01   1.252707e+02
  -7.934794e+01   4.689419e+01
  -8.111624e+01  -3.418613e+01
   2.609380e+01  -4.485712e+01
   8.195162e+01   1.947104e+01
  -2.531253e+00   1.126745e+02
  -5.671831e+01   1.921498e+02
  -1.255524e+02   5.777813e+01
  -1.487006e+02  -1.148594e+02
  -1.195628e+01  -2.143818e+02
   5.233991e+01  -1.338661e+02
   8.227911e+01  -1.776678e+01
   4.906644e+01   1.394473e+02
  -1.458659e+01   9.725787e+01
  -1.863862e+01   3.793167e+01
  -6.736092e+01  -3.116876e+01
  -3.514035e+01  -1.181321e+01
  -2.599789e+01  -1.251033e+01
  -1.648739e+01  -3.916073e+01
  -5.581894e+01  -9.533334e+01
  -2.285467e+01  -1.034990e+02
   5.107497e+01  -3.905252e+01
   1.084920e+02   6.253652e+01
   1.061175e+02   1.447152e+02
  -1.358583e+01   3.811862e+01
  -5.670696e+01   2.453339e+01
  -8.670612e+01  -2.851613e+01
  -1.543683e+01  -2.300842e+01
   5.835279e+01  -6.605286e+01
   6.820693e+01   1.560886e+01
  -1.857284e+01   1.132504e+01
  -2.125392e+01  -1.988298e+00
   5.128895e+01   7.546191e+00
   6.169415e+01   3.743219e+01
   4.039709e+01   4.797692e+01
  -1.055846e+02   7.470766e+01
  -1.927292e+02   3.684402e+01
  -1.538193e+02  -4.835023e+01
  -6.134036e+01  -1.835509e+02
   8.202500e+01  -1.399576e+02
   1.793352e+02  -7.387159e+01
   6.693199e+01   2.705053e+01
   1.571752e+01   4.453483e+01
  -2.296735e+01  -2.390114e+01
  -4.010967e+01  -3.209038e+01
   1.252712e+01   3.120512e+01
   2.962114e+01   8.295048e+01
   5.035753e-01   6.218484e+01
  -5.586194e+01  -2.950934e+01
  -6.690187e+01  -8.556460e+01
  -3.919173e+01  -1.612096e+02
   1.061408e+02  -7.827449e+00
   1.068521e+02   5.805487e+01
   2.091093e+01   1.173358e+02
  -1.259682e+02   4.905516e+01
  -1.052201e+02  -8.965834e+00
  -7.037176e+01  -7.471963e+01
   5.246683e+01  -8.967639e+01
   9.792223e+01  -2.693945e+01
  -1.439607e+01  -1.561991e+01
  -9.738930e+01   1.437271e+01
  -1.997052e+01  -1.706124e+01
   7.563929e+01  -4.910709e+01
   1.198389e+02  -1.040385e+01
   7.894654e+01  -5.274544e+00
  -4.754868e+01   7.977323e+01
  -7.863323e+01   7.798707e+01
  -5.327790e+01   2.535229e+01
  -2.249767e+01  -3.851183e+01
   3.497090e+01  -5.986917e+01
   7.538922e+01  -6.402394e+00
   2.017842e+01   5.435839e+01
  -1.670473e+01   1.035021e+02
  -3.428301e+01   2.668881e+00
  -4.878436e+01  -1.038433e+01
  -5.865804e+01  -4.876565e+01
  -6.824869e+00   9.513202e+00
  -3.460238e+01   7.886696e+00
  -7.250797e+00  -3.547934e+01
  -2.170926e+00  -4.360918e+01
   2.780091e+01  -6.951363e+01
   5.526827e+01   3.537331e+01
   2.722434e+01   6.398124e+01
  -3.253945e+01   3.070954e+01
  -5.921403e+01  -1.011740e+01
  -5.633366e+01  -9.363148e+01
   5.315063e+01  -4.595949e+01
   1.110042e+02  -2.939342e+01
   5.850360e+01   1.925420e+01
  -3.236845e+01   2.810819e+01
  -4.739283e+01   2.799218e+01
  -7.189794e+01  -1.133471e+01
   3.712157e+01   3.697116e+00
   4.472653e+01   3.339740e+00
  -1.420054e+01  -4.090350e-01
  -6.273915e+01   1.323041e+00
