
 $NMID
 id='ANONYMOUS ', fmtdat='(2E16.6)'
 volume=1.0
 tramp=1.0
 $END
  -2.299637e+03  -1.191003e+02
  -1.710053e+03  -1.234927e+03
  -2.548305e+02  -1.409746e+03
   6.768006e+02  -1.205034e+03
   6.179644e+02  -5.766150e+02
   1.626434e+02   2.767768e+01
  -1.778064e+02  -5.719760e+00
   8.924064e+01  -4.110481e+02
   4.313045e+02  -5.088229e+02
   5.077738e+02  -2.073984e+02
   3.765785e+02   3.644647e+02
   3.462855e+01   5.568808e+02
  -3.732675e+02   2.134671e+02
  -2.475562e+02  -3.307781e+02
   6.300801e+01  -4.226180e+02
   3.022690e+02  -9.297468e+01
   1.817572e+02   3.622415e+02
  -3.037973e+01   5.926907e+02
  -3.382494e+02   3.171101e+02
  -4.699865e+02  -3.736651e+02
   1.512041e+01  -3.737795e+02
   1.723365e+01  -2.354160e+02
  -3.392828e+01  -1.274240e+02
  -2.823672e+02  -2.968554e+02
  -2.562284e+02  -1.101935e+02
   4.704081e+01  -3.390863e+02
   4.349846e+02  -3.472473e+01
   4.002367e+02   2.222723e+02
   1.179003e+02   2.175976e+02
  -2.594809e+02   2.042217e+02
  -3.903878e+02  -6.014582e+01
  -4.912058e+01  -3.779125e+02
   3.091761e+02  -2.182587e+02
   3.955940e+02  -1.097059e+02
   3.126948e+02   7.568523e+01
   6.260317e+01   2.871383e+02
  -3.142636e+01   8.637890e+01
   3.162850e+01  -1.781684e+02
   9.851093e+01  -5.690707e+01
   8.712788e+01   1.304330e+02
  -3.045080e+01   4.660944e+02
  -1.635050e+02   3.821252e+02
  -2.362349e+02  -6.712006e+00
  -7.304689e+01  -2.443394e+02
   8.091096e+01  -7.197701e+01
   6.873102e+01   1.945146e+02
  -1.198526e+02   2.868060e+02
  -3.837797e+02   6.213953e+01
  -3.818478e+02  -3.363407e+02
  -9.440214e+01  -4.611114e+02
   2.485748e+02  -2.861535e+02
   4.184182e+02   4.038037e+01
   2.755105e+02   2.106859e+02
  -3.016973e-01   2.073010e+02
  -1.564427e+02   8.820791e+01
  -1.355547e+02   1.750867e+01
  -6.601886e+01   2.526766e+00
   1.484187e+01   2.592807e+01
  -9.041415e+01   2.902755e+01
  -1.841761e+02  -9.912842e+01
  -1.035188e+02  -1.747731e+02
   1.119759e+02  -2.045318e+02
   3.171240e+02  -1.195196e+02
   2.529372e+02   7.913573e+01
  -2.520736e+01   3.399194e+02
  -2.720626e+02   2.660648e+02
  -3.104903e+02   1.153424e+02
  -1.939567e+02  -1.914481e+02
   1.757681e+01  -3.176683e+02
   3.444755e+01  -2.440594e+02
   3.926498e+01  -1.436627e+02
  -7.044668e+00  -6.226600e+01
   1.571384e+02  -8.612540e+01
   1.391123e+02  -4.405223e+01
   2.109291e+02   7.925245e+01
   2.062613e+01   2.144501e+02
  -8.130641e+01   1.194051e+02
  -1.580983e+02  -8.968977e+01
  -7.712997e+01  -2.442732e+02
   5.656410e+01  -1.771621e+02
   2.570157e+02  -2.574381e+01
   2.612696e+02   1.890927e+02
   8.717102e+01   1.892886e+02
  -6.137104e+01   2.017954e+02
  -1.405385e+02   1.049568e+02
  -1.642745e+02   8.316513e+01
  -1.695457e+02   2.138564e+01
  -2.758091e+02   1.738439e+01
  -3.071606e+02  -1.246698e+02
  -2.361828e+02  -2.643496e+02
   5.028415e+01  -3.871159e+02
   3.649347e+02  -3.592521e+02
   4.411792e+02  -1.366389e+02
   2.741793e+02   1.060136e+02
   4.078315e+01   2.264999e+02
  -1.019345e+02   1.081187e+02
  -2.049426e+01   1.478953e+01
   1.056055e+02   2.314967e+00
   1.071821e+02   8.372740e+01
   2.842765e+00   1.615929e+02
  -5.579100e+01   2.740358e+01
  -6.274482e+01  -5.342050e+01
   9.084581e+01  -1.333034e+02
   1.310603e+02   6.073394e+01
   1.441946e+02   2.609395e+02
  -5.350593e+01   3.225822e+02
  -2.010625e+02   1.623890e+02
  -3.230389e+02  -4.258755e+01
  -2.339231e+02  -2.301730e+02
   1.539533e+01  -1.947305e+02
   1.197745e+02  -1.345129e+02
   1.454017e+02   2.108294e+00
  -6.511426e+00   1.461525e+01
  -8.342781e+01  -2.603561e+01
  -2.346151e+00  -1.095863e+02
   1.067698e+02  -1.154169e+02
   1.264183e+02   5.500949e+00
   4.581454e+01  -1.467966e+01
  -7.273925e+01   3.722694e+01
  -5.215870e+01  -8.306855e+01
   1.348710e+02  -6.984569e+01
   2.795143e+02   1.603661e+01
   2.243462e+02   2.029396e+02
   2.865881e+00   2.667922e+02
  -1.461081e+02   2.231506e+02
  -2.719151e+02   8.865491e+00
  -1.474022e+02  -3.708765e+01
  -1.020488e+01  -3.483339e+01
   1.552640e+01   3.338118e+01
  -5.889357e+01   3.518381e+01
  -1.033343e+02   6.083351e+00
  -1.361311e+02  -7.836153e+01
   1.950899e+01  -1.431440e+02
   6.559281e+01  -1.041271e+02
   1.189347e+02   1.703627e+01
  -1.226265e+01  -1.077942e+01
  -9.742903e+01  -4.220084e+01
  -1.110442e+01  -1.186745e+02
   6.256191e+01  -1.042576e+02
   2.264084e+02   1.255597e+01
   1.815883e+02   1.142402e+02
  -9.825621e+00   1.150206e+02
  -1.294569e+02   1.651156e+02
  -1.096346e+02   3.158979e+01
  -3.292857e+01  -5.963559e+01
   3.232843e+01  -5.480422e+01
   6.181542e+01  -3.911308e+01
  -1.985777e+01   7.712797e+00
   7.529944e+00   1.161627e+01
  -6.255763e+01  -2.815464e+01
   5.640006e+01  -3.475719e+01
   7.006160e+01   6.543929e+01
   3.622821e+01   1.569357e+02
  -1.423122e+02   1.469176e+02
  -2.070489e+02  -8.354635e+00
  -1.427588e+02  -1.640990e+02
   1.939672e+01  -2.035925e+02
   1.326473e+02  -1.398692e+02
   1.243929e+02  -4.923570e+01
   5.533448e+01   9.809895e+01
   5.496068e+01   2.280012e+01
   4.935565e+01   4.471695e+01
   1.081360e+02  -6.329148e+00
   8.195840e+01   1.155067e+02
  -5.811862e+01   1.337379e+02
  -1.574514e+02   1.071394e+02
  -1.148756e+02  -4.657974e+00
   2.875476e+01  -1.253367e+02
   1.747285e+02  -7.143135e+01
   1.554896e+02   8.088582e+01
   9.067002e+01   1.770008e+02
  -8.703629e+01   1.351924e+02
  -2.094596e+02   6.269711e+01
  -2.228337e+02  -9.745337e+01
  -5.204838e+01  -1.290882e+02
   9.983776e+00  -1.108285e+02
   9.091164e+01  -1.152623e+02
   5.313124e+01  -9.955709e+01
   3.107645e+01  -9.193415e+01
   1.226351e+02  -4.039382e+01
   1.412904e+02   4.084779e+01
   6.768910e+01   2.152821e+02
   4.166418e+01   2.424506e+02
  -1.612474e+02   1.578911e+02
  -2.062298e+02   8.116863e+00
  -1.211544e+02  -1.091271e+02
   2.146705e+01  -1.195300e+02
   1.429840e+02  -5.876912e+01
   3.754817e+01   1.952441e+00
  -1.075988e+01   4.408069e+01
  -5.060575e+01  -1.059955e+01
  -2.045763e+01  -7.682762e+00
   5.600735e+01  -4.406867e+00
   7.014353e+01   5.187246e+01
  -4.215940e+01   5.645991e+01
  -1.554582e+02  -5.579459e+01
  -1.219046e+02  -6.511644e+01
  -1.384300e+01  -1.249227e+02
   1.301935e+02  -7.531270e+01
   1.349403e+02  -3.255699e+00
   8.706752e+00   6.863010e+01
  -5.653909e+01  -4.798689e+00
  -9.582727e+01  -4.483958e+01
  -5.107395e+00  -9.911427e+01
   5.064315e+01  -2.007007e+01
   8.425220e+01   7.910628e+00
   5.215278e+01   5.199594e+01
   1.173830e+00   5.475869e+01
   5.947953e+00   2.766280e+01
   3.278761e+01  -1.647477e+00
   8.275431e+01   6.839578e-01
   1.357648e+01   8.812290e+01
  -7.696954e+01   5.162843e+01
  -1.622010e+02  -1.483993e+01
  -1.106401e+02  -9.847083e+01
   2.046596e+01  -1.098628e+02
   1.277682e+02  -5.977017e+01
   5.255772e+01   3.117953e+01
  -6.747521e+01   3.862346e+01
  -9.270673e+01  -3.019266e-01
  -5.238348e+01  -6.358337e+01
   8.675518e+01  -7.172194e+01
   1.888162e+02  -8.372190e+01
   1.430365e+02   4.682333e+01
   3.075740e+01   7.071271e+01
  -7.334798e+01   9.063363e+01
  -5.111217e+01   6.437678e+00
   6.886587e+01  -1.791913e+01
   1.077817e+02  -1.690707e+00
  -1.211703e+01   1.076935e+02
  -8.569652e+01   1.287908e+02
  -1.792446e+02   5.648609e+01
  -9.219209e+01  -1.082773e+02
   7.243053e+00  -2.042482e+02
   6.843098e+01  -1.413757e+02
   9.081789e+01   2.659828e+00
   4.976486e+01   7.070744e+01
   1.758791e+01   6.454614e+01
  -7.985618e+01  -2.116135e+01
  -4.523875e+01   1.621603e+01
  -8.894582e+01   6.192751e-01
  -2.568168e+01   3.393995e+01
  -3.957018e+01  -1.150447e+01
  -8.099148e+01  -4.252610e+01
   1.567036e+01  -6.724690e+01
   7.957439e+01  -2.705061e+01
   1.695632e+02   2.028658e+01
   5.678522e+01   1.177520e+02
  -2.775549e+01   7.221315e+01
  -9.947870e+01   4.082701e+01
  -7.345804e+01  -2.689571e+01
  -4.241971e+01   3.141769e+00
   1.739107e+01  -3.386204e+01
   3.017165e+00  -3.183334e+01
  -1.889874e+01  -2.880897e+01
  -4.395929e+01  -4.724188e+01
   4.420332e+01  -5.300606e+01
   8.555859e+01  -1.275047e-01
   1.547905e+01   1.008048e+02
  -6.690939e+01   1.333613e+02
  -1.763262e+02   8.740928e+01
  -1.439186e+02  -5.829857e+01
  -3.379860e+01  -1.067660e+02
   5.784648e+01  -1.486948e+02
   8.284194e+01  -5.509303e+01
   3.717463e+01  -1.229236e+00
   2.599378e+00   6.838843e+01
  -1.988430e+01  -3.995574e+01
  -3.993665e+00   4.629329e+01
   4.783801e+01   3.526708e+00
   2.375896e+01   8.253737e+01
  -3.880227e+01   3.003660e+01
  -7.168799e+01  -6.294046e+01
  -8.803020e+01  -8.773445e+01
   3.235857e+00  -9.389609e+01
   9.518162e+01   1.329828e+01
   1.187587e+02   2.527920e+01
   3.142756e+01   7.233795e+01
  -8.101590e+01   6.090482e+01
  -1.042724e+02  -4.214941e+01
  -5.423006e+01  -6.907007e+01
   3.547541e+01  -4.645044e+01
   2.580574e+01  -1.160648e+00
   2.571302e+01   3.893241e+01
  -1.271358e+01  -3.481814e+00
  -2.335793e+01  -7.496879e+01
   7.071669e+01  -4.256408e+01
   1.355211e+02  -4.376615e+01
   5.145461e+01   1.132548e+01
  -1.114078e+01   6.541424e+01
  -7.295918e+01   7.019422e+01
  -5.339263e+01  -4.623694e+00
   3.455656e+01  -5.143004e+01
   4.627871e+01  -1.073472e+01
   5.028995e+01   2.550472e+01
   3.012557e+01   8.352439e+01
  -6.677684e+01   6.866979e+01
  -7.433133e+01  -1.713517e+01
  -3.082984e+01   5.122968e+00
  -5.801183e+00  -1.752992e+01
   2.739330e+01   1.247571e+01
   2.415211e+01   3.884247e+01
  -2.871570e+01  -1.696219e+00
  -5.194864e+00  -1.619801e+01
   1.169968e+01  -2.882346e+01
   4.522612e+01   3.133651e+01
   7.497257e+01   4.107099e+01
  -8.509938e+00   3.504609e+01
  -2.734867e+01  -7.444843e+00
  -4.164648e+01  -3.872264e+01
   1.966478e+01  -4.607506e+01
   7.402592e+01   2.807284e-01
   5.471352e+01   1.029301e+01
  -2.748057e+01   8.297576e+01
  -6.958330e+00   1.313385e+01
  -4.707010e+01  -8.732855e+00
   1.405514e+01   1.337644e+01
   1.625738e+01  -7.124056e+00
  -1.049329e+01  -7.360264e+00
  -7.147735e+01   3.093787e+01
