
 $NMID
 id='ANONYMOUS ', fmtdat='(2E16.6)'
 volume=1.0
 tramp=1.0
 $END
   4.181666e+03   2.470046e+02
   2.584779e+03   2.393983e+03
  -2.828545e+02   2.474859e+03
  -1.666307e+03   1.363442e+03
  -9.669870e+02  -1.612828e+02
   3.407626e+02  -4.551218e+02
   5.389640e+02   2.706103e+02
  -1.329803e+00   8.932953e+02
  -5.864169e+02   8.279243e+02
  -8.807022e+02  -1.950419e+01
  -4.491378e+02  -7.556829e+02
   8.762831e+01  -8.292021e+02
   6.598979e+02  -2.217742e+02
   2.333435e+02   7.916649e+02
  -2.342397e+02   7.637425e+02
  -5.372862e+02   2.422257e+01
  -3.073574e+02  -5.086697e+02
   2.731719e+01  -6.778943e+02
   6.141763e+02  -1.520717e+02
   4.605457e+02   3.698756e+02
  -9.078063e+01   4.881579e+02
  -3.368548e+02   2.779622e+02
  -1.371715e+02   1.420988e+02
   7.088410e+01   1.569257e+02
   4.465314e+02   2.694916e+02
   1.152704e+02   3.813530e+02
  -5.072076e+02   2.965877e+02
  -7.652112e+02  -1.375473e+02
  -3.516787e+02  -5.986343e+02
   3.608966e+02  -4.508584e+02
   6.295921e+02   2.696718e+01
   2.049564e+02   5.333525e+02
  -3.282176e+02   5.225060e+02
  -5.146945e+02   2.634296e+02
  -4.041321e+02  -2.159656e+02
  -4.622888e+01  -3.604697e+02
   1.851223e+02  -2.362283e+02
   7.357253e+01   2.294635e+02
  -2.221455e+02   3.520545e+02
  -3.963506e+02  -1.593372e+02
  -1.970439e+02  -7.102056e+02
   4.045377e+02  -6.218476e+02
   6.048521e+02   1.919186e+01
   2.376082e+02   4.794304e+02
  -2.263132e+02   2.599030e+02
  -3.652274e+02  -3.391700e+02
   2.195442e+01  -4.777805e+02
   5.448605e+02  -1.297932e+02
   6.321810e+02   3.971034e+02
   2.027053e+02   5.546779e+02
  -3.979599e+02   3.219325e+02
  -6.176757e+02  -8.814105e+01
  -3.576587e+02  -3.352373e+02
   1.513836e+02  -3.717466e+02
   4.156164e+02  -7.105985e+01
   2.620525e+02   1.135138e+02
  -5.997956e+01   1.362723e+02
  -1.010509e+02  -4.296736e+01
   1.248546e+02  -1.704929e+02
   3.324354e+02   2.879803e+01
   1.982021e+02   2.817569e+02
  -1.294994e+02   3.020846e+02
  -3.563203e+02   1.437651e+02
  -2.808697e+02  -7.126874e+01
  -3.916365e+01  -2.635169e+02
   2.550649e+02  -3.165280e+02
   4.167170e+02  -2.028376e+02
   2.494450e+02   1.192231e+02
   4.637558e+01   3.628308e+02
  -8.238547e+01   3.730520e+02
  -5.892434e+01   1.270539e+02
  -1.117902e+01   5.786535e+01
  -5.611620e+01   1.071404e+02
  -2.184017e+02   1.451114e+02
  -2.712196e+02  -7.650843e+01
  -1.076440e+02  -2.435525e+02
   9.851152e+01  -2.114639e+02
   2.256735e+02   2.251931e+01
   1.238522e+02   2.600984e+02
  -6.238989e+01   2.671642e+02
  -3.105282e+02   1.182236e+02
  -3.782787e+02  -1.573537e+02
  -1.674663e+02  -3.318718e+02
   1.512110e+01  -3.327511e+02
   1.572077e+02  -1.524263e+02
   1.306419e+02  -5.415992e+01
   1.790625e+02  -1.190610e+01
   2.760484e+02  -3.497007e+01
   4.195579e+02   8.904547e+01
   3.119971e+02   2.507873e+02
   4.112603e+00   4.162313e+02
  -3.963679e+02   4.175696e+02
  -4.790606e+02   1.934765e+02
  -3.403484e+02  -1.404267e+01
  -4.279405e+01  -2.917963e+02
   9.954487e+01  -2.739305e+02
   7.444071e+01  -8.496078e+01
  -1.015750e+02   1.034605e+02
  -2.135345e+02  -1.298618e+00
  -1.675560e+01  -1.641469e+02
   1.204439e+02  -1.131872e+02
   1.381880e+02   6.075944e+01
  -1.695028e+01   1.293515e+02
  -1.635385e+02   2.977408e+01
  -1.855336e+02  -2.609433e+02
   1.257885e+01  -3.866177e+02
   2.225493e+02  -2.316637e+02
   3.830903e+02   3.885812e+01
   3.558173e+02   2.555569e+02
   1.127657e+02   2.494079e+02
  -1.253787e+02   2.018561e+02
  -2.143125e+02   1.152612e+01
  -9.378057e+01  -8.001928e+01
   6.025213e+01   2.617230e+01
   1.881180e+01   1.398849e+02
  -1.512794e+02   1.101177e+02
  -1.845725e+02  -2.889792e+01
  -8.180820e+01  -6.333894e+01
   9.417618e+01  -4.157989e+01
   3.922770e+01   5.000051e+01
  -1.303076e+02   5.926488e+01
  -2.803184e+02   9.285481e+00
  -2.454561e+02  -5.695679e+01
  -4.276201e+00  -2.172795e+02
   1.692863e+02  -2.483791e+02
   2.455695e+02  -1.070188e+02
   1.539485e+02   6.465303e+01
  -3.489556e+01   1.228776e+02
  -1.189299e+02   2.079947e+00
   2.126260e+01  -1.148129e+02
   2.114381e+02  -2.272616e+01
   2.424225e+02   1.230426e+02
   3.453531e+01   2.593346e+02
  -9.923458e+01   1.469295e+02
  -1.064853e+02   6.001331e+01
  -9.682116e+01  -2.279986e+01
   2.266498e+01   5.249761e+01
  -1.472570e+01   1.377317e+02
  -1.330947e+02   4.681827e+01
  -2.103156e+02  -3.066426e+01
  -1.710251e+02  -1.470217e+02
  -4.753226e+00  -2.579754e+02
   1.661778e+02  -1.958912e+02
   1.930652e+02  -2.136319e+01
   9.840113e+01   1.289508e+02
  -6.531707e+01   1.234699e+02
  -5.626499e+01  -3.256050e+00
  -5.178773e+01  -2.668676e+01
  -2.359002e+01  -2.290650e+01
  -2.384319e+01  -2.605791e+01
  -1.105733e+02  -2.946431e+01
  -8.211669e+01  -1.245616e+02
   2.276391e+01  -1.662341e+02
   1.423095e+02  -1.433038e+02
   2.286153e+02  -4.919766e+01
   1.773880e+02   1.543849e+02
   4.399916e+01   2.228578e+02
  -9.238050e+01   1.566087e+02
  -1.072023e+02  -4.171173e+01
  -7.612007e+01  -8.326342e+01
   2.684587e+01  -3.753335e+01
   2.083089e+01   4.117810e+01
  -4.444171e+01   6.025668e-01
  -3.367845e+01  -7.594471e+00
   1.417031e+01  -1.105138e+02
   1.689737e+02  -1.578819e+01
   1.079232e+02   8.036530e+01
  -7.365985e+00   1.205217e+02
  -1.886241e+02   6.987081e+01
  -2.170504e+02  -6.267617e+01
  -1.172600e+02  -1.801527e+02
   1.357678e+02  -2.532005e+02
   2.649295e+02  -1.188625e+02
   2.684286e+02   5.400115e+01
   9.482488e+01   1.725480e+02
  -5.800243e+01   1.545178e+02
  -1.087314e+02   1.213677e+02
  -6.836816e+01   8.566339e+01
  -5.038566e+01   1.566570e+02
  -1.093854e+02   7.918121e+01
  -1.284661e+02  -4.511301e+00
  -1.600384e+02  -1.080658e+02
  -7.731246e+01  -2.048859e+02
   8.424398e+01  -2.014048e+02
   1.277950e+02  -4.978456e+01
   1.456654e+02   1.034613e+02
   1.129074e+01   2.088049e+02
  -1.051330e+02   1.121651e+02
  -1.172968e+02  -1.036097e+01
  -3.069469e+01  -3.660034e+01
   1.979807e+01  -4.733239e+01
  -5.171511e-02  -2.351787e+01
  -1.160160e+02  -2.019139e+01
  -4.050339e+01  -3.625337e+01
   8.996232e+01  -3.783645e+01
   1.770615e+02   1.391432e+01
   1.424303e+02   2.220973e+01
   4.590394e+00   2.459674e+01
  -7.143535e+01   9.215940e+01
  -1.283736e+02  -1.018732e+01
  -7.676707e+01   4.970487e+00
   6.385685e+01  -1.820690e+00
   5.832736e+01   7.816930e+01
  -2.614541e+00   6.136567e+01
  -7.988777e+01   4.252534e+01
  -8.172997e+01  -1.046516e+01
  -2.746787e+01  -9.157182e+01
  -7.104551e+01  -4.957616e+01
  -1.053388e+01   9.644550e+00
  -7.699462e+01   1.211377e+01
  -4.089652e+01  -8.466451e+01
   4.403671e+01  -1.439649e+02
   1.257921e+02  -1.342389e+02
   1.479610e+02  -2.019206e+00
   7.053727e+01   3.204077e+01
   2.008563e+01   1.457427e+02
  -1.053627e+02   4.509523e+01
  -1.003760e+02   4.700835e+00
   5.325207e+01  -1.116122e+01
   1.659516e+02   3.059419e+01
   9.840878e+01   1.107414e+02
  -8.194484e+01   1.006461e+02
  -1.909414e+02   3.806981e+00
  -1.417423e+02  -3.553542e+00
  -3.851008e+01  -6.310089e+01
   5.239459e+01  -3.561558e+01
   4.350343e+01  -1.858330e+01
   2.426525e+01   2.465914e+01
  -5.904170e+01  -4.070407e-01
  -6.143553e+01  -1.175112e+02
   7.537307e+01  -1.425986e+02
   1.426348e+02  -7.872306e+01
   1.822495e+02   1.115858e+02
   2.438881e+01   1.614125e+02
  -4.974370e+01   1.270148e+02
  -1.217939e+02   1.888416e+01
  -5.885542e+01  -1.411810e+02
   2.504074e+01  -1.164648e+02
   1.922762e+01  -1.458727e+01
   4.325226e+01   1.975869e+01
   1.448718e+01   3.525915e+01
   1.437264e+01  -3.068074e+01
   1.598141e+01   1.844543e+01
   3.588994e+01   1.194841e+02
   4.499244e+01   1.130004e+02
  -4.896159e+01   7.906607e+01
  -1.504902e+02  -5.642179e+01
  -1.272699e+02  -5.123196e+01
   7.237811e+00  -3.140485e+01
   8.840111e+01  -4.790508e+01
   5.005509e+01  -3.286544e+01
   3.376108e+01   8.080687e+00
  -4.263785e+01   4.177487e+01
  -7.385330e+01  -9.779119e+00
  -1.372662e+01  -1.615407e+01
   9.343628e+00  -2.213170e+01
  -7.741807e+01   2.127082e+00
  -6.896910e+01   8.901850e+00
  -6.899086e+00  -7.551214e+01
   9.399745e+01  -1.012374e+02
   1.999018e+02  -4.427612e+01
   1.347127e+02   8.254332e+01
  -7.658423e+00   1.491587e+02
  -1.068581e+02   1.374164e+02
  -1.233917e+02   4.333654e+01
  -8.781099e+01  -5.304064e+01
  -5.048155e+01  -5.783631e+01
   1.401120e+01  -3.858204e+01
   2.911726e+00  -3.741840e+01
  -1.321761e+01  -4.140123e+01
  -5.214123e+00  -1.129593e+02
   9.615998e+01  -6.868021e+01
   6.661903e+01   4.467608e+01
   7.788861e+01   1.508583e+02
   7.705576e+00   1.201817e+02
  -1.097536e+02   2.984957e+01
  -1.382695e+02  -3.533048e+01
  -3.854769e+01  -7.834366e+01
   4.400098e+01  -6.444216e+01
   1.172837e+02  -3.551184e+01
   7.854365e+01   8.873663e+01
  -3.603077e+01   6.441565e+01
  -6.394697e+01   3.206204e+01
   1.988599e+01   6.132582e+00
   5.158083e+01  -2.876836e+01
   2.503262e+01   2.644131e+01
  -4.877344e+01   4.199795e+01
  -1.338899e+02   3.355753e+01
  -6.100056e+01   1.852055e+01
   4.785565e+01  -8.739863e+01
   4.279255e+01  -8.795469e+01
   4.749121e+01   7.063562e+00
   1.371628e+00   1.000571e+02
  -1.229761e+01   9.407064e+01
  -2.111775e+00   3.622735e+01
  -1.730465e+01  -3.484505e+01
  -2.874465e+01  -5.572503e+01
   1.823786e+01   2.480165e+01
   5.572234e+01  -1.897599e+00
  -4.709067e+01   2.330734e+01
  -5.757710e+00  -3.739859e+01
  -6.142090e+01  -5.307436e+01
  -6.716400e+00   2.176267e+00
  -2.043846e+00   5.201367e+01
  -1.770678e-01  -4.713472e+01
  -3.713697e+01  -6.230370e+01
   2.617610e-01  -5.437766e+01
   5.326995e+01  -7.826322e+00
   7.411149e+01   4.988078e+01
   4.642824e+00   1.068196e+02
  -4.713301e+01   2.720942e+01
  -1.151881e+02  -3.713315e+01
  -4.746695e+01  -6.809405e+01
   5.262096e+01  -8.572176e+01
   7.758660e+01  -6.019399e+00
   4.769434e+00   3.121251e+00
  -4.307238e+01   2.792154e+01
  -9.503538e+01  -8.872361e+00
   4.828991e+01  -1.112985e+01
   1.215693e+02  -4.786331e+01
