
 $NMID
 id='ANONYMOUS ', fmtdat='(2E16.6)'
 volume=1.0
 tramp=1.0
 $END
   3.680418e+03   1.030886e+02
   2.108021e+03   2.152479e+03
  -3.002740e+01   2.369526e+03
  -1.393427e+03   1.256753e+03
  -9.895488e+02   1.074338e+02
   9.490356e+01  -1.754409e+02
   4.339352e+02   3.241102e+02
  -4.060856e+01   7.326902e+02
  -5.495732e+02   6.427870e+02
  -8.518494e+02   2.854324e+01
  -5.751117e+02  -6.148847e+02
   2.973442e+02  -7.754269e+02
   4.284337e+02  -2.943847e+02
   3.450849e+02   6.208701e+02
  -2.042510e+02   6.500733e+02
  -4.117950e+02   1.399488e+02
  -2.439970e+02  -5.818288e+02
  -1.436737e-01  -7.101535e+02
   7.674380e+02  -2.141048e+02
   6.335386e+02   4.723460e+02
   1.001771e+02   5.226767e+02
   7.577307e+01   3.655021e+02
  -1.794920e+02   8.588004e+01
   2.368960e+02  -3.089684e+01
   3.164023e+02   1.697028e+02
   2.317207e+02   4.500024e+02
  -4.329825e+02   3.783427e+02
  -6.695202e+02  -1.715347e+02
  -2.585530e+02  -4.553631e+02
   3.413459e+02  -2.231357e+02
   5.699488e+02   1.505304e+02
   1.538413e+02   4.247325e+02
  -2.950779e+02   3.403911e+02
  -4.925744e+02   1.184040e+02
  -3.929963e+02  -1.884623e+02
  -5.585063e+01  -3.337719e+02
   6.730580e+01  -2.013933e+02
  -1.326131e+01   7.216041e+01
  -6.057615e+01   2.526665e+02
  -2.450195e+02  -6.088368e+01
   4.275085e+00  -5.304008e+02
   2.341101e+02  -5.229493e+02
   4.158198e+02  -4.689646e+01
   9.116966e+01   3.558922e+02
  -1.569520e+02   1.847111e+02
  -1.900276e+02  -2.451692e+02
   7.230891e+01  -4.231749e+02
   4.055553e+02  -5.573236e+01
   5.284122e+02   3.273503e+02
   1.680419e+02   4.984940e+02
  -3.265430e+02   2.434708e+02
  -5.632498e+02  -1.013565e+02
  -3.324886e+02  -3.239384e+02
   6.555939e+01  -2.581793e+02
   3.372732e+02  -1.648132e+01
   2.017617e+02   1.253054e+02
  -2.047857e+01   4.232593e+01
  -9.001256e+01  -1.008696e+02
   1.441657e+02  -1.033402e+02
   2.536764e+02  -2.592714e-01
   1.217808e+02   2.230905e+02
  -1.554071e+02   2.858305e+02
  -3.052729e+02   2.130942e+02
  -2.437247e+02  -8.763298e+00
   2.720389e+01  -3.246301e+02
   2.628854e+02  -3.956438e+02
   3.446656e+02  -1.827260e+02
   2.395034e+02   1.864227e+02
   9.182379e+01   3.565123e+02
  -1.026412e+02   3.277382e+02
  -3.224190e+01   1.088199e+02
   5.940884e+00   7.657372e+01
  -6.080946e+01   1.200987e+02
  -2.374452e+02   1.119820e+02
  -2.117390e+02  -7.628759e+01
  -1.697112e+02  -2.526368e+02
   6.480298e+01  -2.184342e+02
   1.971982e+02   5.166762e+01
   1.033809e+02   2.606700e+02
  -7.975202e+01   2.930730e+02
  -2.647546e+02   6.607232e+01
  -2.999040e+02  -1.995450e+02
  -1.575383e+02  -3.349460e+02
   6.944448e+01  -2.134986e+02
   1.775751e+02  -1.252906e+02
   1.305305e+02  -8.784727e+01
   1.281743e+02  -1.262470e+02
   2.760357e+02  -5.259796e+01
   3.559910e+02   1.005534e+02
   3.356022e+02   2.822728e+02
  -1.262535e+01   3.870284e+02
  -3.525621e+02   3.498384e+02
  -4.862917e+02   1.484398e+02
  -3.338089e+02  -1.190508e+02
  -3.015646e+01  -2.451549e+02
   1.408599e+02  -1.467301e+02
   4.631414e+01  -3.906626e+01
  -1.670955e+02   3.783802e+01
  -1.986817e+02  -7.875765e+01
   1.023950e+01  -1.472400e+02
   1.511591e+02  -1.310956e+02
   1.321520e+02   3.170209e+01
  -7.864223e-01   1.771334e+02
  -1.901573e+02   1.493727e+01
  -1.529607e+02  -2.553972e+02
   1.791396e+01  -3.567550e+02
   2.647356e+02  -2.531161e+02
   3.558226e+02   3.992390e+01
   3.544231e+02   3.066507e+02
   7.598518e+01   3.375952e+02
  -1.717066e+02   2.002398e+02
  -1.605722e+02  -3.796012e+00
  -7.908786e+01   1.267447e+01
   3.194934e+01   3.563176e+01
  -7.172059e+00   8.952548e+01
  -1.473147e+02   1.034172e+02
  -2.282875e+02  -5.812831e+01
  -3.737933e+01  -2.949096e+01
   7.348341e+01  -1.034119e+01
   3.734130e+01   8.749734e+01
  -1.148349e+02   5.283601e+01
  -2.964265e+02  -2.255872e+01
  -2.753598e+02  -1.737445e+02
  -3.982109e+01  -2.320086e+02
   2.181851e+02  -2.380650e+02
   2.632593e+02  -1.702174e+02
   1.344491e+02   5.563385e+01
  -1.736971e+01   8.706474e+01
  -7.751954e+01  -1.738071e+01
   5.400019e+01  -8.090286e+01
   1.957896e+02  -5.607155e+01
   1.997719e+02   9.298403e+01
   2.471430e+01   2.493987e+02
  -5.658729e+01   1.863022e+02
  -1.372052e+02   6.376709e+01
  -6.814666e+01  -5.352321e+01
  -8.852733e+00   1.017886e+01
  -1.794963e+01   1.460327e+02
  -1.030678e+02   1.064593e+02
  -1.728877e+02   4.328475e+01
  -1.931713e+02  -1.363807e+02
  -3.888852e+01  -2.475212e+02
   1.538010e+02  -1.859764e+02
   1.869956e+02  -2.772993e+01
   2.594533e+01   6.162558e+01
  -8.660932e+01   1.241810e+02
  -1.162905e+02   1.116455e+01
  -3.789593e+01  -1.416772e+01
   2.672351e+01  -4.620402e+01
   2.250390e+01  -2.435280e+00
  -5.764121e+01  -5.699237e+01
  -1.186140e+02  -8.430763e+01
   1.590789e-01  -1.512823e+02
   1.596970e+02  -1.198590e+02
   2.750483e+02  -3.426787e+00
   2.131697e+02   1.980389e+02
   9.815880e-01   2.207955e+02
  -1.834145e+02   1.456906e+02
  -1.138885e+02   3.669030e+01
  -6.056364e+01  -3.825389e+01
  -3.722687e+01  -2.247152e+01
  -8.039036e+01   4.031242e+01
  -1.066886e+02   3.003405e+00
  -6.035324e+01  -7.101119e+01
   4.652863e+01  -7.840499e+01
   1.479279e+02  -8.398152e+01
   1.329534e+02   4.162401e+01
  -3.519426e+01   9.529127e+01
  -1.843614e+02   3.509872e+01
  -2.027584e+02  -1.091599e+02
  -1.066530e+02  -2.407118e+02
   1.248591e+02  -2.582526e+02
   3.096951e+02  -9.700758e+01
   2.623203e+02   9.423353e+01
   1.004159e+02   1.851520e+02
  -2.896160e+01   1.158686e+02
  -9.254381e+01   8.857774e+01
  -6.887765e+01   2.700993e+01
  -5.212961e+01   8.563974e+01
  -1.183283e+02   7.999309e+01
  -1.246722e+02  -1.573672e+01
  -7.896655e+01  -1.301922e+02
  -2.476052e+00  -2.194659e+02
   8.440941e+01  -1.622466e+02
   1.477487e+02   1.539237e+01
   1.330051e+02   8.267402e+01
  -6.303677e+00   1.907720e+02
  -7.472068e+01   6.728827e+01
  -6.062550e+01  -3.461076e+01
  -1.139470e+01  -5.055739e+01
   5.315966e+01  -4.242696e+01
  -4.110253e+01  -1.511116e+01
  -6.232935e+01   1.148565e+01
  -4.763874e+01  -9.898105e+01
   8.239871e+01   8.767100e+00
   1.654944e+02  -1.283441e+01
   9.312647e+01   3.962613e+01
   3.959589e+01   9.298830e+01
  -1.227987e+02   3.844400e+01
  -1.039521e+02  -1.237027e+01
  -4.481743e+01  -4.722056e+01
   5.186409e+01  -4.318784e+01
   4.145522e+01   1.472146e+01
   3.568633e+01   8.411992e+01
  -7.421369e+01   3.958296e+01
  -6.859561e+01   2.162026e+01
  -3.880099e+01  -6.468037e+01
  -3.888345e+01  -4.119316e+01
  -3.006634e+01  -2.614597e+01
  -1.204477e+02   1.402117e+01
  -3.703666e+01  -1.047568e+02
   4.145820e+01  -1.701636e+02
   1.460234e+02  -1.664005e+02
   1.576188e+02  -2.759994e+01
   1.129244e+02   1.343821e+02
  -6.253609e+01   1.824063e+02
  -7.524995e+01   7.412305e+01
  -4.234549e+01  -4.056606e+01
   7.564815e+01  -2.122245e+01
   1.439870e+02   3.211154e+01
   8.881065e+01   1.323732e+02
  -9.288618e+01   1.446516e+02
  -1.733159e+02   1.025416e+01
  -1.812033e+02  -2.634412e+01
  -1.313602e+00  -1.144702e+02
   9.118647e+01  -4.506863e+01
   1.197807e+01   4.427949e+01
  -6.280397e+01   4.783747e+01
  -8.943424e+01  -3.684014e+01
  -8.888888e+00  -9.885112e+01
   6.864819e+01  -1.904413e+02
   1.384704e+02  -1.036198e+02
   1.344428e+02   7.273278e+01
   2.115160e+01   1.514727e+02
  -1.105027e+02   1.336220e+02
  -1.048844e+02  -6.587770e+01
  -4.232419e+01  -1.295343e+02
   2.116753e+01  -8.750736e+01
   4.899623e+01   2.104192e+01
   5.439060e+01   4.145432e+00
   6.049972e+01  -6.851805e+00
   1.820714e+01   1.943750e-01
  -6.703777e+00   4.993725e+01
   3.024105e+01   1.075190e+02
   5.307664e-01   1.536926e+02
  -5.225725e+01   4.671522e+01
  -9.691924e+01  -4.037867e+01
  -1.487344e+02  -7.170032e+01
  -5.898240e+01  -7.167116e+01
   5.754021e+01  -4.446177e+01
   9.929856e+01  -2.662909e+00
   5.468502e+01  -5.034433e+01
  -2.642758e+01   6.482797e+01
  -2.888190e+01   2.060544e+01
   1.760717e+01  -1.210179e+01
  -6.652875e+00  -2.086394e+01
  -6.948868e+01  -2.863229e+01
  -7.753416e+01  -4.437919e+01
   2.791514e+01  -6.634116e+01
   1.519515e+02  -1.409047e+02
   2.119833e+02  -7.594666e+01
   1.610038e+02   2.639489e+00
   6.914294e+01   1.678481e+02
  -4.214741e+01   1.403680e+02
  -1.212607e+02   7.082875e+01
  -1.123865e+02  -1.068169e+01
  -3.182199e+01  -5.695529e+01
  -1.991597e+01   9.974730e+00
   2.104972e-01  -1.994440e+01
  -1.131164e+01  -5.651569e+01
  -7.415097e+00  -1.172638e+02
   1.966886e+01  -7.105602e+01
   1.009529e+02   1.981105e+01
   8.255894e+01   1.372369e+02
   1.721463e+01   9.891414e+01
  -9.541600e+01   1.967565e+01
  -1.178350e+02  -7.956896e+01
  -7.177859e+01  -1.277900e+02
   5.557393e+01  -1.870778e+01
   8.425529e+01  -6.044131e+00
   4.269038e+01   4.612588e+01
  -1.674596e+01   3.388094e+01
  -2.098717e+01   7.578188e+00
   6.482196e+01   1.810587e+00
   5.558116e+01  -4.037255e+01
   5.441523e+01   5.689995e+01
  -1.244499e+02   3.041782e+01
  -1.516743e+02   4.914475e+01
  -5.563450e+01   9.709434e+00
   2.811091e+01  -9.728638e+01
   6.423724e+01  -1.269781e+02
   5.891005e+01  -8.574265e+00
   3.556301e+01   6.142050e+01
  -3.297374e+01   8.541476e+01
  -1.940496e+01  -5.335857e+00
  -9.414956e+00  -5.235864e+01
   4.791749e+00   2.230688e+01
   2.497492e+01   8.204286e+01
  -1.089254e+01   2.213518e+01
   1.218336e+01   2.707411e+01
  -1.752292e+01  -4.034863e+01
  -3.472999e+01  -3.450131e+01
   1.500392e+01   5.285995e+00
  -4.802500e+00   6.295759e+01
  -7.218468e+01   2.809782e+01
  -1.471480e+01  -5.577441e+01
  -3.162535e+01  -4.686169e+01
   4.031023e+01  -1.674783e+01
   3.644376e+01   4.071366e+01
   1.729676e+01   6.731114e+01
  -3.878840e+01   5.131514e+01
  -9.314982e+01  -7.938290e+00
  -6.951013e+01  -3.736793e+01
   3.482377e+01  -2.896232e+01
  -1.882527e+01  -1.260103e+01
   1.134674e+01  -6.863435e+01
  -4.954193e+01  -3.855368e+01
  -4.795200e+01  -4.491455e+00
   2.737714e+01  -6.694998e+00
   6.829254e+01  -3.906092e+01
