
 $NMID
 id='ANONYMOUS ', fmtdat='(2E16.6)'
 volume=1.0
 tramp=1.0
 $END
   3.073187e+03   2.359327e+01
   1.953142e+03   1.691207e+03
  -5.101553e+01   2.029277e+03
  -1.443122e+03   1.265410e+03
  -9.417220e+02   6.573183e+01
   7.173439e+01  -3.013509e+02
   4.548832e+02   4.994582e+01
   4.398461e+01   6.529108e+02
  -3.549474e+02   6.247194e+02
  -6.101767e+02   6.823382e+01
  -3.535509e+02  -5.241196e+02
   8.021013e+01  -7.051870e+02
   3.877828e+02  -1.455858e+02
   2.435765e+02   3.083374e+02
  -2.571296e+02   7.088829e+02
  -4.062305e+02   1.433405e+02
  -3.275487e+02  -6.747597e+02
   1.999789e+02  -7.695376e+02
   4.257959e+02  -3.323842e+02
   4.663486e+02   5.939067e+01
   1.529664e+02   2.523481e+02
  -1.941116e+01   5.115027e+01
  -8.770475e+01   7.067593e+01
   1.808324e+02   1.364198e+02
   2.965797e+02   3.918350e+02
   3.151376e+01   4.967882e+02
  -3.788265e+02   6.057274e+01
  -5.842839e+02  -3.244861e+02
  -2.325334e+02  -4.367225e+02
   4.437317e+02  -1.446432e+02
   5.605206e+02   8.827876e+01
   1.662831e+02   3.645648e+02
  -2.324077e+02   3.000218e+02
  -3.874150e+02   2.165750e+02
  -2.260285e+02  -1.115327e+02
  -6.548638e+01  -2.694349e+02
   5.764852e+01  -2.247820e+02
   3.104488e+01   2.136077e+02
  -1.874195e+02   1.934754e+02
  -2.247440e+02  -5.746971e+01
  -7.921827e+01  -5.021977e+02
   2.010873e+02  -4.621222e+02
   2.820445e+02   8.466462e+01
   6.881463e+01   3.664015e+02
  -1.457324e+02   8.233210e+01
  -2.203646e+02  -3.047035e+02
   1.181897e+02  -4.254383e+02
   4.819044e+02  -2.623112e+01
   4.952222e+02   4.020436e+02
   1.429963e+02   5.063593e+02
  -3.484424e+02   2.851313e+02
  -5.396146e+02  -8.495590e+01
  -3.214147e+02  -2.932471e+02
   4.130448e+01  -2.697738e+02
   2.783482e+02  -6.518372e+01
   2.071047e+02   3.769899e+01
  -2.932644e+01   1.556670e+01
  -7.738137e+01  -1.267597e+02
   1.105163e+02  -7.466308e+01
   2.193050e+02   8.655008e+01
   1.695477e+02   1.483914e+02
  -1.388061e+02   1.720955e+02
  -3.486218e+02   9.635597e+01
  -2.068114e+02  -8.666782e+01
   1.017329e+02  -2.986331e+02
   3.248770e+02  -3.224490e+02
   3.424221e+02  -1.699749e+02
   1.570201e+02   1.991200e+02
  -3.499408e+00   3.768621e+02
  -7.921620e+01   3.248321e+02
  -7.174467e+01   1.483943e+02
  -4.141689e+01   2.865307e+01
  -2.038041e+02   5.825289e+01
  -2.652936e+02   3.177995e+01
  -1.967008e+02  -1.622463e+02
  -6.374479e+01  -3.192849e+02
   1.193095e+02  -2.395290e+02
   2.235842e+02   2.151724e+01
   1.656179e+02   3.036394e+02
  -1.537773e+01   2.583105e+02
  -2.406963e+02   7.761603e+01
  -3.312744e+02  -1.638485e+02
  -1.601591e+02  -3.228603e+02
   6.251856e+01  -2.586728e+02
   1.451512e+02  -9.282200e+01
   1.308296e+02  -7.351279e+01
   1.526287e+02  -8.718612e+01
   3.093945e+02  -5.744447e+01
   4.645170e+02   1.049979e+02
   3.463167e+02   3.266034e+02
  -1.949061e+01   4.401901e+02
  -4.363651e+02   3.773393e+02
  -5.178856e+02   1.923178e+02
  -2.561698e+02  -9.338811e+01
  -4.382872e+01  -2.647560e+02
   1.278993e+02  -2.058579e+02
   5.254369e+01  -8.693247e+01
  -4.656649e+01   5.066055e+01
  -1.249998e+02  -6.238978e+01
  -3.836541e+01  -1.239658e+02
   1.395010e+02  -4.774477e+01
   1.525277e+02   1.262683e+02
  -8.783334e+01   1.510675e+02
  -1.906762e+02  -5.091158e+01
  -1.549704e+02  -3.027612e+02
   4.313160e+01  -3.553751e+02
   2.741687e+02  -2.157371e+02
   4.005619e+02   6.790255e+01
   2.252778e+02   2.807515e+02
  -1.276521e+01   3.078674e+02
  -1.388083e+02   1.359182e+02
  -1.331442e+02  -2.564999e+01
  -8.858591e+00  -9.095340e+01
   9.356655e+00   4.787560e+01
  -2.679692e+01   1.791426e+02
  -1.056410e+02   7.366647e+01
  -1.192300e+02  -1.102209e+02
  -1.619469e-01  -7.858509e+01
   1.244733e+02   5.481106e+01
   1.853909e+01   1.386715e+02
  -1.624365e+02   9.739053e+01
  -3.347521e+02  -1.887138e+01
  -2.751990e+02  -1.964492e+02
  -5.426207e+01  -2.860680e+02
   1.956358e+02  -2.213506e+02
   2.896897e+02  -8.655056e+01
   1.497583e+02   9.195061e+00
  -2.790047e+00   5.203828e+01
  -5.409601e+01  -1.608522e+01
   9.477144e+01  -7.500591e+01
   1.991420e+02  -2.058722e+00
   1.725894e+02   9.981503e+01
  -2.166813e+01   2.078380e+02
  -9.024640e+01   1.067437e+02
  -4.255013e+01   1.244438e+01
  -1.672953e+01  -4.310745e+01
   6.010559e+01   5.918888e+01
   3.453875e+01   1.246127e+02
  -8.645320e+01   1.211855e+02
  -1.990836e+02  -1.251917e+01
  -1.795112e+02  -1.129679e+02
   1.530220e+01  -1.541211e+02
   1.528958e+02  -1.423651e+02
   1.852166e+02  -2.531325e+01
   4.534854e+01   1.419408e+02
  -9.503899e+01   9.416418e+01
  -1.138361e+02  -5.646652e+00
   1.034155e+01   9.697558e-01
  -2.378734e+00  -1.939607e+01
  -1.865249e+01   5.511044e+01
  -1.311504e+02  -2.070005e+01
  -8.851121e+01  -1.215918e+02
  -9.691094e+00  -2.232248e+02
   1.511027e+02  -2.001420e+02
   2.045726e+02  -1.071220e+01
   2.495845e+02   1.617354e+02
   4.800584e+01   2.354176e+02
  -1.251634e+02   1.256973e+02
  -8.506990e+01   6.509354e+01
  -5.745528e+01  -4.215476e+01
  -9.813741e+00  -4.043224e+01
  -4.944973e+00  -5.894719e+00
  -1.087660e+02   2.659071e+01
  -8.374255e+01  -3.908998e+01
   7.595575e+01  -8.892273e+01
   1.548575e+02  -7.217575e+01
   8.679194e+01   6.129331e+01
  -1.099269e+01   1.027971e+02
  -1.366738e+02   1.015466e+02
  -2.151763e+02  -3.878794e+01
  -6.267026e+01  -1.828051e+02
   1.310436e+02  -1.918666e+02
   2.788562e+02  -5.711562e+01
   2.328490e+02   7.183391e+01
   5.593308e+01   1.609385e+02
  -3.054382e+01   1.140745e+02
  -9.746726e+01   8.776016e+01
  -7.498771e+01   7.684347e+01
  -6.827915e+01   1.249239e+02
  -9.710629e+01   4.401677e+01
  -1.559221e+02   1.714018e+01
  -9.570955e+01  -1.942385e+02
   3.857821e+01  -2.438926e+02
   8.744560e+01  -1.999676e+02
   1.300147e+02  -1.188175e+01
   1.255029e+02   1.758698e+02
   8.343280e+00   2.107334e+02
  -9.324045e+01   6.619778e+01
  -7.438806e+01  -4.081243e+01
   3.264183e+01  -5.570779e+01
   5.875607e+01  -4.805900e+01
  -1.818719e+01  -1.209362e+01
  -6.810473e+01  -1.434201e+01
  -6.729102e+01  -2.908716e+01
   2.939567e+01   2.525083e+01
   1.474400e+02   1.668612e+01
   1.121990e+02   7.518794e+01
  -2.391041e+01   1.059420e+02
  -1.315145e+02   6.158585e+01
  -1.441500e+02  -5.730613e+01
  -3.665650e+01  -2.881222e+01
   5.125085e+01  -5.195744e+01
   6.744105e+01   6.233727e+01
   1.936172e-01   1.287085e+02
  -3.754744e+01   6.147484e+01
  -8.223197e+01  -2.121307e+01
  -8.912144e+01  -6.178943e+01
  -5.347758e+01  -3.824852e+01
  -6.808664e+01  -2.691322e+01
  -4.143131e+01   4.027559e+00
  -6.835533e+01  -6.849758e+01
   1.341523e+01  -1.868711e+02
   1.367076e+02  -1.831772e+02
   2.359838e+02  -6.226259e+01
   1.537350e+02   6.005155e+01
  -2.403324e+01   1.784251e+02
  -1.238052e+02   4.310960e+01
  -7.131222e+01  -1.821838e+01
   4.673921e+01   1.597370e+01
   1.352160e+02   2.332772e+01
   7.253750e+01   2.641809e+01
  -9.656147e+01   9.229811e+01
  -1.979888e+02   3.184924e+01
  -1.497258e+02  -5.322102e+01
   3.421693e+01  -4.594108e+01
   4.746763e+01  -5.485872e+01
   6.394299e+01   5.398007e+01
  -3.106177e+01   1.015939e+02
  -1.119311e+02  -4.814244e+01
  -7.299745e+01  -1.140178e+02
   7.522760e+01  -1.939167e+02
   1.398139e+02  -7.599104e+01
   1.355284e+02   7.916106e+01
   2.878261e+01   1.459806e+02
  -6.674292e+01   1.431292e+02
  -7.658070e+01  -2.486485e+01
  -6.154204e+01  -1.451589e+02
  -5.904646e+00  -1.192668e+02
   1.904334e+01   1.420727e+00
   6.015296e+01   6.849672e+01
  -1.639549e+00  -7.760575e+00
  -3.344494e+00  -2.224931e+01
   1.560410e+01  -1.779761e+01
   7.505887e+01   9.670001e+01
   5.538869e+01   1.049166e+02
  -7.454634e+01   4.781091e+01
  -1.176004e+02  -1.567596e+01
  -1.052321e+02  -1.213026e+02
  -1.836602e+00  -4.851347e+01
   8.785063e+01  -3.525565e+01
   1.220658e+02  -2.335320e+01
   4.509204e+00   3.474705e+01
  -2.518699e+01   1.158989e+01
   2.833713e+01   3.530030e+01
   1.116969e+01  -2.935843e+00
   3.692863e+01  -4.331423e+01
  -6.327817e+01  -4.633827e+01
  -7.419456e+01  -2.183486e+01
  -2.054527e+01  -6.815245e+01
   1.762919e+02  -1.010039e+02
   1.440088e+02  -5.296678e+01
   1.629813e+02   6.621582e+01
   6.155017e+01   1.739141e+02
  -7.788730e+01   1.586844e+02
  -9.844008e+01   6.002831e+01
  -9.487457e+01  -1.469320e+01
  -4.785530e+01  -1.659485e+01
  -2.350693e+01  -7.499798e+00
   8.918348e+00  -1.395913e+01
  -5.151896e+01  -5.780560e+01
   1.195361e+01  -7.761174e+01
   2.607972e+01  -5.906913e+01
   8.154954e+01   2.555200e+01
   9.643590e+01   1.309195e+02
  -4.833989e+00   9.804155e+01
  -7.633476e+01   3.321459e+01
  -1.245438e+02  -5.845773e+01
  -9.348825e+00  -1.244974e+02
   5.485641e+01  -4.234566e+01
   9.680548e+01   3.073064e+01
   3.486492e+01   1.824348e+01
  -4.264098e+01   5.241741e+01
  -3.158369e+01   1.758610e+01
   6.163040e+01   1.568042e+01
   8.291512e+01  -2.347894e+01
   2.029940e+01   8.820379e+00
  -2.888236e+01   7.418644e+01
  -1.651137e+02   7.509414e+01
  -3.876559e+01   1.364709e+01
   1.439992e+01  -1.229863e+02
   1.524238e+01  -5.468083e+01
  -7.187792e+00  -2.434605e+01
  -1.807138e+01   7.371788e+01
  -7.933930e+01   2.922298e+01
  -6.257687e+01  -8.896498e+00
  -4.775434e+01  -3.187312e+01
  -2.162727e+01  -2.954923e+01
   5.307381e+01   1.710917e+01
   1.994882e+01   3.924020e+01
   2.974614e+01  -2.279636e+01
  -4.263171e+01  -2.299906e+01
   1.024935e+01  -2.578259e+01
  -5.766268e+00   2.278633e+01
   4.332648e+01   9.908161e+01
   9.761839e+00   2.952091e+01
  -2.007997e+01  -1.299128e-01
   1.252200e+01  -1.095783e+01
   6.519463e+01   2.035306e+01
   2.632113e+01   3.978481e+01
   1.941458e+01   5.644702e+01
  -8.262511e+01   4.477785e+01
  -1.017858e+02  -1.616864e+01
  -1.315980e+02  -5.959901e+01
   3.503984e+01  -8.989671e+01
   6.675170e+01  -5.530900e+01
   2.247686e+01   5.447481e+00
  -3.770902e+01  -2.571019e+01
  -4.523367e+01   5.479525e+00
   3.484071e+01  -3.430107e+01
   8.267828e+01  -7.957254e+00
