
 $NMID
 id='ANONYMOUS ', fmtdat='(2E16.6)'
 volume=1.0
 tramp=1.0
 $END
  -4.455415e+03  -8.106662e+01
  -2.568937e+03  -3.195601e+03
   1.006204e+03  -2.955210e+03
   2.539841e+03  -8.395067e+02
   9.017274e+02   8.475349e+02
  -7.896382e+02   6.552300e+02
  -1.056348e+03  -5.253922e+02
   2.416733e+02  -1.218183e+03
   9.072958e+02  -7.587793e+02
   1.120220e+03   3.689056e+01
   3.781536e+02   8.542299e+02
  -3.266720e+02   8.652291e+02
  -6.230816e+02   1.008315e+02
  -4.671708e+02  -8.351479e+02
   2.955780e+02  -4.820754e+02
   6.662032e+02   3.437792e+01
   2.627983e+02   6.831404e+02
  -2.993004e+02   5.870233e+02
  -7.915643e+02   2.482763e+02
  -4.113869e+02  -3.365210e+02
  -1.884541e+02  -3.915439e+02
   1.726452e+02  -2.950776e+02
   2.547011e+02   6.211638e+01
  -6.677474e+01  -2.943024e+01
  -3.909994e+02   5.275330e+00
  -2.886279e+02  -3.367902e+02
   5.441354e+02  -4.465835e+02
   9.930600e+02   4.877845e+01
   4.405588e+02   5.865836e+02
  -4.516120e+02   5.353024e+02
  -8.502142e+02  -8.497285e+01
  -4.486103e+02  -5.252269e+02
   2.116291e+02  -5.849378e+02
   5.709674e+02  -1.663688e+02
   4.260827e+02   3.312903e+02
   6.830457e+01   5.666495e+02
  -1.879714e+02   3.700317e+02
  -1.569516e+02  -2.600734e+02
   7.422168e+01  -5.364992e+02
   4.386510e+02  -6.780929e+01
   2.493534e+02   7.180963e+02
  -2.832036e+02   6.648961e+02
  -6.382112e+02  -3.836724e+01
  -3.099003e+02  -6.504243e+02
   3.820718e+02  -3.894620e+02
   3.998820e+02   3.021197e+02
  -3.000694e+01   6.003233e+02
  -5.607412e+02   1.410108e+02
  -5.901476e+02  -4.271321e+02
  -1.508337e+02  -6.917421e+02
   4.204808e+02  -3.456763e+02
   6.825570e+02   6.163583e+01
   3.857684e+02   3.884918e+02
  -1.230647e+02   3.877248e+02
  -4.187686e+02   4.234767e+01
  -1.807226e+02  -1.327107e+02
   1.605752e+02  -9.866399e+01
   1.566668e+02   2.356788e+02
  -1.793492e+02   1.558597e+02
  -4.352185e+02  -8.614302e+01
  -1.193683e+02  -3.243512e+02
   2.116399e+02  -2.600188e+02
   3.733731e+02  -6.110954e+01
   2.059082e+02   1.145534e+02
   1.220492e+01   2.256808e+02
  -1.450971e+02   3.031478e+02
  -3.213076e+02   2.193708e+02
  -3.113148e+02  -1.139569e+02
  -1.186069e+02  -3.716356e+02
   1.532837e+02  -3.366047e+02
   1.387583e+02  -6.484517e+01
   7.676541e+01   4.561087e+01
   2.610680e+01  -1.415416e+02
   1.844329e+02  -9.175547e+01
   2.578677e+02   7.022211e+01
   1.520759e+02   3.280627e+02
  -5.387340e+01   3.233467e+02
  -2.912685e+02   6.084790e+01
  -2.137895e+02  -2.584893e+02
  -7.038418e-01  -3.181072e+02
   2.489607e+02  -1.262447e+02
   3.777881e+02   1.479679e+02
   1.489636e+02   3.929940e+02
  -1.630521e+02   3.481380e+02
  -2.854235e+02   1.246351e+02
  -1.845924e+02  -8.492429e+01
  -7.000604e+01  -3.329001e+01
  -1.601848e+02   4.805241e+01
  -3.557540e+02   2.100725e-01
  -3.201671e+02  -2.511712e+02
  -4.685323e+01  -4.281427e+02
   3.231199e+02  -4.042724e+02
   4.905015e+02  -2.165700e+02
   3.309005e+02   1.385878e+02
   3.505473e+01   2.712320e+02
  -1.380997e+02   2.593489e+02
  -8.634908e+01   5.126558e+01
   1.228679e+02  -1.005369e+02
   1.638785e+02   3.651717e+01
   7.929402e+01   2.395676e+02
  -1.951824e+02   1.907607e+02
  -1.979935e+02  -6.646322e+01
  -5.044504e+01  -2.293563e+02
   1.457789e+02  -4.699799e+01
   1.840393e+02   2.325371e+02
  -5.598159e+01   3.076496e+02
  -2.061269e+02   1.890047e+02
  -2.753904e+02  -7.273526e+01
  -2.615238e+02  -2.989777e+02
  -7.140143e+01  -2.530046e+02
   1.255311e+02  -1.172324e+02
   2.187377e+02   9.911014e+00
   7.218997e+01   6.281755e+01
  -8.118055e+01  -6.768138e+01
  -6.066517e+01  -1.137673e+02
   1.233859e+02  -9.211060e+01
   1.525009e+02   4.173430e+01
   1.310171e+02   8.742022e+01
  -4.705715e+01  -2.133947e+00
  -6.786894e+01  -6.284823e+01
   6.701726e+01  -5.756348e+01
   2.484519e+02   5.035798e+01
   2.598489e+02   1.344356e+02
   7.658236e+01   2.166949e+02
  -1.577923e+02   2.769548e+02
  -2.839719e+02   1.578792e+02
  -2.285676e+02  -5.031145e+01
  -1.165022e+01  -1.431960e+02
   5.287977e+01  -3.904804e+01
  -4.716334e+01   7.873235e+01
  -1.894880e+02   7.882877e+01
  -1.971115e+02  -1.129294e+02
  -6.227555e+01  -2.139392e+02
   8.210034e+01  -2.302646e+02
   1.602551e+02  -8.151519e+01
   9.606880e+01   2.004899e+00
  -5.013203e-01   3.343862e+01
  -8.889795e+00  -6.142529e+01
   9.162110e+01  -8.663342e+01
   1.776359e+02   7.899018e+00
   1.474252e+02   1.508403e+02
  -8.614451e+00   2.113001e+02
  -1.546994e+02   1.554589e+02
  -1.944361e+02  -3.987181e+01
  -8.833086e+01  -1.219659e+02
   4.424958e+01  -9.514776e+01
   7.554536e+01  -6.080162e+01
   3.924005e+01   1.503541e+01
   2.216705e+01   6.008297e+00
  -9.291111e+00   2.653088e+01
   8.508908e+01   4.810787e+01
   3.761197e+01   7.779079e+01
  -1.746491e+00   1.838596e+02
  -1.006769e+02   2.119837e+02
  -2.932112e+02   6.996467e+01
  -2.069113e+02  -9.642458e+01
  -6.556337e+01  -2.578674e+02
   1.152611e+02  -2.430754e+02
   1.286882e+02  -6.723628e+01
   3.164558e+01   1.989445e+01
   5.463875e+01   5.664263e+01
   7.591568e+01  -1.048433e+01
   1.042662e+02   2.278633e+00
   7.378821e+01   6.652293e+01
   1.842091e+01   1.256665e+02
  -1.283643e+02   8.110243e+01
  -9.815028e+01  -3.369243e+01
  -4.230627e+00  -1.222906e+02
   9.862144e+01  -1.259822e+02
   2.189712e+02   1.444361e+01
   1.406126e+02   2.139368e+02
  -5.658216e+01   2.732090e+02
  -2.380268e+02   1.227603e+02
  -2.693182e+02  -4.351266e+01
  -1.252860e+02  -1.677916e+02
   2.519027e+01  -1.664366e+02
   1.152339e+02  -6.229579e+01
   4.427861e+01  -4.221573e+01
   3.566786e+01  -8.631812e+01
   2.959415e+01  -1.409864e+02
   1.319528e+02  -4.206159e+01
   1.827607e+02   1.139859e+02
   3.673143e+01   2.620196e+02
  -9.990969e+01   2.054546e+02
  -1.963005e+02  -1.133928e+01
  -1.837054e+02  -1.151474e+02
  -4.168526e+01  -2.099939e+02
   7.696166e+01  -1.307761e+02
   1.133319e+02   3.975296e+00
   1.368731e+01   4.244028e+00
  -2.190690e+01   1.639799e+01
   4.247686e+01   2.600744e+00
   7.776357e+01  -3.877825e+01
   3.961570e+01   3.395936e+01
  -2.522932e+01   8.610766e+01
  -1.321769e+02   1.964960e+01
  -1.494702e+02  -1.095200e+01
  -4.516456e+01  -1.038571e+02
   1.019841e+02  -1.120614e+02
   1.763453e+02  -6.191822e+01
   3.308011e+01   7.436884e+00
  -7.319507e+01   4.950737e+01
  -5.883341e+01  -3.139067e+01
  -2.871061e+01  -6.433636e+01
   8.451718e+01   1.786329e+00
   6.174968e+01   3.107551e+01
   5.004615e+01   7.119095e+01
   3.924630e+00   3.931286e+01
   4.698813e+01   1.626044e+01
   5.736561e+01  -1.843738e+01
   4.685421e+01   1.979918e+01
  -3.593958e+01   1.356997e+02
  -1.170577e+02   1.213632e+02
  -1.098943e+02   4.940507e+01
  -1.457600e+02  -8.981439e+01
  -1.740925e+01  -1.341715e+02
   8.621521e+01  -7.304454e+01
   6.752733e+01   9.446337e+00
  -3.586319e+01   2.589386e+01
  -8.275358e+01  -3.205468e+01
  -6.044454e+01  -1.350843e+02
   8.405532e+01  -9.670940e+01
   1.703844e+02  -5.968999e+01
   1.238999e+02   4.017619e+01
   4.716210e+01   9.370001e+01
  -9.216824e+01   7.684000e+01
  -4.731850e+01  -4.003188e+01
   9.258630e+01  -6.950051e+01
   8.068237e+01   1.016011e+01
   7.406375e+01   1.403812e+02
  -9.530431e+01   1.250364e+02
  -1.815516e+02   5.795666e+01
  -1.563171e+02  -1.339392e+02
  -1.672152e+01  -2.351136e+02
   1.192631e+02  -1.225236e+02
   1.185336e+02   1.611097e+01
   4.745636e+01   1.412747e+02
   3.823925e+01   1.126435e+02
  -9.468977e+01  -3.240827e+00
  -6.865900e+01  -3.680896e+01
  -1.440675e+01  -2.208949e+01
   2.533400e+01   7.208781e+00
  -6.389089e+01   2.520042e+01
  -7.541605e+01  -8.711082e+01
  -5.846198e+01  -1.356031e+02
   6.873565e+00  -7.329476e+01
   1.343666e+02   1.693353e+01
   1.305145e+02   7.642771e+01
   3.486990e+01   3.948328e+01
  -9.473409e+01   3.918693e+01
  -1.046979e+02   1.107878e+01
   7.278816e+00   1.042669e+01
   6.248518e+01  -1.636622e+01
   3.420338e+01  -1.409912e+01
  -4.067109e+01   3.429147e+00
   4.643942e+01   2.829359e+01
   3.460704e+01   1.606041e+01
   1.169443e+02   9.972675e+01
  -1.375465e+01   9.055403e+01
  -1.290164e+02   7.975190e+01
  -1.668685e+02   1.937050e+01
  -1.427251e+02  -6.028466e+01
   9.053325e+00  -1.275028e+02
   6.703587e+01  -1.272234e+02
   1.095624e+02  -6.420473e+01
   5.641665e+01   4.437496e+01
   2.917058e+01   5.226538e+01
  -7.195898e+00   9.931863e+00
   1.927124e+01   2.809013e+01
   6.426672e+01   8.247953e+01
   5.138488e+01   6.945376e+01
  -4.121043e+01   4.245723e+01
  -6.076381e+01  -3.152948e+01
  -7.906206e+01  -1.381587e+02
  -3.470290e+01  -1.288694e+02
   1.040903e+02  -7.251572e+01
   1.264100e+02   2.803670e+01
   5.867870e+01   9.430376e+01
  -1.377634e+01   6.179128e+01
  -1.327670e+02  -1.777049e+01
  -2.769027e+01  -7.031329e+01
   4.265057e+01  -2.742204e+01
   5.023803e+01  -3.264529e+01
  -6.730677e+00  -1.084908e+01
  -7.890202e+01   1.280976e+01
  -2.944488e+01  -2.728150e+01
   1.015759e+02  -5.450635e+01
   1.325997e+02  -7.626667e+01
   3.954050e+01   3.512519e+01
  -2.033719e+01   1.052404e+02
  -2.061244e+01   8.870621e+01
  -6.997715e+01  -1.317332e+01
   2.497177e+01  -8.011513e+01
   3.623661e+01  -4.228541e+01
   4.088037e+01   1.487884e+01
   4.607301e+01   6.347536e+01
  -7.227303e+00   3.272792e+01
  -1.413421e+01  -1.093979e+01
  -7.148719e+01  -1.213746e+01
   2.342628e+01   2.177656e+01
   6.125152e+00   1.799172e+01
   1.883759e+01   8.258474e+00
  -1.160268e+01  -2.006178e+01
   1.058829e+01  -1.091388e+01
   4.872429e+01   1.946725e+01
  -1.909869e+01   4.712290e+01
   2.557665e+01   6.728605e+01
  -3.097474e+01  -2.021442e+00
  -5.455464e+01  -6.659096e+01
  -2.474280e+01  -8.490807e+01
   7.258817e+01  -6.186547e+00
   9.478129e+01   4.520238e+01
   1.874500e+01   5.810203e+01
  -2.282918e+01   5.775141e+01
  -5.539044e+01  -3.185798e+01
  -3.691816e+00   1.055516e+00
   7.521362e+01  -7.424743e+00
   5.539128e+01  -6.067441e+01
   1.390890e+00   4.942016e+01
  -9.819037e+01   1.540955e+01
