
 $NMID
 id='ANONYMOUS ', fmtdat='(2E16.6)'
 volume=1.0
 tramp=1.0
 $END
  -2.638479e+03  -1.039262e+02
  -1.819409e+03  -1.449032e+03
  -2.226814e+02  -1.711351e+03
   9.267341e+02  -9.844011e+02
   7.157830e+02  -4.366372e+02
   1.926054e+02  -8.523710e+01
  -1.298498e+02  -3.678843e+01
  -5.439648e+01  -4.618633e+02
   3.719162e+02  -4.214511e+02
   5.466957e+02   5.884742e+00
   4.775801e+02   4.854999e+02
   1.858776e+02   5.176388e+02
  -1.505617e+02   2.554417e+02
  -2.183037e+02  -2.892053e+02
   1.610141e+02  -3.895233e+02
   2.658607e+02  -2.448814e+01
   3.703575e+02   4.736203e+02
  -1.592841e+02   4.265063e+02
  -4.644127e+02   2.854813e+02
  -2.156805e+02  -1.891263e+02
  -1.839272e+02  -2.582974e+02
   7.605099e+01  -1.130538e+02
   4.813980e+01  -1.636884e+02
  -1.672073e+02   7.174282e+01
  -3.479542e+02  -2.291119e+02
   1.539705e+02  -3.159197e+02
   3.674755e+02  -1.418301e+02
   5.852672e+02   1.465435e+02
   1.786084e+02   1.681573e+02
  -1.619808e+02   1.886253e+02
  -3.693495e+02  -1.081105e+02
  -1.863932e+02  -3.233513e+02
   1.761821e+02  -2.156480e+02
   4.149968e+02  -7.194859e+01
   3.594585e+02   9.731657e+01
   8.832604e+01   2.248518e+02
   5.447536e+01   1.354203e+02
   1.490661e+01  -9.234643e+01
   1.747633e+02  -5.795121e+01
   6.947681e+01   1.756787e+02
   2.328686e+01   3.529559e+02
  -1.517235e+02   3.630320e+02
  -2.217167e+02  -3.546236e+01
  -1.284077e+02  -2.369411e+02
   1.512612e+02  -6.967303e+01
   9.620787e+01   1.567766e+02
  -1.078707e+02   2.643649e+02
  -3.229470e+02   1.151539e+01
  -3.554655e+02  -2.428108e+02
  -1.104636e+02  -3.560443e+02
   2.333697e+02  -2.317038e+02
   3.668034e+02   2.866458e+00
   2.424465e+02   2.157301e+02
  -6.165625e+01   2.150601e+02
  -2.185289e+02   1.099091e+02
  -1.502126e+02  -7.913674e+01
  -5.719729e+01  -9.462196e+01
   3.786038e+01  -2.147014e+01
  -4.453398e+01   1.697929e+01
  -1.234049e+02  -2.117179e+01
  -9.145039e+01  -1.489831e+02
   1.372838e+02  -1.967375e+02
   2.762822e+02  -1.313135e+02
   2.228816e+02   6.986050e+01
   1.922100e+01   2.768963e+02
  -1.879200e+02   3.239919e+02
  -3.411682e+02   1.121371e+02
  -2.657073e+02  -1.488755e+02
  -5.693744e+01  -3.667473e+02
   8.116446e+01  -2.794154e+02
   3.674928e+01  -1.411828e+02
  -4.676518e-01  -8.762646e+01
   1.223385e+02  -5.951017e+01
   2.389006e+02   4.347282e+01
   2.190247e+02   5.841513e+01
   1.017840e+02   1.561799e+02
  -9.183961e+01   1.004307e+02
  -2.126209e+02  -7.219805e+01
  -1.514061e+02  -2.375660e+02
   2.978705e+01  -1.880167e+02
   2.108545e+02  -8.351285e+01
   2.626647e+02   1.451601e+02
   1.636386e+02   2.391891e+02
   8.753852e+00   2.238224e+02
  -7.718709e+01   7.611588e+01
  -1.042426e+02   1.106009e+02
  -1.635646e+02   9.769946e+01
  -2.653998e+02   4.717536e+01
  -3.462084e+02  -1.014986e+02
  -2.710854e+02  -3.386198e+02
   1.943091e+01  -4.487758e+02
   3.549803e+02  -3.669741e+02
   4.136775e+02  -1.520632e+02
   2.669250e+02   7.229991e+01
   4.028448e+01   2.121582e+02
  -7.674667e+01   1.962514e+02
  -3.506283e+01   8.457514e+01
   1.008004e+02  -5.758162e+01
   1.387846e+02   3.805842e+01
  -1.539435e+00   1.215360e+02
  -9.996411e+01   3.197794e+01
  -5.357296e+01  -6.195974e+01
   2.180843e+01  -8.790982e+01
   1.207293e+02  -2.038577e+01
   1.743657e+02   1.703645e+02
  -1.009579e+01   3.022236e+02
  -1.997620e+02   2.089865e+02
  -3.162422e+02  -6.739803e+01
  -2.137665e+02  -1.892801e+02
  -5.411611e+01  -2.351868e+02
   3.883812e+01  -1.378663e+02
   9.518830e+01  -3.214448e+01
   1.919412e+00   2.481913e+01
  -1.663574e+01  -4.135975e+01
   6.898347e+01  -7.081115e+01
   1.280130e+02  -9.215860e+01
   1.325635e+02   8.740079e+00
   5.619227e+01   3.164013e+01
  -9.636435e+01  -2.599938e+01
  -5.340666e+01  -1.048221e+02
   1.034225e+02  -4.564441e+01
   2.287343e+02   9.108303e+01
   2.445731e+02   1.609659e+02
   2.125954e+01   2.049097e+02
  -1.487085e+02   1.969022e+02
  -2.403484e+02   7.449262e+01
  -1.300712e+02  -4.822314e+01
  -7.157927e-01  -2.822168e+01
   8.716978e+01   3.917715e+01
  -4.903428e+01   6.371794e+01
  -1.490790e+02  -1.713040e+00
  -1.675149e+02  -3.982370e+01
  -5.033647e+01  -1.467593e+02
   3.584986e+01  -1.095085e+02
   7.105206e+01  -2.856795e+01
  -1.134969e+00   9.642378e+00
  -1.211120e+01  -6.241668e+01
  -6.312418e+00  -5.112950e+01
   1.473150e+02  -1.054091e+02
   1.741204e+02   5.732320e+01
   1.247430e+02   8.668129e+01
  -7.754310e+00   1.698329e+02
  -1.335146e+02   9.059241e+01
  -1.533550e+02  -4.992215e-02
   3.363970e+00  -1.198780e+02
   8.416394e+01  -6.380573e+01
   6.693322e+01  -1.995295e+01
   2.196777e-01   2.296022e+01
  -4.468963e+01  -8.003182e+00
   8.292832e+00  -2.204572e+01
   1.387007e+02   1.896847e+01
   5.831784e+01   9.564749e+01
   1.662129e+00   1.870980e+02
  -1.576274e+02   1.420905e+02
  -2.384505e+02  -1.731219e+01
  -1.763528e+02  -1.351506e+02
  -2.633498e+01  -2.389569e+02
   9.466159e+01  -1.271386e+02
   1.230116e+02  -2.202397e+01
   4.839094e+01   3.057074e+01
   3.230332e+00   2.007220e+01
   2.229026e+01  -3.312525e+01
   7.491125e+01  -3.209991e+01
   1.104344e+02   1.763675e+01
  -2.418726e+01   4.795922e+01
  -9.092027e+01   1.736766e+01
  -1.056178e+02  -5.388223e+01
   3.247135e+00  -9.777042e+01
   1.237136e+02  -3.263547e+01
   1.980921e+02   1.111235e+02
   1.095298e+02   1.817749e+02
  -5.357832e+01   1.543034e+02
  -2.329646e+02   8.909228e+01
  -2.534709e+02  -1.317577e+02
  -1.051797e+02  -1.734490e+02
   2.656994e+01  -1.368110e+02
   9.935491e+01  -9.041501e+01
   6.000514e+01  -7.894827e+01
   2.400107e+01  -7.191303e+01
   5.161701e+01  -2.193548e+01
   1.347533e+02   7.662424e+01
   5.641633e+01   1.367429e+02
  -3.253761e+01   2.147785e+02
  -1.430719e+02   1.257113e+02
  -1.598345e+02   1.951838e+01
  -1.494500e+02  -8.995831e+01
   1.891348e+00  -1.122008e+02
   8.832978e+01  -9.435218e+01
   5.533795e+01  -1.412363e+01
   1.145639e+01   4.267466e+01
   5.860908e+00   2.146176e+01
   1.994017e+01   2.822134e+01
   8.534251e+01   8.194614e+01
   5.811363e+01   4.184943e+01
  -3.976164e+01   2.181700e+01
  -1.527102e+02  -5.208751e+01
  -1.390058e+02  -8.153518e+01
  -9.093273e+00  -7.714424e+01
   1.314988e+02  -1.748890e+01
   1.524554e+02   2.985032e+01
   2.970617e+01   6.950074e+01
  -3.055637e+01   3.754370e+01
  -8.974208e+01  -2.842649e+01
  -5.761408e+01  -7.607135e+01
   4.032158e+01  -4.157493e+01
   7.431831e+01  -6.654141e+00
   3.137236e+01   7.567175e+01
   2.652083e+01   1.773405e+01
   5.020800e+01   1.888671e+01
   5.921199e+01  -8.102977e+00
   6.379352e+01   9.651628e+01
   6.072065e+00   1.458730e+02
  -7.058122e+01   1.038881e+02
  -1.987150e+02   3.308652e+01
  -7.041410e+01  -8.705589e+01
   2.975460e+01  -8.696024e+01
   4.745233e+01  -4.847745e+01
   4.679016e+01  -4.129743e-01
  -4.313301e+01  -2.748585e+01
  -1.270188e+02  -2.743005e+01
  -1.196804e+01  -8.675654e+01
   4.175603e+01  -6.629406e+01
   1.074880e+02  -3.277716e+01
   1.716059e+02   5.753174e+01
   4.359574e+01   6.263960e+01
  -8.253187e+01   7.482154e+01
  -4.149416e+01   2.870411e+00
  -3.563232e+00  -4.731324e+01
   6.846876e+01   1.898527e+01
   4.877180e+01   1.057579e+02
  -4.364594e+01   1.329107e+02
  -1.191357e+02   4.684527e+01
  -6.699452e+01  -7.149675e+01
  -2.535436e+01  -1.457140e+02
   8.990617e+01  -8.453909e+01
   8.827020e+01   1.516643e+01
   6.564811e+01   1.212706e+02
  -2.028269e+01   1.339976e+02
  -4.561092e+01   2.091209e+00
  -4.634449e+01  -9.177051e+00
  -5.877830e+01   1.037042e+01
   2.606737e+00   4.291338e+00
  -1.022393e+01   1.257588e+01
  -5.670206e+01  -4.827140e+01
   4.305638e+01  -9.996922e+01
   3.362541e+01  -4.561324e+01
   9.207376e+01   8.315701e+00
   1.082641e+02   6.575797e+01
   3.948685e-01   3.464396e+01
  -1.259854e+02  -1.046474e+01
  -8.813720e+01  -2.549064e+01
  -5.419753e+01  -3.694559e+00
   4.068319e+01  -6.870810e+01
   7.842292e+01  -8.163501e+00
  -2.048283e+01  -1.190721e+01
  -6.775777e+00   3.152414e+01
   9.107355e+01  -3.037004e+01
   5.600654e+01   5.189869e+01
   3.717295e+01   8.121479e+01
  -2.755003e+01   8.715538e+01
  -1.503163e+02   4.939658e+01
  -1.612026e+02  -5.680346e+01
  -1.315124e+01  -1.206339e+02
   5.394704e+01  -1.381156e+02
   1.282079e+02  -6.438117e+01
   8.556079e+01   2.547474e+01
   5.162156e+01   1.185459e+01
  -1.112583e+00   5.159443e+01
   9.863085e+00   1.782053e+01
   8.596256e+00   8.250377e+01
  -4.176389e+00   5.280453e+01
  -2.202227e+01   3.637223e+01
  -6.635973e+01  -6.048853e+01
  -6.908355e+01  -1.138537e+02
  -5.504541e+01  -9.183132e+01
   7.328793e+01  -2.302321e+00
   1.167900e+02   7.679648e+01
   1.293311e+01   9.124833e+01
  -7.328574e+01   7.822783e+00
  -9.890070e+01  -4.427829e+01
  -1.635893e+01  -7.493090e+01
   2.803934e+01  -4.315119e+01
   8.155818e+01  -1.581853e+01
   8.759118e+00   9.186253e+00
  -5.369645e+01   8.544374e+00
  -7.111339e+00  -4.252230e+01
   3.828078e+01  -6.539437e+01
   1.099064e+02  -3.896166e+01
   9.143582e+01   4.271728e+01
   4.837539e+00   5.021088e+01
  -4.484368e+01   5.146689e+01
  -7.903222e+01   2.346155e+01
   2.358814e+01  -3.334404e+01
  -3.600408e+01  -3.542999e+01
   8.113476e+01  -3.138393e+01
   2.906947e+01   2.790450e+01
   1.045732e+01   2.823026e+01
  -5.357749e+01  -3.559455e+00
  -4.658849e+01  -2.684223e+01
   1.361040e+01  -7.286208e+00
   2.621048e+01  -1.755022e+01
   2.310340e+00  -1.841956e+01
  -4.913719e+00  -2.469193e+01
  -4.804119e+00  -5.673481e+01
  -6.413460e+00  -9.994272e+00
   1.863185e+01   1.977513e+01
  -5.128932e+01   7.066282e+01
  -3.086741e+01   2.958228e+01
  -1.918517e+01  -2.832586e+01
  -3.936377e+01  -1.004575e+02
   3.835012e+01  -7.007307e+01
   8.909971e+01  -6.725113e+00
   6.229948e+01   4.954593e+01
   2.116699e-02   1.025946e+02
  -2.289619e+01   1.498766e+01
  -1.588012e+01   2.345263e+01
   2.959968e+01   2.814645e+01
   5.908938e+01  -4.410364e+01
  -3.382722e+01  -1.592928e+00
  -5.409636e+01   3.763190e+00
