
 $NMID
 id='ANONYMOUS ', fmtdat='(2E16.6)'
 volume=1.0
 tramp=1.0
 $END
  -4.263094e+03  -1.055859e+02
  -2.666335e+03  -2.559291e+03
   7.249614e+02  -2.856861e+03
   2.366158e+03  -1.067218e+03
   9.225142e+02   7.716964e+02
  -8.020745e+02   6.400348e+02
  -1.052135e+03  -5.988876e+02
   1.533538e+01  -1.102973e+03
   8.733816e+02  -8.134271e+02
   9.932918e+02   6.694548e+01
   4.098063e+02   1.014761e+03
  -4.455003e+02   8.102456e+02
  -7.432695e+02  -3.410101e+01
  -3.441219e+02  -9.715204e+02
   2.739752e+02  -7.411973e+02
   6.689338e+02  -7.350406e+01
   4.194211e+02   6.932160e+02
  -3.956247e+02   6.689743e+02
  -6.635269e+02   2.522105e+02
  -3.708772e+02  -2.592061e+02
  -6.891696e+00  -4.752357e+02
   2.473588e+02  -4.143237e+02
   3.387449e+02  -6.957759e+01
   1.560590e+01   1.312168e+02
  -4.533889e+02  -2.053298e+01
  -1.305427e+02  -3.932176e+02
   5.272623e+02  -4.168904e+02
   9.737415e+02   3.981664e+01
   5.459358e+02   6.216719e+02
  -4.773986e+02   5.316061e+02
  -7.382495e+02  -9.184383e+01
  -4.016266e+02  -4.561914e+02
   2.872799e+02  -6.021966e+02
   6.851326e+02  -1.567799e+02
   4.416148e+02   1.840671e+02
   1.263357e+02   4.935805e+02
  -3.169371e+02   3.804306e+02
  -1.868123e+02  -2.527748e+02
   2.546479e+02  -5.538728e+02
   5.105025e+02   3.676995e+01
   2.848781e+02   7.969691e+02
  -3.860620e+02   8.555404e+02
  -7.496914e+02  -7.538621e+00
  -3.104060e+02  -7.054309e+02
   3.918050e+02  -4.249117e+02
   3.821463e+02   3.428994e+02
  -1.404762e+02   7.323237e+02
  -6.281362e+02   1.385904e+02
  -6.693876e+02  -4.672189e+02
  -1.476257e+02  -6.875305e+02
   4.411203e+02  -3.832903e+02
   7.154518e+02   1.245643e+02
   4.022832e+02   4.548543e+02
  -2.025409e+02   4.013783e+02
  -5.299650e+02   4.112399e+01
  -2.615788e+02  -2.249806e+02
   1.291791e+02  -1.213886e+02
   1.016629e+02   1.996068e+02
  -2.847309e+02   2.455836e+02
  -4.156287e+02  -7.562958e+01
  -1.493313e+02  -4.342849e+02
   2.601471e+02  -3.274114e+02
   3.580068e+02  -9.590263e+01
   1.992317e+02   8.936954e+01
  -7.283758e+01   2.738979e+02
  -2.219901e+02   3.116300e+02
  -4.143808e+02   1.731013e+02
  -3.030076e+02  -1.932951e+02
  -7.498444e+01  -4.984388e+02
   2.014489e+02  -4.086476e+02
   1.171595e+02  -1.131583e+02
  -8.799285e+00   4.877647e+01
  -2.456049e+01  -1.320724e+02
   8.249372e+01  -2.087552e+02
   3.063208e+02   3.188525e+01
   2.340664e+02   1.955031e+02
  -6.945981e+00   2.522945e+02
  -2.102608e+02   2.139800e+01
  -2.097240e+02  -2.194677e+02
  -5.914962e+01  -2.977479e+02
   2.606089e+02  -1.124245e+02
   3.710265e+02   1.882631e+02
   2.106927e+02   3.896801e+02
  -1.134095e+02   3.353355e+02
  -2.625359e+02   4.598161e+01
  -2.013975e+02  -8.140351e+00
  -1.365900e+02   3.214384e+01
  -2.382099e+02   6.966425e+01
  -4.746600e+02  -6.481984e+01
  -3.657006e+02  -2.941936e+02
  -2.047063e+01  -5.435142e+02
   3.184189e+02  -4.967707e+02
   5.073606e+02  -2.379990e+02
   3.993020e+02   9.568982e+01
   4.065024e+01   3.402824e+02
  -1.270430e+02   2.844280e+02
  -1.009198e+02   4.587977e+01
   1.504512e+02  -1.368596e+02
   2.450713e+02   4.371756e+01
   6.851249e+01   2.225129e+02
  -1.658847e+02   2.239556e+02
  -2.194971e+02  -7.384936e+01
  -1.705144e+01  -1.783238e+02
   1.852332e+02   1.632602e+01
   1.207578e+02   2.551562e+02
  -6.042947e+01   3.722550e+02
  -2.510161e+02   2.092641e+02
  -4.216654e+02  -6.516192e+01
  -3.235384e+02  -2.488400e+02
  -9.797448e+01  -2.997244e+02
   1.218048e+02  -1.685787e+02
   1.900223e+02   5.443607e+01
   1.649349e+01   4.636157e+01
  -7.509569e+01  -2.223032e+01
  -3.120235e+01  -1.972042e+02
   1.683535e+02  -1.245492e+02
   1.898493e+02   3.068894e+01
   6.025272e+01   1.122523e+02
  -7.204210e+01   4.842634e+01
  -7.884865e+01  -7.894307e+01
   9.138390e+01  -9.762589e+01
   2.613396e+02   1.011616e+00
   2.302263e+02   1.313793e+02
   2.994959e+01   2.869239e+02
  -2.338714e+02   2.965318e+02
  -3.412383e+02   4.274803e+01
  -1.978834e+02  -1.329724e+02
   4.122611e+01  -1.685045e+02
   1.562686e+02  -3.484602e+01
  -3.032060e+01   1.186215e+02
  -1.964069e+02   6.499344e+01
  -1.949455e+02  -8.233519e+01
   2.421386e+00  -2.490847e+02
   1.217816e+02  -1.669521e+02
   1.502714e+02  -1.034413e+01
   7.445181e+01   4.225008e+01
  -7.720584e+01   3.994930e+01
  -4.835269e+01  -7.117695e+01
   7.829518e+01  -1.306745e+02
   1.910577e+02  -3.317365e+01
   1.701310e+02   1.023856e+02
   3.535825e+01   2.427426e+02
  -1.678194e+02   1.892623e+02
  -1.993656e+02   2.599174e+01
  -9.966519e+01  -9.206972e+01
   2.921612e+01  -1.332479e+02
   7.353519e+01  -6.653959e+01
   6.137443e+01   3.771669e+01
   8.447424e+00   1.628136e+01
   3.148743e+01   1.713763e+01
   3.260064e+01   5.093035e+01
   5.447818e+01   1.047088e+02
   3.963958e+01   1.469079e+02
  -1.744100e+02   1.626146e+02
  -2.909653e+02   8.251194e+00
  -2.112058e+02  -1.745416e+02
  -3.508124e+01  -3.101581e+02
   1.439669e+02  -1.506680e+02
   1.513562e+02   8.153200e+00
   3.901286e+01   5.678906e+01
   3.918954e+00   6.197327e+01
   3.663632e+01   2.956264e+00
   4.144819e+01  -1.526526e+01
   5.357211e+01   3.983336e+01
  -3.939172e+01   8.792029e+01
  -9.859182e+01   6.761438e+01
  -8.437847e+01  -1.885877e+01
   3.153789e+01  -1.105939e+02
   1.696668e+02  -9.862034e+01
   1.840667e+02   6.295090e+01
   1.257591e+02   1.911886e+02
  -1.148979e+02   2.320919e+02
  -2.941734e+02   7.277514e+01
  -2.588015e+02  -1.121371e+02
  -7.486042e+01  -1.939083e+02
   4.381584e+01  -1.354074e+02
   1.281316e+02  -7.180138e+01
   8.831264e+01  -2.187945e+01
   1.529981e+01  -6.329471e+01
   7.741861e+01  -5.356309e+01
   1.567509e+02   4.874592e+01
   1.507187e+02   1.499805e+02
   5.109392e+01   2.713484e+02
  -9.997098e+01   2.089911e+02
  -1.890718e+02   2.539957e+01
  -1.530052e+02  -1.210798e+02
  -1.669524e+01  -1.381422e+02
   2.726562e+01  -7.317414e+01
   8.808146e+01   1.975277e+01
   2.984399e+01   2.039238e+01
  -1.271767e+01   3.874503e+01
   7.840950e+00   4.966921e+01
  -4.407584e-01   3.016144e+01
   2.497356e+01  -2.394070e+01
  -3.540246e+01  -9.987849e-01
  -1.316269e+02  -4.696796e+01
  -9.446831e+01   5.507988e+00
  -2.553504e+01  -4.840777e+01
   1.763095e+02  -9.822517e+01
   1.850293e+02  -9.568992e+00
   2.573597e+01   4.993553e+01
  -6.329712e+01   5.302967e+01
  -7.649451e+01  -2.051037e+01
   3.797101e+01  -3.121988e+01
   1.087950e+02   2.619540e+01
   2.866822e+01   6.580445e+01
   4.586499e+00   5.124296e+01
   2.710941e+01   3.245630e+01
   4.648976e+01  -3.156768e+00
   5.350044e+01   1.034557e+00
   4.498655e+00   1.030001e+02
  -1.108871e+02   1.299681e+02
  -1.254806e+02   1.221521e+02
  -1.671453e+02   3.356273e+01
  -7.865830e+01  -1.297115e+02
   6.730768e+01  -1.476916e+02
   1.188523e+02  -8.379320e+01
   6.560844e+01   6.177597e+01
  -3.822393e+01   7.021249e+01
  -1.503899e+02  -3.831903e+01
  -7.301954e+01  -1.218484e+02
   4.303416e+01  -9.824064e+01
   2.163895e+02  -2.294929e+01
   1.678859e+02   6.971754e+01
   2.475258e+01   6.457619e+01
  -9.095573e+01   8.998739e+01
  -3.433614e+00   2.149596e+01
   4.407213e+01  -2.285423e+01
   8.835332e+01   5.215727e+01
   2.304317e+01   1.644527e+02
  -1.260843e+02   1.679278e+02
  -1.819763e+02   2.104773e+01
  -1.272732e+02  -1.190514e+02
  -1.080187e+01  -2.317698e+02
   1.033888e+02  -1.894613e+02
   8.868823e+01   1.597715e+01
   7.647082e+01   1.576580e+02
   1.750078e+01   9.951141e+01
  -3.829495e+01  -7.781304e+00
  -3.663294e+01  -6.502940e+01
   4.467883e+00   2.452635e+01
  -1.669455e+01   3.668394e+01
   3.685539e+01  -3.346550e+01
  -7.930490e+01  -7.004180e+01
  -1.013936e+02  -1.226685e+02
   4.895537e+01  -4.837541e+01
   8.822993e+01  -1.963725e+01
   1.299314e+02   7.788408e+01
   1.917940e+01   4.823540e+01
  -6.708623e+01  -1.931339e+01
  -1.096240e+02   1.035641e+01
   3.292728e+01  -1.010979e+01
   2.038030e+01  -2.686628e+01
  -3.491569e+00  -8.710161e+01
   1.607614e+00   3.368342e+01
   3.142246e+01  -1.542348e+00
   1.302489e+02   3.402180e+01
   7.342337e+01   8.786783e+01
   3.666982e+01   9.370005e+01
  -1.415520e+02   1.414454e+02
  -2.114409e+02   6.149002e+01
  -1.775496e+02  -5.351546e+01
  -2.396000e+01  -1.494335e+02
   5.930519e+01  -1.340998e+02
   1.213817e+02  -4.284033e+01
   8.049174e+01   3.024802e+01
   2.230440e+01   4.020101e+01
   7.753001e+00   1.845986e+01
   2.202285e+00   1.100377e+01
   5.989144e+01  -3.413876e+01
   1.532456e+01   1.455518e+02
  -5.814955e+01   7.072682e+01
  -7.639289e+01   1.348390e+01
  -8.528317e+01  -1.271493e+02
   1.617655e+01  -1.630346e+02
   8.091013e+01  -6.165332e+01
   1.085463e+02   5.484466e+01
   4.880575e+01   9.118503e+01
  -2.111106e+01   8.041655e+01
  -7.811414e+01   3.027204e+01
  -4.928671e+01  -4.593185e+01
   5.250404e+01  -6.835874e+01
   7.690344e+01  -2.290979e+01
   1.990502e+01   2.687478e+01
  -6.123897e+01   6.465292e+01
  -6.533901e+01  -1.251610e+01
   4.920087e+01  -4.750714e+01
   1.214269e+02  -9.798802e+01
   8.544893e+01  -2.943878e+01
   3.312454e+01   5.121483e+01
  -5.595855e+01   8.708410e+01
  -1.360746e+02  -3.266231e+01
  -4.613949e+00  -8.225898e+01
   2.063218e+01  -8.663573e+01
   5.092812e+01   4.785036e+00
   1.993199e+01   6.369089e+01
   7.127843e+00   4.584951e+01
  -4.069391e+00  -2.573994e+01
  -6.738833e+01   2.976564e+01
  -3.055732e+01  -2.047248e+01
  -2.677415e+01   5.007401e+01
   3.443606e-01   3.675324e+01
   1.871072e+01  -2.559469e+00
   3.132769e+01  -1.951049e+01
   2.943533e+01   2.717591e+01
  -1.315387e+01   3.630787e+01
  -3.280014e+01   8.798348e+01
  -9.986158e+01   3.124950e+01
  -1.263100e+02  -9.806528e+01
  -2.545025e+01  -7.549342e+01
   3.098118e+00  -5.501972e+01
   1.214734e+02   1.328183e+01
   5.412692e+01   1.835257e+01
  -3.237463e+00   3.150077e+00
  -5.635470e+01   3.546619e+01
   5.280815e+00   6.563257e+00
   3.266888e+01   3.176879e+00
   6.576583e+01   1.646202e+01
  -4.166979e+01   3.823782e+01
  -5.736380e+01   1.281811e+01
