
 $NMID
 id='ANONYMOUS ', fmtdat='(2E16.6)'
 volume=1.0
 tramp=1.0
 $END
  -2.826785e+03  -3.303380e+02
  -1.685871e+03  -1.493630e+03
   1.307844e+02  -1.513195e+03
   7.102731e+02  -1.251480e+03
   9.456744e+02  -3.251356e+02
  -8.464454e-01  -2.817183e+01
  -2.431053e+02   1.655995e+01
   1.249458e+02  -5.260000e+02
   5.044156e+02  -4.955166e+02
   4.669243e+02   5.774182e+01
   4.161020e+02   5.129285e+02
  -9.487464e+01   5.492947e+02
  -1.840866e+02   1.160224e+02
  -3.646818e+01  -3.257760e+02
   1.712880e+02  -4.303723e+02
   5.346562e+02  -1.134640e+02
   3.648902e+02   4.416994e+02
  -7.031839e+01   4.679339e+02
  -3.399037e+02   4.200976e+02
  -2.628213e+02  -2.993853e+02
   2.577658e+01  -6.392669e+02
   7.551868e+01  -6.690820e+01
   1.601721e+02  -1.924324e+02
  -2.232046e+02  -1.584908e+02
  -1.573916e+02  -3.164676e+02
   1.045768e+02  -2.828565e+02
   5.036680e+02   5.733950e+01
   5.189584e+02   2.584854e+02
   1.108807e+02   2.660644e+02
  -3.985864e+02   1.959450e+02
  -4.033992e+02  -1.836375e+02
  -1.443088e+01  -3.316621e+02
   3.613188e+02  -2.911540e+02
   4.120445e+02  -2.559431e+01
   2.405106e+02   8.051543e+01
   5.690118e+01   2.998623e+02
  -4.091831e+01   1.973000e+02
   1.061899e+02  -7.630617e+01
   1.145653e+02  -1.016207e+02
   1.100708e+02   1.376307e+02
  -8.046583e+01   3.962127e+02
  -1.853661e+02   3.596147e+02
  -2.259588e+02  -6.304446e+01
  -5.720752e+01  -1.699188e+02
   9.566283e+01  -1.851302e+01
   7.991487e+01   2.359612e+02
  -1.369822e+02   3.681017e+02
  -3.873781e+02   4.531913e+01
  -4.553963e+02  -3.774496e+02
  -2.059430e+02  -4.926229e+02
   2.736576e+02  -2.589634e+02
   4.636021e+02   5.219892e+01
   2.759422e+02   1.918221e+02
  -3.310037e+01   1.563130e+02
  -2.081036e+02   8.293499e+01
  -2.096920e+02   2.866275e+01
  -4.102276e+01  -1.889642e+01
   2.993823e+01   9.890994e+00
  -1.086804e+02   1.399057e+01
  -2.226731e+02  -3.091636e+01
  -1.320754e+02  -1.302471e+02
   1.087164e+02  -2.150103e+02
   2.685290e+02  -1.295548e+02
   2.044151e+02   8.520319e+01
  -1.203893e+00   2.671866e+02
  -2.342420e+02   3.223642e+02
  -3.709678e+02   1.361638e+02
  -2.539669e+02  -1.700685e+02
  -8.557832e+01  -3.363937e+02
   3.186938e+00  -3.061589e+02
   4.534576e+01  -1.826877e+02
   6.444603e+01  -1.147502e+02
   1.643654e+02  -1.159354e+02
   2.128540e+02  -3.033675e+01
   1.600644e+02   1.230384e+02
   7.283224e+01   2.437344e+02
  -9.052148e+01   1.449270e+02
  -1.857669e+02  -5.210098e+00
  -1.192897e+02  -2.648041e+02
   1.061233e+02  -2.759941e+02
   2.333582e+02  -5.100845e+01
   2.553513e+02   1.481289e+02
   2.166826e+02   2.742352e+02
   3.903378e+01   1.862392e+02
  -1.233286e+02   1.066837e+02
  -1.221159e+02   1.869837e+02
  -1.540801e+02   1.197511e+02
  -2.628813e+02   5.323646e+01
  -3.828788e+02  -1.314428e+02
  -3.039124e+02  -3.508620e+02
   2.753616e+01  -4.281571e+02
   3.777188e+02  -3.835983e+02
   4.905372e+02  -1.431944e+02
   3.422547e+02   1.216668e+02
   1.730332e+01   2.537503e+02
  -9.338500e+01   2.103008e+02
  -5.208308e+01   2.346995e+01
   9.940231e+01  -5.582618e+01
   1.299636e+02  -3.513484e+00
   6.558310e+01   6.579937e+01
  -1.101594e+02   4.941397e+01
  -8.968299e+01  -6.072751e+01
   4.101824e+01  -9.723022e+01
   1.551342e+02   2.860068e+00
   1.504816e+02   2.199058e+02
  -2.061002e+01   2.832066e+02
  -2.537870e+02   1.567624e+02
  -3.221129e+02  -7.393394e+01
  -2.522126e+02  -2.739710e+02
  -3.441602e+01  -2.296834e+02
   1.315615e+02  -1.331908e+02
   1.564593e+02   1.423796e+00
   3.316026e+01   7.742630e+01
  -5.198919e+01  -5.972557e+01
   2.130121e+00  -7.600754e+01
   1.168426e+02  -1.051315e+02
   1.542240e+02   5.993400e+00
   4.567110e+01   6.950249e+01
  -7.885295e+01   3.126370e+01
  -9.745263e+00  -6.953216e+01
   1.410173e+02  -8.537712e+01
   2.960330e+02  -8.716251e+00
   2.522611e+02   2.019293e+02
   1.690407e+01   2.185322e+02
  -1.900324e+02   2.239677e+02
  -3.094950e+02   1.202552e+02
  -1.197862e+02  -8.126687e+01
   3.652977e+01  -1.009012e+02
   9.964710e+01  -2.474100e+01
  -4.222313e+01   8.164848e+01
  -1.319009e+02   5.469134e+01
  -1.785545e+02  -8.809397e+01
  -1.024830e+01  -1.420539e+02
   1.490188e+02  -1.103954e+02
   1.501684e+02   2.297589e+01
   3.660179e+01   4.910672e+01
  -5.043190e+01  -2.650000e+01
  -8.627330e+00  -1.285316e+02
   1.080772e+02  -1.306762e+02
   2.909361e+02   6.135509e+00
   1.875756e+02   1.308188e+02
  -1.601878e+01   2.440761e+02
  -2.113590e+02   1.423123e+02
  -2.607897e+02   2.095479e+01
  -9.810347e+01  -1.049446e+02
   3.901221e+01  -1.244107e+02
   5.726182e+01  -5.459149e+01
  -1.826343e+01   1.934033e+01
  -8.520591e+01  -1.660815e+01
   2.791448e+01  -4.642955e+01
   9.975758e+01   2.450206e+01
   7.408372e+01   8.003519e+01
   5.899440e+01   2.127267e+02
  -1.443578e+02   1.724478e+02
  -2.093206e+02  -5.005386e+01
  -1.740050e+02  -1.781804e+02
   2.425411e+01  -2.199662e+02
   1.492375e+02  -1.568249e+02
   1.505888e+02  -4.978536e+00
   5.036672e+01   7.482251e+01
  -5.224556e+00   1.944517e+01
   4.694345e+01  -1.946417e+01
   1.204013e+02  -1.796290e+01
   1.066133e+02   4.524583e+01
  -3.609767e+01   1.029295e+02
  -1.300280e+02   1.315970e+02
  -1.460807e+02  -6.886780e+01
   2.175868e+01  -8.385436e+01
   1.111979e+02  -7.204838e+01
   2.143786e+02   4.042282e+01
   1.373082e+02   1.940536e+02
  -9.689527e+01   2.180576e+02
  -2.767222e+02   6.439078e+01
  -2.555908e+02  -5.861077e+01
  -6.924112e+01  -1.646360e+02
   4.745824e+01  -1.535717e+02
   9.697687e+01  -8.282264e+01
   6.147395e+01  -9.191868e+01
   1.665949e+01  -5.409515e+01
   1.017982e+02  -1.245501e+02
   1.634500e+02   2.310721e+01
   8.766962e+01   1.452354e+02
   5.740946e+00   2.431268e+02
  -9.632854e+01   1.669620e+02
  -1.526292e+02  -2.737734e+01
  -1.121147e+02  -1.353062e+02
  -2.212405e-01  -1.714605e+02
   4.876956e+01  -5.843905e+01
   4.842956e+01   6.632416e+01
  -3.289496e+01   8.726718e+01
  -2.054644e+01   7.022621e+01
  -6.148746e+00  -8.123271e+00
   1.126853e+02  -1.696423e+01
   4.296971e+01   3.844895e+01
  -4.687719e+01   7.797894e+01
  -1.801338e+02   5.485431e+01
  -1.241150e+02  -5.695047e+01
   2.216172e+01  -1.411899e+02
   9.125989e+01  -1.156222e+02
   1.773064e+02  -5.408995e+00
   4.728191e+01   6.645334e+01
  -6.015951e+01   2.547658e+01
  -7.308968e+01   8.118966e+00
  -1.596974e+01  -6.422863e+01
   7.377639e+00  -9.168826e+01
   6.694194e+01  -1.221120e+01
   7.687165e+01   3.533856e+01
   4.669314e+01   4.786974e+01
   8.142838e+01   1.370828e+01
   4.894858e+01   5.600903e+01
   5.123057e+01   1.143831e+02
  -2.525023e+01   1.489699e+02
  -1.297427e+02   1.563360e+02
  -1.723512e+02   2.854323e+01
  -1.393526e+02  -1.043825e+02
  -3.415893e+01  -1.288818e+02
   7.893043e+01  -5.941260e+01
   7.457965e+01  -2.114225e+01
  -5.969444e+01  -5.191279e+00
  -9.795489e+01  -5.361148e+01
  -4.801939e+01  -1.149351e+02
   1.112631e+02  -1.514189e+02
   1.931119e+02  -4.630072e+01
   1.559583e+02   3.409812e+01
   2.147184e+01   6.458802e+01
  -3.666695e+01   9.211331e+01
  -3.442484e+01  -2.918015e+01
   8.125125e+01  -5.156972e+01
   8.435128e+01   5.533806e+01
   4.674103e+01   1.381188e+02
  -5.068675e+01   1.804756e+02
  -1.390520e+02   7.653947e+01
  -1.479108e+02  -9.392272e+01
  -6.387756e+01  -1.138437e+02
   5.092040e+01  -1.288077e+02
   1.128690e+02  -9.661733e+00
   5.491363e+01   7.032905e+01
  -3.050364e+01   6.935856e+01
  -7.585367e+01  -5.423996e-01
  -7.151201e+01  -3.757405e+01
   2.062998e+01  -4.451531e+00
   2.038348e+00   4.102847e+01
  -4.559338e+01   9.412111e+00
  -3.806180e+01  -8.217342e+01
  -4.598999e+01  -8.890212e+01
   6.183449e+01  -5.645038e+01
   1.648791e+02   7.286433e+01
   6.813859e+01   1.403799e+02
   2.154153e+01   9.471128e+01
  -5.153816e+01   3.004612e+01
  -5.096751e+01   4.874812e+00
  -1.801775e+01  -3.601072e+01
   1.569120e+01  -5.028163e+01
   4.765288e+01  -2.075651e+01
   1.095958e+01   1.626500e+01
   7.848622e+00  -1.998161e+00
   6.702802e+01   2.077309e+01
   5.780261e+01  -1.659494e+01
   1.601464e+01   6.565423e+01
  -8.847468e+01   1.408136e+02
  -1.530018e+02   3.778675e+01
  -1.227654e+02  -6.169428e+01
  -6.154142e+01  -1.429515e+02
   1.219750e+02  -1.584573e+02
   7.676084e+01  -7.141816e+01
   9.958166e+01   3.919499e+00
   7.587707e+01  -1.282231e+01
   3.264839e+01   3.425427e+01
   3.352294e+01   2.004480e+01
   3.775120e+01   8.820907e+01
  -4.325986e+01   7.412409e+01
  -2.468532e+01   8.014066e+01
  -8.405796e+01  -1.629799e+01
  -1.382056e+02  -8.846678e+01
  -8.865133e+00  -8.791777e+01
   5.651758e+01   6.678234e+00
   7.386070e+01   3.768489e+01
   3.529462e+01   8.436917e+01
  -3.911715e+01   7.311016e+01
  -8.411714e+01   2.640762e+00
  -5.303652e+01  -3.109059e+01
   3.090775e+01  -8.531704e+01
   4.801715e+01  -4.394904e+01
  -2.523913e+00  -8.468912e-01
  -2.112900e+01   8.497562e-01
  -4.628205e+01  -3.797123e+01
   9.742671e+01  -8.016854e+01
   9.263284e+01  -1.479522e+01
   7.298205e+01   4.331008e+01
  -1.023922e+01   9.947054e+01
  -6.837742e+01   7.031026e+01
  -3.110038e+01  -1.767899e+01
  -1.326635e+01  -3.577808e+01
   6.091174e+01  -6.221859e+01
   4.226628e+01   8.569355e+00
   3.447692e+01   8.553174e+01
   9.113745e+00   9.996947e+01
  -6.063599e+01   7.086939e+01
  -3.596722e+01  -4.490526e+01
  -1.912917e+00  -4.722912e+01
   3.181598e+01  -2.543423e+01
  -1.950129e+01  -8.687499e+00
  -1.102358e+01  -4.124705e+01
  -1.128856e+01  -6.640588e+01
   4.193978e+01  -3.669725e+01
   3.884469e+01   3.077074e+01
   3.314048e+01   9.234679e+01
  -1.526051e+01   6.271713e+01
  -4.299448e+01  -1.251777e+01
   6.037649e+00  -5.790339e+01
   2.216393e+01  -2.811784e+01
   1.091731e+02  -2.055826e+01
   7.754379e+01   9.219652e+00
  -1.561376e+01   2.124501e+01
  -4.921824e+01   4.603597e+01
  -1.054783e+00   1.225552e+01
  -1.956059e+01  -2.451475e+01
  -5.115320e+00   2.312960e+01
  -2.615971e+01  -2.714525e+01
  -6.956121e+01   4.942936e+01
