
 $NMID
 id='ANONYMOUS ', fmtdat='(2E16.6)'
 volume=1.0
 tramp=1.0
 $END
   4.509393e+03   1.927643e+01
   2.620545e+03   2.802882e+03
  -8.960237e+02   3.062618e+03
  -2.392255e+03   7.918235e+02
  -8.868370e+02  -8.256958e+02
   7.844186e+02  -4.482541e+02
   9.325897e+02   5.124394e+02
  -7.271523e+01   1.028539e+03
  -9.361191e+02   8.567910e+02
  -9.076963e+02  -2.718784e+02
  -6.157784e+02  -8.613899e+02
   2.777140e+02  -9.788114e+02
   9.166553e+02  -1.282310e+02
   4.569288e+02   8.299576e+02
  -3.496619e+02   6.746037e+02
  -5.311070e+02  -1.093169e+02
  -2.558144e+02  -7.836180e+02
   4.746345e+02  -5.543941e+02
   6.165601e+02  -3.165242e-01
   4.142909e+02   4.440376e+02
   1.619316e+01   4.624434e+02
  -6.459774e+01   8.090209e+01
  -1.624078e+02   7.278106e+01
   1.600165e+02  -1.901873e+01
   3.147130e+02   1.428307e+02
   1.173587e+02   4.663948e+02
  -5.395276e+02   4.587613e+02
  -9.662918e+02   2.488979e+01
  -4.717088e+02  -4.741296e+02
   3.988337e+02  -5.121426e+02
   7.842107e+02   5.290950e+01
   4.389504e+02   4.881095e+02
  -2.125186e+02   5.343421e+02
  -5.702110e+02   2.629236e+02
  -4.548902e+02  -1.730493e+02
  -1.439904e+02  -5.129160e+02
   1.053908e+02  -3.687932e+02
   1.555735e+02   1.967649e+02
  -1.395844e+02   4.889830e+02
  -4.589902e+02  -2.135473e+01
  -2.208945e+02  -7.200667e+02
   3.472408e+02  -8.783481e+02
   6.782157e+02  -1.092381e+01
   2.648673e+02   6.217993e+02
  -2.683480e+02   3.880529e+02
  -3.951536e+02  -3.104537e+02
   6.392383e+01  -5.247677e+02
   5.700027e+02  -5.864866e+01
   5.944597e+02   4.345359e+02
   1.296109e+02   6.308310e+02
  -3.753832e+02   3.973438e+02
  -5.968785e+02  -4.483578e+01
  -4.457172e+02  -3.782056e+02
   5.874534e+01  -4.004738e+02
   4.205481e+02  -7.498593e+01
   2.498477e+02   1.599352e+02
  -8.432493e+01   9.714956e+01
  -2.075088e+02  -1.769816e+02
   8.384558e+01  -1.837220e+02
   3.660529e+02   6.462498e+01
   1.485910e+02   2.587242e+02
  -2.142374e+02   2.252318e+02
  -4.079587e+02   3.405991e+01
  -1.887291e+02  -8.360477e+01
   3.752529e+01  -2.250435e+02
   2.467023e+02  -3.497624e+02
   3.459430e+02  -2.440887e+02
   3.076865e+02   1.905548e+02
   1.549953e+02   4.850895e+02
  -7.199798e+01   3.811590e+02
  -1.575758e+02   7.455382e+01
  -6.741136e+01   4.969587e+00
  -6.832823e+00   7.881981e+01
  -1.892388e+02   1.572256e+02
  -2.703520e+02  -5.121772e+01
  -2.149301e+02  -3.409921e+02
  -8.231320e+00  -3.133538e+02
   1.866425e+02  -3.557000e+01
   2.414999e+02   2.935790e+02
   5.249783e+01   2.986767e+02
  -2.470094e+02   1.303492e+02
  -3.261714e+02  -1.526919e+02
  -1.869231e+02  -3.382152e+02
   1.279714e+02  -2.267058e+02
   2.450032e+02  -8.760413e+01
   1.512051e+02   2.576350e+00
   3.047604e+01  -8.689463e+01
   2.269736e+02  -9.274505e+01
   4.107120e+02   9.688558e+01
   3.749986e+02   3.103333e+02
   2.076855e+01   4.752176e+02
  -4.037279e+02   4.652564e+02
  -4.828787e+02   2.436079e+02
  -3.826740e+02  -8.007703e+01
  -4.788546e+01  -3.104993e+02
   8.400735e+01  -2.938443e+02
   6.887101e+01  -2.339894e+01
  -9.894479e+01   1.642140e+02
  -2.356097e+02   2.666359e+01
  -8.386778e+01  -1.918907e+02
   1.088125e+02  -1.965057e+02
   1.868261e+02   1.700326e+01
   9.810619e+00   1.495939e+02
  -1.685771e+02   2.604948e+01
  -1.690990e+02  -2.061317e+02
   3.712474e+01  -3.093143e+02
   1.799084e+02  -1.424225e+02
   2.914049e+02   3.140403e+01
   2.812141e+02   1.949647e+02
   1.505133e+02   2.850882e+02
  -9.848219e+01   1.670804e+02
  -2.133385e+02   4.243048e+01
  -1.068268e+02  -3.748344e+01
   4.590934e+01   1.012458e+02
   6.558123e+01   1.279036e+02
  -7.883928e+01   9.604186e+01
  -2.058779e+02  -2.858312e+01
  -9.481548e+01  -9.157207e+01
   3.489141e+01   2.780235e+01
   5.670481e+01   7.325701e+01
  -1.328713e+02   7.388521e+01
  -2.810537e+02   1.719529e+01
  -2.535977e+02  -5.300905e+01
  -5.696945e+01  -2.123909e+02
   1.432875e+02  -3.174499e+02
   2.142200e+02  -1.700765e+02
   1.280801e+02   1.875322e+01
   2.743981e+01   1.546610e+02
  -5.668533e+01   2.675431e+00
   6.017167e+01  -1.302072e+02
   2.009462e+02  -5.612186e+01
   1.965488e+02   1.660590e+02
   9.247825e+01   2.335093e+02
  -6.340512e+01   1.299641e+02
  -1.577414e+02   3.301965e+01
  -8.370788e+01  -5.522986e+01
   3.508356e+01   1.721006e+01
   6.577577e+01   1.176565e+02
  -7.511470e+01   1.320917e+02
  -1.602314e+02   5.501507e+01
  -2.471670e+02  -1.585755e+02
  -2.416703e+01  -2.215463e+02
   1.792805e+02  -1.600154e+02
   1.915799e+02  -8.725389e-01
   5.769439e+01   1.180945e+02
  -5.024776e+01   1.146200e+02
  -9.700182e+01   6.210146e+01
  -7.437052e+01  -2.195628e+01
  -4.660914e+01  -2.062392e+01
  -1.797331e+01  -4.750575e+01
  -6.155931e+01  -5.176553e+01
  -4.226840e+01  -1.041815e+02
  -4.138963e+00  -1.711995e+02
   1.156270e+02  -9.080118e+01
   3.034147e+02  -6.647822e+01
   2.325930e+02   1.479356e+02
   3.597288e+01   2.224472e+02
  -9.764779e+01   1.499744e+02
  -1.043142e+02   3.513088e+01
  -1.031209e+02  -7.682680e+00
  -1.594290e+01  -5.130167e+01
  -1.110009e+02   3.136086e+01
  -1.314921e+02   3.845012e+01
  -1.348687e+01  -6.805497e+01
   2.883369e+01  -1.003815e+02
   1.572901e+01  -7.621186e+01
   1.830744e+01  -6.717559e+00
   2.077782e+01   1.413728e+02
  -1.125809e+02   1.034175e+02
  -1.428101e+02  -2.364773e+01
  -7.829032e+01  -2.185031e+02
   6.445434e+01  -1.925782e+02
   2.728167e+02  -1.536612e+02
   2.484718e+02   9.279260e+01
   6.970173e+01   1.775102e+02
  -4.346578e+01   1.246715e+02
  -1.247712e+02   6.875967e+01
  -9.986480e+01   1.149711e+02
  -8.896392e+01   1.305947e+02
  -1.535231e+02   5.526565e+01
  -1.864789e+02  -3.211413e+01
  -1.214595e+02  -1.835364e+02
   3.258323e+01  -3.172715e+02
   1.421609e+02  -1.537492e+02
   2.311310e+02  -3.481002e+01
   1.873133e+02   1.431800e+02
   8.261190e+01   1.688055e+02
  -3.867404e+01   1.140122e+02
  -7.350034e+01   1.566295e+01
  -1.819070e+01  -3.842051e+01
  -1.990129e+01   1.687138e+01
  -7.680790e+01  -2.204467e+01
  -7.694581e+01  -9.804694e+00
  -1.068911e+01  -7.112708e+01
   7.869266e+01  -7.075972e+01
   1.708931e+02   4.372163e+00
   1.420829e+02   5.572874e+01
   3.837064e+01   7.566180e+01
  -7.094848e+01   7.219301e+01
  -9.601369e+01   2.530251e+01
  -5.588538e+01  -4.833707e+01
   7.456109e+01   1.083884e+01
   4.666912e+01   1.837232e+01
   1.301023e+01   5.385071e+01
  -8.059084e+01   3.852810e+01
  -9.219071e+01  -1.618537e+01
  -4.302952e+01  -1.252008e+01
   5.040282e+00   1.071590e+00
  -7.391946e+01   4.632026e+00
  -1.240969e+02  -9.411184e-01
  -3.671888e+01  -9.627986e+01
  -1.987992e+01  -1.766334e+02
   7.768270e+01  -1.963592e+02
   1.469019e+02  -7.696670e+01
   1.920711e+02   2.185210e+01
   2.740419e+01   1.164081e+02
  -5.864423e+01   7.315890e+01
  -3.708814e+01   1.112542e+01
   8.399750e+01  -2.136927e+01
   1.210437e+02   7.541415e+01
   1.109680e+02   1.152316e+02
  -1.435652e+02   1.397403e+02
  -2.411477e+02   9.981156e+01
  -1.672345e+02  -1.344175e+01
  -8.674759e+00  -7.748584e+01
   5.659321e+01  -1.114596e+02
   6.528727e+01  -2.578855e+01
  -4.401796e+01   3.484256e+01
  -9.844672e+01   1.678972e+01
  -3.056514e+01  -9.464344e+01
   4.235427e+01  -1.212221e+02
   1.694563e+02  -6.051371e+01
   1.440084e+02   3.700744e+01
  -7.323113e+00   2.091107e+02
  -9.717547e+01   1.101690e+02
  -1.203104e+02   5.337197e+01
  -6.683081e+01  -1.214243e+02
  -1.831568e+01  -1.095596e+02
   3.325953e+01  -2.436460e+01
   4.437117e+01   2.443142e+01
   4.135532e+01   5.242983e+01
   1.932140e+01  -3.122559e+00
   2.876699e+01   4.324660e+00
   4.273071e+01   7.715621e+01
   5.162053e+01   7.711050e+01
   1.051974e+01   3.499013e+01
  -8.417704e+01  -4.508489e+01
  -7.917682e+01  -2.744069e+01
   1.363579e+01  -5.246415e+01
   6.767077e+01  -1.134520e+00
   9.057442e+01  -5.468753e+00
   3.550767e+01   5.013210e+01
  -2.861693e+01   5.657243e+01
  -4.460642e+01   1.499399e+01
  -1.395124e+01  -1.589242e+00
   3.127552e+01  -6.280171e+01
  -7.825978e+01   2.820515e+01
  -6.667944e+01  -4.469584e+01
  -2.936475e+01  -7.372424e+01
   8.829693e+01  -1.178521e+02
   1.699314e+02  -8.972893e+01
   1.813372e+02   1.052345e+02
   6.056381e+01   1.770178e+02
  -4.708211e+01   1.303440e+02
  -1.111053e+02   9.594003e+01
  -1.244289e+02  -1.605874e+01
  -5.666732e+00  -1.536965e+01
   3.346353e+01  -6.480404e+01
  -3.399235e+00  -1.578576e+01
  -2.500804e+01  -8.727038e+01
  -2.907557e+01  -1.151060e+02
   3.124326e+01  -1.100958e+02
   8.070241e+01  -7.951483e+00
   9.823021e+01   1.400143e+02
   1.373771e+01   1.294937e+02
  -5.324859e+01   3.870362e+01
  -1.288725e+02  -8.779897e+01
  -7.859807e+01  -9.193878e+01
   6.796663e+01  -7.271350e+01
   1.001543e+02   7.256802e+00
   9.447461e+01   6.124055e+01
   3.630797e+01   5.830160e+01
  -2.327933e+01   5.290797e+01
   2.478419e+01   1.555672e+01
   6.758848e+01   1.349839e+01
  -5.468234e-01   2.141861e+01
  -1.009160e+02   7.111057e+01
  -1.309224e+02   4.932313e+01
  -5.683873e+01   1.678321e+01
   8.199252e+01  -9.235460e+01
   3.637785e+01  -8.196317e+01
   2.597982e+01  -1.566851e-01
   4.550137e+00   4.537923e+01
  -2.394672e+01   7.706027e+01
  -6.105663e+01  -2.369460e+01
  -8.553590e+01  -8.827660e+01
   1.329574e+01  -6.071679e+01
   1.610762e+01   9.648099e-01
   7.166870e+01   5.818920e+01
   5.043166e+01  -4.977568e-01
   1.268095e+01  -1.549508e+01
   8.453877e+01  -1.822056e+01
   3.994093e+01   2.772293e+01
   4.190546e+00   2.333760e+01
  -5.462088e+01   3.066074e+01
  -4.493193e+01   2.414466e+01
   2.501960e+01  -6.093241e+01
   3.978640e+01  -1.216409e+01
   4.062558e+01   2.067165e+01
   1.142179e+01   6.705816e+01
  -6.574414e+01   4.395441e+01
  -7.360236e+01  -6.338566e+01
  -9.524863e+01  -5.185036e+00
   6.261240e+01  -5.717804e+01
   5.850042e+00  -1.611280e+01
   5.981710e+00   3.390388e+01
  -2.272095e+01  -1.191836e+01
  -6.112209e+01   1.869619e+00
   4.111975e+01  -5.906775e+01
   6.380937e+01  -3.071738e+01
