
 $NMID
 id='ANONYMOUS ', fmtdat='(2E16.6)'
 volume=1.0
 tramp=1.0
 $END
   3.245482e+03   2.847777e+02
   1.887503e+03   1.533526e+03
  -7.161634e+01   1.992620e+03
  -1.470185e+03   1.005234e+03
  -1.065287e+03  -1.029924e+02
   1.345234e+02  -1.117553e+02
   2.962267e+02   2.387453e+02
   4.979026e+01   8.244957e+02
  -5.195912e+02   4.873068e+02
  -6.080911e+02  -1.152833e+02
  -3.315812e+02  -5.955569e+02
   8.827506e+01  -6.481812e+02
   3.583861e+02  -3.632530e+01
   1.724990e+02   5.435154e+02
  -2.323309e+01   4.369363e+02
  -2.957711e+02   1.247112e+01
  -3.435120e+02  -4.759451e+02
   1.859988e+02  -5.404514e+02
   3.970310e+02  -2.940743e+02
   3.136916e+02   3.007721e+01
   2.882289e+02   4.692116e+02
   6.747669e+01   2.612694e+02
   1.173511e+02   3.279568e+02
   1.914539e+02  -1.974019e+01
   3.987380e+02   1.951043e+02
  -2.107986e+00   2.777327e+02
  -4.810948e+02   2.985799e+02
  -7.432905e+02  -1.121628e+02
  -2.323247e+02  -4.187208e+02
   2.905121e+02  -1.690384e+02
   5.636707e+02   1.199735e+02
   2.599008e+02   2.971349e+02
  -2.575126e+02   3.950908e+02
  -5.426640e+02   7.241107e+01
  -3.831065e+02  -1.900897e+02
  -1.086436e+02  -3.216539e+02
  -2.682159e+00  -1.795026e+02
   9.532227e-01   7.410215e+01
  -1.463695e+02   1.820096e+02
  -1.214899e+02  -1.896004e+02
   5.079956e+01  -5.070965e+02
   2.953531e+02  -5.073687e+02
   3.464306e+02  -1.711153e+01
   1.831805e+02   2.748664e+02
  -1.076478e+02   1.753124e+02
  -8.294669e+01  -2.443248e+02
   1.974097e+02  -3.775551e+02
   4.175331e+02  -6.501946e+01
   4.693233e+02   3.888860e+02
   1.689302e+02   5.481105e+02
  -2.897633e+02   2.851749e+02
  -4.566538e+02  -5.379092e+01
  -3.179935e+02  -2.871123e+02
  -2.716367e+01  -2.469623e+02
   2.231559e+02  -5.840505e+01
   2.210910e+02   5.211836e+01
   7.978765e+01   2.395466e+01
  -1.540583e+01  -5.439388e+01
   1.219160e+02  -3.485034e+01
   2.332276e+02   9.171416e+01
   1.088879e+02   2.307050e+02
  -1.842501e+02   2.533276e+02
  -4.198608e+02   1.291786e+02
  -3.212395e+02  -8.487422e+01
   2.723418e+01  -2.819837e+02
   3.597982e+02  -3.672262e+02
   4.024697e+02  -1.972207e+02
   2.392698e+02   1.739973e+02
   2.296776e+01   4.068152e+02
  -9.768344e+01   3.992966e+02
  -1.888593e+01   1.888930e+02
   4.437125e+00   7.071310e+01
  -1.031181e+02   1.215593e+02
  -2.671350e+02   1.089533e+02
  -3.028068e+02  -7.945989e+01
  -1.496034e+02  -2.475906e+02
   9.050780e+01  -2.080809e+02
   1.703600e+02   6.505674e+01
   1.031992e+02   2.501824e+02
  -1.252721e+02   2.387988e+02
  -2.912846e+02   4.208599e+01
  -3.213880e+02  -2.373932e+02
  -1.481382e+02  -3.211941e+02
   5.873038e+01  -3.032717e+02
   1.879987e+02  -1.805554e+02
   2.593703e+02  -1.219696e+02
   2.599869e+02  -7.790673e+01
   3.247860e+02   2.107840e-01
   4.256894e+02   1.518923e+02
   2.939062e+02   3.080541e+02
  -3.936203e+00   4.630269e+02
  -4.112881e+02   4.447016e+02
  -5.474098e+02   1.688889e+02
  -3.361306e+02  -1.318926e+02
  -1.395213e+00  -3.031122e+02
   1.722872e+02  -2.335212e+02
   5.856646e+01  -5.849448e+01
  -1.583676e+02   4.546047e+01
  -1.408724e+02  -3.013637e+01
  -4.243804e+01  -1.696392e+02
   1.506491e+02  -7.580081e+01
   1.873154e+02   6.730296e+01
  -2.479142e+01   1.322258e+02
  -1.637694e+02   5.455940e-01
  -1.859634e+02  -2.823293e+02
  -2.677404e+01  -4.109847e+02
   2.371425e+02  -2.079798e+02
   3.717939e+02   9.157250e+01
   3.150251e+02   2.997268e+02
   7.287349e+01   3.157345e+02
  -1.704656e+02   1.038331e+02
  -1.677729e+02  -2.979770e+01
  -5.391949e+01  -6.575873e+01
   2.719454e+01   2.617644e+01
   9.893844e+00   1.488554e+02
  -1.279715e+02   1.045350e+02
  -1.471445e+02  -5.364319e+01
   4.300578e+01  -6.861071e+01
   6.982422e+01  -4.938312e+00
   9.481604e+00   9.454702e+01
  -1.508040e+02   1.393053e+02
  -3.295673e+02   1.672185e+01
  -2.774525e+02  -1.311680e+02
  -2.085227e+01  -2.510031e+02
   1.470360e+02  -2.314993e+02
   2.844583e+02  -2.323095e+01
   1.461518e+02   2.810738e+01
  -5.865924e+01   2.342733e+01
  -1.036347e+02  -2.928827e+01
   4.415132e+01  -1.034294e+02
   2.061827e+02  -1.482505e+01
   2.048177e+02   1.500174e+02
   9.413849e+01   1.755030e+02
  -1.135187e+02   9.497330e+01
  -1.462453e+02  -1.070200e+01
  -3.856387e+01  -4.000333e+01
   4.866469e+01   2.500430e+01
   5.700897e+01   1.305145e+02
  -1.033193e+02   1.386003e+02
  -2.691622e+02   1.708965e+01
  -1.735562e+02  -1.666664e+02
   4.506380e+01  -2.450612e+02
   1.462183e+02  -1.603868e+02
   1.902880e+02  -3.965618e+01
   7.938191e+01   6.930636e+01
  -1.785678e+01   1.386668e+02
  -5.097151e+01   6.185776e+01
  -3.421198e+00   1.874418e+01
   2.680873e+01  -2.335426e+01
  -2.439365e+01   3.716001e+01
  -1.218516e+02   5.656325e-01
  -1.113391e+02  -8.743722e+01
   1.059270e+01  -2.206145e+02
   1.377240e+02  -1.845049e+02
   2.620139e+02   2.340663e+00
   1.621582e+02   2.202165e+02
   1.917466e+01   2.708594e+02
  -1.444578e+02   1.817517e+02
  -1.476319e+02  -6.042580e+00
  -8.154941e+01  -6.514352e+01
  -4.179783e+01  -5.612471e+01
  -7.416693e+01   9.307325e+00
  -7.568731e+01   1.101175e+01
  -2.428357e+01  -6.500440e+01
   9.938202e+01  -1.286699e+02
   1.387935e+02  -6.471983e+01
   1.243557e+02   9.567397e+01
  -8.249972e+00   1.427112e+02
  -2.128799e+02   1.331675e+02
  -2.293649e+02  -5.579199e+01
  -1.085237e+02  -1.979954e+02
   1.193672e+02  -2.198548e+02
   2.325176e+02  -9.669006e+01
   2.445869e+02   6.440010e+01
   7.629820e+01   2.041341e+02
  -3.676175e+01   1.584233e+02
  -7.388631e+01   4.012007e+01
  -6.575105e+01   4.418742e+01
  -9.081932e+01   1.058961e+02
  -7.441903e+01   1.109282e+02
  -1.148489e+02  -6.879855e+01
  -8.825585e+01  -1.572006e+02
   2.377405e+01  -2.328392e+02
   1.069667e+02  -1.664372e+02
   1.676808e+02   1.623009e+01
   1.232159e+02   2.013103e+02
   3.087454e+01   1.121796e+02
  -4.651258e+01   2.638817e+01
   1.980547e+01  -2.479206e+01
  -2.421437e+01  -3.417809e+01
   4.368773e+01   4.074842e+01
  -4.162064e+01   1.932441e+01
  -9.089866e+01  -4.343730e+01
  -7.673653e+01  -9.766966e+01
   1.272599e+02  -3.146449e+01
   2.017038e+02  -2.480019e+01
   1.566551e+02   9.768901e+01
   1.079106e+01   1.275383e+02
  -2.019793e+02   6.908722e+01
  -1.547875e+02   7.836869e+00
  -6.452645e+00  -5.549902e+01
   6.145023e+01  -2.452851e+01
   6.412180e+01   1.080835e+00
   6.085991e+01   5.759746e+01
  -5.812299e+01   4.005640e+01
  -6.572226e+01   3.451962e+00
  -5.654794e+01  -5.613631e+01
  -1.340385e+00  -5.395895e+01
  -6.557129e+01  -3.818581e+01
  -7.795769e+01  -7.105337e+00
  -5.697671e+01  -9.877706e+01
   3.427975e+01  -1.059294e+02
   1.606774e+02  -8.543152e+01
   1.463479e+02  -4.984346e+01
   9.656198e+01   7.927686e+01
  -2.705209e+01   1.565932e+02
  -1.041879e+02   5.140122e+01
  -8.113746e+01  -6.426460e+01
   5.876201e+01  -9.177989e+00
   5.538276e+01   1.028512e+01
   7.968291e+01   1.175752e+02
  -1.145026e+02   1.115467e+02
  -1.674151e+02   3.919462e+01
  -1.875650e+02  -7.133441e+01
  -1.582022e+01  -7.428079e+01
   2.865793e+01  -6.212373e+01
   3.663545e+01   1.172909e+01
  -5.723688e+01   4.848903e+00
  -1.128435e+02  -2.637034e+01
   1.039967e+01  -1.434091e+02
   7.790170e+01  -1.584596e+02
   1.129243e+02  -4.510691e+00
   9.886620e+01   8.885471e+01
   1.049188e+01   1.611374e+02
  -7.575140e+01   1.529345e+02
  -7.847576e+01  -4.666284e+01
  -5.470499e+01  -1.359994e+02
  -2.105573e+01  -7.258169e+01
   5.818737e+01  -9.617281e+00
   5.231324e+01   4.483706e+01
   3.287513e+01  -8.812975e+00
  -3.805923e-01  -1.065404e+01
   5.880894e+01   3.415168e+01
   2.326426e+01   7.529949e+01
   4.836204e+01   9.314276e+01
  -3.999047e+01   8.456281e+01
  -1.340012e+02  -3.082917e+01
  -1.132604e+02  -1.230717e+02
   8.838261e+00  -3.982404e+01
   6.907598e+01  -3.640638e+01
   8.382936e+01  -4.350680e+01
  -4.983402e+01  -7.344388e-01
   1.901853e+01  -5.144237e+00
  -1.530151e+01  -8.638466e+00
   6.278126e+01   6.178709e+01
  -5.443061e+00   8.397654e+00
  -5.433686e+01   3.885044e+01
  -1.077782e+02  -1.521194e+01
  -8.848364e+00  -8.657005e+01
   9.853620e+01  -1.146487e+02
   2.026405e+02  -2.593373e+01
   1.604454e+02   9.202720e+01
   3.287169e+01   1.640310e+02
  -1.051711e+02   1.241295e+02
  -9.900308e+01   1.038470e+02
  -5.436566e+01  -1.834269e+01
  -1.582572e+01   9.140506e+00
  -5.634095e+01  -1.967733e+01
  -1.866189e+01   1.280914e+01
  -3.944355e+01  -5.294533e+01
  -2.520310e+01  -1.170316e+02
   3.930018e+01  -8.503012e+01
   6.085016e+01   1.070278e+01
   1.044618e+02   9.241892e+01
   2.783814e+01   1.336836e+02
  -1.478795e+02  -1.490426e+01
  -9.448726e+01  -5.051605e+01
   1.134234e+01  -1.499395e+02
   1.036951e+02  -3.676226e+01
   7.758692e+01   4.386675e+01
   3.710046e+01   5.090028e+01
  -8.012296e+01   6.223091e+01
  -6.164209e+00  -2.841646e+01
   1.755669e+01  -5.535481e+01
   9.030020e+01  -5.377459e+01
   1.583247e+01   1.144325e+01
  -2.599790e+01   9.366490e+01
  -9.258262e+01   2.774573e+01
  -8.164695e+01  -4.184429e+00
   8.261657e+00  -8.720036e+01
   4.044061e+01  -9.969128e+01
   3.909678e+01   2.372030e+00
  -4.510021e+00   6.861984e+01
  -2.484105e+01   3.061167e+01
  -1.991544e+01   2.494747e+01
  -5.440561e+01  -5.413072e+01
  -5.294413e+01  -5.859557e+01
   5.244258e+01  -2.081791e+01
   2.138659e+01   3.524220e+01
   1.820265e+01   8.339540e+00
   2.596409e+00  -5.309778e+01
   2.420227e+01  -2.007890e+01
  -6.665375e+00   1.549745e+01
  -2.424079e+01   1.590681e+01
  -4.489299e+01  -2.355443e+00
  -9.030710e+00   2.583357e+01
  -1.248323e+01  -5.902471e+01
   1.334879e+01  -7.829023e+01
   7.770655e+01   2.290860e+01
  -1.939007e+01   8.578760e+01
  -4.576849e+01   4.965848e+01
  -9.648416e+01   1.316869e+01
  -4.352083e+01  -9.866123e+01
   3.941871e+00  -4.539496e+01
   8.116921e+01   9.267492e+00
  -2.602014e+01  -5.196291e+00
  -1.244641e+00   1.091739e+01
  -1.687094e+01  -3.800790e+00
   1.109210e+01  -3.457956e+01
   1.033872e+02  -7.197435e+00
