
 $NMID
 id='ANONYMOUS ', fmtdat='(2E16.6)'
 volume=1.0
 tramp=1.0
 $END
   3.055808e+03   4.550668e+02
   2.003404e+03   1.522540e+03
   4.008651e+01   2.027542e+03
  -1.244025e+03   1.282674e+03
  -9.139579e+02   3.939708e+02
  -1.869723e+02  -6.460974e+01
   2.998154e+02   1.231027e+02
  -6.959899e+01   5.206076e+02
  -5.832821e+02   5.299051e+02
  -5.735654e+02   3.325619e+00
  -5.177157e+02  -5.902328e+02
  -5.058156e+01  -4.475048e+02
   3.042459e+02  -2.466340e+02
   3.061632e+02   4.851626e+02
  -1.598206e+02   5.383099e+02
  -4.913419e+02  -1.617710e+01
  -4.425729e+02  -4.644485e+02
   4.333832e+01  -6.000498e+02
   4.278118e+02  -2.997182e+02
   3.447040e+02   1.109939e+02
   1.721635e+02   3.905994e+02
  -2.230278e+02   2.236904e+02
  -2.397865e+02   1.584373e+02
   2.914593e+02   1.619534e+02
   1.603000e+02   2.749958e+02
  -2.444278e+02   3.769227e+02
  -5.938618e+02   6.567226e+01
  -6.062091e+02  -2.782179e+02
  -5.251056e+01  -2.429297e+02
   4.940115e+02  -4.332341e+01
   4.384368e+02   2.045585e+02
   1.367101e+02   4.559177e+02
  -2.646639e+02   2.141345e+02
  -4.185842e+02   1.330073e+02
  -3.322961e+02  -7.609134e+01
  -1.604595e+02  -2.792619e+02
  -9.636047e+01  -2.305303e+02
  -6.635982e+01   4.077215e+00
  -1.593368e+02   7.002627e+01
  -1.424085e+02  -1.057818e+02
   6.622246e+01  -4.522275e+02
   1.468708e+02  -3.904826e+02
   2.302641e+02  -4.317097e+01
   1.531781e+02   2.245003e+02
  -7.061121e+01   1.601460e+02
  -6.193352e+01  -2.009414e+02
   1.335607e+02  -2.988120e+02
   3.976813e+02  -1.395020e+01
   4.144649e+02   4.072976e+02
   1.249627e+02   4.588376e+02
  -2.973584e+02   2.516453e+02
  -4.502691e+02  -2.328031e+01
  -3.561220e+02  -1.741551e+02
  -5.605034e+00  -1.692164e+02
   1.840485e+02  -1.290850e+02
   1.921968e+02  -6.568934e+01
   8.954270e+01  -3.333361e+01
   6.339931e+01   6.103499e+00
   1.227911e+02   1.623459e+00
   1.842470e+02   8.035372e+01
   1.060437e+02   1.216452e+02
  -1.249862e+02   2.559968e+02
  -3.241970e+02   1.585907e+02
  -2.174968e+02  -4.944000e+01
   2.706035e+01  -2.663817e+02
   2.984892e+02  -2.978212e+02
   3.464729e+02  -9.412283e+01
   2.087412e+02   1.796992e+02
   7.218028e+01   3.447260e+02
  -4.171049e+01   3.197775e+02
  -1.990307e+01   2.457497e+02
  -7.047603e+01   2.024826e+02
  -2.335408e+02   1.321114e+02
  -2.592520e+02   5.462283e+01
  -2.909637e+02  -1.496591e+02
  -1.442830e+02  -2.646351e+02
   6.951042e+01  -2.515120e+02
   1.473136e+02   5.785010e+01
   1.299233e+02   2.359879e+02
  -3.527192e+01   2.313738e+02
  -2.253563e+02   1.136305e+01
  -2.382442e+02  -2.141354e+02
  -1.036720e+02  -2.883881e+02
   3.984204e+01  -2.355660e+02
   1.282474e+02  -7.864928e+01
   1.394996e+02  -6.956038e+01
   1.368483e+02  -1.461496e+01
   2.774853e+02  -3.789622e+01
   3.862364e+02   1.721445e+02
   2.835950e+02   3.296810e+02
  -5.644124e+01   4.910962e+02
  -4.245347e+02   3.965043e+02
  -5.040774e+02   1.500286e+02
  -3.337715e+02  -1.073130e+02
  -2.541109e+01  -2.706826e+02
   8.692732e+01  -2.145286e+02
  -6.874076e+01  -3.938946e+01
  -1.527670e+02  -5.444552e+00
  -9.565353e+01  -1.064426e+02
  -2.841966e+01  -1.357092e+02
   1.190621e+02  -9.245769e+01
   1.232955e+02   4.349299e+01
  -2.778030e+00   1.367007e+02
  -1.122821e+02  -7.604518e-01
  -1.375665e+02  -2.372535e+02
   7.150736e+01  -3.148819e+02
   1.763810e+02  -1.742514e+02
   2.699512e+02   9.329789e+01
   2.620457e+02   2.637790e+02
   6.320812e+01   2.516654e+02
  -1.368504e+02   1.246742e+02
  -1.211313e+02  -9.880677e-01
  -2.930510e+01  -8.913541e+00
   2.142874e+01   7.566513e+01
  -9.181873e+00   1.148665e+02
  -1.419947e+02   8.285252e+01
  -1.442096e+02  -4.090960e+00
   8.175237e+00  -8.364692e+01
   7.938861e+01   1.268842e+01
   5.721094e+01   9.991856e+01
  -1.831882e+02   1.047759e+02
  -3.330072e+02  -2.022594e+01
  -3.002954e+02  -1.763857e+02
   2.650599e+01  -2.862767e+02
   2.270156e+02  -2.480001e+02
   2.726489e+02  -1.046298e+02
   1.398152e+02   1.040263e+02
  -6.871257e+01   7.683601e+01
  -6.426781e+01  -3.133704e+01
   5.286483e+01  -7.383864e+01
   1.995547e+02  -5.503244e+01
   1.940786e+02   9.156803e+01
   1.133526e+02   2.522974e+02
  -1.168411e+02   1.972173e+02
  -1.641718e+02   3.112566e+01
  -6.682957e+01  -3.014349e+01
   2.611402e+01  -7.230142e+00
   1.929146e+01   7.125016e+01
  -7.701588e+01   1.192119e+02
  -1.837819e+02   1.616372e+01
  -2.430802e+02  -1.094852e+02
   6.528161e+00  -2.003387e+02
   1.759232e+02  -1.528260e+02
   2.111010e+02  -7.489236e+00
   2.123056e+01   1.236151e+02
  -9.528479e+01   1.000615e+02
  -1.076546e+02   4.266415e+00
  -6.266989e+01  -1.235388e+01
   5.008430e+01  -4.814647e+01
  -2.250368e+01   1.687508e+01
  -7.117958e+01   1.606957e+01
  -8.583644e+01  -6.725012e+01
  -2.730380e+01  -1.904604e+02
   1.393099e+02  -1.466805e+02
   1.783980e+02  -7.885452e+00
   1.409744e+02   2.105079e+02
   6.140853e+01   2.414392e+02
  -9.555302e+01   1.318380e+02
  -1.372388e+02   1.622266e+01
  -5.642661e+01  -1.170872e+02
  -3.388125e+01  -4.976736e+01
  -4.188498e+01   6.347995e+01
  -9.564666e+01   3.898069e+01
  -1.044058e+02  -6.453323e+01
   1.243963e+01  -1.015670e+02
   1.321446e+02  -9.334586e+01
   1.254911e+02   2.985989e+01
  -2.678721e+01   1.596567e+02
  -1.272324e+02   1.039156e+02
  -2.330867e+02  -9.001041e+01
  -8.459820e+01  -2.120846e+02
   1.254861e+02  -2.023892e+02
   2.814950e+02  -8.342043e+01
   2.673084e+02   9.681771e+01
   1.094835e+02   2.452359e+02
  -8.745941e+01   1.550176e+02
  -1.127319e+02   4.485410e+01
  -5.849174e+01   3.938125e+01
  -8.471253e+01   5.969381e+01
  -5.358343e+01   5.246659e+01
  -1.078168e+02  -7.199005e+00
  -1.004542e+02  -1.609314e+02
  -1.561672e+01  -2.456276e+02
   1.405789e+02  -2.115964e+02
   1.833926e+02   1.606307e+01
   1.589233e+02   1.395715e+02
   1.199154e+01   1.635664e+02
  -8.423400e+01   7.498742e+01
  -7.361118e+01  -6.679010e+00
  -2.472895e+01  -9.145278e+01
  -3.576115e+00  -3.521538e+01
  -1.801712e+00   8.062213e-01
  -1.693655e+01  -9.172898e+00
  -8.472749e+00  -5.589109e+01
   8.366312e+01  -5.179710e+01
   1.627781e+02   2.428930e+01
   5.506678e+01   6.447108e+01
  -5.163961e+01   1.102381e+02
  -1.582702e+02   1.090873e+02
  -1.635262e+02  -5.529589e+00
  -1.437560e+01  -7.396409e+01
   5.423149e+01  -7.004109e+01
   9.557017e+01   1.656940e+01
   3.548356e+01   1.045129e+02
  -1.768430e+01   7.875095e+01
  -7.257218e+01   2.848351e+01
  -2.295868e+01  -2.684416e+01
  -8.397080e+01  -2.952263e+01
  -1.001912e+02  -3.686769e+00
  -8.326178e+01   1.354139e+01
  -5.281423e+01  -8.715855e+01
   2.617259e+01  -1.508863e+02
   2.011611e+02  -1.536524e+02
   2.141386e+02  -3.981785e+01
   9.813163e+01   1.000241e+02
   2.809359e+00   1.114881e+02
  -8.721276e+01   6.730161e+01
  -4.235465e+01  -4.457859e+01
   1.245456e+02  -3.923787e+01
   1.013943e+02   6.005566e+01
   5.687974e+01   1.425236e+02
  -1.186964e+02   1.288237e+02
  -1.990825e+02   8.506081e+01
  -1.751841e+02  -3.039200e+01
   3.598529e+00  -1.123506e+02
   1.289984e+01  -5.706219e+01
   5.744938e+01   3.500122e+01
  -2.448723e+01   3.740895e+01
  -1.156009e+02  -3.919563e+01
  -6.469377e+01  -1.476013e+02
   6.127274e+01  -1.903986e+02
   1.395957e+02  -8.721596e+01
   1.534307e+02   9.868176e+01
   5.088747e+01   1.884106e+02
  -8.964813e+01   1.261276e+02
  -8.365817e+01  -8.030027e+00
  -2.036331e+01  -1.293134e+02
   3.664166e+00  -1.154710e+02
   2.692453e+01  -4.233287e+01
   6.709224e+01  -2.506326e+01
   4.212464e+01   2.530233e+00
   1.382956e+01  -2.926226e+01
   9.125508e+00   4.498215e+00
   3.120538e+01   9.705757e+01
   6.086743e+01   1.592568e+02
  -2.910486e+01   6.867497e+01
  -1.630774e+02  -4.673585e+01
  -1.118009e+02  -1.048645e+02
  -2.705912e+01  -2.498687e+01
   6.960537e+01  -2.813786e+01
   7.783364e+01  -1.312325e+01
   3.402200e+01   3.998237e+01
  -2.315406e+01   1.640070e+01
   1.651178e+00   2.959396e+01
  -1.249080e+01  -9.125550e+00
  -6.990746e+00  -4.922433e+01
  -9.957786e+01  -2.494055e+01
  -1.170037e+02  -1.459959e+01
  -8.565959e+00  -1.012782e+02
   9.122262e+01  -8.591119e+01
   1.758776e+02  -5.019444e+01
   1.242890e+02   8.301390e+01
   5.268158e+01   1.568543e+02
  -1.122813e+02   1.368847e+02
  -1.609314e+02   5.715942e+01
  -3.782230e+01  -2.728717e+01
   1.142356e+01  -2.299593e+01
  -1.562137e+01   3.044966e+01
   1.719552e+01  -2.025058e+01
  -3.335119e+01  -4.003185e+01
  -3.125529e+01  -3.294681e+01
   6.390096e+01  -6.972215e+01
   6.710863e+01  -3.774093e+01
   7.461140e+01   5.430592e+01
   5.519990e+01   1.048029e+02
  -3.505058e+01   2.810703e+01
  -1.230252e+02  -3.334530e+01
  -4.955827e+01  -6.566958e+01
   8.556301e+01  -3.519443e+01
   7.883613e+01   1.033309e+01
   4.987556e+01   3.548942e+01
  -3.105898e+01   1.129899e+01
  -4.760001e+01   1.660845e+01
   6.769483e+01  -5.105777e+01
   1.270830e+02  -3.178613e+01
   5.637620e+00   3.385567e+01
  -1.219320e+02   5.436377e+01
  -1.219692e+02   1.710647e+01
  -6.294543e+01  -1.770243e+01
   1.807606e+01  -1.206360e+02
   9.296782e+01  -1.241424e+02
   6.390904e+01   1.582702e+01
   3.039164e+01   9.333748e+01
  -3.876521e+01   9.318986e+01
  -7.135861e+01   4.737620e+00
  -4.491367e+01  -3.589296e+01
   1.652146e+01  -4.665354e+01
   2.194183e+01  -2.714741e+01
   6.834941e+01   2.109172e+01
   3.563760e+01  -8.014802e+00
  -2.186115e+01  -1.916365e+01
  -3.142194e+00   2.646848e+01
   1.216185e+01   4.168369e+01
   4.985364e+00   1.953647e+01
  -2.529340e+01   2.762572e+01
  -1.192477e+01  -4.253530e+01
  -1.433080e+01  -6.394112e+01
   1.620874e+01  -2.809135e+01
   3.800948e+01   3.656453e+01
  -5.228612e+00   5.257698e+01
  -2.050913e+01   4.151437e+01
  -7.204361e+01  -1.586837e+01
  -6.039786e+01  -3.428126e+00
   3.519521e+01  -1.756265e+01
   5.908239e+01  -1.782325e+01
   2.165507e+01   1.403684e+01
  -3.831597e+01  -3.926621e+01
  -4.931673e+01   4.513428e+00
   1.535533e+01   4.791900e-01
   1.014859e+02   2.559238e+01
