
 $NMID
 id='ANONYMOUS ', fmtdat='(2E16.6)'
 volume=1.0
 tramp=1.0
 $END
   2.259043e+03  -1.389728e+02
   1.112603e+03   9.613979e+02
  -1.094723e+02   1.376567e+03
  -1.132022e+03   6.579378e+02
  -6.649404e+02  -3.578905e+02
   7.621026e+01  -3.801064e+02
   4.651902e+02   3.301965e+02
  -2.850519e+01   5.024691e+02
  -2.798996e+02   5.045102e+02
  -5.685135e+02  -8.163909e+01
  -3.562001e+02  -3.749325e+02
  -6.130431e+01  -5.375310e+02
   3.432024e+02  -1.510518e+02
  -3.524109e+01   2.594472e+02
  -1.263664e+02   4.070608e+02
  -2.998745e+02  -5.718245e+01
  -1.354428e+02  -1.264603e+02
   2.919981e+02  -3.959752e+02
   3.210063e+02  -5.404292e+01
   9.901897e+01   5.339157e+01
  -1.105898e+01   2.150811e+02
  -2.566321e+02   2.745577e+02
  -7.110614e+01  -8.498543e+01
   1.203742e+02  -2.231118e+02
   2.516750e+02   8.491111e+01
   1.006091e+02   1.979935e+02
  -1.521341e+02   1.837945e+02
  -4.116919e+02  -1.535996e+01
  -9.777037e+01  -1.776594e+02
   1.872433e+02  -1.845339e+02
   2.699742e+02   2.721004e+01
   1.309715e+02   1.937856e+02
  -1.785985e+02   2.500845e+02
  -3.336812e+02   1.106597e+02
  -1.551759e+02  -1.268896e+02
   3.975584e+01  -1.805515e+02
   9.066478e+01  -1.267668e+02
   1.164625e+01   1.129235e+02
  -1.340300e+02   1.480579e+02
  -1.616579e+02  -4.969523e+01
   7.120862e+00  -2.600328e+02
   1.918885e+02  -3.009027e+02
   2.260759e+02  -1.788099e+01
   1.324628e+02   2.743970e+02
  -1.339449e+02   2.133371e+02
  -2.126262e+02  -9.897187e+01
   2.876676e+01  -2.395077e+02
   1.732956e+02  -8.191349e+01
   2.718632e+02   1.636210e+02
   1.116519e+02   2.794989e+02
  -1.945944e+02   1.734968e+02
  -2.665103e+02  -7.734775e+01
  -1.540261e+02  -1.479777e+02
   8.231308e+01  -1.336802e+02
   1.993526e+02   3.438090e+01
   6.917606e+01   1.083986e+02
  -6.961090e+01   3.078367e+01
  -8.986346e+01  -1.925042e+01
   3.512672e+01  -7.792966e+01
   1.436073e+02  -8.292905e+00
   7.375637e+01   1.091137e+02
  -8.338678e+01   9.272663e+01
  -1.649312e+02   7.983712e+01
  -5.181389e+01  -1.400211e+01
   2.328554e+01  -1.330646e+02
   1.433650e+02  -1.404218e+02
   1.902807e+02  -1.010855e+02
   6.550203e+01   5.010132e+01
   2.114526e+01   1.401850e+02
  -3.520492e+01   1.263538e+02
  -3.809436e+01   6.321249e+01
  -3.218602e+01   6.011608e+01
  -1.111801e+02   9.268710e+01
  -1.139762e+02   4.769755e+01
  -1.624794e+02  -7.707064e+01
  -9.789945e+01  -1.686480e+02
   8.921413e+01  -1.543286e+02
   5.474918e+01  -3.957071e+01
   7.725733e+01   1.001431e+02
   3.009932e+01   1.530270e+02
  -7.792383e+01   3.459390e+01
  -1.563456e+02  -8.789463e+01
  -8.826289e+01  -1.188542e+02
   4.230974e+01  -1.374273e+02
   1.241882e+02  -9.561291e+01
   9.634990e+01   2.089038e+01
   5.035928e+01   3.141226e+01
   8.839072e+01  -3.017037e+01
   1.826018e+02   2.126113e+01
   1.727901e+02   1.816605e+02
  -1.105458e+00   1.563720e+02
  -2.004801e+02   2.171100e+02
  -2.236069e+02   8.961050e+01
  -1.519380e+02  -6.482599e+01
  -1.430072e+01  -1.550210e+02
   7.726416e+01  -1.538030e+02
   1.488864e+00   1.892106e+01
  -2.767556e+01   7.742327e+01
  -8.935137e+01   1.682143e+00
   1.062419e+01  -6.850017e+01
   8.489136e+01  -1.010395e+02
   4.689962e+01  -9.411494e-01
  -2.045821e+00   8.904722e+01
  -8.111070e+01   1.490130e+01
  -4.256292e+01  -1.347916e+02
   2.037938e+01  -1.797328e+02
   1.196499e+02  -6.857281e+01
   1.355912e+02   3.491179e+01
   1.881133e+02   1.447484e+02
   8.607143e+00   1.455358e+02
  -1.356409e+02   7.431994e+01
  -1.021380e+02   6.600071e+01
  -1.848518e+01   1.587609e+00
   5.098631e+00   5.020031e+01
   1.431259e+01  -2.007736e+00
  -3.578394e+01  -3.972917e+01
  -7.153413e+01  -5.332458e+01
  -2.227114e+01  -2.780872e+01
   6.219171e+01   1.405014e+01
   2.187702e+01   4.518173e+01
  -6.730944e+01   3.683133e+01
  -1.263051e+02   5.873737e+00
  -1.002019e+02  -5.042099e+01
  -4.127425e+01  -1.459309e+02
   9.009114e+01  -1.173525e+02
   1.800380e+02  -2.245483e+01
   1.195537e+02   3.384751e+01
   4.910489e+00   1.379333e+02
  -5.009548e+01   2.195759e+00
  -6.358835e+01  -3.545359e+01
   6.888445e+01  -4.024319e+01
   9.796050e+01   6.797791e+01
   5.232974e+00   1.040482e+02
  -2.253239e+01   4.634553e+01
  -5.618194e+01   1.352748e+01
  -1.768407e+01  -7.600319e+00
  -5.753037e+01  -8.438847e+00
  -2.571099e+00   3.711927e+01
  -2.956189e+01   1.790302e+01
  -8.752311e+01  -1.628629e+01
  -1.019013e+02  -4.257897e+01
  -1.742646e+01  -1.021406e+02
   7.582616e+01  -7.452372e+01
   9.212951e+01  -4.144484e+01
   3.122195e+01   2.110120e+01
  -3.273043e+01   4.711516e+01
   3.446044e+01   2.112826e+01
   5.650439e+00  -1.294514e+01
   1.311485e+01   8.581970e+00
  -1.321519e+01  -2.545002e+01
  -4.164620e+01  -6.923723e+00
   1.866939e+00  -1.776909e+01
   4.431150e+00  -6.192766e+01
   4.182965e+01  -5.944853e+01
   1.025676e+02  -3.664961e+00
   1.000094e+02   1.203477e+02
   2.213673e+00   1.078520e+02
  -4.890414e+01   7.549168e+01
  -4.474099e+01   1.365077e+01
   5.283970e+00  -7.416695e+00
  -2.408651e+01   2.531613e+01
  -5.123025e+01  -2.751905e+01
  -3.916349e+01  -2.551922e+01
   7.507416e+00  -3.595277e+01
   1.548680e+01  -3.173578e+01
   3.276239e+01  -3.622531e+00
   6.368186e+01   2.192057e+01
  -4.018609e+01   6.459132e+01
  -9.305247e+01  -1.023324e+01
  -1.573039e+02  -7.008182e+01
  -4.191930e+01  -9.949077e+01
   8.669699e+01  -7.575760e+01
   1.345539e+02  -5.873721e+01
   1.609570e+02   3.598491e+01
   8.379759e+01   7.324815e+01
  -4.012153e+01   9.412224e+01
  -7.761216e+01   3.715214e+01
  -5.498616e+01   4.648721e+01
  -7.078860e+01   3.991688e+01
  -4.204922e+01   2.086690e+01
  -6.920208e+01  -1.349607e+01
  -1.334289e+01  -1.119806e+02
   1.814590e+01  -1.321337e+02
   1.713780e+01  -6.712467e+01
   9.606263e+01   3.097275e+01
   5.270948e+01   9.096504e+01
  -2.012374e+01   9.684820e+01
  -6.123385e+01   8.215299e+01
  -4.168010e+01  -5.789637e+01
   6.790052e+00  -1.809854e+01
   1.767990e+01  -3.712120e+01
   2.295309e+01  -1.340495e+01
  -3.020472e+01  -2.443327e+01
   1.805249e+01  -2.015755e+01
   4.660553e+01   3.475160e+01
   5.890555e+01   4.921347e+00
   3.618105e+01   4.270344e+01
   1.013946e+01   5.184149e+01
  -6.807386e+01   1.524917e+01
  -7.783598e+01   1.921425e+01
  -1.187287e+01  -7.146282e+00
  -8.024620e+00  -2.170041e+01
   3.314398e+01   5.019948e+01
   2.025344e+00   4.711097e+01
  -6.543732e+00   2.282720e+01
  -1.122799e+01   3.015717e+01
  -5.406609e+01  -1.278506e+01
  -3.169356e+01  -1.730116e+01
  -4.364271e+01  -5.097399e+01
  -4.848003e+01  -1.871356e+01
   2.462340e+01  -2.513388e+01
   5.499021e+01  -5.232999e+01
   7.159010e+01  -5.707577e+01
   9.028967e+01  -9.040168e+00
   5.031523e+01   7.255052e+01
  -2.752665e+01   7.755556e+01
  -6.282548e+01   5.704736e+01
  -3.038638e+01  -4.013598e+01
  -1.987694e+01  -2.172036e+00
   5.523580e+01   4.882471e+00
   3.331143e+01   7.508119e+01
  -4.566767e+01   4.750045e+01
  -7.172621e+01   4.248590e+01
  -8.952486e+01  -5.066324e+01
   3.338393e+00  -2.283567e+00
  -3.359285e+00  -1.918784e+01
   4.908690e+00  -8.931784e+00
  -2.829899e+01   2.930188e+01
  -6.722698e+01   6.561893e-01
  -2.673098e+01  -5.395879e+01
   2.541812e+01  -6.399215e+01
   8.175128e+01  -6.988820e+01
   1.038017e+02   4.812624e+01
   2.083926e+01   1.044599e+02
  -6.647925e+01   5.685973e+01
  -7.496185e+01   5.399010e+01
  -2.750827e+01  -6.800002e+01
  -2.259121e+00  -8.641076e+01
   3.272746e+01  -2.672151e+01
   5.291826e+01  -2.825411e+01
   1.875555e+01   3.906317e+01
   6.107538e+00   4.371985e+01
  -3.219422e+01   6.490180e+01
   1.721161e+01   8.171032e+01
   2.450553e+01   1.723057e+01
  -1.564873e+01   3.722090e+01
  -2.822844e+01  -5.635466e+01
  -4.590654e+01  -4.571029e+01
  -1.799085e+01  -3.826293e+01
   3.798940e+01   2.699791e+01
   2.671259e+01  -2.050659e+01
   1.755426e+01   2.819146e+01
   1.386854e+01   4.839961e+01
   2.089195e+01   3.393034e+00
  -3.088239e+01   2.753782e+01
  -5.571482e+00   2.542408e+01
  -5.929852e+01   9.837842e+00
  -2.706132e+01  -2.446808e+01
   2.670996e+01   2.626597e+01
   4.466712e+01  -5.690026e+01
   1.420755e+02  -4.377137e+01
   7.803673e+01   8.175184e+01
  -1.096682e+01   7.728439e+01
  -4.796925e+01   2.994740e+01
  -6.123235e+01  -6.215161e+00
  -2.907972e+00  -3.859496e+01
  -3.729081e+01  -1.575354e+01
  -2.683175e+01  -1.975064e+01
  -2.694388e+01  -3.594769e+00
   4.963835e+01  -1.525815e+01
   2.245473e+01  -1.139357e+01
  -2.612159e-01  -3.268342e+01
   1.303562e+01   1.374929e+01
   2.624511e-01   2.620527e+01
   1.646891e+01   1.921986e+01
  -5.747818e+01   4.172332e+01
  -5.167797e+01  -2.293219e+01
  -3.568951e+01  -4.142976e+01
   4.901926e+01  -4.615710e+01
   1.335903e+01  -2.367702e+01
   3.325828e+01   4.530564e+01
  -1.599000e+01   3.459299e+01
  -2.668719e+01   4.650813e+01
   3.421880e+01   3.846397e+01
   1.634031e+01   2.222272e+01
   5.763277e+00   2.156656e+01
  -8.424809e+01   7.831607e+00
  -5.052481e+01   4.084723e+01
  -2.841820e+01  -2.178075e+01
   8.348807e+00  -3.126733e+01
   4.654056e+01  -8.100794e+01
   5.459333e+01  -5.892580e+00
   2.955515e+01   3.833382e-01
  -7.464516e+01   1.873681e+01
  -2.865259e+01   9.833150e+00
  -6.716368e+01  -7.036229e+01
  -1.989913e+01  -2.030669e+01
   1.837719e+01  -6.305230e+01
   5.890888e+01   1.561318e+01
   2.353152e+01  -1.042647e+01
   1.904791e+01   1.457415e+01
   2.010026e+01   2.406775e+01
  -2.994358e+00  -1.103165e+01
  -4.570731e+01   3.918124e-01
   3.954492e+01  -1.775533e+01
  -2.695726e+01  -2.894867e+01
   4.915606e+01  -2.444628e+01
   7.034017e+00   4.787503e+01
   2.031709e+01   6.693593e+01
   2.439274e+01   4.328675e+01
  -5.081036e+01   4.378431e+01
  -3.612043e+01  -6.926524e-01
  -9.400503e+00  -3.135810e+01
   3.052646e+01  -3.743032e+01
   5.600451e+00  -2.006906e+01
  -2.058965e+01  -2.862889e+01
  -3.297044e+00  -2.931937e+01
   1.818329e+00  -2.206521e+01
  -1.322616e+01  -1.288995e+01
   4.006482e+01  -1.143712e+01
