
 $NMID
 id='ANONYMOUS ', fmtdat='(2E16.6)'
 volume=1.0
 tramp=1.0
 $END
  -3.452038e+03  -7.364176e+01
  -1.955923e+03  -1.651089e+03
   8.818100e+01  -2.019342e+03
   1.306526e+03  -1.048516e+03
   1.022907e+03   9.675521e+01
  -6.037947e+01   2.883095e+02
  -2.688684e+02  -2.103198e+02
  -1.412102e+02  -5.198712e+02
   3.860657e+02  -5.414996e+02
   6.922089e+02  -3.286115e+01
   3.937249e+02   4.979487e+02
  -1.933704e+01   6.290602e+02
  -4.062508e+02   1.442246e+02
  -2.424086e+02  -4.161162e+02
   5.849517e+01  -6.466526e+02
   2.926394e+02   1.150625e+01
   4.000598e+02   4.707507e+02
  -1.692705e+02   6.669782e+02
  -3.535378e+02   3.507313e+02
  -3.331339e+02  -6.579332e+01
   6.332617e+00  -4.162761e+02
   4.210531e+01  -5.111631e+01
   1.047841e+02  -2.223874e+02
  -1.838165e+01   6.110443e+01
  -1.613025e+02  -1.336798e+02
  -7.563204e+01  -1.487282e+02
   4.395704e+02  -2.370120e+02
   6.717562e+02   2.617933e+02
   2.131073e+02   4.286232e+02
  -1.907045e+02   2.911983e+02
  -6.058163e+02  -3.312916e+01
  -1.963508e+02  -3.567207e+02
   2.188835e+02  -3.234370e+02
   3.720118e+02  -1.017743e+02
   3.420066e+02   2.368617e+02
  -8.143101e+01   2.914047e+02
  -1.063245e+02   1.664414e+02
  -7.717311e+01  -6.136660e+01
   1.988775e+02  -1.555289e+02
   2.387783e+02   1.452748e+02
   7.864059e+01   4.254615e+02
  -2.675717e+02   3.748080e+02
  -3.893205e+02  -1.194785e+02
  -1.151122e+02  -2.735600e+02
   1.065801e+02  -1.446790e+02
   1.604616e+02   2.014458e+02
  -1.327904e+02   2.817798e+02
  -3.444985e+02   2.551917e+01
  -4.647967e+02  -3.103621e+02
  -1.087620e+02  -4.395197e+02
   3.457121e+02  -2.350787e+02
   4.867462e+02   8.302037e+01
   2.887578e+02   2.833432e+02
  -1.286791e+02   2.460334e+02
  -2.853096e+02   7.504042e+01
  -1.971083e+02  -3.795141e+01
   4.270303e+01  -1.129730e+01
   7.651607e+01   8.911025e+01
  -8.494967e+01   7.902005e+01
  -1.808732e+02  -1.836484e+01
  -1.604251e+02  -1.650192e+02
   5.298235e+01  -1.955001e+02
   2.825651e+02  -5.754111e+01
   2.960148e+02   7.798103e+01
   1.284590e+01   2.770205e+02
  -2.959863e+02   3.063411e+02
  -3.457456e+02   1.614104e+02
  -2.654769e+02  -1.020985e+02
  -4.662256e+01  -2.812809e+02
   6.240086e+01  -2.480557e+02
   1.828365e+00  -1.369529e+02
   8.286791e+00  -9.310875e+01
   9.513278e+01  -1.453461e+02
   2.425205e+02  -8.591021e+01
   2.306014e+02   1.052610e+02
   1.156185e+02   2.136811e+02
  -4.077086e+01   2.010619e+02
  -1.734288e+02  -3.983529e+01
  -9.746195e+01  -2.461465e+02
   5.716329e+01  -2.162838e+02
   2.632551e+02  -5.403137e+01
   2.760881e+02   1.785550e+02
   1.465859e+02   2.935145e+02
  -6.363623e+01   2.236970e+02
  -1.724936e+02   1.282094e+02
  -1.164861e+02   8.394403e+01
  -1.682230e+02   1.030563e+02
  -2.688311e+02   3.256989e+01
  -3.878948e+02  -8.162434e+01
  -2.772698e+02  -2.964430e+02
   3.330481e+00  -4.467452e+02
   3.409520e+02  -3.992391e+02
   4.376652e+02  -1.801166e+02
   3.201692e+02   6.554966e+01
   7.028666e+01   2.444993e+02
  -1.108265e+02   1.889069e+02
  -4.452243e+01   4.111130e+01
   8.046137e+01   1.215391e+01
   1.652159e+02   1.338884e+01
   2.650940e+01   1.115051e+02
  -8.736563e+01   5.536022e+01
  -1.342690e+02  -3.436781e+01
  -1.935814e+00  -1.209721e+02
   1.958136e+02   1.761621e+01
   1.992229e+02   2.387023e+02
  -2.770812e+01   3.305519e+02
  -2.469988e+02   2.108304e+02
  -3.507877e+02  -6.489329e+01
  -2.404533e+02  -2.595816e+02
  -7.657669e+01  -3.077808e+02
   1.182898e+02  -1.614282e+02
   1.929430e+02  -8.969971e+00
   8.167622e+01   3.201838e+01
  -1.480007e+01  -6.669511e+01
   1.605002e-01  -1.204300e+02
   1.336418e+02  -5.327939e+01
   1.294953e+02   5.171606e+01
  -2.018825e+01   7.159307e+01
  -9.656397e+01   8.005444e+00
  -3.860070e+01  -1.066080e+02
   1.595500e+02  -1.466604e+02
   3.116063e+02  -3.212419e+01
   2.618719e+02   1.641124e+02
   4.437666e+01   2.966997e+02
  -2.116937e+02   2.625783e+02
  -2.836047e+02   8.123728e+01
  -1.475277e+02  -4.615320e+01
   3.052723e+01  -4.932928e+01
   6.761519e+01   5.419304e+01
  -6.400056e+00   1.222942e+02
  -2.161126e+02   4.324824e+01
  -2.254508e+02  -9.346539e+01
  -1.267119e+02  -1.569563e+02
   5.051033e+01  -1.560298e+02
   1.395079e+02  -1.225216e+01
   3.214596e+01   1.869963e+01
  -8.163934e+01  -5.173890e+00
  -5.865719e+01  -1.520835e+02
   6.729330e+01  -1.534748e+02
   2.032534e+02  -8.973349e+01
   2.207482e+02   1.000690e+02
   8.812245e+01   1.974894e+02
  -1.168294e+02   1.956888e+02
  -1.647216e+02   3.877552e+01
  -9.338642e+01  -8.291069e+01
   2.426781e+01  -1.199941e+02
   3.214943e+01  -1.575247e+01
  -1.912610e+01   2.768166e+01
  -5.469286e+01   4.350531e+01
   1.909331e+01   4.704171e+00
   5.536952e+01  -1.801036e+01
   7.553470e+01   5.250909e+01
   6.966925e+00   1.236699e+02
  -1.308079e+02   1.311705e+02
  -2.259234e+02  -2.339976e+00
  -2.088279e+02  -1.967903e+02
  -2.244008e+01  -2.171526e+02
   1.251590e+02  -1.181264e+02
   1.272750e+02  -1.125664e+01
   7.702616e+01   4.719856e+01
   1.695310e+01   1.896288e+01
   7.473628e+01  -3.595104e+01
   1.157855e+02   2.871752e+00
   9.562593e+01   5.048017e+01
  -3.809313e+01   1.182364e+02
  -1.303364e+02   7.881904e+01
  -1.045381e+02   1.184204e+01
   9.586520e+00  -9.531771e+01
   1.522326e+02  -9.756132e+01
   2.059224e+02   3.255551e+01
   8.015023e+01   2.041723e+02
  -1.325257e+02   2.501851e+02
  -2.654287e+02   1.163284e+02
  -2.516352e+02  -1.020840e+02
  -1.209285e+02  -1.641654e+02
   3.590224e+01  -1.360667e+02
   2.500544e+01  -9.688065e+01
   3.238227e+01  -4.892152e+01
   3.313331e+01  -1.059717e+02
   8.746739e+01  -8.499038e+01
   1.336140e+02  -2.459415e+01
   1.335002e+02   1.187244e+02
   5.320810e+01   2.156939e+02
  -4.971029e+01   1.896856e+02
  -1.438771e+02   4.082082e+00
  -1.127239e+02  -1.538545e+02
   2.025764e+01  -1.605845e+02
   7.548892e+01  -7.610798e+01
   3.166627e+01   4.946920e+01
  -2.593741e+01   1.170521e+02
  -1.659788e+01   5.737868e+01
  -4.006001e+01   3.547653e+01
   3.114734e+01  -7.125256e+00
  -6.856323e+01   1.468841e+01
  -6.761761e+01   2.171256e+01
  -1.767569e+02  -2.457317e+01
  -1.342415e+02  -1.179073e+02
   2.856828e+01  -1.206448e+02
   1.473738e+02  -4.497869e+01
   1.216694e+02   2.187965e+00
   7.210653e+01   3.276539e+01
  -1.688397e+01   3.574380e+01
  -7.028590e+01  -2.675129e+01
  -8.458946e+00  -7.062806e+01
   5.160831e+01  -5.763202e+01
   4.001057e+01  -6.677483e+00
   8.520612e+01   3.542199e+01
  -9.274616e+00   3.387007e+01
   7.611933e+00   1.355318e+01
   7.678462e+01   2.041622e+00
   5.618247e+01   8.635647e+01
  -3.779723e+01   1.845287e+02
  -1.441522e+02   1.347093e+02
  -1.713560e+02  -6.920703e+00
  -8.693346e+01  -1.061526e+02
   9.566327e+00  -8.641323e+01
   7.731587e+01  -5.682776e+01
   9.415621e+00   1.897226e+01
  -7.866308e+01   2.834485e+01
  -1.478429e+02  -4.568641e+01
  -8.491200e+01  -1.292573e+02
   3.716639e+01  -1.565229e+02
   1.822910e+02  -5.393795e+01
   1.321527e+02   2.685493e+01
   3.390797e+01   7.885598e+01
  -6.215041e+01   6.936218e+01
  -4.392512e+00   2.259957e+01
   6.476717e+01  -6.026808e+01
   7.828629e+01   4.564380e+01
   3.260599e+01   1.229568e+02
  -8.928159e+01   1.905501e+02
  -1.900865e+02   6.971060e+01
  -1.285647e+02  -6.514245e+01
  -8.324170e+00  -1.823680e+02
   1.120241e+02  -1.405553e+02
   1.485819e+02  -3.948906e+01
   4.032107e+01   1.176413e+02
  -7.810309e+01   1.223499e+02
  -8.039045e+01   4.995959e+01
  -6.829210e+01  -1.690322e+01
  -1.120673e+01  -7.310802e+01
  -8.745766e+00  -1.976841e+01
  -2.690166e+01  -3.975948e+01
  -6.753581e+01  -7.101365e+01
  -1.021772e+00  -9.627204e+01
   8.803119e+01  -4.652411e+01
   1.587835e+02   2.412856e+01
   6.620137e+01   2.512220e+01
   3.277649e+01   7.197412e+01
  -5.811583e+01   1.234852e+00
  -9.378990e+01  -2.849456e+01
  -4.369882e+01  -3.131142e+01
   4.109020e+01  -3.957560e+01
   1.875260e+01  -1.310423e+01
   5.945045e+00   1.439118e+01
  -2.435458e+01   2.747810e-01
   9.265177e+00  -9.658607e+00
   5.791848e+01   7.143122e-01
   3.728438e+01   5.871589e+01
  -1.147167e+02   8.309170e+01
  -1.297894e+02   6.146016e+01
  -1.239695e+02  -4.148758e+01
  -3.123720e+01  -1.194851e+02
   4.142136e+01  -1.507452e+02
   1.125577e+02  -7.168770e+01
   1.171895e+02  -5.725550e+00
   3.004065e+01  -1.206352e+01
   2.812395e+01   5.896507e+01
   5.110228e+01   2.369009e+01
   2.365348e+01   4.657416e+01
  -9.564734e+00   7.278916e+01
  -3.449715e+01   5.234159e+01
  -5.272746e+01  -7.314685e+01
  -5.506952e+01  -1.062671e+02
  -2.214643e+00  -1.363912e+02
   1.083974e+02  -2.510037e+01
   9.700646e+01   1.277217e+02
   6.038331e+01   1.548851e+02
  -4.327097e+01   8.398102e+01
  -9.023106e+01  -3.738603e+01
  -5.713092e+01  -9.765143e+01
  -1.699952e+01  -1.182058e+02
   4.272222e+01   1.861046e+01
   5.802407e+01  -5.366886e+00
   5.297453e+00   2.917103e+01
   1.176707e+01  -3.551876e+01
   3.716464e+01  -1.744100e+01
   7.349163e+01  -4.946511e+01
   2.113999e+01   7.198837e+00
  -2.765258e+01   1.096158e+02
  -7.502249e+01   8.633398e+01
  -4.148158e+01  -3.422865e+01
  -4.419654e+00  -7.093989e+01
   4.092884e+01  -2.190906e+01
   1.844520e+01  -3.091885e+00
   2.653863e+01   3.423866e+01
   5.303193e+00   5.988183e+01
   2.472247e+00   2.419150e+01
  -1.452724e+01  -4.335427e+01
  -4.076119e+00   2.235615e+01
  -1.667001e+01   3.293828e+01
   4.022799e+00   1.471516e+01
   7.255582e+00   1.166991e+01
   5.966965e+01  -4.898444e+01
   5.890429e+01  -1.712985e+01
   8.337191e+01   6.520559e+01
   7.358694e+00   6.557076e+01
  -3.726475e+01   6.186964e+01
  -4.611785e+01  -5.673864e+00
  -1.575194e+01  -7.186784e+01
   3.912587e+01  -4.829665e+01
   5.778352e+01   2.811951e+00
   5.697315e+01   5.698056e+01
  -2.304629e+00   3.028088e+01
  -4.760560e+01   3.814538e+01
  -1.513079e+00  -2.830156e+01
   2.550986e+01   1.360881e+01
   4.732519e+01   8.522188e+00
  -3.069625e+01   4.640132e+01
  -1.072923e+02  -8.337291e-01
