
 $NMID
 id='ANONYMOUS ', fmtdat='(2E16.6)'
 volume=1.0
 tramp=1.0
 $END
  -4.480008e+03   1.375648e+02
  -2.622346e+03  -2.817002e+03
   9.727098e+02  -3.096187e+03
   2.187529e+03  -6.759112e+02
   1.153543e+03   8.524957e+02
  -8.538143e+02   5.611447e+02
  -9.957038e+02  -4.686960e+02
   3.532914e+01  -1.196986e+03
   8.230053e+02  -7.379469e+02
   9.192435e+02   1.333125e+02
   5.069650e+02   8.588639e+02
  -3.449319e+02   1.013673e+03
  -7.591598e+02   2.329282e+02
  -3.901362e+02  -7.313437e+02
   1.341043e+02  -7.897703e+02
   5.906028e+02  -1.559182e+01
   5.078574e+02   7.821721e+02
  -4.622570e+02   6.103098e+02
  -5.709193e+02  -8.879600e+01
  -3.376512e+02  -4.919704e+02
  -3.482719e+01  -6.424519e+02
   1.946211e+02  -3.375531e+02
   2.412007e+02  -1.161724e+02
  -7.735276e+01   1.481009e+02
  -3.577357e+02  -6.356725e+01
  -3.078926e+02  -4.418086e+02
   5.015533e+02  -4.443140e+02
   8.943265e+02   1.801014e+02
   4.611655e+02   5.071072e+02
  -2.970639e+02   4.914930e+02
  -7.938815e+02  -7.638504e+01
  -3.118938e+02  -3.603341e+02
   3.152944e+02  -5.494094e+02
   5.411795e+02  -1.400929e+02
   4.904386e+02   2.323519e+02
   1.616419e+02   5.477178e+02
  -2.132305e+02   3.571736e+02
  -2.189063e+02  -1.821088e+02
   1.049232e+02  -4.683862e+02
   4.837215e+02   1.265889e+01
   2.239907e+02   7.040028e+02
  -3.176161e+02   8.224927e+02
  -6.350394e+02   2.241795e+01
  -2.362015e+02  -5.293399e+02
   3.401041e+02  -3.218477e+02
   4.004893e+02   3.673715e+02
  -1.177844e+02   5.727475e+02
  -6.045799e+02   1.227908e+02
  -6.605986e+02  -4.002573e+02
  -2.307001e+02  -6.004131e+02
   4.039841e+02  -3.754350e+02
   6.406877e+02   4.978666e+01
   3.820192e+02   3.909734e+02
  -2.009266e+02   3.540164e+02
  -4.851789e+02   4.822797e+01
  -2.489082e+02  -1.854171e+02
   1.289289e+02  -1.407532e+02
   1.713590e+02   1.706283e+02
  -1.732130e+02   1.863385e+02
  -3.559032e+02  -3.868254e+01
  -1.833465e+02  -3.762330e+02
   2.566459e+02  -3.110088e+02
   3.280936e+02  -7.197491e+01
   2.444828e+02   1.185825e+02
  -2.049662e+01   2.579594e+02
  -2.293488e+02   3.243806e+02
  -3.399690e+02   2.181815e+02
  -3.363541e+02  -1.463475e+02
  -1.038291e+02  -3.840240e+02
   9.716370e+01  -3.633887e+02
   1.298457e+02  -5.101064e+01
   4.481589e+01   3.119837e+01
   1.166521e+01  -8.074985e+01
   1.181886e+02  -1.603939e+02
   2.595467e+02   3.582148e+01
   1.894229e+02   2.942240e+02
  -7.833255e+01   2.611589e+02
  -2.478060e+02   2.224321e+01
  -2.315861e+02  -2.565754e+02
   8.740934e+01  -3.130380e+02
   3.176910e+02  -1.750506e+02
   3.726361e+02   1.564333e+02
   1.462343e+02   3.403407e+02
  -1.116673e+02   3.898903e+02
  -2.127039e+02   1.209718e+02
  -1.072082e+02   1.036092e+01
  -9.515450e+01   4.838855e+01
  -2.504562e+02   9.769506e+01
  -3.964154e+02   4.539831e+00
  -3.610580e+02  -2.296556e+02
  -3.653314e+01  -4.653851e+02
   3.564560e+02  -4.438022e+02
   5.089730e+02  -1.715389e+02
   4.134721e+02   1.208543e+02
   7.906569e+01   3.490190e+02
  -1.944201e+02   2.963558e+02
  -1.335196e+02   9.186637e+00
   1.127781e+02  -1.142666e+02
   2.162065e+02  -2.967476e+01
   1.233812e+02   1.975605e+02
  -1.569264e+02   1.908256e+02
  -1.889423e+02  -5.638091e+01
  -6.759150e+00  -1.875847e+02
   2.012453e+02  -3.554265e+01
   2.051988e+02   2.773064e+02
  -5.312092e+01   3.761085e+02
  -2.201011e+02   1.838412e+02
  -3.395917e+02  -4.790686e+01
  -2.704145e+02  -2.018699e+02
  -3.581698e+01  -2.686653e+02
   1.318156e+02  -1.744650e+02
   1.192938e+02   5.047291e+00
   4.085430e+01   1.413849e+01
  -8.954519e+01   3.291564e+00
  -2.313633e+01  -1.462311e+02
   1.416914e+02  -1.263744e+02
   1.531053e+02  -1.691866e+01
   4.836091e+01   7.295668e+01
  -7.078790e+01   4.717256e+01
  -6.967605e+01  -3.279563e+01
   1.217438e+02  -7.479715e+01
   2.800508e+02   1.586602e+01
   2.158390e+02   1.281310e+02
   7.223824e+00   2.299729e+02
  -1.883711e+02   2.841845e+02
  -2.797052e+02   5.581953e+01
  -1.462976e+02  -2.752039e+01
   2.919908e+01  -1.192370e+02
   9.903377e+01   1.039814e+01
  -4.663355e+01   1.286530e+02
  -1.911422e+02   5.466005e+01
  -2.070272e+02  -9.908196e+01
  -1.025425e+02  -1.827709e+02
   3.693532e+01  -1.102074e+02
   1.230648e+02  -8.240588e+01
   3.772185e+01  -4.981581e+00
  -5.132260e+01  -7.250723e+00
  -1.608917e+01  -1.005949e+02
   7.528392e+01  -1.524327e+02
   2.167463e+02  -7.406707e+01
   2.190888e+02   1.097386e+02
   1.625192e+01   2.385908e+02
  -1.492041e+02   1.929023e+02
  -1.932640e+02   1.498802e+01
  -5.928734e+01  -7.709978e+01
   6.752545e+01  -9.174794e+01
   8.234872e+01  -2.451599e+01
  -1.812513e+01   2.233621e+01
  -3.363696e+01   2.295757e+01
  -3.226702e+01   6.428016e+01
   1.075990e+02   5.440310e+01
   7.748843e+01   1.202456e+02
  -5.232394e+01   1.147840e+02
  -1.565345e+02   1.640567e+02
  -2.548416e+02   4.456446e+01
  -2.184340e+02  -1.599243e+02
  -5.709462e+01  -2.860738e+02
   1.131994e+02  -1.936953e+02
   1.409715e+02  -2.415748e+01
   9.506406e+01   8.597527e+01
   1.288558e+01   3.407088e+00
   5.765117e+01  -1.978591e+01
   4.887195e+01   1.374782e+01
   6.498571e+01   8.207970e+01
  -1.784625e+01   4.033244e+01
  -7.823355e+01   6.613744e+01
  -9.092547e+01  -1.343472e+01
   1.234909e+00  -9.060465e+01
   1.733065e+02  -8.081535e+01
   2.189240e+02   2.399968e+01
   1.031929e+02   2.062252e+02
  -1.206915e+02   2.466008e+02
  -2.899709e+02   5.711258e+01
  -2.406868e+02  -9.024779e+01
  -1.047135e+02  -1.589837e+02
   6.843739e+00  -1.578555e+02
   6.477705e+01  -5.866555e+01
   9.364757e+01  -1.091538e+02
   3.242460e+01  -1.243958e+02
   1.122499e+02  -1.189039e+02
   1.705831e+02   5.005750e+01
   1.036312e+02   1.560704e+02
   9.949537e+00   1.802920e+02
  -1.479436e+02   1.582952e+02
  -2.004132e+02   2.522323e+01
  -1.788465e+02  -1.436161e+02
   2.762281e+01  -2.032346e+02
   1.038544e+02  -6.838561e+01
   4.854549e+01   1.149632e+01
  -3.460158e+01   2.586304e+01
  -1.959753e+01   1.671326e+01
   3.556198e+01  -8.328255e+00
   9.012130e+01   1.602864e+00
   6.465295e+01   1.113080e+02
  -9.035898e+00   7.602618e+01
  -1.136770e+02   6.825000e+01
  -1.476017e+02  -6.621737e+01
  -2.567862e+01  -1.151975e+02
   1.290352e+02  -8.681814e+01
   1.197463e+02   6.469710e+00
   3.086552e+01   6.950340e+01
  -8.409539e+01   3.732965e+01
  -1.378082e+02  -2.214051e+01
  -8.388015e+00  -6.210528e+01
   5.722684e+01  -9.216338e+01
   5.279764e+01  -3.073892e+01
   8.307344e+01   4.304092e+01
   2.843977e+01   5.901029e+01
   1.750446e+01   7.687790e+00
   6.310774e+01  -5.224343e+00
   1.313654e+01   1.659543e+01
   2.912494e+01   1.153911e+02
  -5.558842e+01   1.093118e+02
  -1.530512e+02   3.114389e+01
  -1.564312e+02  -7.423374e+01
  -3.249302e+01  -1.685297e+02
   1.174089e+02  -4.769569e+01
   4.546882e+01   3.109423e+01
  -8.062011e+01   1.686751e+01
  -1.445369e+02  -4.405051e+01
  -4.415339e+01  -8.904312e+01
   6.744116e+01  -5.125631e+01
   1.695853e+02  -6.907789e+01
   1.448820e+02   3.219555e+01
   6.602530e+01   1.225612e+02
  -3.005075e+01   9.363722e+01
  -6.214018e+01   1.129646e+00
  -4.949542e+00  -3.684377e+01
   9.059192e+01   5.113982e+01
   8.678262e+00   1.191317e+02
  -5.219356e+01   1.297413e+02
  -1.573510e+02   7.317538e+01
  -1.135528e+02  -1.926448e+02
   3.003685e+01  -2.265793e+02
   1.460547e+02  -1.429886e+02
   1.134814e+02   3.898855e+00
   6.843054e+01   9.857724e+01
  -3.941317e+00   1.283657e+02
  -4.138842e+01   1.759035e+01
  -5.837322e+01  -3.071209e+01
  -4.950961e+01  -3.397853e+01
   2.407633e+01  -2.707269e+01
  -3.036427e+01  -2.492314e+01
  -6.581239e+01  -5.475207e+01
  -5.979581e+01  -9.860814e+01
   1.050144e+02  -6.412435e+01
   1.464794e+02   4.093293e+01
   1.465609e+02   1.109511e+02
  -1.557215e+01   7.410910e+01
  -7.779066e+01   1.937139e+01
  -7.815763e+01  -1.002681e+01
  -3.298763e+01  -6.188501e+01
   4.859134e+01  -4.698194e+01
   3.004320e+01  -1.868627e+01
  -2.177120e+01   4.139892e+01
  -4.213116e+01  -5.838358e+00
   2.909970e+01   1.696551e+01
   8.434749e+01   3.186693e+01
   5.296772e+01   8.890548e+01
  -6.319998e+01   1.092975e+02
  -1.787837e+02   7.870524e+01
  -1.577145e+02  -6.113449e+01
  -4.578597e+01  -1.836867e+02
   1.014535e+02  -1.599803e+02
   1.567444e+02  -7.322738e+01
   1.023916e+02   1.527509e+01
   2.877691e+01   6.855342e+01
  -3.497561e+00   3.902681e+01
   9.629860e+00  -8.732249e+00
   5.494772e+01   4.419658e+01
   2.317992e+01   7.190634e+01
  -4.657908e+01   9.657489e+01
  -1.188769e+02   4.672616e+00
  -1.240343e+02  -8.433872e+01
  -3.248475e+01  -1.330488e+02
   6.188259e+01  -3.730810e+01
   8.910459e+01   5.304725e+01
   5.297844e+01   6.893949e+01
  -3.183676e+01   5.751000e+01
  -8.992607e+01   3.358773e+01
  -4.209983e+01  -9.537088e+00
   3.242849e+01  -9.991964e+00
   9.907054e+00   8.801470e+00
  -2.541324e+01   3.388577e+01
  -5.469012e+01   4.163177e+01
  -5.105174e+01  -2.269947e+00
   6.340931e+01  -1.159722e+02
   1.036868e+02  -6.756305e+01
   1.155376e+02   1.265418e+01
  -2.263732e+01   7.638391e+01
  -3.218422e+01   5.048277e+01
   4.884322e+00  -3.663810e+01
   3.834838e+01  -8.335404e+00
   1.462903e+01   1.668603e+01
   5.234610e+01   5.660671e+01
   5.052430e+00   5.325992e+01
  -5.132085e+01   3.175616e+01
  -7.289217e+01  -3.785631e+01
  -6.502905e+01  -5.488422e+01
   4.974013e+01  -2.347161e+01
   1.928119e+01  -2.212528e+01
   6.434319e+01   3.870979e+01
   3.081499e+00  -3.501973e+01
   8.399204e+00  -9.392755e+00
   3.743134e+00  -1.064092e+01
   2.046519e+01   3.762681e+01
  -7.850400e+00   5.419579e+01
  -5.269253e+01   4.209200e+01
  -1.006546e+02  -2.296815e+01
   3.483056e+00  -3.631389e+01
   6.089069e+01  -3.059143e+01
   1.003631e+02   1.224929e+01
   4.186647e+01   3.425844e+01
  -4.801403e+01   2.614470e+01
  -1.235215e+02   3.362298e+01
  -3.538351e+01   3.460836e+01
   3.372605e+01  -1.908884e+01
   2.068376e+01   3.015888e+01
  -2.108654e+01   2.024438e+01
  -6.965608e+01  -5.453508e+00
