
 $NMID
 id='ANONYMOUS ', fmtdat='(2E16.6)'
 volume=1.0
 tramp=1.0
 $END
  -3.896412e+03   2.387615e+02
  -2.501175e+03  -2.269067e+03
   3.415081e+02  -2.561414e+03
   1.850755e+03  -1.252131e+03
   1.074036e+03   2.245906e+02
  -3.819235e+02   5.047922e+02
  -6.309047e+02  -2.168349e+02
  -4.228214e+01  -9.398849e+02
   5.880245e+02  -7.089465e+02
   9.326295e+02   8.169458e+01
   4.190532e+02   7.930022e+02
   2.436270e+01   8.567894e+02
  -7.321104e+02   6.182361e+01
  -3.398373e+02  -6.417158e+02
   3.249614e+02  -8.506360e+02
   4.934852e+02  -1.091819e+02
   3.707104e+02   5.698262e+02
  -2.099363e+02   5.725067e+02
  -6.376553e+02   1.417976e+02
  -5.148226e+02  -2.150567e+02
  -1.236727e+02  -4.156037e+02
   6.021682e+00  -1.895803e+02
   9.697940e+01  -1.777446e+02
  -6.553766e+01  -9.275692e+01
  -4.470963e+02  -2.143090e+02
  -1.582717e+02  -4.311637e+02
   4.561062e+02  -3.901927e+02
   7.785044e+02   1.818713e+02
   3.468988e+02   4.256047e+02
  -4.197193e+02   4.646485e+02
  -5.175130e+02  -2.132999e+02
  -1.980472e+02  -4.119499e+02
   2.994599e+02  -5.058239e+02
   5.465801e+02  -1.842542e+02
   4.019964e+02   1.107770e+02
   8.580132e+01   4.533378e+02
  -9.274637e+01   2.158435e+02
  -1.586306e+02  -1.671922e+02
   1.093544e+02  -2.640199e+02
   2.995429e+02   1.301407e+02
   2.304011e+02   5.688857e+02
  -2.808712e+02   5.739844e+02
  -5.640306e+02  -6.403068e+00
  -2.575748e+02  -4.412412e+02
   2.434125e+02  -2.179198e+02
   3.084978e+02   3.331243e+02
  -4.252916e+01   4.744028e+02
  -5.141799e+02   9.641853e+01
  -5.655784e+02  -3.732977e+02
  -1.655145e+02  -5.182825e+02
   3.340259e+02  -3.228518e+02
   6.124061e+02   1.372378e+01
   3.726484e+02   2.611599e+02
  -1.506128e+02   2.909009e+02
  -4.125858e+02   1.320396e+02
  -2.977057e+02  -1.093948e+02
   7.626081e+01  -1.175222e+02
   1.428784e+02   7.758716e+01
  -3.931663e+01   1.065587e+02
  -2.545636e+02  -4.012920e+01
  -1.696735e+02  -2.105072e+02
   2.119615e+02  -2.557585e+02
   3.685763e+02  -1.608402e+02
   2.628534e+02   9.669953e+01
  -1.471139e+01   3.162377e+02
  -3.235383e+02   3.436684e+02
  -3.191286e+02   1.556992e+02
  -2.460619e+02  -1.516659e+02
  -1.119263e+02  -4.343800e+02
   4.675752e+01  -4.186059e+02
   7.356190e+01  -1.851574e+02
   9.090762e+01  -3.793181e+01
   1.720440e+02  -2.592371e+01
   1.977987e+02  -8.128291e+01
   2.373764e+02   5.336114e+01
   1.349893e+02   2.087653e+02
  -8.008172e+00   2.334640e+02
  -2.030437e+02   8.623422e+00
  -2.115579e+02  -2.221596e+02
   2.852349e+01  -3.076359e+02
   2.912134e+02  -1.066060e+02
   3.356622e+02   1.840162e+02
   1.827213e+02   3.506878e+02
  -6.592071e+01   2.544053e+02
  -1.698288e+02   9.086867e+01
  -1.281249e+02   3.146657e+01
  -1.806437e+02   4.626648e+01
  -2.758503e+02  -3.934656e+00
  -4.629442e+02  -1.495578e+01
  -3.609262e+02  -2.622029e+02
   8.145071e+01  -4.641166e+02
   4.252187e+02  -4.696927e+02
   5.017822e+02  -2.034915e+02
   2.624315e+02   6.116236e+01
  -1.519635e+01   2.947885e+02
  -1.292959e+02   2.220066e+02
   8.918261e+00   1.302305e+01
   1.631446e+02  -9.220193e+01
   1.718010e+02   2.090051e+01
   2.177532e+01   1.782162e+02
  -1.254410e+02   1.379910e+02
  -1.080629e+02  -5.801979e+01
   8.237043e+00  -1.460928e+02
   1.311134e+02  -3.723868e+01
   1.050848e+02   2.841763e+02
  -6.546037e+01   3.680173e+02
  -1.974465e+02   2.430240e+02
  -3.397615e+02  -7.405192e+01
  -2.584467e+02  -3.363041e+02
  -1.268825e+02  -2.811266e+02
   1.017687e+02  -1.439238e+02
   1.498109e+02  -3.786974e+01
   5.216399e+01   2.172521e+01
  -9.827463e+00  -4.603700e+01
  -2.527603e+01  -1.697482e+02
   1.205085e+02  -6.461245e+01
   1.759602e+02   1.131552e+01
   2.547062e+01   4.138395e+01
  -1.195813e+02  -4.846422e+00
  -8.675131e+01  -9.987793e+01
   1.237510e+02  -9.196939e+01
   3.021450e+02  -5.563465e+01
   2.904719e+02   1.702614e+02
   8.399161e+01   2.289792e+02
  -1.907172e+02   2.436289e+02
  -2.500525e+02   1.343623e+02
  -1.982399e+02  -2.391447e+01
   5.163211e+01  -8.223075e+01
   9.153391e+01   2.090205e+01
  -8.584239e+01   7.462449e+01
  -1.932227e+02   2.731671e+01
  -2.058496e+02  -8.041511e+01
  -1.237851e+02  -2.036174e+02
   9.532737e+01  -1.511258e+02
   1.440701e+02   1.577161e+01
   6.117424e+01   8.490877e+01
  -5.322951e+00  -1.776648e+01
  -6.884133e+01  -9.743856e+01
   9.420577e+01  -9.687727e+01
   1.872819e+02   2.797467e+01
   1.832745e+02   1.811895e+02
   1.193334e+00   2.490847e+02
  -2.029813e+02   1.563881e+02
  -2.449112e+02  -1.410360e+01
  -6.238476e+00  -1.217312e+02
   8.500497e+01  -8.375475e+01
   8.614619e+01  -2.188596e+01
   8.354836e+00   4.275918e+01
  -2.962125e+01   2.260500e+01
  -5.400718e+01   2.035266e+01
   1.754230e+01   1.244780e+01
   1.386604e+02   1.095872e+02
   5.438324e+01   1.962538e+02
  -1.256395e+02   1.482473e+02
  -3.120418e+02   1.570840e+01
  -2.295216e+02  -1.334966e+02
  -4.167588e+01  -2.356116e+02
   9.057799e+01  -1.679171e+02
   1.362015e+02  -8.108920e+00
   1.002553e+02   3.012867e+01
  -1.798056e+01   8.091996e+01
   3.419199e+01  -1.070038e+01
   8.902658e+01   5.097491e+00
   8.832093e+00   1.547848e+00
  -1.069161e+02   7.056201e+01
  -1.078467e+02   5.845581e+01
  -9.476506e+01  -1.931481e+01
   3.577284e+01  -1.116337e+02
   1.824557e+02  -7.666528e+01
   2.080840e+02   5.798439e+01
   1.068541e+02   2.295461e+02
  -1.483058e+02   2.588253e+02
  -2.462280e+02   8.975351e+01
  -2.784311e+02  -8.485477e+01
  -1.359305e+02  -1.760828e+02
   9.794454e+01  -1.170125e+02
   1.064162e+02  -8.436595e+01
   1.062267e+02  -9.383831e+01
   5.276856e+01  -1.177520e+02
   7.773407e+01  -7.776149e+01
   1.129090e+02   3.572095e+01
   1.092503e+02   2.124516e+02
   1.625586e+01   2.203525e+02
  -1.089598e+02   1.643486e+02
  -2.175924e+02   2.053882e+00
  -1.776875e+02  -1.406190e+02
  -2.498406e+01  -1.850076e+02
   4.741673e+01  -1.041787e+02
   7.940609e+01  -2.328131e+01
   1.970337e+01   6.899413e+01
  -2.763158e+00   6.262399e+01
   5.454675e+01   5.362395e+01
   9.412614e+01   4.197360e+01
   1.867610e+01   1.532821e+01
  -1.053075e+02   4.396754e+01
  -1.534487e+02   5.085977e+01
  -1.291367e+02  -1.609386e+01
   3.733930e+01  -5.431065e+01
   1.323275e+02  -5.328106e+01
   1.022616e+02   4.499489e+01
   4.759716e+01   3.838118e+01
  -1.105871e+02   5.439019e+01
  -1.191009e+02  -9.244366e+00
   2.121474e+01  -5.728337e+01
   1.070485e+02  -1.013661e+01
   6.651832e+01   1.932169e+01
   3.640392e+01   3.908660e+01
   4.375404e+01   4.424652e+01
   3.856408e+01   2.134141e+00
   6.456499e+01  -3.877700e+00
   1.939084e+01   1.222666e+02
  -3.606816e+01   1.131712e+02
  -1.251296e+02   1.430247e+02
  -2.296637e+02   1.277343e+01
  -1.230048e+02  -1.218347e+02
   5.833676e+00  -1.249217e+02
   1.095420e+02  -6.416073e+01
   8.050258e+01   1.194476e+01
  -6.344424e+01   6.338235e+01
  -1.692934e+02   1.400417e+01
  -5.809634e+01  -1.010969e+02
   1.013010e+02  -1.066202e+02
   2.319306e+02  -1.391474e+01
   1.413433e+02   4.387183e+01
   2.827945e+01   1.202096e+02
  -9.373566e+01   5.735590e+01
  -6.279719e+01   1.908276e+01
   1.683821e+01  -1.223651e+01
   9.633520e+01   4.807676e+01
   3.770657e+01   7.886593e+01
  -1.043716e+02   1.573326e+02
  -1.375223e+02   7.630939e+01
  -1.659321e+02  -1.065265e+02
  -4.306654e+01  -1.799086e+02
   1.151089e+02  -1.335664e+02
   1.417898e+02   9.417097e-01
   5.361119e+01   1.186142e+02
   5.401788e+00   1.131650e+02
  -4.904065e+01  -2.594416e+00
  -4.579641e+01  -5.095645e+01
  -1.931614e+01  -5.777383e+00
   2.351574e+01   6.393559e+00
  -5.425353e+01  -5.567274e+00
  -4.868298e+01  -1.050420e+02
  -7.944761e+01  -8.040603e+01
   4.981699e+01  -3.733077e+01
   1.576664e+02   4.958371e+01
   1.417061e+02   4.121568e+01
   2.925080e+01   5.632763e+01
  -8.193279e+01   5.504770e+01
  -1.420433e+02   3.216762e+01
  -1.189345e+01  -5.341650e+00
   7.465730e+01  -8.312928e+00
   2.407536e+01  -3.515838e+01
   4.313480e+00   4.821111e+00
   1.025610e+01   4.390355e+01
   9.266583e+01   2.237405e+01
   6.741979e+01   8.280957e+01
   3.767648e+00   1.055941e+02
  -8.159036e+01   1.006161e+02
  -2.311497e+02   6.816215e+01
  -1.368177e+02  -5.954353e+01
  -3.747812e+01  -1.730134e+02
   1.612003e+02  -1.092108e+02
   1.383693e+02  -7.470047e+01
   9.714699e+01   4.043481e+01
  -4.594268e+00   3.042301e+01
   2.324355e+01   5.024018e+01
   6.819652e+01   2.060658e+01
   4.944914e+01   3.365682e+01
   2.042001e+01   1.181882e+02
  -1.554821e+01   6.617426e+01
  -9.102145e+01   2.125217e+01
  -1.156092e+02  -1.050726e+02
  -1.638026e+01  -1.029624e+02
   8.589269e+01  -2.128305e+01
   1.367803e+02   8.694020e+01
   5.826252e+01   1.232985e+02
  -1.050172e+02   6.457852e+01
  -1.651673e+02  -3.066661e+01
  -1.658644e+01  -5.974608e+01
   7.101731e+00  -7.105428e+01
   2.496693e+01   2.983838e+00
  -2.681403e+01   7.873353e+00
  -6.594847e+01  -4.583474e-01
  -3.305959e+01  -7.611005e+01
   4.622772e+01  -4.047405e+01
   1.110599e+02  -3.489116e+01
   8.303719e+01   4.431989e+01
   1.563514e+00   7.986929e+01
  -6.829046e+01   9.403936e+01
  -6.947817e+01  -2.410780e+01
  -6.147413e+01  -6.195445e+01
   4.306219e+01  -7.799602e+01
   9.098517e+01  -8.823145e+00
  -6.289504e-01   3.544544e+01
  -8.246722e+00   8.298119e+01
  -3.092302e+01  -4.070346e+01
  -5.550346e+01  -2.947628e+01
   2.076665e+00  -7.676724e+01
   7.401815e-01   4.492156e+01
   3.773841e-01  -8.273486e+00
   2.798316e+01  -2.543753e+01
   1.632580e+01  -4.875481e+01
   2.950628e+01  -5.402528e+01
   2.288584e+01   6.435235e+01
  -6.801258e+00   9.591555e+01
  -7.453398e+00   1.730591e+01
  -2.807747e+01  -1.166661e+01
  -5.229352e+01  -8.976516e+01
   3.212817e+01  -1.599539e+01
   2.962496e+01  -6.568821e+00
   5.463575e+01   3.755716e+01
  -2.515781e+01   4.808979e+01
  -8.612653e+01   3.112131e+01
  -1.017991e+01  -7.031998e+00
   9.522602e+01  -1.958412e+01
   2.046762e+01   2.294564e+01
  -3.656388e+01   1.773790e+01
  -9.098621e+01  -9.553875e-01
