
 $NMID
 id='ANONYMOUS ', fmtdat='(2E16.6)'
 volume=1.0
 tramp=1.0
 $END
   2.294716e+03   2.380833e+01
   1.394828e+03   1.021839e+03
  -3.127811e+02   1.426360e+03
  -9.953720e+02   7.584691e+02
  -5.678039e+02  -2.120294e+02
   1.872956e+02  -3.183832e+02
   5.563867e+02   1.243787e+02
  -8.710269e+01   4.430450e+02
  -4.861051e+02   4.315740e+02
  -4.919499e+02  -8.091277e+01
  -1.594380e+02  -3.839523e+02
  -6.842884e+01  -5.047006e+02
   1.584310e+02  -1.310513e+02
   1.002734e+02   3.292940e+02
   7.350197e+01   4.715546e+02
  -2.172952e+02  -2.843402e+01
  -1.908983e+02  -4.365346e+02
   2.183801e+01  -3.692301e+02
   3.890398e+02  -4.746873e+01
   2.424912e+02   1.968697e+02
  -1.559811e+02   2.458049e+02
  -2.676560e+02   2.206848e+01
  -6.215836e+01  -1.673801e+02
   2.748944e+01  -1.814187e+01
   2.147081e+02   1.525944e+02
   1.185842e+02   2.909935e+02
  -3.194748e+02   1.622591e+02
  -4.481287e+02  -3.383593e+01
  -3.608393e+02  -2.703306e+02
   1.260973e+02  -9.060443e+01
   3.885519e+02  -1.307062e+02
   2.629278e+02   2.110056e+02
  -9.094746e+01   2.016253e+02
  -2.920750e+02   1.450074e+02
  -1.840944e+02  -2.182189e+02
  -3.653314e+01  -2.411387e+02
   1.183948e+02  -1.413205e+02
   5.171154e+01   7.793194e+01
  -4.991777e+01   1.633191e+02
  -1.624921e+02  -6.592060e+01
  -1.629205e+02  -3.705964e+02
   1.691045e+02  -2.640917e+02
   2.338668e+02  -3.360277e-01
   9.563747e+01   2.439515e+02
  -8.833025e+01   1.337627e+02
  -1.178206e+02  -1.616675e+02
   1.168641e+02  -2.095191e+02
   2.780516e+02  -3.333992e+00
   2.912545e+02   2.244944e+02
   7.718460e+01   2.450717e+02
  -2.086960e+02   1.819392e+02
  -3.085655e+02   2.340949e+01
  -2.325116e+02  -1.780585e+02
   4.872348e+01  -1.678255e+02
   1.784174e+02  -8.967470e+01
   7.645665e+01   6.497407e+01
  -9.348207e+01   1.210738e+01
  -6.714466e+01  -3.234518e+01
   1.167271e+02  -1.193488e+02
   1.879472e+02   9.471223e+00
   6.829048e+01   9.059381e+01
  -8.811266e+01   1.198061e+02
  -1.296836e+02   4.233966e+01
  -8.239466e+01  -6.179860e+01
  -1.298195e+01  -1.633797e+02
   1.698464e+01  -2.072489e+02
   1.259338e+02  -1.267520e+02
   1.665865e+02   2.893424e+01
   1.027944e+02   2.099115e+02
  -3.754965e+01   2.066397e+02
  -4.163963e+01   6.601912e+01
   2.818389e+00  -1.522323e+01
  -3.177665e+01  -1.292160e+01
  -1.078731e+02  -2.967266e+00
  -9.897879e+01  -4.914221e+01
  -3.576792e+01  -7.862592e+01
   5.844927e+01  -1.072222e+02
   3.578363e+01  -5.964695e+00
   5.762435e+01   1.161141e+02
  -9.464796e+00   1.261358e+02
  -5.727797e+01   7.538035e+01
  -1.714622e+02  -1.297348e+01
  -1.205655e+02  -2.026391e+02
   3.162261e+01  -1.956713e+02
   1.164699e+02  -5.628787e+01
   1.143486e+02  -3.370158e+00
   5.642915e+01  -4.275637e+01
   7.669546e+01  -6.491768e+01
   1.874380e+02   2.963390e+01
   1.483610e+02   1.938695e+02
   2.086557e+01   2.353748e+02
  -1.940690e+02   2.309660e+02
  -2.712323e+02   8.370861e+01
  -1.045052e+02  -3.211756e+01
  -3.141344e+01  -1.227505e+02
   2.638952e+01  -1.301114e+02
  -6.886446e+00   8.547375e-01
  -1.085014e+02   3.454967e+01
  -1.285328e+02  -2.715472e+01
  -4.078484e+01  -1.164339e+02
   7.716956e+01  -1.310597e+02
   1.067669e+02   2.891529e+01
  -1.546657e+01   9.110557e+01
  -1.086728e+02   2.992977e+01
  -6.306350e+01  -1.129350e+02
   2.701146e+01  -2.120400e+02
   1.723520e+02  -1.447959e+02
   1.914015e+02   4.107764e+01
   1.354431e+02   1.210322e+02
   4.475886e+00   1.355644e+02
  -7.651240e+01   8.441929e+01
  -9.014441e+01   3.180324e+01
  -9.130201e+00  -2.374866e+01
   2.486127e+01  -1.126330e+01
   2.126253e+01   6.225323e+00
  -3.475599e+01   3.701009e+01
  -7.254445e+01  -1.555407e+01
  -5.118411e+01  -2.291542e+01
   1.924198e+00  -8.284702e+00
   2.657096e+01   3.839491e+01
  -6.074589e+01   2.242574e+01
  -1.468237e+02   2.068489e+01
  -1.468061e+02  -8.142228e+01
  -4.862697e+01  -1.013775e+02
   1.315094e+02  -1.509863e+02
   1.257792e+02  -1.078947e+02
   8.839928e+01  -2.028407e+00
  -9.693242e+00   5.290053e+01
  -3.453824e+00  -2.244524e+01
   1.956982e+01  -1.469354e+01
   6.140833e+01  -3.931932e+01
   9.808470e+01   8.588780e+01
  -3.545428e+00   1.137541e+02
  -6.579639e+01   8.977027e+01
  -6.385028e+01   4.177497e+01
  -3.039503e+01   3.835263e+00
   2.085025e+01  -1.700680e+01
   1.887365e+01   4.333856e+01
  -5.782511e+01   7.505918e+01
  -8.303357e+01   3.057624e+01
  -1.649326e+02  -1.151459e+02
  -2.082384e+01  -1.111369e+02
   7.522209e+01  -7.385476e+01
   6.046119e+01   2.081929e+01
   4.696652e+01   5.955599e+01
   9.173902e+00   5.082241e+01
   2.684477e+01   5.875736e+01
   4.065287e+00   1.240408e+01
  -9.412786e+00  -2.397757e+01
  -2.390579e+01   4.590659e+00
  -9.604101e+01  -7.609813e+00
  -3.750979e+01  -3.238027e+01
  -1.002362e+01  -7.643087e+01
   6.140798e+01  -4.382317e+01
   8.224735e+01  -5.688986e-01
   1.072595e+02   1.140659e+02
  -8.832821e-01   9.376108e+01
  -7.146276e+01   8.029318e+01
  -4.933240e+01   1.231498e+01
  -4.090761e+01   1.967154e+01
  -7.965739e+00   1.061869e+01
  -3.808419e+00   1.952779e+01
  -5.605097e+01   2.904618e+01
  -2.702259e+01  -5.266618e+01
   2.557293e+01  -6.187339e+01
   8.933298e+01  -3.276075e+01
   5.963872e+01   2.971881e+01
  -1.020834e+01   8.670682e+01
  -7.666783e+01   1.628137e+01
  -1.052355e+02   7.721110e+00
  -6.523434e+01  -1.323462e+02
   2.424583e+01  -1.322725e+02
   1.300426e+02  -9.896747e+01
   1.041443e+02  -2.483978e+01
   8.894569e+01   5.886784e+01
   2.128896e+01   4.147701e+01
   4.463116e+00   6.698958e+01
   8.959434e-01   1.646828e+01
  -3.032450e+01   7.206915e+01
  -1.016322e+01   7.711378e+01
  -9.637000e+01   2.376952e+01
  -2.253436e+01  -7.808091e+01
  -2.262332e+01  -1.176847e+02
   5.873686e+01  -8.562037e+01
   6.665272e+01   3.439555e+01
   9.868691e+01   8.000382e+01
  -3.873208e+00   1.186429e+02
  -6.110297e+01   9.578991e+01
  -5.459137e+01   6.110510e+01
  -3.888645e+01  -4.177034e+01
   3.372830e+01  -3.314005e+01
  -7.793279e+01  -5.552723e+01
  -5.719047e+01  -3.508728e+01
   1.517008e+01  -6.442595e+01
   4.096105e+01   4.454211e+00
   1.165191e+02  -3.648237e+01
   5.751176e+01   2.081932e+00
  -1.653765e+01   8.786713e+01
  -7.554833e+01   2.477834e+01
  -1.075646e+02   9.133451e+00
   1.123724e+01   2.050385e+01
   1.818748e+01  -2.827452e+01
   7.886141e+00   1.984722e+01
  -1.564061e+01   3.030339e+01
  -5.281795e+01   3.596495e+01
  -3.641572e+01  -1.573597e+01
   6.048310e+01  -5.907006e+01
  -7.446904e+00  -2.801180e+01
  -6.352928e+01  -2.445647e+01
  -7.596658e+01  -1.299205e+01
  -3.248704e+01  -2.893558e+01
  -1.986761e+01  -9.713521e+01
   5.382872e+01  -6.992776e+01
   9.779947e+01  -1.674725e+01
   8.266018e+01   6.002757e+01
  -3.008160e+01   5.684714e+01
  -5.447684e+01  -2.975351e+01
  -5.103301e+01  -2.161012e+01
   8.699888e+01  -4.758677e+01
   8.254009e+01  -1.094134e+01
   3.454788e+01   1.047903e+02
  -3.822040e+01   5.795040e+01
  -8.909682e+01   1.647394e+01
   1.747666e+00   7.619506e+00
   1.273014e+01  -1.722252e+01
   4.045188e+01  -1.795372e+01
   1.704829e+01   3.546433e+01
  -4.609241e+01   2.654378e+01
  -3.091575e+01  -2.504509e+01
  -1.084960e+01  -4.116671e+01
   7.007291e+01  -2.753187e+01
   9.303579e+01  -4.047607e+01
   7.764878e+01   4.812171e+01
  -2.278639e+01   9.449032e+01
  -7.493316e+01   5.608772e+01
  -7.261222e+01   1.432758e+01
  -4.307872e+01  -4.419120e+01
  -5.307305e+01  -4.557264e+01
   4.704347e+01  -2.382158e+01
   3.387340e+01  -1.186057e+01
   3.433865e+01  -6.272464e+01
   2.095779e+01  -1.176626e+01
   2.403014e+01   3.611811e+01
  -3.427435e+01   6.344926e+01
  -2.368857e+00   4.948853e+01
  -4.036322e+01   7.199475e+01
  -9.896109e+01  -1.981939e+00
  -1.017933e+02  -5.907208e+01
  -3.226690e+01  -4.250982e+01
   5.572245e+01  -7.188450e+01
   6.337149e+01  -3.290392e+01
   2.267418e+01  -1.959970e+01
   1.788303e+01   4.144078e+00
  -1.532356e+01   5.161360e+01
  -1.134350e+00  -8.008433e+00
   7.976658e+00  -3.527310e+00
  -6.999671e+01  -8.998302e+01
  -6.851318e+01  -2.621479e+01
  -1.137611e+01  -2.198446e+01
   6.659863e+01  -7.655361e+01
   1.173862e+02  -7.392423e+01
   5.600922e+01   3.999359e+01
  -2.611381e+01   1.482948e+02
  -8.210448e+01   9.429662e+01
  -8.047409e+01   2.266151e+01
  -2.689467e+01   3.002996e+01
   1.056184e+00  -3.673539e+01
  -5.584006e-01   2.645608e-01
  -1.803699e+01   2.145103e+00
  -3.073197e+01  -3.580041e+01
  -3.274922e+00  -6.361710e+01
   1.835158e+01  -8.220579e+01
   4.413312e+01   1.126525e+01
   1.979682e+01   6.124319e+01
   2.391619e+01   1.089903e+02
  -6.684989e+01   3.139127e+01
  -7.620551e+00  -2.697806e+01
  -3.357679e+01  -5.761105e+01
   3.383076e+01  -3.913751e+01
   7.002508e+01   1.191690e+01
   8.664212e+01   1.094877e+01
   8.295482e-01   3.829934e+01
  -5.660153e+00   3.306823e+01
   4.568882e+01  -2.274872e+01
   4.215051e+01   4.442797e+00
  -5.820110e+01   8.933991e+00
  -4.818967e+01   5.160201e+01
  -5.219138e+01   4.063809e+01
  -6.229412e+01   1.262700e+01
   3.344170e+01  -5.625528e+01
   1.534087e+01  -8.464411e+01
   4.361612e+01   1.935494e+01
   2.710845e+01  -2.502223e+01
  -1.882048e+01   1.720241e+01
   1.773151e+01  -1.244368e+01
  -2.926045e+01  -2.509507e+01
  -1.862925e+01   8.778871e+00
  -5.396382e+01  -4.860400e+01
   1.093777e+01   9.165740e+00
   6.233776e+01  -6.057501e+00
   6.838441e+01  -2.803719e+01
  -4.678738e+01   1.753403e+01
  -4.398021e+00   1.783120e+01
   5.533597e+00   1.686290e+01
   1.450388e+01  -2.435466e+01
  -6.012443e+01  -3.114364e+01
   2.240028e+01  -5.541461e+01
   6.258905e+01  -1.808560e+01
   2.635175e+01   1.568227e+01
   4.192877e+01   1.426577e+01
  -2.106597e+01   6.023049e+01
  -8.736291e+00  -8.102201e+00
   1.550109e+01   1.617405e+01
  -1.180492e+01   1.924917e+01
  -1.186964e+01  -3.837991e+01
  -3.511012e+01  -9.001744e+00
   2.130642e+01   3.320051e+00
   4.838956e+00  -1.088075e+01
   5.675332e+01  -2.948764e+00
   8.364160e+01  -4.311173e+01
