
 $NMID
 id='ANONYMOUS ', fmtdat='(2E16.6)'
 volume=1.0
 tramp=1.0
 $END
  -4.515829e+03   8.103273e+01
  -2.607642e+03  -2.330094e+03
   4.939133e+02  -2.808585e+03
   2.221199e+03  -1.150439e+03
   1.416884e+03   6.235496e+02
  -5.088706e+02   6.000073e+02
  -1.003008e+03  -2.814863e+02
  -1.117512e+02  -1.012956e+03
   8.125108e+02  -7.583634e+02
   1.016411e+03  -2.128947e+01
   4.774211e+02   7.877279e+02
  -1.719203e+02   9.069119e+02
  -4.789898e+02   3.072861e+02
  -3.904686e+02  -7.706146e+02
   1.816894e+02  -9.859509e+02
   7.513043e+02   2.391265e+01
   2.836755e+02   5.894710e+02
  -3.198926e+02   6.598851e+02
  -5.691404e+02   1.687994e+02
  -4.345573e+02  -4.787724e+02
   3.480193e+01  -5.470282e+02
   7.700166e+01  -3.098263e+02
   2.566927e+02  -5.199307e+01
  -1.817509e+02   3.189501e+01
  -3.186044e+02  -2.740837e+02
  -3.250107e+02  -4.710437e+02
   4.311754e+02  -4.584434e+02
   8.495849e+02   1.097699e+01
   5.016301e+02   4.322244e+02
  -3.605471e+02   3.451029e+02
  -7.970848e+02  -7.866940e+01
  -3.697156e+02  -3.690058e+02
   2.733882e+02  -4.664842e+02
   4.721982e+02  -2.317769e+02
   3.762971e+02   1.717562e+02
   7.722077e+01   4.320629e+02
  -1.783695e+02   2.122513e+02
  -8.981299e+01  -2.020219e+02
   1.349979e+02  -4.238278e+02
   3.951624e+02   3.972832e+01
   1.403229e+02   6.467637e+02
  -2.950264e+02   6.930212e+02
  -5.592080e+02   4.545269e+01
  -1.787174e+02  -5.465957e+02
   2.876998e+02  -3.258399e+02
   3.276861e+02   2.826884e+02
  -9.876991e+01   5.001958e+02
  -5.825886e+02   8.967837e+01
  -5.723480e+02  -4.818303e+02
  -1.594068e+02  -5.729353e+02
   4.026935e+02  -2.929263e+02
   6.540957e+02   9.585370e+01
   3.405611e+02   3.423143e+02
  -1.685489e+02   3.479993e+02
  -4.544156e+02   5.204180e+01
  -2.449461e+02  -2.173491e+02
   8.249074e+01  -1.370509e+02
   1.053305e+02   1.288983e+02
  -1.184398e+02   2.304058e+02
  -2.778777e+02   1.623617e+01
  -1.156127e+02  -2.953556e+02
   1.808363e+02  -3.456708e+02
   3.647293e+02  -1.232264e+02
   2.712959e+02   1.672400e+02
  -3.516321e+01   2.727837e+02
  -2.393230e+02   2.857706e+02
  -3.530283e+02   1.641141e+02
  -2.930012e+02  -1.679745e+02
  -4.297232e+01  -4.447342e+02
   1.698298e+02  -4.281444e+02
   1.525345e+02  -9.894439e+01
   7.198512e+01   4.653851e+01
   2.144175e+01  -4.736583e+01
   1.561343e+02  -1.299647e+02
   2.492482e+02   5.879844e+01
   9.399927e+01   2.881382e+02
  -5.543955e+01   2.511032e+02
  -2.149240e+02  -2.725586e+01
  -2.030946e+02  -2.989398e+02
   1.671334e+01  -2.881015e+02
   2.639629e+02  -1.379254e+02
   4.079563e+02   1.847700e+02
   2.417081e+02   4.197970e+02
  -1.041346e+02   3.532624e+02
  -2.545956e+02   9.842535e+01
  -1.695380e+02  -1.073474e+01
  -1.645107e+02   2.929767e+01
  -2.702849e+02   6.385581e+01
  -4.363652e+02  -3.571079e+01
  -3.494055e+02  -3.040816e+02
   1.178192e+01  -4.929593e+02
   3.594257e+02  -4.544410e+02
   4.995348e+02  -2.216554e+02
   3.250392e+02   9.576142e+01
   6.624260e+01   3.526331e+02
  -1.174373e+02   2.441758e+02
  -2.826837e+01   2.169609e+01
   7.318136e+01  -9.094353e+01
   1.325751e+02  -1.588382e+01
   2.621329e+01   2.055462e+02
  -1.599942e+02   1.385136e+02
  -1.264468e+02  -9.908128e+01
  -1.491947e+00  -2.305265e+02
   2.159359e+02  -4.674591e+01
   1.434166e+02   2.452462e+02
  -1.667586e+01   3.989538e+02
  -2.980094e+02   1.993304e+02
  -3.904123e+02  -7.355088e+01
  -3.006649e+02  -2.479363e+02
  -6.651269e+01  -3.226497e+02
   1.690513e+02  -1.268336e+02
   1.654702e+02   3.706465e+01
   1.954564e+01   5.492632e+01
  -8.106134e+01  -8.745065e+01
   3.499268e+01  -1.887421e+02
   1.826790e+02  -1.410383e+02
   2.342195e+02   8.390373e+01
   3.157733e+01   9.988937e+01
  -7.124953e+01  -3.411928e+01
  -3.593245e+01  -9.396795e+01
   1.575366e+02  -1.223335e+02
   2.990633e+02   5.573549e+01
   2.647646e+02   1.756576e+02
   4.221496e+01   2.941817e+02
  -2.237964e+02   3.371530e+02
  -3.058430e+02   1.340018e+02
  -1.663645e+02  -6.386570e+01
   3.189445e+01  -9.057872e+01
   6.336467e+01   4.462554e+01
   1.429242e+01   7.371472e+01
  -1.739000e+02   4.272320e+01
  -2.303017e+02  -1.034840e+02
  -9.776355e+01  -1.724274e+02
   4.210826e+01  -8.893490e+01
   1.144248e+02  -4.847650e+01
   1.311893e+01   7.523365e+00
  -5.161985e+01  -4.140904e+01
  -6.761409e+01  -1.010333e+02
   8.454132e+01  -1.266612e+02
   2.229829e+02  -6.661687e+01
   1.773544e+02   1.128836e+02
   2.733494e+01   2.243576e+02
  -1.257978e+02   1.468407e+02
  -1.401859e+02   2.559309e+01
  -3.285623e+01  -1.145138e+02
   7.079887e+01  -1.346628e+02
   7.437039e+01  -4.125878e+01
   1.215584e+01  -1.927599e+01
   5.933037e+00   2.662923e+01
   2.819521e+01  -2.998598e+01
   1.039082e+02   3.626409e+01
   1.365316e+02   8.314990e+01
   7.307089e-01   1.869214e+02
  -1.831911e+02   2.064873e+02
  -2.157756e+02   1.230950e+01
  -2.189686e+02  -1.710123e+02
  -3.606303e+01  -2.515761e+02
   1.191749e+02  -2.033781e+02
   1.077446e+02   1.268260e+00
   8.742340e+01   1.248051e+02
  -7.907475e+00   6.591831e+01
   2.034739e+01  -1.513928e+01
   7.246426e+01  -1.938084e+01
   3.907948e+01   3.024140e+01
  -3.230258e+01   8.929620e+01
  -1.357566e+02   6.439554e+01
  -1.118413e+02  -7.803013e+01
  -7.289228e+00  -2.136452e+02
   1.374644e+02  -1.019067e+02
   2.415117e+02   6.725210e+01
   1.533640e+02   2.633795e+02
  -9.441051e+01   2.629790e+02
  -2.335876e+02   8.780243e+01
  -2.824007e+02  -6.140929e+01
  -1.330966e+02  -1.942066e+02
   5.786957e+01  -1.801981e+02
   1.380512e+02  -7.554643e+01
   8.267268e+01  -6.282544e+01
   2.095061e+01  -1.394368e+01
   4.294266e+01  -2.364074e+01
   9.874743e+01   8.610332e+01
   1.662333e+02   1.771884e+02
   1.531882e+01   1.960929e+02
  -7.969651e+01   1.445024e+02
  -1.972870e+02   3.449783e+00
  -1.904086e+02  -9.872452e+01
  -3.942052e+01  -1.861150e+02
   4.466294e+01  -9.719909e+01
   5.328386e+01  -3.255787e+01
   1.894730e+01   6.061962e+00
  -5.178527e+00   6.169295e+01
  -4.490553e+00   9.171646e+01
   6.481024e+01   3.139894e+01
  -1.360406e+01   1.728530e+01
  -5.060137e+01  -3.908349e+01
  -1.351658e+02  -1.464174e+01
  -1.274202e+02  -7.303250e+01
   4.268545e+01  -1.018737e+02
   1.138146e+02  -1.753323e+01
   1.695386e+02  -7.701435e+00
   3.320007e+01   8.386716e+00
  -2.603586e+01   7.132284e+01
  -4.076121e+01  -3.986527e+01
  -5.078739e+00   1.456472e+00
   3.102263e+01  -2.939365e+01
  -2.893862e+01  -2.884443e+01
   5.760936e+01   3.544629e+01
  -8.539140e+00  -4.109630e+01
   5.981132e+01  -2.052988e+01
   1.021851e+02   3.241534e+01
   1.216901e+01   7.191393e+01
  -6.433315e+00   1.112367e+02
  -1.217641e+02   1.029554e+02
  -1.129367e+02   5.434944e+01
  -9.083386e+01  -9.564043e+01
   1.205918e+01  -1.095027e+02
   9.041572e+01  -6.342781e+01
  -3.974950e+00   2.134350e+01
  -1.160378e+02   1.287367e+01
  -1.429613e+02  -4.175973e+01
  -6.792395e+01  -6.479058e+01
   7.603298e+01  -6.433499e+01
   1.434594e+02  -3.309938e+01
   9.331589e+01   1.501700e+01
   7.480142e+00   2.648552e+01
  -5.918880e+01   5.095895e+00
  -3.738570e+01  -3.046325e+01
   5.972589e+01  -3.509731e+01
   1.269321e+02   7.699183e+01
   1.801450e+01   1.540721e+02
  -6.312181e+01   1.884994e+02
  -1.431458e+02   9.578249e+01
  -1.810642e+02  -7.892393e+01
  -4.775744e+01  -2.043726e+02
   7.856629e+01  -1.334874e+02
   1.068775e+02   1.087216e+01
   8.639016e+01   1.518554e+02
  -1.383419e+01   9.304899e+01
  -5.512691e+01   3.608673e+01
  -5.736632e+01   1.514175e+01
  -4.362588e+01   1.535771e+01
   3.741394e+01  -8.221737e+01
   1.778648e+01  -2.933638e+01
  -4.584675e+01  -6.478746e+01
  -5.943177e+01  -1.350642e+02
   6.081308e+01  -8.416589e+00
   1.437358e+02   6.272446e+01
   6.888927e+01   6.097163e+01
  -1.634632e+01   7.229002e+01
  -5.608295e+01   7.291694e+00
  -1.031291e+02   2.120284e+01
  -3.424034e+01  -1.069436e+01
   6.972157e+01  -8.411983e+00
   9.665208e+00  -4.631231e+01
  -3.391986e+01   1.701942e+01
  -6.123985e+00  -3.287954e+01
   6.839498e+01   1.305840e+01
   1.100199e+02   8.509462e+01
   3.521531e+01   9.937503e+01
  -7.187935e+01   1.264776e+02
  -2.020040e+02   1.057039e+02
  -1.651596e+02  -3.448998e+01
  -9.239199e+01  -1.827456e+02
   8.874953e+01  -1.532904e+02
   1.342725e+02  -5.375988e+01
   4.421226e+01   5.572985e+01
   2.147153e+01   7.428750e+01
  -1.047144e+01   5.690144e+00
  -2.322650e+01   2.525718e+01
   6.849045e+00   2.006065e+01
   1.996041e+01   2.885026e+01
  -8.819927e+00   6.284737e+01
  -8.602135e+01   4.976157e+00
  -1.022493e+02  -9.981300e+01
  -6.362295e+00  -1.245755e+02
   8.562238e+01  -2.737399e-01
   1.356502e+02   6.724076e+01
   1.469140e+01   1.077966e+02
  -1.147611e+01   1.022632e+02
  -8.870623e+01   1.394511e+01
  -8.159295e+00  -1.006407e+02
   4.653445e+01  -4.756378e+01
   1.659127e+01  -7.118003e+01
   8.559832e+00   5.709796e+01
  -8.061192e+01   1.818533e+00
  -4.304860e+00  -3.589387e+01
   8.463173e+01  -9.099835e+01
   1.288751e+02  -5.920193e+01
   7.557866e+01  -7.525317e+00
  -1.519441e+01   1.147218e+02
  -1.628812e+01   1.001782e+02
  -5.290064e+01   3.133599e+01
  -1.684323e+01  -2.139118e+01
   3.238998e+01  -3.332215e+01
   4.290032e+01  -1.526291e+00
   1.949516e+01   6.524032e+01
  -1.642428e+01   8.819017e+01
   1.882167e+00   4.804667e+01
  -6.372717e+01   1.834744e+01
  -6.184134e+01  -2.655077e+01
  -1.230259e+01  -5.126834e+01
  -1.043129e+01  -5.998162e+01
   1.956198e+01  -5.584727e+01
   5.133763e+01  -5.551127e+01
   7.170835e+01  -2.344628e+01
   3.777788e+01   8.187136e+01
   5.465074e+00   1.091830e+02
  -5.187818e+01   4.360422e+01
  -5.020664e+01  -5.898003e+01
  -2.314338e+01  -6.237805e+01
   1.949160e+01  -2.349911e+01
   1.051994e+02   3.205676e+01
   6.841941e+01   3.802799e+01
   2.253872e+00   5.614603e+01
  -5.873824e+01   3.515549e+01
   5.265533e+00  -1.122207e+01
   6.780660e+01   2.823541e+01
   2.860586e+01   3.585629e+01
  -9.597898e+00   5.653177e+01
  -7.228428e+01  -1.428463e+00
