
 $NMID
 id='ANONYMOUS ', fmtdat='(2E16.6)'
 volume=1.0
 tramp=1.0
 $END
   4.403740e+03  -9.638421e+00
   2.622412e+03   2.576177e+03
  -4.636932e+02   2.837144e+03
  -2.132294e+03   1.193355e+03
  -9.802661e+02  -6.330023e+02
   5.841846e+02  -5.843771e+02
   9.061215e+02   3.959302e+02
   1.748887e+02   9.849902e+02
  -7.700491e+02   9.409263e+02
  -9.212625e+02   3.665999e+00
  -3.607446e+02  -9.706118e+02
   3.015094e+02  -1.004716e+03
   4.748501e+02  -7.502336e+01
   4.831794e+02   7.011459e+02
  -3.542995e+02   6.578495e+02
  -7.489315e+02   6.827677e+00
  -4.425744e+02  -7.415172e+02
   4.254251e+02  -6.048636e+02
   5.924697e+02  -2.662156e+02
   5.169023e+02   4.018715e+02
  -3.890086e+00   4.897687e+02
  -2.276524e+02   4.042892e+02
  -1.796968e+02  -4.641081e-01
   1.007575e+02  -3.153963e+01
   3.810824e+02   1.173589e+02
   1.585607e+02   4.292051e+02
  -3.951078e+02   4.070161e+02
  -8.865917e+02   2.268256e+01
  -4.450624e+02  -5.692195e+02
   3.408489e+02  -4.512571e+02
   6.719809e+02   5.586723e+01
   4.404753e+02   5.443279e+02
  -2.999209e+02   5.853823e+02
  -6.051433e+02   2.037973e+02
  -4.337831e+02  -2.835185e+02
  -8.645289e+01  -5.019308e+02
   1.805693e+02  -3.763586e+02
   2.068499e+02   2.367088e+02
  -1.539899e+02   4.706018e+02
  -4.063022e+02  -1.002104e+01
  -2.036948e+02  -6.566531e+02
   3.336296e+02  -6.733506e+02
   5.548904e+02  -2.707680e+01
   2.326730e+02   4.746527e+02
  -2.508668e+02   2.754821e+02
  -3.872854e+02  -2.609421e+02
   5.214790e+01  -4.799411e+02
   5.233522e+02  -6.935799e+01
   5.834379e+02   4.182088e+02
   1.629996e+02   5.668656e+02
  -3.879621e+02   3.599650e+02
  -6.235228e+02  -8.413412e+01
  -3.906935e+02  -3.270561e+02
   8.721818e+01  -3.083000e+02
   3.977133e+02  -4.627270e+00
   2.473685e+02   1.882484e+02
  -8.510683e+01   7.359124e+01
  -2.071927e+02  -1.751252e+02
   1.072063e+02  -1.966516e+02
   3.458868e+02  -3.336197e+00
   2.038570e+02   2.631959e+02
  -1.925637e+02   2.469008e+02
  -3.510879e+02   9.133883e+01
  -1.738062e+02  -9.956806e+01
   1.118660e+02  -2.530018e+02
   3.146970e+02  -3.035337e+02
   3.450439e+02  -1.636273e+02
   2.309496e+02   1.500877e+02
   9.644548e+01   4.177112e+02
  -6.148158e+01   3.570583e+02
  -2.305387e+01   1.465674e+02
  -1.437304e+00   5.992051e+01
  -5.102111e+01   1.418103e+02
  -2.068833e+02   1.505565e+02
  -2.809562e+02  -6.536612e+01
  -1.349983e+02  -2.913479e+02
   8.016396e+01  -2.451369e+02
   2.178295e+02   1.784039e+01
   2.151444e+02   2.977028e+02
  -2.968311e+01   3.040243e+02
  -2.821525e+02   1.316675e+02
  -4.126522e+02  -1.830852e+02
  -1.884221e+02  -3.623121e+02
   1.036352e+02  -3.050415e+02
   2.369760e+02  -1.118612e+02
   1.183158e+02   3.686580e+01
   6.901794e+01  -3.751311e+01
   1.982449e+02  -7.716207e+01
   4.196053e+02   2.552100e+01
   3.048432e+02   2.841215e+02
  -1.691311e+01   4.170760e+02
  -3.731405e+02   3.991786e+02
  -4.802049e+02   1.596756e+02
  -2.973257e+02  -9.983179e+01
  -4.821769e+01  -2.980772e+02
   1.153091e+02  -2.455746e+02
   1.076158e+02  -4.219504e+01
  -6.572738e+01   1.243413e+02
  -1.730428e+02  -3.256511e+01
  -7.661489e+01  -1.733588e+02
   1.061176e+02  -2.216936e+02
   1.855684e+02   4.678118e+01
  -3.304438e+01   2.365491e+02
  -1.857799e+02   6.559203e+01
  -1.375514e+02  -2.589563e+02
   6.777813e+01  -3.643750e+02
   2.276167e+02  -2.224465e+02
   3.037908e+02   1.028329e+02
   2.376250e+02   2.328586e+02
   1.243301e+02   2.562633e+02
  -1.126692e+02   1.319572e+02
  -1.531153e+02   1.880197e+01
  -8.153172e+01  -2.807104e+01
   9.953659e+01   5.182830e+01
   2.443455e+01   1.001632e+02
  -1.033538e+02   9.882537e+01
  -1.950902e+02   3.073089e+00
  -2.319876e+01  -8.470212e+01
   4.280299e+01  -1.635507e+01
   4.019834e+01   4.697902e+01
  -1.479172e+02   3.140239e+01
  -2.497212e+02  -4.818458e+01
  -2.501358e+02  -1.999951e+02
  -3.437826e+01  -2.325820e+02
   1.779555e+02  -2.093704e+02
   3.266431e+02  -9.972514e+01
   1.665538e+02   1.376459e+02
  -5.285338e+00   1.062258e+02
  -1.248196e+02  -1.762773e+01
  -2.239242e+00  -1.627191e+02
   1.702603e+02  -8.423876e+01
   2.173903e+02   1.229191e+02
   7.040547e+01   1.935344e+02
  -1.231365e+02   1.562293e+02
  -1.194716e+02   4.291591e+01
  -7.146085e+01  -2.598334e+01
   5.536111e+00   1.023041e+01
  -9.352545e+00   3.008818e+01
  -9.529460e+01   7.312808e+01
  -1.633050e+02  -6.154818e+00
  -1.735886e+02  -1.433943e+02
  -3.074647e+01  -1.933516e+02
   1.526300e+02  -1.572200e+02
   1.999827e+02  -4.846070e+00
   8.562017e+01   1.618201e+02
  -9.337015e+01   1.560185e+02
  -5.584595e+01   4.397199e+01
  -1.171825e+01   1.078134e+01
   7.270846e+01   1.967274e+01
  -4.994700e+01   2.440815e+01
  -9.644461e+01  -6.928511e-01
  -1.166082e+02  -7.565098e+01
  -9.602846e+00  -1.625376e+02
   1.052589e+02  -1.367164e+02
   1.829182e+02  -3.252647e+01
   1.847977e+02   1.526017e+02
   2.745320e+01   2.179017e+02
  -1.087732e+02   1.821477e+02
  -1.262514e+02   6.268082e+00
  -6.183469e+01  -2.788746e+01
  -2.515681e+01  -2.660606e+01
  -6.646864e+01   3.447078e+01
  -6.588771e+01  -2.828541e+01
  -3.173263e-01  -7.440639e+01
   2.633481e+01  -1.016329e+02
   1.171531e+02  -5.968350e+01
   3.717256e+01   9.246685e+01
  -3.223381e+01   1.061863e+02
  -1.191150e+02   5.804502e+01
  -1.691394e+02  -9.191943e+01
  -7.252868e+01  -1.663669e+02
   1.744354e+02  -1.967801e+02
   3.013199e+02  -6.517386e+01
   2.153307e+02   1.243856e+02
   3.787874e+01   2.294623e+02
  -7.800316e+00   1.841479e+02
  -4.912290e+01   6.043076e+01
  -4.745394e+01   7.507948e+01
  -1.229996e+02   5.878130e+01
  -1.061961e+02   6.262677e+01
  -1.323221e+02  -3.052075e+01
  -1.091323e+02  -1.674855e+02
   1.577671e-01  -2.155333e+02
   1.010527e+02  -1.705813e+02
   1.407763e+02   3.864334e+01
   1.871873e+02   7.235820e+01
   1.542230e+01   1.543503e+02
  -6.287841e+01   6.495601e+01
  -5.980934e+01  -8.615806e+00
   2.683645e+01  -3.767372e+01
   4.567130e+01  -2.319823e+01
  -3.744230e+01   7.193720e+00
  -5.910168e+01  -8.102183e+01
   4.874995e+00  -4.305928e+01
   1.548178e+02  -2.342924e+01
   1.609662e+02   3.035115e+01
   1.445155e+02   9.355851e+01
  -2.338160e+00   1.479191e+02
  -1.304496e+02   8.818313e+01
  -1.408955e+02   1.586839e+01
  -9.026940e+01  -1.895511e+01
   3.782577e+01  -3.738216e+01
   6.837163e+01   4.408902e+01
  -1.811782e+01   8.512447e+01
  -9.672236e+01   5.377629e+01
  -2.933753e+01   5.409795e+01
  -4.135438e+01  -7.383795e+01
  -1.553469e+01   1.742137e+01
  -2.777091e+01   2.907893e+01
  -7.088091e+01  -3.109677e+01
  -3.246838e+01  -6.689567e+01
   9.259089e+00  -1.987242e+02
   1.166464e+02  -1.359630e+02
   1.944563e+02  -4.131702e+01
   1.349275e+02   6.847925e+01
   2.403178e+01   1.626576e+02
  -1.025076e+02   8.016652e+01
  -5.069612e+01  -4.555533e+01
   2.848429e+01  -1.598990e+01
   6.926579e+01   9.321881e+01
   7.957043e+01   1.471927e+02
  -3.895817e+01   1.565165e+02
  -2.247112e+02   4.726030e+01
  -1.530310e+02  -3.093305e+01
  -5.573052e+01  -7.573103e+01
   1.247385e+02  -4.122902e+01
   6.221836e+01  -3.081755e+01
  -5.817380e+01   5.657532e+01
  -8.919995e+01  -1.835364e+01
  -6.948785e+01  -1.306904e+02
   1.028040e+02  -1.329036e+02
   1.496656e+02  -7.920178e+01
   1.462470e+02   9.368741e+01
   8.062837e-01   2.108785e+02
  -8.048758e+01   1.578671e+02
  -9.515373e+01   3.532765e+01
  -5.459337e+01  -7.986895e+01
  -1.299145e+01  -5.564495e+01
   6.854548e+01  -2.778378e+01
   8.648467e+01   1.369323e+01
   1.067776e+01   1.295890e+01
  -1.805039e+01   1.024450e+01
   3.346885e+01   1.857567e+01
  -7.515387e+00   8.650373e+01
  -1.393173e+00   1.050105e+02
  -7.730078e+01   2.312213e+00
  -1.292649e+02  -2.910625e+01
  -1.303139e+02  -8.199046e+01
  -2.116699e+01  -9.170529e+01
   6.647002e+01  -5.739464e+01
   5.632220e+01  -8.893956e+00
   8.959684e+00  -2.057666e+01
  -2.967994e+01  -1.734090e+01
  -3.032725e+01   4.432667e+01
   7.552229e+01  -6.095646e+01
   2.580432e+01  -2.928455e+01
  -4.744811e+01  -4.340258e+00
  -8.728508e+01  -4.028638e+01
  -2.837517e+01  -8.646559e+01
   1.400249e+02  -1.135602e+02
   1.668746e+02  -3.091606e+01
   1.357332e+02   4.868453e+01
   3.475047e+01   9.313510e+01
  -6.228820e+01   1.005760e+02
  -8.821168e+01   4.783699e+01
  -6.795881e+01  -1.216168e+01
  -1.997610e+01  -8.910928e+01
  -8.527883e+00  -4.344285e+01
  -2.575101e+01  -1.829658e+01
  -2.698589e+01  -6.604275e+01
   1.180239e+00  -8.552755e+01
   1.220160e+02  -9.206014e+01
   1.237264e+02   9.603670e+00
   8.585110e+01   1.318920e+02
  -1.403859e+01   8.027454e+01
  -6.030695e+01   1.271948e+01
  -5.246264e+01  -8.641599e+01
  -2.424988e+01  -7.757376e+01
   1.071421e+02  -7.953489e+01
   1.276665e+02  -1.814739e+01
  -7.248212e-01   9.514438e+01
  -2.372001e+01   4.032316e+01
  -4.975935e+01   5.224462e+00
   2.086228e+01   2.140107e+01
   6.882255e+01  -2.044804e+01
   1.709537e+01   1.058711e+01
  -7.512669e+01   7.262628e+01
  -7.678626e+01   7.256449e+01
  -1.007197e+02  -4.360932e+01
  -1.462063e+01  -1.029248e+02
   6.458210e+01  -5.373931e+01
   8.746127e+00  -3.073621e+01
   6.787964e+00   7.400026e+01
  -1.247097e+01   4.765783e+01
  -2.376982e+01  -8.955256e+00
  -1.462690e+01  -6.366103e+01
  -3.031883e+01  -1.003030e+02
   8.710716e+00  -1.069656e-01
   6.063717e+00  -1.480022e+00
   2.203292e+01  -2.262336e+01
   5.597224e+00   2.701390e+01
   2.464063e+01   2.077823e+01
   2.181624e+01  -4.874021e+00
  -4.025712e+01   6.106139e+01
  -9.428222e-01   3.252832e+01
  -3.296497e+01  -4.727713e+01
  -3.327603e+01  -5.931384e+01
   4.621064e+01  -3.944053e+01
   3.877191e+01   4.111023e+01
   9.055120e+00   8.563005e+01
  -5.303091e+01   3.293820e+00
  -6.734566e+01   8.784221e+00
  -9.988227e+01  -5.690893e+01
   9.710447e+00  -6.525147e+01
   3.274414e+01  -1.818354e+01
  -1.376268e+01  -2.641476e+01
  -2.380007e+01  -3.556769e+01
  -3.665244e+01  -7.381467e+01
   6.555381e+01  -7.581272e+01
   1.476678e+02  -4.459339e+01
