
 $NMID
 id='ANONYMOUS ', fmtdat='(2E16.6)'
 volume=1.0
 tramp=1.0
 $END
  -6.393838e+02   1.062229e+02
  -1.717485e+02  -2.449481e+02
   1.106349e+02  -1.979339e+02
   9.047279e+01  -1.444718e+02
   5.942009e+01   1.039796e+02
  -1.164829e+01   7.850179e+01
  -1.233764e+02   5.101963e+01
   1.997651e-02  -5.692894e+01
  -5.214093e+01   3.190129e+01
   4.629309e+01   2.192029e+01
   1.403079e+00  -9.182507e+00
  -1.501346e+01   6.403608e+01
   9.359087e+00   6.861154e+01
  -4.325105e+01  -1.605540e+02
  -4.552199e+01  -1.968571e-01
   2.708285e+02   2.814920e+01
   1.313383e+02   7.734797e+01
  -2.198726e+02   1.447393e+02
  -4.470000e+01   1.196032e+02
  -5.710265e+01  -5.175793e+01
   1.401391e+02  -1.112809e+02
  -6.563226e+00   1.011446e+02
  -3.654727e+01   7.442755e+01
  -1.261163e+02  -9.546755e+01
   6.358957e+00  -5.929021e+01
   3.016423e+01  -4.032841e+00
  -6.032387e-01  -3.255886e+01
   3.221882e+01   5.118744e+01
   5.151358e+01   3.212043e+01
   2.426147e+01   5.002125e+00
  -7.125053e+01   3.013444e+01
  -1.166126e+01   6.456187e+01
   4.811801e+01  -2.844689e+01
   3.572854e+01  -4.868484e+01
   1.290328e+01   4.963218e+01
  -2.174629e+00   5.951166e+01
   1.420074e+01   1.343346e+00
   6.822534e+00   1.881000e+01
   3.357054e+01  -3.193898e+01
   1.048008e+01   3.662999e+01
  -4.823738e+01   1.017577e+02
   1.837390e+01   4.401930e+01
  -1.935583e+01  -5.863387e+01
  -3.690549e+01  -5.086886e+01
  -4.426113e+01   8.504131e+00
   2.623394e+01   3.018642e+01
  -1.081869e+01   3.746596e+01
  -2.241405e+01   1.583260e+01
  -8.490526e+01  -2.895608e+01
  -1.685840e+01  -2.940562e+01
   3.870935e+01  -2.325760e+01
   6.448766e+01  -3.256120e+01
   3.414726e+01   8.882365e+00
  -1.073345e+01  -3.266514e+00
  -3.521650e+01   1.049461e+01
  -1.593485e+01  -7.800415e+00
   1.413004e+01  -1.231268e+01
   5.895968e+00   6.016310e+01
   4.276380e+00  -1.828247e+01
  -3.686764e+01   1.055767e+00
  -3.881790e+01   1.386721e+01
   7.964652e+00   5.147692e+00
   2.487617e+01   8.420904e+00
   3.948923e+01  -2.375719e+00
  -3.436973e+00   3.094824e+01
  -3.647238e+01   5.983319e+01
  -2.821261e+01   2.628618e+01
  -3.916781e+01   1.134576e+01
  -7.350221e+00  -3.186816e+01
  -7.763893e+00  -8.264598e+01
  -2.389476e+01  -1.580829e+01
   3.125766e+00  -1.706896e+01
   2.335569e+01   1.146643e+01
   3.540878e+01   4.012551e+01
   3.269796e+01  -2.139733e+01
  -1.627750e+01   1.719233e+01
  -3.844337e+01  -7.252998e+00
  -2.120089e+01  -2.262391e+01
  -1.246553e+01  -1.472772e+01
   3.838703e+01  -7.284150e+00
   1.216048e+01   8.027404e+00
  -2.175179e+01  -9.551606e+00
   2.541478e+01  -5.472776e+01
   3.055429e+01   3.417575e+01
   2.153864e+01  -1.514209e+01
   1.600408e+01  -3.534584e+01
   1.718648e+00   1.131395e+01
  -7.142436e+01  -5.901613e+00
  -7.033059e+01   8.164869e+00
  -3.909967e+01   3.029555e+01
  -8.842103e+00  -2.841976e+01
   6.114062e+01  -1.764196e+01
   3.070828e+01  -3.005343e+01
  -3.941849e-02  -1.077139e+01
  -8.119267e+00   3.957117e+01
   2.967858e+01   5.712988e+01
   5.811440e+00  -2.826575e+01
   3.267855e+01  -4.569007e+01
   1.071137e+00  -1.396273e+01
   3.464995e+01   4.071892e+01
  -3.726097e+00  -3.055110e+01
  -1.365396e+01  -5.961833e+01
   2.989097e+01  -5.291217e+01
   1.228050e+00  -8.638501e+00
   1.787478e+01   1.850859e+01
   6.900058e+00   3.250216e+01
  -2.703068e+01   2.198767e+01
   1.638207e+01   2.377278e+00
  -1.918343e+01  -7.339393e+00
  -4.212269e+00  -4.861533e+00
   4.474843e+00  -3.277246e+00
   2.636978e+01  -6.618403e+00
   2.211923e+01   2.893228e+01
   2.341291e+01   1.207720e+01
  -2.233335e+01   2.978161e+01
   1.670366e+01  -3.175644e+01
  -4.177276e+01  -2.449925e+01
  -6.554350e+00   5.086915e+00
   3.877981e+01  -9.538504e+00
  -2.592695e+01   2.674860e+01
  -3.873451e+01  -3.263244e+01
   3.711788e+01   5.796075e+00
   2.147792e+00   4.707897e+01
   1.734649e+01   1.989054e+01
   5.627172e-01   7.016640e+00
   1.340340e+01  -1.459571e+01
  -2.210159e+01   2.780850e+01
   2.514393e+01  -2.013281e+01
   3.627207e+01   3.265882e+01
   3.781222e+01  -6.539008e+00
  -2.634394e+00   3.335734e+01
  -3.531939e+01  -4.736756e+01
   3.022926e+01  -3.508490e+00
   9.032317e+00  -2.063386e+01
   4.875259e+01  -5.333391e+01
   1.137103e+01  -1.857175e+01
  -1.854411e+01   1.183339e+01
   2.494709e+01  -1.991927e+01
   7.893161e+00  -2.726238e+01
   2.223597e+00   3.002190e+01
   4.424368e+01  -1.703341e+01
   2.770597e+01   2.624328e+01
  -4.788256e+01   1.415323e+01
  -3.533863e+01   4.879263e+00
  -1.908151e+01  -1.001102e+01
  -9.031737e+00  -3.304988e+00
   1.891797e+01   1.636106e+01
   1.932604e+01  -1.067146e+00
  -9.367455e+00   3.750651e-01
   8.742927e+00   5.355282e+00
  -7.181277e+00   8.956593e+00
   1.376322e+00  -1.133513e+01
   4.633491e+01   2.396885e+01
  -2.317036e+01  -1.443194e+01
  -1.312173e+00   2.183046e+01
  -3.677480e+01  -1.929200e+01
  -4.212680e+00  -1.324533e+01
  -5.173945e+00  -1.904203e+01
  -1.218720e+01  -2.981207e+01
  -1.255233e+01   3.364103e+01
   5.582266e+00  -5.804663e+00
  -9.475869e+00   4.313043e+01
  -5.369488e+00  -1.651050e+01
  -3.124679e+01  -2.598658e+01
   2.781694e+01  -4.319003e+00
  -2.134629e+00   5.663829e+01
   2.501165e+01  -2.980414e+00
   1.100492e+00  -9.151102e+00
  -5.086243e+00  -3.235483e+01
   4.463105e+01  -3.964624e+01
   1.584496e+01  -4.841183e+01
   2.641580e+01  -4.885862e+00
  -1.787687e+01   3.512308e+01
  -6.836384e+01  -1.372272e+01
  -3.000443e+01  -2.793094e+01
   1.540893e+01  -3.381973e+01
   6.201904e+00  -9.419421e+00
  -1.192084e+01  -3.271353e+01
   2.381474e+01  -1.981103e+01
  -4.331184e+01   2.651926e+01
  -2.876024e+01   7.376437e+00
   1.309828e+01   6.495208e+01
   1.266079e+01   1.075651e+01
   3.503708e+00   1.790662e+01
   2.615332e+01  -2.655150e+01
   6.548431e+00   1.374067e+01
  -1.937047e+01   3.739458e+01
   1.249459e+01  -3.613646e+01
  -1.626024e+01  -9.856648e+00
   1.213715e+00   1.096308e+01
   1.467914e+01   2.540260e+01
   1.905459e+01   2.100795e+01
   2.312857e+01  -2.130857e+00
  -6.519685e+00  -5.270094e+01
  -2.672064e+01  -5.895827e+00
  -3.097671e+01  -1.550398e+01
   7.000930e+00   3.307575e+01
   1.289612e+00   4.718098e+00
   5.299547e+01   3.596762e+01
   6.254636e+01  -2.187758e+01
   2.061485e+01  -6.984777e+00
  -2.702356e+01  -2.786893e+01
   3.549659e+01  -3.143339e+01
   1.604757e+01   4.934896e-01
   2.870933e+01   1.600220e+01
   3.436782e-03   2.207602e+01
   7.429522e+01  -9.531358e+00
   4.030591e+01  -1.071046e+00
   3.173770e+00  -1.307555e+01
   2.403947e-02  -3.031080e+01
  -2.284955e+01  -2.085363e+01
  -4.629573e+01   3.601949e+01
  -2.390230e+01   2.286745e+01
  -8.238860e+00   2.266191e+01
  -1.403103e+01  -4.296217e+01
   1.186088e+01  -2.458572e+01
   2.826936e+01  -4.131495e+00
  -4.543553e+01  -7.111009e+00
  -3.334406e+01  -8.228839e+00
   2.590687e+01   6.954450e+00
  -1.573866e+00  -1.976771e+01
   2.114156e+01   3.243890e+00
   2.511591e+01   4.822051e+00
   4.198842e+01   3.531728e+01
   4.090835e+01  -8.108785e+00
  -3.694344e+01   2.825774e+01
  -7.553552e+00   1.560641e+01
  -4.040566e+01  -2.460957e+01
   2.288380e+01  -2.440264e+01
   3.190579e-01   9.899739e+00
   3.470933e+00   6.071660e+00
  -2.011844e+01   1.178624e+01
  -2.501549e+01  -1.560327e+01
  -6.073896e+00   4.271492e-01
   9.502612e+00  -2.783548e+01
   8.970472e+00   1.172835e+01
  -9.738356e+00  -1.473293e+01
   2.674663e+01  -2.027671e+01
  -3.773200e+01  -1.943576e+01
  -2.165264e+01   3.040836e+00
   8.300585e+00  -1.677906e+01
   8.909846e+00  -1.427969e+01
   2.494572e+00   8.290221e+00
   2.456451e+01  -2.183614e+01
   2.299540e+00   1.501234e+01
  -1.647350e+01   3.779492e+01
   2.858702e+01   3.488806e+00
  -2.895232e+01   2.911619e+01
  -4.965343e-01   1.635485e+01
  -4.494679e+00  -2.128626e+01
   1.041970e+01  -5.627003e-01
   3.250324e+01   2.354599e-01
  -2.088347e+01  -8.691298e+00
  -2.490610e+01  -9.703105e-01
  -5.897371e+00  -7.721648e+00
   3.860672e+01   5.992398e+00
  -2.131158e+00   6.483199e+01
  -7.116903e+00   1.656991e+00
  -1.521315e+01  -1.439812e+01
  -6.955626e+00  -9.091422e+00
   2.389798e+01   2.259223e+01
   4.991010e+00  -5.236325e+00
   2.876380e+01  -2.573151e+01
  -2.512851e+00  -4.882545e+01
   2.186382e+01   6.629248e+00
   1.541942e+01  -2.754397e+01
   5.691620e+00   2.108554e+01
  -2.508421e+01   1.838801e+01
   3.995376e+01   4.636368e+00
  -3.778402e+01   5.429884e+00
   2.436512e+01   4.723813e+01
   3.039005e+01  -7.767441e+00
   4.560945e+01  -2.463474e+01
  -1.171719e+00  -6.809529e+01
   1.594130e+01   3.158062e+01
   1.404803e+01  -1.719072e+00
  -3.171438e+01   3.503384e+01
  -1.027659e+00   9.023997e+00
  -1.320333e+01   1.449697e+01
  -7.622117e+01  -3.268574e+01
  -7.644736e-01   3.173882e+01
   3.481846e+01   2.874009e+00
  -3.099797e+01  -2.009071e+01
  -1.136683e+01  -2.611962e+01
  -1.670424e+00   1.972780e+01
   3.633027e+00  -4.609241e+01
   3.445025e+01  -8.997620e+00
   3.133741e+01  -3.937870e+01
  -1.675222e+01  -3.007147e+01
  -1.522935e+01  -1.993269e+01
  -8.434064e+00   4.269013e+01
   9.234739e+00   5.026597e+01
   3.077727e+01   1.639724e+01
   2.571659e+01   2.387264e+01
  -5.529125e+01   1.417042e+01
   2.038779e+01  -2.279939e+01
  -1.725780e+01   4.126460e+01
  -4.128506e+00  -1.761676e+01
  -1.949638e+01   2.091489e+01
  -2.616607e+01  -3.544106e+01
  -4.197625e+01  -1.688339e+01
  -1.105522e+01   3.821702e-01
   3.609470e+01  -1.178844e+01
   6.990934e+00  -4.765094e+01
  -1.729000e+01   2.002563e-01
   3.258102e+01  -3.057113e+00
   1.056861e+01   3.212261e+01
  -1.062756e+01   3.574132e+01
  -2.312561e+01   2.721977e+01
   5.135542e-01  -2.056852e+01
  -7.005881e+00   1.098883e+01
   2.052721e+01   2.591172e+01
   3.045089e+01   3.512460e+01
  -7.511222e+00  -8.983807e+00
  -2.767818e+01   8.918945e+00
   2.836713e-01   2.023813e+01
  -1.785035e+01   1.180382e+01
   3.982422e+01  -2.619436e+01
  -2.085009e+01   1.208633e+01
  -6.067279e+01   5.507548e+00
