
 $NMID
 id='ANONYMOUS ', fmtdat='(2E16.6)'
 volume=1.0
 tramp=1.0
 $END
   2.751672e+03  -1.053549e+02
   1.985070e+03   1.560302e+03
  -1.832995e+02   1.770182e+03
  -1.288342e+03   1.021211e+03
  -7.955662e+02   8.377069e+01
  -1.489144e+02  -2.355127e+02
   2.031739e+02   2.706039e+01
   1.069430e+02   4.127996e+02
  -3.449624e+02   5.120044e+02
  -5.610062e+02   6.457267e+01
  -3.621244e+02  -4.175420e+02
  -4.203784e+01  -5.209050e+02
   3.720143e+02  -2.166225e+02
   1.375002e+02   4.046100e+02
  -2.263500e+02   4.313197e+02
  -3.172853e+02   1.234845e+02
  -2.143683e+02  -3.669876e+02
   1.496258e+02  -5.673869e+02
   4.601977e+02  -2.692143e+02
   6.260803e+02  -1.515598e+01
   1.448784e+02   3.726864e+02
  -1.493834e+02   3.653660e+02
  -2.588874e+02   8.172882e+01
   2.315948e+02   2.318584e+02
   2.009572e+02   2.687658e+02
   5.953381e+01   2.746601e+02
  -3.966018e+02   9.411874e+01
  -5.198842e+02  -1.576752e+02
  -2.608494e+02  -4.455290e+02
   1.416869e+02  -3.382135e+02
   2.596135e+02   4.334498e+01
   7.195850e+01   2.862173e+02
  -2.078712e+02   3.708159e+02
  -3.657641e+02   2.172500e+02
  -2.858391e+02  -5.552213e+01
  -9.731275e+01  -2.441608e+02
   7.020455e+01  -1.790715e+02
   4.376257e+01   9.803578e+01
  -3.431322e+01   1.730334e+02
  -2.456003e+02  -7.316394e+01
  -7.146018e+01  -3.342156e+02
   1.163852e+02  -2.770526e+02
   1.889711e+02  -4.328640e+01
   1.420129e+02   2.047004e+02
  -7.397556e+01   9.107498e+01
  -1.646647e+02  -1.727457e+02
   1.615129e+02  -3.401042e+02
   3.610351e+02  -1.039702e+02
   3.938580e+02   3.220792e+02
   9.385783e+01   3.969560e+02
  -2.945012e+02   2.889532e+02
  -4.061040e+02  -1.033699e+01
  -2.551287e+02  -2.284869e+02
   3.658225e+01  -1.731904e+02
   1.790816e+02  -9.346759e+01
   1.943641e+02   6.148994e+00
   3.700997e+01  -1.642169e+01
  -4.289233e+01  -6.398769e+01
   8.210332e+01  -1.708388e+01
   1.800203e+02   4.297312e+01
   1.311801e+02   1.797800e+02
  -1.422777e+02   2.297246e+02
  -3.020487e+02   1.311245e+02
  -2.003576e+02  -6.559130e+01
   2.048877e+01  -2.495607e+02
   1.874032e+02  -2.891696e+02
   2.588235e+02  -1.188048e+02
   2.087771e+02   1.397626e+02
   8.369490e+01   2.878118e+02
  -1.646314e+01   2.479606e+02
  -4.087566e+01   1.502042e+02
  -3.467144e+01   7.443023e+01
  -1.401627e+02   1.173251e+02
  -1.791953e+02   1.139560e+02
  -2.142507e+02  -1.023277e+02
  -8.618303e+01  -2.229923e+02
   8.757045e+01  -2.260449e+02
   1.872415e+02  -2.600732e+01
   1.707793e+02   1.889230e+02
  -2.987947e+01   2.711488e+02
  -2.404814e+02   9.147607e+01
  -3.182235e+02  -1.257479e+02
  -1.648574e+02  -2.342864e+02
   4.400576e+01  -2.303500e+02
   1.362114e+02  -1.431392e+02
   1.629183e+02  -8.438366e+01
   1.301027e+02  -5.126986e+01
   2.096470e+02  -4.576068e+01
   3.413197e+02   9.204768e+01
   2.366967e+02   2.757700e+02
  -6.829668e-01   4.045506e+02
  -2.933561e+02   3.358970e+02
  -4.200219e+02   1.308910e+02
  -2.304784e+02  -1.036405e+02
  -2.410033e+01  -2.342997e+02
   1.391519e+02  -1.631561e+02
   8.935869e+01  -6.812015e+01
  -3.947063e+01   7.350755e+01
  -1.070243e+02   2.031088e+01
   3.073099e+01  -6.572188e+01
   1.238863e+02  -5.226831e+01
   5.864060e+01   7.393137e+01
  -4.345897e+01   8.728507e+01
  -1.735735e+02   1.498480e+01
  -1.348488e+02  -1.767818e+02
   4.720518e+01  -3.124569e+02
   2.149081e+02  -2.268991e+02
   3.289358e+02   8.207252e+00
   2.614908e+02   1.976820e+02
   3.432340e+01   2.960608e+02
  -7.872296e+01   1.739151e+02
  -1.274436e+02   3.126656e+01
  -7.664921e+01   2.376886e+01
   1.706073e+01   5.650513e+01
   9.982115e+00   6.104263e+01
  -1.065266e+02   6.406731e+01
  -1.326779e+02  -2.789959e+01
  -2.826430e+01  -3.099243e+01
   8.944588e+01   9.383815e+00
   6.198101e+01   7.350045e+01
  -8.559395e+01   4.582565e+01
  -2.428640e+02   2.086501e+00
  -2.052608e+02  -1.150837e+02
  -5.032407e+01  -2.087654e+02
   1.704329e+02  -1.651474e+02
   2.161646e+02  -1.370590e+02
   1.306943e+02   4.900641e+01
  -4.942717e+01   7.863854e+01
  -4.122159e+01   2.828195e+01
   5.791378e+01  -5.329384e+01
   1.152314e+02  -1.266485e+01
   9.281179e+01   9.490097e+01
   4.346466e+01   1.533761e+02
  -1.104563e+02   6.888617e+01
  -9.282197e+01  -3.523136e+01
  -4.662242e+00  -7.466556e+01
   1.210895e+02   2.889132e+01
   7.508799e+01   1.178691e+02
  -8.989676e+01   1.479445e+02
  -2.047803e+02   5.918211e+01
  -1.886139e+02  -1.125372e+02
  -2.919145e+01  -1.904028e+02
   1.214682e+02  -1.433233e+02
   1.796234e+02  -3.606386e+01
   8.724801e+01   6.536541e+01
  -9.592279e+01   3.488503e+01
  -4.194722e+01   1.709572e+01
   2.785552e+01   4.348934e+00
   7.566176e+01  -1.623783e+01
   1.022409e+01   7.095330e+00
  -9.535317e+01   3.513273e+01
  -1.112390e+02  -9.867592e+01
  -2.772777e+01  -1.214922e+02
   7.848003e+01  -1.308595e+02
   2.361607e+02   3.362951e+01
   1.616342e+02   1.177985e+02
   8.717073e+00   1.598109e+02
  -1.209764e+02   9.911936e+01
  -1.018373e+02   2.812131e+01
  -3.589924e+01  -5.974574e+01
  -2.252410e+01   4.135261e+01
  -2.106450e+01   3.663056e+01
  -1.242535e+02   2.612558e+00
  -6.595930e+01  -6.036019e+01
  -1.730662e+01  -1.084799e+02
   1.172763e+02  -5.743420e+01
   9.871282e+01  -3.491455e+00
  -1.991684e+01   1.010892e+02
  -1.434310e+02   7.956413e+01
  -1.734344e+02  -2.159999e+01
  -9.177540e+01  -1.997735e+02
   9.979163e+01  -1.984776e+02
   2.484983e+02  -2.553517e+01
   2.585754e+02   7.783080e+01
   9.515192e+01   1.342820e+02
  -6.113513e+01   1.056195e+02
  -9.067046e+01   1.019627e+02
  -5.484527e+01   7.870096e+01
  -6.935919e+01   1.344302e+02
  -9.387629e+01   6.559158e+01
  -1.750327e+02  -4.514524e+01
  -1.790700e+02  -1.380151e+02
  -5.646825e+01  -1.929319e+02
   1.189472e+02  -9.926661e+01
   2.047379e+02  -2.983344e+01
   1.386623e+02   1.099668e+02
  -1.494184e+01   1.287894e+02
  -5.665093e+01   7.213893e+01
  -5.483166e+01  -1.191488e+01
   3.207026e+01  -7.745849e+01
   4.906785e+01  -3.923618e+01
   1.877695e+01  -1.869224e+01
  -5.291229e+01  -1.925421e+01
   2.361732e+01  -3.112155e+01
   7.498894e+01  -4.203397e+01
   1.831577e+02  -3.233259e+01
   1.029343e+02   9.427099e+01
   1.690140e+00   7.388480e+01
  -9.753862e+01   9.341524e+01
  -1.423994e+02   2.578524e+01
  -5.073375e+01  -1.528617e+00
   9.725478e+01   2.400309e+01
   6.694881e+01  -1.996580e+01
   2.354993e+01  -1.128392e+01
  -6.086989e+01   4.526870e+01
  -5.779159e+01   4.615297e+00
  -5.744087e+01  -4.823729e+01
  -5.947276e+01  -1.166154e+01
  -5.327572e+01  -8.083885e+00
  -8.325091e+01  -3.363113e+00
  -5.561641e+01  -1.092064e+02
   4.310651e+01  -1.685602e+02
   8.474669e+01  -1.144666e+02
   1.227133e+02  -3.564039e+01
   1.113229e+02   9.182047e+01
   1.275858e+01   1.027512e+02
  -4.542834e+01   6.481409e+01
  -3.366711e+01   4.565646e+00
   8.420036e+01   1.832686e+01
   1.148051e+02   4.539759e+01
   6.034333e+01   8.037478e+01
  -9.202493e+01   6.542535e+01
  -1.773281e+02  -4.034951e+01
  -9.756204e+01  -6.620974e+01
   1.558093e+01  -6.302768e+01
   6.775113e+01   9.513036e-02
   3.551322e+01   1.734168e+01
  -8.553378e+01   7.760742e+01
  -1.546304e+02  -3.896500e+00
  -5.662737e+01  -9.044146e+01
   4.235785e+01  -1.545898e+02
   9.064276e+01  -4.894012e+01
   1.631686e+02   8.522460e+01
   2.187833e+01   1.650366e+02
  -4.743927e+01   1.046362e+02
  -4.801833e+01  -3.327493e+01
  -3.250677e+01  -7.933242e+01
   2.963725e+01  -8.393754e+01
   6.815251e+01  -2.699592e+00
   1.270623e+01  -1.014930e+01
  -1.926766e+01   1.732216e+01
   1.225653e+00  -5.976054e+00
   4.080256e+01   1.964660e-02
   8.418240e+01   6.845993e+01
   5.600179e+01   3.264139e+01
  -1.338477e+01   3.653822e+01
  -1.284912e+02  -1.985786e+01
  -1.129580e+02  -2.349879e+01
  -2.444346e+01  -7.166198e+01
   4.354675e+01  -3.116498e+01
   9.001854e+01  -6.427179e+00
   3.177376e+01   1.968426e+00
  -3.031500e+01   1.392720e+01
   2.403205e+01  -3.845950e+01
   2.475857e+01  -1.721942e+01
  -3.741843e+01   6.661505e+00
  -3.653293e+01   4.629262e+01
  -4.495840e+01  -2.997812e+00
  -3.836272e+01  -7.673450e+01
   4.276251e+01  -1.157498e+02
   1.008647e+02  -3.212422e+01
   1.416397e+02   5.446893e+01
   4.404259e+01   1.315223e+02
  -6.583291e+01   9.415727e+01
  -8.957438e+01   7.270986e+01
  -5.281122e+01   2.817853e+00
  -2.030330e+01  -3.161272e+01
   9.258256e+00  -1.870745e+01
  -3.831584e+00   5.573319e+00
  -4.996889e+01  -4.289899e+01
   2.205014e+00  -7.518642e+01
   1.381748e+00  -7.554173e+01
   5.576904e+01  -1.816183e+01
   6.695345e+01   3.859589e+01
  -2.827510e+01   9.406231e+01
  -7.382818e+01   2.575888e+01
  -1.415740e+02  -5.927678e+01
  -8.844810e+01  -8.348131e+01
   7.732892e+01  -2.239984e+01
   1.352227e+02   5.246256e+01
   9.521117e+01   4.159617e+01
  -2.345899e+01   6.650349e+01
  -5.193296e+01   4.268384e+01
   2.291894e+01   6.914662e+00
   4.815946e+01  -1.581922e+01
   6.349746e+01   5.425008e+01
  -5.771986e+01   5.476373e+01
  -1.159740e+02   8.544055e+01
  -5.377045e+01  -2.528900e+01
  -1.089643e+01  -9.806784e+01
   2.246157e+01  -8.563046e+01
   1.053380e+02   2.478842e+01
   3.942629e+01   4.314620e+01
  -2.857776e+01   2.129387e+01
  -4.383006e+01   1.343978e+01
  -3.893606e+01  -5.056975e+01
   2.049894e+01  -2.103146e+01
   8.672796e+01   3.195229e+01
   3.390999e+01  -1.380168e-01
   6.288977e+01  -4.650611e+01
  -4.580736e+01  -1.483227e+01
   4.320188e+01  -3.524880e-01
   4.532982e+01   5.040631e+01
  -8.730955e+00   5.536926e+01
  -3.000071e+01   8.120304e+01
  -4.221747e+01  -9.070636e+00
  -3.519808e+01  -5.118046e+01
   1.123697e+01   6.934756e+00
   1.191020e+01   5.562400e+00
   2.232917e+01   7.992462e+01
  -4.343100e+01   6.360970e+01
  -7.703995e+01  -4.088560e+00
  -4.815115e+01  -2.232513e+01
   4.293503e+01  -6.225064e+01
   8.544983e+01  -3.666037e+01
   3.347699e+01  -3.045221e+01
  -3.255248e+01   2.671627e+00
  -1.000414e+01  -3.779877e+01
  -7.030309e+00  -4.858621e+01
   6.011763e+01  -4.801392e+01
