
 $NMID
 id='ANONYMOUS ', fmtdat='(2E16.6)'
 volume=1.0
 tramp=1.0
 $END
  -3.087096e+03   1.327368e+02
  -1.874299e+03  -1.747438e+03
   2.564108e+02  -1.868222e+03
   1.507457e+03  -8.570495e+02
   8.260092e+02   4.040835e+02
  -2.437504e+02   5.227021e+02
  -5.456684e+02  -1.331753e+02
  -1.224842e+02  -6.344122e+02
   6.761111e+02  -6.772778e+02
   6.616476e+02  -3.817616e+01
   3.660415e+02   3.914243e+02
  -4.293450e+01   7.160962e+02
  -5.657069e+02   2.090676e+02
  -4.613492e+02  -6.724303e+02
   2.757460e+01  -7.299473e+02
   3.319796e+02  -3.488737e+00
   2.891810e+02   5.208516e+02
  -1.264439e+02   5.700971e+02
  -3.336867e+02   2.152897e+02
  -3.786131e+02  -2.274608e+02
  -4.789090e+01  -2.182437e+02
   2.977564e+02  -3.521410e+02
  -2.937788e+01   1.357490e+02
   1.863260e+01   1.479995e+02
  -3.246512e+02  -1.998698e+02
  -1.011401e+02  -3.889400e+02
   2.593618e+02  -3.648465e+02
   5.882504e+02   1.478312e+01
   2.298679e+02   3.380586e+02
  -2.554920e+02   3.594397e+02
  -5.625788e+02  -2.068065e+02
  -1.163078e+02  -3.799862e+02
   3.099628e+02  -4.092152e+02
   3.842830e+02  -1.344336e+02
   3.272154e+02   1.802800e+02
   4.792858e+01   3.575239e+02
  -1.682868e+01   2.492828e+02
  -7.765390e+01  -8.031847e+01
   1.933679e+02  -2.235567e+02
   2.547590e+02   1.409285e+02
   1.802284e+02   4.892740e+02
  -3.112391e+02   4.726108e+02
  -3.631763e+02   5.617181e+01
  -1.642115e+02  -3.537442e+02
   1.885789e+02  -1.613793e+02
   2.260924e+02   2.338954e+02
  -9.716851e+01   3.744270e+02
  -4.690865e+02   9.112513e+01
  -5.036387e+02  -3.044780e+02
  -1.562876e+02  -4.351728e+02
   3.005836e+02  -2.876995e+02
   4.906537e+02   1.374892e+01
   3.326051e+02   2.602195e+02
  -5.333676e+01   2.515567e+02
  -3.208710e+02   8.447902e+01
  -2.299707e+02  -1.251148e+02
   3.320241e+01  -6.112325e+01
   7.855997e+01   5.191599e+01
  -7.905991e+01   9.785892e+01
  -2.004068e+02  -8.366113e+01
  -1.285503e+02  -2.198121e+02
   1.212755e+02  -2.377012e+02
   3.239581e+02  -6.600032e+01
   2.571001e+02   1.094966e+02
  -2.870864e+01   2.953834e+02
  -2.256632e+02   3.239498e+02
  -2.809561e+02   1.283879e+02
  -2.519490e+02  -1.312418e+02
  -9.087898e+01  -3.231480e+02
   4.872744e+01  -2.656429e+02
   6.995229e+01  -1.462186e+02
   3.954425e+01  -6.365349e+01
   9.749533e+01  -5.126514e+01
   1.915870e+02  -5.697645e+01
   2.148227e+02   2.505016e+01
   8.641957e+01   1.512953e+02
  -1.700469e+02   1.638024e+02
  -2.154386e+02  -1.219387e+01
  -1.360225e+02  -2.290930e+02
   8.369383e+01  -2.193668e+02
   2.361448e+02  -5.921844e+01
   3.128376e+02   1.249218e+02
   1.322139e+02   2.205470e+02
  -5.038406e+01   2.426109e+02
  -1.070540e+02   1.627624e+02
  -1.253369e+02  -5.068947e+00
  -1.204935e+02   5.142050e+01
  -1.148360e+02   4.705539e+01
  -2.736003e+02  -3.790261e+01
  -2.513714e+02  -2.012538e+02
  -2.962328e+01  -3.205607e+02
   2.483287e+02  -3.078011e+02
   3.255026e+02  -1.170696e+02
   2.495229e+02   1.346615e+02
   8.214388e+01   2.197081e+02
  -8.406683e+01   1.081140e+02
  -2.369077e+01   9.009795e+00
   6.522395e+01  -9.488941e+00
   9.540407e+01   5.687469e+01
   3.841360e+01   1.160373e+02
  -7.489659e+01   9.296739e+01
  -1.073438e+02  -6.939543e+01
   8.660616e+00  -1.416625e+02
   1.185813e+02  -2.507025e+01
   1.189555e+02   1.649567e+02
  -2.386601e+01   2.238437e+02
  -1.741034e+02   1.359654e+02
  -2.819483e+02  -3.155093e+01
  -1.619926e+02  -1.814833e+02
  -3.395209e+01  -2.260806e+02
   9.941291e+01  -9.010217e+01
   1.070899e+02   2.490008e+01
   3.183729e+01  -2.049744e+01
  -5.393345e+01  -2.165735e+01
  -1.194208e+01  -1.156010e+02
   1.372191e+02  -2.286604e+01
   1.548991e+02   2.416334e+01
   2.529209e+01   8.474743e+01
  -8.786889e+01   4.910432e+01
  -6.948108e+01  -6.420657e+01
   7.675796e+01  -9.779118e+01
   2.165404e+02  -2.421310e-01
   2.368114e+02   1.584831e+02
   2.926616e+01   2.332582e+02
  -2.157969e+02   1.719852e+02
  -2.238251e+02   5.773861e+01
  -8.670397e+01  -7.199136e+01
   2.671623e+01  -1.053886e+02
   8.786196e+01  -5.295632e+01
   2.119232e+01   4.529309e+01
  -1.450129e+02   6.264869e+01
  -1.137283e+02  -2.316001e+01
  -6.958625e+01  -8.234251e+01
   6.064354e+01  -1.127496e+02
   3.286359e+01  -2.404999e+01
  -8.958240e+00   5.778587e+00
  -2.705150e+01  -1.034524e+01
  -4.840664e+01  -1.095968e+02
   7.277780e+01  -1.081535e+02
   2.075306e+02  -8.821690e+00
   1.276365e+02   6.905465e+01
   3.869137e+01   1.480433e+02
  -1.217430e+02   1.429967e+02
  -1.338682e+02  -1.710436e+01
  -2.960689e+01  -4.642041e+01
   4.726070e+01  -5.909517e+01
   8.734548e+01   2.680390e+01
  -2.392276e+01   5.032206e+00
   9.619586e+00   3.471034e+01
   2.214994e+01  -8.261997e+01
   1.050136e+02  -4.987946e+01
   1.202071e+02   3.948466e+01
   6.131769e+01   1.677986e+02
  -1.025039e+02   1.326331e+02
  -1.913626e+02   3.805079e+01
  -1.790389e+02  -1.127533e+02
  -3.712475e+01  -1.889382e+02
   1.034625e+02  -1.065521e+02
   1.205261e+02  -3.252018e+01
   8.566459e+00   2.842877e+01
   2.207156e+00   1.207537e+01
   2.485831e+00  -1.943361e+01
   4.547310e+01  -1.222390e+01
   6.700666e+01   9.578558e+01
   1.944287e+01   8.881880e+01
  -7.810582e+01   5.075094e+01
  -1.156660e+02  -4.280816e+01
  -3.032719e+00  -1.035133e+02
   9.035472e+01  -1.129526e+02
   1.571513e+02   4.338195e+01
   8.082923e+01   1.640089e+02
  -9.072645e+01   1.650721e+02
  -2.097101e+02   1.012927e+02
  -1.778011e+02  -4.639283e+01
  -5.087127e+01  -1.229153e+02
   2.866952e+01  -1.093190e+02
   6.497423e+01  -9.700615e+01
   5.715447e+01  -5.742848e+01
   4.928435e+01  -9.409042e+01
   7.722717e+01  -3.171893e+01
   1.217500e+02   4.135875e+01
   1.475989e+02   1.406698e+02
   4.244147e+01   2.356607e+02
  -9.245395e+01   1.440545e+02
  -1.136594e+02   5.639504e+01
  -1.546397e+02  -1.124403e+02
  -3.350613e+01  -1.291375e+02
   3.553410e+01  -4.808738e+01
   4.060028e+01  -3.288514e+01
   4.674130e+01   3.371773e+01
  -2.445971e+01  -5.219070e+01
   1.373520e+01   1.261536e+01
   4.550302e+01   1.496597e+01
   3.235391e+01   6.429377e+01
  -4.327908e+01   8.949394e+01
  -1.636031e+02  -1.080776e+01
  -1.207383e+02  -6.605310e+01
  -2.264387e+01  -7.829884e+01
   9.433035e+01  -6.106143e+01
   1.265123e+02  -3.560339e+01
   3.017695e+01   3.922957e+01
  -7.392801e+01  -7.319896e+00
  -5.541221e+01  -5.393274e+01
  -8.296930e-01  -5.016987e+01
   5.295854e+01  -5.003108e+01
   9.971019e+01   3.999354e+01
   3.778246e+01   5.427106e+01
  -1.586061e+01   3.106082e+01
   2.497372e+01  -5.425262e+01
   2.511000e+01  -2.550105e+01
   5.341945e+01   5.613606e+01
   3.931730e+00   1.121632e+02
  -5.296665e+01   1.564366e+02
  -1.566386e+02   3.295232e+01
  -1.263599e+02  -1.079240e+02
  -3.396712e+01  -1.037660e+02
   5.332881e+01  -6.242530e+01
   4.845402e+01   1.222399e+01
  -3.425117e+01  -1.185425e+01
  -1.049100e+02  -8.010008e+00
  -4.434197e+01  -1.068376e+02
   6.547973e+01  -1.057894e+02
   1.684509e+02  -3.019481e+01
   1.458583e+02   2.111827e+01
   5.438465e+01   5.247738e+01
  -3.884382e+01   4.753349e+01
  -6.187903e+01  -6.193781e+00
  -1.331362e+01  -6.710107e+00
   6.057420e+00   2.117643e+01
  -1.847134e+01   6.090530e+01
  -6.058592e+01   8.084265e+01
  -1.342126e+02  -6.687704e+00
  -5.758032e+01  -5.595278e+01
  -9.651437e-01  -1.370126e+02
   7.656687e+01  -1.321960e+02
   8.422701e+01   2.235636e+01
   7.130357e+01   4.927853e+01
   1.130839e+01   8.348287e+01
  -4.923227e+01   2.978167e+01
  -4.950310e+01  -1.952813e+01
  -2.000292e+01   1.726984e+01
  -3.456376e+00   8.241607e+00
  -2.120025e+01  -5.178826e+00
  -7.187654e+01  -8.791008e+01
  -2.296588e+01  -9.334745e+01
  -1.956925e+01  -1.266989e+01
   1.051764e+02   3.260732e+01
   8.855957e+01   4.489998e+01
   3.492832e+01   2.043601e+01
  -9.103354e+01   3.283382e+01
  -8.668050e+01  -1.565602e+01
  -6.806964e+00  -4.186759e+00
  -1.548941e+00  -2.733075e+00
   4.457476e+01   9.190050e+00
  -1.814137e+01  -2.384545e+01
   1.713344e+01  -1.207419e+01
   8.413332e+01  -7.305127e-01
   8.332635e+01   4.496312e+01
   5.385113e+01   4.563162e+01
  -9.714005e+01   1.127548e+02
  -1.279525e+02   5.152234e+01
  -1.125723e+02  -1.177072e+01
  -1.304179e+01  -1.372944e+02
   5.098746e+01  -1.408796e+02
   1.124455e+02  -5.771301e+01
   1.165254e+02   6.133040e+01
  -6.106106e+01   6.695433e+01
   1.573803e+01   1.741669e+01
  -3.602477e+01   2.497475e+01
   8.268192e+00   1.984350e+01
   6.534262e+01   3.208652e+01
  -4.920111e+01   4.966178e+01
  -4.913245e+01  -1.170296e+01
  -9.508002e+01  -7.190701e+01
  -3.480378e+01  -9.369540e+01
   5.863548e+01  -4.834324e+01
   7.162056e+01   2.426866e+01
   8.616360e+01   1.051871e+02
  -2.389706e+01   6.524100e+01
  -9.914079e+01  -3.675681e+01
  -3.365883e+01  -4.753543e+01
   2.767786e+01  -4.768662e+01
   4.981777e+01  -3.373098e+01
  -1.574619e+01  -5.811850e+00
  -1.608414e+01  -1.191296e+01
  -4.614174e+01  -4.324648e+01
   2.945153e+01  -4.126884e+01
   1.000889e+02  -3.332361e+01
   7.588172e+01   1.638388e+01
   2.111586e+01   6.044310e+01
  -6.771639e+01   7.465816e+01
  -4.538143e+01   3.302012e+01
   1.632570e+01  -7.470650e+01
   1.123742e+01  -5.983791e+01
   3.989432e+01   5.936743e+01
   4.433883e+01   3.916763e+01
  -1.028964e+01   5.179763e+01
  -1.534647e+01   2.452087e+01
  -2.618883e+01  -3.835519e+01
  -5.175392e+01  -9.698041e+00
   6.857867e+00   9.031515e-01
   2.098496e+00  -1.260963e+01
   2.307937e+01  -1.602853e+00
   1.174510e+01  -1.184781e+01
   1.265276e+01   4.890351e+00
   7.700189e+01   6.243606e+01
   2.376419e+01   2.004806e+01
  -2.523139e+01  -1.039559e+01
  -2.945492e+01  -4.780621e+01
  -4.235677e+01  -5.748086e+01
   2.667117e+01  -3.760822e+01
   8.831902e+01   4.807634e+01
   6.134200e+01   4.644971e+01
   1.725265e+01   4.783906e+01
  -4.916848e+01  -2.822523e+00
   1.729830e+01  -1.734384e+01
  -2.312000e+01   1.406276e+01
   3.254031e+01   1.804917e+00
  -1.748240e+01   3.247653e+01
  -5.917279e+01   1.123096e+01
