
 $NMID
 id='ANONYMOUS ', fmtdat='(2E16.6)'
 volume=1.0
 tramp=1.0
 $END
  -3.447071e+03   1.014463e+02
  -2.147636e+03  -2.069019e+03
   7.914603e+02  -1.992134e+03
   1.662837e+03  -5.656526e+02
   7.331053e+02   5.092416e+02
  -5.399720e+02   4.919751e+02
  -5.166538e+02  -4.269894e+02
   3.871427e+01  -8.450710e+02
   7.033648e+02  -5.503907e+02
   7.929890e+02   2.125461e+02
   2.763676e+02   6.999826e+02
  -1.491171e+02   5.808395e+02
  -4.511966e+02   2.155638e+01
  -1.008153e+02  -5.383962e+02
   9.580304e+01  -7.475124e+02
   3.824311e+02  -3.903695e+01
   2.522956e+02   5.844735e+02
  -2.009797e+02   3.433731e+02
  -3.709198e+02  -2.693741e+01
  -4.372307e+02  -1.234286e+02
  -7.385351e+01  -5.079102e+02
   6.096075e+01  -2.385095e+02
   1.388251e+02   1.381917e+01
   6.955976e+01   9.124891e+01
  -4.088894e+02   5.535825e+01
  -1.197607e+02  -4.185508e+02
   3.787288e+02  -3.841954e+02
   7.551753e+02   2.486247e+01
   3.966808e+02   4.340902e+02
  -3.066185e+02   3.699604e+02
  -6.388134e+02   8.980621e-01
  -3.243005e+02  -4.259509e+02
   1.541625e+02  -3.835130e+02
   4.435283e+02  -2.223821e+02
   3.777909e+02   2.391227e+02
   4.098738e+01   3.991507e+02
  -1.633163e+02   2.241196e+02
  -1.468266e+02  -2.126884e+02
   1.864684e+02  -3.750645e+02
   3.761947e+02   1.693747e+01
   3.187875e+02   6.097895e+02
  -2.931944e+02   6.283679e+02
  -6.112527e+02   1.741612e+01
  -2.573277e+02  -4.656584e+02
   2.082987e+02  -3.408024e+02
   4.205098e+02   2.066386e+02
   5.268966e+00   5.212436e+02
  -4.333429e+02   1.817978e+02
  -4.923249e+02  -2.705331e+02
  -8.842358e+01  -4.671781e+02
   3.408875e+02  -3.758601e+02
   4.932857e+02   6.958683e+01
   3.069331e+02   3.374557e+02
  -1.293715e+02   2.612163e+02
  -3.610279e+02  -2.080851e+01
  -1.816963e+02  -2.058099e+02
   1.307341e+02  -3.265245e+01
   1.165542e+02   1.353014e+02
  -1.398508e+02   1.208200e+02
  -2.866520e+02  -1.144713e+02
  -8.784212e+01  -2.069828e+02
   1.831254e+02  -1.506950e+02
   2.503966e+02  -6.489904e+01
   9.618712e+01   4.571666e+01
  -3.499080e+01   1.761950e+02
  -1.170890e+02   2.857612e+02
  -2.325430e+02   1.520011e+02
  -2.147761e+02  -9.129211e+01
  -7.249660e+01  -3.296292e+02
   8.412901e+01  -2.346105e+02
   7.131706e+01  -2.922549e+01
  -3.345673e+01   1.881060e+01
   4.011730e+01  -1.298150e+02
   1.350802e+02  -1.369593e+02
   2.580948e+02   2.670027e+01
   1.312221e+02   1.862113e+02
  -3.164254e+01   2.305943e+02
  -1.225749e+02   2.315798e+01
  -1.893528e+02  -2.534292e+02
  -1.719000e+01  -2.094366e+02
   1.459756e+02  -9.216507e+01
   3.384723e+02   1.782055e+02
   1.754259e+02   2.466153e+02
  -2.603831e+01   2.347897e+02
  -1.643178e+02   7.575980e+01
  -6.409534e+01   1.809344e+01
  -7.075079e+01   7.599510e+01
  -1.749914e+02   6.662600e+01
  -3.267158e+02   2.128535e+01
  -2.713131e+02  -2.541811e+02
  -4.998970e+01  -3.703639e+02
   2.440969e+02  -3.764430e+02
   3.713335e+02  -2.027875e+02
   3.220541e+02   2.562538e+01
   6.498555e+01   2.184337e+02
  -1.224104e+02   1.668058e+02
  -7.537337e+01   4.247665e+01
   8.222492e+01  -8.828762e+01
   2.091986e+02   2.432253e+01
   3.832838e+01   1.665467e+02
  -1.258963e+02   1.685173e+02
  -1.196907e+02  -8.614020e+00
   3.242669e+01  -1.546809e+02
   1.497566e+02   2.591241e+01
   1.426413e+02   1.676197e+02
  -6.363463e+01   2.660959e+02
  -1.812761e+02   1.266930e+02
  -2.733903e+02  -2.768344e+01
  -2.388910e+02  -1.106856e+02
  -6.772108e+01  -2.022572e+02
   5.961931e+01  -9.047121e+01
   6.371123e+01  -5.311287e+01
   2.023502e+01   1.181110e+01
  -5.244255e+01  -7.496364e+01
  -3.071430e+01  -1.504980e+02
   1.302551e+02  -1.352790e+02
   1.377573e+02   1.213663e+01
   1.049703e+02   9.692322e+01
  -3.490436e+01  -3.114919e+00
  -3.746478e+01  -6.633828e+01
   8.183475e+01  -9.539411e+01
   2.083453e+02  -7.355696e+01
   2.148208e+02   1.010321e+02
   7.686948e+01   1.982858e+02
  -7.976540e+01   2.181417e+02
  -2.099654e+02   9.182417e+01
  -1.255656e+02  -7.036025e-01
  -9.362437e+00  -8.155885e+01
   3.834228e+01  -7.426356e+00
  -4.036699e+01   7.863859e+01
  -1.451527e+02   7.469824e+01
  -1.805993e+02  -7.516904e+01
  -5.941436e+01  -1.706627e+02
   9.487646e+01  -1.348965e+02
   1.250155e+02   1.351960e+01
   9.924790e+01   5.200929e+01
  -4.377250e+01   2.563351e+01
  -7.405744e+01  -7.277889e+01
   5.174651e+01  -1.316358e+02
   1.172324e+02  -1.979053e+01
   1.479783e+02   8.733293e+01
   3.218789e+01   1.824850e+02
  -1.434236e+02   1.342010e+02
  -1.314571e+02  -1.736470e+01
  -4.696281e+01  -8.678460e+01
  -5.141958e-01  -1.079290e+02
   6.471799e+01  -3.350349e+01
   3.118579e+01   1.241600e+01
  -5.226911e+00   1.182243e+01
   3.577957e+01  -2.214355e+01
   5.283617e+01  -1.211933e+01
   8.934994e+01   6.706004e+01
   8.956419e+01   1.332587e+02
  -1.235328e+02   1.030378e+02
  -1.935524e+02   4.383332e+00
  -1.755506e+02  -1.174836e+02
  -2.834815e+01  -1.591430e+02
   1.202911e+02  -1.333610e+02
   9.501746e+01  -5.306452e+01
   2.129441e+01   2.405224e+01
   4.078895e+01   6.505613e+01
   2.634167e+00  -2.224609e+01
   2.542246e+01   2.828344e+01
   4.530658e+01   1.496051e+01
  -5.577044e+00   9.659061e+01
  -5.356435e+01   6.432848e+00
  -7.009026e+01  -2.421851e+00
  -1.523722e+01  -1.040439e+02
   9.688740e+01  -1.060729e+02
   1.763439e+02   3.840207e+01
   1.033962e+02   8.875026e+01
  -8.354969e+01   2.170483e+02
  -1.794295e+02   7.255139e+01
  -1.518569e+02  -1.527555e+01
  -1.584400e+02  -1.400985e+02
   3.337958e+01  -5.829998e+01
   2.296272e+01  -9.014945e+01
   5.775916e+01  -7.125271e+01
   4.403821e+01  -9.355839e+01
   1.024853e+02  -6.460617e+01
   1.378264e+02  -1.536758e+01
   7.148139e+01   1.036366e+02
   1.217867e+01   1.708494e+02
  -6.642744e+01   1.632411e+02
  -1.362575e+02   4.293072e+01
  -1.431843e+02  -9.494217e+01
  -5.616938e+01  -1.029603e+02
   3.923423e+01  -1.038952e+02
   4.370401e+01  -2.634244e+01
   4.965850e+01  -1.257345e+00
   1.743333e+01   6.206086e+01
   3.728474e+01   7.399475e+00
   4.345238e+01   5.686801e+01
   5.208060e+00   3.151459e+01
  -3.078181e+00   6.057527e+01
  -1.226200e+02   3.924847e+01
  -1.290635e+02  -3.670736e+01
  -6.041803e+01  -1.003920e+00
   5.787032e+01  -5.094952e+01
   1.036111e+02  -2.100373e+01
  -1.569041e+01   1.793823e+01
  -6.635557e+01   2.167660e+01
   6.875289e+00  -4.053184e+01
  -1.746401e+00  -6.060309e+01
   1.670880e+01  -2.480599e+01
   2.537208e+01   3.782459e+01
   1.509172e+01   7.682125e+01
   4.109494e+01   2.798474e+01
  -2.045932e+01  -2.108174e+01
  -6.816391e+00  -3.659145e+01
  -6.557004e+00   2.725947e+01
   3.857469e+00   1.047855e+02
  -7.768541e+01   1.125663e+02
  -6.831801e+01   1.050207e+01
  -1.127567e+02  -9.250029e+01
   2.282076e+01  -1.087169e+02
   8.529142e+01  -6.693780e+01
   2.351189e+01   4.688599e+01
  -1.414764e+01   1.734388e+01
  -9.776489e+01  -2.854755e+01
  -9.532116e+01  -1.002474e+02
   7.710553e+00  -7.825073e+01
   1.191687e+02  -3.698319e+01
   9.347532e+01   2.743279e+01
   5.469560e+01   9.035699e+01
  -6.110123e+01   3.979701e+01
   1.117900e+01  -3.485134e+01
   4.227900e+01   1.458240e+01
   7.043238e+01   4.374501e+01
   3.233228e+01   1.111759e+02
  -4.944239e+01   1.269600e+02
  -1.542176e+02   3.910211e+01
  -1.050069e+02  -4.558839e+01
  -9.965718e+00  -1.199428e+02
   9.312925e+01  -1.458225e+02
   5.821010e+01  -6.153029e+00
   5.796421e+01   7.213542e+01
  -1.179260e+01   4.265337e+01
  -6.343937e+00  -8.660911e+00
  -1.541396e+01  -5.409805e+01
   3.538135e+01   1.339485e+01
   9.336448e+00   6.941742e+01
  -2.909786e+01   2.586502e+01
  -8.532098e+01  -5.960220e+01
  -3.418170e+01  -1.073446e+02
   1.679199e+00  -7.765131e+01
   8.618684e+01   2.429683e+01
   9.807025e+01   5.844759e+01
   2.080114e+01   2.340845e+01
  -1.070996e+02   3.601815e+01
  -5.531376e+01  -6.391653e+00
   1.103490e+01  -5.986165e+01
   5.298819e+01   1.836001e+01
   2.192079e+01   4.908870e+01
  -1.905015e+01   3.319057e+01
  -1.554252e+01   1.127965e+01
   2.842169e+01   1.119531e+01
   6.950840e+01  -1.082873e+01
   9.584921e+00   4.331332e+01
  -4.258976e+01   5.714620e+01
  -9.112374e+01   7.196847e+01
  -7.826804e+01  -1.014870e+01
  -1.896116e+01  -1.476986e+02
   3.118613e+01  -1.499106e+02
   1.098507e+02  -6.332916e+01
   1.902807e+01   1.642866e+01
   1.361449e+01  -7.781229e-01
   1.242488e+01  -1.977977e+01
  -1.849258e+00  -1.566318e+01
   5.604141e+00   2.431948e+01
   3.501671e-01   6.236279e+01
  -4.742137e+01   6.100586e+01
  -8.932461e+01   2.338292e+01
  -8.134762e+01  -6.013137e+01
  -4.024548e+00  -1.105821e+02
   5.643543e+01  -4.730422e+01
   9.618472e+01   5.249545e+01
   3.144422e+01   7.906207e+01
  -7.783212e+01   2.793552e+01
  -7.089625e+01  -1.512539e+01
  -1.074264e+01  -2.455978e+01
   3.900975e+01  -3.817834e+01
   3.457863e+01  -6.345086e+00
   1.208232e+01   5.397213e+00
  -4.794228e+01   1.941474e+01
  -3.777040e+01  -6.206678e+01
   9.876146e+01  -6.498587e+01
   9.802349e+01  -5.098703e+01
   6.443021e+01   2.413672e+01
  -1.097654e+01   5.187900e+01
  -8.724288e+01   4.884832e+01
  -2.502286e+00  -1.908613e+01
  -1.764294e+01  -4.737874e+01
   7.225835e+01  -1.869211e+01
  -3.802487e+01   5.367449e+01
  -5.502141e+00   4.547907e+01
   2.415487e+01   2.402965e+01
  -4.254238e+00  -3.714391e+01
  -4.504511e+01  -1.745255e+01
  -8.894203e+00  -1.919940e+01
  -4.366923e+01   2.660237e+01
   4.599404e-01   2.433778e+01
   2.465355e+00  -9.520036e-01
  -5.809177e+01  -2.910378e+01
   1.597383e+01   1.988326e+01
   4.651468e+01   2.798200e+01
   8.924368e+00   5.478718e+01
  -5.447906e+01   2.197346e+01
  -5.466944e+01  -5.165316e+01
  -2.295337e+01  -1.896133e+01
   5.735293e+01  -8.059773e+01
   5.189156e+01  -1.598393e+01
   3.124483e+01   1.185271e+01
   8.719720e+00   5.877167e+01
  -2.955426e+01   1.613336e+01
  -2.016688e+01   3.133375e+01
   1.080229e+01  -2.340002e+01
   6.281153e+01   1.174790e+01
   2.829743e+01   4.750191e+01
  -5.559788e+01   1.853483e+01
