
 $NMID
 id='ANONYMOUS ', fmtdat='(2E16.6)'
 volume=1.0
 tramp=1.0
 $END
   4.317184e+03  -1.380743e+02
   2.534041e+03   2.644794e+03
  -7.572709e+02   2.663337e+03
  -2.013406e+03   6.140378e+02
  -9.597607e+02  -9.198052e+02
   8.588475e+02  -7.006097e+02
   8.577164e+02   3.682218e+02
  -6.853642e+01   1.037513e+03
  -8.674142e+02   7.647806e+02
  -8.538782e+02  -1.156038e+02
  -4.449431e+02  -9.695200e+02
   2.983275e+02  -8.906146e+02
   5.897692e+02   8.152114e+01
   3.036898e+02   8.291070e+02
  -2.657679e+02   8.268189e+02
  -5.069049e+02   4.735734e+00
  -3.374488e+02  -3.762854e+02
   3.861943e+02  -5.658196e+02
   4.391724e+02  -3.228455e+01
   2.212684e+02   4.181545e+02
   5.943137e+01   3.591478e+02
  -1.758046e+02   3.175046e+02
  -1.459815e+02  -8.088255e+01
   1.558878e+02  -1.753804e+02
   2.860566e+02   5.098067e+01
   2.266280e+02   1.853234e+02
  -4.087039e+02   5.366582e+02
  -8.755382e+02  -2.014628e+01
  -3.847553e+02  -5.923530e+02
   2.974701e+02  -4.361973e+02
   7.960831e+02   1.648774e+02
   2.550595e+02   3.829956e+02
  -3.818735e+02   6.358522e+02
  -5.383144e+02   2.019484e+02
  -4.089660e+02  -2.229653e+02
  -2.800217e+01  -4.247215e+02
   8.700299e+01  -2.868967e+02
   1.113021e+02   1.509838e+02
  -1.119115e+02   5.104915e+02
  -4.364123e+02   4.927291e+01
  -1.970980e+02  -6.137181e+02
   2.771543e+02  -6.401552e+02
   5.495248e+02   4.537018e+00
   3.158990e+02   5.228410e+02
  -2.712203e+02   2.996171e+02
  -3.937520e+02  -2.888564e+02
   5.922580e+01  -5.486465e+02
   5.274583e+02  -1.813217e+02
   6.335511e+02   3.780053e+02
   1.632055e+02   5.906188e+02
  -4.689236e+02   4.047240e+02
  -7.022768e+02  -5.859359e+01
  -4.009608e+02  -4.042706e+02
   2.047618e+02  -4.423826e+02
   4.877107e+02  -1.433757e+02
   2.259839e+02   1.691574e+02
  -1.789966e+02   8.389543e+01
  -1.208960e+02  -1.679144e+02
   2.403679e+02  -1.770574e+02
   3.763138e+02   8.656356e+01
   1.338634e+02   3.203925e+02
  -2.057482e+02   2.581400e+02
  -2.706020e+02   7.003826e+01
  -1.777207e+02  -5.950259e+01
   2.170448e+01  -2.158383e+02
   1.560457e+02  -3.129676e+02
   2.780472e+02  -2.163847e+02
   3.232202e+02   1.624244e+02
   9.649505e+01   4.114739e+02
  -1.356258e+02   3.156168e+02
  -1.229337e+02   3.675145e+01
   4.738137e+00  -5.001665e+01
   4.941817e+00   1.435314e+02
  -1.847007e+02   2.315007e+02
  -3.255924e+02  -3.094424e+01
  -1.782000e+02  -2.612792e+02
   8.994522e+01  -2.329341e+02
   2.420819e+02   3.281136e+01
   2.404205e+02   2.593729e+02
  -4.939583e+01   3.210022e+02
  -3.150476e+02   1.644308e+02
  -3.680698e+02  -1.386027e+02
  -2.424186e+02  -3.082841e+02
   1.039173e+02  -2.510021e+02
   2.671974e+02  -1.253942e+02
   2.054521e+02   1.836904e+01
   5.059930e+01  -8.317551e+00
   1.730064e+02  -4.061814e+01
   3.210935e+02   9.957991e+01
   3.003838e+02   2.794247e+02
   5.702711e+01   4.247094e+02
  -3.276550e+02   4.190451e+02
  -4.797856e+02   2.105259e+02
  -3.936943e+02  -9.081342e+01
  -3.673346e+01  -2.862912e+02
   1.013190e+02  -2.387860e+02
   1.028563e+02   1.669431e+01
  -9.796842e+01   1.947674e+02
  -2.176449e+02   2.158422e+01
  -8.502332e+01  -2.427277e+02
   1.577071e+02  -2.258674e+02
   1.861290e+02   8.352042e+00
   1.289578e+01   1.968188e+02
  -1.416911e+02   8.847710e+01
  -1.425148e+02  -1.908000e+02
   8.182175e+00  -3.595931e+02
   2.192084e+02  -2.132233e+02
   2.928492e+02   6.103422e+01
   2.671609e+02   2.153659e+02
   3.246682e+01   2.691959e+02
  -1.097571e+02   1.359248e+02
  -1.642322e+02   1.975735e+01
  -1.043524e+02  -3.129374e+01
   6.821532e+01   4.354413e+00
   2.501804e+01   5.968557e+01
  -5.789393e+01   1.132192e+02
  -2.009376e+02  -1.613278e+01
  -5.826682e+01  -8.365792e+01
   8.948774e+01  -4.053979e+01
   5.498180e+01   1.059947e+02
  -1.359929e+02   1.174818e+02
  -3.304186e+02   4.553912e+01
  -2.798912e+02  -1.324480e+02
  -7.517117e+01  -2.169432e+02
   1.981207e+02  -2.448432e+02
   2.546693e+02  -1.502956e+02
   1.081434e+02   8.115559e+01
  -7.113701e+01   8.275711e+01
  -9.963781e+01  -9.802885e+00
   4.357916e+01  -1.051149e+02
   1.897915e+02  -9.169425e+01
   1.528193e+02   5.130023e+01
   5.331681e+01   2.248223e+02
  -7.327873e+01   1.715635e+02
  -8.797471e+01   3.618263e+01
  -3.478641e+01  -8.019599e+00
   3.599575e+01   5.276470e+00
   3.164966e+01   6.087437e+01
  -8.584316e+01   1.028292e+02
  -1.832735e+02   5.909648e+01
  -1.771764e+02  -1.073438e+02
  -6.977410e+01  -1.805648e+02
   1.144623e+02  -1.442162e+02
   1.741701e+02   2.124071e+01
   7.661545e+01   1.167231e+02
  -4.958366e+01   1.259714e+02
  -1.202987e+02   3.579422e+01
  -4.957864e+01  -7.526949e-01
   6.617812e+01  -4.660178e+01
  -1.163886e+01   5.370062e+00
  -8.685899e+01   2.219991e+01
  -1.244708e+02  -4.906448e+01
  -1.500259e+01  -1.568992e+02
   1.246346e+02  -1.984757e+02
   2.191487e+02  -5.330339e+01
   2.022233e+02   1.349662e+02
   5.009128e+01   2.164460e+02
  -7.854094e+01   1.926211e+02
  -1.290834e+02   6.087839e+01
  -1.031026e+02  -4.487655e+01
   1.060637e+01   5.670073e-01
  -9.004203e+01   3.795170e+01
  -9.549930e+01   3.969281e+01
  -5.347400e+01  -1.495284e+00
   3.456890e+01  -7.591082e+01
   5.731011e+01  -3.576343e+01
   4.752417e+01   2.985033e+01
  -3.164668e+01   1.165251e+02
  -1.498991e+02   8.017273e+01
  -1.813870e+02  -6.036587e+01
  -9.900776e+01  -1.868712e+02
   1.067105e+02  -2.376335e+02
   2.644796e+02  -8.540584e+01
   2.484065e+02   5.000198e+01
   1.026799e+02   1.614598e+02
  -5.647145e-01   1.300877e+02
  -5.888397e+01   9.412511e+01
  -3.774624e+01   8.329399e+01
  -6.483830e+01   1.354793e+02
  -7.551934e+01   1.376119e+02
  -8.775980e+01   6.797157e+00
  -9.316090e+01  -1.082345e+02
   6.639047e+00  -2.013688e+02
   9.442801e+01  -1.056223e+02
   1.314495e+02  -2.824654e+01
   1.532946e+02   8.572601e+01
   1.680703e+01   1.494934e+02
  -9.174293e+01   1.099247e+02
  -6.618127e+01   8.671703e+01
  -3.212676e+01  -1.803233e+01
   7.204015e+00  -3.666613e+01
  -3.501422e+01   1.070248e+00
  -9.625035e+01  -1.562717e+01
  -3.176260e+01  -1.542926e+01
   4.326884e+01  -1.141226e+02
   1.349168e+02  -4.077251e+01
   1.495142e+02   2.294705e+01
   2.305594e+01   4.715409e+01
  -1.062694e+02   8.237681e+01
  -1.263850e+02   1.304786e+01
  -5.789233e+00  -1.423447e+01
   7.169156e+01  -6.317196e+01
   1.063497e+02   1.051978e+01
   1.030462e+01   8.592278e+01
  -4.309583e+01   1.003515e+02
  -5.419439e+01  -9.063144e-01
  -6.938893e+01  -6.155535e+01
  -7.935475e+00  -3.532624e+00
  -9.933130e+00  -2.527284e+00
  -3.784799e+01   2.309631e+01
  -4.001090e+01  -3.550230e+01
   4.034835e+01  -1.221733e+02
   9.527672e+01  -1.407837e+02
   1.751581e+02  -5.558287e+01
   1.120264e+02   3.386767e+01
   5.655904e+01   1.279622e+02
  -8.156969e+01   5.407414e+01
  -2.734311e+01  -1.432574e+00
   5.650229e+01  -2.733776e+01
   1.277366e+02   7.002224e+01
   7.591692e+01   7.497896e+01
  -6.462667e+01   9.244229e+01
  -1.929934e+02   1.293239e+01
  -1.601540e+02   3.654454e-01
  -2.386418e+01  -9.289989e+01
   5.737250e+01  -3.878483e+01
  -9.100400e+00   6.968051e+00
  -5.235250e+01   3.991650e+01
  -9.026791e+01  -2.386966e+01
  -4.024166e+01  -1.037791e+02
   7.810948e+01  -1.896550e+02
   1.070419e+02  -6.030685e+01
   1.424369e+02   2.849719e+01
   5.749472e+01   1.708999e+02
  -4.751044e+01   8.285438e+01
  -1.246755e+02   4.140844e+00
  -5.162017e+01  -7.933111e+01
   8.794885e+00  -7.602265e+01
   4.984675e+01  -2.909863e+01
   2.037802e+01   5.610461e+00
  -7.230914e+00   6.073305e+00
   2.343683e+01  -3.038657e+01
   4.005570e+01   2.399108e+01
   2.952489e+01   6.191983e+01
   6.740379e+01   1.204502e+02
  -2.370841e+01   5.500640e+01
  -9.818177e+01  -2.286831e+01
  -1.569011e+02  -3.754599e+01
  -7.487177e+01  -8.841131e+01
   8.060514e+01  -7.770237e+01
   8.401971e+01  -2.657703e+01
   1.584643e+01   3.818074e+01
  -3.822300e+01   3.449635e+01
  -4.190406e+01   8.963603e+00
   1.472184e+01  -3.606220e+01
   1.069366e+01  -6.267098e+00
  -2.737166e+01  -1.411692e+01
  -7.871028e+01  -1.449532e+01
  -4.684934e+00  -5.236880e+01
   1.097524e+02  -1.128779e+02
   1.623994e+02  -8.291043e+01
   1.202626e+02   6.065909e+01
   5.781934e+00   1.630100e+02
  -5.829394e+01   1.620151e+02
  -8.681866e+01   3.359672e+01
  -6.200493e+01  -4.006259e+01
  -2.112959e+01  -1.356319e+01
  -3.897154e+00  -6.897646e-01
  -3.624921e+00  -6.934965e+00
  -4.066135e+01  -6.440568e+01
  -1.652590e+01  -7.915792e+01
   3.967244e+01  -7.820593e+01
   1.282337e+02   1.422450e+01
   9.551824e+01   1.077719e+02
   3.938155e+00   8.883623e+01
  -7.658504e+01   6.110192e+01
  -9.280937e+01  -7.876985e+01
  -3.947956e+01  -8.388149e+01
   7.871840e+01  -6.474706e+01
   7.266827e+01  -6.451388e+00
   1.060117e+01   6.663115e+01
  -7.145180e+00   2.175404e+01
  -8.418378e+01   1.164164e+01
   4.664500e+01  -1.559960e+01
   8.320840e+01  -1.815003e+01
   2.820135e+01   1.585616e+01
  -4.471722e+01   3.818358e+01
  -6.156719e+01   6.669690e+01
  -3.644805e+01  -1.712807e+01
   5.531992e+01  -4.716692e+01
   7.846162e+01  -5.315592e+01
   1.106577e+01  -2.955537e+01
  -1.319152e+01   5.058703e+01
  -3.444060e+01   2.654081e+01
  -6.769767e+01  -4.323223e+01
  -4.026993e+01  -7.603554e+01
  -1.116526e+01  -5.425111e+01
   1.093645e+02   6.277965e+00
   5.503901e+01   6.914881e+00
   1.184548e+00   3.641311e+01
  -2.201583e+00  -2.952770e+00
  -4.233368e+00  -1.197316e+01
   3.840261e+01  -2.046536e+01
   1.155499e+01   4.111567e+01
  -1.462194e+01  -1.194232e+01
  -2.937362e+01  -4.308380e+01
   5.070762e+00  -5.657432e+01
   7.356367e+01   2.485918e+01
   1.764484e+01   5.749554e+01
  -4.199827e+01   9.879983e+01
  -7.971114e+01   6.354675e+01
  -9.536315e+01  -3.336999e+01
  -4.337748e+01  -3.421707e+01
  -2.181627e+01  -3.097925e+01
   1.084965e+02  -3.759427e+01
   8.170514e+01  -7.012537e+00
   4.527832e+00   1.774717e+00
  -3.177745e+01  -8.016545e+00
   3.174739e+01  -2.576475e+01
   9.851095e+01  -1.934525e+01
