
 $NMID
 id='ANONYMOUS ', fmtdat='(2E16.6)'
 volume=1.0
 tramp=1.0
 $END
   4.323975e+03  -3.046773e+02
   2.507090e+03   2.478513e+03
  -8.146099e+02   2.701472e+03
  -2.179978e+03   6.635689e+02
  -9.079507e+02  -6.958685e+02
   8.492309e+02  -7.822609e+02
   8.041957e+02   4.035705e+02
  -1.664516e+02   1.137099e+03
  -9.933851e+02   6.917357e+02
  -1.003210e+03  -8.788124e+01
  -3.609329e+02  -9.204255e+02
   3.275960e+02  -9.117758e+02
   7.437667e+02  -1.709105e+02
   4.913488e+02   8.695347e+02
  -3.263878e+02   8.520496e+02
  -6.577798e+02  -6.884780e+01
  -4.023305e+02  -8.461404e+02
   3.877753e+02  -7.228834e+02
   6.090595e+02   1.029717e+02
   4.325464e+02   2.965216e+02
  -3.540427e+01   3.119988e+02
  -4.341884e+02   3.116963e+02
  -3.073675e+02  -1.778726e+02
   1.671913e+01  -1.173055e+02
   4.231324e+02   7.104824e+01
   1.566690e+02   4.754094e+02
  -3.716762e+02   4.373417e+02
  -8.014888e+02  -1.539172e+02
  -3.297264e+02  -6.228348e+02
   4.532488e+02  -5.513363e+02
   8.166302e+02  -1.766268e+00
   4.025098e+02   5.249089e+02
  -2.340262e+02   4.757872e+02
  -6.118449e+02   1.483546e+02
  -4.234459e+02  -3.055931e+02
  -7.599639e+00  -4.662474e+02
   3.161785e+02  -2.306181e+02
   2.538318e+02   2.958022e+02
  -1.920625e+02   4.927130e+02
  -4.542179e+02   2.863743e+01
  -2.613580e+02  -6.518135e+02
   3.330515e+02  -6.311684e+02
   5.935253e+02  -4.625965e+01
   2.372544e+02   5.466168e+02
  -3.827224e+02   3.724434e+02
  -4.522070e+02  -2.985977e+02
   7.787699e+01  -5.078705e+02
   5.521977e+02  -1.588626e+02
   6.096773e+02   3.533506e+02
   1.625593e+02   5.581201e+02
  -4.120960e+02   3.175335e+02
  -6.327667e+02  -3.882886e+01
  -4.207400e+02  -3.695092e+02
   7.450651e+01  -3.830232e+02
   4.262885e+02  -6.578611e+01
   2.330954e+02   1.713650e+02
  -1.410985e+02   5.845469e+01
  -1.648020e+02  -1.353941e+02
   1.746805e+02  -2.052132e+02
   3.656343e+02   5.639912e+01
   9.903437e+01   3.186825e+02
  -1.893078e+02   2.853883e+02
  -2.688928e+02   8.655209e+01
  -1.828954e+02  -1.227900e+02
   1.860674e+00  -1.939294e+02
   1.378988e+02  -3.184579e+02
   2.836286e+02  -2.392429e+02
   3.767189e+02   7.831107e+01
   1.190816e+02   4.137728e+02
  -1.308777e+02   3.943049e+02
  -1.666409e+02   1.205564e+02
  -3.330894e+01  -1.687028e+01
  -3.005369e+01   5.327832e+01
  -1.946301e+02   1.237896e+02
  -3.069651e+02  -4.970234e+01
  -1.713161e+02  -3.179064e+02
   1.068206e+02  -2.610984e+02
   2.618918e+02  -6.067753e+01
   1.692160e+02   2.324637e+02
  -2.119852e+01   2.823576e+02
  -2.522882e+02   1.240991e+02
  -3.353547e+02  -1.292716e+02
  -1.418516e+02  -3.326091e+02
   1.235632e+02  -3.100437e+02
   2.461580e+02  -1.306733e+02
   1.255676e+02  -1.921831e+01
   7.476386e+01  -6.797663e+01
   2.051167e+02  -7.834661e+01
   4.088016e+02   4.497555e+01
   3.283664e+02   3.161550e+02
   1.135169e+01   4.244516e+02
  -3.689534e+02   3.260296e+02
  -4.856291e+02   1.660166e+02
  -3.593909e+02  -1.315345e+02
  -7.016300e+01  -3.046742e+02
   1.361260e+02  -2.295648e+02
   9.786238e+01  -4.058332e+01
  -8.914575e+01   1.378852e+02
  -1.896147e+02   2.683211e+00
  -6.439013e+01  -1.886796e+02
   2.101830e+02  -2.163345e+02
   2.104145e+02   4.242127e+01
  -1.091633e+01   2.096979e+02
  -2.365614e+02   1.954509e+01
  -1.634563e+02  -2.817527e+02
   1.558262e+02  -3.389611e+02
   2.885181e+02  -1.729799e+02
   3.668091e+02   5.525854e+01
   2.464297e+02   2.361851e+02
   7.321359e+01   2.663734e+02
  -1.041147e+02   1.728248e+02
  -1.779285e+02   5.415056e+01
  -7.534928e+01  -5.802935e+01
   8.791754e+01  -3.800809e+00
   5.173352e+01   1.111269e+02
  -1.319776e+02   1.095912e+02
  -2.160204e+02  -2.877943e+01
  -9.282343e+01  -1.217214e+02
   9.536196e+01  -5.205296e+01
   9.531577e+01   7.800427e+01
  -7.510489e+01   1.101985e+02
  -2.536602e+02   3.530254e+01
  -2.449174e+02  -1.743974e+02
  -1.796891e+01  -2.722253e+02
   1.562052e+02  -1.837100e+02
   2.808582e+02  -4.744965e+01
   1.390864e+02   9.154308e+01
  -6.202669e+01   1.459328e+02
  -8.457057e+01   2.166964e+00
  -7.770810e+00  -1.326772e+02
   1.634010e+02  -4.224000e+01
   1.951148e+02   9.445675e+01
   7.998369e+01   2.169192e+02
  -1.129134e+02   1.133324e+02
  -1.846232e+02  -1.522267e+01
  -2.982384e+01  -2.153949e+01
   3.250297e+01  -1.355736e+01
   3.251333e+01   1.030860e+02
  -1.424760e+02   9.397594e+01
  -2.346549e+02   2.078309e+01
  -2.366863e+02  -1.236694e+02
  -4.210604e+01  -2.263196e+02
   1.782256e+02  -1.731098e+02
   1.678224e+02  -1.310785e+01
   5.414259e+01   6.904037e+01
  -6.614293e+01   9.441487e+01
  -7.618945e+01   4.349158e+01
  -2.441934e+01  -4.703398e+01
   7.587262e+01  -3.453074e+01
   7.866744e+00   6.404971e+00
  -2.437461e+01   1.031645e+01
  -8.583822e+01  -4.657569e+01
  -3.802482e+01  -1.292902e+02
   9.180113e+01  -1.646694e+02
   2.180022e+02  -2.658637e+01
   2.194547e+02   1.442846e+02
   4.479842e+01   1.873324e+02
  -9.088744e+01   1.546067e+02
  -1.410410e+02   3.037339e+01
  -5.901297e+01  -6.327489e+01
   1.507096e+01  -1.266636e+01
  -4.272512e+01   3.671682e+01
  -9.850980e+01   2.148368e+01
  -2.485142e+01  -6.293679e+01
   4.477583e+01  -8.818021e+01
   1.148748e+02  -2.183000e+01
   3.576613e+01   4.066874e+01
  -3.469487e+01   8.890597e+01
  -1.419024e+02   2.622396e+01
  -1.621406e+02  -7.561153e+01
  -4.197535e+01  -1.837107e+02
   1.402190e+02  -2.233702e+02
   2.589672e+02  -9.528128e+01
   2.019765e+02   6.604560e+01
   1.144287e+02   1.961092e+02
   1.401970e+01   1.527474e+02
  -4.296094e+01   1.140578e+02
  -2.848221e+01   1.370203e+02
  -5.850366e+01   1.556350e+02
  -1.082158e+02   1.240044e+02
  -1.700826e+02   2.031532e+01
  -1.652472e+02  -1.538434e+02
  -3.295350e+01  -2.291008e+02
   1.081484e+02  -1.799673e+02
   1.831252e+02  -1.203812e+01
   1.814264e+02   1.215682e+02
  -3.823433e-01   1.569999e+02
  -9.371722e+01   1.006658e+02
  -9.181937e+01  -2.144055e+01
   4.382326e+00  -6.693201e+01
   2.771492e+01  -4.298118e+01
  -5.321777e-01  -2.503408e+01
  -7.276123e+01  -2.615967e+01
  -3.460322e+01  -1.565237e+01
   1.073268e+02  -7.334459e+01
   1.226523e+02   2.376324e+01
   1.409440e+02   4.070865e+01
  -1.975998e+01   7.500928e+01
  -1.250627e+02   6.202582e+01
  -1.557208e+02   2.237265e+01
  -6.371552e+01  -2.704644e+01
   6.093746e-01  -7.675998e+01
   8.790746e+01  -2.195463e+01
  -1.193370e+01   2.948553e+01
  -6.117929e+01   6.059303e+01
  -9.445616e+01  -7.835071e+00
  -3.431444e+01   1.482959e+01
   1.668674e+01  -4.712167e+01
  -9.451972e+01  -5.580448e+01
  -9.443925e+01  -3.264411e+01
  -3.654717e+01  -9.665061e+01
   7.150032e+01  -1.397910e+02
   1.619247e+02  -1.090783e+02
   2.113972e+02  -1.875658e+01
   9.353244e+01   6.715266e+01
  -7.303507e+00   1.234207e+02
  -9.472627e+01   7.606017e+01
  -2.304416e+01  -3.427677e+01
   6.394090e+01  -2.758601e+01
   1.201178e+02   1.884232e+01
   8.567343e+01   1.014829e+02
  -9.320072e+01   1.089060e+02
  -2.364211e+02   2.285665e+01
  -1.706507e+02  -6.432723e+01
  -5.726479e+00  -9.927926e+01
   7.109460e+01  -3.150009e+01
   8.746554e+01   3.701469e+01
  -3.336802e+01   2.590577e+01
  -1.704453e+02  -1.993377e+01
  -8.479031e+01  -1.424488e+02
   7.660387e+01  -1.591179e+02
   1.483542e+02  -1.081294e+02
   1.360733e+02   6.641169e+01
   5.763889e+00   1.949928e+02
  -8.416383e+01   1.519327e+02
  -8.338033e+01  -3.558020e+01
  -6.560375e+01  -1.165691e+02
  -3.252078e+01  -1.086306e+02
   3.200292e+01   2.786694e+00
   6.349437e+01   4.589120e+01
   3.068868e+01   4.470441e+01
   2.662293e+01  -9.510769e-01
   1.935301e+01   1.824278e+01
   7.315569e+01   1.287419e+02
   1.940522e+01   1.170215e+02
  -2.074189e+01   6.579929e+01
  -1.085488e+02  -2.514790e+01
  -1.776218e+02  -4.333334e+01
  -4.661779e+01  -3.893110e+01
   8.310337e+00  -2.056535e+01
   6.839285e+01  -4.594000e+01
  -1.870954e+01  -3.492542e+01
  -9.049095e+00  -1.786644e+01
   6.409550e+00   7.464020e+00
   3.431935e+01  -2.289524e+01
  -6.638249e+00  -5.777880e+00
  -5.573700e+01  -2.213514e+01
  -7.363019e+01  -1.575553e+01
   5.262666e+01  -4.574725e+01
   7.463562e+01  -6.910872e+01
   1.224138e+02  -2.164287e+01
   1.296845e+02   6.987728e+01
   1.615137e+00   1.460077e+02
  -8.796017e+01   1.336728e+02
  -1.179297e+02   5.507638e+01
  -4.251023e+01  -5.122209e+01
  -5.424510e+01  -8.132128e+01
  -3.067017e+01   4.268102e+00
  -2.444391e+01   5.294279e-01
  -3.116759e+00  -3.618276e+01
  -3.477063e+00  -1.009116e+02
  -9.403398e+00  -5.976036e+01
   9.541619e+01   2.308751e+01
   8.152464e+01   1.462886e+02
  -3.292895e+01   7.788498e+01
  -6.302273e+01   7.541926e+00
  -7.219104e+01  -7.188580e+01
  -3.383199e+01  -1.440858e+02
   5.256797e+01  -7.317005e+01
   6.207043e+01  -2.520482e+01
   5.451557e+01   4.550811e+01
  -1.671667e+01   2.952736e+01
  -2.050822e+01   1.615391e+01
   2.391752e+01  -1.821225e+01
   1.134144e+02   1.235068e+01
   1.634231e+01   3.646041e+01
  -7.338624e+01   4.433343e+01
  -4.865842e+01   8.280564e+01
  -1.040884e+02  -9.495051e+00
   1.022584e+01  -6.500345e+01
   3.885688e+01  -5.819305e+01
   5.048512e+01  -5.015858e+01
  -3.837700e+00   5.265286e+01
  -5.977035e+01   3.662892e+01
  -3.581181e+01  -1.847472e+01
  -4.093772e+00  -6.809127e+01
  -1.507995e+01  -6.522393e+01
   3.989441e+01   1.138449e+01
   5.251213e+01   1.135581e+01
   1.695508e+01   4.432044e+01
   2.388353e+01   2.986868e+01
  -9.130702e+00   6.336172e+00
  -4.641207e+01   3.878409e+01
  -2.353021e+01   3.426902e+01
  -1.560009e+01  -2.502001e+01
  -3.067061e+01  -3.003802e+01
   4.354372e+00  -7.772605e+01
   4.799220e+00  -1.974304e+01
   3.777037e+01   4.118627e+01
  -3.474525e+00   2.724041e+01
  -4.585769e+01   3.719476e+01
  -7.857006e+01  -3.376050e+01
  -7.319407e+01  -4.043007e+01
   5.066160e+01  -7.949005e+01
   7.042107e+01  -7.302663e+00
  -3.964043e+01   5.280632e+01
  -6.634646e+01  -9.658901e+00
  -2.839479e+01  -1.784686e+01
   3.207528e+01  -3.439475e+01
   1.318351e+02  -9.984246e+00
