
 $NMID
 id='ANONYMOUS ', fmtdat='(2E16.6)'
 volume=1.0
 tramp=1.0
 $END
   3.275250e+03   3.162044e+01
   2.118069e+03   1.954745e+03
  -3.755259e+02   2.038078e+03
  -1.640945e+03   9.461269e+02
  -8.664204e+02  -3.573092e+02
   3.527124e+02  -4.561369e+02
   3.450862e+02   2.454492e+02
   6.027164e+01   8.185493e+02
  -5.462145e+02   5.165132e+02
  -5.659838e+02  -9.322619e+00
  -3.900313e+02  -5.467241e+02
   8.379229e+01  -7.293656e+02
   4.355563e+02  -2.044026e+02
   3.245092e+02   5.932841e+02
  -1.138987e+02   7.240297e+02
  -2.320073e+02   1.331407e+02
  -2.194952e+02  -4.767918e+02
   1.186291e+02  -6.345236e+02
   4.233451e+02  -5.548745e+01
   3.847979e+02   1.563065e+02
   3.315219e+02   4.107172e+02
  -2.087251e+02   5.150023e+01
  -3.491592e+01   1.818414e+01
   1.608977e+02  -1.104985e+01
   2.397990e+02   7.554905e+01
   2.073931e+02   2.483095e+02
  -3.178171e+02   1.360629e+02
  -6.130763e+02  -3.839614e+00
  -3.442167e+02  -4.814212e+02
   3.527577e+02  -2.661275e+02
   5.486064e+02   8.072579e+01
   3.034390e+02   3.503243e+02
  -1.384817e+02   4.624389e+02
  -4.582414e+02   1.077254e+02
  -2.891720e+02  -2.558932e+02
  -7.312694e+01  -2.619429e+02
   1.116443e+02  -1.016646e+02
  -2.529454e+00   2.591229e+02
  -1.883923e+02   2.463443e+02
  -3.344588e+02  -1.374367e+02
  -4.319627e+01  -5.517498e+02
   3.730137e+02  -4.501597e+02
   3.994339e+02   5.783662e+01
   1.848753e+02   3.359893e+02
  -2.300377e+02   1.124175e+02
  -2.950717e+02  -3.270966e+02
   1.139018e+02  -4.139177e+02
   5.052965e+02  -6.110562e+01
   5.915462e+02   3.574782e+02
   1.835633e+02   4.924972e+02
  -2.855163e+02   3.071885e+02
  -5.870336e+02  -4.444735e+01
  -3.647803e+02  -2.703317e+02
   7.825973e+01  -2.814184e+02
   3.983819e+02  -1.173748e+02
   2.849776e+02   3.688866e+01
  -2.842945e+01   3.610646e+01
  -1.027155e+02  -3.318869e+01
   1.281380e+02  -1.138459e+02
   3.355547e+02   3.935935e+01
   2.060849e+02   1.811987e+02
  -1.250058e+02   2.310900e+02
  -3.429316e+02   1.534886e+02
  -2.117986e+02  -4.968547e+01
   7.439328e+01  -3.044231e+02
   3.084450e+02  -3.529637e+02
   3.501562e+02  -1.864618e+02
   2.310059e+02   7.533600e+01
   8.147999e+01   3.441005e+02
  -1.209993e+01   2.890191e+02
  -2.015952e+01   1.552036e+02
   3.161604e+01   4.828494e+01
  -7.672659e+01   8.506179e+01
  -1.760007e+02   5.054262e+01
  -2.145281e+02  -4.113337e+01
  -1.675040e+02  -2.451709e+02
   7.907455e+01  -2.104440e+02
   2.411975e+02  -3.314405e+01
   1.779670e+02   2.097219e+02
  -3.019886e+01   2.814982e+02
  -1.926058e+02   9.273015e+01
  -3.026123e+02  -1.834618e+02
  -1.278778e+02  -3.174617e+02
   8.524458e+01  -2.368285e+02
   1.559837e+02  -1.678018e+02
   1.449002e+02  -6.264161e+01
   1.539041e+02  -8.151701e+01
   2.768053e+02  -4.838352e+01
   3.550949e+02   9.504971e+01
   3.007981e+02   3.055276e+02
  -3.585007e+01   4.410157e+02
  -3.188760e+02   4.255215e+02
  -4.606750e+02   2.161137e+02
  -3.287166e+02  -1.199268e+02
  -7.995935e+01  -2.617950e+02
   7.252724e+01  -2.262144e+02
   6.170384e+00  -2.116843e+01
  -1.007422e+02   5.213675e+01
  -1.652104e+02  -1.541886e+01
  -5.278143e+01  -1.795556e+02
   1.471415e+02  -1.263935e+02
   1.556807e+02   3.263150e+01
  -4.936227e+01   1.365835e+02
  -1.804751e+02   4.004224e+01
  -1.682003e+02  -2.425100e+02
  -1.311788e+01  -3.473350e+02
   2.149592e+02  -2.187285e+02
   3.642542e+02   3.525994e+01
   2.588536e+02   2.483050e+02
   1.323622e+02   2.757613e+02
  -1.130922e+02   1.768065e+02
  -1.517868e+02   2.027768e+01
  -4.405177e+01   1.900366e+01
   6.348287e+01   4.327480e+01
   9.865326e+00   1.148762e+02
  -1.236394e+02   4.168382e+01
  -1.486930e+02   2.734051e+01
  -2.991167e+01  -8.770265e+01
   1.127637e+02   1.158469e+01
   8.055567e+01   7.240671e+01
  -1.151095e+02   1.812395e+02
  -2.932592e+02  -2.707028e+00
  -3.194852e+02  -1.240908e+02
  -5.034447e+01  -2.428343e+02
   1.907071e+02  -2.515300e+02
   2.456092e+02  -9.818880e+01
   1.471579e+02   4.614008e+01
  -3.868670e+01   1.425569e+02
  -6.565389e+01  -9.757075e+00
   8.464709e+01  -1.437039e+02
   2.040697e+02  -3.909736e+01
   1.968284e+02   8.350577e+01
   5.018760e+01   2.234764e+02
  -1.235790e+02   1.445273e+02
  -1.584926e+02   4.396531e+01
  -6.111196e+01  -6.369517e+01
   3.423970e+01   2.863530e+01
   3.589819e+01   8.025563e+01
  -2.909313e+01   1.460137e+02
  -1.795616e+02   8.809383e+00
  -2.243238e+02  -9.474288e+01
  -3.223324e+01  -2.180785e+02
   1.288475e+02  -1.741142e+02
   1.488236e+02   1.967361e+01
   1.091916e+02   1.106300e+02
  -6.949475e+01   7.839105e+01
  -4.567666e+01   1.699494e+01
  -2.573427e+01  -3.329778e+01
   1.250356e+01  -3.844277e+01
  -1.740797e+01   6.216796e+01
  -9.627721e+01   2.265595e+01
  -1.022590e+02  -8.854565e+01
  -1.364739e+01  -1.516650e+02
   1.336671e+02  -1.726337e+02
   2.189639e+02  -1.287397e+01
   1.797540e+02   1.390578e+02
   4.436306e+01   2.754783e+02
  -7.307042e+01   1.585162e+02
  -1.277115e+02   6.134415e+01
  -8.313329e+01  -3.496678e+01
  -1.967811e+01   6.747147e+00
  -7.936046e+01   2.820458e+01
  -1.180623e+02   2.787806e+01
  -1.229441e+02  -4.964751e+01
   7.047665e+01  -1.070225e+02
   8.451313e+01  -1.113242e+02
   1.185504e+02   4.011373e+01
  -9.502117e+01   1.219598e+02
  -1.494333e+02   1.108095e+02
  -2.514110e+02  -4.221753e+01
  -7.317996e+01  -1.985606e+02
   1.610991e+02  -2.212654e+02
   3.065479e+02  -9.465164e+01
   2.385881e+02   1.139310e+02
   1.318607e+02   1.640958e+02
  -3.701660e+01   1.355448e+02
  -5.086710e+01   8.456274e+01
  -8.029357e+01   1.036076e+02
  -4.306546e+01   1.254743e+02
  -1.428771e+02   9.333034e+01
  -1.838869e+02   2.269238e+00
  -1.154330e+02  -1.618533e+02
  -7.679301e+01  -2.606333e+02
   9.571543e+01  -1.469817e+02
   1.727422e+02  -2.835371e+00
   8.612928e+01   1.466156e+02
   1.435729e+01   1.657708e+02
  -1.051400e+02   5.209747e+01
  -3.762981e+01  -2.338107e+01
  -5.220422e+00  -1.001337e+02
   6.362719e+01  -3.714406e+01
  -1.832716e+01  -2.406545e+01
  -1.196460e+02  -1.229121e+01
  -3.049145e+01  -2.582840e+01
   5.882743e+01  -9.944298e+01
   1.427508e+02  -1.039010e+00
   1.696390e+02   5.035004e+01
   1.080851e+01   1.375655e+02
  -6.832144e+01   1.027736e+02
  -1.468923e+02  -9.428967e+00
  -5.970448e+01  -7.439455e+01
   6.411344e+01  -2.070779e+01
   8.935837e+01   2.499632e+01
   3.342701e+01   1.210450e+02
  -5.805172e+01   7.415599e+01
  -6.899692e+01  -6.005756e+01
  -7.996260e+01  -8.750936e+01
  -9.202804e+00  -4.408543e+01
  -2.108266e+01   2.053471e+01
  -2.549505e+01  -2.333322e+01
  -8.118462e+01  -5.387090e+01
   3.344470e+01  -1.120342e+02
   8.618219e+01  -1.661026e+02
   1.833512e+02  -1.886475e+01
   1.549473e+02   1.161289e+02
   1.267412e+00   1.528136e+02
  -7.864174e+01   7.167221e+01
  -9.003432e+01   6.623261e+00
   4.269269e+01   1.569815e+01
   8.652626e+01   6.888616e+00
   8.798956e+01   1.177858e+02
  -7.139693e+01   5.000761e+01
  -1.728838e+02   9.708565e+00
  -1.259989e+02  -1.215894e+01
  -2.890541e+01  -7.853142e+01
   5.796054e+01  -4.848364e+01
   2.256861e+01   3.466739e+01
  -2.998675e+01   5.709162e-01
  -1.251295e+02  -2.658664e+01
  -1.592326e+01  -1.557313e+02
   6.736297e+01  -1.513517e+02
   1.603486e+02  -1.662566e+01
   1.285371e+02   1.467163e+02
   3.278972e+01   1.711344e+02
  -9.328840e+01   1.289989e+02
  -1.363501e+02  -4.574538e+00
  -4.355329e+01  -1.098524e+02
  -1.337625e+01  -9.853865e+01
   2.247406e+01  -1.429618e+01
   5.229518e+01  -1.838046e+01
   3.770801e+01   3.551038e+01
   3.607665e+01  -6.852704e+00
   6.404229e+01   2.189759e+00
   2.488888e+01   1.169607e+02
   3.898333e+01   1.697896e+02
  -1.101924e+02   8.291481e+01
  -1.806358e+02  -1.241446e+01
  -1.226924e+02  -7.663474e+01
  -1.652625e+01  -8.282582e+01
   1.226129e+02  -4.914591e+01
   9.516453e+01   1.919265e+01
  -1.217988e+01   1.143660e+01
  -7.910532e+01   3.069510e+01
   1.567611e+01   5.118179e+01
   2.680626e+01  -1.713539e+01
   3.055244e+01   3.223776e+01
  -2.876965e+01   4.011207e+01
  -1.130212e+02  -2.506347e+00
  -4.105439e+01  -6.795180e+01
   1.221894e+02  -1.810674e+02
   1.900927e+02  -5.961415e+01
   1.647266e+02   3.041664e+00
   7.881783e+01   1.647505e+02
  -1.118294e+02   1.758798e+02
  -9.678292e+01   1.001380e+02
  -7.113620e+01  -3.269076e+01
   1.704498e+01  -3.067649e+01
  -5.836762e+00  -1.644926e+01
  -1.428326e+01  -1.919737e+01
  -1.865674e+01  -1.835884e+01
  -2.361896e+00  -4.646430e+01
   2.252177e+01  -1.538808e+01
   9.995807e+01   1.161006e+01
   2.588115e+01   6.660159e+01
   1.683011e+01   1.207408e+02
  -4.141196e+01   2.508346e+01
  -1.366363e+02  -7.924249e+01
  -6.364857e+01  -1.021938e+02
   7.321645e+01  -4.521706e+01
   1.221668e+02   9.696197e+00
   5.435582e+01   8.101969e+01
  -5.620038e+00   5.420758e+01
  -4.241174e+01   3.211815e+01
   4.136798e+01  -2.081397e+01
   1.053266e+02   1.389598e+01
   1.195279e+01   6.695127e+00
  -8.063402e+01   6.209376e+01
  -8.716383e+01   4.674343e+01
  -1.032577e+01  -1.349947e+01
  -1.152053e+00  -7.124116e+01
   5.039192e+01  -5.652209e+01
   1.274989e+01   1.151612e+01
   1.577359e+01   6.331217e+01
  -5.868375e+01   4.369104e+01
   1.334785e+01  -5.920974e+00
  -6.061348e+01  -2.754933e+01
   1.148682e+01  -4.299742e+01
   2.254654e+01   1.021843e+01
   2.975567e+01   6.417389e+01
   6.238137e+00   1.761048e+01
  -1.500442e+01  -6.001106e+01
  -3.428762e+01   2.553939e+01
   2.526272e+01   2.434884e+01
  -3.857203e+01   7.943521e+01
  -5.789628e+01   4.754046e+01
  -7.483069e+01  -4.071139e+01
  -4.496617e+01  -1.070496e+02
   4.357360e+01  -3.329894e+01
   5.336136e+01   4.959661e+01
   5.823424e+01   2.935958e+01
  -6.741120e+01   2.777017e+01
  -8.688384e+01   6.097712e+00
  -5.273338e+01  -4.537748e+00
   3.512745e+01  -2.915374e+01
  -2.818307e+00  -5.419848e+01
   3.726680e+00  -2.637214e+01
   6.497702e+00  -1.878670e+00
  -2.814726e+01  -5.387785e+00
   4.882009e+01  -1.785076e+01
   8.290868e+01  -4.550563e+01
