
 $NMID
 id='ANONYMOUS ', fmtdat='(2E16.6)'
 volume=1.0
 tramp=1.0
 $END
  -2.849344e+03  -2.420311e+02
  -1.711353e+03  -1.032748e+03
  -2.945227e+02  -1.504347e+03
   8.692476e+02  -9.706963e+02
   5.812240e+02  -3.125234e+02
   7.327671e+01   1.331557e+02
  -1.041446e+02  -2.869209e+01
   2.877554e+00  -3.571598e+02
   4.366752e+02  -4.047131e+02
   5.618225e+02  -5.414407e+01
   3.468128e+02   3.552611e+02
   2.805408e+02   4.801615e+02
  -1.522924e+02   1.759712e+02
  -2.124974e+02  -4.812928e+02
   1.041283e+02  -3.930643e+02
   4.520953e+02  -1.892068e+01
   2.887330e+02   3.940361e+02
  -1.112435e+02   6.550543e+02
  -4.029584e+02   5.102131e+02
  -5.077896e+02  -1.059697e+02
  -1.675898e+02  -3.029284e+02
   2.234658e+02  -1.461649e+02
  -4.564600e+01  -1.828794e+01
  -1.209529e+02  -2.124239e+02
  -1.081412e+02  -2.201419e+02
   8.156811e+01  -1.433155e+02
   5.696648e+02  -9.419178e-01
   3.662143e+02   3.141128e+02
   8.027303e+01   3.007198e+02
  -2.866596e+02   1.996249e+02
  -4.369932e+02  -7.737346e+00
  -1.996764e+02  -1.773000e+02
   1.536831e+02  -3.266539e+02
   3.292083e+02  -1.385030e+02
   2.049889e+02   1.228647e+02
   6.592321e+01   2.035219e+02
  -3.120730e+01   1.366464e+02
   9.437912e+01   2.119971e+01
   2.529797e+01  -9.016415e+01
   9.160709e+01   8.201156e+01
  -3.130454e+01   2.370391e+02
  -2.105636e+02   1.845659e+02
  -1.573711e+02  -4.256507e+01
  -8.305259e+01  -1.435847e+02
   7.350821e+01  -6.263080e+01
   1.148062e+02   1.595099e+02
  -7.606685e+01   2.464057e+02
  -3.099598e+02   4.629867e+01
  -3.271988e+02  -2.743433e+02
  -1.313475e+02  -3.653995e+02
   2.368422e+02  -1.925092e+02
   3.707443e+02   5.355798e+01
   2.804034e+02   1.869978e+02
  -8.226418e+00   1.723619e+02
  -1.767242e+02   9.045692e+01
  -1.811177e+02   8.759006e+01
  -6.135512e+01   4.775968e+01
  -2.715573e+01   3.689457e+01
  -1.182474e+02  -1.193807e+01
  -2.265714e+02  -1.272971e+02
  -7.439983e+01  -1.803083e+02
   1.239413e+02  -1.804373e+02
   2.941243e+02  -6.899437e+01
   2.108561e+02   7.287938e+01
  -2.039766e+01   2.514043e+02
  -2.259286e+02   2.829854e+02
  -2.862385e+02   1.828986e+02
  -2.011808e+02  -1.146337e+02
  -3.866834e+01  -2.657100e+02
  -3.860122e+01  -2.695845e+02
  -1.398712e+01  -1.638767e+02
   3.588935e+01  -5.704003e+01
   1.083611e+02  -3.432989e+01
   1.835871e+02  -4.383547e+00
   1.687572e+02   1.077899e+02
   4.118424e+01   2.398974e+02
  -9.819437e+01   1.835615e+02
  -1.581810e+02  -2.574333e+01
  -1.188756e+02  -2.031787e+02
   4.141368e+01  -2.133450e+02
   1.942535e+02  -3.234022e+01
   2.286185e+02   9.722509e+01
   1.324596e+02   1.937984e+02
  -2.496894e+01   1.891718e+02
  -1.281206e+02   8.487204e+01
  -7.638054e+01   7.132772e+01
  -1.731982e+02   9.126446e+01
  -2.195203e+02   4.257520e+01
  -2.633282e+02  -9.019935e+01
  -1.974112e+02  -2.243286e+02
   4.405432e+01  -3.506043e+02
   3.130018e+02  -2.383656e+02
   3.761122e+02  -9.357580e+01
   2.445236e+02   1.171300e+02
   3.280456e+01   2.516945e+02
  -5.828562e+01   1.806367e+02
  -3.861698e+01   4.083578e+01
   5.819872e+01  -2.578825e+01
   7.242435e+01   1.400277e+01
  -1.120860e+01   8.578759e+01
  -8.453475e+01   7.191055e+01
  -3.923462e+01  -1.645393e+01
   4.981377e+01  -8.189602e+01
   1.192257e+02  -4.893060e+00
   1.388303e+02   1.490598e+02
  -1.760418e+01   3.125623e+02
  -2.050144e+02   1.677408e+02
  -2.957331e+02  -8.006780e+01
  -2.320031e+02  -2.207303e+02
  -8.699306e+01  -1.986592e+02
   1.209471e+02  -1.056582e+02
   1.132579e+02   4.816377e+00
   6.164581e+00  -2.167051e+01
  -2.222727e+01  -5.881295e+01
   3.879680e+01  -1.271239e+02
   1.563304e+02  -6.243774e+01
   1.235447e+02  -1.520899e+01
   2.276210e+01   2.166404e+01
  -9.154255e+01  -2.048185e+01
  -1.792706e+01  -6.931720e+01
   1.534972e+02  -1.045292e+02
   2.575210e+02   4.396593e-01
   2.080296e+02   1.513657e+02
   6.347862e+00   2.597795e+02
  -1.959200e+02   2.107371e+02
  -2.218825e+02   6.077159e+01
  -8.718588e+01  -8.141451e+01
   8.062833e+00  -9.565149e+01
   1.222212e+01   4.004859e+01
  -1.374945e+01   4.842559e+01
  -1.236821e+02   3.559547e+01
  -1.462436e+02  -9.865402e+01
  -4.849411e+01  -1.453953e+02
   5.788385e+01  -1.024545e+02
   7.245511e+01  -5.642333e+00
   6.718217e+01   6.067237e+01
  -1.453159e+01  -3.739192e+01
  -5.651897e+01  -5.328146e+01
   6.303436e+01  -8.543757e+01
   1.808732e+02  -1.994877e+01
   1.448604e+02   1.153671e+02
  -9.743370e+00   1.631615e+02
  -1.335892e+02   1.273390e+02
  -1.279899e+02   3.897472e+01
  -2.064156e+01  -2.124092e+01
   3.565389e+01  -5.784719e+01
   1.588915e+01  -5.655997e+01
  -5.258196e+01   2.599595e+01
  -1.240594e+01   1.197736e+01
   7.271486e+01  -5.480394e+01
   1.311157e+02  -6.032147e+01
   1.179734e+02   1.289838e+02
  -1.328766e+01   1.826201e+02
  -1.017854e+02   1.631776e+02
  -2.019460e+02  -4.537213e+00
  -1.594452e+02  -1.321958e+02
  -8.346587e+01  -1.944693e+02
   7.222801e+01  -1.762423e+02
   8.345011e+01   2.960566e+00
   5.018395e+01   4.699932e+01
   3.027865e+01   6.088016e+00
   9.723383e+01  -6.464252e+01
   8.377039e+01   9.582220e+00
   4.496341e+01   7.579187e+01
  -3.271875e+01   6.306211e+01
  -1.166378e+02   3.971359e+01
  -1.151209e+02  -5.737194e+01
   5.662907e+01  -9.871678e+01
   1.313982e+02  -4.445607e+01
   1.463256e+02   9.908222e+01
   5.105398e+01   1.889966e+02
  -1.278773e+02   1.817154e+02
  -2.440043e+02   7.959169e+01
  -1.695828e+02  -1.107761e+02
  -6.398121e+01  -1.439234e+02
   2.434889e+01  -1.646841e+02
   3.836315e+01  -4.448050e+01
   5.770941e+01  -5.034596e+01
   3.855238e+01  -9.765946e+01
   1.114253e+02  -7.117641e+01
   1.152733e+02   3.522372e+01
   7.344240e+01   1.736858e+02
  -1.945668e+01   1.932912e+02
  -9.120686e+01   1.278984e+02
  -1.397101e+02   6.486933e+01
  -1.099882e+02  -1.269759e+02
   2.660875e+00  -1.118298e+02
   1.209297e+02  -5.185711e+01
   4.783264e+01   3.869586e+01
  -6.896735e+00  -3.730215e+00
  -1.470614e+01   1.227024e+01
   2.021712e+01   5.839858e+01
   3.990558e+01   3.474819e+01
   6.307335e+01   3.209776e+01
  -6.229683e+01   3.488152e+01
  -1.708574e+02   1.614820e+00
  -1.563681e+02  -8.141018e+01
  -2.084907e+01  -1.323214e+02
   1.041264e+02  -5.830541e+01
   1.229259e+02  -2.526626e+01
   5.016096e+01   3.069999e+01
  -4.688124e+01   3.516949e+01
  -7.323424e+01   2.414757e+01
  -6.528382e+01  -3.258026e+01
   1.820611e+01  -5.427801e+01
   6.449375e+01  -1.610178e+01
   1.182627e+02   2.021745e+01
   6.561886e+01   5.193759e+01
   3.535424e+01   8.744401e+00
   4.206487e+01   8.061544e+00
   1.879364e+01   5.825678e+01
  -4.027236e+01   1.096605e+02
  -1.219784e+02   1.475495e+02
  -1.281471e+02   3.439055e+01
  -1.236566e+02  -9.201974e+01
  -1.641551e+01  -6.815446e+01
   4.689028e+01  -4.642992e+01
  -1.580291e+00   1.794382e-01
  -6.637953e+01  -4.823488e+01
  -6.139657e+01  -5.750790e+01
   2.812795e+01  -9.920287e+01
   8.856685e+01  -1.047786e+02
   1.892761e+02  -5.230680e+01
   1.205088e+02   3.104476e+01
   1.707606e+01   9.766749e+01
  -7.294065e+01   8.197353e+01
  -7.568285e+01   7.046108e+00
   1.044027e+02   9.654124e-01
   8.158028e+01   8.208866e+00
  -9.970566e+00   1.532025e+02
  -7.025847e+01   1.339945e+02
  -1.263481e+02   2.739048e+00
  -1.122207e+02  -1.241319e+02
  -1.983349e+01  -2.091695e+02
   6.669114e+01  -1.064072e+02
   3.858700e+01   2.521429e+01
   4.369133e+01   1.179368e+02
  -1.218613e+01   4.377948e+01
  -2.806536e+01   2.785860e+01
  -1.653270e+01  -4.638112e+01
  -1.966209e+01  -6.080924e+01
   1.873642e+01   6.292267e+01
  -1.611000e+01  -2.333210e+01
  -4.896524e+01  -6.436578e+01
  -2.836602e+01  -7.671101e+01
   1.048800e+02  -3.116806e+01
   1.295190e+02   5.909867e+01
   8.770946e+01   4.221106e+01
   6.580093e+00   8.123239e+01
  -1.075316e+02   8.563968e+00
  -4.760629e+01   2.411452e-02
   1.278171e+01   2.794556e+01
   7.707046e+01   1.939897e+01
   4.372388e+01  -1.343516e+01
   1.721236e+00  -2.472598e+00
   8.020371e+00   1.247866e+01
   5.509112e+01  -4.825382e+00
   7.701218e+01   4.081465e+01
   1.344941e+01   7.018470e+01
  -6.830911e+01   9.286359e+01
  -1.659880e+02   9.467410e+01
  -1.145966e+02  -4.506526e+01
  -4.386363e+01  -1.794665e+02
   9.898102e+01  -1.619767e+02
   1.491978e+02  -3.576051e+01
   1.045931e+02   1.038141e+01
   4.196959e+01   2.583344e+00
  -3.206972e+01  -3.851168e+01
  -1.679925e+01   1.448297e+01
   4.756118e+01   7.120995e+01
   2.838976e+01   8.779637e+01
  -1.284300e+01   7.751041e+01
  -7.758116e+01  -2.497807e+01
  -6.893577e+01  -7.331598e+01
   1.870656e+00  -8.049633e+01
   7.254019e+01   1.249326e+01
   7.548731e+01   2.685126e+01
   3.062966e+01   1.297311e+02
  -6.067501e+01   5.550238e+01
  -8.174434e+01  -5.262863e+01
  -2.628066e+01  -6.295725e+01
   7.401641e+01  -3.572919e+01
   1.221827e+01   1.386783e+01
   1.734909e+00   6.033459e+00
  -8.108053e+01  -8.399835e+00
   2.781453e+00  -6.436302e+00
   6.425555e+01  -1.428999e+01
   1.968770e+02  -3.754497e-01
   1.042366e+02   6.515008e+01
  -2.229731e+01   1.044403e+02
  -8.205344e+01   7.362760e+01
  -9.857762e+01   1.229350e+00
  -2.078459e+01  -6.224547e+01
  -3.876238e+01  -4.632164e+01
   5.035452e+01   5.072461e+01
   8.600567e+01   2.746967e+01
  -1.674195e+01   1.460102e+01
  -2.246729e+01   3.097890e+01
  -5.902742e+01  -6.149214e+01
  -2.863900e+00   1.365935e+01
   3.657320e+00   5.605510e+01
  -9.966669e+00   2.493316e+01
   1.840561e+00  -1.847055e+01
   5.712638e+01  -7.818740e+01
   1.118257e+01  -6.321516e+01
   8.762777e+00  -3.896588e+00
   5.780967e+00   5.024323e+01
  -3.638765e+01   3.084437e+01
  -4.504602e+01  -1.215165e+01
   2.083266e+01  -3.989688e+01
   1.549703e+01  -7.806221e+00
   6.443552e+01  -2.419696e+01
   3.501905e+01   2.542055e+01
  -5.257785e+01   3.584516e+01
  -8.780078e+01   2.634862e+01
  -5.595808e+01  -2.397876e+00
   1.586892e+01  -7.351551e+00
   3.006968e+01   1.346116e+01
  -3.223282e+01  -1.036372e+01
  -5.450259e+01   1.434320e+01
