
 $NMID
 id='ANONYMOUS ', fmtdat='(2E16.6)'
 volume=1.0
 tramp=1.0
 $END
  -3.301501e+03   3.012002e+02
  -2.374091e+03  -1.945127e+03
   1.706156e+02  -2.164668e+03
   1.401429e+03  -1.106257e+03
   1.148689e+03   3.088257e+02
  -1.897849e+02   3.822717e+02
  -5.229251e+02  -1.400872e+02
  -1.373247e+02  -5.996106e+02
   5.844479e+02  -7.688384e+02
   7.205085e+02  -9.177260e+01
   5.080116e+02   5.248095e+02
  -1.064072e+01   7.236603e+02
  -3.211544e+02   2.717284e+02
  -2.543771e+02  -4.033017e+02
  -6.460326e+01  -5.417193e+02
   4.675346e+02   1.970793e+00
   2.802420e+02   5.986889e+02
  -1.781982e+02   6.275770e+02
  -5.969989e+02   2.251382e+02
  -4.177181e+02  -1.033875e+02
  -2.088233e+02  -4.498499e+02
   1.385536e+02  -2.624402e+02
   2.815088e+02  -4.875198e+01
  -1.466507e+02   5.355248e+01
  -3.183350e+02  -1.816184e+02
   1.653489e+00  -3.278350e+02
   4.639481e+02  -2.477153e+02
   7.077571e+02   5.113943e+01
   3.290106e+02   3.942457e+02
  -3.534808e+02   2.877922e+02
  -4.957553e+02  -1.940731e+02
  -2.506452e+02  -4.161200e+02
   2.190541e+02  -3.458708e+02
   4.609662e+02  -2.712936e+01
   3.250097e+02   2.103308e+02
   2.007308e+02   3.973846e+02
  -8.394946e+01   2.145293e+02
  -6.100554e+01  -1.920782e+02
   1.888161e+02  -3.158108e+02
   3.083483e+02   1.137841e+02
   5.322560e+01   5.287474e+02
  -2.688029e+02   4.379651e+02
  -4.210948e+02  -6.590522e+01
  -1.448746e+02  -3.783129e+02
   2.617942e+02  -2.635620e+02
   2.830342e+02   2.437476e+02
  -4.383750e+01   4.143584e+02
  -4.872585e+02   1.755412e+02
  -5.517624e+02  -3.134888e+02
  -2.076820e+02  -5.018938e+02
   3.199045e+02  -3.395014e+02
   5.438941e+02   7.186742e+01
   3.665247e+02   3.263054e+02
  -3.862789e+01   3.108891e+02
  -3.118478e+02   1.012167e+02
  -2.871752e+02  -5.174765e+01
  -3.147886e+00  -4.404886e+01
   7.855215e+01   7.073958e+01
  -7.148266e+01   9.494676e+01
  -2.508712e+02  -2.056481e+01
  -1.407551e+02  -2.223515e+02
   1.497005e+02  -2.627747e+02
   3.380779e+02  -1.300148e+02
   2.287925e+02   3.745069e+01
  -1.329688e+01   3.152427e+02
  -2.446015e+02   3.539013e+02
  -3.190286e+02   1.667022e+02
  -2.604583e+02  -1.842262e+02
  -5.993758e+01  -4.165711e+02
   4.651645e+01  -3.247358e+02
   8.068908e+01  -1.228180e+02
   4.402860e+01  -5.728903e+01
   1.118741e+02  -8.167390e+01
   2.243670e+02  -9.484360e+01
   2.210670e+02   8.526032e+01
   1.023603e+02   2.576392e+02
  -7.068077e+01   2.924260e+02
  -2.210138e+02   3.311119e+01
  -2.080944e+02  -2.036764e+02
   1.206866e+01  -2.782962e+02
   2.311376e+02  -1.165397e+02
   3.681914e+02   1.472620e+02
   2.302580e+02   2.620327e+02
  -2.196381e+01   2.804358e+02
  -1.624370e+02   1.731180e+02
  -1.235240e+02   4.818769e+01
  -9.297604e+01   1.499367e+01
  -1.752292e+02   5.432470e+01
  -4.066918e+02  -3.136928e+01
  -3.378964e+02  -2.249671e+02
  -4.299200e+01  -4.142517e+02
   3.067995e+02  -3.965643e+02
   4.281748e+02  -1.590803e+02
   2.415423e+02   1.012164e+02
  -1.275742e+01   2.458640e+02
  -9.030909e+01   2.312113e+02
  -3.358103e+00   1.349894e+01
   8.869599e+01  -4.194733e+01
   1.199812e+02   1.165988e+01
  -1.188501e+01   1.181233e+02
  -9.838875e+01   1.405983e+02
  -9.283164e+01  -5.865562e+01
   1.719168e+01  -1.611398e+02
   1.779725e+02  -1.636482e+01
   1.479759e+02   2.317605e+02
  -5.312800e+00   3.612556e+02
  -2.095024e+02   2.306021e+02
  -3.452543e+02  -2.934711e+01
  -3.130653e+02  -2.745948e+02
  -7.127249e+01  -2.778034e+02
   1.408207e+02  -1.419584e+02
   1.456460e+02  -3.072655e+01
   4.963571e+01   1.079771e+01
  -5.909697e+01  -9.578355e+01
  -6.530785e+00  -1.629497e+02
   1.784383e+02  -6.446857e+01
   1.608450e+02   1.559682e+01
   4.729201e+01   1.230061e+02
  -1.356877e+02   5.389523e+01
  -9.384299e+01  -2.091739e+01
   1.074088e+02  -1.155620e+02
   2.753498e+02  -9.485813e+01
   3.268227e+02   9.724483e+01
   5.943684e+01   2.517163e+02
  -1.497523e+02   2.509446e+02
  -2.305368e+02   1.158445e+02
  -1.790722e+02  -5.614110e+01
  -1.024580e+00  -1.005845e+02
   2.329170e+01  -2.427034e+00
  -2.442777e+01   6.517637e+01
  -1.969396e+02   9.471993e+01
  -2.013616e+02  -1.028113e+02
  -4.282945e+01  -2.395613e+02
   8.116778e+01  -1.352551e+02
   1.805941e+02  -5.891968e+01
   8.804930e+01   3.362441e+01
  -1.970871e+01   1.966038e+01
  -2.616364e+01  -9.946397e+01
   7.663421e+01  -9.837636e+01
   2.446361e+02  -5.495063e+01
   1.894368e+02   1.367784e+02
   3.093610e+01   2.175357e+02
  -1.506563e+02   1.356243e+02
  -1.613562e+02   1.395116e+01
   1.640212e+01  -8.882154e+01
   1.086897e+02  -7.076785e+01
   1.444411e+02   4.106598e+01
   1.378943e+01   8.634192e+01
  -9.435771e+01   6.079042e+01
  -3.636182e+01  -8.383270e+00
   5.116910e+01  -5.324394e-01
   8.839871e+01   1.193142e+02
   5.777575e+00   1.810441e+02
  -1.428365e+02   1.494923e+02
  -2.905929e+02   6.704419e+00
  -2.154721e+02  -1.888157e+02
  -1.024232e+02  -2.600494e+02
   8.326294e+01  -1.959459e+02
   1.292617e+02  -1.231027e+01
   4.676318e+01   3.650284e+01
   4.653705e+01   9.176847e+01
   2.159427e+01  -5.357329e+01
   8.997115e+01  -5.496901e+00
  -7.535151e+00   3.623067e+01
   9.748558e+00   9.652089e+01
  -9.685645e+01   6.153953e+01
  -9.455820e+01   2.074213e-02
   8.851974e+00  -7.604228e+01
   1.497712e+02  -7.950272e+01
   2.018068e+02   8.176809e+01
   8.601366e+01   2.472233e+02
  -1.103817e+02   2.252223e+02
  -2.825976e+02   6.451903e+01
  -2.531415e+02  -1.219008e+02
  -1.217156e+02  -1.780583e+02
   1.643268e+01  -1.378391e+02
   6.454935e+01  -7.925383e+01
   8.207718e+01  -5.738863e+01
   3.768844e+01  -5.208162e+01
   5.354595e+01  -8.892222e+01
   1.458439e+02   1.449894e+01
   1.233743e+02   9.162738e+01
   1.680934e+01   2.245258e+02
  -1.321417e+02   1.401292e+02
  -1.633329e+02  -1.505571e+01
  -1.406439e+02  -1.251668e+02
  -4.815096e+01  -1.777514e+02
   3.798313e+01  -8.558369e+01
   5.055560e+01  -1.470712e+01
   1.616481e+01   4.642924e+01
   2.160993e+00   6.320361e+01
   4.321710e+01   1.367084e+01
   5.038872e+01   3.941443e+01
   1.969317e+01   4.501653e+01
  -9.237863e+01   1.818946e+01
  -1.579228e+02  -2.433143e+01
  -1.294162e+02  -9.474983e+01
  -2.656713e+01  -7.264588e+01
   8.967121e+01  -6.174136e+01
   1.369177e+02   1.104290e-01
   5.561817e+01   4.076389e+01
   1.106260e+01   3.929586e+01
  -7.941243e+01  -8.823356e+00
  -1.902783e+01  -9.207116e+01
   5.778064e+01  -4.768717e+01
   4.274062e+01   9.712344e+00
   4.997641e+01   6.696819e+01
   2.481910e+01   1.324714e+01
   2.953395e+01  -4.812088e+01
   8.843387e+01   8.635972e+00
   3.565520e+01   5.904714e+01
   1.313401e+01   1.554052e+02
  -1.589349e+02   1.277681e+02
  -1.710434e+02   4.173566e+01
  -1.468064e+02  -1.217115e+02
   9.141954e+00  -1.233522e+02
   6.045015e+01  -2.371841e+01
   4.904861e+01  -2.689519e+01
  -1.053565e+02   2.095701e+01
  -1.275594e+02  -7.001815e+01
  -8.118369e+01  -1.112087e+02
   3.715387e+01  -1.076115e+02
   2.007295e+02  -7.325866e+01
   8.968181e+01   1.814312e+01
   3.251821e+01   2.618051e+01
  -1.022442e+02   9.709092e+01
  -4.352801e+01  -2.707443e+01
   4.634730e+01   8.020792e+00
   1.158383e+02   3.946531e+01
   8.474062e+01   1.153049e+02
  -5.154311e+01   1.723348e+02
  -1.112410e+02   5.014130e+01
  -1.114336e+02  -1.166792e+02
  -4.045677e+00  -1.869860e+02
   8.460794e+01  -1.322806e+02
   4.049882e+01   5.821734e+01
   5.565327e+01   1.051118e+02
  -3.023983e+01   9.870596e+01
  -7.236320e+01   1.343107e+01
  -2.619952e+01  -4.253112e+01
  -2.331320e+01   2.438413e+00
  -5.212946e+01  -1.960787e+01
  -3.392804e+01  -2.979255e+00
  -8.739005e+01  -1.078237e+02
  -2.435507e+01  -1.356949e+02
   1.080593e+02  -4.432861e+01
   1.361757e+02   5.856689e+01
   1.045176e+02   8.385587e+01
   1.825361e+01   2.501813e+01
  -1.188740e+02   4.137326e+01
  -9.551321e+01   2.398345e+01
  -3.145687e+01  -5.009388e+00
   3.780641e+01  -5.204365e+01
  -1.589184e+01  -3.299138e+01
  -4.222019e+01  -3.191664e+01
  -3.215735e+00  -2.078525e+00
   6.016450e+01  -8.408716e+00
   9.777916e+01  -3.635757e+00
   5.027288e+01   7.412577e+01
  -9.276536e+01   9.910866e+01
  -1.201876e+02   5.691473e+01
  -1.500566e+02  -5.511254e+00
   4.696718e-02  -1.448167e+02
   5.719009e+01  -1.757031e+02
   1.331897e+02  -1.751391e+01
   4.161179e+01   2.269509e+01
  -7.610033e+00   5.809174e+01
   1.100848e+00   3.425207e+00
   3.901666e+01   2.113555e+01
   1.334254e+01   3.094182e+01
   5.364368e+01   7.399734e+01
   7.343828e+00   4.929858e+01
  -4.656713e+01  -4.653385e+01
  -8.969558e+01  -4.289531e+01
  -4.749038e+00  -1.401631e+02
   9.204102e+01  -6.083398e+01
   1.105643e+02   3.994152e+01
   4.957475e+01   4.950268e+01
  -5.026243e+01   8.551586e-01
  -5.000583e+01  -1.790469e+01
  -6.456839e+01  -4.563336e+01
   3.604568e+01  -5.566443e+01
   9.141641e+00  -6.413214e+01
  -3.471486e+00   1.081445e+01
  -9.763603e+01  -1.109455e+01
  -2.132813e+01  -3.577448e+01
   8.203308e+01  -5.452677e+01
   1.006768e+02  -7.167749e+01
   5.734033e+01   2.397562e+01
  -3.890359e+01   7.021302e+01
  -5.293130e+01   8.830032e+01
  -2.123967e+01   1.340687e+00
   2.032791e+01  -1.330889e+01
   3.263907e+01  -1.975398e+01
   6.992931e+01  -1.642890e+00
  -1.757571e+01   3.340450e+01
  -3.287575e+00   6.872272e+01
  -2.631933e+01  -4.403813e+00
  -2.999559e+00  -2.973026e+01
   6.760453e+00  -1.120633e+01
   2.134496e+00   5.066341e+00
  -3.062024e-01  -1.941981e+01
  -3.539942e+01  -2.786332e+00
   4.338234e+01  -6.979467e+01
   4.688951e+01  -1.873651e+01
   3.741686e+01   5.000045e+01
   1.202278e+01   9.313626e+01
  -5.172997e+01   2.521449e+01
  -7.056061e+01  -1.371783e+00
  -2.488629e+01  -5.520236e+01
   7.993452e+01  -7.386343e+01
   9.834352e+01   1.573036e+01
   3.656724e+01   3.355598e+01
  -3.860349e+01   4.766351e+01
  -4.246709e+01   3.329080e+01
  -1.146948e+01   3.690392e+01
  -2.888222e+01  -2.992388e+01
   1.291980e+01   3.931099e+01
  -2.843844e+01   3.823087e+01
  -6.017680e+01   2.901783e+00
