
 $NMID
 id='ANONYMOUS ', fmtdat='(2E16.6)'
 volume=1.0
 tramp=1.0
 $END
  -3.464047e+03  -3.667344e+01
  -2.152139e+03  -2.111176e+03
  -6.062902e+01  -2.123141e+03
   1.377504e+03  -1.080089e+03
   8.762793e+02   3.685328e+02
  -4.546899e+02   3.412310e+02
  -4.847417e+02  -3.017995e+02
   7.307018e+01  -8.184269e+02
   5.403801e+02  -6.123347e+02
   6.812719e+02   2.485189e+01
   2.903502e+02   6.220316e+02
  -1.230063e+02   6.730588e+02
  -4.749404e+02   2.713087e+02
  -2.941828e+02  -4.696406e+02
   2.477078e+02  -5.576339e+02
   2.740089e+02   6.760130e+01
   1.000856e+02   5.794678e+02
  -2.324189e+01   5.105125e+02
  -3.941859e+02   2.626789e+02
  -2.481190e+02   1.175371e+01
  -5.369542e+01  -5.318260e+02
   3.984901e+01  -2.240562e+02
   8.199481e+01  -6.607174e+01
  -7.280878e+01   1.600638e+02
  -2.936823e+02  -6.610769e+01
   3.629781e+01  -3.064879e+02
   3.382133e+02  -1.818144e+02
   6.349704e+02   1.868382e+02
   4.151288e+02   4.588584e+02
  -2.469633e+02   3.070190e+02
  -5.703552e+02  -1.522073e+02
  -3.121902e+02  -4.609048e+02
   2.169597e+02  -3.546119e+02
   4.705897e+02  -1.271234e+02
   3.530695e+02   1.749897e+02
   1.409899e+02   3.531800e+02
  -1.432265e+02   2.109745e+02
  -3.464764e+01  -2.011316e+02
   1.708218e+02  -1.944694e+02
   2.096353e+02   9.645805e+01
   4.346691e+01   5.716298e+02
  -2.368702e+02   4.956650e+02
  -3.264611e+02   2.425956e+01
  -1.123613e+02  -3.262706e+02
   1.117612e+02  -2.109937e+02
   1.451901e+02   2.658273e+02
  -8.681607e+01   3.851620e+02
  -4.251367e+02   8.241339e+01
  -4.963316e+02  -3.020138e+02
  -1.971292e+02  -4.817651e+02
   2.640191e+02  -2.273238e+02
   4.329019e+02   4.146438e+01
   3.485315e+02   3.051228e+02
  -4.069157e+01   2.320826e+02
  -2.635926e+02   2.159621e+01
  -1.849457e+02  -8.333057e+01
   1.935896e+00  -4.746304e+01
   8.162494e+01   1.420650e+02
  -1.048096e+02   1.676406e+02
  -2.738818e+02  -4.608872e+01
  -1.578555e+02  -1.899180e+02
   7.442470e+01  -2.231742e+02
   3.202372e+02  -1.674950e+02
   2.101583e+02   5.496239e+01
  -1.151481e+02   1.740099e+02
  -3.317562e+02   2.863135e+02
  -4.020182e+02   1.310785e+02
  -2.011187e+02  -1.653926e+02
  -1.886396e+01  -3.974361e+02
   5.651487e+01  -3.346302e+02
   6.997936e+01  -1.434759e+02
   4.112426e+01  -5.155692e+01
   9.188815e+01  -5.880617e+01
   1.893421e+02  -8.451642e+01
   1.561074e+02   9.849792e+01
   1.550964e+02   2.440872e+02
  -4.670660e+01   1.729665e+02
  -1.589913e+02  -4.289990e+01
  -1.017133e+02  -2.303628e+02
   5.945276e+01  -2.309533e+02
   2.319742e+02  -4.229660e+01
   2.522382e+02   1.360822e+02
   9.686674e+01   2.447428e+02
  -2.392827e+01   2.039169e+02
  -1.656602e+02   6.244684e+01
  -1.133172e+02   2.227654e+01
  -1.301177e+02   5.168373e+01
  -2.243240e+02   2.094697e+01
  -3.668971e+02  -8.929288e+01
  -2.350291e+02  -2.856854e+02
   1.620901e+01  -3.383879e+02
   3.721347e+02  -3.093930e+02
   4.957528e+02  -1.274527e+02
   2.929594e+02   9.126337e+01
   9.917226e+00   2.700067e+02
  -1.243333e+02   2.292569e+02
  -3.500673e+01   2.349881e+01
   1.567262e+02  -3.340968e+01
   1.551640e+02  -1.828104e+01
   1.640287e+01   1.675049e+02
  -6.677342e+01   1.661426e+02
  -1.064108e+02  -7.263152e+01
   4.021733e+00  -1.771777e+02
   1.272367e+02  -2.959643e+00
   9.318279e+01   1.897464e+02
   2.458569e+01   3.250517e+02
  -2.098412e+02   2.158828e+02
  -3.284216e+02  -6.773037e+01
  -2.351628e+02  -2.790426e+02
  -7.253812e+01  -2.969473e+02
   8.838736e+01  -1.423564e+02
   1.548080e+02   7.897433e+00
   1.002208e+02   3.753617e-01
  -3.222364e+01  -2.075447e+01
   1.948805e+01  -1.262141e+02
   5.050530e+01  -8.709003e+01
   1.565129e+02  -1.541481e+01
   4.051252e+01   5.569426e+01
  -5.058082e+01  -2.121597e+01
  -7.258541e+01  -7.183135e+01
   1.323024e+02  -1.037524e+02
   2.489096e+02  -1.021314e+01
   2.570233e+02   9.745929e+01
   5.465141e+01   2.300230e+02
  -2.018076e+02   2.428521e+02
  -2.232697e+02   8.405856e+01
  -1.420252e+02  -7.210797e+01
  -5.852508e+01  -1.044677e+02
   1.409944e+01  -2.414736e+00
  -3.065466e+01   1.012363e+02
  -1.319074e+02   7.569132e+00
  -1.835300e+02  -1.324730e+02
  -8.300218e+01  -1.799741e+02
   6.767685e+01  -1.092532e+02
   1.335520e+02  -3.110650e+01
   2.277732e+01   5.336174e+01
  -1.232824e+01  -1.215614e+01
  -3.956356e+01  -8.282591e+01
   1.006753e+02  -1.261197e+02
   2.198087e+02   1.369869e+01
   1.670057e+02   6.864670e+01
   4.343920e+01   1.542511e+02
  -1.240762e+02   1.078611e+02
  -1.377389e+02  -3.857287e+01
  -3.469376e+01  -1.370814e+02
   6.679137e+01  -6.344920e+01
   1.134674e+02  -2.209300e+01
   4.855422e+01   1.484008e+00
  -4.310869e+01  -3.005017e+01
  -8.674051e+00  -9.611266e+00
   8.174251e+01  -7.277336e+00
   1.269975e+02   8.736927e+01
  -5.326496e+00   1.869767e+02
  -1.852632e+02   2.038747e+02
  -2.453098e+02   1.376348e+01
  -2.116545e+02  -1.433754e+02
  -4.713540e+01  -2.424036e+02
   1.177253e+02  -1.874056e+02
   9.799488e+01  -5.280557e+01
   6.618464e+01  -6.087844e+00
   1.047276e+01   2.222674e+01
   3.539585e+01  -2.187888e+00
   1.414059e+02  -3.129493e+01
   1.033544e+02   4.741961e+01
  -7.111295e+00   1.150884e+02
  -1.281362e+02   6.679843e+01
  -1.285150e+02  -3.766652e+01
   4.841597e-01  -9.514180e+01
   1.790398e+02  -1.202220e+02
   1.859031e+02   2.462925e+01
   7.576415e+01   2.091382e+02
  -9.905118e+01   2.104491e+02
  -2.841854e+02   6.434249e+01
  -2.561997e+02  -1.105457e+02
  -1.723394e+02  -2.051414e+02
   1.712913e+01  -1.121932e+02
   1.129084e+02  -7.440111e+01
   5.822918e+01  -4.428413e+01
   6.710560e+01  -9.885716e+01
   4.688223e+01  -1.001519e+02
   8.315780e+01   1.611785e+01
   1.471739e+02   1.705634e+02
   2.930682e+01   2.061831e+02
  -1.061985e+02   1.668400e+02
  -2.083238e+02   2.848106e+01
  -1.212126e+02  -8.746192e+01
   2.508957e+01  -1.339086e+02
   7.767803e+01  -9.835899e+01
   5.107688e+01  -1.112718e+01
  -2.370967e+01   4.457303e+01
  -3.029908e+01   8.056837e+01
   2.552023e+00   3.461657e+01
   8.152567e+01   3.933455e+01
   8.753590e+01   3.950914e+01
  -1.295220e+02   2.580176e+01
  -1.444979e+02   3.337139e+01
  -1.298973e+02  -6.829527e+01
  -4.363367e+00  -1.161327e+02
   7.569267e+01  -1.121422e+02
   9.434985e+01   2.138558e+01
   5.406772e+01   9.063765e+01
  -1.397493e+01   4.780799e+01
  -4.977999e+01  -4.638232e+01
  -2.796058e+01  -7.777735e+01
  -2.279350e+01  -8.606797e+01
   4.853287e+01   3.320989e+00
   3.765955e+01   4.826645e+01
   6.884564e+01   2.266800e+01
   1.004970e+02  -2.984551e+01
   6.552490e+01   3.037832e+01
   9.554110e+01   9.416549e+01
   9.166486e+00   1.208279e+02
  -1.039433e+02   1.839211e+02
  -1.774727e+02   6.458911e+01
  -1.217492e+02  -3.015100e+01
  -3.215455e+00  -8.913722e+01
   6.039039e+01  -7.145166e+01
   7.611964e+01   1.308217e+01
  -3.866670e+01  -3.625560e-02
  -1.112919e+02   2.699003e+00
  -3.305730e+01  -1.174708e+02
   9.097013e+01  -9.322524e+01
   1.367510e+02  -2.339027e+01
   1.430084e+02  -1.189919e+01
   4.167906e+01   3.978748e+01
  -5.604751e+01   5.408656e+01
  -4.684094e+01  -4.497351e+01
   5.691752e+01  -4.603990e+01
   5.861986e+01  -3.544136e+00
   1.016874e+01   9.688802e+01
  -5.927118e+01   1.493735e+02
  -1.477548e+02   5.145295e+01
  -1.298987e+02  -1.228910e+02
  -1.470935e+01  -1.984633e+02
   6.747497e+01  -8.743656e+01
   9.752669e+01   4.125704e+01
   7.900995e+01   1.120438e+02
   1.150858e+01   1.047055e+02
  -5.246378e+01   3.811194e+01
  -2.984844e+01   1.202205e+01
   4.536054e+00   3.211742e+01
  -1.752956e+01   4.227651e+01
  -3.197942e+01  -1.947469e+01
  -1.166787e+02  -8.588978e+01
  -4.569033e+01  -1.013114e+02
   4.333048e+01  -6.389113e+01
   1.324381e+02   7.548344e+00
   8.230656e+01   2.997489e+01
   5.547532e+01   8.485560e+00
  -5.944134e+01   3.095683e+01
  -5.146058e+01  -2.507306e+01
  -2.715174e+01  -5.183115e+00
   1.150992e+01   5.406708e+00
   1.378943e+01  -4.814192e+00
  -4.738578e+00  -9.959662e+00
   1.813735e+01  -5.959850e+00
   9.031530e+01   1.739624e+01
   2.833833e+01   5.491476e+00
   1.526874e+01   9.225870e+01
  -1.191198e+02   1.587492e+02
  -9.183518e+01   7.422087e+01
  -1.515296e+02  -1.858922e+01
  -5.989972e+01  -1.445096e+02
   8.054017e+01  -1.150192e+02
   1.324027e+02  -8.387738e+01
   1.221820e+02   4.767103e+01
   9.410940e+01   9.225375e+01
   1.223117e+01   5.816965e+01
  -2.121118e+01   2.486585e+01
  -6.289116e+00   6.531224e+01
   3.053621e+01   1.219664e+02
  -2.818916e+01   6.224461e+01
  -8.318270e+01   2.658085e+01
  -9.067242e+01  -6.063472e+01
  -5.303886e+01  -1.302836e+02
   6.809583e+01  -2.032624e+01
   7.794469e+01   3.700695e+01
   6.890840e+00   1.142298e+02
  -7.952332e+01   6.727168e+01
  -6.595537e+01  -8.670714e+00
  -6.909786e+01  -5.025951e+01
   3.069647e+01  -4.889380e+01
   8.498027e+01  -3.685387e+01
  -3.355464e+01  -2.283456e+01
  -5.583920e+01  -3.952094e+00
  -3.020882e+01   2.733595e+01
   5.451329e+01  -2.902624e+01
   1.027957e+02  -3.936249e+01
   9.016783e+01  -3.198327e+01
  -1.748093e+01   8.502270e+01
  -6.350310e+01   6.633505e+01
  -7.284766e+01   5.891587e+01
  -2.297665e+01   1.809809e+01
   1.688122e+01  -3.337388e+01
   2.864507e+01  -4.060709e+01
   5.300491e+01   3.415758e+01
  -2.609333e+01  -9.480232e+00
  -3.252716e+01  -3.529942e+01
  -2.055922e+01  -3.157018e+01
   8.680551e+00   1.609096e+01
   4.673644e+01  -1.369266e+01
   5.542675e+01  -1.759785e+01
  -1.196026e+01  -5.544031e+01
   9.810246e+00  -4.954925e+01
   2.097793e+01  -2.245728e+01
   6.679127e-01   3.109445e+01
   3.677858e+01   1.586350e+01
  -2.102016e+01   3.025149e+01
  -7.673898e+01  -3.088557e+01
  -4.940991e+01  -3.814800e+01
   4.558691e+01  -7.890407e+01
   5.270962e+01   1.624718e+01
   3.243388e+01   3.389329e+01
  -1.243758e+01   8.503620e+01
  -7.937645e+01   6.892229e+01
  -2.446688e+00  -3.496245e+00
   4.123787e+01  -1.850964e+01
  -1.614143e+01   2.340342e+01
  -2.151155e+01   9.416054e+00
  -8.976253e+01   6.713133e+01
