
 $NMID
 id='ANONYMOUS ', fmtdat='(2E16.6)'
 volume=1.0
 tramp=1.0
 $END
   3.772068e+03   3.694025e+02
   2.160150e+03   2.074971e+03
   2.492448e+01   2.200162e+03
  -1.233957e+03   1.180379e+03
  -7.841832e+02   1.674443e+02
   1.871713e+02  -1.186832e+02
   4.638226e+02   6.732339e+01
  -3.416391e+00   7.385562e+02
  -5.437421e+02   5.973901e+02
  -7.191621e+02   1.297645e+01
  -3.252609e+02  -5.240233e+02
   1.084063e+02  -6.919449e+02
   2.119198e+02  -1.810941e+01
   1.840853e+02   5.398361e+02
  -1.656847e+02   6.749761e+02
  -2.452796e+02   1.451296e+02
  -2.936103e+02  -4.674083e+02
   1.526403e+02  -8.768548e+02
   4.553726e+02  -2.359333e+02
   4.052997e+02   2.496564e+02
   3.962523e+02   3.390174e+02
  -2.804017e+02   1.766347e+02
  -1.728592e+02   3.446530e+01
   9.218023e+00   1.708122e+01
   3.009071e+02   1.847198e+02
  -2.250138e+01   3.457011e+02
  -4.694983e+02   1.790075e+02
  -7.431579e+02  -1.916964e+02
  -2.316161e+02  -4.688357e+02
   2.437326e+02  -2.066262e+02
   6.655732e+02   9.950397e+01
   2.252923e+02   4.240089e+02
  -2.550116e+02   3.501139e+02
  -4.642495e+02   1.820521e+02
  -4.415057e+02  -1.465682e+02
  -9.185535e+01  -2.982990e+02
   6.679370e+01  -1.497012e+02
   7.759709e+01   1.176454e+02
  -2.084654e+02   2.338451e+02
  -3.617065e+02  -4.419603e+01
  -1.146871e+02  -6.029072e+02
   3.002944e+02  -5.287310e+02
   4.687128e+02   4.153246e+01
   2.550298e+02   4.070725e+02
  -2.072678e+02   2.838918e+02
  -2.669579e+02  -2.369675e+02
   4.598879e+01  -3.760404e+02
   4.729480e+02  -1.073833e+02
   5.590330e+02   4.058271e+02
   1.451116e+02   5.691083e+02
  -4.191257e+02   2.942618e+02
  -6.452643e+02  -1.568640e+02
  -3.500306e+02  -3.660098e+02
   1.421813e+02  -1.997179e+02
   3.555460e+02   1.303545e+01
   1.741537e+02   1.316729e+02
  -4.955441e+01   5.701002e+01
  -9.927224e+01  -1.063555e+02
   9.425142e+01  -1.581978e+02
   2.629748e+02   4.741075e+01
   1.003404e+02   2.150453e+02
  -1.987462e+02   2.982122e+02
  -3.093134e+02   1.685079e+02
  -2.664727e+02  -8.728765e+01
  -3.332722e+01  -2.960180e+02
   2.443797e+02  -4.128077e+02
   3.353286e+02  -2.301097e+02
   2.694318e+02   1.881061e+02
   5.287722e+01   4.312716e+02
  -8.757706e+01   3.605035e+02
  -3.472947e+01   9.312193e+01
   9.710247e+00   5.586015e+01
  -6.986572e+01   1.367895e+02
  -2.806037e+02   1.024476e+02
  -2.946164e+02  -1.278481e+02
  -1.166232e+02  -2.700696e+02
   9.187384e+01  -2.571534e+02
   2.166365e+02   2.579117e+01
   1.803966e+02   2.508269e+02
  -2.911613e+01   2.841739e+02
  -2.550487e+02   1.243968e+02
  -3.653381e+02  -2.031879e+02
  -1.587674e+02  -3.159530e+02
   7.203064e+01  -2.563674e+02
   2.203178e+02  -1.218786e+02
   1.273690e+02  -1.384738e+01
   1.059729e+02  -7.272908e+01
   2.686527e+02  -5.943836e+01
   4.335165e+02   9.725519e+01
   3.141347e+02   2.947658e+02
  -2.398534e+01   4.740595e+02
  -4.143646e+02   3.850617e+02
  -5.394359e+02   1.403915e+02
  -3.058991e+02  -4.208752e+01
  -5.463648e+01  -3.115162e+02
   1.219117e+02  -2.090248e+02
   5.624573e+01  -8.260062e+01
  -7.856355e+01   5.040522e+01
  -1.790410e+02   9.014549e+00
  -4.580548e+01  -1.666761e+02
   1.408489e+02  -8.869332e+01
   1.040857e+02   6.744278e+01
  -5.526719e+01   1.695510e+02
  -1.968618e+02   3.348184e+00
  -1.561613e+02  -2.677210e+02
   7.916036e+01  -3.754839e+02
   2.505148e+02  -1.904819e+02
   2.970559e+02   5.392147e+01
   2.774292e+02   2.789136e+02
   9.437122e+01   3.096667e+02
  -1.161678e+02   1.700119e+02
  -1.083814e+02   1.989269e+01
  -1.112323e+02  -2.859595e+01
   8.619771e+01   3.740141e+01
  -3.886309e+01   1.516500e+02
  -1.548159e+02   4.752170e+01
  -1.617679e+02  -4.487136e+01
  -3.403512e+01  -8.213674e+01
   1.465824e+02   4.491040e+00
   7.515369e+01   3.261269e+01
  -1.727279e+02   7.022238e+01
  -3.069353e+02  -2.767943e+01
  -2.335583e+02  -1.620345e+02
   5.274839e+00  -2.116110e+02
   2.393136e+02  -2.127262e+02
   2.380168e+02  -1.375297e+02
   1.059406e+02   6.661993e+01
  -7.384453e+01   8.180161e+01
  -8.453446e+01   4.248537e+00
   1.027874e+02  -1.304629e+02
   2.145023e+02  -5.335320e+01
   1.905276e+02   1.240759e+02
   7.254386e+01   2.357004e+02
  -1.040818e+02   1.489276e+02
  -1.587562e+02  -3.879749e+01
  -6.163935e+01  -5.090469e+01
   1.275865e-01   1.463184e+01
  -2.731082e+01   1.354381e+02
  -9.440832e+01   1.401867e+02
  -2.096088e+02   2.205287e+01
  -1.728857e+02  -1.708891e+02
  -2.750482e+01  -2.740187e+02
   1.314364e+02  -1.868601e+02
   1.619841e+02  -1.520232e+01
   8.754905e+01   1.294348e+02
  -2.981558e+01   1.608089e+02
  -5.838180e+01   3.373058e+01
  -2.786869e+01  -5.439587e+01
   8.946540e+00  -2.205907e+01
  -2.173168e+01  -5.859113e+01
  -1.196611e+02   4.749936e+00
  -1.015733e+02  -4.208551e+01
  -7.199654e+01  -1.316027e+02
   1.264429e+02  -1.138634e+02
   2.470238e+02  -2.491328e+01
   1.828819e+02   1.340811e+02
   3.097470e+01   1.817292e+02
  -1.264356e+02   1.810217e+02
  -1.728758e+02   3.098234e+01
  -7.869590e+01  -6.211026e+01
  -7.501780e+01  -3.431255e+01
  -5.141911e+01   2.836592e+01
  -3.503212e+01   4.816846e+01
  -2.654188e+01  -2.264028e+01
   9.504546e+00  -4.254146e+01
   9.325706e+01  -1.450641e+02
   5.746722e+01  -2.224373e+01
  -2.688645e+00   6.224133e+01
  -1.262896e+02   4.198023e+01
  -1.661227e+02  -6.794112e+01
  -7.408770e+01  -1.951851e+02
   7.281235e+01  -2.296424e+02
   2.197660e+02  -9.416067e+01
   2.319290e+02   1.047126e+02
   9.132793e+01   1.619494e+02
  -3.016337e+01   1.419832e+02
  -9.737079e+01   1.105380e+02
  -1.227003e+02   7.294114e+01
  -2.042939e+01   9.151735e+01
  -1.134318e+02   1.115304e+01
  -1.699302e+02  -4.405875e+01
  -1.436316e+02  -1.647159e+02
  -2.873760e+01  -2.245885e+02
   1.568844e+02  -1.858931e+02
   1.917320e+02  -2.588418e+01
   1.215809e+02   1.220670e+02
   5.667756e-01   1.687242e+02
  -8.141126e+01   9.239567e+01
  -7.676438e+01  -2.136004e+01
   2.898254e+01  -5.176911e+01
   1.882459e+01  -3.813861e+01
  -4.569375e+01  -5.851114e+01
  -9.388868e+01  -2.047106e+01
  -3.818240e+01   1.937452e+01
   6.291808e+01  -5.301641e+01
   1.607693e+02   2.565782e+01
   1.555765e+02   1.843053e+01
   5.898500e+00   1.085810e+02
  -1.422093e+02   8.758649e+01
  -1.606856e+02   1.257486e+01
  -7.327043e+01   8.264613e+00
   8.603054e+01  -4.909567e+01
   1.302435e+02   2.769507e+01
   4.752154e+01   7.821768e+01
  -9.029681e+01  -2.559366e+01
  -5.017728e+01   1.835432e+01
  -7.571779e+01  -4.019907e+01
  -4.716714e+01  -5.757432e+00
  -7.314358e+01   7.527569e+00
  -5.798606e+01  -7.501044e+00
   7.252546e+00  -6.879179e+01
   5.355103e+01  -1.149693e+02
   1.300761e+02  -1.521908e+02
   1.889665e+02  -6.581738e+01
   1.275128e+02   1.378018e+02
   5.662258e+01   1.173184e+02
  -8.243897e+01   9.252413e+01
  -7.760423e+01  -1.984303e+01
   8.160128e+01  -3.282468e+01
   1.562536e+02   1.098836e+02
   4.602471e+01   1.278198e+02
  -1.244923e+02   9.020579e+01
  -2.459971e+02   6.859778e+01
  -1.283257e+02  -4.913887e+01
  -5.761631e+01  -5.698703e+01
   9.647445e+00  -6.656474e+01
  -1.091987e+00  -8.886834e+01
  -6.244233e+01   1.981048e+01
  -6.890725e+01   1.918358e+01
  -4.510871e+01  -6.114339e+01
   6.623545e+01  -9.045017e+01
   1.700212e+02  -6.255609e+01
   1.078561e+02   5.269707e+01
   5.038998e+01   2.064857e+02
  -9.621111e+01   1.220270e+02
  -1.082601e+02  -5.277761e+01
  -7.643135e+01  -1.449103e+02
   6.365746e+00  -1.018601e+02
   5.481230e+01  -3.835505e+01
   5.239852e+01   1.254240e+01
   5.417979e+01  -2.309118e+01
  -1.351607e+01  -7.807791e+00
   1.310706e+01   3.430586e+01
   1.776399e+01   1.053589e+02
   2.656863e+01   8.117425e+01
  -2.636883e+01   6.478236e+01
  -9.383125e+01  -1.952216e+01
  -1.360256e+02  -7.014923e+01
  -5.950479e+01  -3.349005e+01
   5.612210e+01  -3.868681e+01
   1.151498e+02  -2.013851e+01
   4.242893e+00   4.138904e+01
  -6.871065e+01   2.724521e+01
  -2.609582e+01   4.544784e+01
  -7.828329e+00  -6.993243e+01
   5.308093e-01  -8.051264e+00
  -1.037891e+01  -3.241098e+01
  -1.037152e+02   6.429701e+00
  -2.250234e+01  -6.051710e+01
   6.768304e+01  -8.656926e+01
   1.854504e+02  -2.936505e+01
   1.378382e+02   1.938011e+01
   3.270391e+01   1.193973e+02
  -8.809297e+01   1.260074e+02
  -1.155163e+02   6.305362e+01
  -3.400222e+01  -1.440902e+01
  -3.270536e+01  -2.321460e+01
   3.494589e+01  -1.103770e+01
   3.996083e+00   2.973469e+00
  -1.311538e+01  -3.750488e+01
  -2.240525e+01  -1.303494e+02
   4.069931e+00  -8.297015e+01
   6.286927e+01   2.992474e+01
   8.921770e+01   7.870748e+01
  -7.907298e+00   1.302042e+02
  -6.339089e+01   1.792377e+01
  -8.592649e+01  -8.677961e+01
  -3.750161e+01  -8.082663e+01
   8.272469e+01  -5.149787e+01
   1.280430e+02   2.183909e+01
   8.109052e+01   8.331206e+01
  -3.704714e+01   4.779306e+01
  -5.962646e+01   6.327748e+01
   2.733879e+01  -1.287119e+01
   3.140725e+01   1.699062e+01
   1.969700e+01   3.986126e+01
  -6.134191e+01   4.609807e+01
  -1.318638e+02   3.707496e+01
  -3.455843e+01  -3.805856e+01
   6.615839e+00  -1.249399e+02
   4.539186e+01  -6.619947e+01
  -3.585040e+00  -6.437664e+01
   5.568438e+00   2.718249e+01
   5.267376e+01   8.678382e+01
   2.191893e+01  -2.319744e+01
  -3.842523e+01  -2.259478e+01
  -3.998467e+01  -7.751897e+00
   2.561200e+01   2.708564e+01
   4.177979e+01   4.921563e+01
   4.673560e+01   8.815632e+00
   3.338101e+01  -7.014876e+01
   1.881640e+01   3.036799e+01
  -1.112498e+01   2.920238e+01
  -1.315822e+01   9.754709e+01
   2.783153e+01   1.009364e+01
   4.011953e+01  -4.875007e+01
  -2.259529e+00  -3.846839e+01
   4.294000e+01  -8.650689e+00
   3.621751e+01   1.057595e+02
  -4.250467e+00   9.268779e+01
  -9.572236e+01   2.853141e+01
  -1.356122e+02  -3.926899e+00
  -5.467781e+01  -2.679018e+01
   3.642258e+01  -3.137462e+01
   9.744750e+01   2.113556e+01
   2.521830e+01  -3.669697e+01
   3.263790e+00  -3.453371e+01
  -2.173539e+01  -1.174353e+01
   4.908178e+01  -4.195380e+01
   1.286179e+02  -1.302740e+01
