
 $NMID
 id='ANONYMOUS ', fmtdat='(2E16.6)'
 volume=1.0
 tramp=1.0
 $END
   4.523195e+03   2.553634e+02
   2.466290e+03   2.828030e+03
  -8.757724e+02   2.994803e+03
  -2.399895e+03   1.050916e+03
  -7.199549e+02  -6.126859e+02
   7.888177e+02  -4.905221e+02
   1.073460e+03   3.657507e+02
  -2.339536e+02   1.244194e+03
  -9.548770e+02   8.426040e+02
  -1.138574e+03  -7.718181e+01
  -5.172223e+02  -9.476063e+02
   7.264323e+01  -1.034357e+03
   6.207835e+02  -2.303713e+02
   3.746526e+02   8.048983e+02
  -3.307273e+02   8.593585e+02
  -8.461041e+02  -5.584385e+00
  -2.613292e+02  -7.383687e+02
   4.116989e+02  -5.146353e+02
   6.976408e+02  -5.176079e+01
   4.860168e+02   4.961807e+02
  -1.383487e+02   5.912817e+02
  -1.989101e+02   1.643202e+02
  -1.480804e+02   5.581742e+01
   1.565488e+02  -1.093607e+02
   4.907418e+02   2.847370e+02
   2.426658e+02   4.729130e+02
  -4.055699e+02   4.862302e+02
  -7.112987e+02   4.653753e+01
  -4.020430e+02  -4.497062e+02
   3.514129e+02  -3.170052e+02
   7.286595e+02   2.129633e+01
   5.075745e+02   4.780955e+02
  -2.394580e+02   5.992331e+02
  -6.023961e+02   2.971415e+02
  -4.916675e+02  -2.107700e+02
  -9.457459e+01  -4.387918e+02
   2.942587e+02  -3.538265e+02
   1.445606e+02   1.741944e+02
  -3.207191e+02   4.500521e+02
  -4.492796e+02  -4.856830e+01
  -2.380571e+02  -6.391030e+02
   3.613276e+02  -7.638732e+02
   6.564201e+02  -5.151684e+01
   1.712520e+02   5.216119e+02
  -3.196611e+02   2.997787e+02
  -3.451699e+02  -2.848423e+02
   6.284203e+01  -4.932280e+02
   4.867963e+02  -1.322185e+02
   5.233558e+02   3.699451e+02
   1.033881e+02   5.583504e+02
  -3.850858e+02   2.896387e+02
  -6.174999e+02  -1.054608e+02
  -3.778857e+02  -3.856176e+02
   1.459997e+02  -3.524522e+02
   4.879665e+02   8.964411e+00
   2.255213e+02   2.296484e+02
  -1.845459e+02   1.000883e+02
  -1.486767e+02  -1.205774e+02
   1.701068e+02  -2.257322e+02
   3.242492e+02   5.712381e+01
   1.313123e+02   3.269790e+02
  -2.450530e+02   2.209497e+02
  -2.948007e+02   6.476786e+01
  -9.884099e+01  -1.028558e+02
   5.345324e+01  -2.100309e+02
   2.245505e+02  -2.814101e+02
   3.456898e+02  -1.509390e+02
   3.457733e+02   1.898802e+02
   1.371369e+02   4.910275e+02
  -1.388528e+02   3.888483e+02
  -2.239045e+02   1.021679e+02
  -4.028454e+01   5.487026e+00
  -4.545550e+01   7.761968e+01
  -6.652507e+01   1.720086e+02
  -2.108841e+02  -4.842320e+01
  -2.088884e+02  -2.951295e+02
   1.970622e+01  -2.351457e+02
   2.166988e+02  -1.428654e+01
   1.957556e+02   2.506815e+02
  -9.595462e+01   3.239608e+02
  -2.986879e+02   1.153450e+02
  -3.928781e+02  -1.593212e+02
  -1.607200e+02  -3.999350e+02
   1.530502e+02  -3.646501e+02
   2.323890e+02  -9.569135e+01
   8.597050e+01   3.155511e+01
   6.421787e+01  -3.565945e+01
   1.812490e+02  -6.723682e+01
   4.170641e+02   5.192485e+01
   3.361364e+02   3.126582e+02
  -6.259616e+01   4.450255e+02
  -4.124080e+02   3.306200e+02
  -5.175776e+02   1.362907e+02
  -2.605696e+02  -1.427019e+02
  -5.091385e+01  -2.943963e+02
   8.364284e+01  -2.544187e+02
   8.853599e+01  -3.810770e+01
  -1.562209e+02   8.906281e+01
  -1.704185e+02  -1.363681e+01
   2.442760e+01  -2.258579e+02
   1.262660e+02  -2.063319e+02
   2.108759e+02   9.082801e+01
  -2.668992e+01   2.709745e+02
  -1.504208e+02   7.937548e+01
  -1.351865e+02  -1.838512e+02
   5.757760e+00  -2.908239e+02
   2.308663e+02  -1.609312e+02
   2.638171e+02   1.171266e+02
   1.871666e+02   1.934821e+02
   9.325700e+01   2.409800e+02
  -1.116669e+02   1.042465e+02
  -1.854790e+02   4.394338e+00
  -7.736371e+01  -2.522653e+00
   6.542228e+01   2.783243e+01
   3.881637e+01   1.295581e+02
  -1.923496e+02   5.508197e+01
  -2.414600e+02  -6.211974e+01
  -2.557156e+01  -9.498896e+01
   1.259493e+02  -5.117482e+01
   8.731154e+01   2.227790e+00
  -1.134603e+02   6.424012e+01
  -2.369254e+02   1.496773e+01
  -2.522416e+02  -1.038918e+02
  -6.716334e+01  -2.104821e+02
   1.347743e+02  -2.716033e+02
   2.522683e+02  -1.483152e+02
   1.723317e+02   1.758262e+01
  -2.447738e+01   1.109449e+02
  -7.287178e+01   3.013004e+01
   1.883370e+01  -1.202383e+02
   1.653757e+02  -6.285511e+01
   2.509777e+02   9.752587e+01
   5.908479e+01   2.954318e+02
  -1.051883e+02   1.705940e+02
  -1.393987e+02  -1.707256e+01
  -1.082023e+02  -8.883948e+01
   7.645187e+00   6.647917e+00
   1.261288e+01   7.876996e+01
  -8.127170e+01   1.125319e+02
  -1.711193e+02   4.628120e+01
  -1.709403e+02  -1.635480e+02
  -5.556064e+01  -2.363769e+02
   1.491269e+02  -1.644778e+02
   1.376366e+02  -6.482465e+00
   6.972041e+01   6.662299e+01
  -5.763894e+01   7.207661e+01
  -5.662407e+01  -6.645879e+00
   2.216375e+00  -8.152098e+00
   2.658321e+01  -3.185509e+01
   2.805780e+01  -1.416105e+01
  -4.147767e+01  -2.635086e+01
  -9.007703e+01  -9.735172e+01
  -3.635834e+01  -7.285303e+01
   1.299435e+02  -1.221863e+02
   2.262590e+02  -4.644971e+01
   2.147885e+02   1.465655e+02
   5.948746e+01   2.141952e+02
  -1.164756e+02   1.615792e+02
  -1.753330e+02   4.951706e+00
  -2.208525e+01  -9.618852e+01
  -2.426491e+01  -5.608987e+01
  -8.418267e+01  -6.213045e+00
  -2.924811e+01  -1.949774e+01
  -1.076024e+01  -5.167359e+01
   5.787641e+01  -6.321750e+01
   6.095495e+01  -4.974167e+01
   6.705572e+01   2.093675e+01
   1.354194e+01   9.676923e+01
  -6.911295e+01   9.367846e+01
  -1.436910e+02  -3.080992e+01
  -3.206147e+01  -1.730335e+02
   1.218768e+02  -1.981820e+02
   2.484402e+02  -6.759534e+01
   2.314912e+02   6.129503e+01
   1.242151e+02   1.710538e+02
  -6.946200e+01   1.129122e+02
  -8.299268e+01   1.065075e+02
  -7.936494e+01   1.074671e+02
  -6.078112e+01   7.653755e+01
  -1.135154e+02   6.953113e+01
  -1.034111e+02  -1.871602e+01
  -1.029542e+02  -1.327290e+02
  -2.278277e+01  -1.743377e+02
   6.085908e+01  -1.970403e+02
   2.112092e+02  -3.183376e+01
   9.138838e+01   1.157513e+02
   4.535396e+00   1.602381e+02
  -6.505058e+01   3.521257e+01
  -6.051497e+01  -4.833907e+01
   1.281783e+01  -6.602195e+01
   2.271364e+01  -5.298176e+00
  -4.017980e+01  -5.426317e+00
  -5.459765e+01   3.572890e+01
  -1.193299e+01  -3.572005e+00
   9.818895e+01  -8.568051e+00
   8.350360e+01   3.753047e+01
   7.514102e+01   4.943238e+01
  -4.823179e+00   7.682163e+01
  -7.278842e+01   1.369735e+01
  -1.027369e+02  -1.669806e+01
  -3.620691e+01  -8.354278e+01
   9.246787e+00  -4.314497e+00
   1.055916e+02   6.315341e+01
   1.297522e+01   7.238479e+01
  -6.159723e+01   5.452707e+01
  -6.918127e+01   1.708996e+00
  -4.661314e+01  -6.868522e+01
  -3.438047e+01  -4.302215e+01
  -3.736181e+00   1.255219e+01
  -2.611628e+01   7.499637e+00
  -3.333697e+01  -6.735691e+01
   3.170396e+01  -1.284437e+02
   1.071131e+02  -1.297460e+02
   1.223961e+02  -2.804054e+01
   1.239367e+02   5.161360e+01
   8.307133e+00   1.075587e+02
  -1.182877e+02   5.388177e+01
  -9.667603e+01  -6.627158e+00
   7.457529e+01  -1.920218e+01
   1.720284e+02   4.974786e+01
   6.821382e+01   1.317063e+02
  -4.233188e+01   9.184492e+01
  -1.350832e+02   3.355766e+01
  -1.096199e+02   2.049980e+00
  -4.516282e+01  -3.281289e+01
   4.017120e+01  -7.426788e+01
   2.014704e+01   3.345781e+01
  -5.952442e+01   7.496234e+00
  -1.135767e+02  -3.572364e+01
  -2.006728e+01  -9.426382e+01
   1.562295e+02  -1.289307e+02
   1.167199e+02  -5.810047e+01
   1.022726e+02   1.375524e+02
   3.326097e+01   1.890583e+02
  -7.454761e+01   1.318675e+02
  -8.524928e+01  -2.186236e+01
  -6.716131e+01  -1.125617e+02
   2.261989e+01  -9.811406e+01
   8.072878e+01   3.560972e+00
   5.365849e+01   4.389640e+01
   4.267806e+00   8.438720e+01
  -2.143482e+01   1.107889e+01
   1.434620e+01   3.283814e+01
   5.155686e+01   8.571715e+01
   2.201543e+01   1.157206e+02
  -7.258272e+01   4.004962e+01
  -1.163390e+02  -5.798272e+01
  -1.561052e+02  -1.176550e+02
  -2.603387e+01  -9.146118e+01
   1.330948e+02  -2.321833e+01
   1.194357e+02   4.108388e+01
   1.122778e+00   4.243518e+01
  -3.960615e+01  -1.197482e+01
  -5.503047e+00   2.649100e+01
   3.049769e+01   1.931199e+01
  -1.666141e+01   1.781371e+01
  -1.092105e+02  -5.375196e+01
  -7.764534e+01  -4.189808e+00
   1.158783e+01  -7.850660e+01
   8.063209e+01  -1.173668e+02
   2.268782e+02  -3.244121e+01
   1.416818e+02   5.057119e+01
   2.452484e+01   1.417305e+02
  -5.980540e+01   1.452561e+02
  -1.122436e+02   4.309432e+01
  -7.830767e+01   1.309633e+01
  -4.695831e+01  -3.991618e+01
  -3.568934e+01  -2.056216e+01
   6.045313e+00   4.857230e+01
  -2.256081e+01  -8.508592e+00
  -2.992753e+00  -4.261629e+01
  -9.117934e+00  -7.152822e+01
   3.683446e+01   3.562909e+01
   5.870601e+01   1.105618e+02
   8.821914e+00   6.602994e+01
  -1.124848e+02   9.750297e+00
  -8.526877e+01  -9.728778e+01
  -3.688837e+01  -1.056206e+02
   5.289811e+01  -1.864686e+01
   9.969184e+01  -3.873515e+00
   4.430228e+01   2.525364e+01
  -1.986220e+01   8.574150e+01
   1.905252e+01   7.396723e+01
   5.058491e+01   5.867099e+01
   7.249316e+01   7.467472e+00
   6.336161e-01   3.505340e+01
  -3.890443e+01   4.347795e+01
  -1.151971e+02   5.400343e+01
  -6.003168e+01   4.710901e-01
   4.940493e+01  -1.005787e+02
   6.609156e+01  -3.444929e+01
   1.802378e+01   4.220471e+01
  -1.455016e+01   1.171310e+01
  -2.011322e+01   2.698526e+01
  -1.059481e+01  -1.884715e+01
  -2.917653e+01  -2.776480e+01
  -2.144676e+00   4.012528e+00
   4.164276e+01   7.085892e+01
   2.754891e-02   5.902163e+01
   6.265844e+00   3.533761e+01
  -4.415689e+01  -6.560695e+01
  -1.954154e+01  -1.407158e+01
  -3.091519e+00   7.499396e+01
  -1.491434e+01   6.311098e+01
  -6.811874e+01  -2.135901e+01
  -7.796408e+01  -1.271454e+01
   1.460525e+01  -2.500968e+01
   2.955117e+01  -8.366841e+00
   8.367035e+01   4.916267e+01
   1.909430e+01   7.356744e+01
  -6.632140e+01   3.514651e+01
  -1.049440e+02  -5.857277e+01
  -5.793075e+01  -6.951839e+01
   5.607016e+01  -2.821809e+01
   1.048401e+02  -1.473669e+01
   3.164714e+01   1.457505e+01
  -6.023844e+01  -5.306720e+00
  -4.501186e+01  -4.886877e+01
  -7.537613e+00  -9.426202e+00
   7.418217e+01  -1.326763e+01
