
 $NMID
 id='ANONYMOUS ', fmtdat='(2E16.6)'
 volume=1.0
 tramp=1.0
 $END
  -4.581552e+03  -3.132947e+02
  -2.807708e+03  -2.829090e+03
   6.856007e+02  -3.217359e+03
   2.138428e+03  -1.187704e+03
   9.852724e+02   7.512520e+02
  -6.243260e+02   4.662776e+02
  -8.156819e+02  -4.199057e+02
   1.757320e+02  -1.247066e+03
   9.655157e+02  -8.373069e+02
   1.129707e+03   1.159288e+02
   5.937440e+02   1.012903e+03
  -2.117260e+02   9.721086e+02
  -6.861211e+02   1.767753e+02
  -4.433884e+02  -9.190281e+02
   1.611280e+02  -7.230457e+02
   5.365288e+02   5.052922e+00
   2.162221e+02   7.843958e+02
  -5.250977e+02   5.873342e+02
  -5.818550e+02  -4.302995e-01
  -4.250959e+02  -6.139865e+02
  -2.523131e+01  -4.655594e+02
   1.859237e+02  -2.691310e+02
   2.946807e+02  -4.701622e+01
  -1.920904e+02   4.836746e+01
  -4.019690e+02   6.054409e+00
  -2.484872e+02  -5.621596e+02
   3.842506e+02  -4.142117e+02
   8.865658e+02   7.176611e+01
   4.952884e+02   4.692974e+02
  -3.537396e+02   6.736839e+02
  -7.276897e+02   1.987546e+01
  -4.989984e+02  -5.542523e+02
   2.062652e+02  -5.051427e+02
   6.640244e+02  -2.003894e+02
   4.320319e+02   2.589604e+02
   1.160106e+02   6.095405e+02
  -2.527248e+02   2.582210e+02
  -2.586595e+02  -2.292872e+02
   1.490784e+02  -3.950984e+02
   4.929942e+02  -2.808889e+01
   2.272142e+02   7.257079e+02
  -3.382313e+02   6.582412e+02
  -6.509698e+02  -1.643619e+01
  -2.889792e+02  -6.073928e+02
   3.777511e+02  -3.298687e+02
   4.729802e+02   3.667697e+02
  -6.717635e+01   5.825498e+02
  -5.822103e+02   1.782166e+02
  -5.864313e+02  -3.987736e+02
  -1.748460e+02  -6.335806e+02
   4.234003e+02  -3.784180e+02
   6.427790e+02   7.904259e+01
   3.999650e+02   4.423466e+02
  -1.499121e+02   4.462810e+02
  -4.718144e+02   8.492603e+01
  -2.235968e+02  -2.250233e+02
   1.252482e+02  -1.190543e+02
   9.526938e+01   1.386509e+02
  -1.709196e+02   1.834608e+02
  -3.131327e+02  -8.450537e+01
  -1.094226e+02  -2.971069e+02
   2.626936e+02  -2.289876e+02
   3.307069e+02  -5.617953e+00
   1.979703e+02   7.823531e+01
  -4.200084e+00   2.235441e+02
  -2.288002e+02   3.599468e+02
  -4.290419e+02   2.247208e+02
  -3.530116e+02  -1.101674e+02
  -9.024976e+01  -4.677482e+02
   1.481639e+02  -4.253252e+02
   1.434019e+02  -1.141366e+02
   1.699104e+01   9.278729e+00
   2.874748e+01  -4.539107e+01
   2.311599e+02  -1.272481e+02
   2.689952e+02   6.205913e+01
   1.224887e+02   2.767785e+02
  -8.081173e+01   2.902362e+02
  -2.450112e+02   7.184485e+01
  -2.043485e+02  -2.063821e+02
  -1.484990e+01  -3.332029e+02
   2.547168e+02  -2.015600e+02
   3.418560e+02   1.531530e+02
   2.124588e+02   4.374590e+02
  -1.659624e+02   3.240617e+02
  -3.224801e+02   9.139373e+01
  -1.521616e+02  -6.826445e+01
  -1.487255e+01  -5.747185e+01
  -1.915823e+02   9.037848e+01
  -3.473142e+02  -1.371669e+01
  -3.771040e+02  -2.787545e+02
   9.333918e-01  -4.417703e+02
   4.095868e+02  -3.903689e+02
   5.524733e+02  -1.373494e+02
   3.946100e+02   1.430891e+02
   2.866738e+01   2.873153e+02
  -2.043289e+02   2.285295e+02
  -8.905563e+01   3.552592e+01
   1.594215e+02  -5.485396e+01
   2.088148e+02   1.531116e+01
   2.878902e+01   1.602003e+02
  -2.322232e+02   1.421763e+02
  -1.963982e+02  -5.173244e+01
   7.308524e+01  -2.394967e+02
   2.272915e+02   2.172227e+00
   2.586585e+02   2.648732e+02
  -3.631014e+01   4.081659e+02
  -2.605128e+02   2.678440e+02
  -3.580589e+02  -5.049958e+01
  -2.728886e+02  -2.341886e+02
  -1.017223e+02  -2.441358e+02
   1.149429e+02  -1.892432e+02
   1.971339e+02   6.678211e+00
   7.591054e+01   5.367142e+01
  -1.037092e+02  -3.925438e+01
  -2.983655e+01  -1.003940e+02
   1.447615e+02  -7.823538e+01
   1.887231e+02   3.571983e+01
   2.958536e+01   8.747202e+01
  -1.013518e+02  -3.208517e+01
  -8.988255e+01  -7.654922e+01
   1.512582e+02  -4.832580e+01
   2.694577e+02   3.614990e+00
   3.140778e+02   1.691918e+02
   1.108877e+02   2.335732e+02
  -1.694247e+02   2.789982e+02
  -3.348982e+02   1.374904e+02
  -1.640971e+02   1.781339e+00
   2.454143e+01  -9.756816e+01
   8.391020e+01   1.873767e+01
  -8.622387e+01   1.060892e+02
  -1.834490e+02   7.614923e+01
  -2.191093e+02  -1.220567e+02
  -5.478011e+01  -1.956855e+02
   1.136739e+02  -1.076252e+02
   1.227072e+02  -2.162727e+01
   5.353483e+01   5.754871e+01
  -7.137333e+00  -4.574437e+01
  -8.548550e+00  -7.347283e+01
   7.987373e+01  -9.613723e+01
   1.779821e+02  -1.690921e+01
   1.887061e+02   9.696266e+01
  -7.378927e+00   2.030157e+02
  -1.880542e+02   1.599330e+02
  -2.190369e+02  -1.764100e+01
  -6.157107e+01  -1.788274e+02
   1.049158e+02  -5.646216e+01
   1.088031e+02   1.896911e+01
   2.504807e+01   2.921283e+01
  -1.815123e+01  -2.135549e+01
   4.087649e+01  -2.798890e+01
   4.855114e+01   1.677036e+01
   7.188618e+01   1.421435e+02
   1.475717e+01   1.163250e+02
  -1.769189e+02   1.543031e+02
  -2.453375e+02  -4.185048e+00
  -2.038020e+02  -1.817772e+02
  -2.614055e+01  -2.830053e+02
   1.058397e+02  -1.248739e+02
   1.208350e+02   5.967131e+00
   4.537010e+01   6.923730e+01
   4.800522e+01  -1.960847e+01
   4.057276e+01   5.369726e+00
   9.675663e+01  -3.505018e+01
  -3.700940e+00   4.346855e+01
  -6.521636e+01   1.336926e+02
  -8.264423e+01   5.812156e+01
  -9.148802e+01  -8.777635e+01
  -3.642413e+00  -1.184714e+02
   1.326030e+02  -7.372902e+01
   1.962240e+02   3.172859e+01
   8.398408e+01   1.963215e+02
  -1.585828e+02   1.972589e+02
  -3.226228e+02   1.105356e+02
  -2.703983e+02  -1.345127e+02
  -1.123073e+02  -2.082297e+02
   5.713708e+01  -1.469176e+02
   2.734020e+01  -1.341366e+02
   8.373907e+01  -9.738617e+01
   6.162002e+01  -1.006618e+02
   9.012391e+01  -7.705084e+01
   1.117378e+02   7.460381e+01
   9.774499e+01   9.473541e+01
  -1.312098e+01   2.384952e+02
  -1.047876e+02   2.234898e+02
  -1.828514e+02  -2.217932e+01
  -1.601698e+02  -1.304403e+02
  -2.885328e+01  -1.444410e+02
   9.976061e+01  -7.919364e+01
   9.123823e+01   3.165170e+01
  -1.451108e+01   4.256300e+01
   2.990518e+00   7.670458e+01
   3.439485e+01   3.719753e+01
  -8.682384e+00   1.817765e+01
   1.621426e+01   3.723665e+01
  -9.000253e+01   5.229724e+01
  -1.631460e+02   3.929495e+01
  -1.970771e+02   1.213485e+01
  -3.297460e+01  -7.388717e+01
   1.341790e+02  -9.333523e+01
   1.587075e+02  -9.189112e+00
   2.860913e+01   2.988077e+01
  -2.420368e+01   4.294871e+01
  -6.530036e+01  -3.439779e+01
   7.531965e+00  -9.758862e+00
   6.202819e+01  -8.552435e+01
   8.272469e+01  -3.616629e+00
  -1.588518e+01   3.437401e+01
   6.181405e+00   3.109547e+01
   3.085311e+01  -2.455014e+01
   1.064764e+02  -3.334433e+00
   8.747579e+01   6.797130e+01
  -1.689038e+01   1.558548e+02
  -9.456640e+01   1.216154e+02
  -1.348275e+02   4.530431e+01
  -8.727203e+01  -7.742703e+01
   2.557899e+01  -1.232092e+02
   5.287280e+01  -6.917134e+01
   7.733308e+01   3.484527e+01
  -5.497177e+01   1.938423e+01
  -9.797659e+01  -2.910551e+01
  -1.088490e+02  -1.785132e+02
   8.224673e+01  -1.105600e+02
   1.769334e+02  -2.129938e+01
   1.630682e+02  -8.191513e-02
   6.657130e+01   5.115742e+01
  -6.777108e+01   4.623229e+01
  -4.419978e+01   8.443865e+00
   5.333897e+01  -1.906575e+01
   1.259525e+02   6.204281e+01
   6.994536e+01   1.057909e+02
  -1.211135e+02   1.589038e+02
  -1.530966e+02   1.602895e+01
  -5.089815e+01  -1.154014e+02
   4.594774e+01  -2.315505e+02
   1.011631e+02  -1.602021e+02
   1.186839e+02   3.664990e+01
   9.007957e+01   1.519651e+02
   1.081338e+01   1.082904e+02
  -6.684584e+00   2.335359e+01
  -1.083649e+01  -5.773468e+01
   2.032614e+01   6.533650e+01
  -2.010904e+00   4.021411e+01
  -4.859546e+01  -2.088552e+01
  -9.025255e+01  -9.445104e+01
  -2.635153e+01  -7.253502e+01
   2.834717e+01  -4.478381e+01
   1.411983e+02   6.544901e+01
   1.094922e+02   4.692513e+01
  -2.524498e+01   3.712788e+01
  -1.228998e+02   8.373569e+00
  -9.468937e+01   4.517049e+00
   1.956153e+01  -3.504039e+00
   5.467846e+01   4.070506e+00
  -1.525883e+01  -4.071603e+01
  -2.837839e+01   7.194743e+00
   2.880388e+00   2.723871e+00
   8.118956e+01   8.360801e+00
   8.670748e+01   1.014736e+01
  -6.987546e+00   7.417349e+01
  -1.044676e+02   1.000807e+02
  -1.987232e+02   3.069831e+01
  -1.388947e+02  -9.142844e+01
  -2.545960e+01  -1.609453e+02
   7.768993e+01  -9.224857e+01
   8.743426e+01  -5.408828e+01
   9.342460e+01   1.716471e+01
   2.946205e+01   6.083650e+01
   2.221244e-01   6.954750e+00
   1.809704e+01  -9.110942e+00
   6.147813e+01   7.197093e+01
  -2.043799e+01   1.083815e+02
  -6.615382e+01   8.565646e+01
  -8.196792e+01  -1.932755e+01
  -4.949830e+01  -1.155766e+02
   1.893010e+01  -1.168727e+02
   7.504841e+01  -4.250009e+01
   1.021711e+02   6.179171e+01
   2.690524e+01   1.067779e+02
  -8.131372e+01   7.298255e-01
  -4.799832e+01  -2.602479e+01
  -1.639804e+01  -8.235166e+01
   7.555932e+01  -4.285971e+01
   4.562990e+01   3.604028e+01
  -3.671772e+01  -2.523735e+01
  -8.507300e+01   3.119525e+01
  -3.620993e+01  -1.732548e+01
   1.006718e+02  -7.977684e+01
   1.370068e+02  -3.793001e+01
   6.661258e+01   3.756440e+01
  -3.204832e+01   5.202148e+01
  -5.916824e+01   7.872824e+01
  -5.206385e+01  -3.711615e+01
   4.641969e+01  -6.072767e+01
  -8.211353e-01  -1.720582e+01
   4.134526e+01   5.785899e+01
   4.250812e+01   7.924529e+01
   5.033875e+00   3.307921e+01
  -5.546829e+01  -6.643617e+00
  -2.309252e+00  -4.178888e+01
  -4.034920e+01  -9.441792e+00
  -4.072553e+00   1.075043e+01
   4.041056e+00  -1.698111e+01
  -1.693724e+01  -7.269932e+01
  -8.339239e+00  -2.821466e+01
   6.108558e+01   3.236830e+00
   4.147975e+01   4.437122e+01
   1.808572e+01   1.681443e+01
  -5.943315e+01   2.768280e+01
  -7.350926e+01  -9.779194e+01
  -1.308539e+01  -5.309434e+01
   5.864803e+01  -3.346550e+01
   8.249471e+01  -2.706805e+00
   7.737278e+01   3.168130e+01
  -7.517924e+01   2.550568e+01
  -8.487434e+01   2.370454e+01
  -6.399912e+01   5.039654e+00
   2.730097e+01  -1.503219e+01
   5.904342e+01  -2.199246e+01
   2.508833e+00   4.210891e+01
  -9.097412e+01   1.142518e+01
