
 $NMID
 id='ANONYMOUS ', fmtdat='(2E16.6)'
 volume=1.0
 tramp=1.0
 $END
  -3.469369e+03  -1.883168e+02
  -2.185985e+03  -2.066560e+03
   4.519869e+02  -2.342575e+03
   1.769045e+03  -9.279580e+02
   9.133653e+02   6.455553e+00
  -3.776961e+02   4.121520e+02
  -6.520589e+02  -1.355376e+02
  -2.703988e+01  -8.975196e+02
   7.147645e+02  -5.336677e+02
   7.078149e+02  -6.444377e+01
   3.654348e+02   7.299410e+02
  -2.093762e+02   6.477893e+02
  -4.859055e+02   1.228006e+02
  -2.642357e+02  -5.417084e+02
   2.637310e+02  -5.996512e+02
   5.306311e+02  -5.691957e+01
   1.650709e+02   6.603317e+02
  -2.055719e+02   3.977132e+02
  -4.112527e+02   1.688865e+02
  -5.927800e+02  -1.802417e+02
  -6.321442e+01  -4.355760e+02
   1.353879e+02  -3.311405e+02
   1.536848e+02  -2.096323e+01
  -2.087000e+02   1.926638e+01
  -3.014159e+02  -2.098205e+02
  -9.298232e+01  -3.332319e+02
   4.974038e+02  -1.928456e+02
   8.200964e+02   1.951817e+02
   3.092381e+02   4.976556e+02
  -4.668182e+02   2.802778e+02
  -7.754211e+02   2.045654e+01
  -2.965971e+02  -3.900608e+02
   3.049632e+02  -5.044234e+02
   4.958284e+02  -2.548757e+02
   3.025386e+02   2.592023e+02
   1.470498e+01   4.454664e+02
  -1.506060e+02   2.299985e+02
  -6.104480e+01  -2.011770e+02
   2.064725e+02  -4.183917e+02
   3.051290e+02   7.993428e+01
   9.013097e+01   5.817251e+02
  -2.738932e+02   5.767605e+02
  -4.424780e+02   6.769228e+01
  -1.652768e+02  -4.123073e+02
   1.646499e+02  -2.630911e+02
   2.816759e+02   2.336893e+02
  -7.428066e+01   5.052152e+02
  -4.710022e+02   1.248509e+02
  -5.689495e+02  -3.430946e+02
  -1.868772e+02  -5.063656e+02
   3.787546e+02  -3.087578e+02
   6.285867e+02   2.182387e+01
   3.419259e+02   3.159660e+02
  -1.519096e+02   3.164744e+02
  -4.340201e+02   1.251236e+02
  -2.793236e+02  -5.896197e+01
   6.955166e+01  -1.052632e+02
   1.034778e+02   1.266802e+01
  -1.001221e+02   9.053234e+01
  -1.780069e+02  -5.828345e+01
  -9.489414e+01  -1.871015e+02
   1.592313e+02  -1.853359e+02
   2.647227e+02  -1.342601e+02
   2.042032e+02   9.081589e+01
   2.490860e+01   2.832613e+02
  -1.974647e+02   3.718809e+02
  -3.837450e+02   2.177704e+02
  -3.012748e+02  -1.775229e+02
  -8.329929e+01  -4.759162e+02
   5.580924e+01  -4.049552e+02
   1.259905e+02  -1.391611e+02
   6.162443e+01  -2.958398e+01
   1.025143e+02  -1.206108e+02
   2.107462e+02  -1.362099e+02
   2.408502e+02   9.376241e+01
   7.295451e+01   2.767329e+02
  -6.887794e+01   1.983559e+02
  -1.888176e+02  -8.263085e+01
  -1.723367e+02  -3.261726e+02
   8.198133e+01  -2.681714e+02
   3.001768e+02  -3.988072e+01
   3.502243e+02   1.931945e+02
   1.915315e+02   2.994837e+02
  -7.577690e+01   2.320530e+02
  -1.980269e+02   1.595817e+02
  -1.380990e+02   1.161199e+02
  -1.693077e+02   1.355308e+02
  -2.678724e+02   5.786781e+01
  -3.982084e+02  -1.187856e+02
  -3.605932e+02  -3.383827e+02
   1.997928e+01  -4.504562e+02
   4.213987e+02  -3.880971e+02
   5.406863e+02  -1.954003e+02
   3.499146e+02   6.176706e+01
   5.239919e+01   3.235133e+02
  -1.199084e+02   2.797888e+02
  -2.981481e+01   4.193500e+00
   1.481322e+02  -8.479959e+01
   1.576315e+02   3.625514e+01
   9.160659e+00   1.510527e+02
  -1.319121e+02   1.418216e+02
  -9.436473e+01  -9.823834e+01
   4.773280e+01  -1.806781e+02
   1.653496e+02   2.664641e+01
   1.389352e+02   2.816754e+02
  -5.119006e+01   3.376505e+02
  -1.905636e+02   1.928165e+02
  -2.979431e+02  -4.498936e+01
  -2.581492e+02  -1.876105e+02
  -1.459093e+02  -2.440988e+02
   5.368180e+01  -1.686628e+02
   1.997094e+02  -4.799015e+01
   8.045842e+01  -2.908404e+00
  -4.138445e+01  -2.395140e+01
  -1.201651e+01  -8.352725e+01
   1.011864e+02  -3.198562e+01
   1.188750e+02   2.742833e+01
   3.022450e+01  -1.466172e+01
  -1.235741e+02  -5.020860e+01
  -2.463481e+01  -5.609727e+01
   1.993152e+02  -6.510886e+01
   3.036186e+02   7.697442e-01
   2.607411e+02   1.643813e+02
   2.271859e+01   2.367188e+02
  -1.764747e+02   2.304961e+02
  -2.295269e+02   1.298533e+02
  -1.204989e+02  -4.703547e+01
   3.128447e+01  -1.246868e+02
   3.511853e+01   3.646006e+01
  -4.908857e+01   1.302757e+02
  -1.818619e+02   2.970775e+01
  -1.675156e+02  -1.240636e+02
  -1.738066e+01  -1.570551e+02
   5.897689e+01  -1.545385e+02
   3.785827e+01   2.821673e+01
   3.562602e+01  -8.965707e+00
  -5.020037e+01  -7.144920e+01
  -4.072838e+01  -1.370701e+02
   9.816081e+01  -1.569915e+02
   2.113700e+02  -5.059709e+01
   2.074187e+02   1.287264e+02
   7.268724e+01   1.694515e+02
  -1.631334e+02   2.140094e+02
  -1.932252e+02   2.982977e+01
  -6.475128e+01  -1.447634e+02
   9.536028e+01  -1.091954e+02
   8.124405e+01  -3.413265e+01
   4.187018e+01  -5.736580e+00
  -5.050619e+01   7.817409e+00
  -6.464794e+00  -2.831583e+01
   9.486332e+01   2.260377e+01
   1.404369e+02   1.128229e+02
   1.627116e+00   1.390788e+02
  -1.013372e+02   1.749643e+02
  -2.283665e+02   6.667444e+01
  -2.208100e+02  -1.383470e+02
  -4.902779e+01  -2.182960e+02
   1.070640e+02  -1.580780e+02
   1.164773e+02  -3.133754e+01
   7.099805e+01   4.536657e+01
   7.367993e+01   2.834881e+01
   8.730449e+01  -3.940829e+01
   3.863739e+01   1.033298e+01
  -2.036295e+00   5.739915e+01
  -2.498121e+01   7.394710e+01
  -8.660920e+01   3.985974e+01
  -8.990984e+01  -3.997860e+01
   5.083381e+01  -1.862406e+02
   1.572957e+02  -1.000277e+02
   2.585732e+02   3.160229e+01
   1.124375e+02   2.065484e+02
  -1.714625e+02   2.512744e+02
  -3.195031e+02   6.050608e+01
  -2.794774e+02  -7.330078e+01
  -8.150376e+01  -1.812815e+02
   5.595156e+01  -2.210590e+02
   1.320574e+02  -8.879213e+01
   1.131685e+02  -6.888118e+01
   6.962182e+01  -1.063214e+02
   1.146164e+02  -5.059126e+01
   1.469448e+02   4.241456e+01
   1.832709e+02   1.871407e+02
   3.821817e+01   2.521197e+02
  -1.067245e+02   1.976315e+02
  -1.835877e+02  -1.324358e+01
  -1.339080e+02  -1.282137e+02
  -1.474575e+01  -1.888710e+02
   8.955517e+01  -4.381061e+01
   1.553908e+02   4.657428e+01
   2.317754e+01   8.890609e+01
  -1.745746e+01   1.384780e+02
  -2.875290e+01  -1.459068e+00
   3.315225e+01  -1.662161e+01
   1.086557e+02   3.813558e+01
  -5.119068e+01   2.595740e+01
  -1.216478e+02   2.282169e+01
  -1.532289e+02  -1.322123e+01
  -5.338001e+01  -5.176580e+01
   9.368471e+01  -9.751622e+01
   1.295994e+02  -3.287373e+01
   4.579363e+01   1.035995e+02
  -2.741702e+01   4.183911e+01
  -1.132102e+02   6.418673e-01
  -3.756091e+01  -8.238504e+01
   5.723418e+01  -5.711592e+01
   6.590301e+01   3.102283e+01
   2.830907e+01   3.246948e+01
   3.585592e+01   7.325437e+01
   5.416549e+01   8.930607e+00
   3.982154e+01   2.751715e+01
   5.698028e+01   2.994480e+01
  -2.209358e+01   1.444713e+02
  -1.004326e+02   1.042461e+02
  -1.785959e+02  -2.254396e+00
  -1.001360e+02  -7.204175e+01
   5.305852e+01  -1.230267e+02
   1.241899e+02  -5.709575e+01
   9.931734e+01   1.299422e+01
  -4.428983e+01  -1.851882e+01
  -1.206400e+02  -1.502011e+01
  -8.329849e+01  -9.470139e+01
   9.278577e+01  -1.116265e+02
   2.224656e+02  -5.104773e+01
   2.021359e+02   6.116051e+01
   8.477825e+01   1.153202e+02
  -8.176061e+01   1.271543e+02
  -1.199352e+02   9.746668e+00
   2.952229e+01  -3.648560e+01
   7.816924e+01   4.516517e+01
   1.311906e+01   1.059362e+02
  -8.928135e+01   1.377123e+02
  -1.919172e+02   5.519643e+01
  -1.243756e+02  -1.190574e+02
  -2.022205e+01  -2.552263e+02
   6.412032e+01  -1.349991e+02
   1.075495e+02  -3.700849e+00
   5.550182e+01   1.160477e+02
  -1.355155e+00   1.099973e+02
  -6.134093e+01   2.705747e+01
  -8.468823e+01  -3.310631e+01
  -4.768747e+01   1.171155e+01
  -1.079403e+01  -1.916365e+01
   2.809956e-01  -4.958857e+01
  -3.239764e+01  -8.604149e+01
  -4.678862e+00  -1.588609e+02
   5.334481e+01  -5.325148e+01
   1.424921e+02  -1.020880e+01
   1.856919e+02   2.895555e+01
   3.845410e+01   5.032264e+01
  -7.798208e+01   2.470319e+01
  -5.171881e+01   5.988933e+00
   4.624275e+01   1.022841e+01
   1.514930e+01  -5.451413e+01
   3.096847e+01  -3.663507e+01
  -2.355747e+01  -7.223575e+00
   7.777472e+00  -4.780670e+01
   6.270724e+01   1.888278e+01
   9.207335e+01   1.212928e+01
  -5.401864e+00   1.045387e+02
  -7.768883e+01   1.545573e+02
  -1.769935e+02   9.667365e+01
  -1.661340e+02  -9.502473e+01
  -1.679785e+01  -1.871565e+02
   8.173975e+01  -1.408418e+02
   1.526402e+02  -5.810197e+01
   1.020805e+02  -6.909450e+00
   5.874690e+01   5.852564e+00
   1.781807e+01   1.836421e+01
   5.730300e+01  -1.249894e+01
  -4.554039e+00  -2.469615e+01
   6.616960e+01   2.324868e+01
  -1.697616e+00   4.177511e+00
  -2.274185e+01  -4.070440e+01
  -4.108180e+01  -8.689549e+01
  -1.132922e+01  -6.102636e+01
   1.001289e+02  -3.297500e+01
   3.570015e+01   6.359875e+01
  -3.507101e+00   7.698949e+01
  -9.037723e+01   2.980351e+01
  -1.060065e+02  -3.262727e+01
   9.508283e+00  -7.708631e+01
   6.386259e+01  -7.301593e+01
   5.269268e+01  -2.765911e+01
  -4.169338e+01   2.464150e+01
  -5.376782e+01   2.697026e+01
  -8.360292e+00   2.403197e+01
   7.836911e+01  -3.197106e+01
   8.714187e+01  -8.256555e+01
   6.650767e+01   4.080401e+01
  -5.054657e+01   5.447480e+01
  -2.531622e+01   9.264186e+01
  -7.299540e+00  -1.915430e+01
   4.713342e+01  -5.483354e+01
   5.109161e+01   7.890190e+00
   5.888501e+01   5.400456e+00
  -3.830661e+00   2.935376e+01
   1.122552e+00   3.939701e+01
  -8.148788e+01  -2.101481e+01
  -4.233621e+00  -2.726463e+01
  -4.086349e+01   4.316261e+00
  -7.811107e+01  -3.345772e+01
   1.731806e+01   5.256344e+01
  -2.774545e+01  -3.331919e+01
  -1.553773e+01  -5.790731e+00
   7.877141e+01  -5.379471e+00
   7.738578e+01   4.835118e+01
  -9.502067e+00   9.935407e+01
  -3.073357e+01   6.862019e+01
  -6.190829e+01  -3.540769e+01
  -2.139822e+01  -9.121065e+01
   3.169862e+01  -4.035325e+01
   3.543816e+01  -6.260755e+00
   4.804214e+01   3.842087e+01
   1.621439e+01  -2.841957e+00
  -5.796375e+01   3.335266e+01
  -5.551182e+01  -1.398457e+01
  -2.865410e-01  -4.784619e+01
   2.356462e+01   3.039344e+01
  -1.394319e+01   1.533363e+01
  -1.207438e+02   4.130147e+01
