
 $NMID
 id='ANONYMOUS ', fmtdat='(2E16.6)'
 volume=1.0
 tramp=1.0
 $END
   2.925814e+03   3.759035e+00
   1.988284e+03   1.384937e+03
   1.685762e+02   1.938068e+03
  -1.479574e+03   1.170603e+03
  -9.692921e+02   3.478170e+02
  -3.079296e+01  -3.477443e+02
   3.477192e+02   1.474957e+02
  -5.475036e+01   5.723246e+02
  -4.647321e+02   4.778320e+02
  -6.103725e+02   1.755947e+02
  -3.932559e+02  -4.168248e+02
   1.216401e+02  -5.876441e+02
   3.060147e+02  -1.571297e+02
   3.947002e+02   5.860951e+02
  -2.094921e+02   5.633294e+02
  -4.069707e+02   1.491409e+02
  -4.477728e+02  -4.990386e+02
   1.252794e+02  -5.602236e+02
   5.296667e+02  -3.056862e+02
   4.550094e+02   2.319868e+02
   9.572735e+01   3.802826e+02
   8.900842e+01   2.882957e+02
  -3.615729e+01   1.023288e+02
   7.341495e+01   3.047929e+00
   2.003707e+02   1.919470e+02
  -1.371482e+02   2.503109e+02
  -5.101780e+02   1.206750e+02
  -5.603550e+02  -1.739552e+02
  -1.315409e+02  -3.935129e+02
   3.791236e+02  -2.141066e+02
   4.796515e+02   7.339558e+01
   1.740464e+02   3.984803e+02
  -2.590312e+02   2.589704e+02
  -4.854515e+02   1.209642e+02
  -2.610285e+02  -1.678294e+02
  -7.273943e+00  -2.801546e+02
   2.743147e+01  -2.092039e+02
  -1.377697e+02   3.734948e+01
  -1.849266e+02   1.155280e+02
  -1.500609e+02  -1.461518e+02
   2.463618e+01  -4.205458e+02
   2.327224e+02  -4.327671e+02
   2.923418e+02  -7.651351e+01
   5.974250e+01   2.096860e+02
  -1.321174e+02   6.738388e+01
  -1.345318e+02  -2.147087e+02
   1.688163e+02  -3.542095e+02
   3.945876e+02  -4.947846e+01
   4.388090e+02   3.372801e+02
   1.708987e+02   4.489752e+02
  -2.436894e+02   2.388482e+02
  -4.507165e+02  -7.785120e+01
  -2.939538e+02  -2.483400e+02
   8.481908e-01  -1.751707e+02
   2.680808e+02  -8.860704e+01
   2.073680e+02   7.618533e+01
   7.802753e+00   3.970393e+01
   9.281875e+00  -2.182302e+01
   7.419506e+01  -4.949145e+01
   1.967481e+02   6.624431e+01
   9.191807e+01   1.804508e+02
  -1.566274e+02   2.470334e+02
  -3.221274e+02   1.445689e+02
  -2.407431e+02  -6.761268e+01
   3.847616e+01  -2.643678e+02
   2.963410e+02  -3.140880e+02
   3.441683e+02  -1.394111e+02
   1.953090e+02   1.892261e+02
  -6.055031e+00   3.589982e+02
  -7.879644e+01   3.277477e+02
  -9.185469e+01   1.529167e+02
  -3.968018e+01   7.596851e+01
  -1.061537e+02   1.591164e+02
  -2.256653e+02   2.321232e+00
  -2.146694e+02  -1.819378e+02
  -1.027543e+02  -2.727816e+02
   6.492591e+01  -2.024358e+02
   1.440068e+02   6.559037e+01
   8.014290e+01   2.377656e+02
  -6.707582e+01   2.559912e+02
  -2.756831e+02   3.285056e+01
  -2.794451e+02  -1.946900e+02
  -1.619862e+02  -3.244619e+02
   3.714710e+01  -2.729475e+02
   1.192374e+02  -1.815350e+02
   1.148366e+02  -1.217269e+02
   2.071432e+02  -5.739560e+01
   2.929679e+02  -2.393307e+01
   4.384463e+02   1.313490e+02
   2.922693e+02   3.170785e+02
  -6.417394e+01   4.214690e+02
  -3.805808e+02   3.637322e+02
  -4.882698e+02   1.624153e+02
  -2.664091e+02  -1.461503e+02
  -2.631406e+01  -2.140805e+02
   7.444349e+01  -1.853491e+02
   3.800160e+00  -5.964316e+00
  -1.258883e+02  -2.528719e+00
  -9.961293e+01  -6.772625e+01
  -1.766049e+01  -1.469480e+02
   7.861629e+01  -1.019592e+02
   9.005808e+01   1.113144e+02
  -6.169485e+00   1.607828e+02
  -1.298906e+02   3.180650e+00
  -1.283097e+02  -2.170789e+02
   3.027528e+00  -2.911709e+02
   2.178939e+02  -2.174938e+02
   3.373134e+02   5.932781e+01
   2.859545e+02   2.953709e+02
   4.297997e+01   3.476859e+02
  -1.418133e+02   1.437106e+02
  -1.542718e+02  -3.264355e-01
  -9.621281e+01  -2.622732e+01
   4.902083e+00   5.409684e+01
  -2.297358e+01   7.304721e+01
  -1.160711e+02  -3.852425e+00
  -1.602374e+02  -1.054964e+02
  -7.059025e+01  -1.200169e+02
   5.687630e+01  -1.825656e+01
   1.410209e+02   6.195192e+01
  -6.194488e+01   7.756487e+01
  -1.605702e+02  -2.867586e+01
  -2.394955e+02  -9.655596e+01
  -7.979238e+01  -2.350684e+02
   1.695225e+02  -2.074449e+02
   2.892405e+02  -1.132842e+02
   1.433307e+02   3.531975e+01
   2.290949e+01   3.004511e+01
  -3.863612e+01   4.131899e+01
   8.451875e+01  -9.156199e+01
   1.843246e+02  -1.331847e+00
   1.944664e+02   8.330970e+01
   7.971173e+01   2.062154e+02
  -8.575334e+01   1.652065e+02
  -1.487297e+02   1.964889e+01
  -6.366251e+01  -3.883021e+01
   5.579365e+01   4.033465e+00
   4.999498e+01   7.512206e+01
  -2.505675e+01   8.154429e+01
  -1.848651e+02   1.661343e+01
  -2.057065e+02  -1.142752e+02
  -1.653919e+00  -1.069084e+02
   1.268387e+02  -7.365186e+01
   1.188970e+02  -4.297749e+01
   5.774583e+01   5.197657e+01
  -7.767901e+01   7.128599e+01
  -6.370576e+01  -9.806760e+00
   1.697904e+01  -1.347842e+01
   5.202200e+01   1.547764e+01
  -1.461818e+01   6.826842e+00
  -9.640316e+01   3.249560e+01
  -7.234726e+01  -8.480602e+01
   4.714990e+01  -1.507386e+02
   1.582667e+02  -1.500467e+02
   2.349814e+02   3.847228e+01
   1.088834e+02   1.549007e+02
  -3.854818e+00   1.806232e+02
  -1.167685e+02   1.348163e+02
  -1.346275e+02   5.685075e+01
  -6.655952e+01  -3.210120e+01
  -1.095824e+01  -2.144143e+01
  -3.244087e+01   2.038239e+01
  -8.888485e+01  -1.660235e+01
  -3.231248e+01  -5.526693e+01
   3.199947e+01  -1.357159e+02
   1.233647e+02  -8.666067e+01
   7.066502e+01   3.185289e+01
  -1.090244e+01   1.243942e+02
  -1.268201e+02   1.115718e+02
  -2.344790e+02  -7.388954e+01
  -8.506656e+01  -2.347212e+02
   1.225163e+02  -2.380197e+02
   2.512902e+02  -1.284227e+02
   2.155849e+02   4.275116e+01
   1.271888e+02   1.203152e+02
  -4.440486e+01   1.712690e+02
  -1.024088e+02   4.577731e+01
  -1.160308e+02   6.169126e+01
  -1.936554e+01   5.531651e+01
  -1.146737e+02   2.185636e+01
  -8.444385e+01  -2.576339e+01
  -1.732744e+02  -1.417014e+02
  -4.050945e+01  -1.948187e+02
   6.651718e+01  -1.852062e+02
   1.655172e+02  -3.645627e+01
   1.309200e+02   6.807544e+01
   2.999292e+01   1.060377e+02
  -1.261499e+02   8.337506e+01
  -8.343947e+01  -3.482782e+01
   1.373137e+01  -4.454229e+01
   2.469197e+01  -4.050474e+01
  -1.872465e+00  -2.472385e+00
  -9.803473e+01  -9.390714e+01
  -6.196860e+01  -7.384552e+01
   3.034348e+01   3.397913e+00
   1.817397e+02  -3.365390e+01
   1.237766e+02   1.984144e+01
  -1.320732e+00   1.279917e+02
  -1.612648e+02   5.000250e+01
  -1.113928e+02   2.151737e+01
  -3.012829e+01  -4.978803e+01
   7.609412e+01  -3.374408e+01
   1.452537e+01  -4.692393e+01
   1.434019e+01   4.177256e+01
  -7.104632e+01   1.022332e+02
  -5.426345e+01  -7.588506e+00
  -6.112423e+01  -3.079739e+01
  -3.783987e+01  -1.809387e+01
  -1.844070e+01  -5.104669e+00
  -8.206229e+01  -4.732467e+01
  -5.117242e+01  -8.975042e+01
   3.153740e+01  -1.431891e+02
   1.501507e+02  -1.049680e+02
   1.995059e+02  -1.007702e+01
   1.643708e+02   1.384480e+02
  -3.078220e+01   1.193186e+02
  -9.314083e+01   1.004763e+02
  -6.989732e+01   2.859883e+01
   4.662845e+01  -3.468171e+01
   1.110410e+02  -7.189004e+00
   1.628155e+01   1.032932e+02
  -7.421160e+01   6.381596e+01
  -1.571663e+02   1.123630e+02
  -1.688413e+02  -2.357463e+01
  -1.012536e+01  -1.154203e+02
   4.278772e+01  -6.011602e+01
   4.207797e+01  -2.229308e+01
  -5.204094e+00   4.325530e+01
  -8.544151e+01   1.831793e+01
  -1.736422e+01  -1.234507e+02
   6.476779e+01  -1.751574e+02
   1.040386e+02  -8.957181e+01
   1.537571e+02   5.649019e+01
   2.085145e+01   2.352179e+02
  -9.543442e+01   1.914578e+02
  -8.587069e+01   4.058028e+00
  -1.759220e+01  -1.678338e+02
   3.154817e+00  -1.272022e+02
   6.954877e+01  -1.722689e+01
   6.293813e+01   3.593812e+01
   6.894780e+01   2.706733e+01
  -1.064705e+01   1.373081e+01
   8.939693e+00  -3.937363e+01
   8.939118e+00   1.082677e+02
   5.565222e+01   9.444444e+01
   1.430370e+01   6.680943e+01
  -1.247740e+02  -4.103244e+01
  -1.336787e+02  -3.992506e+01
  -5.277262e+01  -5.332241e+01
  -6.883622e+00  -4.665571e+01
   9.396259e+01   3.110699e+00
   8.063682e+01   6.389016e+00
  -3.531605e+01   3.256721e+00
   3.033383e+00  -2.512536e+01
  -2.359921e+01  -2.989060e+01
   3.038153e+01  -3.758793e+00
  -2.770898e+01  -3.338732e+01
  -3.208895e+01  -3.069882e+00
  -6.011891e+01  -5.657636e+01
   1.360709e+02  -9.874391e+01
   1.741859e+02  -6.219175e+01
   1.491585e+02   5.678347e+01
   4.895462e+01   1.409669e+02
  -9.028798e+01   1.668979e+02
  -1.196514e+02   8.018581e+01
  -1.023584e+02  -3.908810e+01
  -3.538409e+01  -6.605172e+00
  -4.374734e+01  -1.999672e+01
  -1.717120e+01   2.021228e+00
  -6.289404e+01  -6.221381e+01
  -2.845663e+01  -1.535313e+02
   3.950790e+01  -4.327160e+01
   6.607976e+01  -1.205022e+01
   6.318820e+01   1.080678e+02
   3.405704e+01   1.240696e+02
  -6.513017e+01   2.687631e+01
  -1.012479e+02  -1.453756e+02
  -7.183481e+01  -8.561874e+01
   8.774183e+01  -8.731624e+01
   9.112288e+01  -2.304309e+01
   3.713818e+01   5.844581e+01
  -4.682713e+01   8.706315e+01
  -5.704700e+01   2.563052e+01
   3.899425e+01   7.005233e+00
   9.585004e+01  -2.495115e+01
   3.290378e+00   4.340135e+01
  -8.910059e+01   5.393422e+01
  -1.182008e+02   1.156046e+02
  -4.694721e+01  -2.992667e+01
   6.163984e+00  -7.480619e+01
  -1.057818e+01  -1.023832e+02
   8.507361e+01  -4.178081e+00
   1.354938e+01   1.292802e+01
   1.531147e+01   8.683760e+01
  -2.332829e+00  -1.228178e+01
  -5.585119e+01  -7.209577e+01
  -7.356628e+01  -3.928932e+01
   6.773451e+01   1.357758e+01
   3.536464e+01   3.007116e+01
   3.920469e+01   1.583306e+01
   1.020066e+01   2.371398e+01
   1.314584e+01  -2.504112e+01
  -2.779648e+01   3.338390e+01
  -2.165503e+01   7.069110e+01
  -5.111483e+01   1.985113e+01
  -5.037657e+01  -1.318235e+01
  -5.679727e+01  -5.371809e+01
   3.845612e+01  -1.024927e+01
   4.664723e+01   2.486189e+01
  -2.690352e+01   3.964214e+01
  -3.845470e+01   4.123355e+01
  -1.273854e+02  -6.283515e+01
  -3.196581e+01  -5.105415e+01
   6.189062e+01  -3.660390e+01
   2.480148e+01  -2.385936e+01
   6.072067e+01  -5.139820e+01
  -2.204052e+01   5.599275e-03
  -4.293940e+01   7.638755e+00
  -1.714308e+01  -6.024249e+01
   7.343941e+01  -4.926661e+01
