
 $NMID
 id='ANONYMOUS ', fmtdat='(2E16.6)'
 volume=1.0
 tramp=1.0
 $END
   3.459027e+03  -2.017311e+02
   2.206971e+03   2.033757e+03
  -3.416029e+02   2.338312e+03
  -1.652936e+03   8.436800e+02
  -9.266148e+02  -3.799052e+02
   4.357662e+02  -4.742849e+02
   6.335661e+02   4.289212e+02
   1.297608e+01   8.677546e+02
  -7.057406e+02   6.518369e+02
  -8.130357e+02   2.548152e+01
  -4.986785e+02  -6.574538e+02
   1.630996e+02  -7.346821e+02
   5.319500e+02   4.040876e+01
   4.359111e+02   5.705329e+02
  -2.752167e+02   6.587792e+02
  -4.005448e+02   2.287009e+01
  -5.777499e+01  -6.838394e+02
   3.305968e+02  -3.960520e+02
   5.163111e+02  -6.198034e+01
   4.736850e+02   2.205795e+02
  -4.225363e+01   3.885530e+02
  -1.722054e+02   3.606515e+02
  -9.339871e+01   2.376772e+01
   1.730953e+02  -1.449354e+01
   2.954862e+02   1.759500e+02
   1.344406e+02   3.141381e+02
  -5.611261e+02   3.212522e+02
  -6.607973e+02  -1.438851e+02
  -2.867466e+02  -4.533873e+02
   3.705598e+02  -3.787110e+02
   6.040593e+02   1.442004e+02
   2.575250e+02   4.007241e+02
  -3.079541e+02   3.974868e+02
  -5.460070e+02   1.408212e+02
  -4.096962e+02  -1.775438e+02
  -2.007862e+02  -4.121596e+02
   1.715881e+02  -2.356396e+02
   5.532055e+01   1.609914e+02
  -8.097840e+01   3.580036e+02
  -3.826520e+02  -6.343375e+01
  -1.515536e+02  -5.920063e+02
   3.182927e+02  -5.856784e+02
   4.751193e+02   1.444239e+01
   1.410907e+02   4.431855e+02
  -1.648253e+02   2.500022e+02
  -2.039809e+02  -3.082079e+02
   1.196842e+02  -4.984385e+02
   4.787659e+02  -1.046581e+02
   4.915513e+02   3.607987e+02
   1.071560e+02   5.122988e+02
  -3.142944e+02   2.858474e+02
  -5.380680e+02  -1.238256e+02
  -2.784733e+02  -3.389454e+02
   1.209134e+02  -2.361185e+02
   4.207463e+02  -1.164349e+01
   2.065684e+02   1.234450e+02
  -1.115917e+02   7.800322e+01
  -1.532811e+02  -5.734215e+01
   1.240466e+02  -1.144995e+02
   2.741504e+02   3.033497e+01
   1.616563e+02   1.895446e+02
  -1.339438e+02   1.821571e+02
  -3.254219e+02   6.928141e+01
  -1.939919e+02  -5.373724e+01
   7.519997e+01  -2.103771e+02
   2.848375e+02  -3.188353e+02
   3.516455e+02  -1.610263e+02
   3.081563e+02   1.839609e+02
   4.726095e+01   4.089094e+02
  -7.684106e+01   3.769742e+02
  -1.160553e+02   1.422882e+02
  -7.842237e+01   9.612271e+01
  -1.118638e+02   9.333601e+01
  -2.124492e+02   1.382436e+02
  -2.606949e+02  -1.327424e+02
  -2.158802e+02  -2.240138e+02
   4.924531e+01  -2.141906e+02
   1.916834e+02   1.689077e+01
   1.982643e+02   2.492468e+02
   2.068935e+00   2.910266e+02
  -2.718112e+02   6.724679e+01
  -3.652671e+02  -1.974152e+02
  -1.906755e+02  -2.877818e+02
   1.340023e+02  -2.867585e+02
   1.932450e+02  -1.832977e+02
   1.204559e+02  -8.698759e+01
   9.748512e+01  -8.862397e+01
   2.573612e+02  -6.205610e+01
   4.390056e+02   1.121467e+02
   3.063310e+02   2.793092e+02
  -6.446200e+01   4.346775e+02
  -3.973918e+02   3.795991e+02
  -4.286390e+02   1.531893e+02
  -3.009454e+02  -1.165846e+02
  -1.886885e+01  -2.666789e+02
   1.430386e+02  -1.842843e+02
   4.377455e+01  -7.346361e+01
  -6.913379e+01   4.779164e+01
  -1.006057e+02  -4.895184e+01
   1.222477e+01  -1.620440e+02
   1.269437e+02  -1.010698e+02
   1.632004e+02   4.233816e+01
   1.368617e+00   1.308519e+02
  -1.045219e+02  -2.763741e+01
  -1.351985e+02  -1.936354e+02
   3.064449e+01  -3.062208e+02
   2.175323e+02  -1.178630e+02
   3.469240e+02   6.877132e+01
   2.524944e+02   2.293145e+02
   3.422288e+01   2.501330e+02
  -1.013477e+02   1.648978e+02
  -1.786237e+02   3.132271e+01
  -4.924891e+00   2.888219e+01
   6.523212e+01   9.054379e+01
   3.005323e+01   9.464832e+01
  -1.052906e+02   6.353057e+01
  -1.691172e+02   3.428128e+00
  -7.774894e+00  -4.874459e+01
   3.600989e+01   1.500690e+01
   5.016522e+01   8.558910e+01
  -1.630401e+02   6.981391e+01
  -2.508832e+02  -1.980460e+01
  -2.533691e+02  -1.531429e+02
  -5.471114e+01  -2.270584e+02
   1.691507e+02  -1.815822e+02
   2.319257e+02  -1.014411e+02
   1.161437e+02   5.624613e+01
  -4.438874e+01   1.040693e+02
  -5.112463e+01   3.307744e+00
   5.058157e+01  -6.615262e+01
   1.833852e+02  -7.650010e+01
   1.915660e+02   1.067660e+02
   8.566148e+01   1.610208e+02
  -6.400235e+01   1.640216e+02
  -1.043085e+02   1.321511e+01
  -5.054218e+01  -1.485575e+01
   2.218714e+01   2.446355e+01
   4.426036e+01   9.009308e+01
  -1.167859e+02   9.607565e+01
  -2.087816e+02   8.824109e+00
  -1.621670e+02  -1.126894e+02
  -2.151156e+01  -1.663999e+02
   1.584909e+02  -1.343977e+02
   2.009820e+02  -2.754586e+01
   1.378079e+02   1.039731e+02
  -7.597143e+01   1.076945e+02
  -5.568402e+01   1.045172e+02
  -6.204544e+01   2.473785e+01
  -1.094349e+01  -3.424679e+01
  -3.376693e+01  -3.918700e+01
  -1.255577e+02  -3.385733e+01
  -7.715854e+01  -8.300171e+01
   2.199133e+01  -1.778708e+02
   1.297800e+02  -1.471039e+02
   1.717957e+02   1.718460e+01
   1.899150e+02   1.591052e+02
   1.170643e+01   2.199270e+02
  -9.471144e+01   1.287112e+02
  -1.198219e+02   2.818256e+01
  -4.308142e+01  -5.641236e+01
  -6.038708e+00  -5.843181e+01
  -4.755445e+01   5.185755e+01
  -5.246536e+01   3.212687e+01
  -1.266800e+02  -1.821090e+01
   7.427237e+01  -8.688951e+01
   1.148594e+02  -5.486460e+01
   1.271029e+02   4.721887e+01
   2.335121e+01   1.433000e+02
  -1.574231e+02   7.283074e+01
  -2.265625e+02  -4.921854e+01
  -1.014991e+02  -2.167386e+02
   1.290244e+02  -2.343833e+02
   2.506837e+02  -1.175510e+02
   2.651260e+02   6.935983e+01
   1.205192e+02   1.632884e+02
  -2.163982e+01   1.086535e+02
  -8.229830e+01   9.217306e+01
  -5.426410e+01   5.964665e+01
  -6.915131e+01   1.012646e+02
  -4.916951e+01   6.473820e+01
  -1.064497e+02  -1.050301e+01
  -1.170045e+02  -1.823065e+02
  -3.006496e+01  -2.551485e+02
   8.216825e+01  -1.725190e+02
   1.448987e+02  -3.598281e+01
   1.612441e+02   1.747813e+02
   5.720188e+00   1.442894e+02
  -4.121728e+01   8.308478e+01
  -8.628813e+01   3.470366e+01
   2.134098e+01  -4.385054e+01
  -1.286265e+01  -2.303452e+01
   7.379151e+00  -2.266224e+00
  -8.627712e+01  -2.061568e+01
  -5.156716e+01  -4.428338e+01
   4.906188e+01  -3.767231e+01
   1.774566e+02   7.247342e+00
   1.236613e+02   5.978669e+01
  -1.284851e+01   6.831359e+01
  -1.450427e+02   6.150783e+01
  -1.655915e+02   1.476551e+01
  -5.850912e+01  -5.217308e+01
   7.220641e+01  -2.215031e+01
   1.056566e+02   2.250987e+01
   1.509699e+01   9.839858e+01
  -5.673157e+01   6.738546e+01
  -1.489490e+02   2.067681e+01
  -7.123799e+01  -5.764482e+01
  -9.335378e+00  -4.911154e+01
  -6.084259e+01   5.143168e+00
  -2.734350e+01  -2.159909e+01
  -6.141371e+01  -4.045411e+01
   4.516029e+01  -1.280059e+02
   9.073681e+01  -9.762048e+01
   1.254238e+02  -1.535746e+01
   9.020655e+01   7.955458e+01
  -3.504898e+00   1.394708e+02
  -7.838606e+01   6.399950e+01
  -6.349085e+01  -3.825211e+01
   6.132230e+01  -3.030949e+01
   1.270476e+02   4.327336e+00
   9.369683e+01   1.153665e+02
  -7.012306e+01   8.117135e+01
  -1.936509e+02   4.076070e+01
  -1.824216e+02  -5.286458e+01
  -2.207439e+01  -8.500869e+01
   1.106508e+02  -6.735197e+01
   5.095613e+01   1.190041e+01
  -2.257790e+01   7.199935e+01
  -1.153228e+02   2.051570e+01
  -4.269693e+01  -1.260072e+02
   1.043259e+02  -1.119582e+02
   2.024601e+02  -4.089879e+01
   1.064500e+02   1.159673e+02
  -1.927818e+01   1.573072e+02
  -1.097174e+02   1.231541e+02
  -1.158990e+02  -1.408930e+01
  -2.835444e+01  -1.470261e+02
  -1.354589e+01  -1.409978e+02
   5.796771e+01  -8.891493e+00
   6.222675e+01   2.772019e+01
   5.508292e+01  -3.124064e+01
   2.991653e+01  -4.834026e+01
  -2.920319e+01   3.909785e+01
   5.229231e+01   5.664691e+01
   4.209625e+01   7.820329e+01
  -1.149314e+01   5.461619e+01
  -1.121856e+02  -6.424680e+01
  -1.215334e+02  -4.916652e+01
  -3.919172e+01  -5.504698e+01
   4.357590e+01  -3.678279e+00
   9.689398e+01   2.574780e+00
  -1.664195e+01   7.262983e+00
  -2.836910e+01   3.392779e+01
   1.086840e+01   2.051425e+00
   2.269738e+01   3.278343e+01
   1.785595e+01  -1.519628e+01
  -4.340321e+01  -3.459119e+01
  -1.166206e+02   7.458470e+00
  -2.098188e+01  -8.588565e+01
   1.241087e+02  -1.076041e+02
   1.853280e+02  -6.286131e+01
   1.075699e+02   2.328784e+01
   4.677265e+01   1.805272e+02
  -5.965381e+01   1.010555e+02
  -1.008395e+02   4.370452e+01
  -7.163705e+01  -2.570083e+01
  -1.811100e+01  -7.850819e+01
  -1.181434e+01   2.992772e+01
  -2.682269e+01  -3.519236e-01
  -5.476903e+00  -2.482267e+01
  -1.883726e+01  -6.638635e+01
   3.576737e+01  -8.168931e+01
   8.397839e+01   2.550625e+01
   1.048984e+02   1.104904e+02
  -6.442080e+00   8.601715e+01
  -4.461732e+01   2.053772e+01
  -5.953700e+01  -5.454298e+01
   7.452628e+00  -5.003909e+01
   8.816961e+01  -7.382378e+01
   1.159284e+02   7.595472e+00
   5.702116e+00   3.015418e+01
  -3.981767e+01   4.046961e+01
  -3.073874e+01   1.931344e+01
   4.947408e+01   1.945765e+01
   9.118924e+01   2.551325e+01
  -8.090727e+00   1.453330e+01
  -5.889606e+01   6.241707e+01
  -5.428066e+01   4.532798e+01
  -7.776585e+01   1.444814e+01
   2.702288e+01  -5.858228e+01
   7.540620e+00  -1.073383e+02
  -3.051423e+00  -1.961314e+01
   6.505752e+01   3.361828e+01
  -4.030159e+01   2.892393e+01
  -4.333493e+01   2.438419e+00
  -5.030998e+01  -4.928721e+01
   6.039120e+00  -3.141766e+01
  -2.461275e+01   5.996743e+00
   5.656462e+00  -2.575403e+01
   1.596210e+01  -2.862975e+01
  -3.493525e+01  -6.386228e+01
   6.848060e-01   2.532469e+01
  -4.523436e+00   2.755736e+01
  -1.958063e+01   3.220880e+01
  -5.612117e+01  -8.706533e+00
  -1.806907e+01  -6.054193e+01
   2.436616e+01  -5.169376e+01
   6.089652e+00  -3.055384e+01
   4.968563e+01   1.202125e+00
   8.439038e+00   8.132496e+01
  -4.553443e+01   5.631863e+01
  -1.039711e+02  -2.470881e+00
  -1.391905e+01  -7.002539e+01
   2.443110e+01  -1.353909e+01
   6.510286e+01   2.470311e-01
  -1.986241e+01   3.419710e+01
  -3.416026e+01   4.052778e+01
  -4.577382e+01  -3.425048e+01
   1.953242e+01  -6.305702e+01
   4.511074e+01   8.897094e+00
