
 $NMID
 id='ANONYMOUS ', fmtdat='(2E16.6)'
 volume=1.0
 tramp=1.0
 $END
  -4.902862e+03  -1.359611e+01
  -2.654200e+03  -2.782510e+03
   1.140193e+03  -2.970860e+03
   2.289658e+03  -1.013392e+03
   1.015715e+03   9.364324e+02
  -6.469365e+02   6.990824e+02
  -1.152254e+03  -6.074712e+02
   2.320019e+01  -1.183098e+03
   8.117678e+02  -8.835265e+02
   1.105965e+03   1.778452e+02
   3.809365e+02   9.947548e+02
  -3.391454e+02   8.485631e+02
  -7.091363e+02  -5.677715e-01
  -2.998024e+02  -8.068193e+02
   2.322077e+02  -9.171947e+02
   5.914025e+02  -7.359709e+01
   3.858721e+02   8.322525e+02
  -3.565644e+02   7.521731e+02
  -8.522064e+02   2.469600e+02
  -5.425328e+02  -3.435584e+02
  -3.340657e+02  -4.071276e+02
   2.192717e+02  -2.161418e+02
   3.166612e+02   4.270277e+01
  -4.115162e+01   1.875412e+02
  -3.548199e+02  -2.295961e+01
  -1.352828e+02  -4.678107e+02
   4.690721e+02  -5.169959e+02
   8.986485e+02   2.204308e+02
   4.603632e+02   5.826756e+02
  -4.240935e+02   5.737298e+02
  -7.669220e+02  -8.243627e+01
  -4.495611e+02  -5.574598e+02
   2.874194e+02  -6.139937e+02
   6.250802e+02  -1.236514e+02
   4.980942e+02   2.598237e+02
   1.438821e+02   6.017480e+02
  -2.226358e+02   2.222104e+02
  -2.073526e+02  -2.314056e+02
   2.475075e+02  -4.624667e+02
   5.516478e+02   4.824072e+01
   2.347835e+02   7.438941e+02
  -4.179584e+02   7.692444e+02
  -7.645186e+02  -2.524337e+01
  -3.662259e+02  -6.667878e+02
   4.220925e+02  -3.999588e+02
   4.414642e+02   3.327005e+02
  -7.266916e+01   5.524737e+02
  -6.253299e+02   1.276501e+02
  -6.504579e+02  -4.512129e+02
  -1.699950e+02  -5.848198e+02
   4.367887e+02  -3.523356e+02
   6.565160e+02   1.647909e+02
   3.670323e+02   4.383349e+02
  -2.236235e+02   3.504408e+02
  -5.251380e+02   1.065773e+00
  -2.809298e+02  -2.824764e+02
   1.301064e+02  -1.477768e+02
   1.725781e+02   1.978741e+02
  -1.738324e+02   2.031896e+02
  -3.917197e+02  -6.464548e+01
  -1.697638e+02  -3.228787e+02
   1.868650e+02  -2.896483e+02
   3.246910e+02  -1.154937e+02
   2.057297e+02   8.142973e+01
  -4.599205e+01   1.729412e+02
  -2.782967e+02   3.050295e+02
  -3.890890e+02   1.859412e+02
  -3.131958e+02  -1.360963e+02
  -3.573825e+01  -4.621816e+02
   1.684733e+02  -4.040146e+02
   1.511036e+02  -1.353365e+02
   2.696238e+01  -4.473873e+01
   1.784557e+01  -1.105044e+02
   2.197688e+02  -1.416896e+02
   2.837963e+02   6.293299e+01
   2.186779e+02   3.194302e+02
  -2.071667e+01   2.815095e+02
  -1.669114e+02   1.011982e+01
  -2.047546e+02  -2.871626e+02
  -3.499871e+01  -2.958745e+02
   2.498999e+02  -9.563208e+01
   3.454881e+02   2.050345e+02
   1.454588e+02   3.564648e+02
  -1.500644e+02   2.998226e+02
  -2.350030e+02   1.521505e+02
  -1.478309e+02   6.796628e+00
  -7.377983e+01   2.372689e+01
  -2.369228e+02   4.900806e+01
  -4.442842e+02  -1.821038e+01
  -3.463441e+02  -2.583759e+02
   6.126825e+00  -4.300456e+02
   4.142265e+02  -4.358092e+02
   4.900332e+02  -1.961792e+02
   3.703365e+02   1.177340e+02
   2.302144e+01   2.639950e+02
  -1.690473e+02   2.232794e+02
  -1.127201e+02  -4.454684e+01
   1.065327e+02  -1.542185e+02
   2.093655e+02   4.522625e+01
   6.596099e+01   2.090444e+02
  -1.972296e+02   2.015511e+02
  -2.236140e+02  -5.090648e+01
   1.791893e+01  -1.367513e+02
   1.664821e+02  -7.733502e+00
   1.502936e+02   2.533185e+02
  -7.649450e+01   3.423843e+02
  -2.394274e+02   1.587340e+02
  -3.386347e+02  -5.449785e+01
  -3.276428e+02  -2.390152e+02
  -1.597430e+02  -2.387562e+02
   4.735512e+01  -1.958903e+02
   1.713336e+02  -6.868038e+01
   4.199774e+01  -6.906227e+00
  -6.799911e+01  -3.102982e+01
  -6.478035e+01  -1.296334e+02
   1.475878e+02  -8.755367e+01
   2.349961e+02   2.335121e+01
   7.458540e+01   1.101206e+02
  -9.793327e+01   3.120723e+01
  -9.479107e+01  -6.629967e+01
   1.454248e+02  -9.024091e+01
   2.467895e+02   2.100339e+01
   2.624044e+02   1.709043e+02
   4.263936e+01   2.612431e+02
  -2.081263e+02   2.954987e+02
  -2.924222e+02   1.322121e+02
  -1.938297e+02  -2.643327e+01
  -2.654087e+01  -7.032066e+01
   3.574211e+01   2.313259e+01
  -2.866203e+01   9.722490e+01
  -2.270980e+02   3.442633e+01
  -2.317569e+02  -9.758075e+01
  -1.113035e+02  -1.955172e+02
   1.277918e+02  -2.119369e+02
   1.699791e+02  -5.748329e+01
   5.954732e+01  -8.324146e+00
  -8.975457e+00   2.097046e+00
  -3.744409e+01  -8.361776e+01
   7.907934e+01  -1.350861e+02
   1.907921e+02  -2.633773e+01
   1.620259e+02   1.503226e+02
   3.228768e+01   2.229558e+02
  -1.657505e+02   1.660050e+02
  -1.942861e+02   2.844660e+01
  -8.467683e+01  -1.010387e+02
   8.205852e+01  -1.017455e+02
   1.225755e+02  -8.184518e+01
   3.823849e+00   4.416810e+01
  -4.189337e+01   3.720773e+01
   6.058832e-01  -1.999098e+01
   7.825083e+01  -4.597731e+01
   6.835546e+01   6.734683e+01
   1.851625e+01   1.671286e+02
  -1.022047e+02   1.362111e+02
  -2.286509e+02   2.216334e+01
  -2.493998e+02  -1.651903e+02
  -8.487666e+01  -2.284572e+02
   1.224630e+02  -1.827097e+02
   1.773336e+02  -2.704656e+01
   9.008782e+01   8.517084e+01
   7.020260e+01   5.315893e+01
   2.566308e+01  -1.816509e-01
   4.336746e+01  -5.021031e+01
   4.313417e+01   1.198037e+01
  -1.392635e+01   8.688752e+01
  -7.181299e+01   7.391581e+01
  -4.774461e+01   2.610176e+01
  -6.502991e+00  -8.497365e+01
   9.639511e+01  -1.532890e+01
   1.267514e+02  -2.097249e+00
   9.146440e+01   1.459519e+02
  -1.056176e+02   2.177352e+02
  -2.459112e+02   1.218808e+02
  -1.808906e+02  -1.045669e+02
  -6.092862e+01  -1.328804e+02
   4.270170e+01  -1.768023e+02
   1.105833e+02  -1.300651e+02
   2.858224e+01  -4.346929e+01
   6.568020e+01  -9.061701e+01
   7.235718e+01  -4.108759e+01
   8.995876e+01   2.999237e+01
   1.068743e+02   1.993204e+02
   6.074057e+01   2.041768e+02
  -5.575475e+01   1.947410e+02
  -1.731033e+02   2.614353e+01
  -8.780147e+01  -9.417171e+01
  -4.873239e+01  -1.609409e+02
   1.613601e+01  -6.800353e+01
   7.611118e+01   1.322638e+01
  -4.125596e+00   5.293140e+01
  -3.053592e+01   5.304302e+00
  -1.430593e+00  -6.237784e+00
   4.831113e+01  -9.308440e+00
   8.901764e+01   2.197643e+01
  -4.711270e+01  -1.340731e+01
  -1.208262e+02  -3.003074e-01
  -1.269602e+02  -2.104538e+01
  -2.263014e+00  -9.153175e+01
   1.777838e+02  -2.243140e+01
   1.330627e+02   2.542190e+01
   2.572521e+00   3.260193e+01
  -9.646341e+01   4.337097e+01
  -1.036962e+02   8.905241e-01
   3.623222e+00  -5.760518e+01
   7.544849e+01  -4.449003e+01
   7.058041e+01  -4.090872e+01
   4.101420e+01   8.540549e+01
  -3.851764e+00   6.688740e+01
   8.579834e+01  -1.840368e+01
   5.877864e+01  -1.866877e+01
   3.588338e+01   4.335072e+01
  -9.879625e+00   1.450364e+02
  -1.425457e+02   1.030676e+02
  -2.012762e+02   5.214594e+01
  -1.319015e+02  -9.679034e+01
  -1.212180e+00  -1.745729e+02
   1.262965e+02  -5.950232e+01
   8.656092e+01  -6.480066e+00
  -3.021232e+01   3.047630e+01
  -1.736286e+02  -3.714721e+01
  -9.317647e+01  -1.148971e+02
   8.287900e+01  -1.150514e+02
   1.881013e+02  -1.713194e+01
   1.701795e+02   5.892462e+01
   1.540821e+01   1.064587e+02
  -1.411916e+01   6.568674e+01
  -4.891659e+01   5.600508e+01
   2.276299e+01  -1.506637e+01
   1.306788e+02   1.581548e+01
  -6.167749e+00   1.043453e+02
  -1.238342e+02   1.792008e+02
  -1.733079e+02   8.779333e+01
  -1.127716e+02  -8.734380e+01
  -3.616363e+01  -1.860453e+02
   8.792172e+01  -1.076066e+02
   7.514705e+01  -7.909944e-01
  -2.141071e+00   1.491558e+02
  -4.119750e+01   9.014725e+01
  -1.796056e+01  -3.580398e+01
  -2.090581e+01  -7.824187e+01
   1.900057e+00  -2.765375e+01
   6.843665e+00   3.353192e+01
  -2.404935e+00  -1.765482e+01
  -1.359393e+01  -7.248206e+01
  -1.197395e+01  -1.302897e+02
   4.734378e+01  -4.604218e+01
   1.857786e+02   7.225488e+01
   1.524934e+02   8.688517e+01
   2.312474e+01   9.816682e+01
  -3.771546e+01   2.068669e+01
  -7.162954e+01   8.471893e+00
  -2.022328e+01   1.019220e+01
   3.291489e+01  -9.715116e+00
   8.153939e+01   3.792335e+01
  -6.123178e+01   8.401405e+00
  -4.456802e+01  -1.576725e+01
   5.495614e+01   1.074050e+01
   1.109269e+02  -9.312765e+00
   6.693479e+01   5.973026e+01
  -1.332370e+02   8.559458e+01
  -2.045385e+02   3.062965e+01
  -1.311770e+02  -7.009872e+01
  -1.203548e+01  -1.797839e+02
   1.525463e+02  -1.476680e+02
   1.558621e+02  -6.180121e+01
   1.065114e+02   7.004307e+01
   4.128452e+01   9.067655e+01
   1.602642e+01  -1.666303e+01
  -2.072681e+01   5.196727e+00
  -3.748015e-01   6.296634e+01
   5.358261e+01   8.510674e+01
   5.010963e+00   8.949865e+01
  -1.080656e+02   1.330353e+01
  -7.788732e+01  -6.639464e+01
  -1.426404e+01  -1.020981e+02
   8.187373e+01  -2.527214e+01
   1.541462e+02   1.065910e+02
   4.424123e+01   1.005149e+02
  -4.214972e+01   4.483174e+01
  -1.456950e+02   1.479664e+01
  -5.378956e+01  -6.311062e+01
  -7.261748e+00  -4.623540e+01
   4.001796e+01  -6.337701e+01
  -6.386993e+01   5.002143e+00
  -4.038984e+01   1.961697e+00
  -2.650069e+01  -1.124423e+01
   7.772723e+01  -9.938668e+01
   1.321890e+02  -9.590604e+01
   9.702065e+01   2.097397e+01
  -3.675563e+00   1.284473e+02
  -4.320470e+01   7.453989e+01
  -2.317370e+01  -1.240483e+01
   1.413697e+01  -6.872230e+00
   3.229090e+01  -8.518391e+01
   1.227361e+01   3.912342e+01
   4.460085e+00   3.956219e+01
   1.407129e+01   2.441274e+01
  -3.330646e+01  -1.336738e+01
  -3.036497e+01  -1.245112e+01
  -6.679778e+00   1.025271e+01
   3.476775e+01  -2.200863e+01
  -3.459923e+01  -3.211979e+00
  -3.092881e+01  -5.001003e+01
  -1.275017e+00  -5.663192e+01
   1.744363e+01   6.619745e+00
   6.631311e+01   3.873881e+01
   1.602472e+01   6.267953e+01
  -4.375312e+01   1.153626e+01
  -9.041828e+01  -2.359564e+01
   2.836164e+01  -3.666053e+01
   1.019926e+02  -2.123391e+01
   8.865419e+01   8.604670e+01
   3.383345e+01   5.974419e+01
  -2.277721e+01   4.669298e+01
  -9.448970e+01   5.793188e+01
  -5.732032e+01  -2.413546e+01
   1.616935e+01   1.334243e+01
   1.546204e+01  -4.798262e+01
  -6.888212e+01   3.303430e+01
  -1.022108e+02  -7.615686e+00
