
 $NMID
 id='ANONYMOUS ', fmtdat='(2E16.6)'
 volume=1.0
 tramp=1.0
 $END
   4.470104e+03  -1.532390e+02
   2.416585e+03   2.388899e+03
  -1.033392e+03   2.689749e+03
  -2.158627e+03   9.060685e+02
  -9.914621e+02  -6.136325e+02
   6.103262e+02  -6.727611e+02
   1.089313e+03   2.574700e+02
   1.193657e+01   9.752570e+02
  -8.737131e+02   9.010674e+02
  -9.962051e+02  -1.196295e+02
  -4.145842e+02  -7.683104e+02
   3.414971e+02  -7.803173e+02
   6.293540e+02  -1.050398e+02
   3.432869e+02   8.865798e+02
  -4.672051e+02   8.208956e+02
  -6.343311e+02  -2.901310e+01
  -2.369831e+02  -7.298152e+02
   3.068629e+02  -5.510403e+02
   6.276745e+02   2.433634e+01
   3.575911e+02   4.299828e+02
   5.604069e+01   3.485767e+02
  -1.766317e+02   3.602951e+02
  -3.413056e+02   7.857214e+01
   1.734256e+02  -2.077874e+02
   4.053007e+02   3.035469e+01
   2.870196e+02   4.279035e+02
  -4.468381e+02   4.763864e+02
  -9.020279e+02  -1.293265e+02
  -5.350353e+02  -6.714081e+02
   4.843971e+02  -6.109492e+02
   7.600480e+02   7.846111e+01
   3.863482e+02   5.078149e+02
  -2.249787e+02   5.635072e+02
  -6.026564e+02   2.305607e+02
  -5.025474e+02  -1.653172e+02
  -1.099184e+02  -4.783021e+02
   2.253067e+02  -2.892040e+02
   2.001988e+02   2.484734e+02
  -1.877448e+02   5.673329e+02
  -5.106763e+02   2.729618e+01
  -2.052143e+02  -6.699039e+02
   2.973298e+02  -7.758080e+02
   5.877960e+02  -5.359195e+01
   2.659389e+02   6.176896e+02
  -3.068189e+02   3.405778e+02
  -3.880763e+02  -3.716092e+02
  -2.442462e-01  -6.004451e+02
   5.136276e+02  -1.697709e+02
   5.915619e+02   3.766437e+02
   1.834641e+02   5.721568e+02
  -3.829635e+02   3.396378e+02
  -6.745020e+02  -1.267584e+02
  -4.136954e+02  -4.787680e+02
   1.799096e+02  -4.034398e+02
   5.050754e+02  -1.007163e+02
   2.655951e+02   1.774843e+02
  -1.143669e+02   8.039886e+01
  -1.166974e+02  -1.596908e+02
   1.774473e+02  -1.370327e+02
   3.509098e+02   1.028132e+02
   1.034315e+02   2.977128e+02
  -1.820905e+02   2.255961e+02
  -3.437967e+02   5.280466e+01
  -2.560912e+02  -9.469697e+01
  -2.375203e+01  -2.997141e+02
   2.256619e+02  -4.007266e+02
   4.458470e+02  -2.050703e+02
   3.919604e+02   1.910756e+02
   5.043814e+01   5.078538e+02
  -1.987904e+02   3.979304e+02
  -1.677104e+02   2.461763e+01
  -1.930930e+01  -2.867260e+01
   1.330411e+01   1.490222e+02
  -2.330615e+02   2.141840e+02
  -3.034661e+02  -5.620752e+01
  -2.016616e+02  -3.370216e+02
   8.031961e+01  -2.703864e+02
   2.764003e+02  -5.718879e+00
   2.288327e+02   3.086051e+02
   4.315566e+01   3.026616e+02
  -2.590820e+02   1.025333e+02
  -4.305776e+02  -1.236219e+02
  -1.993523e+02  -3.660483e+02
   4.754773e+01  -3.134376e+02
   1.804884e+02  -9.078573e+01
   1.844389e+02   1.224693e+01
   1.377691e+02  -3.464469e+01
   2.905497e+02  -9.516606e+01
   4.173477e+02   4.048047e+01
   3.171272e+02   2.735248e+02
   2.104196e+01   4.084168e+02
  -3.690253e+02   3.659259e+02
  -4.603562e+02   1.989067e+02
  -3.998819e+02  -9.979068e+01
  -8.406694e+01  -2.854453e+02
   1.134868e+02  -2.849751e+02
   2.912329e+01  -5.975525e+01
  -1.305940e+02   1.067376e+02
  -1.402107e+02  -2.112103e+01
   1.154356e+01  -2.321619e+02
   2.100840e+02  -1.615701e+02
   1.661024e+02   2.383507e+01
  -5.692359e+01   1.864331e+02
  -2.528816e+02   8.065476e+00
  -1.677101e+02  -2.273867e+02
   2.399287e+01  -3.325691e+02
   1.990004e+02  -1.589950e+02
   2.761048e+02   9.131474e+01
   3.008416e+02   2.177518e+02
   1.058182e+02   3.101201e+02
  -5.098420e+01   1.324056e+02
  -1.732407e+02   4.317598e+01
  -5.450584e+01  -2.872920e+01
   4.124799e+01   3.960856e+00
  -7.390833e+00   1.579275e+02
  -1.308793e+02   5.893877e+01
  -1.368686e+02   6.694606e+00
  -3.151670e+01  -5.364941e+01
   9.699543e+01   3.216129e+01
   1.184440e+01   6.248517e+01
  -6.021324e+01   4.044660e+01
  -2.762835e+02  -4.729915e+01
  -3.167539e+02  -2.038405e+02
  -7.778514e+01  -2.850925e+02
   1.633373e+02  -2.840380e+02
   3.427484e+02  -1.548700e+02
   2.192794e+02   3.915911e+01
  -1.501258e+00   1.529088e+02
  -7.773881e+01   1.923401e+01
   4.806910e+01  -1.486142e+02
   1.900707e+02  -1.086530e+02
   2.274202e+02   1.082411e+02
   9.639828e+01   1.840306e+02
  -7.941747e+01   2.330465e+02
  -1.375538e+02   3.459277e+01
  -1.062855e+02  -1.806720e+01
   2.059499e+01  -1.692573e+01
  -7.691241e+00   5.304739e+01
  -7.676402e+01   9.448775e+01
  -1.928690e+02   3.689884e+01
  -1.512905e+02  -8.594666e+01
   1.651007e+00  -2.490655e+02
   1.687187e+02  -1.866167e+02
   1.986732e+02  -2.756198e+01
   6.471694e+01   9.496597e+01
  -9.199966e+01   1.248024e+02
  -1.166707e+02   8.021014e+01
  -8.857584e+01  -1.179170e+01
  -8.222858e+00  -1.364137e+01
   3.708904e+01  -9.731696e+00
  -4.982367e+01  -5.717586e+01
  -1.411356e+01  -9.791403e+01
  -2.193277e+00  -1.783938e+02
   1.141550e+02  -1.148398e+02
   2.106240e+02   8.015169e+00
   2.061461e+02   1.971264e+02
   1.594221e+01   2.386174e+02
  -1.165086e+02   1.332318e+02
  -1.078730e+02   2.862703e+00
  -4.859611e+01  -8.769341e+01
  -5.216673e+01  -3.758154e+01
  -6.391784e+01   2.434602e+01
  -6.849040e+01   1.603428e+00
  -5.341701e+01  -8.950307e+01
   7.128776e+01  -7.579163e+01
   4.090433e+01  -4.663937e+01
   9.335036e+01   3.049895e+01
   3.895710e+01   9.614781e+01
  -8.696151e+01   8.975774e+01
  -2.006162e+02  -3.085879e+01
  -1.343633e+02  -1.834109e+02
   1.517802e+02  -1.941776e+02
   2.480571e+02  -7.892653e+01
   2.733920e+02   7.446123e+01
   9.258737e+01   2.365984e+02
  -2.050153e+01   1.372328e+02
  -1.275769e+02   1.039314e+02
  -1.195728e+02   6.326294e+00
  -7.558908e+01   7.308406e+01
  -6.535042e+01   8.265293e+01
  -1.271794e+02   5.054028e+00
  -1.239172e+02  -1.510476e+02
  -7.827676e+01  -2.354874e+02
   7.726328e+01  -1.946727e+02
   1.887006e+02  -1.444676e+01
   2.014165e+02   8.465251e+01
   1.840404e+01   1.441190e+02
  -2.884704e+01   5.654757e+01
  -9.705484e+01  -2.750538e+01
   2.575935e+01  -4.720850e+01
  -1.014340e+01  -4.391446e+01
   3.322215e+00  -3.390493e+01
  -8.327473e+01  -2.434539e+01
  -2.027713e+01  -3.152418e+01
   6.228999e+01  -4.508321e+01
   1.958886e+02  -3.463038e+01
   1.679605e+02   6.906568e+01
  -2.507470e+01   6.987065e+01
  -1.305310e+02   8.829216e+01
  -1.749555e+02   9.558980e-01
  -6.288058e+01  -5.503550e+01
   7.622619e+01  -2.957532e+01
   5.498017e+01   3.560761e+00
  -3.653592e+01   8.917741e+01
  -6.382078e+01   8.392440e+01
  -5.644501e+01   5.229876e+00
  -6.101686e+01  -3.027371e+01
  -6.790247e+00  -3.245258e+01
  -6.543130e+01   3.072700e+01
  -6.232511e+01   4.719313e+00
  -4.723620e+01  -4.000773e+01
   4.983225e+01  -1.717616e+02
   9.074789e+01  -1.136283e+02
   1.587997e+02  -7.290134e+00
   1.105052e+02   1.276585e+02
   3.688912e+01   1.202815e+02
  -8.713500e+01   1.322126e+01
  -3.250216e+01  -3.397858e+01
   7.108543e+01  -7.215187e+00
   1.467590e+02   8.332133e+01
   8.092612e+01   9.567285e+01
  -1.194157e+02   1.578527e+02
  -1.827133e+02   5.883660e+01
  -1.859330e+02  -5.448469e+01
  -3.555921e+01  -1.054015e+02
   6.880496e+01  -9.441299e+01
   6.219465e+01  -2.060467e+01
  -3.840177e+01   6.237997e+01
  -9.946203e+01   1.247477e+01
  -1.956213e+01  -1.057695e+02
   1.367899e+02  -1.146587e+02
   1.839810e+02  -4.595690e+01
   1.061416e+02   1.017151e+02
   2.574537e+01   1.622840e+02
  -7.353995e+01   1.251649e+02
  -1.033760e+02  -9.872415e+00
  -4.085990e+01  -1.379377e+02
   9.704325e+00  -1.252975e+02
   5.155638e+01   2.118552e+01
   4.564206e+01   1.177882e+02
   2.229860e+01   3.790926e+01
  -1.923462e+01  -1.924896e+01
   9.257020e+00   7.754402e+00
   2.914169e+01   1.023047e+02
   4.811222e+01   1.226837e+02
  -2.754875e+01   5.639143e+01
  -1.326902e+02  -4.791110e+01
  -1.456828e+02  -9.987536e+01
  -3.931401e+01  -4.027560e+01
   1.461201e+02  -5.077703e+01
   1.047543e+02  -7.854389e+00
   6.371366e+01   4.018037e+00
  -1.132501e+01   3.026756e+01
  -2.551634e+01   2.129985e+01
  -1.437813e+01  -1.783269e+01
  -1.649037e-01  -3.272833e+01
  -1.050680e+02  -6.492599e+00
  -7.134747e+01   6.643547e+00
   3.982176e+01  -9.943151e+01
   1.300939e+02  -9.141572e+01
   1.707539e+02  -3.041191e+01
   1.188488e+02   8.216894e+01
   3.145852e+01   2.166520e+02
  -6.888161e+01   1.831405e+02
  -1.290356e+02   5.914943e+01
  -1.014934e+02  -2.070133e+01
  -5.736201e+01  -2.525588e+01
  -3.469301e+01   2.110597e+01
  -2.550891e+01  -1.303172e+01
  -6.262225e+01  -6.463951e+01
   8.397087e+00  -7.965698e+01
   7.285523e+01  -6.800036e+01
   5.663270e+01   6.512636e+01
   6.385652e+01   8.804295e+01
   1.976705e+01   1.027662e+02
  -6.790981e+01  -2.943622e+00
  -9.721921e+01  -6.076964e+01
  -7.225548e+01  -7.981835e+01
   4.393980e+01  -5.546348e+01
   1.432445e+02   5.481693e+00
   2.546871e+01   2.299641e+01
  -6.475944e+00   8.182467e+01
  -6.886130e+01   3.527253e+01
  -7.098173e+00   3.895830e+00
   4.180165e+01  -4.433049e+01
   1.516546e+01   9.965057e+00
  -5.041130e+01   5.169635e+01
  -1.258506e+02   2.696023e+01
  -5.596548e+01  -1.941525e+00
   5.290111e+01  -1.382195e+02
   2.749606e+01  -7.805873e+01
   4.318716e+01   9.305423e-01
  -7.294401e+00   2.504526e+01
  -2.847630e+01   4.886892e+01
  -2.364446e+01   2.398032e+01
  -1.519526e+01  -2.481687e+01
   6.638109e+00  -2.098882e+01
   2.537699e+01   7.194164e+00
   2.980881e+01   2.350645e+01
   9.600529e+00  -1.892827e+01
  -2.384228e+01  -1.496039e+01
  -1.445572e+01  -1.126436e+00
  -8.969308e+00   6.639900e+01
  -3.882256e+00   7.205139e+01
  -4.392358e+01  -2.722232e+00
  -6.190360e+01  -7.029325e+01
  -1.129329e+00  -9.894008e+01
   6.714796e+01  -6.498715e+01
   6.991146e+01   4.746425e+01
   1.703863e+01   6.409680e+01
  -3.593514e+01   1.831974e+01
  -9.801315e+01  -2.454669e+01
  -4.824244e+01  -7.629892e+01
   4.458425e+01  -4.447372e+01
   7.584916e+01  -3.113927e+01
   3.942024e+01   2.039305e+01
  -3.926130e+01   3.202346e+01
  -4.568118e+01  -1.164412e+01
   5.153171e+01  -3.532726e+01
   1.011718e+02  -3.514138e+01
