
 $NMID
 id='ANONYMOUS ', fmtdat='(2E16.6)'
 volume=1.0
 tramp=1.0
 $END
   3.410883e+03  -1.352133e+02
   2.093776e+03   1.694383e+03
  -2.957095e+02   2.166455e+03
  -1.534252e+03   1.183070e+03
  -1.140171e+03  -2.588538e+02
   1.907415e+02  -4.254516e+02
   6.021452e+02   1.036964e+02
  -5.945382e+01   8.393375e+02
  -6.944419e+02   6.282105e+02
  -6.787504e+02  -2.019957e+01
  -3.938898e+02  -7.213652e+02
   4.614083e+01  -5.577538e+02
   3.468878e+02  -6.663023e+01
   1.606670e+02   5.317068e+02
  -2.404567e+02   5.401004e+02
  -5.240014e+02   9.427804e+00
  -2.151116e+02  -6.878920e+02
   1.601082e+02  -6.156965e+02
   5.161736e+02  -2.983642e+02
   2.686113e+02   2.340685e+02
   1.798560e+02   3.706305e+02
  -6.038495e+01   1.727769e+02
  -1.149620e+02   5.455865e+01
   2.344927e+02  -2.516322e+01
   2.149429e+02   3.480175e+02
   7.631432e+01   5.016000e+02
  -4.545365e+02   2.733669e+02
  -7.176063e+02  -2.089925e+02
  -2.867351e+02  -3.870480e+02
   2.571757e+02  -2.604933e+02
   6.840252e+02   1.605486e+02
   2.232171e+02   3.208713e+02
  -2.536406e+02   3.967188e+02
  -3.757351e+02   8.142037e+01
  -3.359143e+02  -1.899879e+02
  -3.781652e+01  -2.660842e+02
   7.510600e+01  -1.552151e+02
   2.902424e+01   1.604191e+02
  -1.370962e+02   2.285523e+02
  -3.338299e+02  -1.358274e+02
  -1.002719e+02  -5.009631e+02
   2.560087e+02  -5.067089e+02
   3.343345e+02   2.265697e+01
   1.006392e+02   3.339437e+02
  -1.967393e+02   1.339236e+02
  -1.577456e+02  -2.739155e+02
   1.242995e+02  -4.398440e+02
   4.355788e+02  -1.301097e+02
   4.938908e+02   3.387455e+02
   2.014661e+02   5.226556e+02
  -2.384809e+02   2.810539e+02
  -4.621921e+02  -2.804168e+01
  -3.510102e+02  -2.218412e+02
   3.451045e+01  -2.232002e+02
   3.067501e+02  -1.001076e+02
   2.250196e+02   2.795304e+01
  -3.866554e+01   3.387162e+01
  -9.679579e+01  -6.991429e+00
   9.263152e+01   1.065900e+01
   2.362656e+02   7.435492e+01
   9.103385e+01   1.766461e+02
  -1.900878e+02   1.557301e+02
  -3.739420e+02   4.587723e+01
  -2.713514e+02  -7.345936e+01
   2.100452e+01  -3.090123e+02
   2.874902e+02  -3.587419e+02
   3.886376e+02  -1.583370e+02
   2.301211e+02   1.880096e+02
   1.368508e+01   4.091727e+02
  -7.606612e+01   3.345487e+02
  -9.137764e+01   1.621392e+02
  -8.612727e+00   4.405669e+01
  -1.054357e+02   7.591822e+01
  -1.739456e+02   6.708206e+01
  -2.085895e+02  -7.855088e+01
  -7.658067e+01  -2.023400e+02
   1.107672e+02  -1.075497e+02
   1.455996e+02   9.353308e+01
   1.103474e+02   2.456521e+02
  -6.847530e+01   2.436873e+02
  -2.553848e+02   1.091660e+02
  -3.488318e+02  -1.730940e+02
  -1.752648e+02  -3.100747e+02
   5.532386e+01  -2.418452e+02
   1.529795e+02  -1.567316e+02
   1.270267e+02  -7.608903e+01
   1.134777e+02  -9.662553e+01
   1.933272e+02  -6.128497e+01
   3.836756e+02   1.375198e+02
   3.121646e+02   2.925962e+02
   2.023111e+01   4.041877e+02
  -3.509828e+02   3.601125e+02
  -4.696998e+02   1.514503e+02
  -2.912013e+02  -8.928065e+01
  -4.247037e+01  -2.691977e+02
   9.332233e+01  -1.789019e+02
  -2.085468e+00  -8.573142e+01
  -9.074004e+01   7.515436e+01
  -1.423393e+02  -1.966954e+01
   8.711643e+00  -1.780712e+02
   1.392336e+02  -1.185816e+02
   1.690039e+02   4.369516e+01
   7.041650e+00   1.694154e+02
  -1.378863e+02   1.512930e+01
  -1.437679e+02  -1.903376e+02
   3.581511e+01  -3.357170e+02
   2.291981e+02  -1.636333e+02
   3.380075e+02   8.112170e+01
   3.095655e+02   1.912714e+02
   6.947119e+01   2.364038e+02
  -1.391766e+02   8.933908e+01
  -1.396671e+02  -2.735043e+01
   2.748007e+01  -1.395715e+01
   8.354744e+01   5.030562e+01
   4.474503e+00   1.211384e+02
  -1.319435e+02   5.313358e+01
  -1.865582e+02  -2.563596e+00
  -1.759434e+01  -2.057663e+01
   8.679672e+01   3.530211e+01
   8.442462e+01   4.579453e+01
  -9.340637e+01   7.545834e+01
  -2.916245e+02  -4.795741e+00
  -2.770293e+02  -1.508147e+02
  -3.762797e+01  -2.460706e+02
   1.983277e+02  -1.875370e+02
   2.500575e+02  -8.484225e+01
   1.545909e+02   7.274028e+01
   2.597262e+00   8.132279e+01
  -6.257783e+01  -1.497753e+01
   4.882688e+01  -5.128180e+01
   1.330760e+02  -8.312022e+00
   1.411675e+02   8.981958e+01
   2.131671e+01   1.628919e+02
  -1.226489e+02   1.677534e+02
  -1.270195e+02   6.006324e+01
  -4.355174e+01  -4.311176e+00
   2.061499e+01   7.640409e+00
   1.505868e+01   7.580911e+01
  -1.588889e+02   1.146333e+02
  -2.299689e+02   3.643508e+01
  -1.719470e+02  -1.193973e+02
  -1.402743e+00  -2.085209e+02
   1.768676e+02  -1.568489e+02
   1.864922e+02  -9.526790e+00
   7.314069e+01   1.197028e+02
  -8.468713e+01   4.545244e+01
  -5.635231e+01   5.559850e+01
  -2.008146e+01  -1.688976e+01
   1.774470e+01  -3.155408e+01
   1.085497e+01  -1.894794e+00
  -4.906961e+01  -1.198984e+01
  -2.354438e+01  -8.346190e+01
   7.649535e+00  -1.077704e+02
   1.395788e+02  -1.057506e+02
   2.280846e+02  -5.105714e+01
   2.267975e+02   1.215230e+02
   9.605232e+01   2.456816e+02
  -6.913408e+01   1.358106e+02
  -8.715369e+01   3.472091e+01
  -8.771436e+01  -1.024503e+02
  -7.118487e+01  -3.776925e+01
  -7.841312e+01   3.447059e+01
  -7.664685e+01   6.588535e+01
  -4.479167e+01  -5.064666e+01
   3.747272e+01  -1.153100e+02
   4.786067e+01  -7.844452e+01
   5.838545e+01  -2.430461e+01
  -3.479214e+01   1.076977e+02
  -9.757652e+01   1.117728e+02
  -1.802386e+02  -2.854916e+01
  -7.774069e+01  -2.104398e+02
   1.228947e+02  -2.712051e+02
   3.110847e+02  -1.087846e+02
   3.069225e+02   3.382947e+01
   1.295260e+02   1.174428e+02
  -8.733785e+01   1.072327e+02
  -1.121696e+02   7.147450e+01
  -6.688541e+01   8.217873e+01
  -4.471069e+01   9.342723e+01
  -9.181933e+01   9.020702e+01
  -1.248115e+02  -3.386467e+00
  -9.651580e+01  -8.277471e+01
  -3.071960e+01  -1.655865e+02
   6.011906e+01  -1.933870e+02
   1.505679e+02  -4.939760e+01
   1.010115e+02   1.193097e+02
   4.527013e+01   1.869842e+02
  -8.215141e+01   7.671901e+01
  -5.549804e+01  -3.961026e+00
   1.601685e+01  -9.259629e+01
   4.249630e+00  -2.636239e+01
   5.057410e+00   4.228095e+01
  -1.012902e+02   2.901952e+01
  -8.397334e+01  -4.214702e+01
   4.261396e+01  -2.318284e+01
   1.676397e+02  -7.141781e-01
   1.415919e+02   5.716047e+01
  -3.247127e+00   4.521567e+01
  -1.233768e+02   4.909548e+01
  -1.177433e+02   2.273023e+01
  -1.154313e+01  -3.747838e+01
   1.148751e+02  -2.849354e+01
   1.417256e+02   2.780899e+00
   6.783703e+01   8.183361e+01
  -6.982900e+01   1.013100e+02
  -1.028481e+02   3.137052e+01
  -6.746467e+01  -6.158285e+01
  -8.869804e+01  -2.516982e+01
  -3.087800e+01  -3.698399e+00
  -1.078256e+02  -3.894859e+00
  -4.080566e+01  -5.484777e+01
   2.716051e+01  -1.034806e+02
   1.493083e+02  -1.037537e+02
   1.886002e+02  -1.195821e+01
   1.205510e+02   5.913608e+01
  -1.929990e+01   1.064677e+02
  -8.456195e+01   7.111584e+01
  -4.144177e+01  -3.546516e+01
   8.388069e+01  -3.127409e+01
   1.646325e+02  -2.025504e+01
   5.417481e+01   7.088426e+01
  -9.402754e+01   9.151834e+01
  -2.288449e+02   9.418997e+01
  -1.735298e+02  -1.523949e+01
  -4.302959e+01  -1.269592e+02
   2.381362e+01  -9.325568e+01
   5.998154e+01  -3.351646e+01
  -4.573431e+01  -1.244091e+01
  -1.152563e+02  -2.742513e+01
  -7.667640e+01  -8.134211e+01
   7.466511e+01  -1.698253e+02
   1.834253e+02  -8.094839e+01
   1.798346e+02   4.224875e+01
   2.265973e+01   1.502962e+02
  -1.026352e+02   1.426102e+02
  -1.289341e+02   2.128450e+01
  -8.748412e+01  -8.023010e+01
  -1.298617e+01  -8.562292e+01
   1.824926e+01  -3.956303e+01
   4.883244e+01   1.085042e+01
   2.720346e+01  -5.938224e+01
   5.807486e+01  -2.884167e+01
   8.009265e+01   2.033060e+01
   1.108863e+02   1.232510e+02
   2.929460e+01   1.217241e+02
  -3.927052e+00   1.051858e+02
  -1.206436e+02   2.758116e+00
  -1.282404e+02  -4.628141e+01
  -3.451743e+01  -4.639044e+01
   5.761165e+01  -2.351306e+01
   8.369940e+01  -6.882340e+01
   1.365122e+01  -6.965618e+00
  -4.036555e+01   4.904364e+01
   1.328023e+01   6.123281e+00
   3.573993e+01   7.699536e+00
   1.999514e+01   1.724821e+01
  -7.338556e+01   3.062174e+01
  -5.204772e+01  -4.483876e+01
  -2.908893e+01  -3.527684e+01
   1.090819e+02  -6.398431e+01
   1.617968e+02  -2.216995e+01
   1.907766e+02   5.653697e+01
   4.052877e+01   1.710952e+02
  -7.110698e+01   1.028043e+02
  -1.242716e+02   7.084236e+01
  -9.181357e+01  -1.846093e+01
   5.910942e+00   7.200799e+00
   6.140066e+00  -3.174088e+01
  -1.746342e+01   2.788042e+01
  -5.649605e+01  -2.348705e+01
  -9.327582e+01  -1.222666e+02
   3.362136e+01  -6.521068e+01
   4.501477e+01   3.950965e+01
   1.094340e+02   9.132369e+01
   7.245014e+00   7.994924e+01
  -1.030538e+02   3.677382e+00
  -1.378482e+02  -7.713524e+01
  -1.044758e+02  -1.260463e+02
   8.009409e+01  -8.369284e+01
   7.957562e+01  -3.146697e+01
   7.197201e+01   7.673424e+01
  -3.108116e+01   8.690545e+01
  -5.119272e+01   7.226376e+00
  -1.850199e+01  -5.484397e+01
   1.019394e+02  -4.441040e+01
   4.706580e+01  -2.511505e+00
  -2.834871e+01   8.998340e+01
  -6.606192e+01   8.236115e+01
  -5.071471e+01  -6.859856e+00
  -1.380292e+01  -3.677247e+01
   4.707231e+01  -5.278222e+01
  -3.753010e+00  -3.219662e+01
   2.780439e+01   9.330871e-01
  -2.846832e+01   4.120830e+01
  -4.159653e+01   2.611875e+01
  -7.850324e+01  -3.303991e+01
   1.071405e+01  -8.071505e+01
   1.957533e+01  -1.854961e+01
   5.057495e+01  -3.120432e+00
  -2.841696e+01   8.412501e+00
   2.759245e+01   4.819956e+00
  -6.911186e+00  -1.680299e+01
   7.528112e+00   4.532823e+01
   1.288025e+01   2.100231e+01
  -6.734101e+01  -1.721868e+01
   4.599008e+01  -7.054386e+01
  -1.109209e+01  -6.575501e+01
   4.556449e+01   5.876265e-01
   5.135124e+01   1.551893e+01
   3.872617e+01   9.823894e+01
   1.553745e+01   5.421804e+01
  -1.078393e+02  -1.431874e+01
  -7.430395e+01  -3.680856e+01
   3.894348e+01  -2.882385e+01
   5.946605e+01  -6.482185e+01
   2.959783e+01   4.666187e+00
  -5.785883e+01  -2.069088e+01
  -5.859294e+01  -4.250030e+01
   6.197075e+01  -1.240642e+01
   1.070616e+02  -1.411972e+01
