
 $NMID
 id='ANONYMOUS ', fmtdat='(2E16.6)'
 volume=1.0
 tramp=1.0
 $END
   3.604786e+03  -1.677297e+02
   2.140068e+03   1.698097e+03
  -3.019091e+02   2.080803e+03
  -1.541398e+03   9.998840e+02
  -8.288302e+02  -2.794751e+02
   3.338316e+02  -4.422547e+02
   5.200276e+02   3.901524e+02
   1.113885e+02   6.994373e+02
  -6.737417e+02   7.397277e+02
  -7.529238e+02  -6.013729e+01
  -5.132993e+02  -5.957069e+02
   1.245611e+02  -6.062760e+02
   4.787533e+02  -8.798289e+01
   2.646391e+02   5.586275e+02
  -1.103268e+02   6.454890e+02
  -4.638601e+02  -1.979234e+02
  -3.454593e+02  -7.098608e+02
   1.456357e+02  -7.801765e+02
   5.215235e+02  -2.774051e+02
   2.816487e+02   1.327023e+02
   1.897895e+02   3.383463e+02
  -5.490001e+01   1.964238e+02
  -2.317636e+02  -2.209406e+01
   1.281429e+02  -1.166058e+02
   3.185210e+02   1.394754e+02
   9.960673e+01   2.770310e+02
  -2.680650e+02   2.892479e+02
  -5.861113e+02  -8.343102e+01
  -2.689282e+02  -3.335881e+02
   3.270392e+02  -3.493948e+02
   5.845869e+02   1.977305e+01
   3.093548e+02   3.999945e+02
  -2.382034e+02   3.763874e+02
  -5.348681e+02   1.775081e+02
  -4.438371e+02  -1.971946e+02
   5.450358e-01  -3.694991e+02
   1.884905e+02  -2.493872e+02
   1.446044e+02   1.727883e+02
  -2.365489e+02   3.057280e+02
  -3.481293e+02  -1.114288e+02
  -1.653619e+02  -5.176678e+02
   2.364573e+02  -5.560467e+02
   5.139918e+02   3.861780e+01
   2.299615e+02   4.598354e+02
  -2.394528e+02   3.186251e+02
  -3.489881e+02  -2.779515e+02
   3.241172e+01  -4.602230e+02
   4.378282e+02  -1.078237e+02
   4.876849e+02   3.509538e+02
   1.120495e+02   4.181083e+02
  -3.025842e+02   2.520446e+02
  -4.607732e+02   1.745411e+01
  -3.162381e+02  -2.362347e+02
   7.443299e+01  -2.573932e+02
   2.860997e+02  -8.216262e+01
   1.995198e+02   9.766716e+01
  -1.021206e+02   7.316107e+01
  -1.086182e+02  -8.990189e+01
   1.152989e+02  -9.158370e+01
   2.746478e+02   8.669218e+01
   1.095969e+02   2.779986e+02
  -2.184663e+02   2.220054e+02
  -3.275425e+02   2.339720e+01
  -2.354299e+02  -1.447379e+02
   6.722288e+01  -1.724512e+02
   2.089161e+02  -2.200120e+02
   2.720760e+02  -1.173608e+02
   2.461580e+02   1.422435e+02
   9.437314e+01   3.060691e+02
  -5.556489e+01   2.037784e+02
  -2.138889e+01   7.104250e+01
   2.797813e+01   5.881070e+01
  -7.166300e+01   1.900465e+02
  -2.106104e+02   1.415732e+02
  -2.227087e+02  -6.160096e+01
  -9.804764e+01  -2.138261e+02
   1.094939e+02  -1.465468e+02
   1.592539e+02   4.123572e+01
   1.801099e+02   1.675115e+02
  -3.363546e+01   2.171838e+02
  -1.875168e+02   6.956588e+01
  -2.744499e+02  -1.097121e+02
  -1.537053e+02  -2.519133e+02
   6.356248e+01  -2.762330e+02
   1.610588e+02  -1.427730e+02
   1.167199e+02  -2.820827e+01
   7.492069e+01  -5.798628e+01
   1.669475e+02  -7.690610e+01
   3.561460e+02   6.255506e+01
   2.841393e+02   2.252221e+02
   1.835283e+01   3.758931e+02
  -2.568824e+02   3.182438e+02
  -3.567808e+02   1.300125e+02
  -3.008022e+02  -9.880548e+01
  -5.772805e+01  -2.783943e+02
   1.077318e+02  -2.066112e+02
   8.334276e+01   2.275289e+01
  -1.145481e+02   1.282342e+02
  -1.449410e+02   3.380097e+01
  -5.298299e+01  -1.214408e+02
   7.939484e+01  -1.206638e+02
   1.044751e+02   4.308861e+01
  -4.657432e+01   1.328298e+02
  -1.701706e+02   1.537479e-01
  -6.741088e+01  -2.257334e+02
   1.984159e+01  -2.797404e+02
   2.401217e+02  -1.842334e+02
   2.550460e+02   4.315509e+01
   2.151788e+02   1.868181e+02
   1.050764e+02   2.221275e+02
  -1.111970e+02   1.596406e+02
  -1.545082e+02   8.637455e+01
  -2.520840e+01  -1.757221e+01
  -1.540414e+01   6.635045e+01
  -1.180540e+01   1.099851e+02
  -9.419297e+01   3.715054e+01
  -1.126346e+02  -4.572734e+01
  -1.790499e+01  -6.433232e+01
   6.601664e+01  -4.840595e+00
   4.382728e+01   2.953129e+01
  -1.110608e+02   3.459281e+01
  -2.084622e+02  -2.045637e+01
  -2.356767e+02  -9.916875e+01
  -5.844761e+01  -2.171047e+02
   1.891654e+02  -1.904532e+02
   2.522461e+02  -1.217327e+02
   1.271054e+02   2.771751e+01
  -8.676147e+00   9.738816e+01
  -6.548708e+01  -2.134615e+01
   7.928462e+01  -1.144064e+02
   1.601786e+02  -6.219473e+01
   1.703719e+02   9.727215e+01
   6.253720e+00   2.039988e+02
  -1.051042e+02   1.409390e+02
  -1.174603e+02   3.975467e+01
  -6.779523e+01  -8.329451e+01
   3.500800e+01   2.722148e+01
   6.814090e+01   9.752356e+01
  -4.911456e+01   9.954765e+01
  -1.411156e+02   4.152805e+01
  -1.691548e+02  -7.347737e+01
  -5.427811e+01  -1.637947e+02
   1.079284e+02  -1.532932e+02
   1.151043e+02  -1.547459e+01
   2.706873e+01   7.652360e+01
  -8.050343e+01   1.007437e+02
  -4.412258e+01  -5.909413e-01
  -1.689048e+01  -6.691687e+01
  -7.041666e-01  -3.142553e+01
   9.509087e+00  -4.238920e+00
  -2.614961e+01   2.227846e+01
  -6.369916e+01  -5.912195e+01
   1.016945e+01  -1.539533e+02
   1.281288e+02  -1.353295e+02
   1.734918e+02  -7.956758e+00
   8.769570e+01   1.574593e+02
   3.467194e+00   1.782891e+02
  -9.155073e+01   1.340030e+02
  -8.386055e+01   2.311079e+01
  -4.480878e+01   2.205509e+00
  -5.376121e+01  -3.418083e+01
  -1.758305e+01   4.949120e+01
  -1.050246e+02   1.388153e+01
  -7.919631e+01  -9.432973e+01
   4.746460e+01  -1.028484e+02
   1.283157e+02  -4.268867e+01
   1.095981e+02   5.605972e+01
  -4.014826e+01   1.208734e+02
  -7.300788e+01   7.456346e+01
  -1.935218e+02  -5.872684e+01
  -1.425640e+02  -1.954786e+02
   9.013888e+01  -2.503108e+02
   1.775076e+02  -7.026034e+01
   2.227332e+02   1.150316e+02
   1.247694e+02   1.531773e+02
   1.619133e+01   1.041847e+02
  -7.929650e+01   6.847010e+01
  -8.022539e+01   4.910000e+01
  -5.531393e+01   6.086275e+01
  -8.348445e+01   6.874522e+01
  -9.144032e+01   3.971948e+00
  -1.422349e+02  -1.514656e+02
  -6.933625e+01  -2.082976e+02
   7.410573e+01  -1.416619e+02
   1.261307e+02  -8.803892e+00
   1.011761e+02   7.091245e+01
   8.167208e+01   1.126514e+02
  -5.859633e+01   7.598940e+01
  -3.093657e+01   3.527643e+01
   8.024962e+00  -2.657250e+01
   1.043543e+01  -4.465161e+01
  -1.852478e+01  -2.633641e+01
  -9.453119e+01  -5.896941e+01
  -3.038830e+01   4.850888e+00
   7.809885e+01  -2.900461e+00
   1.457350e+02   1.986696e+01
   1.001974e+02   4.269735e+01
   1.645323e+01   3.824730e+01
  -1.002390e+02   5.764147e+01
  -1.204762e+02   4.697832e+01
  -8.606546e+01  -1.693646e+01
   6.847759e+01  -7.933472e+01
   3.820928e+01  -1.991250e+00
  -1.231145e+00  -9.812041e+00
  -7.652339e+01   3.909936e+01
  -4.948807e+01   6.943607e+00
  -4.130630e+01  -3.017622e+01
  -8.619150e+01  -4.623005e+00
  -6.309638e+01   7.795141e+00
  -4.990767e+01  -3.912709e+01
  -6.422307e+01  -8.784805e+01
   1.926940e+01  -1.453688e+02
   5.820428e+01  -1.128072e+02
   1.395186e+02  -3.908333e+00
   7.397102e+01   7.321111e+01
  -9.151574e+00   4.904167e+01
  -4.582148e+01   5.568753e+01
  -5.963972e+01   4.543626e+00
   5.272525e+01  -3.240687e+01
   7.481705e+01   3.158553e+01
   3.155529e+01   1.297506e+02
  -8.290492e+01   1.294922e+02
  -1.728851e+02   4.981248e+01
  -9.046171e+01  -2.204553e+01
  -3.723180e+01  -8.623620e+01
   9.819610e+01  -7.404995e+01
   3.982216e+01  -2.813038e+01
  -6.780081e+01   4.521800e+01
  -3.441153e+01   1.943720e+01
  -4.079086e+01  -9.407121e+01
   8.545046e+01  -9.750088e+01
   1.229449e+02  -6.708181e+01
   5.539363e+01   5.999114e+01
   2.945156e+00   1.383115e+02
  -2.717780e+01   9.013734e+01
  -6.834876e+01  -2.209003e+00
  -1.221432e+01  -7.044846e+01
   4.359217e+01  -8.689385e+01
   4.013738e+01  -2.331480e-01
   1.413143e+01   4.708373e+01
  -3.892690e+00   3.461890e+01
   3.268797e+01  -2.457542e+00
  -6.049966e+00   6.918836e+01
   2.575266e+01   4.047093e+01
   2.138792e+01   8.220891e+01
  -3.872111e+01   3.333510e+01
  -8.612685e+01  -3.947931e+01
  -8.306740e+01  -7.110409e+01
  -8.059238e+00  -1.539051e+01
   6.300510e+01  -5.665743e+01
   5.962714e+01   4.951727e+01
   3.303698e+01   3.897208e+00
  -5.202914e+01   1.137407e+00
  -4.472658e+01   3.448315e+01
  -4.095065e+01  -1.059349e+01
  -2.114779e+01  -8.599014e+00
  -4.913458e+01  -1.927760e+01
  -6.860812e+01  -6.287262e+01
   2.306038e+01  -8.417139e+01
   6.971321e+01  -9.657142e+01
   1.781005e+02  -1.273020e+01
   1.353165e+02   7.523178e+01
   7.690493e+00   1.102546e+02
  -2.438345e+01   1.490222e+02
  -1.156024e+02   6.154300e+01
  -1.751421e+01  -2.877557e+00
  -4.214438e+01  -5.765421e+01
  -1.732669e+01  -3.477590e+00
  -7.607573e+00  -2.966056e+01
  -7.953560e+01  -4.232482e+01
  -2.319825e+00  -1.242893e+02
   4.755837e+01  -8.333898e+01
   3.192168e+01   3.565454e+01
   8.638330e+01   6.257885e+01
   2.467423e+01   1.021071e+02
  -6.851757e+01   7.860169e-02
  -1.168854e+02  -5.581141e+01
  -6.334394e+01  -1.224907e+02
   2.531737e+01  -5.573218e+01
   7.380012e+01  -2.478597e-01
   7.055296e+01   4.373990e+01
   3.454085e+01   2.347644e+01
   1.830553e+00   1.207151e+01
  -1.324006e+01   1.903343e+01
   4.766888e+01   4.976313e+01
  -1.464934e+01   1.249654e+02
  -1.147717e+02   2.092402e+01
  -1.141648e+02   2.181444e+01
  -4.842696e+01  -2.919203e+01
   4.074116e+00  -1.129918e+02
   1.086265e+02  -7.841377e+01
   6.063450e+01  -4.821732e+01
   3.296277e+01   4.884659e+01
  -1.437997e+00   4.715483e+01
  -1.855066e+01  -1.763567e+01
  -1.393212e+01  -2.753081e+01
   3.666403e+00  -1.330186e+01
  -8.117075e+00   9.540866e+00
   4.215307e+00  -3.921935e+01
  -1.010442e+01   1.202467e+01
   6.903566e+01  -7.427287e-01
   1.796937e+01   3.552081e+01
   2.940393e+01   4.958098e+01
  -6.685284e+00   1.340983e+01
  -5.110537e+01   2.616962e+01
  -2.051266e+01  -7.742793e+01
  -1.889751e+01  -5.671774e+01
   6.695374e+01   1.819257e+01
   5.427354e+01  -6.332251e+00
   4.426993e+01   8.798087e+01
  -9.383882e+00   3.141328e+01
  -7.241141e+01  -1.688015e+01
  -5.400362e+01  -6.011977e+01
   3.445220e+01  -4.670963e+01
   2.275568e+01   1.246315e+01
   1.373397e+01  -3.162919e+01
  -5.164332e+01  -1.467166e+01
  -3.705632e+01  -6.118249e+01
  -7.513178e+00  -1.814862e+01
   4.101223e+01  -1.694906e+01
