
 $NMID
 id='ANONYMOUS ', fmtdat='(2E16.6)'
 volume=1.0
 tramp=1.0
 $END
  -4.547151e+03   1.031763e+02
  -2.651775e+03  -2.863502e+03
   9.863419e+02  -2.912326e+03
   2.510982e+03  -6.952544e+02
   1.058975e+03   1.039574e+03
  -8.331586e+02   5.196166e+02
  -1.091900e+03  -6.803742e+02
   1.987931e+02  -1.365587e+03
   1.037109e+03  -7.661085e+02
   7.775694e+02   2.460988e+02
   4.270849e+02   9.520698e+02
  -2.909599e+02   9.138047e+02
  -7.194379e+02   9.146566e+01
  -3.692113e+02  -7.424192e+02
   1.793982e+02  -8.260604e+02
   6.577066e+02  -4.542002e+00
   2.676541e+02   7.349456e+02
  -3.283215e+02   5.591145e+02
  -6.491489e+02   2.328420e+01
  -2.408647e+02  -3.394103e+02
   7.542661e+01  -6.068912e+02
   3.200135e+02  -2.850358e+02
   3.277668e+02   3.389741e+01
  -1.826361e+01   1.133434e+02
  -5.642797e+02  -7.565890e+01
  -1.543440e+02  -5.643839e+02
   5.661961e+02  -5.678348e+02
   8.456152e+02   1.280008e+02
   4.978660e+02   4.690307e+02
  -4.289768e+02   4.435068e+02
  -7.841010e+02   7.992787e+01
  -2.809913e+02  -4.480561e+02
   3.428426e+02  -5.342635e+02
   5.546892e+02  -2.219818e+02
   4.246735e+02   3.754227e+02
   7.377390e+01   6.447729e+02
  -3.189201e+02   3.108870e+02
  -2.394981e+02  -2.146609e+02
   1.391341e+02  -5.052530e+02
   4.839075e+02  -8.644898e+01
   3.242517e+02   7.285770e+02
  -3.356143e+02   7.519996e+02
  -6.560173e+02   2.964794e+01
  -2.816544e+02  -5.725343e+02
   3.811940e+02  -4.346543e+02
   4.040936e+02   3.148261e+02
  -5.565480e+01   5.625007e+02
  -6.317783e+02   1.666799e+02
  -6.735975e+02  -4.230934e+02
  -1.783176e+02  -5.705270e+02
   3.989052e+02  -3.797476e+02
   6.682540e+02   9.439667e+01
   3.926448e+02   3.988502e+02
  -1.438655e+02   3.353002e+02
  -5.019426e+02   3.972556e+01
  -2.496942e+02  -2.033932e+02
   1.265845e+02  -1.090157e+02
   1.983975e+02   1.845760e+02
  -1.690945e+02   2.512359e+02
  -4.418642e+02  -3.305030e+01
  -1.805122e+02  -3.131249e+02
   1.562670e+02  -2.823283e+02
   3.103383e+02  -4.314692e+01
   1.344781e+02   7.825945e+01
  -8.343357e+01   1.342762e+02
  -2.229234e+02   3.037775e+02
  -3.660321e+02   1.808715e+02
  -3.108829e+02  -1.133923e+02
  -5.700203e+01  -4.337401e+02
   1.504020e+02  -3.970917e+02
   8.899895e+01  -9.148925e+01
   8.212242e+00   4.509788e+01
   3.009613e+01  -5.283960e+01
   1.766754e+02  -1.224586e+02
   2.794106e+02   5.815586e+01
   1.266351e+02   3.058519e+02
  -1.130958e+02   2.882994e+02
  -2.773984e+02   4.265380e+01
  -1.735317e+02  -2.468075e+02
   1.551795e+01  -3.071622e+02
   2.635292e+02  -1.474048e+02
   3.050548e+02   1.474755e+02
   1.795268e+02   3.779830e+02
  -8.922013e+01   3.558323e+02
  -2.894510e+02   1.399786e+02
  -1.614612e+02   2.161019e+01
  -1.320409e+02  -1.246644e+01
  -2.367490e+02   1.093423e+01
  -4.342202e+02  -5.055972e+01
  -3.018128e+02  -3.259158e+02
   8.018556e+00  -4.635807e+02
   3.475860e+02  -3.951299e+02
   4.721999e+02  -1.927529e+02
   3.459062e+02   1.316289e+02
   8.066367e+01   3.316401e+02
  -9.742344e+01   3.525522e+02
  -1.207386e+02   6.209800e+01
   6.042025e+01  -1.792432e+02
   1.813785e+02  -4.540340e+01
   8.161892e+01   1.716851e+02
  -1.881936e+02   2.240098e+02
  -1.974113e+02  -5.523016e+01
   5.088973e+00  -2.423535e+02
   2.227758e+02  -8.079195e+01
   1.519380e+02   2.338631e+02
  -6.201634e+01   3.333203e+02
  -2.530876e+02   1.953291e+02
  -3.040370e+02  -7.943470e+01
  -2.777479e+02  -3.023996e+02
  -1.221199e+02  -3.160064e+02
   1.255320e+02  -1.702904e+02
   2.522203e+02  -4.802435e+01
   1.245363e+02   1.688788e+01
  -3.547944e+01  -4.179868e+01
  -4.813523e+01  -6.881376e+01
   7.925211e+01  -7.237903e+01
   1.564816e+02   7.919872e+00
   1.241138e+02   9.905758e+01
  -2.866145e+01   1.437570e+01
  -1.046955e+02  -7.237513e+01
   8.676092e+01  -7.532447e+01
   2.832498e+02   1.483642e+01
   2.186983e+02   1.496887e+02
   3.939803e+01   2.785943e+02
  -1.899518e+02   1.998744e+02
  -2.921110e+02   1.079173e+02
  -1.213616e+02  -2.814349e+01
   6.118800e+01  -1.195653e+02
   8.891845e+01  -1.200754e+01
  -7.284100e+01   8.137582e+01
  -2.627467e+02   8.630460e+01
  -1.706248e+02  -7.175272e+01
  -4.817818e+01  -1.981236e+02
   8.110634e+01  -1.558162e+02
   1.623145e+02  -6.766771e+01
   7.212628e+01  -3.357891e+00
  -4.583107e+00   1.059642e+01
  -3.693500e+01  -1.426434e+01
   8.763253e+01  -9.831728e+01
   1.990667e+02   2.029473e+00
   1.888461e+02   1.631409e+02
  -3.246977e+00   1.901118e+02
  -1.689773e+02   1.744968e+02
  -1.538429e+02  -1.257223e+01
  -6.967208e+01  -1.286486e+02
  -2.082322e+00  -1.243542e+02
   1.197710e+02  -3.339740e+01
   4.069103e+01  -2.320878e+01
   2.022184e+00  -3.881710e+01
   4.084956e+01  -5.417834e+01
   6.724455e+01  -2.859685e+00
   6.676187e+01   1.106877e+02
  -2.479703e+00   2.188010e+02
  -1.602439e+02   1.316412e+02
  -2.439005e+02  -2.644413e+01
  -1.805488e+02  -1.882993e+02
   2.234998e+01  -2.799034e+02
   1.592653e+02  -1.414517e+02
   1.737109e+02   2.026516e+01
   7.813774e+01   7.264540e+01
   2.991100e+01   6.604635e+01
   7.912411e+01  -4.243663e+01
   6.174399e+01  -3.966452e+01
   2.967786e+01   3.196125e+01
  -5.691094e+01   1.060587e+02
  -9.831324e+01   4.378765e+01
  -9.323215e+01  -4.221168e+01
  -2.788413e+01  -1.385959e+02
   1.756310e+02  -5.607684e+01
   2.240279e+02   5.108956e+01
   1.094737e+02   2.307341e+02
  -1.219684e+02   2.431750e+02
  -2.943478e+02   9.333795e+01
  -2.428557e+02  -1.202751e+02
  -9.810837e+01  -2.178943e+02
   5.472144e+01  -2.178379e+02
   5.857925e+01  -1.105016e+02
   4.521399e+01  -2.611729e+01
   6.215245e+01  -1.024337e+02
   1.044812e+02  -9.888860e+01
   1.526125e+02  -1.221843e+01
   1.609094e+02   1.710442e+02
   4.317980e+01   2.579253e+02
  -9.318212e+01   1.803318e+02
  -1.591491e+02   2.908584e+01
  -1.415162e+02  -1.344077e+02
  -2.654535e+01  -1.791374e+02
   7.964905e+01  -7.259998e+01
   9.243623e+01   6.317575e+00
   2.898661e+01   7.020298e+01
   7.922462e+00   1.763010e+01
   2.958171e+01   4.998686e+01
   6.463955e+01  -3.236160e+00
   4.565068e+01   5.467725e+01
  -7.424769e+01   3.008741e+01
  -1.231148e+02   5.293079e+00
  -1.159512e+02  -7.968226e+01
  -2.406570e+01  -8.522873e+01
   1.006232e+02   6.758465e+00
   1.420849e+02   3.448393e+00
   6.782090e+01   1.594055e+01
  -6.166243e+01   3.464007e+01
  -8.402845e+01  -1.823465e+01
  -8.811060e+00  -7.129171e+01
   9.392629e+01  -7.081141e+01
   4.604609e+01  -1.943785e+01
   2.674123e+01   6.742573e+01
   7.319814e+00   7.969969e+00
   7.294469e+01  -1.887899e+00
   7.656463e+01  -5.097385e-02
   3.408261e+01   8.187789e+01
  -3.231132e+01   2.044816e+02
  -1.065283e+02   1.147005e+02
  -1.393417e+02   4.565507e+01
  -8.777747e+01  -9.277272e+01
   1.566844e+01  -1.270874e+02
   9.814463e+01  -5.690024e+01
   4.543154e+01   6.677139e+01
  -5.950666e+01   6.874543e+01
  -1.933655e+02  -4.256331e+01
  -1.035824e+02  -1.038573e+02
   8.800313e+01  -1.252887e+02
   1.341318e+02  -5.387938e+01
   1.384537e+02   3.050174e+01
   2.301496e+01   7.118689e+01
  -4.343382e+01   5.609606e+01
  -5.652726e+00  -2.779693e+01
  -1.118141e+01  -4.829177e+01
   8.384569e+01   5.627633e+01
   4.868122e+01   1.014517e+02
  -3.280602e+01   1.744537e+02
  -1.794928e+02   2.981494e+01
  -1.418064e+02  -1.341812e+02
  -1.875338e+01  -1.659315e+02
   1.374781e+02  -1.313473e+02
   1.020755e+02  -1.449033e+01
   3.545668e+01   1.303796e+02
  -6.340900e+00   1.261355e+02
  -5.747306e+01   3.680306e+01
  -8.252052e+01  -3.421340e+01
  -3.315005e+01  -1.040598e+01
   4.192698e+00   3.443130e+01
  -4.083439e+01  -6.092850e+01
  -1.125325e+01  -1.036325e+02
  -8.658772e+00  -9.543503e+01
   8.286819e+01  -9.335175e+00
   1.259169e+02  -4.676492e+00
   1.169228e+02   6.976651e+01
  -7.866183e+00   7.204024e+01
  -6.264406e+01   2.668598e+01
  -8.391278e+01   6.888263e+01
  -1.937166e+01   1.673743e+01
   5.874235e+01   9.337303e+00
  -4.232817e+01  -4.014584e+01
  -3.495753e+01  -5.987438e+01
   3.150417e+01   1.440152e+01
   7.783547e+01   3.083023e+01
   9.188681e+01   3.729164e+01
   4.582735e+00   6.330275e+01
  -1.211907e+02   6.756062e+01
  -1.703174e+02   6.809815e+01
  -1.398446e+02  -6.478092e+01
  -8.293402e+01  -1.514653e+02
   9.168011e+01  -1.258052e+02
   1.117646e+02  -2.602398e+01
   9.803282e+01   6.428302e+01
   3.911859e+01   3.635671e+01
  -4.312238e+01  -5.023608e+01
  -1.260518e+01   2.583106e+01
   3.409588e+01   5.132510e+01
   2.781201e+01   9.659528e+01
  -6.649243e+01   4.175702e+01
  -7.145993e+01  -7.427922e+00
  -5.892329e+01  -1.308767e+02
   3.006725e+00  -1.127427e+02
   9.175003e+01  -5.893856e+01
   1.117086e+02   4.839443e+01
   2.866127e+01   1.005513e+02
  -7.976539e+01   6.849837e+01
  -1.122223e+02  -2.810839e+00
  -3.159029e+01  -5.283948e-01
   4.897332e+01  -1.657264e+01
   2.015593e+00  -4.003019e+01
  -3.117041e+01  -2.072013e+01
  -3.997790e+01  -2.469905e+01
  -1.160956e+01   5.297893e+00
   8.975432e+01  -1.042990e+01
   1.030678e+02  -4.682095e+01
   3.198340e+01  -1.729493e+01
  -3.118343e+01   5.411659e+01
  -5.543861e+01   7.876186e+01
   1.260142e+01  -3.400712e+01
  -1.269403e+01  -3.474890e+01
   4.279176e+01  -1.764346e+01
   5.111689e+01   5.592980e+01
   2.332023e+01   5.228302e+01
   1.843122e+01  -4.217494e+01
  -4.043428e+01  -2.486324e+00
  -4.897996e+01  -3.032219e+00
   3.040891e+01   3.505807e+01
   5.942938e+00   7.806114e+00
  -5.547217e+01  -3.248875e+00
  -1.733761e+00  -2.887075e+00
   1.837823e+01  -3.154315e+01
   6.122268e+01  -4.214714e+00
   2.597159e+01   6.546730e+01
  -2.505937e+01   3.396025e+01
  -6.503674e+01  -5.074125e-01
  -7.582320e+01  -3.475244e+01
  -5.601417e+01  -4.837957e+01
   7.869624e+01  -4.567824e+01
   1.548861e+02   3.035961e+01
   7.551299e+01   3.694924e+01
  -5.096322e+01   1.600970e+01
  -8.311351e+01   2.091863e+01
   1.372996e+01  -1.750694e+01
   6.882359e+01  -2.534097e+01
   6.103089e+01   3.750924e+01
  -9.646957e+01   1.681377e+01
  -4.841789e+01   4.033353e+01
