
 $NMID
 id='ANONYMOUS ', fmtdat='(2E16.6)'
 volume=1.0
 tramp=1.0
 $END
   4.639981e+03  -3.198170e+02
   2.701319e+03   2.949026e+03
  -9.285190e+02   3.049811e+03
  -2.482904e+03   5.892110e+02
  -9.740825e+02  -7.232741e+02
   7.759944e+02  -5.466441e+02
   1.011819e+03   5.859622e+02
  -6.013562e+01   1.273824e+03
  -8.777534e+02   8.771402e+02
  -1.037733e+03  -2.022964e+02
  -5.812772e+02  -8.555540e+02
   2.568135e+02  -9.982239e+02
   6.799613e+02  -1.836836e+02
   3.565127e+02   9.193136e+02
  -1.831580e+02   7.939365e+02
  -7.447180e+02   2.198382e+01
  -1.636173e+02  -8.405871e+02
   4.704159e+02  -4.282770e+02
   5.281791e+02  -3.133981e+01
   4.354581e+02   4.739381e+02
  -1.404382e+01   4.853856e+02
  -4.663425e+02   1.661828e+02
  -9.085940e+01  -4.119123e+01
   1.408604e+02  -5.535628e+01
   4.855250e+02   8.492418e+01
   3.569292e+02   5.509837e+02
  -4.123440e+02   4.250985e+02
  -9.046101e+02  -4.709010e+01
  -3.379788e+02  -6.162977e+02
   4.195158e+02  -5.670841e+02
   7.198567e+02   5.779622e+01
   2.715594e+02   4.979767e+02
  -3.366136e+02   6.144173e+02
  -6.736465e+02   2.243789e+02
  -4.628718e+02  -2.891342e+02
  -4.404027e+01  -5.078061e+02
   2.505940e+02  -3.662707e+02
   2.582575e+02   2.554379e+02
  -9.559583e+01   3.967731e+02
  -4.749999e+02  -1.727306e+01
  -2.325422e+02  -7.151514e+02
   4.048307e+02  -6.930524e+02
   6.415865e+02   2.359545e+01
   2.688474e+02   5.340411e+02
  -3.300498e+02   3.230863e+02
  -4.367121e+02  -3.008258e+02
   9.417966e+01  -5.794251e+02
   6.349197e+02  -1.340269e+02
   5.959568e+02   3.873397e+02
   1.931625e+02   6.247879e+02
  -4.203841e+02   4.203974e+02
  -6.486283e+02  -7.595427e+00
  -4.486898e+02  -4.083625e+02
   1.307991e+02  -4.049329e+02
   4.673631e+02  -6.941773e+01
   3.079990e+02   2.463076e+02
  -1.392803e+02   1.543091e+02
  -2.491994e+02  -1.507640e+02
   1.119787e+02  -2.015955e+02
   3.399557e+02   5.901338e+01
   1.682668e+02   2.817116e+02
  -1.748893e+02   2.589897e+02
  -3.286511e+02   1.123185e+02
  -2.782026e+02  -8.964786e+01
   2.750593e+00  -2.697412e+02
   2.277437e+02  -3.601072e+02
   4.073209e+02  -1.767354e+02
   2.619924e+02   2.416106e+02
   4.560007e+01   4.285487e+02
  -1.594387e+02   3.771173e+02
  -1.171247e+02   8.770056e+01
  -1.669503e+01  -1.618572e+01
   1.017031e+01   6.363153e+01
  -1.875489e+02   1.175341e+02
  -3.079882e+02  -4.090878e+01
  -2.041443e+02  -2.157287e+02
   1.707355e+01  -2.955847e+02
   2.688068e+02  -8.459008e+01
   2.211296e+02   1.819477e+02
   5.132938e+01   3.423768e+02
  -3.251169e+02   1.400277e+02
  -4.131599e+02  -1.182942e+02
  -2.159260e+02  -3.642119e+02
   1.532771e+02  -3.315404e+02
   2.590434e+02  -1.461909e+02
   1.527003e+02  -5.747443e+00
   3.851523e+01   2.027356e+00
   1.820384e+02  -6.426986e+01
   4.296524e+02   4.129763e+01
   3.736188e+02   2.345679e+02
   5.406587e+01   4.803438e+02
  -3.814193e+02   4.840589e+02
  -4.576391e+02   2.633383e+02
  -3.947017e+02  -1.163190e+02
  -8.531682e+01  -2.647084e+02
   1.231181e+02  -2.561313e+02
   1.090480e+02   1.598832e+01
  -1.305297e+02   1.125735e+02
  -2.366599e+02  -7.526603e+01
  -2.416439e+01  -2.376159e+02
   1.624886e+02  -2.029289e+02
   2.215715e+02   7.323231e+01
   3.209663e+01   1.652142e+02
  -1.981562e+02   5.943810e+01
  -2.444825e+02  -2.467516e+02
  -1.885981e+01  -3.441239e+02
   2.083759e+02  -2.476196e+02
   3.520322e+02   4.595585e+01
   2.298399e+02   2.462494e+02
   5.770632e+01   2.494868e+02
  -1.454532e+02   1.845907e+02
  -1.462796e+02   5.369205e+01
   6.522513e-01  -5.383729e+01
   8.055274e+01   4.266688e+01
   5.871772e+00   1.226143e+02
  -1.848577e+02   1.037897e+02
  -1.720204e+02   1.794488e+01
  -5.330697e+01  -3.897875e+01
   7.981462e+01  -4.880974e+01
   2.283402e+01   7.385271e+01
  -1.293576e+02   7.246825e+01
  -2.895717e+02  -6.185208e+01
  -2.871320e+02  -1.862192e+02
  -4.247530e+01  -3.139423e+02
   2.371291e+02  -2.827869e+02
   2.663287e+02  -8.192262e+01
   2.043661e+02   6.111015e+01
  -5.178304e+01   5.498126e+01
  -8.350386e+01  -1.454468e+01
   4.135015e+01  -1.107122e+02
   2.300510e+02  -1.306156e+01
   2.435773e+02   9.429544e+01
   9.130563e+01   1.981967e+02
  -8.424855e+01   1.289831e+02
  -1.495095e+02   5.719312e+01
  -1.150746e+02  -1.980078e+01
  -8.014394e-01  -4.912337e+01
   4.195139e+01   7.263728e+01
  -6.844389e+01   9.173159e+01
  -2.180941e+02  -9.939336e+00
  -1.752380e+02  -1.427625e+02
   3.814278e+00  -2.360461e+02
   2.002862e+02  -1.458831e+02
   2.016431e+02  -2.279046e+01
   6.707613e+01   1.308659e+02
  -2.945267e+01   1.342044e+02
  -7.760859e+01   1.085195e+02
  -1.689868e+01  -1.675135e+01
   4.217775e+01  -4.168368e+01
  -2.160972e+01   1.609075e+01
  -7.477597e+01   1.452263e+01
  -6.631536e+01  -5.995575e+01
  -4.719385e+01  -1.267766e+02
   1.554632e+02  -1.393152e+02
   2.044196e+02  -1.124920e+01
   2.764234e+02   1.817657e+02
  -8.997082e+00   2.673733e+02
  -1.425950e+02   1.594195e+02
  -1.387981e+02   2.182819e+01
  -1.079082e+02  -7.006851e+01
   7.704848e+00  -3.583458e+01
  -5.958011e+01  -4.240737e+01
  -3.334991e+01  -4.171271e+01
  -1.785399e+01  -1.090612e+02
   7.268552e+01  -7.104547e+01
   7.249871e+01   6.622798e+00
   8.138613e+01   7.608093e+01
  -2.168887e+01   1.295883e+02
  -1.847569e+02   6.110101e+01
  -1.714566e+02  -9.073330e+01
  -5.953568e+01  -2.596565e+02
   1.419840e+02  -2.300638e+02
   2.661959e+02  -1.133692e+02
   2.364864e+02   7.711965e+01
   6.138476e+01   2.195096e+02
  -2.995038e+01   1.828492e+02
  -1.054337e+02   1.395173e+02
  -5.166029e+01   3.372420e+01
  -1.070401e+02   5.908357e+01
  -1.078401e+02   7.017691e+01
  -1.594248e+02  -5.781947e+01
  -1.419989e+02  -1.602801e+02
  -1.735323e+01  -2.563411e+02
   1.371952e+02  -1.680466e+02
   2.192401e+02  -2.189620e+01
   1.051155e+02   1.598669e+02
   2.894342e+01   1.691231e+02
  -3.773009e+01   7.313253e+01
  -5.052337e+01  -3.435694e+01
  -2.092378e+01  -2.588528e+01
   1.228968e+00   3.088991e+01
  -8.098771e+00  -4.710826e+01
  -9.425544e+01   4.623874e+00
  -7.533357e+01  -5.054400e+01
   5.281179e+01  -2.441196e+01
   1.455113e+02   1.556231e+01
   2.060250e+02   3.483002e+01
   1.366219e+01   2.976970e+01
  -1.286657e+02   6.356815e+01
  -1.485144e+02   6.421275e+01
  -3.862528e+01  -5.325595e+01
   9.175609e+01  -3.399857e+01
   8.947427e+01  -7.573145e+00
  -1.791108e+01   7.526109e+01
  -4.853650e+01   6.149518e+01
  -2.275153e+01   2.325037e+01
  -3.471676e+01  -6.194870e+01
  -6.357732e+01  -5.404335e+01
  -1.071996e+02   1.781863e+01
  -8.629069e+01  -1.105379e+01
  -6.832224e+01  -4.784794e+01
   8.211316e+00  -1.247316e+02
   1.166754e+02  -1.366757e+02
   1.562045e+02  -2.559399e+01
   7.340038e+01   1.160907e+02
  -1.988162e+01   8.052896e+01
  -7.325999e+01   6.623711e+01
  -6.327719e+01  -6.017198e+00
   3.916273e+01   7.081558e+00
   1.044847e+02   6.710045e+01
   1.127911e+02   7.103528e+01
  -9.309791e+01   3.009576e+01
  -1.677505e+02   3.409929e+01
  -1.444263e+02  -4.322527e+01
  -4.093772e+01  -9.136688e+01
   6.423569e+01  -8.163547e+01
   7.190517e+01   2.263765e+01
  -2.108428e+01  -2.014932e+00
  -1.122673e+02  -3.409455e+01
  -1.140705e+01  -1.427050e+02
   9.008779e+01  -1.523057e+02
   2.356595e+02  -2.202262e+00
   1.621443e+02   1.383307e+02
   3.015575e+01   2.294683e+02
  -5.286130e+01   1.616715e+02
  -9.373599e+01  -1.131041e+01
  -6.392390e+01  -1.400176e+02
  -1.212425e+01  -1.243136e+02
   4.580413e+01   7.207039e+00
   2.170565e+01   3.698395e+01
   2.990121e+01   1.507121e+01
  -3.719861e+01   2.790293e+00
  -1.124376e+01  -1.398228e+01
   2.592122e+01   7.873150e+01
   2.275244e+01   9.914902e+01
  -7.971038e+01   5.730214e+01
  -1.829499e+02  -3.644322e+01
  -1.068780e+02  -9.264463e+01
   2.572982e+01  -5.243634e+01
   1.262645e+02  -3.178921e+01
   9.728797e+01  -1.825934e+01
   3.192256e+01  -3.066210e+01
  -4.905067e+01   6.739627e+01
  -6.067603e+01  -2.508451e+01
  -2.439162e+01   3.738442e+00
   2.735117e+01  -4.795994e+00
  -2.558402e+01  -5.320268e+01
  -8.059324e+01  -7.675530e+01
   5.336975e+00  -9.317651e+01
   1.366931e+02  -1.091546e+02
   1.658471e+02  -4.264363e+01
   1.419857e+02   8.739394e+01
   8.897788e+01   1.455792e+02
  -5.463904e+01   1.847895e+02
  -1.082665e+02   5.383874e+01
  -8.005049e+01  -2.632455e+01
  -7.414454e+01  -2.896013e+01
  -3.296132e+01  -2.591222e-01
   4.999459e+00  -1.510724e+01
   3.429260e-01  -7.609564e+01
  -8.825541e-01  -1.236536e+02
   2.608509e+01  -1.040392e+02
   8.304754e+01   1.048048e+01
   9.382749e+01   1.251160e+02
   1.265757e+01   1.437609e+02
  -1.188381e+02   4.227169e+01
  -1.385746e+02  -7.637464e+01
  -3.788089e+01  -6.825404e+01
   6.048851e+01  -1.080094e+02
   9.971857e+01   3.159259e+01
   2.002374e+01   3.208949e+01
  -7.153215e+01   6.286996e+01
  -7.825786e+01   2.823930e+00
   2.513561e+01  -3.479218e+01
   1.221560e+02   4.700855e+01
   4.119025e+01   1.356015e+01
  -4.723846e+01   3.794458e+01
  -1.496985e+02   6.222198e+00
  -5.607532e+01  -4.680540e+01
  -1.400738e+01  -1.211225e+02
   6.534159e+01  -2.965950e+01
   1.139073e+00   3.163957e+01
   1.109751e+01   9.424735e+01
   2.172371e+01  -1.485175e+01
  -5.824893e+01  -5.443990e+01
  -3.754569e+01  -6.130594e+01
  -2.590335e+01  -2.568920e+01
   1.376226e+01   6.034901e+01
   4.769393e+01   2.709315e+01
   2.770743e+01   3.676047e+00
   5.234610e+01   1.811233e+01
   1.896242e+01  -9.684330e+00
  -3.018684e+00   3.724468e+01
  -1.654205e+01   4.600785e+01
  -6.049748e+01   1.321948e+00
  -3.011652e+01  -6.022740e+01
   2.688925e+01  -7.682418e+01
   5.510838e+01  -3.100490e+01
   3.269311e+01   7.965731e+01
  -9.177624e+00   4.095428e+01
  -5.489978e+01   5.404047e+01
  -9.496511e+01   4.513695e+00
  -4.869778e+01  -5.971884e+01
   8.893988e+00  -6.952069e+01
   8.772436e+01  -6.633123e+01
   5.338778e+01  -9.459361e+00
  -1.195737e+01   2.775116e+01
   5.807700e+00  -3.178552e+01
   8.852408e+01   1.452951e+00
   1.191287e+02  -1.923620e+01
