
 $NMID
 id='ANONYMOUS ', fmtdat='(2E16.6)'
 volume=1.0
 tramp=1.0
 $END
   4.388987e+03  -1.715365e+02
   2.552374e+03   2.788855e+03
  -7.678068e+02   2.860056e+03
  -2.103842e+03   8.829327e+02
  -9.296720e+02  -6.522369e+02
   6.253180e+02  -4.863725e+02
   8.863316e+02   5.559667e+02
   2.040792e+02   1.155214e+03
  -8.500676e+02   8.347751e+02
  -9.261503e+02  -2.005887e+02
  -4.294914e+02  -7.748236e+02
   3.305311e+02  -7.361584e+02
   6.186755e+02  -2.785472e+02
   3.798081e+02   6.779459e+02
  -2.549711e+02   8.641989e+02
  -5.491127e+02  -4.377450e+01
  -2.190447e+02  -7.108210e+02
   1.340309e+02  -7.876766e+02
   4.769648e+02   8.521359e+01
   3.347145e+02   2.493758e+02
   1.035445e+02   4.926724e+02
  -1.428197e+02   3.820315e+02
  -3.275414e+02  -3.491814e+01
   1.853501e+02  -1.010198e+02
   4.741840e+02   1.442000e+02
   1.170816e+02   5.919406e+02
  -5.150909e+02   3.044582e+02
  -7.832760e+02  -2.967296e+01
  -4.845900e+02  -5.668381e+02
   3.919984e+02  -6.585485e+02
   8.201606e+02  -3.397678e-01
   3.377336e+02   4.914744e+02
  -2.549568e+02   4.852069e+02
  -5.119055e+02   1.266601e+02
  -3.706183e+02  -9.838115e+01
  -3.913269e+01  -3.627398e+02
   2.626755e+02  -2.457270e+02
   1.397459e+02   3.316873e+02
  -2.412769e+02   3.908125e+02
  -4.805497e+02  -7.473313e+01
  -1.721236e+02  -7.292613e+02
   3.795525e+02  -6.832408e+02
   6.469335e+02   1.669758e+01
   1.941703e+02   5.884598e+02
  -3.975251e+02   3.236916e+02
  -4.617345e+02  -3.397709e+02
   7.156439e+01  -5.083272e+02
   6.280335e+02  -1.079794e+02
   6.392615e+02   3.711051e+02
   1.480863e+02   5.754927e+02
  -4.028560e+02   3.624616e+02
  -6.609994e+02  -1.159837e+02
  -4.170864e+02  -4.296029e+02
   1.412566e+02  -4.499281e+02
   5.307005e+02  -5.748784e+01
   2.994054e+02   1.978325e+02
  -6.183465e+01   1.477797e+02
  -1.541281e+02  -1.710272e+02
   1.925304e+02  -2.501983e+02
   4.081747e+02   9.035152e+01
   1.518852e+02   3.355264e+02
  -1.754268e+02   3.297849e+02
  -3.660016e+02   1.673793e+02
  -1.943039e+02  -1.481369e+01
  -3.712718e+01  -1.897462e+02
   2.113955e+02  -3.748252e+02
   3.280070e+02  -2.273362e+02
   3.560658e+02   1.600975e+02
   7.856214e+01   4.895874e+02
  -1.721535e+02   4.066181e+02
  -2.098889e+02   1.180442e+02
  -3.988467e+01  -2.447702e+00
  -9.790775e+00   1.005857e+02
  -2.124606e+02   1.272626e+02
  -3.375223e+02  -1.122493e+02
  -2.241706e+02  -2.849928e+02
   1.169644e+01  -3.625528e+02
   2.519603e+02   1.258954e+01
   2.585733e+02   2.492549e+02
   6.954834e+01   3.092091e+02
  -2.787481e+02   1.037305e+02
  -3.866763e+02  -1.434359e+02
  -1.851400e+02  -3.289098e+02
   8.182818e+01  -3.323869e+02
   2.347533e+02  -1.232323e+02
   2.019409e+02   4.597101e+00
   1.266812e+02  -3.933819e+01
   2.285130e+02  -8.418490e+01
   4.747955e+02   6.358389e+01
   3.648459e+02   3.082454e+02
  -1.864524e+01   4.237436e+02
  -3.771713e+02   4.650014e+02
  -4.984238e+02   2.049325e+02
  -3.963492e+02  -1.192062e+02
  -1.000492e+02  -3.219475e+02
   1.409256e+02  -2.666881e+02
   7.946064e+01  -4.111598e+01
  -8.744921e+01   1.146960e+02
  -2.034132e+02   4.685008e+01
  -6.669734e+01  -1.986738e+02
   1.345335e+02  -2.063171e+02
   1.908292e+02   8.109422e+01
  -5.365211e+00   1.766495e+02
  -1.916816e+02   1.885845e+01
  -1.502389e+02  -2.631979e+02
   2.929872e+01  -3.117848e+02
   2.461360e+02  -2.283036e+02
   3.303960e+02   9.166469e+01
   2.884841e+02   2.047362e+02
   1.258733e+02   2.708884e+02
  -1.390667e+02   1.973850e+02
  -1.814811e+02   5.726011e+01
  -1.106382e+02  -1.129282e+01
   5.580646e+00  -2.180674e+01
   3.021183e+01   5.755810e+01
  -1.151841e+02   1.296319e+02
  -7.471705e+01   1.276582e+01
  -3.531257e+01  -6.329934e+01
   1.215624e+02   2.850400e-01
   4.273285e+01   8.665198e+01
  -1.116624e+02   1.443144e+02
  -2.917738e+02   7.294214e+01
  -3.107893e+02  -1.055417e+02
  -7.001970e+01  -3.145515e+02
   1.685947e+02  -2.709257e+02
   2.743567e+02  -1.207013e+02
   2.012476e+02   7.878928e+01
  -2.484992e+01   1.245178e+02
  -9.998642e+01   3.889475e+01
  -1.810036e+01  -8.154801e+01
   1.824624e+02  -5.643617e+01
   1.988644e+02   1.318596e+02
   3.810365e+01   2.009762e+02
  -1.118091e+02   1.804687e+02
  -1.555524e+02   5.690595e+01
  -9.911093e+01  -4.378821e+01
   7.649140e+00   1.036304e+01
  -3.735578e+01   5.350348e+01
  -5.772414e+01   1.170515e+02
  -2.003191e+02   5.581565e+01
  -1.919532e+02  -8.766996e+01
  -4.327392e+01  -2.122316e+02
   1.367257e+02  -2.145731e+02
   1.347341e+02  -7.115212e+01
   6.753395e+01   1.201723e+02
  -1.006540e+02   1.375125e+02
  -5.369231e+01   1.748142e+01
   2.505724e+00  -9.986641e+00
   2.071444e+01  -6.060527e+00
  -2.527677e+01  -2.586401e+01
  -8.269105e+01  -7.338782e+01
  -1.088709e+02  -1.233230e+02
   4.723143e+00  -1.354983e+02
   1.338451e+02  -1.337933e+02
   2.689568e+02   1.169014e+01
   2.314241e+02   1.864233e+02
   1.166585e+02   2.609984e+02
  -1.181408e+02   1.633851e+02
  -1.777849e+02   4.170869e+01
  -1.238436e+02  -1.899943e+01
  -3.742967e+01  -9.422621e+00
  -9.444307e+01   3.376368e+01
  -6.417109e+01  -3.022798e-01
  -1.416827e+01  -6.604478e+01
   9.041497e+01  -7.073155e+01
   1.460756e+02  -3.620787e+01
   5.821014e+01   9.294240e+01
  -5.782115e+01   9.418583e+01
  -1.930765e+02   1.048441e+02
  -2.372645e+02  -4.862793e+01
  -9.535736e+01  -2.018564e+02
   1.061458e+02  -2.483039e+02
   2.654798e+02  -1.440973e+02
   2.745769e+02   6.498986e+01
   1.233234e+02   1.741390e+02
   1.448223e+00   1.377477e+02
  -1.041177e+02   1.426777e+01
  -7.921639e+01   1.084738e+02
  -6.505801e+01   8.164684e+01
  -4.952769e+01   8.813180e+01
  -1.153273e+02  -6.279940e+01
  -1.166226e+02  -1.526466e+02
   8.500915e+00  -2.241449e+02
   7.478029e+01  -1.905264e+02
   1.582910e+02  -3.676876e+01
   1.317977e+02   1.653722e+02
   6.949487e+01   1.823583e+02
  -6.164556e+01   1.067255e+02
  -7.081160e+01  -8.481738e+00
  -1.236694e+01  -4.013245e+01
  -2.083507e+01  -4.851650e+01
  -6.425252e+00  -5.274014e+01
  -1.070131e+02  -4.563482e+00
   1.578449e+00  -6.155646e+00
   5.322556e+01  -4.485615e+01
   2.147012e+02  -1.874231e+01
   1.485059e+02   5.820819e+01
  -3.896553e+00   1.245646e+02
  -1.235198e+02   5.065823e+01
  -1.956991e+02   6.973293e+01
  -5.174887e+01  -4.211882e+01
   8.424149e+01  -6.959478e+01
   1.083008e+02  -3.364193e+01
   3.607201e+01   6.720689e+01
  -4.809269e+01   8.344737e+01
  -1.912697e+01  -1.629332e+01
  -3.091118e+01  -6.193632e+01
  -3.927065e+01  -5.278563e+01
  -8.054348e+01  -8.056303e+00
  -1.295188e+02  -2.721277e+01
  -6.173974e+01  -1.142123e+02
   9.698256e+01  -2.241290e+02
   1.566737e+02  -1.565587e+02
   1.669755e+02   4.892894e+00
   1.558945e+02   9.115209e+01
   5.035970e+01   1.259922e+02
  -1.275982e+02   4.573566e+01
  -1.008318e+02   3.066916e+01
   9.250769e+00  -1.480612e+01
   1.627769e+02   5.593654e+01
   9.913214e+01   9.440554e+01
  -9.445239e+01   3.836437e+01
  -1.768805e+02   5.253971e+01
  -1.294262e+02  -2.351085e+01
  -6.505517e+01  -9.840109e+01
   7.102941e+01  -9.683069e+00
   8.558016e+01   1.283918e+01
  -5.555634e+01   1.375164e+01
  -1.765478e+02   1.429715e+00
  -6.197561e+01  -1.433968e+02
   7.835263e+01  -1.425198e+02
   1.401079e+02  -5.555757e+01
   1.368603e+02   8.188241e+01
   6.767407e+01   1.497954e+02
  -9.112862e+01   1.506562e+02
  -6.176034e+01  -2.668642e+01
  -6.991539e+01  -8.080183e+01
   2.591943e+00  -6.821214e+01
   2.436025e+01  -2.565843e+01
   2.976295e+01   5.034177e+01
  -1.283264e+01   1.211323e+01
   1.202205e+01  -7.008665e+01
   2.290967e+01   2.498020e+00
   4.378592e+01   9.485604e+01
   5.673285e+01   8.150354e+01
  -4.927867e+01   2.089101e+01
  -1.478454e+02  -1.725125e+01
  -1.370279e+02  -3.277175e+01
  -5.258645e+01  -3.886517e+01
   1.101887e+02  -2.660898e+01
   1.348281e+02  -3.563725e+01
  -2.602877e+01   2.824440e+00
  -3.734954e+01   6.224363e+01
  -1.536188e+01   1.997361e+00
   3.817096e+01   1.028085e+01
  -2.994729e+01   5.664705e+00
  -1.042607e+02   1.556737e+00
  -9.519596e+01  -1.714516e+01
   2.870660e+00  -7.984965e+01
   1.021688e+02  -1.432833e+02
   2.096095e+02  -7.512975e+01
   1.411969e+02   6.000343e+01
   9.475359e+00   1.799047e+02
  -7.542798e+01   1.383459e+02
  -1.070844e+02   5.538872e+01
  -7.688283e+01  -2.665613e+01
   5.386794e+00  -1.362507e+01
  -2.515215e+01  -3.344432e+01
  -1.568490e+01  -1.577594e+01
  -5.073055e+01  -7.399102e+01
   3.784960e+00  -8.797468e+01
   7.944452e+01  -9.864463e+01
   4.061328e+01   2.199620e+01
   7.510041e+01   1.236946e+02
   4.191284e+01   1.263303e+02
  -8.045481e+01   3.449982e+01
  -9.214887e+01  -7.867565e+01
  -8.439508e+01  -6.923611e+01
   7.123227e+01  -8.446036e+01
   8.414138e+01  -1.140514e+01
   6.290970e+01   5.421031e+01
  -4.244576e+01   4.938874e+01
  -7.352855e+01   3.847547e+01
   9.728930e-01  -3.428466e+00
   8.885035e+01  -1.675636e+01
   2.957263e+01  -3.078374e+00
  -1.204494e+02   5.754023e+01
  -1.161213e+02   5.043660e+01
  -3.042809e+01  -1.903079e+00
   3.958623e+01  -5.308853e+01
   6.000115e+01  -5.664597e+01
   4.657040e+01   3.430892e+01
  -8.048097e+00   4.222140e+01
  -1.918244e+01   6.072265e+01
  -3.755193e+01  -6.225458e+01
  -1.648839e+01  -3.210829e+01
  -4.234636e+00   1.382758e+01
   2.071344e+01  -2.211062e+01
   4.038903e+01  -1.464351e+00
   3.570442e+01   3.112190e+01
   2.609379e+01  -2.279781e+01
   9.834193e+00   3.479179e+01
   2.111446e+01   5.509381e+01
   1.446648e+01   4.278691e+01
  -8.547494e+00  -1.171880e+00
  -3.049999e+01  -7.185802e+01
   5.643358e+01  -7.929936e+01
   5.361346e+01  -6.468952e+00
   1.021179e+02   4.004298e+01
   1.036506e+01   7.181177e+01
  -4.079827e+01   1.959000e+01
  -1.227692e+02  -6.148516e+00
  -4.125193e+01  -2.196765e+01
   7.235999e+01  -6.317179e+01
   1.782144e+01   5.242087e+00
   7.573164e+00  -6.630417e+00
  -7.235607e+01  -3.007515e+01
  -4.647090e+01  -2.125978e+01
   3.509369e+01  -1.084928e+01
   9.733006e+01  -1.434856e+01
