
 $NMID
 id='ANONYMOUS ', fmtdat='(2E16.6)'
 volume=1.0
 tramp=1.0
 $END
   3.312382e+03  -1.875827e+01
   2.288410e+03   1.713222e+03
  -2.748818e+02   2.336673e+03
  -1.540692e+03   9.183345e+02
  -8.967777e+02   2.759216e+02
   2.457746e+02  -2.727942e+02
   3.484912e+02   1.175113e+02
  -5.729334e+01   6.061178e+02
  -3.894854e+02   7.206670e+02
  -4.132231e+02   2.083606e+00
  -4.850968e+02  -6.430604e+02
  -1.120979e+02  -6.945340e+02
   5.653028e+02  -2.231818e+02
   3.456306e+02   6.333221e+02
  -9.618364e+01   5.453045e+02
  -4.826185e+02   1.011901e+02
  -2.309895e+02  -4.428863e+02
   1.870980e+02  -5.825489e+02
   5.251254e+02  -1.349001e+02
   3.960668e+02   2.020005e+02
   1.185845e+02   5.965792e+02
  -1.474760e+02   3.593950e+02
  -5.088396e+01   5.518776e-01
   3.196673e+02  -5.681411e+01
   3.274794e+02   3.345984e+02
  -1.274019e+02   5.036463e+02
  -5.309950e+02   2.001156e+02
  -6.430804e+02  -8.335605e+01
  -1.294901e+02  -3.047317e+02
   4.102362e+02  -2.370485e+02
   5.555142e+02   2.056845e+02
   9.396615e+01   3.569972e+02
  -3.449458e+02   3.795383e+02
  -4.257814e+02   1.404538e+02
  -2.860028e+02  -1.221183e+02
  -4.066538e+01  -3.931372e+02
   1.072201e+02  -2.227629e+02
  -1.117088e-01   1.455422e+02
  -2.526894e+02   1.524475e+02
  -1.843686e+02  -1.584194e+02
   6.292063e+00  -4.909273e+02
   2.193607e+02  -4.728421e+02
   3.440271e+02  -3.682240e+01
   1.577156e+02   2.471565e+02
  -1.707520e+02   1.758746e+02
  -1.404141e+02  -2.324337e+02
   8.234124e+01  -3.999699e+02
   4.993229e+02  -9.692716e+01
   5.504681e+02   3.342340e+02
   1.540386e+02   4.938071e+02
  -3.631925e+02   3.218171e+02
  -4.861073e+02  -3.041522e+01
  -3.329483e+02  -2.597526e+02
   7.501954e+01  -2.024410e+02
   2.478462e+02  -5.430909e+01
   1.023783e+02   2.502690e+01
  -6.212635e+01  -2.870159e+00
  -2.803128e+01  -1.077167e+02
   6.558530e+01  -1.233669e+02
   2.652577e+02   3.785671e+01
   1.390949e+02   1.896036e+02
  -1.258205e+02   2.415119e+02
  -2.881127e+02   1.215774e+02
  -2.341962e+02  -9.517221e+01
  -2.072231e+01  -2.872583e+02
   2.721930e+02  -3.155442e+02
   3.536579e+02  -1.550395e+02
   2.806719e+02   1.820235e+02
   7.552474e+01   3.374820e+02
  -6.640628e+01   3.173775e+02
  -5.597070e+01   1.632354e+02
  -4.354370e+01   1.036775e+02
  -8.882621e+01   1.357730e+02
  -2.143681e+02   4.094852e+01
  -2.721483e+02  -9.828732e+01
  -1.782420e+02  -2.226605e+02
   1.006316e+02  -1.943341e+02
   1.676341e+02  -1.022238e+01
   1.420325e+02   1.990258e+02
  -1.868552e+01   1.875056e+02
  -2.123777e+02   1.217019e+02
  -2.771312e+02  -7.417179e+01
  -1.359512e+02  -2.890226e+02
   5.654270e+01  -2.711531e+02
   1.896230e+02  -1.573312e+02
   1.583108e+02  -7.136629e+01
   1.439680e+02  -6.603155e+01
   2.699142e+02  -9.383358e+01
   4.084018e+02   6.540634e+01
   3.263930e+02   3.394467e+02
   1.306091e+01   4.533863e+02
  -3.265233e+02   4.423457e+02
  -4.888004e+02   1.795504e+02
  -3.036225e+02  -1.275490e+02
  -6.431730e+01  -2.519494e+02
   1.007747e+02  -2.006145e+02
   4.116772e+01  -2.954088e+00
  -6.928142e+01   8.021617e+01
  -1.034825e+02   2.228719e+00
  -4.771807e+01  -1.228612e+02
   1.293261e+02  -1.429102e+02
   9.746171e+01  -3.001417e+01
  -2.648262e+01   1.579551e+02
  -2.039063e+02  -7.055985e+00
  -1.573625e+02  -2.247900e+02
   3.409874e+01  -3.294115e+02
   2.611230e+02  -1.961335e+02
   3.168329e+02   1.899338e+01
   2.316916e+02   1.890186e+02
   3.757193e+01   2.219150e+02
  -1.569514e+02   1.204510e+02
  -9.807071e+01  -4.720960e+01
   2.039816e+01   9.998571e+00
   9.342319e+01   9.515586e+01
  -1.311536e+01   1.470546e+02
  -9.001313e+01   1.211790e+02
  -1.678387e+02   1.624468e+01
  -1.161180e+01  -7.575156e+01
   6.241819e+01   3.784014e+01
   6.192412e+01   8.691119e+01
  -1.474845e+02   1.392214e+02
  -3.080493e+02  -1.453832e+01
  -2.727732e+02  -1.949666e+02
  -3.424437e+01  -2.568275e+02
   1.818616e+02  -2.619370e+02
   2.494783e+02  -7.989745e+01
   1.543149e+02   3.445855e+01
  -5.501894e+01   5.742188e+01
  -4.681472e+01  -4.811896e+01
   8.499962e+01  -4.411383e+01
   1.867270e+02  -2.236026e+01
   1.850103e+02   1.003442e+02
   3.689162e+01   2.122340e+02
  -8.322467e+01   6.858003e+01
  -1.482172e+02   8.627811e+00
   6.833578e+00  -3.044621e+01
   5.160859e+01   5.906328e+01
   1.750133e+01   1.197584e+02
  -1.510230e+02   1.025836e+02
  -1.904226e+02   6.098666e+00
  -1.565713e+02  -1.129245e+02
   2.754469e+01  -2.107313e+02
   1.841932e+02  -1.442448e+02
   2.054083e+02  -2.387593e+01
   3.802713e+01   1.192852e+02
  -7.571460e+01   1.172156e+02
  -8.573085e+01   5.073377e+00
   8.806563e-01  -6.826903e-01
   3.081254e+01  -2.244797e+01
   4.335070e+01   1.392432e+01
  -8.268955e+01   3.243775e+01
  -1.425977e+02  -7.622571e+01
  -5.631267e+01  -2.056260e+02
   1.601948e+02  -9.476891e+01
   2.131950e+02  -4.435263e+00
   1.431627e+02   1.784288e+02
   6.563107e+01   2.041717e+02
  -1.291375e+02   1.298927e+02
  -1.175957e+02   1.489569e+01
  -8.792574e+01  -2.241167e+01
  -5.003099e+01   1.430825e+01
  -3.784153e+01   5.254152e-01
  -9.863681e+01   3.855103e+01
  -5.699779e+01  -5.252190e+01
   2.542717e+01  -1.287005e+02
   1.552403e+02  -4.227983e+01
   1.169954e+02   4.327746e+01
  -3.728432e+01   1.070058e+02
  -2.184611e+02   7.259419e+01
  -2.095361e+02  -4.159698e+01
  -8.222922e+01  -2.024756e+02
   1.368362e+02  -2.131460e+02
   2.869211e+02  -8.009799e+01
   2.117937e+02   2.576059e+01
   1.112559e+02   1.731880e+02
  -1.049468e+01   1.439504e+02
  -8.558509e+01   7.442258e+01
   1.806703e+00   7.054495e+01
   1.497257e+01   1.528656e+02
  -8.352794e+01   1.338442e+02
  -1.820130e+02  -3.565963e+01
  -1.205467e+02  -1.661031e+02
  -4.124203e+01  -2.544297e+02
   1.021859e+02  -1.767527e+02
   1.945101e+02   1.100979e+01
   1.152012e+02   1.147027e+02
   5.754551e+00   1.379429e+02
  -9.351920e+01   5.190110e+01
  -1.302739e+01  -7.482100e+00
  -1.235574e+01  -3.804781e+01
   5.001506e+00  -2.341957e+01
  -2.269294e+01  -2.323591e+01
  -1.022959e+02  -4.175676e-01
  -3.276329e+01  -4.434754e+01
   1.026502e+02  -1.037104e+02
   2.244116e+02   1.921674e+01
   1.937497e+02   5.260823e+01
   4.905340e+01   1.222260e+02
  -1.224783e+02   2.798077e+01
  -1.516488e+02  -7.263404e+00
  -3.197203e+01  -7.950004e+01
   6.040131e+01  -2.326845e+01
   1.065084e+02  -9.644154e+00
   5.134629e+01   4.640928e+01
  -8.874145e+01   8.741640e+01
  -5.488193e+01  -2.638729e+01
  -6.110865e+01  -4.428308e+01
  -5.414045e+00  -5.264929e+01
  -3.442785e+01   3.942262e+01
  -7.698586e+01   7.292127e+01
  -1.075177e+02  -5.704631e+01
   3.334900e+00  -1.387253e+02
   1.018823e+02  -1.799754e+02
   1.460022e+02  -4.213102e+01
   8.986538e+01   3.015515e+01
   7.232821e+01   5.965838e+01
  -6.308719e+01   1.240618e+02
  -6.035810e+01   3.145540e+00
   1.141546e+02  -3.764242e+01
   1.540525e+02   2.704714e+01
   6.262005e+01   1.194588e+02
  -5.902686e+01   9.672067e+01
  -1.574859e+02   8.480701e+01
  -1.655659e+02  -4.451974e+00
  -3.699203e+01  -1.341507e+02
   3.685215e+01  -6.312068e+01
  -2.699293e+01   2.497040e+00
  -1.644454e+01   2.133106e+00
  -3.945622e+01  -3.903656e+01
  -4.134083e+01  -9.038373e+01
   5.686643e+01  -1.404447e+02
   1.111388e+02  -7.785553e+01
   9.082009e+01   1.136575e+02
   1.026796e+01   1.643698e+02
  -6.111133e+01   8.027990e+01
  -3.427490e+01  -1.685426e+01
  -7.393088e+01  -9.599028e+01
  -3.385527e+01  -7.046214e+01
   4.863519e+01   5.716553e+00
   5.049947e+01   1.656207e+01
   2.203436e+01  -2.532362e+01
   3.051314e+01   3.943951e+00
   6.122711e+01   6.968990e+01
   3.151805e+01   1.067783e+02
   2.008883e+00   1.320635e+02
  -6.486800e+01   4.294770e+01
  -1.744962e+02  -4.509911e+01
  -9.388356e+01  -1.005284e+02
  -8.958170e+00  -7.670503e+01
   6.985967e+01  -8.422683e+01
   9.886825e+01   7.541279e-01
   6.660333e+01   1.659663e+01
  -3.823626e+01   4.781247e+01
  -1.275441e+01   4.158384e+01
   1.490978e+01   2.844865e+01
  -3.849842e+01   4.914727e+01
  -2.956111e+01  -6.422127e+00
  -9.645490e+01  -4.249359e+01
  -2.251976e+01  -1.123747e+02
   5.231825e+01  -1.559109e+02
   1.857783e+02  -4.784340e+01
   1.131020e+02   5.517270e+01
   4.439627e+01   1.068818e+02
  -2.953875e+01   1.633051e+02
  -1.271369e+02   7.702229e+01
  -5.953008e+01  -1.261751e+00
  -2.655736e+01   4.608810e-01
  -1.428076e+00   3.659104e+01
  -9.909453e+00  -2.447516e+01
   1.269292e+01  -4.136145e+01
  -3.190537e+01  -8.066134e+01
   1.383013e+01  -9.145403e+01
   1.010657e+02  -7.481251e+00
   6.699416e+01   1.195420e+02
  -5.767614e+00   5.629613e+01
  -1.144090e+02  -1.973434e+01
  -9.430303e+01  -6.779966e+01
   3.117377e+01  -1.097538e+02
   5.592888e+01  -4.651831e+01
   1.167703e+02   2.183348e+01
   5.576854e+01   5.721978e+01
  -1.073204e+01   4.265732e+01
  -1.095655e+01   3.853830e+01
   4.693467e+01  -1.989102e+01
   7.379673e+01  -3.182568e+01
  -2.752157e+01   3.481475e+01
  -1.026536e+02   3.044118e+01
  -1.368232e+02   3.337936e+01
  -6.785101e+01  -2.437975e+01
   3.387557e+01  -8.276471e+01
   7.092869e+01  -5.574339e+01
   6.947315e+01   1.679868e+01
   3.500900e+01   2.454055e+01
  -2.496323e+01   8.993013e+01
  -4.158007e+01  -2.413478e+01
  -1.751473e+01  -5.138775e+01
  -1.321761e+01  -4.889136e+01
   6.101893e+01   9.638327e+00
   1.951570e+01   3.591696e+01
   1.373705e+01  -2.306047e+01
   1.095706e+01   1.716035e+01
   4.730522e+00   3.471428e-01
  -3.329396e+01   3.414651e+00
  -1.201309e+01   1.688654e+01
  -5.796313e+01  -3.317726e+01
   1.141778e+00  -3.670510e+01
  -1.635172e+01  -4.774208e+01
   5.850762e+01   9.006753e+00
   2.555657e+01   3.150621e+01
   1.908021e+01   2.251295e+00
  -9.666327e+00   2.542046e+00
   1.092364e+01  -2.109554e+01
  -6.034197e+01   4.496929e+00
  -1.653717e+01  -2.779086e+01
   7.239472e+01  -1.876430e+01
   3.052581e+01  -5.277776e+01
  -3.014122e+01  -3.280534e+01
   5.597415e+00   3.096005e-02
  -1.156287e+01   7.460435e+00
   7.043848e+01  -4.476848e+01
