
 $NMID
 id='ANONYMOUS ', fmtdat='(2E16.6)'
 volume=1.0
 tramp=1.0
 $END
  -4.699792e+03   1.801449e+02
  -2.860183e+03  -2.975753e+03
   9.675507e+02  -3.135005e+03
   2.243767e+03  -7.784415e+02
   1.034386e+03   8.521810e+02
  -9.367630e+02   7.236883e+02
  -1.098977e+03  -5.652327e+02
  -4.719432e+01  -1.309783e+03
   8.896564e+02  -9.937789e+02
   9.729466e+02   2.545892e+02
   3.793791e+02   9.859975e+02
  -3.741942e+02   9.221281e+02
  -8.111230e+02   1.262939e+02
  -3.145069e+02  -5.724982e+02
   2.265299e+02  -7.915816e+02
   7.583347e+02   8.318879e+01
   1.831444e+02   8.167089e+02
  -2.942585e+02   6.492012e+02
  -4.721744e+02  -2.609558e+01
  -4.341689e+02  -2.834451e+02
   2.408327e+02  -6.139514e+02
   3.848701e+02  -2.558425e+02
   3.315313e+02   1.105733e+02
  -3.199101e+02   2.868075e+02
  -5.672106e+02  -8.709270e+01
  -1.689947e+02  -5.276319e+02
   5.152886e+02  -3.669853e+02
   1.075254e+03  -4.732920e+01
   5.161572e+02   5.893648e+02
  -4.141429e+02   6.644590e+02
  -8.949485e+02  -7.737202e+01
  -5.031795e+02  -4.599216e+02
   2.371572e+02  -5.911102e+02
   6.272756e+02  -1.852174e+02
   5.340263e+02   1.690399e+02
   2.518262e+01   6.003765e+02
  -2.229653e+02   3.803707e+02
  -3.078514e+02  -3.175314e+02
   2.442411e+02  -6.067924e+02
   5.719367e+02  -8.681670e+01
   2.375560e+02   7.573266e+02
  -3.755569e+02   8.590631e+02
  -7.125370e+02   3.284379e+01
  -2.309389e+02  -6.714076e+02
   3.452164e+02  -4.384283e+02
   4.909379e+02   3.486898e+02
  -2.084038e+01   6.107085e+02
  -6.316011e+02   1.403668e+02
  -6.314412e+02  -4.795866e+02
  -1.821364e+02  -6.280628e+02
   4.743130e+02  -3.444287e+02
   7.553247e+02   9.687883e+01
   4.483230e+02   4.225869e+02
  -2.194606e+02   4.355581e+02
  -5.252895e+02   5.519510e+01
  -2.417462e+02  -2.369213e+02
   2.434244e+02  -1.455777e+02
   2.578850e+02   1.963589e+02
  -1.401250e+02   2.638162e+02
  -4.180569e+02  -3.674027e+01
  -1.836234e+02  -3.397043e+02
   2.071783e+02  -2.964626e+02
   3.136630e+02  -2.461050e+01
   1.390772e+02   1.868285e+02
  -8.877075e+01   2.164610e+02
  -2.162803e+02   2.215393e+02
  -3.295684e+02   1.756758e+02
  -2.987199e+02  -1.376945e+02
  -7.670050e+01  -4.249080e+02
   8.629907e+01  -3.960806e+02
   1.302396e+02  -6.012663e+01
   5.001714e+00   7.119405e+01
   8.224306e+01  -8.543384e+01
   2.403657e+02  -1.735741e+02
   3.151031e+02   3.071684e+01
   1.563733e+02   3.322837e+02
  -8.121881e+01   3.321948e+02
  -2.716377e+02   6.748571e+01
  -2.393950e+02  -2.099459e+02
   7.447376e+00  -2.607655e+02
   2.741274e+02  -1.517143e+02
   3.482689e+02   1.627749e+02
   1.959598e+02   3.606636e+02
  -1.523941e+02   3.387321e+02
  -2.981914e+02   7.542261e+01
  -1.486404e+02  -2.596379e+01
  -2.691072e+01  -1.950572e+01
  -1.842297e+02   1.143080e+02
  -3.861672e+02  -3.371661e+01
  -3.459032e+02  -2.832712e+02
  -6.487101e+00  -4.449261e+02
   3.130050e+02  -4.750231e+02
   4.654436e+02  -2.423503e+02
   3.698607e+02   1.158265e+02
   3.446666e+01   3.410834e+02
  -2.000111e+02   3.005405e+02
  -1.830362e+02  -9.061109e+00
   1.396266e+02  -1.978355e+02
   2.656076e+02  -8.823478e+01
   5.862821e+01   1.930758e+02
  -1.644836e+02   2.443606e+02
  -1.876611e+02  -4.834602e+01
   6.555508e+01  -2.396132e+02
   1.909522e+02  -1.063086e+02
   1.477581e+02   2.226643e+02
  -2.459430e+01   3.390487e+02
  -2.191307e+02   1.621562e+02
  -3.019507e+02  -4.961656e+01
  -2.737134e+02  -2.725498e+02
  -1.308084e+02  -3.158346e+02
   9.241407e+01  -1.657581e+02
   1.604615e+02   3.073496e+01
   8.108696e+01   6.259201e+01
  -9.926896e+01  -6.196181e+01
  -8.194333e+01  -1.787190e+02
   1.317676e+02  -1.311209e+02
   1.902906e+02  -6.474116e+00
   6.260586e+01   1.022440e+02
  -1.031239e+02  -3.502109e+01
  -3.188146e+01  -1.027348e+02
   1.085647e+02  -1.398195e+02
   2.780460e+02   4.074963e+01
   2.782667e+02   1.421940e+02
   6.939781e+01   2.895656e+02
  -1.760011e+02   2.763595e+02
  -3.294389e+02   1.658644e+02
  -2.241006e+02  -5.630475e+01
  -1.171595e+01  -1.027342e+02
   8.066302e+01  -6.233887e+00
   2.392178e+01   1.419412e+02
  -1.767117e+02   1.049081e+02
  -2.111893e+02  -1.405676e+02
  -8.781781e+01  -2.657411e+02
   1.247116e+02  -1.855468e+02
   1.425157e+02   1.977465e+01
   3.756692e+01   8.975559e+01
  -5.238352e+01   1.894170e+01
  -6.136468e+01  -6.984649e+01
   4.411897e+01  -1.399482e+02
   1.522014e+02  -4.387265e+01
   1.386219e+02   1.458465e+02
  -9.701346e-01   2.350020e+02
  -1.490006e+02   1.787193e+02
  -2.205744e+02  -2.618747e+01
  -3.908388e+01  -1.192853e+02
   1.169130e+02  -1.065321e+02
   9.446324e+01   2.485038e+01
   4.506294e+01   1.311249e+01
  -8.010755e+00  -2.913269e+01
  -9.948230e-01   2.373216e+01
   2.843697e+01   1.423378e+01
   9.603130e+01   5.609011e+01
  -2.192478e+01   1.283066e+02
  -8.972622e+01   1.222867e+02
  -2.251844e+02   5.915551e+01
  -2.204625e+02  -1.405842e+02
  -5.901056e+01  -2.539390e+02
   1.669482e+02  -1.975075e+02
   1.811232e+02  -4.432710e+01
   1.368413e+02   1.029352e+02
   5.318438e+01   5.418057e+01
   3.984723e+01   9.260199e+00
   6.746473e+01  -1.886822e+01
   4.397165e+01   4.366342e+01
  -6.916041e+00   8.517424e+01
  -5.626046e+01   4.933778e+01
  -4.583181e+01  -1.526740e+01
  -2.674419e+01  -7.016890e+01
   1.226500e+02  -1.290886e+02
   1.693671e+02   3.353477e+01
   1.156370e+02   1.806466e+02
  -9.058950e+01   2.620304e+02
  -2.682326e+02   1.280543e+02
  -2.529378e+02  -9.966669e+01
  -1.258750e+02  -2.056026e+02
   2.833781e+01  -1.887064e+02
   9.522534e+01  -9.828097e+01
   7.484667e+01  -9.235757e+01
   7.437919e+01  -7.187412e+01
   4.621458e+01  -9.065133e+01
   1.529936e+02   1.965879e+01
   1.176239e+02   1.421517e+02
   8.384102e+01   2.004891e+02
  -7.310418e+01   1.713499e+02
  -1.705528e+02   3.153451e+01
  -1.519469e+02  -1.082132e+02
  -2.242361e+01  -1.494679e+02
   1.027127e+02  -1.178364e+02
   1.125247e+02   2.366176e+01
   2.464920e+01   2.434255e+01
  -3.380122e+01   4.869801e+01
   8.538226e+00  -6.794507e+00
   5.800710e+01   3.198043e+00
   5.455972e+00   2.076272e+01
  -3.960718e+01   3.648254e+01
  -9.629927e+01   4.253233e+01
  -1.078800e+02  -3.606338e+01
  -7.568931e+00  -3.318452e+01
   8.226660e+01  -8.140558e+01
   1.020639e+02  -5.204406e+01
   2.403307e+01   1.738281e+01
  -3.725331e+01  -3.854638e+00
  -5.501316e+01  -4.770457e+01
   3.136594e+01  -5.340953e+01
   7.198312e+01  -7.189303e+01
   5.104708e+01   1.967073e+01
   1.214983e+01   5.858949e+01
   3.632450e+01   3.460957e+01
   8.118361e+01   9.927655e+00
   4.252861e-01  -1.170023e+01
   3.564968e+00   7.813090e+01
  -5.935640e+01   1.416571e+02
  -1.195875e+02   1.129465e+02
  -1.327547e+02   7.519520e+01
  -1.076567e+02  -8.550966e+01
  -2.219756e+01  -1.134184e+02
   7.213059e+01  -5.393459e+01
   5.822025e+01   1.512887e+01
  -7.347806e+01   5.928787e+01
  -1.541000e+02  -4.818049e+01
  -9.946083e+01  -9.297152e+01
   5.372893e+01  -1.338157e+02
   1.821671e+02  -5.766420e+01
   1.900338e+02   2.283140e+01
   7.131024e+01   8.117123e+01
  -5.585185e+01   6.466786e+01
  -3.181434e+01   2.253660e+01
   6.381974e+01  -1.551284e+00
   3.486992e+01   3.591568e+01
   1.799798e+01   1.379708e+02
  -1.427040e+02   1.788294e+02
  -1.626748e+02   4.206481e+01
  -1.394710e+02  -9.493171e+01
  -1.522178e+01  -1.938450e+02
   1.387182e+02  -1.098864e+02
   1.457245e+02  -1.851115e+00
   8.686696e+01   1.421035e+02
   5.676075e+01   1.503196e+02
  -4.416501e+01   5.439421e+01
  -3.553177e+01   9.473504e+00
  -7.838574e+01   2.304965e+01
   9.636205e+00   1.943644e+01
  -5.694878e+01   5.760377e+00
  -6.061779e+01  -9.383496e+01
  -3.001414e+01  -1.329296e+02
   1.720794e+01  -6.011005e+01
   1.915332e+02   1.265753e+01
   1.667821e+02   7.896197e+01
   1.484965e+01   7.267910e+01
  -1.113233e+02   4.514523e+01
  -6.945735e+01   2.559045e+01
   2.384163e+01   7.358301e+00
   1.863395e+01  -2.710222e+01
   2.654926e+01  -3.455255e+01
   2.595305e+00  -3.104402e+01
  -1.244944e+01  -4.257498e+01
   9.179477e+01   3.533781e+01
   1.477017e+02   1.237182e+01
   2.293583e+01   1.107641e+02
  -1.323784e+02   1.424705e+02
  -2.112348e+02   5.816703e+01
  -1.626841e+02  -6.980197e+01
  -4.997937e+01  -1.380880e+02
   6.443959e+01  -1.981749e+02
   1.222045e+02  -7.632405e+01
   8.233526e+01  -3.819662e+00
   3.678303e+01   6.506660e+01
   3.332422e+01  -4.065056e+00
  -2.122352e+00  -7.239689e+00
   7.353599e+00   4.371627e+01
   5.414923e+01   9.143491e+01
  -6.539014e+01   5.678008e+01
  -9.775377e+01   1.692490e+01
  -6.579218e+01  -9.668974e+01
  -1.452819e+00  -1.223461e+02
   1.071864e+02  -1.999666e+01
   1.384976e+02   3.098405e+01
   1.553013e+01   5.276543e+01
  -5.452688e+01   2.411065e+01
  -6.599694e+01   5.285842e+00
  -1.285690e+01  -1.478670e+01
   6.363276e+01  -2.431726e+01
   4.422718e+01   1.172576e+01
  -4.893610e+01   3.007357e+01
  -8.243951e+01  -3.265973e+01
  -3.526201e+01  -8.363130e+01
   4.998446e+01  -1.115820e+02
   1.224866e+02  -5.951370e+01
   5.698324e+01   2.645222e+00
   2.363653e+01   9.208343e+01
  -2.488428e+01   3.468378e+01
  -2.878942e+01   4.303774e+01
   1.702127e+01  -4.520691e+01
   8.209705e+00  -4.507389e+01
   1.975181e+01   7.259887e+00
   2.357446e+01   6.703547e+01
  -2.535030e+01   7.253830e+01
  -5.069480e+01   2.965010e+01
  -5.213143e+01  -7.685391e+01
  -4.211373e+01   4.064874e+00
   1.564545e+01  -4.559424e+01
  -5.503044e+00  -1.856924e+01
   3.858408e+01  -2.763515e+01
  -1.465794e+01  -9.632780e-01
   3.722654e+00   3.376715e+01
   3.733758e+01   4.292153e+01
   3.799913e+01   6.656072e+01
  -6.986719e+01   1.842054e+01
  -1.081954e+02   2.101965e+01
  -5.517056e+01  -9.347074e+01
   5.812217e+01  -4.933112e+01
   1.030958e+02  -2.312898e+01
   1.040561e+02   3.572551e+01
  -3.556989e+01   6.391946e+01
  -5.283661e+01   6.869809e+01
  -2.691324e+01   1.820218e+00
   1.521883e+01  -4.277444e+01
   2.342733e+01  -2.030519e+01
  -7.083573e+01   5.811870e+01
  -8.995019e+01   1.306896e+00
