
 $NMID
 id='ANONYMOUS ', fmtdat='(2E16.6)'
 volume=1.0
 tramp=1.0
 $END
   4.386745e+03   7.302309e+01
   2.629063e+03   2.935024e+03
  -9.990316e+02   2.836608e+03
  -2.412649e+03   8.252649e+02
  -9.233792e+02  -6.268842e+02
   7.520737e+02  -6.767785e+02
   1.041696e+03   5.436712e+02
  -4.189391e+01   1.205459e+03
  -1.051739e+03   7.506170e+02
  -8.912833e+02  -1.343475e+02
  -4.750979e+02  -8.810278e+02
   3.362973e+02  -1.002851e+03
   6.762240e+02  -8.597271e+01
   5.095533e+02   8.314563e+02
  -4.767973e+02   7.363518e+02
  -4.944949e+02  -2.755759e+01
  -1.209222e+02  -7.872671e+02
   2.578206e+02  -7.781584e+02
   5.979167e+02   4.130683e+01
   3.279430e+02   4.051025e+02
  -3.268269e+01   4.940554e+02
  -1.986953e+02   3.481959e+02
  -4.684167e+01   8.480324e+01
   1.888307e+02  -1.141664e+02
   3.811114e+02   1.613758e+02
   1.090433e+02   4.731933e+02
  -4.009006e+02   5.371060e+02
  -9.181215e+02  -1.027377e+02
  -6.612886e+02  -6.613252e+02
   5.177045e+02  -5.945735e+02
   7.867576e+02  -2.635334e+00
   4.000647e+02   4.739072e+02
  -2.751946e+02   5.869840e+02
  -5.612476e+02   2.469411e+02
  -2.971810e+02  -2.101466e+02
  -1.512414e+02  -5.272807e+02
   2.548226e+02  -3.075264e+02
   2.613075e+02   2.078598e+02
  -2.444493e+02   5.476730e+02
  -4.879627e+02  -1.070046e+01
  -1.931330e+02  -7.640245e+02
   3.683803e+02  -8.312218e+02
   6.796514e+02   4.233512e+00
   2.909170e+02   6.650472e+02
  -3.219756e+02   3.921503e+02
  -3.989699e+02  -3.670102e+02
   9.327648e+01  -5.981253e+02
   5.580157e+02  -1.098994e+02
   5.818381e+02   4.857766e+02
   1.546653e+02   6.417637e+02
  -4.130606e+02   3.713494e+02
  -6.658508e+02  -8.543189e+01
  -4.079750e+02  -4.573082e+02
   1.519828e+02  -3.991994e+02
   5.035731e+02  -1.115632e+01
   2.798066e+02   2.411483e+02
  -1.469806e+02   1.498773e+02
  -1.575312e+02  -1.324961e+02
   1.787047e+02  -2.478308e+02
   3.634170e+02   6.005795e+01
   1.525963e+02   3.736662e+02
  -2.235770e+02   2.943434e+02
  -3.696894e+02   6.931227e+01
  -1.685490e+02  -1.117677e+02
  -8.570845e+00  -2.316298e+02
   1.795837e+02  -3.228903e+02
   3.584255e+02  -2.408219e+02
   3.004386e+02   1.050246e+02
   8.311130e+01   4.296052e+02
  -6.182389e+01   3.849810e+02
  -6.313767e+01   9.130842e+01
   1.996386e+01  -1.865324e+01
  -3.946397e+01   1.152427e+02
  -2.077313e+02   1.198570e+02
  -2.917217e+02  -5.717321e+01
  -1.427668e+02  -3.154270e+02
   1.204753e+02  -2.782005e+02
   2.806354e+02  -7.562379e+00
   2.369028e+02   2.770365e+02
   3.344176e+01   3.628171e+02
  -2.711265e+02   1.845760e+02
  -4.184104e+02  -1.619759e+02
  -2.200873e+02  -3.850815e+02
   1.105361e+02  -3.508626e+02
   3.053204e+02  -1.076328e+02
   1.730554e+02  -7.228969e+00
   5.777004e+01  -3.688714e+01
   2.342972e+02  -8.767743e+01
   4.327278e+02   1.795078e+01
   3.297869e+02   2.779270e+02
   4.167575e+01   4.115088e+02
  -3.199427e+02   3.826012e+02
  -4.536205e+02   2.245041e+02
  -3.319636e+02  -9.387619e+01
  -9.095365e+01  -2.664093e+02
   1.135370e+02  -2.517221e+02
   1.625199e+02  -6.082438e+00
  -3.862859e+01   1.190971e+02
  -1.549873e+02   1.143481e+01
  -4.241184e+01  -1.917779e+02
   1.515679e+02  -2.159039e+02
   1.658258e+02   9.009987e+01
  -3.598947e+01   2.584955e+02
  -2.353026e+02   7.953887e+01
  -2.231664e+02  -2.730607e+02
   3.870379e+00  -3.590405e+02
   2.254619e+02  -1.790042e+02
   3.648357e+02   2.403342e+01
   3.108078e+02   2.354603e+02
   1.186366e+02   2.654912e+02
  -1.429592e+02   2.181005e+02
  -1.799841e+02   3.041935e+01
  -4.205636e+01  -7.839915e+01
   3.761744e+01   7.412762e+00
   5.210747e+01   1.911405e+02
  -1.174671e+02   1.327110e+02
  -1.844969e+02  -9.059020e+00
  -6.766212e+01  -7.740297e+01
   1.178383e+02  -1.433232e+01
   7.475355e+01   1.331843e+02
  -9.017959e+01   2.073550e+02
  -3.175749e+02   3.296630e+01
  -3.136205e+02  -1.595759e+02
  -5.455112e+01  -2.778002e+02
   2.573324e+02  -3.141070e+02
   3.008386e+02  -9.094450e+01
   1.777704e+02   9.534311e+01
  -6.400953e+01   1.328443e+02
  -1.247843e+02   1.800189e+01
   3.608005e+01  -1.149349e+02
   1.709892e+02  -1.174505e+02
   2.248797e+02   1.052391e+02
   9.411187e+01   2.739461e+02
  -6.939435e+01   2.007783e+02
  -1.356804e+02   3.581668e+01
  -8.907233e+01  -1.574206e+01
   4.814001e+01  -9.132144e+00
   4.795317e+01   5.604929e+01
  -6.658946e+01   7.984120e+01
  -1.633234e+02  -1.746975e+01
  -1.911027e+02  -1.219064e+02
  -9.698508e+00  -1.701387e+02
   1.618076e+02  -1.237079e+02
   1.384050e+02  -3.854953e+01
   5.875604e+01   1.620866e+02
  -1.922190e+01   7.447935e+01
  -8.895861e+01   5.310400e+00
   2.146762e+01   2.503345e+00
   3.085808e+01  -2.235405e+01
  -3.711818e+01   4.538907e+01
  -4.205491e+01   4.303362e+01
  -1.198438e+02  -3.336017e+01
  -2.766481e+01  -1.815460e+02
   1.168914e+02  -1.444453e+02
   2.524601e+02  -5.550679e+01
   1.869212e+02   1.384862e+02
   3.016182e+01   2.437683e+02
  -1.073584e+02   1.519688e+02
  -1.094229e+02   2.469332e+00
  -4.179214e+01  -2.740614e+01
   4.560953e+00  -2.243833e+01
  -4.826878e+01   2.779953e+01
  -1.296460e+02   3.669746e+01
  -4.334339e+01  -5.417542e+01
   4.132911e+01  -1.215979e+02
   1.026727e+02  -4.255287e+01
   7.612279e+01   4.636514e+01
   4.746685e+00   9.026482e+01
  -1.512438e+02   1.264013e+02
  -2.266766e+02  -5.063343e+01
  -1.427814e+02  -2.345937e+02
   1.068166e+02  -2.113491e+02
   3.050378e+02  -9.652453e+01
   2.769093e+02   1.004542e+02
   1.102688e+02   1.906682e+02
  -2.553812e+01   1.611671e+02
  -9.296613e+01   1.076113e+02
  -1.457275e+02   8.643856e+01
  -3.820707e+01   8.961570e+01
  -9.343259e+01   9.398214e+01
  -1.692866e+02   1.334995e+00
  -1.187635e+02  -1.381737e+02
  -3.641562e+00  -2.682559e+02
   6.020984e+01  -2.169416e+02
   2.083510e+02  -4.319347e+01
   1.108452e+02   1.329961e+02
  -1.501359e+01   1.785568e+02
  -7.553969e+01   3.896584e+01
  -9.026247e+01  -2.366128e+01
   3.377834e+00  -5.552203e+01
   1.714251e+01  -2.567728e+01
   1.076790e+01   3.871554e+01
  -5.771713e+01  -2.227025e+01
  -5.092152e+01  -7.462837e+01
   2.799159e+01  -4.560936e+01
   1.204883e+02  -1.671228e+00
   1.662177e+02   3.704293e+01
   8.758839e+00   8.258525e+01
  -1.105349e+02   5.222215e+01
  -1.932335e+02   1.624326e+01
  -5.496002e+01  -3.011236e+01
   7.401768e+01  -3.834036e+01
   7.887325e+01   6.465150e+01
  -3.620072e+01   9.073636e+01
  -7.408241e+01   5.169125e+01
  -1.694096e+01  -1.506989e+01
  -2.679327e+01  -7.842244e+01
  -1.606851e+01  -9.057245e+01
  -9.864719e+01   1.047861e+01
  -8.609245e+01   2.455869e+01
  -3.258523e+01  -5.137469e+01
   4.285983e+01  -1.672657e+02
   1.253430e+02  -1.446669e+02
   1.616078e+02  -4.788457e+01
   1.671190e+02   1.174337e+02
   5.246655e+01   1.529404e+02
  -4.035317e+01   1.990281e+01
  -1.067813e+02  -2.180712e+01
   5.948200e+01   8.928917e+00
   1.288726e+02   6.227915e+01
   9.616554e+01   1.031450e+02
  -3.035132e+01   1.148186e+02
  -2.248482e+02   1.968457e+01
  -1.886426e+02  -3.378834e+01
  -3.982703e+01  -3.238627e+01
   4.411432e+01  -1.155645e+02
   6.185153e+00   6.152511e+00
  -1.920870e+01   8.383757e-01
  -9.489167e+01  -8.093381e+00
  -9.619271e+00  -4.128569e+01
   9.146458e+01  -1.775858e+02
   1.626431e+02  -1.239810e+02
   1.230835e+02   8.967615e+01
   1.949690e+01   2.677654e+02
  -1.190933e+02   1.706745e+02
  -7.421711e+01  -2.681115e+01
  -6.959576e+01  -1.569677e+02
  -3.959280e+01  -1.230594e+02
   7.061926e+01  -1.923219e+01
   9.796405e+01   5.128089e+01
   3.482723e+01  -5.368842e+01
  -6.857510e+00   8.993763e+00
   1.207121e+01   3.225246e+01
   9.820864e+01   8.600507e+01
   1.111977e+02   1.330852e+02
  -6.299926e+01   1.170280e+02
  -1.911288e+02   1.271920e+01
  -1.834317e+02  -1.814990e+01
  -9.728379e+01  -1.832865e+01
   1.050579e+02  -1.426952e+01
   9.449316e+01   1.985503e+01
  -1.812030e+01  -3.696550e+01
  -1.683270e+01   2.563772e+01
  -5.328918e+01   3.370484e+01
   1.362967e+00  -1.022091e+01
  -6.107059e+01  -1.937528e+01
  -1.520084e+02  -2.945496e+01
  -1.116719e+02  -6.424343e+01
   3.302251e+01  -8.257763e+01
   1.246412e+02  -9.757329e+01
   1.570433e+02  -5.851308e+01
   1.602706e+02   5.586407e+01
   4.496155e+01   1.646208e+02
  -7.868483e+01   1.596279e+02
  -6.002917e+01   5.880575e+01
  -1.074914e+02  -3.606962e+01
  -1.143649e+01  -6.590488e+01
   3.323555e+01   1.121448e+01
  -6.809793e+00   1.747121e+01
  -2.712926e+01  -7.794881e+01
  -5.659677e+01  -1.152548e+02
  -9.352675e+00  -6.870839e+01
   5.142956e+01   6.693485e+01
   6.846223e+01   1.306477e+02
  -2.227360e+01   1.148337e+02
  -9.873913e+01  -1.456833e+01
  -1.221702e+02  -3.945698e+01
  -3.866654e+01  -1.161962e+02
   1.083074e+02  -9.146586e+01
   1.331479e+02  -2.820792e+01
   3.703488e+01   1.654309e+01
  -5.124320e+01   5.680565e+01
  -6.287531e+01   3.370003e+01
   1.617920e+01  -3.207473e+01
   5.625049e+01  -7.661262e+01
   4.845264e+01  -1.619820e+01
  -4.451844e+01   6.386098e+01
  -8.847526e+01   1.234522e+02
  -6.378381e+01   2.038554e+01
   3.816086e+01  -8.141674e+01
   1.839725e+01  -5.072390e+01
   3.075255e+01   1.208006e+00
   4.649935e+00   8.489996e+01
  -2.318322e+01   2.639381e+01
  -2.792629e+01  -2.666492e+00
  -3.892422e+01  -5.024701e+01
   2.863336e+01  -8.434261e+01
   2.941896e+01  -3.717249e+01
   6.271998e+01   6.493806e+01
   2.845111e+01   1.399366e+01
  -1.410531e+01  -2.946437e+01
  -4.987489e+01   3.146676e+01
  -5.509790e+00   7.514360e+01
   6.384745e+01   8.658586e+01
   8.775718e-01  -5.441859e+00
  -5.643099e+01  -3.833399e+01
  -2.748337e+01  -6.169804e+01
   6.976552e+01  -4.010626e+01
   5.289589e+01  -1.110297e+01
   4.637204e+01   6.799606e+01
  -5.635219e+01   4.469996e+01
  -9.106221e+01  -6.514220e+00
  -4.832534e+01  -7.256455e+01
   3.651962e+00  -3.981722e+01
   7.355872e+01  -6.533989e+01
   2.815858e+01  -1.994645e+01
  -4.014827e+01  -2.037030e+01
  -5.296301e+01   4.060296e+00
   3.778838e+01   2.197082e+01
   4.177360e+01  -2.051080e+01
