
 $NMID
 id='ANONYMOUS ', fmtdat='(2E16.6)'
 volume=1.0
 tramp=1.0
 $END
  -3.661430e+03   1.266062e+02
  -2.606660e+03  -2.232944e+03
   9.525964e+01  -2.352690e+03
   1.622903e+03  -1.298289e+03
   1.085123e+03   1.044554e+02
  -1.010191e+01   3.130339e+02
  -6.572416e+02  -1.193394e+02
  -2.029468e+02  -8.138003e+02
   5.255277e+02  -6.233990e+02
   8.934406e+02   2.256196e+01
   5.815042e+02   6.339180e+02
  -4.378046e+01   8.592585e+02
  -5.072650e+02   3.148572e+02
  -3.575349e+02  -3.515154e+02
   6.568340e+01  -5.912652e+02
   5.431230e+02  -1.224502e+02
   2.986629e+02   5.102186e+02
  -2.271855e+02   7.162633e+02
  -6.860266e+02   1.378049e+02
  -4.772345e+02  -2.575968e+02
  -8.767853e+01  -2.795597e+02
   2.588454e+02  -2.533905e+02
   2.236460e+02  -3.296568e+01
  -1.365407e+02  -5.482748e+00
  -3.826687e+02  -2.255651e+02
  -1.896546e+02  -3.357330e+02
   5.513359e+02  -2.914880e+02
   8.216250e+02   9.129651e+01
   2.009706e+02   3.845210e+02
  -2.909743e+02   4.740787e+02
  -6.700478e+02  -1.004634e+02
  -3.681814e+02  -4.465182e+02
   2.054447e+02  -5.292876e+02
   6.026759e+02  -1.011190e+02
   4.802811e+02   2.697302e+02
   2.438502e+01   4.513064e+02
  -1.161857e+02   2.861469e+02
   3.414092e+01  -1.259064e+02
   2.120406e+02  -2.782359e+02
   4.462119e+02   1.172096e+02
   1.617081e+02   6.188302e+02
  -3.468045e+02   5.602467e+02
  -5.597797e+02   4.202793e+01
  -2.041865e+02  -3.893854e+02
   2.464011e+02  -1.960571e+02
   3.210911e+02   2.825497e+02
  -5.539324e+01   4.352574e+02
  -5.328861e+02   1.155190e+02
  -5.867055e+02  -3.175661e+02
  -1.950055e+02  -4.792259e+02
   3.574607e+02  -2.656346e+02
   5.465576e+02   3.999263e+01
   3.217792e+02   2.999727e+02
  -1.243824e+02   2.746899e+02
  -3.723498e+02   5.939112e+01
  -2.416400e+02  -8.251131e+01
   7.835038e+01  -5.400776e+01
   1.025720e+02   1.158387e+02
  -1.507231e+02   1.484242e+02
  -2.949388e+02  -6.319555e+00
  -1.890233e+02  -2.563197e+02
   1.319898e+02  -3.163420e+02
   3.517727e+02  -1.408603e+02
   2.533260e+02   1.030559e+02
  -3.917898e+01   3.258376e+02
  -2.996028e+02   3.332017e+02
  -3.542369e+02   1.558465e+02
  -2.726371e+02  -1.557345e+02
  -4.490083e+01  -3.731319e+02
   8.008435e+01  -3.368706e+02
   7.413312e+01  -1.564528e+02
   7.693768e+00  -1.960650e+01
   8.988669e+01  -9.212173e+01
   2.248830e+02  -6.156710e+01
   2.996711e+02   1.301486e+02
   1.784675e+02   2.885570e+02
  -1.301428e+02   2.269868e+02
  -2.309522e+02   3.699325e+01
  -2.063203e+02  -1.904896e+02
   9.579577e+00  -2.663265e+02
   2.042665e+02  -1.288994e+02
   3.147080e+02   1.144487e+02
   1.825675e+02   2.585540e+02
  -1.984113e+01   3.076810e+02
  -1.520462e+02   1.882053e+02
  -1.512112e+02   6.994752e+01
  -1.630435e+02   4.923646e+01
  -2.561202e+02   7.526059e+01
  -4.038336e+02  -6.254603e+01
  -3.161938e+02  -3.093338e+02
   3.495705e+01  -4.719304e+02
   4.103231e+02  -4.523002e+02
   4.893103e+02  -1.620624e+02
   2.941203e+02   1.352012e+02
   8.929546e+00   3.042579e+02
  -1.150853e+02   2.248213e+02
  -4.926084e+01   6.911604e+01
   1.033450e+02  -1.313361e+01
   1.507931e+02   2.493262e+01
   1.366778e+01   1.351811e+02
  -1.157894e+02   1.037195e+02
  -1.368124e+02  -4.638915e+01
   7.717725e+00  -1.443838e+02
   1.724756e+02  -2.227986e+01
   1.669547e+02   2.511162e+02
  -3.842782e+01   3.796334e+02
  -2.889469e+02   2.594994e+02
  -3.931247e+02  -3.567830e+01
  -3.192421e+02  -2.638871e+02
  -8.127150e+01  -2.811869e+02
   1.253416e+02  -1.318490e+02
   1.510560e+02   9.419010e+00
  -5.196269e+00   6.022363e+01
  -6.178869e+01  -7.263522e+01
   2.919310e+01  -1.850055e+02
   1.483777e+02  -1.225726e+02
   1.668429e+02   1.646643e+01
   6.675897e+01   4.009538e+01
  -1.025909e+02   3.107892e+01
  -6.168728e+00  -7.395116e+01
   1.516365e+02  -8.813956e+01
   3.025739e+02  -1.070460e+01
   2.473070e+02   1.863062e+02
   3.566589e+01   3.123086e+02
  -1.984330e+02   2.899694e+02
  -2.551539e+02   1.215793e+02
  -1.139912e+02  -5.588263e+01
   4.951047e+01  -8.513434e+01
   6.387225e+01   6.912026e+00
  -6.251495e+01   1.196593e+02
  -1.771913e+02   4.696832e+01
  -2.193659e+02  -1.228247e+02
  -9.346837e+01  -1.512907e+02
   7.711603e+01  -8.923099e+01
   1.083763e+02  -1.226493e+01
   5.101918e+00   2.426899e+01
  -9.969787e+01  -6.388418e+01
  -5.257268e+01  -1.122128e+02
   1.126633e+02  -1.298691e+02
   2.432709e+02   1.305009e+01
   2.789037e+02   1.035367e+02
   3.830703e+01   1.939344e+02
  -1.530681e+02   1.586009e+02
  -2.416940e+02   4.478300e+01
  -8.478636e+01  -7.336265e+01
   8.926168e+01  -8.149706e+01
   9.265412e+01   2.011842e+00
   4.168879e+01   9.106860e+00
  -3.881922e+01   4.521902e+01
   3.030625e+01   1.811166e+01
   3.931640e+01   1.813397e+01
   7.399986e+01   1.057707e+02
   5.480105e+01   1.542843e+02
  -1.276711e+02   1.634690e+02
  -2.261989e+02   6.713117e+01
  -2.164659e+02  -1.235593e+02
  -7.678234e+01  -2.027687e+02
   7.559580e+01  -1.819050e+02
   1.034426e+02  -5.220865e+01
   2.443965e+01  -1.048539e+01
  -7.145323e-01   2.491291e+01
   8.220353e-01  -1.264488e+01
   6.156139e+01  -4.198806e+01
   6.874307e+01   2.344948e+01
   8.889350e+00   7.942881e+01
  -4.408461e+01   1.086638e+01
  -9.008328e+01  -8.422480e+01
  -8.344121e+00  -9.978352e+01
   1.274632e+02  -6.610650e+01
   2.067710e+02   1.047337e+02
   9.303022e+01   1.960327e+02
  -7.017264e+01   1.618705e+02
  -2.372780e+02   9.499225e+01
  -2.538888e+02  -9.513115e+01
  -1.153114e+02  -1.482994e+02
   4.900022e+01  -1.212348e+02
   9.703417e+01  -3.558266e+01
   1.512741e+01  -1.404242e+01
   1.079387e+01  -9.975485e+01
   9.849435e+01  -6.781936e+01
   1.455136e+02  -9.837325e+00
   1.123085e+02   1.624512e+02
   4.381188e+00   1.998137e+02
  -1.160384e+02   1.291295e+02
  -1.586057e+02   2.920514e+01
  -6.621883e+01  -1.497753e+02
  -2.070876e+01  -1.470588e+02
   1.039448e+02  -5.381447e+01
   3.748095e+01   4.644258e+00
  -2.321430e+01   1.478583e+01
  -1.226083e+01   1.779734e+01
   2.021849e+01  -1.357265e+01
   7.518543e+01  -1.666691e+01
   8.971316e+01   3.237955e+01
  -4.765977e+01   3.136546e+01
  -1.357236e+02   3.429430e+00
  -1.566337e+02  -7.999667e+01
   3.144895e+01  -8.640383e+01
   1.374471e+02  -7.645194e+01
   1.299773e+02   8.522928e+00
   3.836399e+01   6.177024e+01
  -1.086860e+02   6.571830e+01
  -1.022632e+02  -8.302608e+00
  -1.777256e+01  -1.025449e+02
   6.788178e+01  -8.969950e+01
   9.654133e+01  -3.424707e+01
   6.286746e+01   6.092792e+01
   1.606644e+01   5.074871e+01
  -2.885100e+01   2.011948e+00
   4.949454e+01  -2.162043e+01
   9.413903e+01   1.802071e+01
   9.299833e+00   1.400583e+02
  -8.360938e+01   1.294722e+02
  -1.869607e+02   3.484317e+01
  -8.959573e+01  -4.933858e+01
   5.563465e-01  -1.634878e+02
   7.539574e+01  -6.922262e+01
   5.934967e+01   1.008438e+01
  -6.262875e+01   8.401014e+01
  -1.418002e+02   7.688891e+00
  -2.361619e+01  -1.083570e+02
   8.342062e+01  -1.796962e+02
   1.146197e+02  -6.604920e+01
   1.458877e+02   3.651542e+01
   3.144391e+01   8.317494e+01
  -8.623363e+00   4.109437e+01
  -1.199388e+01   3.920593e+01
   2.758540e+01   1.135774e+00
   1.318295e+02   5.795475e+01
   1.557775e+01   1.465478e+02
  -9.446143e+01   1.841505e+02
  -1.555983e+02   7.006839e+01
  -1.114925e+02  -4.835638e+01
   2.782433e+01  -1.904561e+02
   8.498238e+01  -1.486922e+02
   1.367204e+02   8.677425e+00
  -5.725882e+00   1.265686e+02
  -1.984666e+01   1.131634e+02
  -6.156750e+01   3.059198e+01
  -4.193121e+01  -5.161113e+01
  -4.229004e+01  -9.508889e+00
  -4.518235e+01   2.715593e+01
  -2.367738e+01   6.340563e+00
  -5.511747e+01  -7.582806e+01
  -1.478625e+01  -1.108032e+02
   1.081681e+02  -3.710999e+01
   1.172676e+02   4.431075e+01
   1.001441e+02   6.854579e+01
  -2.696859e+01   7.671329e+01
  -1.215146e+02   8.853190e+01
  -8.492326e+01  -7.395911e+00
   3.030732e+01  -4.670084e+01
   4.584036e+01  -2.529377e+01
   2.463013e+01  -1.851155e+01
  -4.555055e+01  -1.603640e+00
  -4.495080e+00   2.560867e+01
   1.195225e+01  -1.532777e+01
   6.199076e+01   2.505078e+01
   3.340580e+01   1.142424e+02
  -9.271766e+01   1.179632e+02
  -1.585161e+02   8.317613e+01
  -1.778254e+02  -4.732643e+01
  -5.684033e+01  -1.430189e+02
   6.431517e+01  -2.060904e+02
   1.572302e+02  -1.258498e+02
   9.379382e+01  -4.153521e+01
   5.959937e+01   7.355595e+01
   1.571442e+01   6.601582e+01
  -1.677264e+01   8.863324e+01
   3.369633e+01   9.248456e+01
  -2.445437e+01   5.477486e+01
  -8.644115e+01   4.307870e+01
  -8.085488e+01  -2.345828e+01
  -6.007900e+01  -7.365561e+01
   1.440965e+01  -1.284862e+02
   8.298212e+01  -3.741234e+01
   7.958415e+01   1.197537e+01
   5.416714e+01   5.739373e+01
  -3.707438e+01   8.986265e+01
  -8.789220e+01   1.073163e+01
  -5.607396e+01  -5.965823e+01
   3.796416e+01  -9.167545e+01
   3.379815e+01  -2.931583e+01
  -2.098281e+01   4.716762e+01
  -8.460175e+01   5.034321e+01
  -4.219834e+01  -7.845098e+01
   3.512504e+01  -1.100977e+02
   1.070630e+02  -8.608157e+01
   1.168243e+02   1.254143e+01
  -5.161214e+00   1.037417e+02
  -2.858030e+01   1.123053e+02
  -3.926472e+01   2.286144e+01
   1.497460e+01  -4.998038e+01
   4.424997e+01  -6.175824e+01
   5.147954e+01   2.851643e+01
   3.753160e+01   7.732092e+01
  -8.851095e+00   5.383059e+01
  -5.059912e+01   7.121266e+00
  -9.377340e+01  -3.399283e+01
  -4.962312e+01   2.808312e+01
  -1.043546e+01   1.067244e+01
   3.539826e+01   2.155552e+01
  -3.009375e+01  -2.870268e+01
  -3.263743e+01  -3.092536e+01
   2.818852e+01  -3.543049e+01
   6.763231e+01   2.219833e+01
   1.298762e+00   7.721815e+01
  -8.523224e+00   5.629423e+01
  -8.363473e+01  -1.648268e+01
  -1.469213e+01  -8.985037e+01
   7.964880e+01  -2.461660e+01
   1.092651e+02  -3.981424e+01
   1.221187e+02   4.598211e+01
   2.796645e+01   1.024988e+02
  -8.034751e+01   3.424806e+01
  -1.016869e+01  -2.519030e+01
   1.667248e+01  -7.919712e+00
   5.020106e+00  -2.165585e+01
  -2.315267e+01   4.270150e+01
  -1.073043e+02   4.216234e+01
