
 $NMID
 id='ANONYMOUS ', fmtdat='(2E16.6)'
 volume=1.0
 tramp=1.0
 $END
   4.219068e+03  -1.870336e+01
   2.433647e+03   2.442716e+03
  -7.518330e+02   2.439156e+03
  -2.167004e+03   8.743676e+02
  -1.023585e+03  -6.208237e+02
   5.137297e+02  -8.218507e+02
   7.777414e+02   3.633555e+02
   1.032685e+02   1.016755e+03
  -8.377525e+02   8.187417e+02
  -1.089831e+03   1.074314e+01
  -5.630257e+02  -9.465209e+02
   1.440230e+02  -1.034512e+03
   5.884106e+02  -2.669989e+02
   4.094784e+02   5.834647e+02
  -2.724597e+02   6.919348e+02
  -5.882169e+02  -1.668217e+02
  -2.395076e+02  -5.054556e+02
   1.322047e+02  -4.564048e+02
   5.325426e+02  -1.685203e+02
   3.449525e+02   3.532036e+02
  -9.475541e+01   4.225414e+02
  -3.209458e+02   2.699305e+02
  -1.990008e+02   5.302255e+01
   5.813903e+01  -2.106885e+02
   5.494890e+02   2.007820e+02
   2.859493e+02   2.520991e+02
  -3.015951e+02   5.027417e+02
  -7.918643e+02   1.042157e+02
  -5.445641e+02  -4.974899e+02
   3.743703e+02  -4.863421e+02
   8.186843e+02  -4.540846e+01
   3.447195e+02   4.030301e+02
  -3.805261e+02   4.836810e+02
  -5.757086e+02   2.516629e+02
  -3.800728e+02  -2.229632e+02
  -1.073532e+02  -4.840877e+02
   2.466511e+02  -3.000653e+02
   1.982381e+02   2.236969e+02
  -2.368817e+02   5.325769e+02
  -4.990048e+02  -6.065433e+01
  -2.577971e+02  -7.054754e+02
   3.745411e+02  -7.806372e+02
   6.298400e+02  -1.026170e+01
   2.961866e+02   6.234654e+02
  -2.737903e+02   3.732701e+02
  -3.956447e+02  -2.672304e+02
  -1.248693e+01  -5.824815e+02
   5.319651e+02  -1.815579e+02
   6.194571e+02   5.100623e+02
   1.251016e+02   6.885477e+02
  -4.629629e+02   3.779181e+02
  -6.817784e+02  -9.727835e+01
  -3.582814e+02  -4.544716e+02
   2.082922e+02  -3.579830e+02
   4.417102e+02   4.878679e+00
   2.010892e+02   1.941537e+02
  -1.242960e+02   9.379566e+01
  -1.563537e+02  -1.538868e+02
   2.002068e+02  -2.017197e+02
   3.809059e+02   1.344744e+02
   1.407802e+02   3.436164e+02
  -2.538614e+02   2.745901e+02
  -4.030398e+02   9.250055e+01
  -2.099116e+02  -1.240636e+02
   1.976056e+01  -2.655315e+02
   2.032212e+02  -2.820787e+02
   3.344728e+02  -2.422151e+02
   3.438813e+02   1.282219e+02
   1.042118e+02   4.032052e+02
  -6.339076e+01   3.238585e+02
  -1.495086e+02   9.102430e+01
  -5.490946e+01  -3.947287e+01
  -1.105770e+01   9.866544e+01
  -1.092063e+02   1.606338e+02
  -1.904355e+02  -7.939481e+01
  -1.461648e+02  -2.523362e+02
   1.011264e+02  -2.021717e+02
   2.556646e+02   1.320440e+01
   1.368625e+02   2.661619e+02
  -4.042973e+01   3.185209e+02
  -2.534752e+02   1.074980e+02
  -4.022610e+02  -1.630016e+02
  -2.109108e+02  -3.618443e+02
   1.150234e+02  -2.839494e+02
   2.455578e+02  -1.226393e+02
   1.649537e+02  -3.420712e+01
   1.048693e+02  -4.806858e+01
   2.212371e+02  -8.613287e+01
   4.200701e+02   5.793538e+01
   3.068413e+02   3.074464e+02
   5.131829e+01   4.018292e+02
  -3.217907e+02   3.621028e+02
  -4.718113e+02   1.778281e+02
  -2.999720e+02  -1.170972e+02
   3.627425e+00  -2.938567e+02
   1.796366e+02  -2.619647e+02
   1.652678e+02  -8.780565e-01
  -1.013201e+02   1.813911e+02
  -2.038153e+02   8.429311e+01
  -6.781108e+01  -1.701457e+02
   1.695849e+02  -2.143069e+02
   2.153256e+02   5.688778e+01
  -2.850226e+00   2.152198e+02
  -2.200551e+02   7.507746e+01
  -1.743106e+02  -2.302395e+02
   4.947042e+01  -3.614321e+02
   2.627911e+02  -1.851711e+02
   3.204922e+02   8.450920e+01
   2.789408e+02   2.901213e+02
   6.497688e+01   2.182616e+02
  -1.424436e+02   1.385949e+02
  -1.772340e+02   1.415103e+01
  -6.335562e+00  -2.766410e+01
   6.860339e+01   3.002570e+01
   3.633361e+01   7.783259e+01
  -7.572502e+01   3.063494e+01
  -1.701108e+02   3.510673e+00
  -4.187842e+01  -2.631201e+01
   1.134943e+02   1.748959e+01
   4.536505e+01   9.688946e+01
  -1.074382e+02   8.608056e+01
  -2.138327e+02   3.436923e+01
  -2.437576e+02  -1.281551e+02
  -1.097742e+02  -2.455422e+02
   1.473071e+02  -2.346896e+02
   2.310460e+02  -1.374656e+02
   1.353208e+02   7.633502e+01
   2.883869e+01   1.418773e+02
  -3.570521e+01  -2.541461e+01
   6.975384e+01  -1.392324e+02
   2.039254e+02  -1.843236e+01
   1.670798e+02   1.360951e+02
  -2.183113e+01   2.391558e+02
  -1.749885e+02   1.465823e+02
  -1.764464e+02  -4.617482e+01
  -5.705482e+01  -8.346857e+01
   3.846831e+01  -3.755584e+01
   8.002530e+01   9.210804e+01
  -5.606191e+01   9.800988e+01
  -1.608411e+02   9.471767e-01
  -1.906121e+02  -1.649957e+02
  -2.515054e+01  -2.032992e+02
   2.072384e+02  -1.844526e+02
   2.199552e+02   7.635703e+00
   8.560355e+01   1.670425e+02
  -4.738758e+01   1.382471e+02
  -7.873898e+01   3.802031e+01
  -5.254842e+01  -3.619732e+01
  -2.836818e+01  -2.375348e+01
  -1.242575e+01   4.570472e+01
  -8.521233e+01  -1.893698e+01
  -7.361028e+01  -3.849080e+01
  -6.548107e+00  -1.656597e+02
   1.278158e+02  -1.742479e+02
   2.211122e+02  -4.224862e+01
   1.898176e+02   1.736421e+02
   3.362963e+01   2.716317e+02
  -1.533102e+02   2.154510e+02
  -2.000090e+02   5.433783e+01
  -9.673370e+01  -9.212116e+01
  -4.381228e+01  -7.551758e+01
  -4.301779e+01  -3.925039e+01
  -6.752973e+01   2.185821e+01
  -4.581327e+00  -3.300857e+01
   6.080420e+01  -7.161565e+01
   7.987964e+01  -9.540195e+01
   8.045070e+01   3.156987e+01
  -3.492631e+00   1.037978e+02
  -1.170137e+02   1.314035e+02
  -1.697892e+02   1.050644e+01
  -1.038805e+02  -2.072676e+02
   8.191724e+01  -2.560306e+02
   2.499981e+02  -9.415516e+01
   2.646276e+02   8.696771e+01
   1.374997e+02   2.088524e+02
  -2.107110e+01   1.393321e+02
  -1.201243e+02   1.175911e+02
  -7.009067e+01   9.517193e+01
  -1.023543e+02   4.785407e+01
  -6.425514e+01   2.602122e+01
  -1.174337e+02  -4.697699e+01
  -1.334153e+02  -1.726451e+02
  -3.664051e+01  -2.237276e+02
   1.054023e+02  -1.798148e+02
   2.358931e+02  -1.244698e+01
   1.600229e+02   1.325318e+02
   3.368942e+01   1.517389e+02
  -6.759136e+01   6.718299e+01
  -7.324989e+01   2.758531e+01
  -5.797063e+01  -3.231095e+01
   3.136898e+01  -3.824368e+01
  -4.925686e+01  -5.614090e+00
  -5.039931e+01  -2.388680e+01
  -6.844083e+01  -2.584243e+01
   4.967085e+01  -1.838992e+01
   1.401195e+02  -3.067546e+01
   2.010178e+02   1.534640e+01
   1.964127e+01   7.376500e+01
  -1.030549e+02   8.563934e+01
  -1.611808e+02   3.686193e+01
  -2.509936e+01  -7.373000e+01
   3.333847e+01  -7.843866e+01
   9.107312e+01   2.875137e+01
   2.602891e+01   4.851763e+01
  -6.292584e+01   7.286419e+01
  -3.650484e+01   1.231572e+01
  -8.496918e+00  -3.825744e+01
  -6.427732e+01  -8.976466e+01
  -8.402615e+01  -3.253652e+01
  -5.618949e+01  -2.313393e+01
  -2.900295e+01  -6.753694e+01
   4.391832e+01  -1.462367e+02
   1.494752e+02  -1.662633e+02
   1.318615e+02  -8.567554e+01
   7.525385e+01   7.361300e+01
   7.284147e+01   1.216179e+02
  -6.295598e-01   4.877510e+01
  -4.255443e+01   1.880166e-01
   5.972370e+01  -2.865369e+01
   1.114072e+02   1.114575e+02
   3.327243e+01   9.927286e+01
  -4.603141e+01   9.904255e+01
  -1.824027e+02   4.957440e+01
  -1.685309e+02   1.036387e+01
  -5.298793e+01  -1.013276e+02
   5.676469e+01  -3.773885e+01
  -9.660042e+00  -3.765099e+01
  -6.046974e+01   2.969182e+01
  -5.946578e+01  -4.823015e+01
   5.263735e+00  -1.166124e+02
   1.098482e+02  -1.439943e+02
   1.500871e+02  -5.816564e+01
   1.547835e+02   1.149534e+02
   5.521899e+01   2.319256e+02
  -4.259383e+01   1.338910e+02
  -1.000489e+02   3.880891e+01
  -3.013206e+01  -9.206689e+01
  -1.550408e+01  -3.292527e+01
   2.617957e+01   1.451431e+01
   3.723260e+01   6.640062e+01
   5.578204e+01  -2.787649e+01
  -2.993968e+01   2.934720e+01
   2.006130e+01   3.616244e+01
   4.740601e+01   7.514655e+01
  -1.503737e+01   1.301324e+02
  -8.054697e+01   6.258106e-01
  -1.285547e+02  -4.415242e+01
  -1.331307e+02  -1.160548e+02
  -7.892105e+01  -3.661656e+01
   7.828149e+01  -2.676425e+01
   1.208044e+02  -3.774975e+01
   2.093796e+01   1.183564e+01
  -1.044820e+01   3.463897e+01
   3.501231e+01   1.704110e+01
   4.718023e+01   2.141275e+01
  -2.472311e+01   4.952800e+01
  -1.381796e+02  -3.525129e+00
  -1.567223e+02  -5.315167e+01
  -1.358105e+00  -8.434660e+01
   1.722264e+02  -1.134875e+02
   2.369624e+02  -4.458877e+01
   2.257722e+02   8.064367e+01
   6.171704e+01   1.519389e+02
  -7.560354e+01   1.632877e+02
  -7.052803e+01   1.072278e+02
  -8.380019e+01  -9.293469e+01
  -4.551043e+01  -2.856576e+01
  -4.389352e+00   2.604097e+01
  -4.327317e+01   8.699881e+00
  -4.398296e+01  -3.723077e+01
   2.019515e+00  -1.063976e+02
   5.677653e+01  -4.024028e+01
   4.231619e+01   2.892556e+01
   4.195905e+01   9.967522e+01
   2.174301e+01   1.245448e+02
  -1.343989e+01   3.914383e+01
  -6.902418e+01  -1.069409e+02
  -3.172644e+01  -8.162199e+01
   5.165338e+01  -8.340535e+01
   1.221431e+02   2.870219e+01
   6.089878e+01   3.742610e+01
  -4.721754e+01   6.366410e+01
  -4.029493e+00   4.328250e+01
   6.667896e+01   9.371632e+01
   8.922012e+01   9.026968e+00
  -1.939580e+01   8.456447e+01
  -1.129076e+02   7.937234e+01
  -1.533593e+02  -1.149711e+01
  -1.006727e+02  -4.176226e+01
   2.165049e+01  -5.648600e+01
   3.928034e+01  -8.082276e+01
   7.029617e+01  -5.457131e+00
  -1.403857e+01   3.364033e+01
  -2.307307e+01   4.050203e+01
  -3.089865e+01   3.463150e+01
  -4.741054e+01  -7.134071e+01
   2.570926e+01  -2.674370e+01
   8.483738e+01   1.195765e+01
   4.032060e+01   4.292008e+01
  -3.790032e-01   1.934955e+00
  -5.823894e+00   2.895565e+01
  -3.828002e+01  -1.597204e+01
  -4.228318e+01   2.794588e+01
  -5.678374e+01  -3.519290e+01
  -1.418633e+01   1.578745e+01
  -2.645562e+01  -5.274539e+01
   9.371105e+00  -4.100574e+00
   9.064559e+01  -2.820647e+01
   7.168145e+01   1.692841e+01
   4.719833e+01   2.448249e+01
  -6.894375e+01   7.553800e+01
  -9.513043e+01   3.316239e+00
  -5.984456e+01  -5.005658e+01
   8.210563e+00  -2.932576e+01
   4.100103e+01   7.972881e-01
   2.995793e+01   3.740171e+00
  -7.735183e+01  -1.308374e+01
  -4.184942e+01  -4.850269e+00
   4.370958e+01  -3.246924e+01
   1.271233e+02  -2.485901e+01
