
 $NMID
 id='ANONYMOUS ', fmtdat='(2E16.6)'
 volume=1.0
 tramp=1.0
 $END
   4.241061e+03  -1.555648e+02
   2.714708e+03   2.672063e+03
  -5.230369e+02   2.874414e+03
  -2.175017e+03   1.075815e+03
  -1.153360e+03  -6.708719e+02
   3.608344e+02  -6.157063e+02
   7.258832e+02   3.422739e+02
   1.456172e+01   9.130379e+02
  -8.688059e+02   7.952377e+02
  -1.029376e+03  -1.011077e+02
  -5.357115e+02  -8.286618e+02
   1.772330e+02  -9.930583e+02
   5.886665e+02  -2.069834e+02
   4.628249e+02   7.651418e+02
  -1.659958e+02   7.774721e+02
  -5.663387e+02   2.471592e+00
  -2.641973e+02  -6.814503e+02
   4.553495e+02  -7.058587e+02
   5.727645e+02  -9.321205e+01
   3.735258e+02   3.478714e+02
   7.318216e+01   4.424286e+02
  -3.077813e+02   3.670898e+02
  -1.774490e+02  -2.843857e+01
   1.770461e+02   4.156184e+01
   3.303221e+02   1.375263e+02
   2.339763e+02   4.383279e+02
  -4.237720e+02   4.472798e+02
  -8.495866e+02  -6.483512e+01
  -5.518837e+02  -5.512724e+02
   3.246407e+02  -4.543401e+02
   6.097052e+02   4.195033e+01
   3.621067e+02   4.251835e+02
  -2.714415e+02   5.252212e+02
  -6.471713e+02   2.320197e+02
  -3.656579e+02  -2.024352e+02
  -7.592204e+01  -4.987127e+02
   2.259644e+02  -3.960416e+02
   1.574557e+02   2.072413e+02
  -2.143736e+02   5.023417e+02
  -5.317397e+02   2.873700e+01
  -3.021508e+02  -7.765705e+02
   3.254458e+02  -7.616347e+02
   6.091946e+02  -5.600458e+01
   2.965049e+02   6.188304e+02
  -3.207883e+02   3.401655e+02
  -4.243789e+02  -3.623126e+02
   6.710836e+01  -6.317091e+02
   6.062285e+02  -1.654884e+02
   6.634103e+02   4.498277e+02
   1.976109e+02   6.560760e+02
  -4.232567e+02   3.661716e+02
  -6.613685e+02  -9.958939e+01
  -3.996934e+02  -4.080113e+02
   1.334985e+02  -3.818374e+02
   4.153252e+02  -8.739465e+01
   2.093202e+02   1.966253e+02
  -1.472081e+02   9.514819e+01
  -1.593984e+02  -1.354173e+02
   1.314798e+02  -2.008300e+02
   3.507621e+02   4.526714e+01
   1.565176e+02   2.649229e+02
  -1.992287e+02   2.581855e+02
  -3.537847e+02   5.871700e+01
  -2.205999e+02  -1.120130e+02
   2.452564e+01  -3.241358e+02
   2.736551e+02  -3.394287e+02
   3.719117e+02  -2.190981e+02
   3.313950e+02   1.608709e+02
   7.480385e+01   4.351180e+02
  -1.727788e+02   3.714892e+02
  -1.702972e+02   9.061235e+01
  -1.010340e+02  -5.386441e+00
  -9.906777e+01   2.987175e+01
  -1.654502e+02   3.492412e+01
  -2.213418e+02  -9.486035e+01
  -1.253027e+02  -2.888476e+02
   8.130028e+01  -3.214019e+02
   2.595615e+02  -1.024957e+01
   2.338493e+02   2.751467e+02
   3.385844e+01   3.418819e+02
  -2.505524e+02   1.530782e+02
  -3.746675e+02  -1.509215e+02
  -2.359397e+02  -3.862544e+02
   5.214893e+01  -3.259128e+02
   2.519177e+02  -1.313446e+02
   2.005093e+02  -1.824643e+01
   9.911587e+01  -2.156607e+01
   2.285463e+02  -4.278739e+01
   3.699340e+02   7.757814e+01
   3.215125e+02   2.873955e+02
   1.929501e+01   4.641026e+02
  -3.760044e+02   3.871120e+02
  -5.509561e+02   1.745435e+02
  -3.214406e+02  -1.249914e+02
  -3.335794e+00  -2.824874e+02
   1.477948e+02  -2.261330e+02
   5.784255e+01  -2.552364e+01
  -1.361091e+02   5.880724e+01
  -1.864731e+02  -4.047063e+01
   1.925728e+01  -2.117822e+02
   1.815420e+02  -1.804707e+02
   1.991236e+02   3.193909e+01
  -5.620665e+01   2.153157e+02
  -2.062761e+02   6.505694e+01
  -1.544211e+02  -2.225490e+02
   4.529256e+01  -3.143442e+02
   2.657996e+02  -1.864570e+02
   3.410362e+02   3.006203e+01
   2.753376e+02   2.737791e+02
   1.130133e+02   2.492644e+02
  -9.610851e+01   1.640318e+02
  -1.644920e+02   5.142255e+01
  -3.623598e+01  -4.525071e+00
   4.911296e+01   6.224594e+01
  -2.322628e+00   1.591437e+02
  -1.212442e+02   7.655885e+01
  -2.316107e+02   2.364956e+01
  -8.087982e+01  -4.050809e+01
   6.308302e+01  -2.946579e+01
   4.489812e-01   9.214953e+01
  -1.336436e+02   5.800429e+01
  -2.522510e+02  -2.675154e+01
  -2.043953e+02  -1.157271e+02
  -3.043964e+01  -1.909140e+02
   2.061364e+02  -2.998615e+02
   3.081687e+02  -1.345143e+02
   2.272057e+02   6.148604e+01
  -1.556744e+01   1.321761e+02
  -1.083114e+02   8.054431e+01
   5.632246e+01  -8.233210e+01
   1.950886e+02  -9.383908e+01
   2.259711e+02   1.455408e+02
   3.842646e+01   2.131854e+02
  -1.211734e+02   1.367292e+02
  -1.615928e+02   4.948329e+01
  -9.088194e+01  -6.067142e+01
  -2.874220e-01  -1.300551e+01
   4.610190e+01   1.407027e+02
  -9.400107e+01   9.072126e+01
  -2.326433e+02   5.482327e+01
  -2.161065e+02  -1.438435e+02
  -7.492498e+01  -2.206772e+02
   1.290987e+02  -1.909582e+02
   1.836433e+02  -2.774909e+01
   7.468449e+01   7.947033e+01
  -5.087763e+01   6.590114e+01
  -6.284473e+01   2.801089e+01
   1.232292e+01  -3.184461e+01
   5.070053e+01  -2.497551e+01
  -8.919276e+00   3.377699e+01
  -8.254356e+01   6.065852e+00
  -1.055029e+02  -7.872439e+01
  -3.731144e+01  -1.261946e+02
   1.387887e+02  -1.827169e+02
   2.827775e+02  -8.582998e+01
   2.150632e+02   1.623300e+02
   1.579669e+01   2.869246e+02
  -1.273679e+02   2.077583e+02
  -1.297939e+02   8.883809e+01
  -2.810510e+01  -4.558301e+01
  -3.592253e+01  -6.623930e+01
  -1.220241e+02  -2.859168e+00
  -1.054898e+02  -9.350583e-01
  -5.591043e+01  -1.416084e+02
   3.303311e+01  -8.778070e+01
   8.736508e+01  -7.780341e+01
   7.717640e+01   4.630788e+01
  -1.539411e+01   1.750553e+02
  -1.096624e+02   8.486392e+01
  -2.478418e+02  -8.008199e+01
  -8.618948e+01  -1.844357e+02
   1.164247e+02  -2.740978e+02
   2.770474e+02  -4.975990e+01
   2.677506e+02   1.652764e+02
   1.383303e+02   2.094038e+02
  -3.595200e+01   1.318760e+02
  -7.153477e+01   1.007310e+02
  -8.365317e+01   2.217362e+01
  -6.649077e+01   1.048048e+02
  -8.583483e+01   6.932383e+01
  -1.620437e+02   2.770307e+00
  -1.880492e+02  -1.769947e+02
  -7.205267e+01  -2.023760e+02
   9.759069e+01  -1.916690e+02
   1.785785e+02  -9.669287e+00
   1.194656e+02   1.665698e+02
   1.422566e+01   1.856431e+02
  -1.064517e+02   9.110485e+01
  -7.150416e+01   1.081222e+01
  -4.939982e+00  -4.069875e+01
  -2.732973e+01  -6.181328e+01
  -6.533875e+01   3.078159e+01
  -1.389018e+02  -7.521458e+01
  -7.530033e+01  -6.238064e+01
   4.986210e+01  -9.733593e+01
   1.878806e+02  -8.701722e+00
   1.419126e+02   5.338585e+01
   6.111467e+01   1.442936e+02
  -1.484726e+02   7.813036e+01
  -1.475802e+02   8.167740e+00
  -7.021805e+01  -5.119268e+01
   7.238399e+01  -6.498187e+01
   9.431586e+01   8.164602e+00
   5.314570e+01   1.120739e+02
  -5.409537e+01   5.147918e+01
  -9.499896e+01   1.888366e+00
  -1.199556e+02  -4.307249e+01
  -1.658380e+01  -3.806960e+01
  -3.798951e+01   1.466633e+00
   2.676904e+01  -2.007013e+01
  -5.069872e+01  -9.620628e+01
  -7.888933e+00  -1.132914e+02
   8.500485e+01  -1.406678e+02
   1.708140e+02  -5.954317e+01
   1.164201e+02   9.167119e+01
   4.702418e+01   1.343119e+02
  -4.644699e+01   6.856180e+01
  -4.797518e+01  -1.848462e+01
   1.036457e+02  -2.728261e+01
   1.312960e+02   5.267704e+01
   5.884241e+01   1.405868e+02
  -9.257233e+01   1.110839e+02
  -1.804713e+02   1.241057e+02
  -1.310543e+02  -7.801693e+00
  -9.779431e+00  -1.204760e+02
   7.700343e+01  -1.007096e+02
   5.056088e+01  -7.889011e+00
  -4.513124e+01   3.370136e+01
  -4.321300e+01  -4.453039e+01
  -3.767402e+01  -1.629083e+02
   1.079383e+02  -1.687165e+02
   1.756882e+02  -2.508784e+01
   1.330893e+02   1.306917e+02
   1.561925e+01   1.937138e+02
  -4.949583e+01   1.404222e+02
  -1.504340e+02   1.996938e+01
  -6.744687e+01  -9.581637e+01
  -1.012868e+01  -8.932025e+01
   7.140683e+01  -3.635589e+01
   8.338246e+01  -1.990044e+01
   2.116394e+01  -2.960704e+01
  -4.522760e+01  -5.101372e+01
   1.631148e+01  -7.525684e+00
   6.940838e+01   9.404333e+01
   5.167120e+01   9.283881e+01
  -2.138794e+01   7.609118e+01
  -1.232749e+02  -6.008892e+01
  -1.411738e+02  -1.001616e+02
  -4.925066e+01  -2.372792e+01
   7.719771e+01  -7.955827e+01
   4.883598e+01   3.672582e+01
   1.300955e+01   3.386193e+00
  -3.650080e+01   5.220866e+01
   1.625917e+00   3.285468e+01
   2.683025e+01   2.028984e+01
  -9.451574e+00  -2.214271e+01
  -1.374998e+02   1.998211e+01
  -4.622042e+01  -1.375912e+01
   1.179912e+01  -8.527968e+01
   1.494543e+02  -1.354819e+02
   2.163839e+02  -8.918401e+01
   1.586601e+02   6.761456e+01
   2.234549e+01   1.668885e+02
  -9.579665e+01   1.580850e+02
  -1.702107e+02   7.652438e+01
  -6.582688e+01   3.594722e+01
  -9.797122e-01  -4.826068e+01
   3.756738e+01   5.490779e-01
  -6.947381e+00   8.914923e+00
  -4.434568e+01  -1.587973e+01
  -4.954005e+01  -4.588121e+01
   1.230390e+01  -9.288803e+01
   5.451642e+01   4.140873e+00
   4.869425e+01   7.382584e+01
   3.913153e+01   4.846755e+01
  -1.111256e+02   6.411901e+00
  -1.148636e+02  -6.851643e+01
  -4.790105e+00  -8.116080e+01
   2.833538e+01  -7.182884e+01
   1.121470e+02  -9.286769e+00
   1.750535e+01   4.205816e+01
  -9.340783e+00   4.351775e+01
   2.621115e+01   5.174060e+01
   2.469351e+00  -5.059659e+01
   1.661188e+01   2.277171e+01
  -1.401321e+01   1.452449e+01
  -1.005177e+02   6.542627e+01
  -1.070887e+02   8.027512e+01
  -5.940065e+01  -4.037316e+01
  -1.422968e+01  -7.470083e+01
   8.072575e+01  -1.134516e+02
   8.653257e+00  -7.435951e+00
  -1.005158e+01   6.911831e+01
  -5.220378e+01   4.236910e+01
  -5.976709e+01  -5.636015e+01
  -2.785100e+01  -1.010918e+02
  -1.734967e+01  -4.810368e+01
   4.242670e+01   1.095239e+01
   7.146429e+01   6.505243e+01
   1.746670e+01   4.804396e+01
   1.490574e+01   3.664594e-01
  -1.961832e+01  -8.291115e+00
   5.025590e+01   1.885003e+01
   1.438666e+01   5.484524e+00
  -5.511996e+00  -6.559725e+00
  -5.795717e+01  -4.051848e+01
   1.015149e+01  -1.076478e+02
   7.535822e+01  -1.924513e+00
   5.023040e+01   4.368392e+01
   2.312925e+01   6.059671e+01
  -8.876920e+01   3.228677e+01
  -6.328717e+01   2.247266e-01
   1.006992e+01  -3.937072e+01
   1.101243e+01  -2.846401e+01
   4.358160e+01  -2.718032e+01
   6.078434e+01   5.239844e+00
  -3.224849e+01   1.059908e+00
  -3.772782e+01  -2.242209e+01
   3.974666e+01  -4.197796e+01
   1.074546e+02  -2.087761e+01
