
 $NMID
 id='ANONYMOUS ', fmtdat='(2E16.6)'
 volume=1.0
 tramp=1.0
 $END
   3.313950e+03  -2.602462e+00
   2.298364e+03   1.851023e+03
   5.048465e+00   2.167158e+03
  -1.340884e+03   1.440093e+03
  -1.051512e+03   2.141600e+02
   3.682275e+01  -2.688692e+02
   3.230847e+02  -5.601046e+01
   8.657269e+01   6.703794e+02
  -6.596563e+02   6.452459e+02
  -7.603597e+02   6.037297e+01
  -4.693392e+02  -6.234039e+02
  -8.461611e+01  -7.561307e+02
   3.386485e+02  -2.619010e+02
   1.992605e+02   5.226567e+02
  -2.631249e+02   5.942573e+02
  -2.080770e+02   2.304868e+02
  -4.401886e+02  -4.507518e+02
   2.581383e+02  -5.540896e+02
   3.006935e+02  -2.283633e+02
   5.360993e+02   1.672927e+02
   1.282540e+02   3.376672e+02
  -2.311041e+02   3.478091e+02
  -1.402210e+02  -2.667859e+01
   2.337922e+02   7.701963e+01
   2.120191e+02   3.961898e+02
  -1.430556e+02   1.647269e+02
  -4.688559e+02   1.990048e+02
  -5.241723e+02  -8.845833e+01
  -2.740864e+02  -3.835161e+02
   2.602827e+02  -2.681625e+02
   5.516961e+02   1.510345e+02
   5.275414e+01   3.289280e+02
  -3.602848e+02   3.411158e+02
  -3.875146e+02   8.894615e+01
  -3.840072e+02  -1.518731e+02
  -1.322666e+02  -3.354060e+02
   8.983741e+01  -2.136107e+02
  -3.527735e+01   7.228117e+01
  -2.244920e+02   1.936207e+02
  -2.735215e+02  -1.934166e+02
  -1.572274e+01  -4.604404e+02
   2.127720e+02  -3.858973e+02
   3.132568e+02  -5.022944e+01
   1.056124e+02   2.838121e+02
  -1.038849e+02   1.632295e+02
  -1.870272e+02  -2.539859e+02
   3.832867e+01  -3.767010e+02
   4.394886e+02  -6.438116e+01
   5.385322e+02   3.179072e+02
   1.729263e+02   5.449556e+02
  -2.728070e+02   3.294267e+02
  -5.329946e+02   4.247404e+01
  -3.728852e+02  -2.020194e+02
  -1.164110e+01  -2.468930e+02
   2.817647e+02  -7.807686e+01
   1.675825e+02   2.896889e+01
  -4.010914e+00   3.065709e+01
  -6.262255e+01  -4.368735e+01
   9.082036e+01  -4.162309e+01
   2.073855e+02  -1.200599e+01
   1.869665e+02   2.129419e+02
  -1.016731e+02   3.139808e+02
  -3.824974e+02   1.610469e+02
  -3.342160e+02  -1.128690e+02
   1.046769e+01  -3.586469e+02
   2.640051e+02  -3.946092e+02
   3.989602e+02  -1.912494e+02
   2.952642e+02   1.402447e+02
   7.668464e+01   3.092805e+02
  -3.452869e+01   2.681960e+02
  -1.648895e+01   1.607591e+02
  -4.979522e+01   1.340120e+02
  -1.687414e+02   7.946235e+01
  -2.289623e+02   6.920923e+01
  -2.110653e+02  -1.383912e+02
  -1.510775e+02  -3.062989e+02
   1.037754e+02  -2.247685e+02
   1.836798e+02   2.234688e+01
   9.066061e+01   2.897838e+02
  -6.983522e+01   2.996089e+02
  -2.969686e+02   1.164215e+02
  -3.150080e+02  -2.060107e+02
  -1.478436e+02  -3.371814e+02
   9.983871e+01  -2.652733e+02
   1.218218e+02  -1.890364e+02
   1.444403e+02  -1.039569e+02
   1.432200e+02  -9.990579e+01
   2.432505e+02  -6.663251e+01
   4.030019e+02   9.703648e+01
   3.232501e+02   3.444833e+02
  -4.209525e+01   4.802815e+02
  -3.341202e+02   3.835910e+02
  -4.718409e+02   1.629189e+02
  -2.905340e+02  -9.691039e+01
  -2.258333e+01  -2.583839e+02
   9.783152e+01  -1.916295e+02
   2.855997e+01   4.075499e+01
  -8.872836e+01   3.749024e+00
  -1.603286e+02  -9.492641e+01
   2.604273e+01  -1.854292e+02
   1.181185e+02  -1.278632e+02
   1.206133e+02   7.571389e+01
   5.919872e+00   1.611955e+02
  -1.772769e+02   1.565048e+01
  -1.635337e+02  -2.281353e+02
   5.294329e+01  -3.642348e+02
   2.687140e+02  -2.349798e+02
   3.778552e+02  -5.100513e+00
   2.819305e+02   2.719843e+02
   4.281211e+01   2.670419e+02
  -1.309347e+02   1.321990e+02
  -1.209026e+02   2.120652e+01
  -7.938891e+01   1.734161e+01
   4.332413e+01   4.436487e+01
  -3.646350e+00   6.512986e+01
  -7.769371e+01   3.035494e+01
  -1.137454e+02  -2.185061e+01
  -1.267446e+01  -1.227950e+01
   8.977373e+01   5.920558e+01
  -1.149165e+01   1.449594e+02
  -1.787336e+02   1.890173e+02
  -3.386572e+02  -6.528925e-01
  -2.310006e+02  -1.807209e+02
   1.351815e+01  -2.882635e+02
   1.582437e+02  -2.424011e+02
   3.071623e+02  -1.140696e+02
   2.004352e+02   5.305616e+01
  -2.129517e+01   1.206668e+02
  -7.324320e+01   1.733414e+01
   3.266648e+01  -5.283511e+01
   1.692333e+02   2.178030e+00
   1.170891e+02   7.851328e+01
   5.310865e+01   1.859260e+02
  -1.129272e+02   1.390640e+02
  -1.246019e+02   3.938691e+01
  -3.320767e+01  -6.525751e+01
   6.215378e+01   1.665103e+01
   5.614846e+01   8.041863e+01
  -1.127903e+02   8.078311e+01
  -2.293749e+02   1.270795e+01
  -1.822389e+02  -1.379454e+02
   1.570704e+01  -2.530720e+02
   1.673241e+02  -1.623084e+02
   1.765326e+02  -3.385795e+01
   9.374735e+01   3.830449e+01
  -3.694618e+00   1.316298e+02
  -3.877922e+01  -3.739099e+00
   1.305035e+00  -1.178575e+01
  -1.400963e+01  -1.170010e+01
  -6.328193e+01   6.735916e+01
  -1.481180e+02  -1.369510e+01
  -1.353714e+02  -1.295147e+02
  -5.392272e+01  -1.782237e+02
   9.436962e+01  -1.565915e+02
   2.638790e+02  -6.194772e+01
   1.879771e+02   1.323794e+02
   6.815723e+01   1.993295e+02
  -4.290372e+01   1.969579e+02
  -6.678930e+01   9.283322e+01
  -8.910957e+01  -7.094929e+00
  -4.600306e+01  -5.615135e+01
  -7.253833e+01  -3.904925e+00
  -1.075903e+02  -3.218115e+01
  -2.441680e+01  -1.181119e+02
   5.735678e+01  -9.933780e+01
   1.404773e+02  -6.661938e+01
   9.991804e+01   4.903163e+01
  -6.831765e+00   1.284784e+02
  -1.800446e+02   1.109892e+02
  -1.856368e+02  -5.647644e+01
  -4.299172e+01  -2.027024e+02
   1.247168e+02  -2.152856e+02
   2.637038e+02  -5.953333e+01
   2.457874e+02   1.304986e+02
   1.238388e+02   1.928999e+02
  -7.849138e+01   1.479949e+02
  -8.253545e+01   7.470208e+01
  -9.431938e+01   6.490723e+01
  -8.250702e+01   8.573866e+01
  -9.855514e+01   9.243104e+01
  -1.465967e+02  -7.064061e+01
  -4.449058e+01  -1.946230e+02
  -1.381030e+01  -2.192377e+02
   1.289646e+02  -1.807450e+02
   2.074764e+02  -1.795913e+00
   1.548084e+02   1.411478e+02
  -3.091118e+01   1.745620e+02
  -1.533384e+02   8.137109e+01
  -1.172357e+02  -1.715523e+01
  -4.934669e+01  -2.128108e+01
  -3.205516e+00  -5.708256e+01
   2.097991e+00  -3.814458e+01
  -4.634374e+01  -2.333913e+01
  -3.718272e+01  -2.332865e+01
   9.841278e+01  -1.038094e+02
   1.639781e+02  -3.189325e+01
   1.216800e+02   6.371361e+01
   2.575304e+01   5.135911e+01
  -1.177166e+02   3.332634e+01
  -1.132858e+02   1.598811e+01
  -1.322184e+01  -3.629033e+01
   6.465690e+01  -6.561328e+01
   8.257159e+01  -8.225399e-01
   2.791937e+01   9.534741e+01
  -3.319605e+01   1.548498e+02
  -1.149529e+02   4.261589e+01
  -8.378260e+01  -4.351147e+01
  -9.774444e+01  -5.304850e+01
  -6.092963e+01  -8.405984e-01
  -1.181502e+02  -2.978471e+01
  -1.472271e+01  -6.094041e+01
   6.166146e+01  -1.423471e+02
   1.329413e+02  -1.532293e+02
   2.131868e+02   1.641900e+01
   1.604586e+02   1.126061e+02
   5.154720e+01   1.631828e+02
  -8.936374e+01   7.377542e+01
  -7.170642e+01  -4.293355e+01
   1.679128e+00  -1.701164e+01
   1.316123e+02   5.177150e+01
   7.478233e+01   1.002705e+02
  -8.590138e+01   1.057313e+02
  -1.803413e+02   3.223125e+01
  -9.552270e+01  -4.124145e+01
  -1.341162e+01  -7.128648e+01
   6.643488e+01  -4.039089e+01
   4.963622e+01   2.301762e+01
  -1.046837e+02   5.045696e+01
  -1.120167e+02  -2.982602e+01
   1.813100e+00  -1.276339e+02
   1.249214e+02  -1.844878e+02
   2.052700e+02  -9.472656e+01
   1.214901e+02   1.140786e+02
   6.264045e+01   2.517381e+02
  -8.149778e+01   1.666476e+02
  -7.878483e+01  -3.783028e+01
  -7.054796e+01  -9.758885e+01
  -3.202729e+01  -1.355596e+02
   1.141739e+01   6.520912e+00
   3.416436e+01   1.213087e+01
   3.262303e+00  -4.958398e+01
  -4.163416e+01  -2.865792e+01
   1.459447e+01   6.639381e+00
   5.222700e+01   5.233909e+01
   4.279357e+01   9.155137e+01
  -5.807968e+01   4.226936e+01
  -1.149535e+02  -2.728927e+01
  -1.479090e+02  -4.464035e+01
  -4.033669e+01  -4.060828e+01
   7.201073e+01  -4.738429e+01
   1.448764e+02  -6.294349e+00
   7.929287e+01   3.448331e+00
  -4.705067e+01   3.515909e+01
  -3.064085e+01   2.830610e+01
   1.966857e+01  -1.415345e+01
  -4.886751e+01  -1.946259e+01
  -6.413412e+01  -3.566619e+00
  -9.069455e+01  -3.958568e+01
  -2.468012e+01  -1.587805e+01
   6.227935e+01  -9.515923e+01
   1.422103e+02  -9.214558e+01
   1.239603e+02   4.363583e+01
   4.049310e+01   1.534741e+02
  -4.121346e+01   1.884823e+02
  -8.432301e+01   7.490368e+01
  -6.958354e+01  -1.901045e+01
  -6.628964e+01  -7.559876e+01
   3.426692e+01  -2.636963e+01
  -7.959420e+00  -1.488269e+01
   2.957819e+00  -1.875323e+00
   7.483451e+00  -8.656743e+01
   1.166828e+01  -8.325582e+01
   6.529061e+01  -2.964281e+01
   1.222655e+02   7.642668e+01
   7.355337e+00   9.360868e+01
  -7.398194e+01   7.919218e+01
  -1.130942e+02  -3.970994e+01
  -1.417210e+02  -1.139944e+02
   5.859087e+01  -8.251400e+01
   1.174385e+02  -1.820193e+01
   7.787049e+01   5.744124e+01
  -5.063634e+01   6.031551e+01
  -6.825689e+01   7.296690e+01
   4.922790e+00   4.983471e+01
   4.046352e+01  -1.311004e+01
  -3.976056e+01  -2.543444e+01
  -7.192833e+01   5.121677e+01
  -1.213797e+02  -2.689200e+00
   9.311588e+00  -6.989778e+01
   5.493204e+01  -1.029165e+02
   8.978491e+01  -1.196001e+02
   5.172385e+01  -2.441293e+01
   2.708364e+01   5.515544e+01
  -2.703129e+01   6.931245e+01
  -1.080995e+01  -1.623786e+01
  -1.427759e+01  -4.985214e+01
  -4.349287e+01  -5.717939e+01
   3.523357e+01   5.329383e+01
   1.755557e+01   4.260511e+01
   5.938677e+01   6.667159e-01
  -5.023163e+00  -6.221155e+01
  -9.940971e+00  -1.006536e+01
  -1.335022e+01   3.924083e+01
   9.337961e+00   7.996947e+01
   3.497389e+01  -7.342591e+00
  -1.051649e+01  -6.418737e+01
  -4.589231e+01  -2.897669e+01
   3.734675e+01  -3.188627e+01
   6.031796e+01  -3.203912e+00
   4.955920e+01   6.347394e+01
  -9.616887e+00   4.674549e+01
  -8.328676e+01   1.124748e+00
  -5.350448e+01  -2.261946e+01
  -1.340147e+01  -7.126798e+01
   2.322468e+01  -1.770878e+01
  -1.776379e+01  -1.649668e+01
  -2.083947e+01   1.362506e+01
  -1.639507e+01  -5.736308e+01
   1.027348e+01  -4.093808e+01
   8.765208e+01  -3.687291e+01
