
 $NMID
 id='ANONYMOUS ', fmtdat='(2E16.6)'
 volume=1.0
 tramp=1.0
 $END
   4.346091e+03  -1.247322e+02
   2.234795e+03   2.303409e+03
  -5.487316e+02   2.258480e+03
  -1.693255e+03   1.218255e+03
  -1.047095e+03  -2.380953e+02
   3.730448e+02  -4.770954e+02
   6.728784e+02   1.378755e+02
  -3.188892e+01   9.073219e+02
  -5.718538e+02   6.351241e+02
  -7.869570e+02   9.027982e+01
  -4.167451e+02  -7.683727e+02
   1.528462e+02  -8.063416e+02
   5.450899e+02  -1.289018e+02
   4.302074e+02   6.600945e+02
  -1.457911e+02   4.545924e+02
  -4.956250e+02  -3.616640e+01
  -4.103121e+02  -6.613861e+02
   2.179747e+02  -7.702794e+02
   6.500812e+02  -2.024436e+02
   3.080686e+02   2.134855e+02
  -1.305265e+02   3.349127e+02
  -2.594758e+02   1.524748e+02
  -3.759778e+01   7.399811e+01
   7.399952e+01  -4.740437e+00
   4.668055e+02   2.098865e+02
   1.029178e+02   3.679184e+02
  -3.460894e+02   4.315563e+02
  -8.697957e+02  -4.477464e+01
  -2.722978e+02  -4.880289e+02
   3.283135e+02  -4.082516e+02
   5.590064e+02  -2.055158e+01
   3.131378e+02   3.641076e+02
  -2.216043e+02   4.919451e+02
  -5.428436e+02   1.902760e+02
  -2.815589e+02  -2.879358e+02
   6.810922e+01  -4.376264e+02
   1.052623e+02  -2.319817e+02
   1.140103e+02   2.259839e+02
  -2.144606e+02   3.315829e+02
  -3.538543e+02  -7.742766e+01
  -2.056856e+02  -6.041658e+02
   2.868086e+02  -5.798565e+02
   4.853740e+02   5.525599e+00
   1.764206e+02   4.478609e+02
  -2.096743e+02   2.709668e+02
  -2.517017e+02  -2.768633e+02
   5.354094e+01  -4.366812e+02
   5.484720e+02  -1.190678e+02
   5.745210e+02   3.932277e+02
   1.590146e+02   6.067945e+02
  -3.417045e+02   3.740423e+02
  -5.952042e+02  -7.073715e+01
  -3.420635e+02  -3.800064e+02
   1.256860e+02  -3.095856e+02
   3.447152e+02   1.894391e+01
   2.045431e+02   1.622630e+02
  -7.249306e+01   1.109883e+02
  -1.052362e+02  -1.498958e+02
   1.222472e+02  -1.544708e+02
   2.755579e+02   6.707322e+01
   1.765684e+02   2.781912e+02
  -1.859398e+02   3.430818e+02
  -4.037777e+02   1.307709e+02
  -2.685997e+02  -1.152649e+02
  -1.543998e+01  -2.724853e+02
   2.172705e+02  -3.644741e+02
   3.522387e+02  -2.351889e+02
   2.468537e+02   9.770318e+01
   6.266688e+01   3.465954e+02
  -4.579856e+01   3.650738e+02
  -7.734430e+01   1.539471e+02
  -3.919346e+01   4.123429e+01
  -7.772911e+01   8.937697e+01
  -1.661975e+02   1.413963e+02
  -2.779201e+02  -4.747443e+01
  -1.869382e+02  -2.344605e+02
   1.077723e+01  -2.118553e+02
   2.192188e+02   2.361627e+00
   1.865520e+02   2.598067e+02
  -6.269096e+01   2.336982e+02
  -2.633993e+02   7.498103e+01
  -2.884681e+02  -2.068952e+02
  -1.413212e+02  -2.924008e+02
   1.097073e+02  -2.864465e+02
   1.526737e+02  -7.761865e+01
   1.130021e+02  -3.816333e+00
   1.301212e+02  -5.618861e+01
   2.619215e+02  -4.260911e+01
   4.333647e+02   7.214601e+01
   3.154300e+02   2.556768e+02
   2.151479e+01   4.484308e+02
  -3.824829e+02   4.483989e+02
  -5.273135e+02   2.347044e+02
  -3.861426e+02  -9.161634e+01
  -9.519708e+01  -2.663877e+02
   7.409324e+01  -2.508418e+02
   1.595405e+01  -9.560592e+01
  -1.226764e+02   5.020981e+01
  -1.865989e+02  -8.026445e+01
  -5.263391e+01  -1.895516e+02
   1.444151e+02  -1.101975e+02
   2.157351e+02   8.109569e+01
   8.219598e+00   2.027680e+02
  -1.199990e+02   4.538067e+01
  -2.046346e+02  -2.003090e+02
  -7.599584e+01  -3.268123e+02
   1.477664e+02  -2.296968e+02
   3.277137e+02  -1.858094e+01
   3.375259e+02   2.063613e+02
   9.211198e+01   2.212266e+02
  -7.773824e+01   1.417118e+02
  -1.786509e+02  -9.587834e+00
  -5.832149e+01  -4.216852e+01
   6.973465e+01   4.201804e+01
  -3.307388e+00   1.200503e+02
  -1.440753e+02   8.058274e+01
  -1.496638e+02  -2.426441e+01
  -3.689885e+01  -6.098124e+01
   7.980165e+01   8.884049e+00
   2.868996e+01   6.900310e+01
  -1.044353e+02   6.198611e+01
  -3.224559e+02  -2.507288e-01
  -2.932803e+02  -1.694274e+02
   9.013553e+00  -2.411143e+02
   1.675508e+02  -2.257031e+02
   2.653369e+02  -8.711696e+01
   1.797683e+02   6.749148e+01
  -8.024775e+01   9.012028e+01
  -8.994664e+01  -2.402824e+01
   1.843193e+01  -1.554930e+02
   1.710269e+02  -8.543199e+01
   2.503057e+02   7.894460e+01
   1.339451e+02   2.492025e+02
  -8.138006e+01   1.189240e+02
  -1.686191e+02   2.035406e+01
  -8.541903e+01  -2.781821e+01
   6.596262e+01  -2.519514e+01
   8.324018e+01   8.014598e+01
  -7.834180e+01   1.805998e+02
  -2.145261e+02   5.530409e+01
  -1.899366e+02  -1.129668e+02
  -6.888919e+01  -2.216521e+02
   1.458907e+02  -2.022549e+02
   2.261866e+02  -5.637787e+01
   9.100744e+01   8.471557e+01
  -3.735353e+01   1.358651e+02
  -5.927307e+01   5.467762e+01
  -2.582027e+01  -1.564291e+01
   3.625340e+01  -1.241664e+01
   3.149321e+00  -1.752143e+01
  -5.955118e+01   1.221035e+01
  -5.811900e+01  -1.078628e+02
  -5.584263e+01  -1.669091e+02
   1.191390e+02  -1.427315e+02
   2.582300e+02  -3.069040e+01
   2.233498e+02   1.439739e+02
   4.845302e+01   2.218079e+02
  -7.011278e+01   1.599341e+02
  -1.162528e+02   5.752793e+00
  -6.101697e+01  -7.045506e+01
  -2.657507e+01  -1.260228e+01
  -3.199669e+01   3.204368e+01
  -1.238368e+02   3.001933e+01
  -5.860626e+01  -6.822607e+01
   2.627596e+01  -8.549169e+01
   1.098937e+02  -5.417926e+01
   1.112276e+02  -1.288696e+01
  -5.871926e+00   1.074106e+02
  -1.290680e+02   1.267108e+02
  -1.776528e+02  -8.232971e+01
  -1.050309e+02  -2.106895e+02
   1.094064e+02  -2.084870e+02
   2.240526e+02  -5.136659e+01
   1.929443e+02   8.133481e+01
   1.347017e+02   1.693635e+02
  -4.970675e+01   8.110443e+01
  -8.464131e+01   3.843963e+01
  -4.284337e+01   5.753043e+01
  -7.018938e+01   7.400374e+01
  -6.495598e+01   1.125097e+02
  -1.498857e+02   1.298624e+00
  -7.702860e+01  -1.757336e+02
  -3.287917e+01  -2.373383e+02
   1.284901e+02  -1.744110e+02
   1.601815e+02  -1.452638e+01
   1.093499e+02   1.350794e+02
   1.054265e+01   1.739246e+02
  -4.745855e+01   3.761691e+01
  -5.562277e+01  -1.733311e+01
   3.726511e+01  -6.981337e+01
   9.909431e+00  -4.602915e+01
  -4.500188e+00  -2.923620e+01
  -6.318709e+01  -4.215863e+00
  -8.027369e+01  -3.385551e+01
   7.516009e+01  -1.520886e+01
   1.008097e+02   2.996747e+01
   1.167141e+02   6.997704e+01
   1.563297e+01   3.892442e+01
  -1.470057e+02   4.798884e+01
  -1.027567e+02  -2.500825e+00
  -7.259506e+01  -6.355965e+01
   1.385765e+01  -1.972082e+01
   6.212794e+01   4.488021e+01
   1.170217e+01   5.612455e+01
  -1.637929e+01   3.464719e+01
  -6.970290e+01   4.299062e+01
  -4.705054e+01  -2.053257e+01
  -3.933284e+01  -4.825529e+01
  -9.952622e+01  -2.970723e+00
  -5.104745e+01  -4.078760e+01
  -5.359227e+01  -8.415153e+01
   4.817594e+01  -1.618809e+02
   1.706246e+02  -1.547278e+02
   1.726527e+02  -3.020904e+01
   1.419805e+02   7.562200e+01
   3.679698e+00   9.368288e+01
  -5.126951e+01   1.061232e+02
  -1.478723e+01   4.127990e+00
   7.024506e+01   1.178769e+01
   1.068057e+02   6.753946e+01
   5.048454e+01   7.656962e+01
  -4.185144e+01   1.457014e+02
  -1.702221e+02   4.931071e+01
  -1.701075e+02  -8.747301e+01
  -1.531422e+01  -9.465566e+01
   1.049899e+02  -5.031033e+01
   4.426562e+01   1.171559e+01
  -3.276294e+01   1.281159e+01
  -5.676040e+01   4.120937e+01
  -1.613162e+01  -7.883323e+01
   3.593310e+01  -1.405291e+02
   1.512597e+02  -5.452465e+01
   9.669261e+01   1.129917e+02
  -1.774777e+01   2.007830e+02
  -1.105965e+02   1.297905e+02
  -1.438408e+02  -1.711695e+00
  -4.204047e+01  -1.229520e+02
   2.697703e+01  -1.003809e+02
   6.083882e+01  -3.299140e+01
   4.386555e+01   1.475803e+01
   4.247815e+01   7.698258e+00
  -3.896298e+00   7.921026e-01
   3.465813e+01   3.100300e+01
   6.717547e+01   1.102682e+02
   7.862336e+01   1.129319e+02
  -4.581277e+01   5.312569e+01
  -8.615346e+01  -3.982000e+01
  -1.390926e+02  -7.725114e+01
  -4.566723e+01  -3.839011e+01
   5.340896e+01  -3.874156e+01
   7.636618e+01   3.360528e+01
   6.419821e+00   1.277409e+00
  -4.267765e+01   5.689273e+00
   1.631761e+01   8.335851e+00
   4.165365e+01  -3.393767e+01
   1.715101e+01   3.477364e+01
  -5.573034e+01   9.745012e+01
  -9.176923e+01   6.956451e+00
  -2.169749e+01  -3.471375e+01
   1.007817e+02  -8.479148e+01
   1.489036e+02  -7.979736e+01
   9.137667e+01   4.631283e+01
   5.844750e+01   1.541145e+02
  -6.581072e+01   1.263302e+02
  -1.162369e+02   4.420360e+01
  -5.805643e+01  -3.369083e+01
   2.602307e+01  -5.919006e+01
   8.280290e+00  -1.832151e+01
  -2.560330e+01   2.132164e+01
  -2.415527e+01  -6.787398e+01
  -5.141957e+01  -8.992812e+01
   5.160024e+01  -5.443839e+01
   1.106660e+02   2.747362e+01
   1.189810e+02   1.081553e+02
   5.157884e+01   8.684994e+01
  -4.962320e+01   4.237173e+01
  -8.041211e+01  -3.366642e+01
  -2.977296e+00  -6.613225e+01
   1.102853e+02  -4.049211e+01
   8.538503e+01   4.949235e+01
   6.126422e+01   4.535549e+01
  -1.497809e+01   7.507155e+01
  -1.987065e+01   3.182626e+01
   3.694290e+01   2.280347e+01
   6.079731e+01  -4.729381e+00
   2.089922e+01   2.963794e+01
  -7.754778e+01   1.160238e+02
  -1.019903e+02   1.017129e+02
  -6.888767e+01  -5.947582e+00
  -7.562189e+00  -7.275583e+01
   4.662882e+01  -5.293872e+01
   5.435059e+01  -1.846305e+01
  -1.550230e+01   5.418824e+01
  -1.932119e+01   3.374154e+01
   2.330169e+00  -1.115111e+01
  -3.334646e+01  -3.929074e+01
   3.940860e+00  -3.280240e+01
   9.295497e+00  -1.925688e+00
  -1.133675e+01   1.897187e+01
   3.228322e+00  -3.613653e+01
   1.152635e+01  -1.007828e+01
  -3.979311e+00   2.349306e+01
   2.888015e+01   6.158398e+00
   1.411293e+00   3.643306e+01
  -2.073905e+01  -2.224795e+01
  -3.464785e+01  -1.968922e+01
  -2.409597e+01  -3.255141e+01
   2.643175e+01  -2.930235e+01
   8.907588e+01   2.941436e+01
  -9.489705e-01   1.053754e+02
  -6.078732e+01   5.417073e+00
  -1.165817e+02  -4.312551e+01
  -2.977022e+01  -4.026532e+01
   3.790154e+01  -2.099392e+01
   7.150893e+01  -1.958505e+01
   2.748337e+01   1.529587e+00
  -2.076689e+01   1.374126e+01
  -6.266932e+01  -3.553308e+01
  -4.389734e+00   1.902282e+01
   7.398277e+01  -2.863968e+01
