
 $NMID
 id='ANONYMOUS ', fmtdat='(2E16.6)'
 volume=1.0
 tramp=1.0
 $END
  -4.484537e+03   9.115234e+01
  -2.440190e+03  -2.580858e+03
   8.522681e+02  -2.401508e+03
   2.286860e+03  -9.028247e+02
   9.943836e+02   5.681972e+02
  -7.124397e+02   8.113275e+02
  -9.835894e+02  -3.727723e+02
  -9.547064e+01  -1.249010e+03
   8.024323e+02  -9.334111e+02
   1.049131e+03   5.082542e+01
   4.929741e+02   8.988176e+02
  -3.029509e+02   9.196790e+02
  -6.876325e+02   2.427234e+02
  -3.715804e+02  -6.896503e+02
   3.142936e+02  -8.315091e+02
   4.306894e+02  -3.132824e+01
   4.773336e+02   6.171785e+02
  -4.035562e+02   8.217935e+02
  -4.518600e+02   5.493474e+01
  -4.489058e+02  -3.185526e+02
  -1.041963e+02  -5.981519e+02
   3.787500e+02  -4.000235e+02
   1.594577e+02   1.405487e+02
   8.326446e+01  -1.234665e+01
  -4.198718e+02  -2.431579e+01
  -3.466403e+02  -2.787521e+02
   3.823742e+02  -3.812833e+02
   7.414957e+02   7.117141e+01
   4.030977e+02   5.426968e+02
  -3.718234e+02   4.274457e+02
  -7.564638e+02  -5.422999e+01
  -3.145929e+02  -6.885367e+02
   3.260994e+02  -5.471595e+02
   6.330436e+02  -2.467277e+02
   4.385443e+02   2.530820e+02
   2.800079e+01   5.016754e+02
  -2.445883e+02   2.519112e+02
  -1.759956e+02  -2.349648e+02
   1.938147e+02  -4.882484e+02
   4.745296e+02   2.336513e+01
   3.547030e+02   6.884868e+02
  -3.471463e+02   6.871571e+02
  -6.210249e+02   6.125143e+01
  -3.343609e+02  -5.752785e+02
   3.007155e+02  -3.233743e+02
   4.651784e+02   3.005341e+02
  -2.731136e+01   5.663414e+02
  -5.270001e+02   1.726747e+02
  -6.531244e+02  -3.935315e+02
  -1.908487e+02  -6.168857e+02
   4.284901e+02  -4.106363e+02
   6.770837e+02   5.809227e+01
   4.455133e+02   4.126087e+02
  -1.485849e+02   4.315399e+02
  -4.344352e+02   1.078833e+02
  -2.708836e+02  -1.550957e+02
   1.012854e+02  -1.385073e+02
   1.638429e+02   1.248433e+02
  -1.405371e+02   2.131499e+02
  -3.604951e+02  -3.924960e+01
  -1.940687e+02  -2.696021e+02
   1.476054e+02  -3.186167e+02
   3.585535e+02  -7.163371e+01
   2.144374e+02   9.625603e+01
  -3.055973e+01   2.269043e+02
  -2.307453e+02   2.634979e+02
  -3.397241e+02   1.539540e+02
  -2.521221e+02  -2.076197e+02
  -1.888722e+01  -4.392359e+02
   1.504874e+02  -3.410147e+02
   1.032868e+02  -4.339182e+01
  -1.886761e-01   2.784946e+01
  -1.055776e+01  -8.338336e+01
   1.705921e+02  -1.678716e+02
   2.559021e+02  -9.310459e+00
   2.036938e+02   2.437244e+02
  -3.685919e+01   2.756290e+02
  -2.144518e+02   4.368545e+01
  -2.084241e+02  -2.120052e+02
  -2.075536e+01  -3.160241e+02
   2.473224e+02  -1.425176e+02
   3.302658e+02   1.951200e+02
   1.732451e+02   3.212108e+02
  -1.137322e+02   3.089494e+02
  -2.240068e+02   1.261457e+02
  -1.489305e+02  -2.993006e+01
  -8.537922e+01   5.545037e+01
  -2.227113e+02   3.907937e+01
  -3.922836e+02  -3.227950e+01
  -3.176193e+02  -3.036826e+02
   3.531084e+01  -4.253149e+02
   3.924829e+02  -4.054297e+02
   5.043388e+02  -1.562367e+02
   3.157327e+02   1.263350e+02
   2.506545e+01   2.992922e+02
  -1.460412e+02   2.182266e+02
  -7.762259e+01   3.697484e+01
   8.322153e+01  -1.830401e+02
   1.958244e+02  -1.898802e+01
   1.172267e+02   2.269439e+02
  -1.503533e+02   1.823826e+02
  -1.367084e+02  -1.102726e+01
   1.659212e+01  -1.627109e+02
   1.931598e+02  -1.834620e+01
   1.339826e+02   2.637320e+02
  -1.955674e+01   3.743254e+02
  -2.337413e+02   1.765140e+02
  -2.984214e+02  -4.926414e+01
  -2.814018e+02  -2.702304e+02
  -7.562537e+01  -2.748573e+02
   1.492753e+02  -1.694518e+02
   2.120722e+02   3.575212e+01
   4.751728e+01   2.068313e+01
  -8.032889e+01  -1.910332e+01
  -4.446054e+01  -1.478368e+02
   1.003585e+02  -1.372735e+02
   2.010324e+02  -1.326184e+01
   1.294584e+02   1.084067e+02
  -9.646094e+01   2.687556e+00
  -5.292165e+01  -1.018222e+02
   1.242303e+02  -1.223768e+02
   2.695805e+02  -4.154937e+01
   2.981954e+02   1.225361e+02
   9.319347e+01   2.582079e+02
  -1.503195e+02   2.505002e+02
  -2.565873e+02   1.380391e+02
  -1.713995e+02  -9.263532e+01
   4.642979e+01  -1.290276e+02
   1.415104e+02  -1.339550e+01
   1.904145e+01   1.468010e+02
  -2.191312e+02   1.405729e+02
  -1.994074e+02  -1.043525e+02
  -7.017669e+01  -2.319504e+02
   1.046493e+02  -1.886109e+02
   1.529116e+02  -2.957921e+01
   1.005080e+02   6.027640e+01
  -3.574124e+01  -1.546441e+01
  -4.282781e+01  -7.993359e+01
   4.622544e+01  -1.320848e+02
   1.417724e+02  -1.876363e+01
   2.249013e+02   7.848989e+01
   7.874823e+01   2.338547e+02
  -1.576223e+02   2.017831e+02
  -2.262815e+02   3.490620e+01
  -9.478302e+01  -1.212806e+02
   4.670652e+01  -1.287619e+02
   9.543086e+01  -4.039203e+01
   2.571706e+01   4.038400e+01
   2.674449e+01   3.503178e+01
  -1.322667e+01  -7.236942e+00
   8.131584e+01  -3.158020e+01
   1.061604e+02   9.118591e+01
   2.881109e+01   1.593616e+02
  -1.539122e+02   1.453937e+02
  -2.428637e+02   3.665784e+01
  -2.275297e+02  -1.155802e+02
  -3.709359e+01  -1.878672e+02
   8.410669e+01  -1.407736e+02
   1.114062e+02  -1.146409e+01
   1.456676e+00   5.645131e+01
  -1.269773e+01   5.579602e+01
   2.394525e+01  -5.681952e+01
   9.262640e+01  -3.971376e+01
   5.893366e+01   1.146870e+01
  -4.510011e+01   9.749527e+01
  -8.707977e+01   6.218688e+01
  -4.225226e+01  -1.854138e+01
   1.575905e+01  -1.419622e+02
   1.667702e+02  -1.303657e+02
   1.732597e+02   8.786736e+01
   1.559330e+02   2.107716e+02
  -7.638055e+01   2.731489e+02
  -2.071514e+02   9.876618e+01
  -2.348091e+02  -1.014078e+02
  -1.070592e+02  -1.222417e+02
  -4.322254e+00  -1.364386e+02
   6.111286e+01  -9.027505e+01
   8.770499e+01  -7.998583e+01
   3.578930e+01  -8.519137e+01
   7.034314e+01  -7.356719e+01
   1.834931e+02   2.905451e+01
   1.492362e+02   1.458360e+02
   5.113876e+01   2.394706e+02
  -8.133657e+01   2.085623e+02
  -1.806347e+02   3.257448e+01
  -1.210184e+02  -1.190236e+02
   1.265475e+01  -1.549200e+02
   7.307284e+01  -1.089383e+02
   4.708232e+01  -3.153659e+01
   4.006904e+01  -3.318190e+00
  -5.534361e+00   6.117246e+01
  -3.224517e+00   4.609513e+01
   2.469995e+01   5.234448e+01
  -1.331122e+01   5.854189e+01
  -7.564292e+01   2.453749e+01
  -1.604726e+02  -2.746865e-01
  -1.473509e+02  -6.077433e+01
   3.118033e+01  -1.228532e+02
   1.830513e+02  -1.376555e+02
   1.431864e+02  -2.784966e+00
  -1.176368e+01   3.377224e+01
  -7.031352e+01   4.040039e+01
  -2.654751e+01   3.550796e+01
  -1.162817e+01  -5.443919e+01
   9.317062e+01  -5.101140e+01
   3.898880e+01   1.466255e+01
   3.172085e+01   7.177061e+01
   5.698592e+01   3.468105e+01
   2.609228e+01   3.556733e+01
   5.614342e+01   2.711784e+01
   4.786147e+01   5.311021e+01
  -3.139273e+01   1.656574e+02
  -1.241664e+02   9.630890e+01
  -2.261044e+02   2.188230e+01
  -1.369558e+02  -7.501498e+01
   2.030227e+01  -1.133636e+02
   9.986431e+01  -9.803604e+01
   5.468238e+01  -2.519319e+01
  -9.814505e+01   1.061756e+01
  -7.561667e+01  -3.902838e+01
  -3.079389e+01  -4.785781e+01
   1.199177e+02  -6.199391e+01
   2.023543e+02  -5.980205e+01
   1.767348e+02   7.510904e+01
   3.934548e+01   1.223990e+02
  -8.473869e+01   4.445895e+01
  -5.919570e+01  -1.795983e+01
   2.785294e+01  -4.458801e+00
   5.587298e+01   4.584470e+01
   6.140470e+01   1.355402e+02
  -1.036047e+02   9.633954e+01
  -1.602442e+02   4.393189e+01
  -7.406298e+01  -1.049289e+02
   3.054208e+01  -1.613066e+02
   6.336480e+01  -1.105118e+02
   9.900795e+01  -1.605483e+01
   3.370425e+01   1.180011e+02
   4.806473e+01   1.099143e+02
   2.789786e+00   3.621885e+01
  -6.385274e+01   5.058325e+00
  -9.688514e-01   1.570690e+01
   2.283588e+01   2.763355e+01
  -4.878236e+01  -5.084989e+01
  -6.832362e+01  -1.109612e+02
  -7.897987e+01  -1.138991e+02
   5.854486e+01  -3.315790e+01
   1.372012e+02   3.950779e+01
   1.258460e+02   7.086062e+01
   1.462829e+01   6.943401e+01
  -9.575116e+01   3.085224e+01
  -6.584424e+01   3.229034e+01
  -1.001010e+01   1.682687e+01
   1.917680e+01  -4.560541e+01
  -1.680134e+01  -6.444983e+01
  -6.313249e+01   9.514016e+00
   1.168037e+01   1.902475e+01
   8.312898e+01   6.167802e+00
   6.559127e+01   5.079281e+01
   7.035891e+00   4.921393e+01
  -1.171698e+02   1.012006e+02
  -2.112523e+02   5.321418e+00
  -7.536656e+01  -8.947011e+01
  -3.380238e+01  -1.665432e+02
   6.899283e+01  -1.342501e+02
   1.069260e+02  -6.064816e+01
   6.128625e+01  -1.419069e+01
   3.534918e+01   4.705372e+01
   1.340046e+01   7.921623e+00
   2.444317e+01   3.527651e+00
   1.341394e+01   7.951208e+01
  -2.496632e+01   1.009575e+02
  -7.286542e+01   6.736659e+01
  -7.758860e+01  -5.204946e+01
  -3.670746e+01  -9.995499e+01
   2.089677e+01  -1.613052e+02
   7.803938e+01  -4.705068e+00
   8.248725e+01   9.862426e+01
   1.835688e+01   6.759364e+01
  -4.765815e+01   5.423046e+01
  -1.591568e+02  -3.399415e+01
  -5.597904e+01  -5.142100e+01
   6.744516e+01  -8.346654e+01
   5.407541e+01  -1.265797e+01
  -9.587654e-01  -2.416756e+01
  -4.904631e+01  -1.733521e+01
  -1.224983e+01   1.625033e+00
   1.123081e+02  -3.895843e+01
   1.490506e+02  -5.178552e+00
  -4.959271e+00  -1.335549e+01
  -2.320247e+01   7.838137e+01
  -2.481386e+01   3.631683e+01
  -3.923809e+01  -5.024015e+01
   3.662371e+01  -4.649701e+01
   5.446057e+01  -3.045806e+01
   7.606510e+01   5.423889e+01
   2.419379e+00   3.157198e+01
  -3.666225e+00  -1.861892e+01
  -2.645369e+01   3.888533e+00
  -3.205303e+00  -2.169124e+01
   1.000287e+01   6.520417e+00
  -1.008990e+01   1.094409e+01
   1.430794e+01  -1.117204e+01
  -3.137890e+01  -3.039130e+01
   6.618761e+00  -3.569286e+01
   2.539766e+01  -1.283370e+01
  -2.824635e+00   1.169289e+01
   1.909203e+01   4.915920e+01
  -6.719146e+01   4.193280e+01
  -1.559452e+01  -3.508454e+01
  -3.180526e+01  -6.254241e+01
   4.543422e+01  -2.273532e+01
   9.900685e+01   7.297467e+01
   8.610613e+01   1.077271e+02
  -2.037118e+01   2.273320e+01
  -8.404610e+01  -2.358935e+01
  -3.970441e+01  -5.827674e-01
   1.528169e+01   2.097527e+01
   7.414363e+01   3.494349e+01
  -8.155899e+00   1.747241e+01
  -7.881762e+01   9.601062e+00
