
 $NMID
 id='ANONYMOUS ', fmtdat='(2E16.6)'
 volume=1.0
 tramp=1.0
 $END
   1.631170e+03   2.005705e+02
   1.188483e+03   9.952459e+02
   3.074088e+02   1.225831e+03
  -5.265112e+02   7.884154e+02
  -4.614119e+02   2.161201e+02
  -2.514487e+02   1.873359e+01
   4.814310e+01   3.443459e+01
   5.607288e+01   1.892267e+02
  -1.941786e+02   2.340005e+02
  -3.537415e+02  -4.938949e+01
  -2.809597e+02  -1.668201e+02
   7.202649e+01  -3.945097e+02
   1.567309e+02  -2.543784e+01
   1.686029e+02   1.689168e+02
  -1.059104e+02   3.274640e+02
  -2.736348e+02  -1.920967e+01
  -1.617470e+02  -2.798863e+02
   4.871905e+01  -4.332816e+02
   2.146558e+02  -2.261814e+02
   3.232566e+02  -5.138914e+00
   1.658964e+02   2.495787e+02
   8.306284e+01   2.354391e+02
  -8.632243e+00   2.007094e+02
   1.727937e+02   6.509114e+01
   9.171888e+01   1.251296e+02
  -8.599788e+01   1.775906e+02
  -2.936610e+02   3.930399e+01
  -2.264737e+02  -3.899024e+01
  -1.314918e+02  -8.230328e+01
   1.152080e+02  -3.374163e+01
   2.550941e+02   7.337011e+01
   1.003088e+02   2.686037e+02
  -1.827124e+02   1.316174e+02
  -3.134997e+02   6.201803e+01
  -2.186610e+02  -2.216332e+02
  -4.329315e+01  -2.612179e+02
   9.971607e+01  -6.116022e+01
   3.900594e+00   1.015388e+02
  -1.054675e+02   9.088421e+01
  -1.090954e+02  -9.051910e+01
   5.415605e+01  -2.333783e+02
   1.447107e+02  -2.266964e+02
   1.839802e+02  -1.288270e+01
   2.230269e+01   1.351139e+02
  -1.137377e+02   2.837344e+01
  -9.568404e+01  -1.829110e+02
   1.102872e+02  -1.651337e+02
   2.616914e+02  -4.809020e+01
   2.948175e+02   1.881445e+02
   1.285240e+02   2.415911e+02
  -1.375830e+02   1.023945e+02
  -2.868400e+02  -5.519924e+01
  -1.593653e+02  -1.564589e+02
   8.784896e+00  -9.998266e+01
   1.663329e+02   2.769153e+01
   1.350463e+02   4.614535e+01
  -1.902771e+00  -4.209246e+01
  -5.704258e+01  -4.886241e+01
  -1.264407e+01  -6.340938e+01
   1.014145e+02  -2.577291e+00
   8.311270e+01   4.762171e+01
  -5.725165e+01   1.330583e+02
  -1.731735e+02   9.531343e+01
  -2.030072e+02  -6.228288e+01
   4.204340e+01  -2.187423e+02
   2.565533e+02  -2.427934e+02
   2.218905e+02  -9.518747e+01
   1.283497e+02   1.098288e+02
   2.094451e+00   1.990144e+02
  -2.878497e+01   1.878636e+02
   4.812536e+01   1.318086e+02
   4.595242e+01   9.720725e+01
  -8.606300e+01   9.174002e+01
  -2.182685e+02   1.269232e+01
  -1.658180e+02  -1.045455e+02
  -5.850451e+01  -1.891707e+02
   8.955337e+01  -1.212738e+02
   1.480901e+02   5.210369e+01
   8.624818e+01   1.793731e+02
  -2.632087e+01   1.228624e+02
  -1.575784e+02   1.890563e+01
  -1.646539e+02  -1.441267e+02
  -9.261702e+01  -1.649012e+02
   9.466657e+00  -1.691881e+02
   8.897058e+01  -4.243605e+01
   1.048665e+02  -3.265035e+01
   1.056035e+02  -6.463680e+01
   1.506930e+02  -1.051923e+02
   2.352833e+02   2.045374e+01
   1.887492e+02   1.452973e+02
   1.725388e+01   2.806881e+02
  -2.508359e+02   2.759179e+02
  -3.183924e+02   9.308403e+01
  -1.758552e+02  -5.038391e+01
  -1.776021e+01  -1.433382e+02
   8.719772e+01  -1.094871e+02
  -3.521673e+01   1.683795e+01
  -8.861450e+01   1.678966e+01
  -8.444095e+01  -9.704416e+00
  -2.541502e+01  -7.996215e+01
   4.132861e+01  -3.585347e+00
   5.697978e+01   1.089313e+02
  -8.006065e+00   4.624430e+01
  -9.462381e+01  -1.697053e+01
  -7.044838e+01  -1.603394e+02
   1.594497e+01  -1.962672e+02
   1.633469e+02  -1.091419e+02
   2.240298e+02   3.990249e+01
   1.856778e+02   1.470743e+02
   3.194690e+01   1.420063e+02
  -6.122526e+01   6.419166e+01
  -9.035917e+01   2.029037e+00
  -2.149703e+00  -4.804837e+01
  -9.855071e+00   4.531189e+01
  -8.518242e+01   7.712019e+01
  -9.749143e+01   8.020447e+01
  -8.142912e+01  -3.747278e+01
   4.653529e+01  -6.339694e+01
   8.396923e+01  -1.875142e+01
   1.763980e+01   1.174791e+02
  -1.356390e+02   1.300545e+02
  -2.409857e+02   3.697068e+01
  -2.291151e+02  -1.458479e+02
   1.263077e+01  -1.935173e+02
   1.420087e+02  -1.292870e+02
   1.971216e+02  -6.932265e+01
   6.821984e+01   4.933922e+01
   1.314818e+00   2.021138e+01
  -1.358659e+01  -1.713279e+01
  -2.707024e+01  -4.674130e+01
   1.484623e+02  -2.327541e+01
   1.151129e+02   7.552085e+01
   2.174201e+01   7.146498e+01
  -4.401709e+01   4.575453e+01
  -1.255834e+02  -3.065845e+01
  -3.035036e+01  -7.123948e+01
   6.036022e+01  -5.390357e+00
   1.874693e+01   9.174994e+01
  -3.743035e+01   1.097705e+02
  -1.351885e+02  -5.589479e-01
  -1.412394e+02  -1.010578e+02
   4.905071e+01  -1.583394e+02
   5.662724e+01  -1.188242e+02
   1.099124e+02  -5.959871e+00
   2.512421e+01   9.492192e+01
  -5.137963e+01   6.506613e+01
  -7.607452e+00   1.273522e+01
   1.974634e+01  -5.223803e+01
   6.371417e+01   4.021826e+00
  -4.439531e+00   5.447723e+01
  -4.940301e+01   2.645993e+01
  -6.560209e+01  -7.540912e+01
  -3.595900e+01  -1.321880e+02
   1.119198e+02  -7.245810e+01
   2.119188e+02   2.075895e+01
   1.327115e+02   5.130890e+01
  -1.364143e+00   1.410150e+02
  -7.610104e+01   8.126895e+01
  -9.991025e+01  -1.353619e+01
  -4.556928e+01  -3.772506e+01
  -9.852105e+00  -4.573186e+01
  -1.966276e+01   3.329306e+01
  -8.012136e+00  -1.427140e+01
  -3.849348e+01  -4.128973e+01
   6.129877e+01  -9.294534e+01
   9.013481e+01  -4.065932e+01
   7.331497e+01   4.381885e+01
  -1.650999e+01   1.475403e+02
  -6.576728e+01   5.853262e+01
  -1.715553e+02   1.033100e+01
  -7.739427e+01  -1.818693e+02
   9.048972e+01  -1.441704e+02
   1.263274e+02  -4.215200e+01
   1.374562e+02   5.925982e+01
   6.420705e+01   9.524821e+01
  -3.920973e+01   6.951088e+01
  -6.310178e+01   3.622405e+00
  -3.338500e+00   6.928635e+01
  -2.869716e+01   7.175736e-01
  -4.159341e+01   7.186163e+01
  -8.543136e+01   1.583623e+01
  -9.523781e+01  -1.157688e+02
  -7.085163e+00  -1.660143e+02
   5.278123e+01  -1.070800e+02
   1.389962e+02  -3.981035e+00
   6.161403e+01   1.208499e+02
  -1.001259e+01   1.068202e+02
  -5.985593e+01   6.272124e+01
  -1.768774e+01  -4.162868e+01
   4.744409e+01  -7.605872e+01
  -4.187844e+00   3.021483e+01
   2.191223e+01  -1.459512e+00
  -1.721841e+01   6.422386e+00
  -3.459960e+01   7.426372e-01
   7.054406e+01   4.746402e+00
   7.052640e+01  -1.252866e+01
   7.606704e+01   1.547902e+00
   1.180165e+01   9.614058e+01
  -5.659047e+01   1.807791e+01
  -1.017044e+02  -2.459795e+01
  -3.941328e+01  -6.260946e+01
   4.807941e+01  -6.016977e+01
   8.301354e+01   5.420897e-01
   2.508997e+00   7.836820e+01
  -1.522459e+01   7.209206e+01
  -5.853093e+01  -2.541670e+01
  -4.368172e+01  -4.139379e+01
   6.150243e+00  -3.542811e+01
   1.819856e+01   8.124113e+00
   7.265734e+00   5.234139e+00
  -4.697744e+01   7.189430e+00
   4.928396e+01  -6.398828e+01
   8.257584e+01  -6.684093e+01
   7.798459e+01   1.240615e+01
   9.630907e+01   8.655543e+01
   5.910990e+00   6.054962e+01
  -8.326045e+01   5.332741e+01
  -3.939863e+01   7.344063e+00
   2.409585e+01   3.524914e+00
   6.408354e+01  -5.010493e+01
   6.151877e+01   9.385929e+01
  -3.682148e+01   6.965487e+01
  -8.007764e+01   1.444513e+01
  -8.698517e+01  -7.793247e+01
  -2.831622e+01  -7.247911e+00
   3.802140e+01   5.940047e+00
   3.809026e+00   4.041935e+01
  -9.859089e+01   3.564778e+01
  -1.150322e+02  -5.307322e+01
  -2.681605e+01  -9.925363e+01
   4.596544e+01  -1.298074e+02
   1.062116e+02  -1.338452e+01
   6.812277e+01   6.329684e+01
  -6.162928e+00   1.522166e+02
  -5.636060e+01   1.050113e+02
  -4.247894e+01  -8.073121e+00
  -3.471912e+01  -8.662337e+01
   1.148986e+01  -5.481120e+01
   4.191521e+01   1.972746e+01
   3.152529e+01   1.875810e+01
  -7.658988e+00   1.377812e+01
   2.959615e+01  -4.965994e+01
   1.699266e+01  -2.050480e+01
   2.474858e+01   3.446414e+01
   2.232622e+01   7.108107e+01
  -2.356011e+01  -2.972963e+01
  -1.444191e+02  -3.413051e+01
  -9.130922e+01  -4.926414e+01
  -5.094826e+01  -3.126816e+01
   3.803033e+01  -3.559271e+01
   3.602639e+01   2.060454e+01
   3.849551e+00   1.667910e+01
  -2.468291e+01   1.335160e+01
   1.281774e+01  -3.980921e+01
   1.171105e+01   5.731690e+00
   1.762777e+01  -4.418840e+01
   5.135157e+00  -5.241286e+00
  -4.867446e+01   1.566979e+01
   4.099172e+01  -7.501572e+01
   5.527014e+01  -1.030151e+02
   8.620664e+01  -6.546165e+01
   8.421169e+01   9.810322e+00
   6.580154e+00   1.026839e+02
  -8.652117e+01   9.652584e+01
  -1.141267e+01   7.684419e+01
  -4.324718e+01  -2.280586e+01
  -2.171150e+01  -1.334564e+01
  -7.167544e+01  -1.691473e+01
  -4.813302e+00  -2.048060e+01
  -2.877160e+01  -3.313935e+01
  -6.866983e+00  -7.454567e+01
   3.348674e+01  -5.666439e+00
   8.213842e+01   2.067192e+01
   3.366499e+01   8.446080e+01
  -8.984388e+00   8.233297e+01
  -1.130323e+01   3.117157e+01
  -4.122571e+01  -3.016327e+01
  -7.600440e+00  -5.753865e+01
   5.646965e+01  -6.942658e+01
   5.271537e+01   4.405804e+01
   1.773083e+01   4.165312e+01
   2.640208e+01   9.032639e+00
  -1.225052e+01   2.070444e+00
  -3.327310e+01  -1.045742e+00
   5.351543e+01  -1.492350e+01
   3.430279e+01   5.475592e+01
  -6.786977e+01   4.102513e+01
  -8.563673e+01   4.032493e+01
  -2.986594e+01   1.949261e+00
   1.654565e+01  -4.668260e+01
   4.345218e+01  -7.433998e+01
   8.793264e+01   1.909099e+01
  -8.722264e+00   2.554551e+01
  -5.542370e+01   5.173548e+01
  -2.841514e+01  -6.128572e+00
  -4.734270e+00  -2.134912e+01
   2.007200e+01   2.747782e+01
   2.696861e+01   5.736622e+00
   2.158003e+01   2.037730e+01
   2.784796e+00   2.655259e+00
  -8.606578e+00  -2.868492e+01
   4.780504e+01   2.410940e+01
   3.880005e+01  -1.989573e+00
  -1.599446e+01   1.743309e+01
  -3.609270e+01   2.363991e+01
  -4.561044e+00  -4.547232e+01
  -2.997527e+01  -1.815557e+01
   1.854317e+01  -2.183881e+01
   1.714386e+01  -3.650985e+01
  -4.924786e+01   9.765545e+01
  -1.488918e+01   2.865443e+01
  -8.772671e+01   1.890521e+01
  -1.132336e+01  -3.985974e+01
  -1.844305e+01  -6.060355e+01
   6.786620e+01   2.994608e-01
   8.672735e+01  -1.888516e+01
  -3.557715e+00  -2.150843e+00
   1.401565e-02  -2.662590e+01
   3.995798e+01  -3.335462e+01
   2.552954e+01  -5.867078e+00
