
 $NMID
 id='ANONYMOUS ', fmtdat='(2E16.6)'
 volume=1.0
 tramp=1.0
 $END
  -3.449086e+03  -1.500562e+02
  -2.108791e+03  -1.567640e+03
  -9.013318e+01  -1.955241e+03
   1.300025e+03  -1.301069e+03
   1.009031e+03  -1.466771e+02
  -1.317680e+02   3.933720e+02
  -5.453228e+02  -1.852562e+02
   1.921452e+01  -5.336481e+02
   5.516558e+02  -5.462726e+02
   7.274684e+02  -6.599398e+01
   4.252326e+02   7.008673e+02
  -1.846045e+01   7.020358e+02
  -3.421833e+02   2.540336e+02
  -2.199972e+02  -4.491485e+02
   9.351864e+01  -5.951686e+02
   5.503084e+02   6.774792e+00
   3.354965e+02   3.801151e+02
  -1.739823e+02   6.601919e+02
  -5.042520e+02   2.811366e+02
  -5.132978e+02  -3.577846e+02
  -1.306601e+02  -3.236623e+02
  -3.528829e+01  -2.418438e+02
   2.708279e+02  -4.567603e+01
  -1.882728e+02  -2.631406e+02
  -4.250583e+02  -3.067842e+02
   8.756544e+01  -4.984036e+02
   7.072278e+02  -1.445538e+02
   5.734239e+02   2.027163e+02
   2.561313e+02   4.319588e+02
  -2.614649e+02   2.609151e+02
  -5.347130e+02  -1.733175e+02
  -1.356001e+02  -3.106145e+02
   3.493434e+02  -3.938102e+02
   4.387947e+02  -1.726270e+02
   3.186454e+02   1.516334e+02
   6.165859e+01   3.031579e+02
  -1.364565e+02   1.914053e+02
   9.178900e+01  -9.851142e+01
   2.065413e+02  -1.459805e+02
   1.605449e+02   8.767858e+01
  -1.387752e+01   5.448056e+02
  -1.791151e+02   3.910043e+02
  -3.675572e+02  -5.486282e+01
  -1.146942e+02  -3.780795e+02
   1.809835e+02  -1.005462e+02
   1.840949e+02   2.731560e+02
  -8.655700e+01   4.198295e+02
  -4.108873e+02   1.163193e+02
  -4.986391e+02  -3.665480e+02
  -1.799998e+02  -4.849038e+02
   2.819125e+02  -2.889847e+02
   5.101574e+02   4.226745e+01
   3.226695e+02   2.620347e+02
  -9.078013e+01   2.963159e+02
  -3.729412e+02   1.294871e+02
  -2.417619e+02  -7.118424e+01
  -9.025966e+00  -9.628186e+01
   5.986969e+01  -7.591741e+00
  -1.518619e+02   3.800732e+01
  -2.710613e+02  -6.515093e+01
  -1.397301e+02  -2.399651e+02
   1.455603e+02  -2.574921e+02
   3.512245e+02  -1.559817e+02
   2.602839e+02   2.992253e+01
  -1.663976e+01   3.035216e+02
  -2.709460e+02   3.831104e+02
  -3.640735e+02   1.314755e+02
  -2.692896e+02  -1.944561e+02
  -7.377422e+01  -4.278719e+02
   1.759489e+01  -3.325615e+02
   6.685841e+01  -2.006780e+02
   7.809969e+01  -1.102581e+02
   2.311117e+02  -1.347829e+02
   3.070590e+02  -4.544344e+01
   2.009030e+02   1.539173e+02
   4.348837e+01   2.938997e+02
  -1.005415e+02   1.835164e+02
  -1.866860e+02  -3.537313e+01
  -1.123800e+02  -2.470636e+02
   3.418498e+01  -2.651883e+02
   2.735916e+02  -4.507711e+01
   2.895808e+02   2.223070e+02
   1.699814e+02   3.121813e+02
  -3.517708e+01   2.228226e+02
  -1.668652e+02   1.665181e+02
  -1.749581e+02   1.189784e+02
  -1.738607e+02   1.286709e+02
  -3.016957e+02   3.473766e+01
  -4.246275e+02  -1.132849e+02
  -3.181147e+02  -3.485651e+02
   8.993134e+01  -4.175512e+02
   4.296329e+02  -3.951161e+02
   4.643078e+02  -1.290627e+02
   2.179564e+02   1.012712e+02
  -1.678428e+01   2.295619e+02
  -6.877230e+01   2.072816e+02
  -2.771640e+00   4.092823e+01
   1.585421e+02  -4.694142e+01
   1.355749e+02   4.759557e+01
  -1.605167e+01   1.873572e+02
  -1.004095e+02   9.711055e+01
  -6.943641e+01  -5.269729e+01
   2.543851e+01  -6.043900e+01
   1.689979e+02   2.357757e+01
   9.397445e+01   2.519068e+02
  -6.482905e+01   3.746933e+02
  -2.909225e+02   2.250126e+02
  -3.502647e+02  -6.988390e+01
  -2.690566e+02  -2.917031e+02
  -5.770379e+01  -3.070793e+02
   1.295699e+02  -8.097757e+01
   1.192743e+02   2.977985e+01
   2.806860e+01  -4.449381e-01
  -1.911294e+01  -9.014365e+01
   2.967610e+01  -1.470429e+02
   1.233601e+02  -9.035034e+00
   1.094347e+02   3.180768e+01
   3.491633e+01   7.122992e+01
  -7.748721e+01  -4.143279e+01
  -5.903233e+00  -6.719821e+01
   1.594316e+02  -6.723960e+01
   3.268926e+02   7.701597e+01
   2.534247e+02   2.395292e+02
   1.274558e+01   3.237676e+02
  -2.381517e+02   2.275708e+02
  -3.035184e+02   6.335091e+01
  -1.363834e+02  -9.353380e+01
   4.449151e+01  -1.185248e+02
   5.539825e+01   9.073207e+00
  -9.298709e+01   9.702212e+01
  -1.874811e+02   5.146230e+01
  -1.754155e+02  -1.083969e+02
  -3.247738e+01  -1.397540e+02
   1.053529e+02  -1.361073e+02
   1.576998e+02  -5.047865e+00
   8.443536e+01   5.739919e+01
  -4.919519e+01  -5.292978e+01
  -1.774752e+01  -1.057844e+02
   1.273010e+02  -9.134265e+01
   1.971018e+02  -8.330486e+00
   1.787265e+02   1.155098e+02
   2.971058e+01   1.836290e+02
  -1.460365e+02   1.702424e+02
  -1.828757e+02  -4.157942e-01
  -2.754215e+01  -1.095013e+02
   2.940751e+01  -7.216195e+01
   2.626588e+01   3.069480e+01
   2.171100e+01   1.453019e+01
  -5.564495e+00  -3.756491e+01
  -2.719149e-01  -1.786541e+01
   8.733060e+01   4.811586e+00
   1.148537e+02   7.105376e+01
  -3.688602e+01   1.573783e+02
  -1.704313e+02   1.398784e+02
  -2.664012e+02  -2.953408e+01
  -2.278579e+02  -9.523525e+01
  -3.236090e+01  -2.074272e+02
   1.222154e+02  -1.715980e+02
   1.308312e+02  -2.235163e+01
   7.778224e+01   4.856112e+01
   3.207164e+01   4.349163e+01
   3.035748e+01  -1.245431e+01
   1.382036e+02   8.972877e+00
   2.523139e+01   4.330808e+01
  -7.068247e+01   9.574806e+01
  -1.512861e+02   7.638932e+01
  -1.559940e+02  -7.626932e+01
  -3.230998e+01  -1.014015e+02
   2.112869e+02  -5.609729e+01
   2.531456e+02   7.585011e+01
   8.192003e+01   2.616076e+02
  -1.373828e+02   2.175972e+02
  -2.827436e+02   1.196020e+02
  -2.814078e+02  -8.985278e+01
  -1.222851e+02  -2.034948e+02
   3.597980e+01  -1.606885e+02
   5.502493e+01  -9.688241e+01
   7.176368e+01  -6.304463e+01
   6.248016e+01  -1.070588e+02
   9.899254e+01  -5.807555e+01
   1.060778e+02   5.744474e+01
   1.290168e+02   2.032755e+02
   4.843604e+01   2.395456e+02
  -8.185941e+01   1.892928e+02
  -1.387944e+02  -8.631083e+00
  -1.151006e+02  -1.260908e+02
   2.628806e+01  -1.194471e+02
   5.698148e+01  -9.992268e+01
   5.149495e+01   2.916090e+01
  -6.065697e+01   7.851850e+01
  -3.846476e+01   4.294465e+01
   6.086875e+00   2.688662e+00
   1.208764e+02   6.585520e+01
   9.806341e+01   1.511732e+01
  -8.309185e+01   5.168913e+00
  -1.615455e+02  -1.496742e+01
  -1.857839e+02  -1.034772e+02
   2.010541e+01  -1.614023e+02
   1.623897e+02  -1.197895e+02
   1.609616e+02  -1.234422e+01
   5.764282e+01   4.126766e+01
  -3.348075e+01   1.001684e+01
  -9.449740e+01  -1.168916e+01
  -1.090438e+01  -6.773048e+01
   3.371939e+01  -7.090762e+01
   3.527331e+01   1.932518e+01
   6.646169e+01   6.929711e+01
   7.744075e+01   4.527235e+01
   4.984803e+01  -3.340632e+01
   3.013416e+01  -1.554442e+01
   4.127026e+01   6.056251e+00
  -3.392389e+01   8.228091e+01
  -1.225017e+02   1.616869e+02
  -1.964018e+02   1.552985e+01
  -1.276587e+02  -8.432652e+01
  -2.200334e+01  -9.353409e+01
   7.261336e+01  -7.352995e+01
   8.788394e+01  -1.406619e+01
  -4.588640e+01   2.688488e+01
  -1.307992e+02  -4.539388e+01
  -7.884113e+01  -7.433084e+01
   8.660735e+01  -9.767249e+01
   1.594922e+02  -2.269513e+01
   1.327893e+02   4.374659e+01
  -8.258345e+00   5.792303e+01
  -1.035671e+02   7.934815e+01
  -9.012507e+01   2.199169e-01
   7.487846e+01  -3.954916e+00
   1.324364e+02   6.963674e+00
   3.886943e+01   1.244882e+02
  -3.229666e+01   1.578861e+02
  -1.099007e+02   5.738880e+01
  -1.048148e+02  -8.646185e+01
  -1.040784e+01  -2.013713e+02
   7.670486e+01  -9.897294e+01
   1.075100e+02   1.143427e+01
   5.024577e+01   1.265885e+02
   5.826998e+00   1.060454e+02
  -3.260918e+01   1.765322e+01
  -3.291538e+01   4.190826e+01
   2.047875e+01  -6.984096e+01
   9.788497e+00   3.817649e+01
  -2.302558e+01  -1.175961e+01
  -4.139294e+01  -5.226200e+01
  -1.661957e+01  -6.323952e+01
   5.090614e+01  -5.546335e+01
   8.083590e+01   2.505379e+01
   8.518803e+01   7.365147e+01
   4.950144e+01   6.159020e+01
  -7.570235e+01   2.595954e+01
  -6.016371e+01  -2.194545e+01
   3.375694e+01   3.232964e+01
   4.622867e+01  -3.448773e+00
  -2.552979e+01  -5.860328e+00
  -2.788599e+01   1.788184e+01
   7.035451e+00  -5.201447e+00
   3.901879e+01  -1.167344e+01
   7.870204e+01   3.541559e+01
   9.152661e+00   7.404314e+01
  -1.198855e+02   1.223570e+02
  -2.013728e+02   6.191819e+01
  -1.182824e+02  -7.113992e+01
  -3.207413e+01  -1.843877e+02
   7.704433e+01  -1.529708e+02
   1.267741e+02  -8.623988e+01
   1.143146e+02   1.045900e+01
   6.661873e+01   3.990912e+01
   4.430418e+01   2.298509e+01
   5.639213e+00   3.626795e+01
   3.408644e+01   7.194403e+01
  -9.455688e+00   4.760760e+01
  -6.676884e+01   9.214022e+01
  -5.443989e+01   2.349428e+01
  -9.611409e+01  -1.057944e+02
  -4.222387e+01  -9.921922e+01
   3.624565e+00  -5.739900e+00
   1.135750e+02   1.046702e+02
  -3.884445e+00   7.263580e+01
  -3.577383e+01   6.989787e+01
  -1.006239e+02  -2.449461e+01
  -3.938675e+01  -7.258162e+01
  -7.192433e+00  -1.112320e+01
   3.677955e+01  -2.915394e+01
  -5.527696e+01   4.664821e+00
  -8.983023e+01  -7.460799e+00
  -3.334302e+01   5.500956e+00
   1.164662e+02  -6.376590e+01
   1.341843e+02  -7.339052e+01
   8.578814e+01   7.923606e+00
  -4.734493e+01   5.057708e+01
  -1.025226e+02   7.430372e+01
   9.483591e-01  -1.571834e+00
  -1.076727e+01  -7.569977e+01
   4.713439e+01  -8.026675e+00
   7.904374e+01   5.664958e+00
  -8.062627e+00   4.787979e+01
  -1.235060e+01   4.141370e+01
  -3.125877e+01  -1.847915e+01
   1.653905e+01  -5.468411e+01
   2.494524e+01   1.170269e+01
   3.275416e+01   6.024821e+01
  -2.206087e+01  -1.137600e+01
  -4.457165e+01  -3.073715e+01
  -1.736389e+01  -7.584202e+01
  -2.504816e+01  -2.247844e+01
   6.250753e+01   2.124365e+01
  -8.464092e+00   4.232124e+01
  -1.316829e+01   2.687485e+01
  -4.650556e+01  -4.690323e+01
  -3.899420e+01  -5.808199e+01
   7.659986e+01  -3.121431e+01
   7.110780e+01   2.673461e+01
   6.292570e+01   1.895714e+01
  -4.602800e+01   4.554853e+01
  -7.264098e+01   1.480441e+01
  -2.787296e+01   1.464348e+01
   6.772875e+01   8.080093e+00
   4.347285e+01   2.081932e+01
  -3.130768e+01   5.888340e+01
  -9.809353e+01  -1.478241e+01
