
 $NMID
 id='ANONYMOUS ', fmtdat='(2E16.6)'
 volume=1.0
 tramp=1.0
 $END
  -4.338528e+03   2.749199e+01
  -2.608884e+03  -2.722047e+03
   5.160964e+02  -2.761910e+03
   2.106221e+03  -9.681070e+02
   9.643037e+02   5.330906e+02
  -4.431973e+02   6.013260e+02
  -7.915435e+02  -3.238548e+02
  -9.834519e+01  -8.864484e+02
   8.825256e+02  -7.496937e+02
   8.161894e+02  -9.197937e+00
   4.996344e+02   8.785146e+02
  -2.012594e+02   9.846480e+02
  -5.992881e+02   1.698959e+02
  -3.135640e+02  -6.530205e+02
   2.547887e+02  -8.027464e+02
   5.935002e+02   2.977027e+01
   3.700519e+02   6.842583e+02
  -7.920495e+01   6.813687e+02
  -6.692715e+02   2.580833e+02
  -4.705313e+02  -4.670735e+02
  -1.970870e+02  -5.275163e+02
   1.789497e+02  -3.677838e+02
   1.893855e+02  -2.720730e+01
  -1.351382e+02   1.905585e+00
  -3.796778e+02  -2.901277e+01
  -1.797856e+02  -5.435009e+02
   4.548215e+02  -4.296375e+02
   8.821135e+02   1.820123e+02
   4.917482e+02   6.434298e+02
  -4.718829e+02   4.118685e+02
  -6.769929e+02  -9.669454e+01
  -3.521112e+02  -4.850685e+02
   2.603531e+02  -5.131766e+02
   6.039616e+02  -2.008247e+02
   3.234676e+02   1.569404e+02
   8.592877e+01   4.890860e+02
  -1.083742e+02   2.482404e+02
  -9.451602e+01  -1.767699e+02
   1.557569e+02  -4.459705e+02
   4.882649e+02  -1.074302e+02
   2.507253e+02   6.909695e+02
  -3.217004e+02   6.929633e+02
  -6.020603e+02   9.821805e+00
  -2.980996e+02  -5.728038e+02
   3.100700e+02  -3.165791e+02
   4.387505e+02   3.064520e+02
   3.883962e+01   5.323248e+02
  -5.700406e+02   1.232357e+02
  -6.103019e+02  -4.121675e+02
  -1.728733e+02  -6.159387e+02
   4.878297e+02  -4.081301e+02
   7.197863e+02   8.365356e+01
   3.676770e+02   4.251548e+02
  -1.338196e+02   3.772839e+02
  -4.413378e+02   4.123823e+01
  -2.889170e+02  -1.296259e+02
   1.044401e+02  -1.200032e+02
   1.767355e+02   1.059200e+02
  -1.695175e+02   1.432628e+02
  -3.488948e+02  -1.081649e+02
  -1.357945e+02  -2.142537e+02
   2.314430e+02  -2.617097e+02
   4.224153e+02  -6.628072e+01
   2.400740e+02   9.171566e+01
  -2.478553e+01   2.776122e+02
  -2.454561e+02   3.851579e+02
  -3.608482e+02   1.860727e+02
  -3.457122e+02  -1.617252e+02
  -1.350432e+02  -3.829796e+02
   1.095027e+02  -3.173879e+02
   1.574172e+02  -1.195357e+02
   1.055777e+02  -8.432409e+00
   1.253880e+01  -4.654014e+01
   1.677845e+02  -1.620893e+02
   2.414239e+02  -1.458867e+01
   1.702919e+02   2.639213e+02
  -6.691002e+01   2.373470e+02
  -2.314234e+02   1.805297e+01
  -2.428303e+02  -2.038199e+02
   1.366555e+01  -2.922973e+02
   3.002069e+02  -1.255907e+02
   3.580814e+02   1.874532e+02
   1.636010e+02   3.217818e+02
  -1.248124e+02   2.871468e+02
  -2.320806e+02   1.026657e+02
  -1.294433e+02   5.296768e+01
  -1.200362e+02   6.818148e+01
  -2.321921e+02   1.157638e+02
  -4.005875e+02  -7.127150e+01
  -3.800506e+02  -2.996010e+02
  -2.693651e+01  -4.676149e+02
   3.636210e+02  -4.080062e+02
   5.309083e+02  -1.426205e+02
   3.549993e+02   1.456569e+02
   8.099466e+01   3.007717e+02
  -1.290727e+02   2.471877e+02
  -2.734059e+01  -7.771542e+00
   1.099662e+02  -5.889150e+01
   1.758977e+02   2.281897e+01
  -2.455211e+01   1.530200e+02
  -1.985254e+02   1.196747e+02
  -1.603784e+02  -8.032202e+01
   3.254935e+01  -1.724114e+02
   1.646312e+02  -4.911781e+01
   1.950479e+02   2.825765e+02
  -4.196437e+01   3.636709e+02
  -2.519835e+02   2.006794e+02
  -3.708457e+02  -6.261098e+01
  -2.884179e+02  -2.663941e+02
  -9.584519e+01  -2.531352e+02
   1.406477e+02  -1.750304e+02
   1.596561e+02  -3.151667e+01
   1.294065e+01   4.246201e+01
  -7.074758e+01  -4.563556e+01
  -1.515537e+01  -9.162448e+01
   1.502086e+02  -1.025789e+02
   1.781638e+02   2.906374e+01
   6.360015e+01   6.568162e+01
  -6.560173e+01   6.467738e+01
  -1.176258e+02  -7.619372e+01
   1.067240e+02  -1.269026e+02
   2.968540e+02  -3.995694e+01
   2.564260e+02   1.388911e+02
   5.655215e+01   3.017451e+02
  -1.841386e+02   2.783098e+02
  -2.927079e+02   1.186382e+02
  -1.637727e+02  -4.104009e+01
   5.091241e+01  -1.245040e+02
   5.192765e+01   7.065635e+00
  -8.463930e+01   1.170883e+02
  -2.116355e+02   3.474458e-01
  -1.614852e+02  -1.137693e+02
  -1.875205e-01  -2.493876e+02
   1.338428e+02  -1.865010e+02
   1.530554e+02  -2.884909e+01
   8.246815e+01   8.873209e+01
  -4.292538e+01   3.125721e+01
  -1.462399e+01  -6.714631e+01
   1.001622e+02  -1.089623e+02
   1.879854e+02  -1.679224e+01
   1.729707e+02   1.379419e+02
   6.781179e+00   2.340948e+02
  -1.707061e+02   1.548829e+02
  -1.911080e+02  -4.413299e+01
  -5.044649e+01  -2.112194e+02
   6.524488e+01  -9.636282e+01
   1.257185e+02   2.910092e+00
  -2.007222e+01   8.553763e+01
  -7.750180e+01   8.214740e+01
  -2.746201e+01   1.685247e+01
   8.118608e+01  -1.064008e+01
   1.322552e+02   9.198179e+01
   5.425608e+01   1.304837e+02
  -1.785082e+02   1.743959e+02
  -1.712221e+02  -3.314380e+01
  -2.129181e+02  -1.724212e+02
  -2.328618e+01  -2.298873e+02
   1.032962e+02  -1.467332e+02
   1.546889e+02  -4.443196e+01
   7.179233e+01   8.542479e+01
   2.510768e+01   5.049388e+01
   5.162523e+01  -2.767942e+01
   5.324229e+01  -1.223060e+01
   2.140479e+01   1.382379e+01
  -1.451557e+01   4.914461e+01
  -7.375979e+01   1.562388e+01
  -6.890415e+01  -5.107578e+01
  -5.023511e+01  -1.111052e+02
   1.873390e+02  -3.985371e+01
   1.788206e+02   2.517811e+01
   4.996575e+01   2.012368e+02
  -1.284032e+02   1.908406e+02
  -2.345892e+02   1.303868e+02
  -2.409141e+02  -8.074893e+01
  -9.740186e+01  -1.479177e+02
   3.595032e+01  -1.695256e+02
   9.300433e+01  -7.030968e+01
   6.868945e+01  -3.927653e+01
   5.740210e+01  -1.088181e+02
   1.148860e+02  -6.247546e+01
   1.225547e+02  -2.675204e+01
   1.055978e+02   1.763457e+02
   2.626192e+01   2.207601e+02
  -1.017585e+02   1.934626e+02
  -2.199687e+02  -1.993411e+01
  -1.150121e+02  -9.750573e+01
  -1.488144e+01  -1.855261e+02
   9.138139e+01  -7.019440e+01
   6.945463e+01  -4.305152e+01
   1.084771e+01   2.456153e+01
   7.052372e+01   2.634825e+01
   7.470096e+01   9.640026e+00
   7.557010e+01   6.655991e+01
  -1.460168e+00   3.881978e+01
  -9.180264e+01   7.373286e+01
  -1.558744e+02   2.890599e+01
  -1.464615e+02  -4.430066e+01
  -3.525399e+01  -1.225504e+02
   4.250010e+01  -9.985919e+01
   1.157298e+02  -8.673626e+00
   8.048039e+01   7.451537e+01
  -5.308095e+01   5.915583e+01
  -5.168664e+01   2.371282e+01
  -1.202152e-01  -4.379683e+01
   7.053057e+01  -3.771328e+01
   5.866850e+01   1.740298e+01
  -2.097839e+01   5.280471e+01
   1.269468e+01   2.280099e+01
   5.341875e+01  -4.205835e+01
   6.984595e+01  -1.471898e+01
   4.287931e+01   9.938074e+01
  -3.865124e+01   1.249743e+02
  -8.947966e+01   1.444047e+02
  -1.155903e+02   1.123911e+01
  -7.048259e+01  -5.381383e+01
   3.979138e+01  -8.532336e+01
   7.462684e+01  -2.756066e+01
   4.032085e+01  -3.470845e+01
  -9.429402e+01   2.856468e+01
  -1.331971e+02  -1.115500e+02
  -6.018555e+01  -1.137086e+02
   8.104883e+01  -1.354937e+02
   2.199874e+02  -6.328621e+01
   2.150419e+02   6.711918e+01
   5.148608e+01   1.227522e+02
  -5.664734e+01   6.013226e+01
  -7.894386e+01   7.257579e+01
   1.464165e+01  -2.813601e+01
   1.969282e+01   3.237564e+01
   2.343690e+01   1.351619e+02
  -1.034133e+02   1.230538e+02
  -1.848417e+02   3.273654e+01
  -1.435253e+02  -1.134866e+02
   2.895251e+01  -1.601434e+02
   6.808903e+01  -1.152749e+02
   1.534091e+02   3.294649e+01
   1.674537e+01   1.087227e+02
   2.282052e+00   8.557477e+01
  -5.881235e-01   2.166438e-01
  -2.247934e+01  -5.147514e+00
   1.405980e+01  -1.063474e+01
  -2.516082e+01   2.166227e+01
  -2.793432e+01  -2.373227e+01
  -3.051063e+01  -8.456597e+01
  -9.807918e+00  -1.258445e+02
   5.604276e+01  -7.069515e+01
   1.696040e+02   3.438582e+01
   1.302469e+02   7.920043e+01
   7.370520e+01   1.094486e+02
  -1.071523e+02   4.702658e+01
  -1.381548e+02   7.206748e+00
  -4.672538e+01  -6.962404e+01
   2.091531e+01  -5.328298e+01
  -2.352368e+01   9.336530e+00
  -2.471521e+01   2.721202e+01
  -6.882965e+00   3.049529e+01
   6.957547e+01   3.180636e+00
   7.705325e+01   2.786783e+01
   1.363428e+00   8.781925e+01
  -1.429704e+02   1.444849e+02
  -1.916865e+02   2.191088e+01
  -1.085031e+02  -1.104060e+02
   2.368488e+01  -1.543832e+02
   1.202540e+02  -1.997870e+02
   1.642795e+02  -4.294173e+01
   5.919547e+01   7.772588e+01
   6.325540e+00   5.696241e+01
  -3.812655e+01   1.759429e+01
   8.243150e+00   8.554608e+00
   7.916800e+01   2.579076e+01
   1.122844e+01   1.230509e+02
  -5.423144e+01   8.780470e+01
  -1.182882e+02  -3.807577e+01
  -1.012731e+02  -1.093831e+02
  -4.496370e+01  -7.751222e+01
   1.189118e+02  -7.250032e+01
   1.416906e+02   5.158373e+01
   3.945993e+01   1.523608e+02
  -9.123486e+01   7.253736e+01
  -8.321204e+01   2.314266e+01
  -8.711655e+01  -5.820213e+01
   3.454171e+00  -6.754502e+01
   1.257607e+01  -3.345164e+01
  -2.696175e+01  -5.007991e+00
  -8.844747e+01   1.475396e+01
   3.408258e+00   6.048167e+00
   9.466935e+01  -5.446547e+01
   1.040042e+02  -5.139201e+01
   7.884933e+01   2.901582e+00
  -5.223111e+01   7.527071e+01
  -4.669730e+01   2.116527e+01
  -4.793878e+01   2.024024e+01
   2.075871e+01  -5.056171e+01
   4.215387e+01  -4.724088e+01
   2.086797e+01   1.617863e+01
   4.582869e+01   8.031628e+01
  -2.005194e+01   1.218503e+01
  -7.646429e+01  -3.909223e+01
  -2.197235e+01  -1.839552e+01
   1.583997e+01  -2.384840e+01
   1.380183e+01   5.718503e+00
  -2.200783e+01  -4.374963e+00
  -2.091558e+01  -5.492239e+01
   1.421534e+01  -7.217217e+01
  -4.310063e-01  -1.531971e+01
   6.189487e+01   3.271367e+01
  -3.236897e+01   6.400404e+01
  -2.698654e+01   6.517523e+01
  -8.362224e+01  -3.930437e+01
  -6.451292e+00  -6.074047e+01
   6.982975e+01  -6.847065e+01
   1.345544e+02   6.470537e+00
   1.634305e+01   2.761319e+01
  -1.582056e+01   5.363673e+01
  -6.390706e+01   2.227871e+01
  -9.027738e+01  -5.077938e+01
   3.667560e+01  -2.767259e+01
   5.630405e+01   1.641629e+01
  -4.761977e-01   4.816190e+01
  -8.548625e+01   1.912631e+01
