
 $NMID
 id='ANONYMOUS ', fmtdat='(2E16.6)'
 volume=1.0
 tramp=1.0
 $END
  -1.404806e+03  -1.298955e+02
  -1.070809e+03  -9.029546e+02
  -2.092294e+02  -1.190450e+03
   6.167648e+02  -7.977820e+02
   4.285986e+02  -2.340030e+02
   5.330565e+01   4.650674e+01
  -6.192852e+01   6.122049e+01
  -3.621504e+01  -1.560028e+02
   2.018770e+02  -2.821679e+02
   2.577573e+02  -1.659270e+02
   1.854561e+02   2.305648e+02
  -1.281520e+02   2.532017e+02
  -1.659153e+02   6.841560e+01
  -1.177760e+02  -2.085997e+02
   1.766814e+02  -2.628276e+02
   2.499327e+02  -3.720701e+01
   2.551668e+02   2.132793e+02
  -5.330421e+00   4.329593e+02
  -2.134597e+02   1.904204e+02
  -2.426811e+02  -4.390468e+00
  -2.621234e+02  -1.193428e+02
  -1.115664e+02  -3.793636e+01
  -4.794176e+01  -1.590952e+01
  -6.436904e+01  -3.280542e+01
  -1.785365e+02  -9.337604e+01
   8.285600e+01  -1.913595e+02
   2.264650e+02  -4.113059e+01
   4.230934e+02   1.460578e+02
   7.043891e+01   2.240626e+02
  -9.519323e+01   8.646210e+01
  -3.304843e+02  -1.591702e+02
  -1.296246e+02  -2.814793e+02
   1.326941e+02  -1.411272e+02
   2.727805e+02  -1.568151e+01
   2.306187e+02   8.476613e+01
   5.102178e+01   9.437294e+01
   1.026947e+02   7.115662e+01
   3.055190e+01  -6.745330e+01
   1.080426e+02  -5.329750e+01
   4.364401e+01   2.227173e+01
  -2.465241e+01   2.550993e+02
  -9.465246e+01   2.430409e+02
  -1.435329e+02  -3.848138e+01
  -7.574104e+01  -1.679998e+02
   9.593808e+01  -7.711306e+01
   9.090374e+01   1.790204e+02
  -1.987190e+01   2.163019e+02
  -2.020411e+02   2.373969e+01
  -2.840863e+02  -1.956534e+02
  -1.240113e+02  -2.555526e+02
   9.555724e+01  -1.143925e+02
   2.665658e+02   6.477182e+01
   2.160191e+02   6.889702e+01
  -3.210184e+01   2.065410e+01
  -1.458883e+02   3.359933e+01
  -1.167357e+02   1.648643e+01
  -3.473995e+01   3.425303e+01
   5.567445e+01   4.332995e+01
  -7.672531e+01  -2.742220e+01
  -1.325962e+02  -7.911751e+00
  -5.829089e+01  -4.234855e+01
   7.791350e+01  -1.029772e+02
   1.809273e+02  -3.970440e+01
   1.321982e+02   3.518009e+01
  -3.961141e+01   1.614515e+02
  -2.584506e+02   2.146866e+02
  -2.198135e+02   9.513223e+01
  -1.381388e+02  -9.709496e+01
   4.395588e+01  -2.046669e+02
   4.107996e+01  -1.953746e+02
  -1.046581e+01  -1.300228e+02
   2.626018e+01  -3.952806e+01
   8.399785e+01  -5.394896e+01
   1.591680e+02   3.450734e+00
   1.665707e+02   5.083380e+01
   2.373413e+01   1.468486e+02
  -8.075345e+01   1.314416e+02
  -8.534460e+01   1.296752e+01
  -5.121516e+01  -1.615395e+02
  -4.258549e+00  -1.375582e+02
   1.244989e+02  -2.446168e+01
   1.535664e+02   1.375424e+02
   7.341334e+01   1.606265e+02
  -3.612015e+01   1.657571e+02
  -6.017605e+01   1.224873e+02
  -5.896222e+01   4.695733e+01
  -6.864968e+01   5.397678e+01
  -1.251069e+02   3.285303e+01
  -2.301356e+02  -1.946007e+00
  -1.733008e+02  -1.605903e+02
  -3.946358e+01  -2.216503e+02
   1.466843e+02  -1.824522e+02
   2.272677e+02  -9.402487e+01
   1.460053e+02   5.947556e+01
  -2.771602e+01   7.531285e+01
  -6.351995e+01   8.770769e+01
  -3.770073e+00  -1.725097e+01
   8.768943e+01  -4.395975e+01
   1.216655e+01   4.985310e+01
   7.303306e+00   8.863038e+01
  -7.785702e+01   8.195709e+01
  -5.432455e+01  -2.334881e+01
   2.097337e+01  -2.647817e+01
   9.858018e+01   5.372796e-01
   8.054298e+01   1.678578e+02
  -1.434314e+01   2.155727e+02
  -1.447492e+02   1.578017e+02
  -2.106314e+02  -5.234092e+01
  -2.065887e+02  -1.616257e+02
  -3.792751e+01  -1.542464e+02
   6.602423e+01  -1.012672e+02
   1.136080e+02  -4.716271e+01
   7.926365e+01  -2.427242e+01
   6.760788e+00  -5.651966e+01
   7.648104e+00  -7.262912e+01
   6.080083e+01  -7.309312e+00
   9.989465e+01   4.524011e+01
  -1.817204e+01   3.514898e+01
  -2.173117e+01  -4.081010e+01
  -3.289239e+01  -4.711754e+01
   1.340066e+02  -1.717575e+01
   1.884133e+02   6.891061e+01
   1.807984e+02   1.362813e+02
  -1.961424e+01   1.407096e+02
  -1.321146e+02   1.788409e+02
  -1.463025e+02   7.229211e+01
  -8.267365e+01  -4.391288e+01
   2.352923e+01  -1.114407e+01
  -9.191770e+00   4.694019e+01
  -5.952600e+01   4.317878e+01
  -1.572134e+02  -1.236585e+01
  -1.342265e+02  -5.514206e+01
  -5.717661e+01  -8.629366e+01
   6.233590e+01  -1.216819e+02
   5.301777e+01   2.509625e-01
  -2.510320e+01  -1.416950e+01
  -5.522839e+01  -2.243108e+01
   4.746239e+00  -9.698325e+01
   1.027333e+02  -1.068312e+02
   1.358220e+02  -1.872709e+01
   1.291978e+02   5.897890e+01
  -5.647690e+00   8.406968e+01
  -1.051836e+02   3.970083e+01
  -3.510948e+01  -5.114778e+01
  -1.467884e+01  -5.606220e+01
   9.224653e+01  -6.514582e+01
   6.032465e+01   7.402723e+00
   3.131537e+01   4.365297e+01
  -3.264263e+01   3.077689e+01
  -1.518052e+00  -1.434607e+01
   4.896139e+01   3.091378e+00
   9.468989e+00   7.383681e+01
  -3.879722e+01   1.003409e+02
  -1.024178e+02   7.024556e+01
  -1.437993e+02   5.098916e+00
  -1.258725e+02  -1.377163e+02
   2.740208e+01  -1.557992e+02
   8.295195e+01  -1.237235e+02
   9.942638e+01  -3.244144e+01
  -3.074264e+00   4.231128e+01
   1.062464e+00   4.778196e+01
   7.345992e+00  -7.306232e+00
   6.588773e+01  -1.153798e+00
  -1.849965e+00   4.475423e+01
  -1.279799e+01   2.282702e+01
  -6.344145e+01   4.298979e+01
  -8.742515e+01  -5.393037e+01
   9.256864e-02  -6.125523e+01
   1.293532e+02  -1.042119e+02
   1.543803e+02   6.147338e+01
   6.852299e+01   1.186247e+02
  -7.912453e+01   8.785810e+01
  -1.331457e+02   4.921193e+01
  -1.924409e+02  -8.730841e+01
  -5.084314e+01  -8.710060e+01
  -7.954525e+00  -1.004644e+02
   1.749853e+01  -1.495973e+01
   4.601213e+01  -2.707196e+01
   4.652917e+01  -2.855308e+01
   1.070471e+02  -5.298643e+01
   6.249972e+01   2.263279e+01
   8.124427e+01   1.213216e+02
  -1.343177e+01   1.581146e+02
  -4.201036e+01   8.736602e+01
  -9.463686e+01  -1.247916e+01
  -7.509188e+01  -1.019205e+02
   9.861626e+00  -1.193513e+02
   6.886320e+01  -4.798659e+01
   1.394715e+01  -2.139680e+01
  -2.833023e+01   2.770852e+01
  -2.729482e+01  -9.134445e+00
   3.826351e+01   4.404959e+01
   5.194670e+01   9.190834e+00
   6.056345e+01  -5.942077e+00
  -3.949185e+01   6.325418e+01
  -8.836491e+01  -4.763163e+00
  -1.011959e+02  -1.288349e+01
  -5.178368e+01  -5.951948e+01
   7.087116e+01  -2.910050e+01
   1.026219e+02  -3.487610e+01
   3.028425e+01   7.418396e+01
  -8.067108e+00   4.778827e+00
  -3.839698e+01  -9.544504e+01
   1.708243e+01  -6.428281e+01
   3.940097e+01  -5.284096e+01
   2.612397e+01  -3.787524e+01
   3.165586e+01   4.655928e+01
   8.323353e+00   5.330102e+01
   1.696966e+01   1.983622e+01
   1.599643e+01  -8.574663e-01
   4.434188e+01   5.517880e+01
  -1.237848e+01   2.330830e+01
  -1.402976e+01   5.371449e+01
  -8.124580e+01   4.828621e+01
  -8.872833e+01  -8.841558e+01
   1.876440e+01  -9.320520e+01
   7.400390e+01  -4.010757e+01
   4.980023e+01  -2.114259e+01
  -7.852143e+01   6.847375e+00
  -5.827154e+01  -3.294101e+01
  -7.423616e+01  -6.793483e+01
  -5.410662e+00  -9.912512e+01
   1.212132e+02  -2.222415e+01
   7.223254e+01   2.521281e+01
   3.343869e+01   7.820952e+01
   3.243058e+01   3.367001e+01
  -2.167457e+01   1.256973e+01
  -5.792437e+00  -5.079149e-01
   1.472491e+01   3.330891e+01
   3.801037e+00   6.289772e+01
  -9.527806e+01   1.130614e+02
  -1.516195e+01   1.103126e+01
  -2.866689e+01  -6.564360e+01
   1.305524e+00  -1.305354e+02
   5.646561e+01  -1.093607e+02
   4.963486e+01  -2.614813e+01
  -1.044528e+01   9.441017e+01
   4.793283e+00   4.506616e+01
  -3.668299e+01   1.887874e+01
  -4.376378e+01   4.701836e+01
  -8.156247e+00   2.816537e+01
   4.742495e+01   1.028646e+01
   2.636978e+00  -4.332702e+00
  -3.111081e+01  -7.273451e+01
   3.618254e+00  -3.233190e+01
  -7.645357e+00   2.514452e+01
   8.785922e+01   1.938944e+01
   8.660616e+01   4.199579e+01
  -3.567708e+01   7.180301e+00
  -8.212908e+01   9.427949e+00
  -1.337642e+01  -1.360969e+01
  -1.823822e+01  -8.129411e-01
   2.190778e+01  -1.601426e+01
   9.786112e+00   9.719395e+00
   2.661038e+01   1.942766e+01
   1.611379e+01  -6.060180e+00
   1.457694e+01  -2.942574e+01
   6.147005e+01   3.355136e-01
   2.947349e+01   8.357174e+01
  -1.088106e+01   8.605670e+01
  -6.334638e+01   2.165014e+01
  -7.066921e+01   1.039583e+00
  -5.797419e+01  -4.750859e+01
   8.029384e+01  -1.281422e+02
   6.112628e+01  -2.495011e+01
   1.973862e+01   5.931857e+00
  -4.201967e+00  -1.183441e+00
   1.243477e+01  -2.300097e+01
  -1.967908e+00  -1.865855e+01
  -1.311633e+01   5.050388e+01
   1.451893e+01   4.935925e+01
  -3.354222e+01   2.133725e+01
  -2.440775e+01  -6.046068e+01
  -4.791699e+01  -5.464650e+01
  -7.577536e+00  -7.713716e+01
   2.651830e+01  -2.664212e+01
   4.984421e+01   5.645494e+01
   1.990212e+01   1.041893e+02
  -5.342434e+01   5.468988e+01
  -5.963763e+01  -2.188887e+01
  -2.332736e+01  -5.037087e+01
   7.043761e+01  -3.675498e+01
   8.562964e+00  -3.320417e+01
   9.865764e+00  -6.681397e+00
  -6.320527e+01   4.243280e+01
  -4.234202e+01  -1.252929e+01
   4.902052e+01  -2.952779e+01
   5.637486e+01  -4.087900e+01
   6.290243e+00  -5.633445e+00
  -2.861720e+01   1.514878e+01
  -2.141900e+01   4.804671e+01
   5.264805e+00   2.413572e+01
   3.907411e+01  -5.630694e+00
   6.333973e+00  -1.869772e+01
   1.379125e+01   5.872247e+01
   1.901021e+01   4.994919e+01
   2.351479e+01  -5.006844e+00
  -1.918061e+01  -1.385253e+01
  -1.518369e+01  -4.888141e+01
  -7.853269e+00  -1.627861e+00
  -2.723954e+00   1.666462e+01
   5.885003e+01   3.743324e+01
   1.277888e+01  -5.806855e+00
  -2.289511e+01  -5.541373e+01
  -4.096706e+00   4.393357e+00
  -5.972300e+00   3.954595e+01
  -1.449336e+01   7.968771e+01
  -3.751064e+01   1.092587e+00
  -8.267660e+01  -6.872026e+00
  -1.178125e+01  -2.417509e+01
   3.835850e+01  -4.044070e+01
   8.844157e+01   8.054239e-01
   2.617620e+01   3.986178e+01
  -1.892174e+01   3.156924e+01
  -2.106774e+01  -7.811054e+00
  -2.182242e+01   1.320054e+01
   4.174306e+01  -1.267020e+01
   7.129403e+01  -2.203065e+00
  -1.450840e+01   1.314020e+01
  -4.122595e+01   5.965260e+01
